DTS Sentinel unit serial number:	SN413079Multiplexer serial number:	ORYXHardware model number:	OX4-SRSoftware version number:	ORYX F/W v4.00 Oryx Data Collector v3.7.2.0data status	okinstallation	princeton_trtdifferential loss correction	single-endedforward channel	channel 3reverse channel	N/Adate	2019/09/15time	08:32:34forward acquisition time	60.00reverse acquisition time	0.00gamma	496.2192k internal	0.2320k external	0.2320temperature offset calibration	0.9979default loss term (dB/km)	0.3790temperature slope calibration	1.0000multiplexer offset coefficient	1.0000multiplexer slope coefficient	1.0000fibre end	0.00T internal ref (°C)	31.69T ext. ref 1 (°C)	4.97T ext. ref 2 (°C)	28.77length (m)	temperature (°C)	Stokes	anti-Stokes-747.200	-200.000	-0.028	-0.147
-746.185	202.343	0.109	0.170
-745.171	-200.000	0.017	0.109
-744.156	-200.000	0.023	0.113
-743.142	-198.935	0.082	-0.000
-742.127	-200.000	-0.004	0.185
-741.112	462.687	0.130	-0.293
-740.098	-46.831	-0.220	0.109
-739.083	4.253	-0.210	-0.156
-738.069	-31.308	-0.291	-0.166
-737.054	93.259	0.030	0.034
-736.039	-82.388	-0.517	-0.170
-735.025	30.807	0.158	-0.137
-734.010	800.000	0.043	-0.149
-732.996	63.271	-0.172	-0.175
-731.981	-200.000	0.042	0.298
-730.966	-76.308	-0.085	0.030
-729.952	-200.000	0.011	-0.117
-728.937	-164.113	0.390	-0.018
-727.923	-2.199	0.094	-0.067
-726.908	-101.743	0.419	-0.103
-725.894	90.076	0.144	-0.163
-724.879	59.001	-0.160	-0.159
-723.864	-200.000	0.008	-0.309
-722.850	-160.789	0.402	0.021
-721.835	68.206	0.100	0.103
-720.821	800.000	-0.091	0.356
-719.806	-200.000	0.011	0.218
-718.791	-167.502	-0.092	-0.004
-717.777	-198.746	-0.325	-0.002
-716.762	-1.331	-0.073	-0.052
-715.748	-200.000	-0.032	-0.218
-714.733	389.291	-0.072	-0.150
-713.718	166.178	-0.180	0.258
-712.704	450.197	0.113	0.252
-711.689	-100.388	0.304	-0.076
-710.675	-128.198	0.286	-0.041
-709.660	-96.075	-0.250	0.067
-708.645	234.656	-0.078	-0.129
-707.631	-200.000	0.012	0.115
-706.616	-88.657	-0.282	0.085
-705.602	-23.331	0.120	0.073
-704.587	-71.953	-0.144	0.054
-703.572	800.000	-0.074	-0.222
-702.558	-111.625	-0.366	-0.075
-701.543	-72.880	-0.110	0.041
-700.529	-200.000	0.002	0.417
-699.514	3.441	-0.256	0.188
-698.499	800.000	0.061	-0.264
-697.485	-200.000	0.047	-0.374
-696.470	-200.000	-0.057	-0.477
-695.456	-2.838	-0.188	0.132
-694.441	411.070	0.201	-0.430
-693.426	-48.371	0.216	0.105
-692.412	-189.317	0.236	0.003
-691.397	230.916	-0.212	-0.350
-690.383	-194.057	-0.232	-0.002
-689.368	111.588	-0.113	0.137
-688.354	-84.602	-0.190	-0.060
-687.339	800.000	0.138	-0.497
-686.324	800.000	-0.068	-0.268
-685.310	-200.000	0.038	-0.182
-684.295	-200.000	0.021	-0.104
-683.281	-87.054	0.226	-0.069
-682.266	85.096	-0.169	0.187
-681.251	-136.797	-0.184	-0.021
-680.237	-200.000	0.001	-0.106
-679.222	-28.663	0.168	-0.098
-678.208	-115.382	0.037	-0.007
-677.193	178.427	0.097	-0.143
-676.178	302.769	0.108	0.201
-675.164	8.002	0.165	-0.125
-674.149	-27.074	0.167	0.098
-673.135	-200.000	0.058	0.369
-672.120	-200.000	-0.033	0.178
-671.105	-200.000	-0.000	-0.191
-670.091	-200.000	-0.016	-0.157
-669.076	394.372	-0.217	0.456
-668.062	-200.000	0.013	-0.214
-667.047	-42.197	-0.165	-0.085
-666.032	335.625	0.075	0.147
-665.018	-46.167	0.416	0.207
-664.003	147.876	-0.139	-0.189
-662.989	-26.498	0.143	-0.085
-661.974	-200.000	0.017	0.178
-660.959	-200.000	-0.048	-0.372
-659.945	800.000	0.132	-0.445
-658.930	-200.000	-0.017	-0.186
-657.916	-143.337	0.252	0.024
-656.901	-172.708	-0.027	0.001
-655.886	-117.624	-0.281	-0.051
-654.872	-166.296	-0.170	0.007
-653.857	-96.041	-0.442	-0.118
-652.843	203.734	-0.044	0.069
-651.828	800.000	0.068	-0.224
-650.814	-200.000	0.011	-0.065
-649.799	153.453	-0.022	0.030
-648.784	-200.000	-0.006	-0.115
-647.770	141.007	0.021	0.028
-646.755	-54.923	-0.319	-0.145
-645.741	34.718	0.121	-0.106
-644.726	627.723	0.159	0.405
-643.711	-200.000	0.001	-0.093
-642.697	-80.597	0.179	-0.060
-641.682	41.439	0.089	-0.081
-640.668	-200.000	-0.093	-0.519
-639.653	-125.989	0.200	-0.030
-638.638	-200.000	-0.043	-0.225
-637.624	10.605	-0.300	-0.230
-636.609	-169.794	-0.234	-0.008
-635.595	-47.928	-0.104	0.051
-634.580	-200.000	-0.011	-0.254
-633.565	702.816	-0.061	0.162
-632.551	-160.489	0.582	0.031
-631.536	-121.106	0.157	-0.026
-630.522	-90.905	-0.187	0.054
-629.507	-143.962	-0.039	-0.004
-628.492	-200.000	-0.008	0.053
-627.478	-200.000	-0.020	-0.092
-626.463	-65.203	-0.375	0.152
-625.449	-200.000	-0.018	0.112
-624.434	-101.813	0.117	-0.029
-623.419	-96.261	0.261	-0.070
-622.405	-200.000	-0.036	0.176
-621.390	-1.414	-0.177	-0.126
-620.376	-134.190	-0.191	0.024
-619.361	-16.878	0.199	-0.127
-618.346	-144.074	0.172	-0.016
-617.332	-117.822	0.344	-0.062
-616.317	330.728	0.056	0.108
-615.303	81.692	0.088	-0.096
-614.288	252.865	0.182	-0.313
-613.273	-175.465	0.152	-0.004
-612.259	167.257	-0.086	-0.123
-611.244	800.000	-0.068	0.257
-610.230	-121.846	0.284	-0.047
-609.215	-159.079	0.357	0.020
-608.201	175.401	-0.139	-0.203
-607.186	-133.283	0.229	0.029
-606.171	-200.000	-0.005	-0.145
-605.157	-15.620	-0.143	-0.092
-604.142	-52.799	0.189	-0.088
-603.128	-185.069	-0.075	0.001
-602.113	-55.597	0.036	0.016
-601.098	96.588	-0.098	0.113
-600.084	628.489	-0.080	0.204
-599.069	56.248	0.244	-0.238
-598.055	606.151	0.060	-0.150
-597.040	-200.000	0.018	0.176
-596.025	136.705	0.054	-0.072
-595.011	242.883	-0.141	0.238
-593.996	-114.427	0.353	0.068
-592.982	363.265	-0.291	-0.588
-591.967	-45.534	0.312	0.155
-590.952	214.031	-0.109	-0.174
-589.938	-145.571	-0.055	-0.005
-588.923	95.704	0.094	0.108
-587.909	-47.346	0.096	0.047
-586.894	100.034	0.072	0.084
-585.879	-58.614	-0.203	-0.089
-584.865	302.302	0.147	-0.273
-583.850	372.696	-0.081	-0.166
-582.836	-3.634	0.300	0.210
-581.821	81.965	0.223	0.243
-580.806	-105.439	0.292	-0.067
-579.792	-13.664	0.194	0.126
-578.777	86.180	0.128	0.141
-577.763	81.350	0.247	-0.268
-576.748	-1.287	-0.088	-0.062
-575.733	19.589	0.154	0.124
-574.719	-39.802	0.246	0.129
-573.704	-106.216	0.200	0.045
-572.690	-153.696	0.388	0.027
-571.675	66.550	-0.137	-0.140
-570.661	266.838	-0.095	-0.168
-569.646	-139.775	0.179	0.019
-568.631	140.537	-0.047	0.062
-567.617	435.974	-0.048	0.104
-566.602	-128.996	-0.276	-0.039
-565.588	29.828	0.151	0.130
-564.573	-200.000	-0.004	0.462
-563.558	-200.000	-0.020	0.089
-562.544	-182.755	-0.245	-0.004
-561.529	800.000	-0.038	-0.119
-560.515	-38.436	-0.127	-0.068
-559.500	601.731	-0.050	0.125
-558.485	-196.733	-0.180	-0.001
-557.471	-200.000	0.027	-0.279
-556.456	800.000	0.072	-0.235
-555.442	-149.167	-0.100	-0.008
-554.427	575.410	0.154	-0.378
-553.412	-200.000	-0.068	-0.422
-552.398	-123.714	0.295	0.047
-551.383	-74.901	0.381	0.137
-550.369	-85.056	0.168	0.053
-549.354	-200.000	0.030	-0.238
-548.339	412.876	-0.003	0.006
-547.325	600.903	-0.091	0.226
-546.310	-38.586	-0.149	-0.079
-545.296	-200.000	-0.002	-0.213
-544.281	-33.229	-0.130	-0.072
-543.266	286.046	0.150	0.271
-542.252	140.877	-0.300	-0.398
-541.237	-104.806	-0.199	0.046
-540.223	341.489	-0.073	0.143
-539.208	584.770	0.062	-0.154
-538.193	29.355	-0.303	0.258
-537.179	-22.074	0.178	0.109
-536.164	-28.083	-0.074	-0.043
-535.150	-70.829	-0.038	-0.014
-534.135	-18.954	-0.322	0.201
-533.121	800.000	-0.184	-0.625
-532.106	-21.214	-0.231	-0.141
-531.091	-72.539	0.055	-0.021
-530.077	39.250	0.092	0.082
-529.062	13.053	0.198	0.153
-528.048	341.669	0.028	-0.056
-527.033	-200.000	-0.009	0.134
-526.018	569.604	-0.087	-0.211
-525.004	221.305	0.035	0.056
-523.989	234.209	0.062	-0.102
-522.975	800.000	0.047	0.153
-521.960	-111.398	0.347	-0.071
-520.945	-3.705	-0.284	0.198
-519.931	-200.000	0.029	-0.149
-518.916	-180.002	0.301	-0.006
-517.902	375.006	-0.072	-0.148
-516.887	-200.000	0.009	0.157
-515.872	6.553	0.116	-0.086
-514.858	117.876	-0.164	-0.202
-513.843	714.936	0.143	-0.380
-512.829	158.339	0.099	-0.138
-511.814	-200.000	-0.011	-0.199
-510.799	-124.573	0.348	-0.054
-509.785	-78.180	0.312	0.108
-508.770	-200.000	0.012	0.147
-507.756	-115.951	0.031	0.006
-506.741	-120.254	-0.335	0.057
-505.726	40.751	-0.058	0.052
-504.712	-17.012	0.098	0.062
-503.697	292.641	-0.152	-0.277
-502.683	144.291	0.219	-0.293
-501.668	21.530	0.079	0.064
-500.653	-64.054	-0.170	0.069
-499.639	67.265	0.093	0.095
-498.624	-200.000	-0.005	0.085
-497.610	153.079	-0.177	0.243
-496.595	390.612	-0.088	-0.183
-495.581	-200.000	0.004	-0.417
-494.566	800.000	-0.077	-0.255
-493.551	167.335	-0.115	0.163
-492.537	-93.148	0.208	0.058
-491.522	-96.351	-0.231	-0.061
-490.508	-44.481	-0.068	0.034
-489.493	25.823	0.189	-0.158
-488.478	43.924	0.179	-0.165
-487.464	-167.768	0.079	0.003
-486.449	-38.420	-0.322	-0.171
-485.435	-200.000	-0.054	-0.438
-484.420	-200.000	-0.005	0.081
-483.405	-88.293	0.167	0.050
-482.391	800.000	0.026	-0.094
-481.376	-200.000	0.042	0.256
-480.362	800.000	-0.131	0.412
-479.347	-8.862	-0.361	-0.242
-478.332	-94.263	0.271	0.074
-477.318	-200.000	-0.063	0.517
-476.303	12.081	-0.101	0.078
-475.289	196.798	0.187	0.286
-474.274	-133.772	0.150	0.019
-473.259	-138.733	-0.212	0.023
-472.245	-107.126	0.242	-0.053
-471.230	-65.127	0.366	-0.148
-470.216	-4.213	-0.256	-0.178
-469.201	-30.629	0.060	-0.034
-468.186	800.000	-0.034	0.115
-467.172	20.098	-0.269	-0.217
-466.157	-153.963	0.171	0.012
-465.143	-50.023	0.313	-0.148
-464.128	-200.000	-0.047	0.260
-463.113	-200.000	0.042	0.237
-462.099	225.232	-0.162	-0.263
-461.084	94.043	0.254	0.289
-460.070	1.343	-0.144	-0.104
-459.055	-200.000	-0.062	0.392
-458.040	90.996	0.104	-0.116
-457.026	-200.000	-0.013	-0.453
-456.011	-70.076	-0.318	-0.121
-454.997	-120.469	-0.183	-0.031
-453.982	-200.000	-0.032	-0.144
-452.968	138.248	0.117	-0.153
-451.953	65.812	-0.168	0.171
-450.938	-121.243	-0.113	-0.019
-449.924	-91.174	0.150	0.043
-448.909	-55.401	-0.420	0.188
-447.895	79.436	-0.031	0.033
-446.880	-17.896	0.300	-0.188
-445.865	139.751	-0.076	-0.100
-444.851	203.271	-0.106	0.164
-443.836	6.803	-0.292	0.217
-442.822	86.367	0.171	-0.188
-441.807	-44.486	-0.155	0.078
-440.792	149.210	0.089	0.121
-439.778	-46.312	-0.103	0.051
-438.763	-87.649	0.276	0.083
-437.749	575.682	-0.103	0.252
-436.734	267.080	-0.178	-0.312
-435.719	-81.639	-0.457	-0.150
-434.705	800.000	0.092	0.271
-433.690	133.069	0.213	-0.275
-432.676	136.670	0.072	-0.093
-431.661	-63.818	0.221	-0.090
-430.646	-97.694	0.207	-0.054
-429.632	34.616	0.171	0.149
-428.617	-27.094	0.046	0.027
-427.603	-103.047	-0.246	-0.058
-426.588	-41.774	-0.122	-0.062
-425.573	86.012	-0.077	-0.085
-424.559	463.145	-0.127	0.282
-423.544	496.874	0.047	0.109
-422.530	91.083	-0.117	0.132
-421.515	-151.339	0.062	-0.005
-420.500	-77.553	-0.138	-0.048
-419.486	-51.901	-0.171	0.080
-418.471	-145.927	-0.380	0.034
-417.457	134.098	-0.040	-0.052
-416.442	-200.000	0.045	0.409
-415.428	10.773	0.053	-0.040
-414.413	12.815	-0.191	-0.147
-413.398	-83.028	0.175	-0.056
-412.384	-200.000	0.017	0.185
-411.369	393.244	0.115	0.239
-410.355	-2.043	-0.122	0.086
-409.340	78.144	-0.209	-0.223
-408.325	-91.855	-0.058	-0.016
-407.311	41.145	-0.302	-0.273
-406.296	-163.502	-0.348	-0.016
-405.282	-200.000	-0.028	-0.253
-404.267	385.382	-0.150	-0.309
-403.252	143.697	0.023	-0.030
-402.238	190.387	0.075	0.113
-401.223	9.112	-0.092	0.069
-400.209	50.338	0.193	0.182
-399.194	117.149	-0.221	0.270
-398.179	-200.000	0.001	-0.059
-397.165	800.000	-0.088	-0.362
-396.150	29.123	0.180	0.152
-395.136	120.062	-0.304	-0.376
-394.121	332.457	-0.113	-0.218
-393.106	-127.387	0.327	-0.047
-392.092	170.340	-0.140	-0.200
-391.077	-109.982	-0.145	0.030
-390.063	29.439	0.247	0.209
-389.048	65.545	0.204	0.206
-388.033	-200.000	0.015	0.223
-387.019	-51.858	-0.169	-0.078
-386.004	-61.143	0.092	0.039
-384.990	-200.000	0.035	-0.197
-383.975	566.264	-0.057	-0.138
-382.960	70.304	-0.138	0.143
-381.946	-59.562	-0.146	-0.062
-380.931	-116.938	-0.132	0.024
-379.917	-200.000	-0.002	0.187
-378.902	-200.000	0.027	-0.194
-377.888	206.688	-0.129	0.200
-376.873	61.258	-0.353	0.350
-375.858	72.888	-0.110	-0.114
-374.844	-55.384	0.243	-0.109
-373.829	308.596	0.050	0.093
-372.815	56.168	-0.061	-0.059
-371.800	-200.000	0.004	-0.312
-370.785	7.919	-0.130	0.097
-369.771	45.183	-0.069	0.063
-368.756	-26.263	0.415	-0.243
-367.742	800.000	0.075	0.241
-366.727	-200.000	0.040	0.254
-365.712	-53.619	0.199	0.090
-364.698	150.687	0.061	0.083
-363.683	-2.311	-0.027	0.019
-362.669	800.000	0.021	-0.074
-361.654	-11.000	-0.390	-0.257
-360.639	800.000	-0.017	0.069
-359.625	46.527	-0.113	0.105
-358.610	11.905	-0.305	0.233
-357.596	5.366	0.070	-0.051
-356.581	608.031	-0.116	-0.288
-355.566	20.366	0.137	-0.110
-354.552	-200.000	-0.005	0.133
-353.537	800.000	0.064	0.270
-352.523	-97.646	0.156	0.040
-351.508	124.424	-0.097	0.122
-350.493	-62.151	-0.043	0.018
-349.479	-115.809	-0.179	0.033
-348.464	-45.936	-0.103	0.051
-347.450	-11.514	0.180	-0.118
-346.435	-72.356	-0.255	0.094
-345.420	-14.653	0.306	-0.196
-344.406	-200.000	0.167	0.001
-343.391	-118.625	0.289	-0.051
-342.377	800.000	-0.112	0.436
-341.362	142.510	-0.128	0.169
-340.348	-153.493	0.402	0.028
-339.333	-13.501	0.056	-0.036
-338.318	-200.000	-0.075	0.362
-337.304	-95.818	-0.482	-0.128
-336.289	-90.696	-0.088	0.025
-335.275	-97.817	-0.247	-0.064
-334.260	-145.441	-0.280	-0.025
-333.245	129.757	0.089	-0.113
-332.231	376.373	-0.087	-0.176
-331.216	-80.016	-0.183	0.061
-330.202	589.369	0.082	-0.201
-329.187	201.658	-0.004	0.007
-328.172	800.000	0.047	0.195
-327.158	174.001	0.139	0.200
-326.143	-200.000	-0.040	0.360
-325.129	800.000	0.012	-0.042
-324.114	-93.902	-0.215	-0.059
-323.099	-67.950	-0.087	0.034
-322.085	-51.743	-0.227	-0.105
-321.070	-133.954	-0.058	0.007
-320.056	-200.000	-0.041	-0.245
-319.041	119.122	-0.143	0.176
-318.026	390.696	0.086	0.178
-317.012	-121.640	-0.078	0.013
-315.997	-200.000	-0.003	-0.213
-314.983	145.164	0.196	-0.260
-313.968	151.992	0.209	-0.284
-312.953	-200.000	-0.065	0.372
-311.939	69.280	0.233	-0.239
-310.924	63.903	0.102	0.102
-309.910	800.000	-0.189	0.606
-308.895	171.962	-0.212	0.303
-307.880	463.291	-0.135	0.300
-306.866	-200.000	0.002	-0.152
-305.851	-108.953	-0.110	-0.023
-304.837	-200.000	-0.014	-0.161
-303.822	759.080	0.067	0.181
-302.807	2.705	0.121	-0.087
-301.793	-125.363	0.287	-0.043
-300.778	35.711	-0.243	-0.212
-299.764	-53.251	0.305	0.139
-298.749	45.135	0.039	0.036
-297.735	41.925	-0.240	-0.216
-296.720	55.405	-0.192	0.184
-295.705	-98.383	-0.307	-0.078
-294.691	25.982	0.129	0.107
-293.676	356.051	0.118	0.233
-292.662	156.082	-0.112	0.153
-291.647	-146.090	0.098	0.009
-290.632	517.507	-0.075	-0.175
-289.618	226.717	0.012	0.019
-288.603	-101.416	-0.397	-0.096
-287.589	-186.150	0.140	0.002
-286.574	-200.000	-0.004	0.256
-285.559	186.890	0.080	-0.118
-284.545	-71.620	-0.085	-0.031
-283.530	23.288	-0.156	0.127
-282.516	-46.696	0.214	-0.104
-281.501	333.981	0.142	0.273
-280.486	-124.484	-0.330	0.051
-279.472	-125.371	0.151	0.023
-278.457	127.720	-0.118	0.149
-277.443	-200.000	0.039	-0.307
-276.428	-200.000	0.019	0.108
-275.413	-200.000	-0.040	0.239
-274.399	-157.831	-0.088	0.005
-273.384	129.778	-0.195	0.248
-272.370	800.000	-0.025	0.082
-271.355	228.671	-0.141	-0.227
-270.340	164.139	0.066	0.093
-269.326	-82.495	0.130	0.042
-268.311	172.748	0.071	0.102
-267.297	470.324	0.066	-0.147
-266.282	9.100	-0.218	0.163
-265.267	-52.316	0.132	0.061
-264.253	262.112	0.182	0.313
-263.238	-27.014	-0.104	-0.060
-262.224	-200.000	-0.010	0.225
-261.209	800.000	-0.076	0.240
-260.195	145.188	0.179	-0.237
-259.180	2.343	-0.364	0.261
-258.165	578.089	0.069	0.167
-257.151	1.768	0.111	0.079
-256.136	-134.261	-0.247	0.030
-255.122	8.733	-0.330	-0.247
-254.107	12.033	0.145	0.111
-253.092	-90.630	0.067	0.019
-252.078	32.305	0.181	-0.155
-251.063	-32.478	0.168	0.093
-250.049	-13.254	0.211	0.136
-249.034	70.598	0.076	0.078
-248.019	-60.623	-0.259	0.109
-247.005	-200.000	0.004	-0.056
-245.990	13.738	0.349	-0.269
-244.976	-200.000	0.044	0.228
-243.961	-152.537	-0.165	-0.012
-242.946	335.731	-0.101	0.195
-241.932	-200.000	0.008	0.079
-240.917	800.000	0.080	-0.239
-239.903	283.246	0.012	-0.021
-238.888	92.397	0.072	0.081
-237.873	-200.000	-0.006	0.105
-236.859	-43.825	-0.153	-0.076
-235.844	-24.856	0.212	-0.125
-234.830	-162.954	0.369	0.018
-233.815	580.816	-0.121	0.293
-232.800	107.399	0.094	-0.111
-231.786	238.900	0.188	-0.309
-230.771	-66.114	-0.234	0.093
-229.757	249.905	0.076	0.128
-228.742	173.223	0.183	-0.261
-227.727	-20.171	-0.294	-0.180
-226.713	-200.000	0.005	0.070
-225.698	-200.000	0.001	0.208
-224.684	-200.000	-0.028	0.132
-223.669	-200.000	-0.006	-0.105
-222.655	-69.481	-0.252	-0.096
-221.640	-80.896	-0.259	0.085
-220.625	-89.899	-0.039	-0.011
-219.611	-182.466	0.219	0.004
-218.596	3.265	0.327	-0.236
-217.582	44.479	0.019	-0.017
-216.567	158.465	0.081	-0.112
-215.552	-145.907	-0.290	0.025
-214.538	-200.000	-0.004	0.157
-213.523	39.303	0.199	-0.177
-212.509	-29.585	-0.136	-0.077
-211.494	-76.883	0.258	0.089
-210.479	48.422	-0.084	-0.078
-209.465	-190.799	-0.340	-0.004
-208.450	319.787	0.076	0.143
-207.436	-200.000	-0.084	-0.380
-206.421	-73.033	0.218	0.079
-205.406	120.464	0.111	-0.136
-204.392	-31.055	-0.185	-0.103
-203.377	-200.000	-0.001	-0.503
-202.363	-117.900	-0.217	-0.039
-201.348	-150.602	0.208	-0.016
-200.333	180.759	0.029	0.041
-199.319	800.000	0.074	-0.225
-198.304	-200.000	-0.002	-0.186
-197.290	-25.199	-0.274	0.160
-196.275	638.565	-0.069	0.175
-195.260	-36.920	0.137	-0.073
-194.246	-200.000	-0.019	-0.359
-193.231	-200.000	-0.042	0.208
-192.217	383.470	0.117	0.238
-191.202	-127.467	-0.328	0.047
-190.187	-16.829	-0.231	0.145
-189.173	110.568	-0.159	0.189
-188.158	22.868	-0.089	0.072
-187.144	-19.553	0.339	0.207
-186.129	12.591	0.125	0.096
-185.114	-16.689	0.189	0.118
-184.100	800.000	0.105	0.293
-183.085	800.000	-0.051	-0.174
-182.071	81.245	0.124	0.132
-181.056	-20.937	0.221	0.134
-180.042	-148.707	0.229	-0.018
-179.027	-200.000	0.017	-0.100
-178.012	23.960	0.081	0.066
-176.998	-200.000	0.031	-0.190
-175.983	-120.208	-0.067	-0.011
-174.969	800.000	-0.053	0.167
-173.954	105.951	0.178	-0.209
-172.939	800.000	0.074	-0.255
-171.925	-97.556	0.256	0.066
-170.910	-200.000	-0.005	0.271
-169.896	60.258	-0.130	-0.127
-168.881	100.823	0.104	0.119
-167.866	-108.394	-0.043	-0.009
-166.852	173.555	0.243	0.347
-165.837	17.048	-0.234	0.183
-164.823	-200.000	0.024	-0.116
-163.808	721.198	0.160	0.422
-162.793	-118.719	-0.179	-0.031
-161.779	-200.000	-0.012	-0.166
-160.764	-17.968	0.227	0.141
-159.750	-18.468	0.056	-0.034
-158.735	131.813	-0.109	-0.139
-157.720	-157.576	0.101	-0.006
-156.706	445.266	0.048	0.104
-155.691	-118.451	0.167	-0.029
-154.677	144.951	0.241	-0.318
-153.662	-68.266	-0.212	0.082
-152.647	154.719	-0.088	0.120
-151.633	140.752	-0.121	-0.158
-150.618	-105.899	-0.237	0.053
-149.604	-200.000	-0.006	0.189
-148.589	-200.000	-0.013	-0.168
-147.574	67.080	-0.147	-0.148
-146.560	-77.846	0.372	0.127
-145.545	461.016	0.066	-0.145
-144.531	-134.215	0.394	-0.048
-143.516	800.000	-0.048	0.177
-142.502	47.247	-0.068	-0.062
-141.487	615.749	0.090	0.222
-140.472	123.178	-0.110	0.136
-139.458	-103.884	0.208	-0.048
-138.443	-200.000	0.013	-0.160
-137.429	726.627	-0.016	-0.043
-136.414	341.112	-0.059	-0.114
-135.399	-51.464	0.251	0.116
-134.385	330.161	0.044	-0.084
-133.370	-175.345	-0.031	0.001
-132.356	800.000	-0.043	0.184
-131.341	-116.677	-0.306	-0.056
-130.326	-109.650	0.235	-0.049
-129.312	101.874	-0.135	0.155
-128.297	229.329	-0.161	0.259
-127.283	6.162	0.178	-0.130
-126.268	-162.714	0.273	-0.013
-125.253	-200.000	0.008	0.082
-124.239	-200.000	-0.012	0.107
-123.224	-98.794	0.110	0.028
-122.210	253.837	-0.106	0.179
-121.195	-58.619	-0.119	-0.051
-120.180	800.000	-0.087	-0.326
-119.166	521.330	0.074	-0.171
-118.151	314.055	0.105	-0.196
-117.137	-11.095	-0.300	0.195
-116.122	14.865	-0.121	0.094
-115.107	-156.829	-0.109	0.007
-114.093	452.744	0.107	0.233
-113.078	-103.518	0.307	0.071
-112.064	-30.326	-0.183	-0.103
-111.049	-192.573	-0.199	-0.002
-110.034	-200.000	0.025	-0.122
-109.020	-163.986	-0.337	-0.015
-108.005	800.000	0.126	-0.445
-106.991	-59.123	0.075	0.032
-105.976	48.772	-0.106	0.098
-104.962	20.486	-0.056	0.045
-103.947	-11.080	-0.081	0.053
-102.932	33.788	-0.112	0.096
-101.918	-30.038	0.174	0.098
-100.903	665.586	-0.071	-0.180
-99.889	-200.000	0.001	0.142
-98.874	166.823	-0.079	0.110
-97.859	426.305	0.065	0.139
-96.845	186.908	-0.087	-0.128
-95.830	-64.465	0.073	-0.029
-94.816	388.023	0.045	0.091
-93.801	174.698	-0.117	-0.166
-92.786	-146.335	-0.282	-0.024
-91.772	-200.000	0.011	0.379
-90.757	36.636	-0.095	0.083
-89.743	-46.046	-0.201	-0.098
-88.728	-109.052	0.135	0.028
-87.713	-122.489	0.298	0.048
-86.699	800.000	0.095	0.385
-85.684	800.000	-0.111	-0.310
-84.670	168.481	0.028	-0.040
-83.655	220.566	0.032	-0.051
-82.640	154.945	-0.112	-0.152
-81.626	304.583	-0.038	0.069
-80.611	-44.039	0.175	-0.087
-79.597	620.229	0.126	-0.311
-78.582	-180.907	-0.174	-0.003
-77.567	-146.052	-0.264	0.023
-76.553	-116.877	-0.210	-0.038
-75.538	-90.755	0.126	0.036
-74.524	-98.517	0.152	0.038
-73.509	-17.309	0.141	0.088
-72.494	-70.293	-0.298	0.111
-71.480	620.828	0.195	-0.484
-70.465	-200.000	0.017	-0.189
-69.451	800.000	-0.008	-0.032
-68.436	-200.000	0.066	0.292
-67.422	-122.200	-0.149	0.024
-66.407	315.837	0.080	-0.149
-65.392	-111.978	-0.290	-0.058
-64.378	221.208	0.122	0.192
-63.363	-183.190	0.205	0.004
-62.349	-200.000	-0.010	0.347
-61.334	63.030	-1.038	-1.024
-60.319	-113.462	0.342	0.066
-59.305	800.000	-0.375	-1.063
-58.290	303.099	0.624	1.138
-57.276	504.007	0.660	1.503
-56.261	-200.000	95.795	603.785
-55.246	660.903	1386.864	3516.344
-54.232	195.160	2568.848	3839.922
-53.217	120.007	2174.288	2654.116
-52.203	42.645	1713.169	1534.987
-51.188	34.798	1525.074	1312.774
-50.173	32.393	1498.171	1273.313
-49.159	52.386	1546.170	1451.880
-48.144	54.040	1563.927	1479.856
-47.130	35.170	1523.699	1313.932
-46.115	31.998	1509.094	1279.699
-45.100	31.848	1505.649	1275.706
-44.086	31.807	1503.841	1273.844
-43.071	31.719	1501.852	1271.511
-42.057	31.658	1500.551	1269.946
-41.042	31.703	1498.884	1268.786
-40.027	31.688	1497.830	1267.742
-39.013	31.771	1495.838	1266.569
-37.998	31.710	1494.651	1265.101
-36.984	31.617	1493.795	1263.699
-35.969	31.704	1492.049	1262.759
-34.954	31.681	1490.766	1261.466
-33.940	31.646	1489.668	1260.255
-32.925	31.718	1488.415	1259.625
-31.911	31.784	1486.468	1258.372
-30.896	31.727	1485.267	1256.923
-29.881	31.848	1483.602	1256.277
-28.867	31.731	1483.307	1255.191
-27.852	31.746	1480.944	1253.244
-26.838	31.784	1479.384	1252.128
-25.823	31.830	1477.597	1250.874
-24.809	31.709	1476.597	1249.169
-23.794	31.731	1474.961	1247.882
-22.779	31.681	1473.848	1246.558
-21.765	31.770	1472.593	1246.038
-20.750	31.770	1471.739	1245.268
-19.736	31.618	1470.641	1243.278
-18.721	31.761	1469.312	1243.058
-17.706	31.692	1468.620	1241.966
-16.692	31.656	1467.266	1240.532
-15.677	31.589	1466.751	1239.599
-14.663	31.642	1465.649	1238.970
-13.648	31.608	1464.461	1237.694
-12.633	31.689	1463.153	1237.072
-11.619	31.591	1462.462	1235.791
-10.604	31.701	1461.460	1235.623
-9.590	31.663	1461.114	1235.029
-8.575	31.582	1460.261	1233.726
-7.560	31.708	1458.886	1233.348
-6.546	31.541	1458.418	1231.800
-5.531	31.603	1457.292	1231.208
-4.517	31.553	1456.129	1229.848
-3.502	31.637	1455.218	1229.585
-2.487	31.595	1454.169	1228.373
-1.473	31.520	1453.358	1227.150
-0.458	31.678	1451.716	1226.748
0.556	30.764	1442.268	1217.180
1.571	28.336	1418.190	1181.122
2.586	25.393	1358.513	1113.114
3.600	23.924	1277.866	1038.368
4.615	22.580	1231.746	993.239
5.629	19.481	1175.703	931.267
6.644	11.906	1091.267	826.226
7.659	5.946	1052.159	767.476
8.673	5.212	1046.113	759.432
9.688	4.969	1043.672	756.415
10.702	4.858	1041.958	754.566
11.717	4.851	1040.195	753.191
12.731	7.459	1042.525	767.435
13.746	14.644	1053.047	810.100
14.761	19.053	1058.077	835.351
15.775	18.624	1056.123	831.654
16.790	17.552	1053.671	824.466
17.804	16.340	1051.808	817.073
18.819	15.517	1049.452	811.196
19.834	15.081	1048.392	808.199
20.848	14.770	1047.319	805.802
21.863	14.518	1046.718	804.056
22.877	14.302	1046.117	802.478
23.892	14.187	1045.172	801.131
24.907	14.002	1044.441	799.609
25.921	14.068	1043.525	799.156
26.936	14.137	1042.229	798.420
27.950	14.098	1041.936	797.939
28.965	14.213	1040.333	797.193
29.980	14.170	1039.602	796.358
30.994	14.205	1038.506	795.613
32.009	14.332	1037.782	795.597
33.023	14.272	1036.866	794.537
34.038	14.289	1035.927	793.829
35.053	14.474	1034.801	793.773
36.067	14.259	1033.656	791.806
37.082	14.108	1033.562	790.946
38.096	14.231	1032.329	790.517
39.111	14.263	1031.622	790.055
40.126	14.403	1030.412	789.723
41.140	14.229	1029.869	788.410
42.155	14.047	1028.998	786.816
43.169	14.105	1027.314	785.733
44.184	13.971	1026.560	784.451
45.199	13.951	1025.578	783.539
46.213	14.113	1024.236	783.208
47.228	13.995	1023.387	781.932
48.242	14.176	1022.456	782.004
49.257	14.120	1021.762	781.138
50.271	14.110	1020.728	780.235
51.286	14.137	1020.226	779.906
52.301	14.197	1019.357	779.453
53.315	14.182	1018.502	778.661
54.330	14.192	1017.091	777.561
55.344	14.129	1016.313	776.603
56.359	14.038	1015.561	775.536
57.374	14.182	1014.398	775.252
58.388	14.129	1013.986	774.617
59.403	14.086	1013.039	773.625
60.417	14.016	1012.403	772.749
61.432	14.137	1011.629	772.649
62.447	13.996	1011.018	771.462
63.461	13.928	1010.175	770.433
64.476	13.915	1009.432	769.742
65.490	13.850	1008.582	768.720
66.505	13.836	1007.870	768.045
67.520	14.172	1006.312	768.345
68.534	14.062	1005.781	767.363
69.549	13.973	1005.465	766.643
70.563	13.972	1004.670	765.965
71.578	13.905	1004.132	765.177
72.593	13.883	1003.029	764.168
73.607	13.824	1002.029	763.066
74.622	13.863	1001.027	762.414
75.636	13.923	1000.279	762.056
76.651	13.877	999.746	761.371
77.666	13.769	999.556	760.662
78.680	13.832	998.370	759.983
79.695	14.004	997.696	760.189
80.709	13.953	996.801	759.204
81.724	13.938	996.248	758.646
82.739	13.947	995.542	758.083
83.753	13.919	995.217	757.644
84.768	14.069	994.047	757.366
85.782	14.236	993.769	757.851
86.797	14.302	992.869	757.397
87.812	14.297	991.939	756.598
88.826	14.158	991.170	755.310
89.841	14.097	990.312	754.316
90.855	14.171	989.789	754.185
91.870	14.318	989.064	754.232
92.884	14.309	988.421	753.635
93.899	14.294	987.461	752.767
94.914	14.256	986.807	752.030
95.928	14.343	986.299	751.972
96.943	14.419	985.386	751.551
97.957	14.288	984.595	750.292
98.972	14.332	983.581	749.651
99.987	14.180	983.366	748.736
101.001	14.187	982.490	748.035
102.016	14.245	981.581	747.536
103.030	14.323	980.107	746.698
104.045	14.327	979.325	746.054
105.060	14.316	978.490	745.301
106.074	14.162	977.731	743.969
107.089	14.279	976.312	743.343
108.103	14.014	975.640	741.584
109.118	13.914	975.174	740.721
110.133	13.997	973.832	740.007
111.147	14.084	973.145	739.806
112.162	13.986	972.693	738.960
113.176	14.084	971.654	738.538
114.191	14.136	970.856	738.099
115.206	14.094	970.243	737.381
116.220	14.169	969.271	736.909
117.235	14.175	968.122	735.999
118.249	14.062	967.678	735.096
119.264	14.103	966.648	734.428
120.279	14.069	965.935	733.673
121.293	14.130	964.677	732.922
122.308	14.096	963.962	732.162
123.322	14.057	963.521	731.593
124.337	13.983	962.239	730.227
125.352	13.895	961.671	729.345
126.366	13.799	960.304	727.824
127.381	14.083	959.158	728.135
128.395	13.972	958.185	726.846
129.410	13.919	957.466	726.005
130.424	14.118	956.387	725.989
131.439	13.986	955.811	724.915
132.454	14.022	955.368	724.669
133.468	14.101	954.469	724.268
134.483	14.204	953.510	723.925
135.497	14.116	953.100	723.165
136.512	14.205	952.093	722.725
137.527	14.112	951.333	721.681
138.541	14.039	951.015	721.061
139.556	14.123	950.361	720.863
140.570	14.141	949.325	720.092
141.585	14.163	948.752	719.690
142.600	14.349	947.897	719.781
143.614	14.203	947.424	718.726
144.629	14.384	946.300	718.592
145.643	14.533	945.376	718.469
146.658	14.265	944.644	716.696
147.673	14.276	943.755	716.004
148.687	14.178	942.892	714.863
149.702	14.335	941.984	714.789
150.716	14.092	941.114	713.020
151.731	14.198	940.061	712.616
152.746	14.247	939.517	712.349
153.760	14.237	938.694	711.619
154.775	14.140	938.556	711.038
155.789	14.195	937.667	710.534
156.804	14.247	936.938	710.141
157.819	14.351	935.820	709.676
158.833	14.352	935.344	709.256
159.848	14.422	934.958	709.197
160.862	14.347	934.178	708.227
161.877	14.418	933.230	707.744
162.892	14.286	932.154	706.305
163.906	14.191	931.367	705.244
164.921	14.044	930.649	704.018
165.935	14.289	929.431	704.068
166.950	14.231	928.776	703.265
167.964	14.313	927.897	702.882
168.979	14.198	926.824	701.524
169.994	14.288	925.735	701.017
171.008	14.212	925.179	700.214
172.023	14.247	924.386	699.698
173.037	14.386	923.705	699.707
174.052	14.365	923.072	699.076
175.067	14.513	921.997	698.820
176.081	14.442	921.435	698.036
177.096	14.344	920.537	696.884
178.110	14.207	919.801	695.691
179.125	14.331	918.977	695.523
180.140	14.318	918.235	694.848
181.154	14.450	917.267	694.603
182.169	14.479	916.878	694.369
183.183	14.413	916.372	693.651
184.198	14.603	915.546	693.753
185.213	14.588	914.831	693.085
186.227	14.488	914.526	692.380
187.242	14.527	914.209	692.239
188.256	14.523	913.626	691.721
189.271	14.614	912.868	691.460
190.286	14.807	911.626	691.260
191.300	14.671	910.813	690.020
192.315	14.453	910.232	688.616
193.329	14.300	909.357	687.262
194.344	14.230	909.132	686.744
195.359	14.340	908.529	686.680
196.373	14.599	907.685	687.049
197.388	14.643	907.018	686.665
198.402	14.728	906.664	686.684
199.417	14.718	906.706	686.616
200.432	14.825	906.034	686.485
201.446	14.847	905.588	686.178
202.461	14.987	904.631	685.962
203.475	14.931	904.502	685.576
204.490	15.071	903.397	685.253
205.504	14.974	902.757	684.308
206.519	14.820	902.136	683.147
207.534	14.698	901.727	682.280
208.548	14.792	900.812	681.912
209.563	14.769	900.170	681.268
210.577	14.911	899.335	681.157
211.592	14.847	898.589	680.271
212.607	14.975	898.401	680.588
213.621	15.142	897.786	680.740
214.636	15.220	896.845	680.284
215.650	14.910	896.776	678.913
216.665	14.854	896.224	678.208
217.680	15.007	895.509	678.225
218.694	15.070	895.149	678.149
219.709	15.252	894.080	678.015
220.723	15.145	893.403	677.012
221.738	15.136	892.725	676.398
222.753	15.019	892.431	675.647
223.767	15.091	891.622	675.265
224.782	15.117	890.774	674.664
225.796	15.189	890.239	674.492
226.811	15.196	889.447	673.858
227.826	15.113	888.864	673.024
228.840	15.058	888.356	672.359
229.855	14.984	887.422	671.295
230.869	15.172	886.754	671.486
231.884	15.123	886.212	670.817
232.899	15.072	885.451	669.979
233.913	15.142	884.578	669.540
234.928	15.207	883.575	668.982
235.942	15.042	883.291	668.047
236.957	15.048	882.362	667.308
237.972	15.056	881.928	666.957
238.986	15.190	881.221	666.893
240.001	15.182	880.653	666.373
241.015	15.127	880.053	665.641
242.030	15.167	879.372	665.228
243.045	15.220	878.595	664.790
244.059	15.183	878.048	664.171
245.074	15.388	877.087	664.197
246.088	15.214	876.961	663.353
247.103	15.321	876.344	663.251
248.117	15.233	875.929	662.532
249.132	15.326	875.346	662.399
250.147	15.557	874.735	662.790
251.161	15.500	874.381	662.238
252.176	15.623	873.526	662.015
253.190	15.702	872.497	661.491
254.205	15.678	872.145	661.068
255.220	15.729	871.768	660.926
256.234	15.785	870.620	660.217
257.249	15.839	869.941	659.854
258.263	15.820	869.761	659.584
259.278	15.679	869.176	658.531
260.293	15.855	868.678	658.786
261.307	15.786	868.190	658.084
262.322	15.914	867.464	657.976
263.336	16.016	866.614	657.674
264.351	15.985	866.012	657.038
265.366	15.910	865.901	656.603
266.380	16.045	865.399	656.690
267.395	15.903	864.858	655.669
268.409	15.818	864.041	654.658
269.424	15.862	863.282	654.198
270.439	16.027	861.897	653.729
271.453	15.972	861.374	653.062
272.468	15.833	860.650	651.917
273.482	15.769	860.370	651.399
274.497	15.736	859.945	650.893
275.512	15.877	858.901	650.592
276.526	15.966	858.183	650.331
277.541	15.837	857.583	649.323
278.555	16.020	857.102	649.606
279.570	16.043	856.790	649.400
280.585	16.191	856.374	649.599
281.599	16.053	855.606	648.426
282.614	16.069	854.915	647.909
283.628	16.021	854.233	647.148
284.643	15.955	853.791	646.502
285.657	16.051	853.440	646.548
286.672	16.125	852.628	646.159
287.687	16.087	852.260	645.679
288.701	16.087	851.907	645.354
289.716	16.128	851.172	644.897
290.730	16.037	850.473	643.962
291.745	16.145	850.166	644.084
292.760	16.182	849.234	643.463
293.774	15.980	848.955	642.426
294.789	16.291	848.329	643.078
295.803	16.254	847.600	642.331
296.818	16.314	846.740	641.848
297.833	16.252	846.115	641.084
298.847	16.217	845.698	640.577
299.862	16.402	844.779	640.527
300.876	16.309	844.214	639.688
301.891	16.345	843.772	639.432
302.906	16.349	843.021	638.822
303.920	16.500	842.133	638.662
304.935	16.507	841.942	638.487
305.949	16.690	841.068	638.459
306.964	16.435	840.831	637.262
307.979	16.496	840.058	636.848
308.993	16.461	839.773	636.445
310.008	16.454	839.265	635.977
311.022	16.577	838.702	635.959
312.037	16.697	837.952	635.785
313.052	16.482	837.506	634.581
314.066	16.424	836.768	633.750
315.081	16.419	836.002	633.094
316.095	16.429	835.500	632.693
317.110	16.382	834.979	632.069
318.125	16.486	834.553	632.078
319.139	16.459	834.312	631.738
320.154	16.367	833.793	630.945
321.168	16.393	833.293	630.609
322.183	16.657	832.701	631.089
323.197	16.539	832.306	630.296
324.212	16.538	831.798	629.852
325.227	16.398	831.199	628.820
326.241	16.609	830.490	629.012
327.256	16.490	830.133	628.247
328.270	16.567	829.436	627.947
329.285	16.626	828.855	627.672
330.300	16.628	828.331	627.226
331.314	16.306	828.246	625.912
332.329	16.539	827.080	625.841
333.343	16.592	826.614	625.626
334.358	16.841	825.594	625.720
335.373	16.594	825.481	624.667
336.387	16.700	824.993	624.632
337.402	16.748	824.427	624.326
338.416	16.757	823.936	623.930
339.431	16.955	823.487	624.265
340.446	16.968	822.953	623.852
341.460	17.016	822.211	623.413
342.475	17.081	821.532	623.082
343.489	17.148	821.074	622.923
344.504	17.054	820.645	622.200
345.519	17.152	819.691	621.781
346.533	17.108	819.559	621.463
347.548	17.181	819.377	621.536
348.562	16.969	818.855	620.309
349.577	16.907	818.208	619.537
350.592	16.939	817.643	619.175
351.606	16.997	816.804	618.694
352.621	16.993	816.571	618.450
353.635	16.943	816.182	617.918
354.650	16.974	815.853	617.728
355.665	17.077	815.360	617.673
356.679	17.099	814.998	617.423
357.694	16.930	814.365	616.277
358.708	17.225	813.263	616.460
359.723	17.106	812.898	615.696
360.738	17.184	812.414	615.558
361.752	16.988	812.355	614.749
362.767	17.120	811.480	614.507
363.781	17.293	811.207	614.874
364.796	17.243	811.047	614.515
365.810	17.388	810.725	614.744
366.825	17.422	810.096	614.335
367.840	17.497	809.909	614.407
368.854	17.477	809.267	613.795
369.869	17.383	808.895	613.119
370.883	17.320	808.101	612.239
371.898	17.370	807.467	611.882
372.913	17.427	806.896	611.598
373.927	17.492	806.438	611.434
374.942	17.562	805.689	611.062
375.956	17.440	805.504	610.431
376.971	17.410	804.806	609.740
377.986	17.557	803.915	609.536
379.000	17.656	803.358	609.414
380.015	17.750	803.182	609.563
381.029	17.692	802.640	608.889
382.044	17.730	801.883	608.399
383.059	17.628	801.276	607.519
384.073	17.617	800.853	607.105
385.088	17.633	800.335	606.716
386.102	17.413	800.084	605.688
387.117	17.395	799.579	605.190
388.132	17.546	799.162	605.357
389.146	17.564	798.662	604.988
390.161	17.505	798.462	604.575
391.175	17.695	797.675	604.599
392.190	17.746	797.398	604.517
393.205	17.798	797.168	604.474
394.219	17.593	796.752	603.377
395.234	17.512	796.163	602.592
396.248	17.621	795.638	602.525
397.263	17.679	795.050	602.234
398.278	17.475	794.591	601.111
399.292	17.549	794.385	601.165
400.307	17.573	793.854	600.794
401.321	17.520	793.345	600.167
402.336	17.544	793.235	600.117
403.350	17.729	792.793	600.382
404.365	17.671	792.236	599.702
405.380	17.894	791.558	599.918
406.394	17.850	791.144	599.397
407.409	17.978	790.607	599.385
408.423	18.122	790.224	599.548
409.438	17.985	789.929	598.792
410.453	17.939	789.664	598.377
411.467	18.078	788.787	598.146
412.482	18.096	788.365	597.836
413.496	18.024	787.874	597.159
414.511	18.140	787.815	597.466
415.526	18.039	787.974	597.182
416.540	17.969	787.621	596.616
417.555	18.017	786.720	596.048
418.569	18.176	786.159	596.126
419.584	18.028	785.951	595.397
420.599	18.152	785.332	595.307
421.613	155.573	1369.921	1792.580
422.628	134.388	1455.093	1792.690
