DTS Sentinel unit serial number:	SN413079Multiplexer serial number:	ORYXHardware model number:	OX4-SRSoftware version number:	ORYX F/W v4.00 Oryx Data Collector v3.7.2.0data status	okinstallation	princeton_trtdifferential loss correction	single-endedforward channel	channel 3reverse channel	N/Adate	2019/09/11time	10:06:11forward acquisition time	60.00reverse acquisition time	0.00gamma	496.2192k internal	0.2300k external	0.2300temperature offset calibration	0.9941default loss term (dB/km)	0.3790temperature slope calibration	1.0000multiplexer offset coefficient	1.0000multiplexer slope coefficient	1.0000fibre end	0.00T internal ref (°C)	35.56T ext. ref 1 (°C)	0.14T ext. ref 2 (°C)	33.12length (m)	temperature (°C)	Stokes	anti-Stokes-747.200	-200.000	-0.008	-0.074
-746.185	-200.000	-0.052	0.281
-745.171	-120.098	-0.183	0.032
-744.156	94.541	-0.244	0.283
-743.142	-162.199	0.349	-0.018
-742.127	179.059	-0.087	0.130
-741.112	-62.680	-0.154	0.065
-740.098	-164.659	-0.235	0.011
-739.083	800.000	-0.063	-0.212
-738.069	-200.000	-0.024	0.135
-737.054	458.795	0.126	0.285
-736.039	21.317	-0.257	0.213
-735.025	-42.088	0.301	-0.157
-734.010	-22.324	-0.482	-0.298
-732.996	-200.000	-0.061	0.353
-731.981	-112.961	-0.361	0.073
-730.966	-200.000	-0.003	0.176
-729.952	-200.000	-0.075	-0.398
-728.937	800.000	-0.105	0.311
-727.923	-200.000	0.020	0.220
-726.908	-200.000	-0.004	-0.138
-725.894	-200.000	-0.001	-0.341
-724.879	-195.707	0.504	-0.004
-723.864	-85.798	0.359	0.113
-722.850	-6.342	0.040	-0.028
-721.835	-85.686	-0.205	-0.065
-720.821	51.747	0.048	-0.047
-719.806	-9.110	0.024	-0.016
-718.791	-67.219	0.182	-0.073
-717.777	-98.830	-0.281	-0.073
-716.762	23.449	0.143	-0.120
-715.748	-178.839	-0.512	-0.012
-714.733	574.521	0.110	-0.273
-713.718	-200.000	0.005	0.203
-712.704	11.329	-0.172	-0.134
-711.689	800.000	0.087	-0.328
-710.675	77.661	-0.061	0.066
-709.660	-5.331	0.201	0.141
-708.645	-133.863	0.293	0.037
-707.631	-200.000	0.013	-0.120
-706.616	273.457	0.175	-0.314
-705.602	472.367	-0.039	0.090
-704.587	17.261	0.012	0.010
-703.572	-103.313	0.432	-0.104
-702.558	-200.000	-0.049	-0.321
-701.543	-95.985	-0.191	0.052
-700.529	-200.000	-0.022	-0.107
-699.514	185.126	0.200	0.302
-698.499	800.000	0.044	-0.140
-697.485	363.472	0.150	0.306
-696.470	-55.398	-0.249	0.114
-695.456	-200.000	0.006	-0.158
-694.441	-4.357	-0.169	0.119
-693.426	75.061	0.203	-0.218
-692.412	-200.000	0.048	-0.408
-691.397	-173.201	-0.062	0.002
-690.383	155.449	0.034	-0.047
-689.368	-200.000	-0.022	0.145
-688.354	61.023	-0.189	0.191
-687.339	-151.700	-0.133	0.010
-686.324	800.000	0.041	-0.160
-685.310	91.883	0.343	-0.393
-684.295	800.000	0.057	-0.206
-683.281	-124.505	-0.265	-0.042
-682.266	-107.107	0.235	-0.053
-681.251	269.367	0.155	-0.277
-680.237	103.383	0.257	-0.307
-679.222	91.196	-0.160	-0.183
-678.208	-200.000	-0.037	-0.193
-677.193	157.607	-0.189	-0.266
-676.178	-200.000	-0.018	0.206
-675.164	-46.636	-0.225	0.112
-674.149	-144.555	-0.444	0.042
-673.135	-4.293	-0.263	0.185
-672.120	-36.350	-0.186	0.102
-671.105	40.651	-0.197	-0.181
-670.091	24.099	-0.181	-0.152
-669.076	800.000	0.056	-0.211
-668.062	-167.967	-0.280	0.011
-667.047	-121.017	-0.109	-0.019
-666.032	49.285	0.166	-0.159
-665.018	13.154	0.107	-0.084
-664.003	-200.000	0.009	-0.105
-662.989	6.192	0.128	-0.096
-661.974	-129.096	-0.216	0.031
-660.959	-200.000	-0.017	0.163
-659.945	583.093	0.105	-0.261
-658.930	59.100	0.303	0.303
-657.916	-200.000	0.012	0.120
-656.901	-14.595	0.270	-0.177
-655.886	-22.946	-0.162	-0.099
-654.872	-114.803	0.181	-0.035
-653.857	26.500	-0.095	0.081
-652.843	262.715	-0.216	-0.381
-651.828	800.000	0.093	0.268
-650.814	618.826	-0.103	-0.263
-649.799	800.000	0.053	-0.177
-648.784	21.693	-0.144	-0.119
-647.770	12.536	0.177	-0.138
-646.755	33.749	0.284	0.251
-645.741	-200.000	0.041	0.201
-644.726	177.975	0.300	0.444
-643.711	287.374	0.114	0.210
-642.697	17.706	-0.121	-0.098
-641.682	-152.696	-0.135	-0.010
-640.668	110.868	0.166	-0.204
-639.653	-103.578	0.045	-0.011
-638.638	573.920	0.127	0.315
-637.624	-160.052	0.166	0.009
-636.609	7.069	-0.288	-0.218
-635.595	158.906	0.195	0.275
-634.580	150.980	0.096	-0.132
-633.565	-84.431	-0.292	-0.094
-632.551	182.840	-0.172	0.257
-631.536	299.942	-0.138	-0.258
-630.522	128.434	-0.058	-0.075
-629.507	4.862	0.087	-0.065
-628.492	107.096	0.121	0.146
-627.478	-118.004	0.451	-0.082
-626.463	-200.000	0.001	-0.146
-625.449	-29.575	-0.155	0.090
-624.434	-200.000	0.039	0.175
-623.419	-8.140	0.084	-0.057
-622.405	152.481	-0.025	0.034
-621.390	800.000	0.074	0.236
-620.376	-200.000	-0.015	0.115
-619.361	191.823	-0.082	0.125
-618.346	-59.294	-0.261	-0.114
-617.332	-99.949	-0.281	-0.071
-616.317	749.052	0.061	-0.167
-615.303	-125.766	0.185	-0.028
-614.288	-200.000	0.004	-0.106
-613.273	238.491	-0.066	-0.112
-612.259	119.925	0.183	-0.230
-611.244	-93.260	-0.062	-0.017
-610.230	-30.521	0.146	-0.084
-609.215	-188.635	-0.261	0.003
-608.201	105.884	0.047	-0.057
-607.186	165.806	-0.107	-0.154
-606.171	-22.499	-0.376	0.231
-605.157	117.380	0.157	0.196
-604.142	13.342	0.150	0.118
-603.128	383.708	0.106	0.222
-602.113	-149.177	0.358	-0.029
-601.098	137.176	0.012	-0.016
-600.084	-200.000	-0.052	-0.438
-599.069	-200.000	-0.026	-0.179
-598.055	196.222	-0.076	0.118
-597.040	13.925	-0.038	0.030
-596.025	45.509	0.141	-0.132
-595.011	82.021	-0.147	0.162
-593.996	-44.591	-0.071	0.036
-592.982	-200.000	-0.000	0.059
-591.967	44.012	0.238	0.221
-590.952	395.588	-0.022	-0.046
-589.938	-200.000	-0.015	-0.109
-588.923	-200.000	0.011	-0.066
-587.909	-200.000	0.002	0.030
-586.894	154.660	-0.154	0.214
-585.879	224.060	-0.077	-0.126
-584.865	-200.000	-0.019	-0.161
-583.850	635.557	-0.046	-0.117
-582.836	-132.759	0.061	-0.008
-581.821	-51.748	0.097	0.046
-580.806	-101.731	0.270	0.066
-579.792	401.213	0.053	0.113
-578.777	-80.341	0.057	0.019
-577.763	781.670	0.045	0.124
-576.748	-21.899	-0.343	0.211
-575.733	303.220	0.145	-0.271
-574.719	91.113	-0.106	-0.121
-573.704	-137.187	-0.175	-0.020
-572.690	89.614	0.107	-0.121
-571.675	-200.000	-0.023	-0.113
-570.661	13.938	-0.149	0.117
-569.646	-200.000	0.043	-0.414
-568.631	66.190	0.131	-0.135
-567.617	-200.000	0.030	0.148
-566.602	199.558	-0.186	0.288
-565.588	92.284	-0.139	-0.158
-564.573	-175.865	0.104	-0.003
-563.558	800.000	-0.030	-0.101
-562.544	205.474	0.115	-0.181
-561.529	800.000	0.050	0.146
-560.515	-79.773	0.124	-0.042
-559.500	-125.820	0.195	-0.030
-558.485	-34.608	0.245	0.136
-557.471	-109.401	0.210	0.045
-556.456	263.748	0.100	-0.176
-555.442	746.945	0.105	-0.287
-554.427	-60.734	-0.094	0.040
-553.412	302.600	0.085	0.160
-552.398	46.693	-0.154	-0.145
-551.383	75.701	-0.159	-0.170
-550.369	-200.000	0.003	-0.152
-549.354	-200.000	-0.022	0.188
-548.339	-182.645	0.065	0.001
-547.325	-29.709	0.090	0.052
-546.310	-200.000	0.018	0.131
-545.296	800.000	0.079	-0.278
-544.281	561.282	-0.073	0.178
-543.266	-129.590	0.218	0.030
-542.252	-200.000	0.015	-0.112
-541.237	224.648	-0.150	0.246
-540.223	-200.000	0.019	-0.153
-539.208	100.015	-0.066	0.078
-538.193	-16.205	0.074	0.048
-537.179	800.000	-0.051	-0.188
-536.164	-143.300	0.410	-0.040
-535.150	-143.903	0.184	0.018
-534.135	800.000	-0.036	-0.115
-533.121	-200.000	0.015	0.136
-532.106	58.830	-0.283	0.282
-531.091	259.925	0.105	0.184
-530.077	25.075	0.226	0.190
-529.062	-116.225	0.245	0.046
-528.048	-200.000	0.034	0.350
-527.033	800.000	0.060	-0.202
-526.018	-149.958	0.145	0.011
-525.004	-200.000	-0.000	-0.016
-523.989	-143.447	0.300	0.029
-522.975	711.226	0.075	0.200
-521.960	-200.000	-0.026	-0.221
-520.945	240.027	-0.305	-0.513
-519.931	-50.247	0.184	-0.088
-518.916	-131.413	-0.180	0.024
-517.902	800.000	0.047	0.173
-516.887	-80.455	-0.478	-0.161
-515.872	-103.953	0.244	-0.058
-514.858	791.043	0.131	0.363
-513.843	-77.058	0.118	0.042
-512.829	83.617	0.117	0.129
-511.814	-121.239	-0.207	-0.035
-510.799	-138.773	0.599	-0.066
-509.785	-87.950	-0.255	-0.078
-508.770	-41.339	-0.400	0.208
-507.756	800.000	0.048	-0.188
-506.741	-79.419	0.300	-0.103
-505.726	-9.141	-0.080	0.054
-504.712	-30.264	-0.073	-0.042
-503.697	16.925	-0.208	-0.167
-502.683	-200.000	0.029	-0.141
-501.668	-47.177	-0.279	0.137
-500.653	800.000	0.075	-0.233
-499.639	9.290	-0.026	-0.020
-498.624	430.593	0.097	-0.212
-497.610	-200.000	-0.072	0.525
-496.595	-142.260	0.143	-0.014
-495.581	42.509	0.084	-0.077
-494.566	118.709	-0.187	-0.233
-493.551	-22.842	-0.087	0.053
-492.537	-28.947	-0.393	0.228
-491.522	9.302	0.044	0.034
-490.508	22.550	-0.263	0.217
-489.493	-101.243	0.103	-0.026
-488.478	-85.602	-0.206	-0.065
-487.464	80.732	-0.022	0.024
-486.449	-1.780	-0.090	0.064
-485.435	184.150	0.182	0.271
-484.420	-50.539	-0.356	0.170
-483.405	160.501	-0.079	-0.112
-482.391	-103.291	-0.009	-0.002
-481.376	91.808	0.135	0.153
-480.362	-95.197	0.249	-0.068
-479.347	-124.780	-0.422	0.066
-478.332	112.775	-0.197	0.241
-477.318	800.000	-0.078	-0.234
-476.303	600.805	0.048	-0.120
-475.289	-109.873	0.245	-0.052
-474.274	43.044	0.143	-0.132
-473.259	262.553	-0.109	0.190
-472.245	-48.030	-0.132	0.064
-471.230	191.635	0.085	0.129
-470.216	800.000	-0.044	-0.172
-469.201	-200.000	-0.019	0.225
-468.186	261.123	-0.156	0.272
-467.172	142.363	-0.288	-0.386
-466.157	800.000	0.039	0.129
-465.143	39.368	0.149	0.135
-464.128	458.993	0.126	0.283
-463.113	172.670	0.110	-0.160
-462.099	109.721	0.059	-0.072
-461.084	19.879	-0.139	0.113
-460.070	-200.000	-0.026	0.298
-459.055	594.421	-0.045	0.112
-458.040	437.864	0.124	0.273
-457.026	608.505	-0.068	0.170
-456.011	-9.613	0.193	-0.130
-454.997	301.547	0.080	0.150
-453.982	-108.001	0.331	-0.072
-452.968	-54.153	-0.095	0.043
-451.953	740.574	-0.120	-0.324
-450.938	83.541	0.244	-0.268
-449.924	106.649	0.151	-0.181
-448.909	439.356	-0.074	-0.162
-447.895	-115.380	-0.440	-0.084
-446.880	-53.272	-0.328	-0.152
-445.865	49.837	0.148	0.140
-444.851	314.296	-0.170	0.324
-443.836	721.986	0.076	0.204
-442.822	432.742	-0.098	0.215
-441.807	-14.949	-0.088	0.057
-440.792	-60.691	-0.169	0.072
-439.778	699.956	-0.035	0.093
-438.763	40.186	0.231	0.210
-437.749	240.115	-0.052	-0.087
-436.734	362.164	-0.026	-0.052
-435.719	800.000	0.075	0.210
-434.705	-143.100	0.168	-0.016
-433.690	273.602	0.089	-0.158
-432.676	-0.851	0.382	-0.273
-431.661	-200.000	0.041	0.220
-430.646	500.432	0.109	0.252
-429.632	290.119	0.042	-0.077
-428.617	800.000	0.012	-0.035
-427.603	-200.000	-0.020	0.112
-426.588	-106.328	0.352	0.079
-425.573	77.940	0.126	-0.135
-424.559	-200.000	-0.001	-0.144
-423.544	-200.000	0.032	0.192
-422.530	93.975	-0.024	-0.027
-421.515	143.041	0.144	0.193
-420.500	125.729	0.030	0.038
-419.486	-25.247	-0.108	0.064
-418.471	-168.098	-0.197	0.008
-417.457	-94.959	-0.083	-0.023
-416.442	181.473	-0.080	0.118
-415.428	43.798	-0.094	0.087
-414.413	362.209	-0.064	-0.130
-413.398	237.708	-0.048	-0.080
-412.384	482.862	-0.102	0.233
-411.369	231.336	-0.164	0.270
-410.355	438.320	-0.144	-0.317
-409.340	514.471	-0.104	0.244
-408.325	-65.710	0.190	0.077
-407.311	182.654	-0.162	0.241
-406.296	329.829	-0.106	0.205
-405.282	-122.295	-0.058	0.010
-404.267	-53.647	0.170	0.078
-403.252	800.000	-0.087	0.287
-402.238	-150.305	0.241	0.019
-401.223	-5.418	0.148	0.102
-400.209	800.000	0.074	-0.299
-399.194	-200.000	0.029	0.165
-398.179	73.227	-0.068	0.071
-397.165	39.617	0.178	-0.161
-396.150	151.509	0.226	-0.310
-395.136	800.000	0.074	0.294
-394.121	-200.000	-0.006	0.071
-393.106	-200.000	-0.044	-0.419
-392.092	-75.050	-0.239	0.086
-391.077	-200.000	-0.002	-0.042
-390.063	379.427	-0.068	-0.141
-389.048	-58.207	-0.324	-0.142
-388.033	-93.748	0.305	-0.084
-387.019	45.514	-0.235	-0.218
-386.004	-153.568	0.141	0.010
-384.990	-200.000	-0.004	-0.236
-383.975	-76.379	0.383	0.135
-382.960	-119.597	0.118	0.020
-381.946	-143.072	-0.346	0.034
-380.931	85.549	-0.084	-0.093
-379.917	25.845	-0.217	-0.182
-378.902	-19.801	0.188	-0.117
-377.888	190.502	0.097	-0.147
-376.873	-200.000	-0.068	-0.310
-375.858	-13.040	-0.139	-0.091
-374.844	-100.358	-0.297	0.074
-373.829	-186.532	0.290	-0.004
-372.815	43.760	0.108	0.100
-371.800	-9.690	0.129	-0.086
-370.785	-171.792	-0.185	0.006
-369.771	-5.623	0.335	0.231
-368.756	107.485	0.138	-0.165
-367.742	-200.000	0.005	-0.186
-366.727	121.486	-0.076	0.095
-365.712	-78.301	-0.301	-0.104
-364.698	556.502	-0.020	-0.049
-363.683	12.901	-0.358	0.278
-362.669	567.113	0.089	0.216
-361.654	-200.000	-0.052	0.329
-360.639	-94.314	0.078	0.022
-359.625	12.444	-0.141	-0.109
-358.610	-89.316	0.432	0.128
-357.596	239.301	0.104	-0.174
-356.581	448.277	0.152	-0.337
-355.566	-13.752	-0.086	-0.056
-354.552	140.891	-0.088	-0.117
-353.537	800.000	-0.021	0.063
-352.523	-146.334	-0.398	-0.035
-351.508	-23.770	-0.202	-0.122
-350.493	175.890	-0.072	0.104
-349.479	246.819	0.206	-0.349
-348.464	170.070	0.028	0.040
-347.450	184.263	-0.174	0.259
-346.435	800.000	-0.104	-0.290
-345.420	-140.766	-0.206	-0.021
-344.406	-200.000	0.055	0.273
-343.391	-100.384	-0.135	0.034
-342.377	-117.275	0.479	0.087
-341.362	9.195	-0.126	-0.095
-340.348	-113.813	0.237	0.046
-339.333	-133.905	-0.048	0.006
-338.318	19.588	0.221	0.178
-337.304	-3.078	0.323	-0.226
-336.289	11.496	0.312	-0.240
-335.275	-53.104	0.086	0.040
-334.260	-11.758	-0.144	-0.095
-333.245	683.556	0.142	-0.372
-332.231	188.610	0.108	0.162
-331.216	-200.000	0.052	-0.253
-330.202	548.329	0.115	-0.277
-329.187	-200.000	-0.036	-0.166
-328.172	-65.257	-0.188	-0.076
-327.158	-0.383	-0.116	0.083
-326.143	-200.000	0.005	0.302
-325.129	55.537	-0.016	0.015
-324.114	-28.535	-0.084	-0.048
-323.099	218.841	-0.126	0.202
-322.085	23.218	-0.150	-0.124
-321.070	8.702	0.128	-0.097
-320.056	-99.923	0.123	0.031
-319.041	-77.017	-0.173	-0.061
-318.026	-70.946	0.179	0.068
-317.012	-200.000	-0.023	0.524
-315.997	-26.545	-0.195	0.115
-314.983	50.663	-0.109	0.103
-313.968	-46.675	0.301	0.148
-312.953	199.031	-0.163	-0.250
-311.939	-101.383	0.462	-0.113
-310.924	215.375	0.083	-0.132
-309.910	-80.127	0.266	-0.089
-308.895	-200.000	0.016	-0.169
-307.880	34.612	-0.380	-0.333
-306.866	-62.967	-0.121	-0.050
-305.851	-140.907	-0.124	-0.013
-304.837	240.261	-0.130	0.217
-303.822	-133.145	-0.105	-0.013
-302.807	2.524	-0.027	0.019
-301.793	120.618	0.098	0.123
-300.778	54.116	-0.079	-0.076
-299.764	800.000	-0.006	0.020
-298.749	800.000	-0.064	-0.184
-297.735	-26.010	-0.235	-0.139
-296.720	-38.296	0.082	0.044
-295.705	-68.720	-0.357	-0.139
-294.691	-52.895	0.171	-0.079
-293.676	-5.974	-0.250	0.171
-292.662	-85.463	-0.357	0.112
-291.647	-126.706	-0.414	-0.061
-290.632	800.000	-0.129	0.392
-289.618	111.315	-0.127	0.154
-288.603	-87.692	-0.172	0.052
-287.589	-68.649	-0.108	0.042
-286.574	-28.478	0.028	-0.016
-285.559	168.261	0.119	-0.170
-284.545	-200.000	0.047	-0.249
-283.530	-105.947	0.309	0.070
-282.516	3.100	0.172	-0.125
-281.501	-69.193	0.148	0.057
-280.486	-51.137	0.034	0.016
-279.472	-96.593	-0.359	-0.095
-278.457	-35.183	0.272	0.148
-277.443	-82.154	0.162	0.053
-276.428	-200.000	-0.008	0.065
-275.413	-154.001	0.222	0.015
-274.399	-78.708	-0.218	-0.075
-273.384	149.451	0.237	0.322
-272.370	-3.004	-0.493	0.344
-271.355	-200.000	-0.043	0.247
-270.340	99.900	0.093	-0.108
-269.326	45.866	0.206	-0.190
-268.311	-85.302	0.143	0.045
-267.297	-200.000	0.019	-0.129
-266.282	800.000	-0.082	-0.345
-265.267	-50.522	0.358	-0.169
-264.253	800.000	-0.093	-0.341
-263.238	-177.269	0.257	-0.006
-262.224	-101.419	0.188	-0.046
-261.209	-56.112	0.156	0.070
-260.195	45.875	0.212	-0.196
-259.180	328.872	-0.088	0.168
-258.165	436.126	-0.156	-0.341
-257.151	-110.288	0.329	0.068
-256.136	0.177	-0.083	-0.059
-255.122	-15.221	-0.160	0.102
-254.107	65.724	0.065	-0.066
-253.092	-71.791	-0.139	0.052
-252.078	-19.238	0.248	-0.154
-251.063	800.000	0.044	0.166
-250.049	-200.000	0.075	-0.390
-249.034	800.000	-0.056	0.204
-248.019	800.000	0.009	0.025
-247.005	27.754	0.194	-0.163
-245.990	-200.000	-0.025	0.210
-244.976	715.610	-0.072	0.190
-243.961	-24.268	-0.208	-0.124
-242.946	800.000	-0.118	-0.470
-241.932	-102.629	-0.125	0.030
-240.917	-100.299	-0.234	-0.058
-239.903	244.376	0.160	0.269
-238.888	-109.362	0.177	-0.038
-237.873	255.923	-0.174	-0.299
-236.859	800.000	-0.073	-0.212
-235.844	-13.703	0.169	-0.109
-234.830	-49.834	-0.247	-0.117
-233.815	171.488	-0.046	-0.066
-232.800	-200.000	-0.052	-0.537
-231.786	153.317	0.060	-0.082
-230.771	-65.674	0.131	-0.053
-229.757	-112.165	0.250	-0.050
-228.742	-200.000	0.002	0.096
-227.727	69.831	0.068	-0.070
-226.713	93.255	-0.062	-0.070
-225.698	777.032	0.057	-0.156
-224.684	800.000	-0.066	-0.273
-223.669	-200.000	0.028	0.277
-222.655	12.223	-0.106	-0.082
-221.640	-200.000	-0.070	0.323
-220.625	800.000	-0.079	0.303
-219.611	800.000	-0.111	0.383
-218.596	-88.194	-0.073	0.022
-217.582	-200.000	0.042	-0.355
-216.567	192.380	-0.170	-0.256
-215.552	264.432	0.151	-0.262
-214.538	-36.922	-0.117	0.063
-213.523	-49.016	-0.100	-0.048
-212.509	20.526	-0.032	0.026
-211.494	-122.397	0.717	-0.117
-210.479	-5.997	-0.348	-0.237
-209.465	-141.032	-0.231	0.024
-208.450	-158.178	-0.104	0.006
-207.436	-138.227	-0.133	0.015
-206.421	18.560	0.062	0.050
-205.406	21.176	0.203	0.165
-204.392	-78.366	0.290	0.099
-203.377	120.327	0.173	-0.215
-202.363	102.042	-0.153	-0.179
-201.348	491.235	-0.141	-0.321
-200.333	-140.576	0.358	0.037
-199.319	-200.000	-0.043	0.365
-198.304	464.778	-0.112	0.250
-197.290	800.000	0.136	0.461
-196.275	441.075	-0.094	-0.206
-195.260	-18.949	-0.090	0.056
-194.246	800.000	-0.018	0.051
-193.231	-43.506	-0.035	-0.018
-192.217	125.894	0.164	0.207
-191.202	-165.875	-0.180	0.008
-190.187	-4.362	-0.180	0.124
-189.173	183.085	0.093	-0.137
-188.158	-200.000	0.030	-0.157
-187.144	116.118	0.093	0.114
-186.129	15.341	0.052	-0.040
-185.114	-200.000	-0.008	-0.270
-184.100	-74.421	-0.348	0.125
-183.085	179.773	0.071	0.104
-182.071	444.163	0.124	0.272
-181.056	-94.758	0.305	-0.083
-180.042	27.114	-0.324	0.271
-179.027	191.690	0.099	0.149
-178.012	3.375	0.226	0.164
-176.998	-130.820	-0.223	-0.030
-175.983	145.591	-0.214	-0.286
-174.969	-130.178	0.225	0.031
-173.954	-70.018	-0.189	0.072
-172.939	-115.345	0.223	0.042
-171.925	-48.734	-0.149	0.072
-170.910	133.804	-0.337	-0.435
-169.896	-11.585	-0.396	-0.260
-168.881	-26.121	-0.110	0.065
-167.866	714.079	-0.046	-0.121
-166.852	128.263	-0.210	0.266
-165.837	333.276	-0.077	0.148
-164.823	-200.000	0.005	0.341
-163.808	-173.264	-0.102	-0.003
-162.793	137.488	-0.164	-0.214
-161.779	94.012	0.041	0.046
-160.764	800.000	-0.057	0.227
-159.750	-153.559	0.047	-0.003
-158.735	11.113	0.070	0.053
-157.720	152.138	0.089	0.121
-156.706	379.935	0.121	-0.248
-155.691	18.757	0.123	-0.098
-154.677	248.098	-0.200	0.337
-153.662	244.748	-0.028	0.046
-152.647	7.976	-0.532	0.397
-151.633	-99.973	0.149	0.037
-150.618	-200.000	-0.015	-0.258
-149.604	113.282	-0.316	0.382
-148.589	-200.000	-0.004	-0.073
-147.574	-92.431	-0.054	-0.015
-146.560	-161.034	0.239	-0.012
-145.545	518.088	0.098	0.228
-144.531	108.014	0.316	0.375
-143.516	54.954	-0.112	-0.108
-142.502	-200.000	0.016	-0.155
-141.487	800.000	0.047	-0.130
-140.472	-84.632	0.272	0.086
-139.458	217.601	-0.108	0.172
-138.443	800.000	0.120	-0.361
-137.429	21.113	0.113	-0.091
-136.414	800.000	-0.068	-0.195
-135.399	127.433	-0.152	-0.193
-134.385	-200.000	0.028	-0.365
-133.370	800.000	0.092	-0.294
-132.356	74.695	-0.071	-0.075
-131.341	342.610	-0.016	-0.031
-130.326	-200.000	-0.027	-0.297
-129.312	228.405	0.230	-0.373
-128.297	106.500	0.096	-0.114
-127.283	77.042	-0.047	0.050
-126.268	210.771	-0.172	0.269
-125.253	100.227	-0.223	-0.257
-124.239	202.366	0.070	-0.107
-123.224	125.688	-0.174	0.218
-122.210	291.691	0.157	0.284
-121.195	23.314	0.402	0.329
-120.180	-131.100	-0.246	-0.033
-119.166	-73.964	0.076	-0.027
-118.151	9.884	0.277	0.209
-117.137	285.034	0.134	-0.240
-116.122	2.982	-0.251	0.182
-115.107	800.000	0.017	0.063
-114.093	141.557	0.232	0.306
-113.078	78.697	0.261	0.278
-112.064	800.000	0.037	-0.104
-111.049	-165.509	-0.236	-0.010
-110.034	427.518	0.088	0.189
-109.020	-128.129	-0.222	-0.032
-108.005	14.943	-0.260	0.202
-106.991	191.819	0.134	-0.201
-105.976	800.000	-0.015	0.043
-104.962	-200.000	-0.011	0.173
-103.947	-146.908	-0.207	0.018
-102.932	-47.385	-0.262	-0.127
-101.918	-31.456	-0.111	-0.062
-100.903	457.081	0.126	0.279
-99.889	100.643	0.114	-0.131
-98.874	800.000	-0.032	0.114
-97.859	-4.854	0.082	-0.056
-96.845	-200.000	-0.008	0.199
-95.830	-186.106	0.163	-0.002
-94.816	434.351	0.098	0.212
-93.801	800.000	-0.053	-0.205
-92.786	-200.000	0.076	-0.351
-91.772	-200.000	0.052	-0.361
-90.757	338.694	0.152	0.294
-89.743	-167.552	0.180	0.007
-88.728	11.765	0.128	-0.097
-87.713	629.668	-0.146	-0.367
-86.699	157.718	0.100	-0.137
-85.684	-10.859	0.189	0.124
-84.670	396.460	0.257	-0.534
-83.655	-200.000	-0.033	0.243
-82.640	14.784	-0.348	0.271
-81.626	-200.000	0.038	-0.368
-80.611	-13.675	-0.310	0.199
-79.597	637.709	-0.072	0.182
-78.582	-25.288	0.313	-0.184
-77.567	177.548	-0.147	-0.213
-76.553	61.752	0.076	-0.075
-75.538	51.216	0.122	0.115
-74.524	90.488	0.003	-0.004
-73.509	800.000	-0.022	0.094
-72.494	-154.311	0.204	-0.014
-71.480	-1.305	-0.081	-0.057
-70.465	-79.816	0.099	0.033
-69.451	800.000	-0.034	0.131
-68.436	649.940	-0.088	0.225
-67.422	183.380	-0.086	-0.126
-66.407	655.300	-0.172	-0.438
-65.392	-200.000	0.037	-0.185
-64.378	16.988	0.158	0.125
-63.363	-7.792	-0.134	0.090
-62.349	-100.028	-0.141	-0.035
-61.334	81.429	-0.728	-0.782
-60.319	345.283	0.176	0.342
-59.305	-200.000	-0.065	-0.823
-58.290	585.631	0.199	0.487
-57.276	679.577	0.650	1.681
-56.261	-200.000	90.350	501.511
-55.246	542.149	1366.497	3234.472
-54.232	184.227	2609.359	3835.853
-53.217	114.129	2236.316	2701.222
-52.203	45.254	1764.913	1615.707
-51.188	38.513	1570.756	1390.248
-50.173	36.144	1542.313	1348.472
-49.159	52.915	1590.276	1509.951
-48.144	56.448	1609.577	1553.353
-47.130	39.037	1567.065	1390.471
-46.115	35.783	1551.898	1354.095
-45.100	35.562	1548.372	1349.413
-44.086	35.556	1546.060	1347.305
-43.071	35.494	1544.210	1345.201
-42.057	35.450	1542.576	1343.417
-41.042	35.552	1540.709	1342.453
-40.027	35.515	1539.658	1341.225
-39.013	35.652	1537.453	1340.208
-37.998	35.484	1536.569	1338.211
-36.984	35.512	1535.595	1337.506
-35.969	35.586	1534.349	1336.885
-34.954	35.548	1532.654	1335.090
-33.940	35.481	1531.176	1333.283
-32.925	35.580	1529.691	1332.624
-31.911	35.571	1528.800	1331.734
-30.896	35.675	1526.689	1330.562
-29.881	35.632	1525.555	1329.223
-28.867	35.608	1524.198	1327.821
-27.852	35.666	1522.688	1326.851
-26.838	35.592	1521.434	1325.200
-25.823	35.604	1519.689	1323.711
-24.809	35.541	1518.245	1321.968
-23.794	35.609	1516.498	1320.860
-22.779	35.677	1515.691	1320.570
-21.765	35.606	1515.150	1319.558
-20.750	35.667	1513.495	1318.480
-19.736	35.597	1512.305	1316.917
-18.721	35.546	1511.182	1315.535
-17.706	35.556	1510.183	1314.681
-16.692	35.610	1509.146	1314.093
-15.677	35.506	1507.632	1312.014
-14.663	35.546	1506.836	1311.543
-13.648	35.600	1505.243	1310.476
-12.633	35.438	1504.952	1309.063
-11.619	35.492	1504.078	1308.621
-10.604	35.588	1502.820	1308.128
-9.590	35.468	1502.455	1306.942
-8.575	35.566	1501.207	1306.467
-7.560	35.582	1500.377	1305.802
-6.546	35.561	1499.672	1304.998
-5.531	35.408	1498.756	1303.106
-4.517	35.481	1497.260	1302.249
-3.502	35.520	1496.268	1301.603
-2.487	35.529	1495.273	1300.746
-1.473	35.446	1494.380	1299.355
-0.458	35.499	1493.192	1298.628
0.556	33.886	1483.778	1289.170
1.571	31.609	1457.655	1251.165
2.586	28.710	1395.788	1179.365
3.600	27.142	1313.161	1099.970
4.615	25.647	1265.859	1051.525
5.629	20.939	1206.740	976.028
6.644	9.758	1114.423	843.140
7.659	1.428	1069.314	767.022
8.673	0.235	1064.021	757.161
9.688	0.138	1060.678	754.229
10.702	0.151	1058.917	752.977
11.717	0.016	1057.349	751.123
12.731	3.701	1062.183	772.953
13.746	14.082	1077.212	836.274
14.761	21.138	1085.997	878.674
15.775	22.052	1086.289	883.433
16.790	22.053	1085.970	883.101
17.804	21.944	1085.262	881.896
18.819	21.764	1084.182	880.039
19.834	21.730	1083.867	879.536
20.848	21.940	1083.039	879.835
21.863	21.819	1082.954	879.086
22.877	22.056	1082.166	879.556
23.892	21.826	1081.683	877.932
24.907	21.784	1080.993	877.082
25.921	21.807	1079.742	876.105
26.936	21.891	1078.980	875.831
27.950	21.852	1078.242	874.961
28.965	21.791	1077.344	873.851
29.980	21.695	1075.222	871.573
30.994	21.666	1074.249	870.563
32.009	21.881	1073.164	870.673
33.023	21.964	1072.889	870.787
34.038	21.839	1071.049	868.598
35.053	21.819	1070.536	868.005
36.067	21.968	1069.608	867.911
37.082	21.819	1069.209	866.777
38.096	22.067	1067.782	866.765
39.111	22.121	1067.351	866.607
40.126	22.230	1066.839	866.649
41.140	22.193	1065.373	865.202
42.155	21.931	1064.096	862.800
43.169	21.426	1062.853	859.233
44.184	21.508	1061.737	858.659
45.199	21.581	1060.913	858.274
46.213	21.627	1059.872	857.580
47.228	21.540	1058.553	856.014
48.242	21.617	1058.235	856.054
49.257	21.642	1057.316	855.359
50.271	21.817	1056.239	855.267
51.286	21.886	1055.729	855.115
52.301	21.908	1054.982	854.541
53.315	21.957	1054.360	854.198
54.330	21.932	1053.195	853.058
55.344	21.904	1052.335	852.149
56.359	21.722	1051.941	850.873
57.374	21.872	1051.163	850.894
58.388	21.611	1050.048	848.653
59.403	21.665	1049.276	848.212
60.417	21.686	1048.584	847.681
61.432	21.459	1047.552	845.675
62.447	21.367	1047.162	844.840
63.461	21.703	1045.875	845.347
64.476	21.753	1045.107	844.893
65.490	21.659	1044.142	843.586
66.505	21.623	1043.199	842.579
67.520	21.541	1042.583	841.613
68.534	21.784	1041.743	842.026
69.549	21.591	1040.566	840.072
70.563	21.292	1039.433	837.651
71.578	20.999	1038.773	835.643
72.593	21.228	1037.786	835.870
73.607	21.100	1036.746	834.346
74.622	21.076	1035.939	833.510
75.636	21.266	1035.536	834.016
76.651	21.503	1034.311	834.089
77.666	21.379	1033.562	832.819
78.680	21.218	1032.856	831.408
79.695	21.268	1032.513	831.300
80.709	21.384	1031.551	831.000
81.724	21.471	1030.662	830.624
82.739	21.485	1029.676	829.821
83.753	21.501	1028.834	829.149
84.768	21.688	1028.282	829.516
85.782	21.970	1027.857	830.432
86.797	22.287	1026.993	831.161
87.812	22.250	1025.959	830.072
88.826	22.068	1025.246	828.567
89.841	21.911	1024.724	827.329
90.855	22.104	1023.804	827.425
91.870	22.156	1022.916	826.876
92.884	22.062	1022.080	825.688
93.899	21.986	1021.021	824.403
94.914	21.885	1020.327	823.295
95.928	21.918	1019.491	822.699
96.943	22.021	1018.766	822.524
97.957	21.736	1017.501	820.098
98.972	21.586	1015.917	818.047
99.987	21.307	1015.178	816.077
101.001	21.364	1014.742	815.921
102.016	21.778	1014.073	817.241
103.030	21.754	1012.995	816.190
104.045	21.627	1012.037	814.753
105.060	21.664	1010.293	813.448
106.074	21.432	1009.231	811.445
107.089	21.450	1008.750	811.072
108.103	21.871	1008.227	812.527
109.118	22.041	1007.204	812.418
110.133	21.697	1005.921	809.721
111.147	21.698	1005.014	808.927
112.162	21.507	1003.785	806.985
113.176	21.286	1002.861	805.152
114.191	21.408	1002.368	805.247
115.206	21.607	1001.241	805.186
116.220	21.135	1000.082	802.012
117.235	21.089	999.050	800.906
118.249	21.225	998.474	800.995
119.264	21.294	997.608	800.545
120.279	21.175	996.656	799.166
121.293	21.264	995.969	798.951
122.308	21.409	995.050	798.805
123.322	21.268	994.354	797.535
124.337	21.303	993.104	796.620
125.352	21.017	992.155	794.486
126.366	20.805	990.081	791.790
127.381	20.570	988.342	789.263
128.395	21.109	988.245	791.561
129.410	21.681	988.545	794.327
130.424	21.724	987.427	793.553
131.439	21.805	986.596	793.178
132.454	21.656	985.610	791.645
133.468	21.785	984.476	791.248
134.483	21.689	983.503	789.960
135.497	21.637	983.268	789.469
136.512	21.985	982.503	790.353
137.527	22.069	981.700	790.011
138.541	22.088	980.861	789.353
139.556	22.089	980.096	788.673
140.570	22.031	978.846	787.338
141.585	21.986	978.473	786.767
142.600	22.027	977.514	786.108
143.614	22.121	976.311	785.491
144.629	21.995	975.894	784.523
145.643	22.302	975.214	785.278
146.658	22.101	974.334	783.605
147.673	22.131	972.752	782.396
148.687	21.912	972.024	780.764
149.702	21.843	970.807	779.412
150.716	21.768	969.411	777.892
151.731	21.718	968.731	777.052
152.746	21.755	968.393	776.876
153.760	21.965	967.650	777.144
154.775	22.084	966.974	777.059
155.789	22.136	965.878	776.339
156.804	22.174	964.791	775.566
157.819	22.211	963.509	774.630
158.833	22.061	963.218	773.666
159.848	22.159	962.431	773.393
160.862	22.298	961.685	773.339
161.877	22.069	960.457	771.278
162.892	22.024	959.592	770.317
163.906	22.154	959.211	770.514
164.921	22.086	957.994	769.170
165.935	22.150	956.693	768.338
166.950	22.095	955.905	767.395
167.964	22.078	955.044	766.562
168.979	22.070	953.663	765.351
169.994	22.059	952.450	764.261
171.008	21.855	951.784	762.775
172.023	21.939	951.132	762.550
173.037	22.284	950.359	763.360
174.052	21.954	949.161	760.898
175.067	21.785	948.505	759.575
176.081	21.786	947.505	758.708
177.096	21.956	946.458	758.541
178.110	21.916	945.897	757.847
179.125	21.701	944.746	755.933
180.140	21.477	943.554	753.944
181.154	21.378	943.219	753.184
182.169	21.648	942.603	753.791
183.183	21.757	942.249	753.910
184.198	22.126	941.721	755.005
185.213	22.003	941.007	753.837
186.227	21.943	940.207	752.874
187.242	22.087	939.588	752.927
188.256	22.078	939.003	752.354
189.271	22.250	937.782	752.046
190.286	22.275	937.460	751.827
191.300	22.133	936.028	750.004
192.315	21.529	935.224	746.719
193.329	20.784	933.812	742.350
194.344	20.381	932.455	739.489
195.359	20.975	932.748	742.187
196.373	21.889	933.053	746.252
197.388	21.981	933.078	746.600
198.402	21.921	932.370	745.711
199.417	21.952	931.623	745.178
200.432	22.028	931.164	745.070
201.446	21.807	930.143	743.250
202.461	21.521	929.193	741.214
203.475	21.560	929.150	741.277
204.490	21.263	927.285	738.469
205.504	20.301	924.766	732.339
206.519	20.467	925.092	733.235
207.534	21.392	925.796	737.630
208.548	21.597	924.725	737.577
209.563	21.975	924.765	739.136
210.577	21.888	923.861	737.980
211.592	21.667	922.804	736.145
212.607	21.975	923.115	737.621
213.621	22.265	922.197	738.039
214.636	22.175	921.673	737.179
215.650	22.233	920.985	736.803
216.665	22.119	920.565	735.925
217.680	22.175	920.121	735.740
218.694	22.156	919.897	735.417
219.709	21.931	918.351	733.178
220.723	21.639	916.905	730.739
221.738	21.706	917.134	731.137
222.753	22.073	916.202	731.859
223.767	22.023	915.550	731.063
224.782	21.952	914.968	730.237
225.796	22.213	914.700	731.045
226.811	22.272	914.412	730.997
227.826	21.799	912.986	727.828
228.840	20.991	911.544	723.264
229.855	21.008	910.800	722.680
230.869	21.458	910.105	723.928
231.884	20.891	909.107	720.727
232.899	21.037	908.636	720.890
233.913	21.783	908.857	724.084
234.928	21.921	908.325	724.166
235.942	21.905	907.888	723.688
236.957	21.923	906.936	722.940
237.972	21.765	905.791	721.315
238.986	21.644	905.501	720.520
240.001	21.673	904.921	720.115
241.015	21.675	904.601	719.806
242.030	21.724	903.956	719.428
243.045	21.875	903.259	719.431
244.059	22.045	902.683	719.606
245.074	22.198	902.174	719.761
246.088	22.073	901.417	718.581
247.103	21.716	900.441	716.283
248.117	21.625	899.976	715.476
249.132	22.232	899.850	717.793
250.147	22.551	899.592	718.825
251.161	22.560	899.093	718.398
252.176	22.798	898.659	718.957
253.190	22.921	897.941	718.819
254.205	22.841	897.334	717.946
255.220	23.083	896.814	718.447
256.234	23.053	896.057	717.659
257.249	22.877	895.430	716.378
258.263	22.647	894.990	715.030
259.278	22.804	894.113	714.904
260.293	22.896	893.827	714.983
261.307	23.052	893.145	715.004
262.322	22.846	892.568	713.647
263.336	22.711	892.032	712.611
264.351	22.167	890.611	709.217
265.366	21.075	888.192	702.832
266.380	20.664	887.412	700.499
267.395	21.542	887.861	704.326
268.409	22.330	888.016	707.555
269.424	22.342	887.358	707.018
270.439	22.512	887.053	707.396
271.453	22.715	885.989	707.295
272.468	22.668	885.301	706.496
273.482	22.787	885.421	707.006
274.497	22.931	884.791	707.018
275.512	22.801	883.572	705.463
276.526	22.120	882.278	701.648
277.541	22.363	882.017	702.348
278.555	22.642	881.912	703.314
279.570	22.455	881.109	701.865
280.585	22.285	880.516	700.655
281.599	22.424	879.815	700.587
282.614	22.601	879.331	700.844
283.628	22.037	877.735	697.274
284.643	21.784	877.069	695.677
285.657	22.107	876.979	696.827
286.672	21.925	876.498	695.659
287.687	21.658	875.144	693.468
288.701	22.001	875.163	694.780
289.716	22.284	875.451	696.064
290.730	21.817	874.058	693.052
291.745	21.916	873.147	692.657
292.760	21.613	872.560	690.936
293.774	21.563	871.965	690.207
294.789	22.564	872.471	694.494
295.803	23.165	872.790	697.054
296.818	23.204	872.090	696.588
297.833	23.280	871.486	696.343
298.847	23.028	870.449	694.463
299.862	22.640	869.152	691.844
300.876	22.705	869.370	692.211
301.891	23.134	868.729	693.319
302.906	23.014	868.350	692.488
303.920	22.881	866.728	690.612
304.935	22.692	865.710	689.000
305.949	23.051	865.878	690.478
306.964	23.221	865.290	690.609
307.979	23.075	864.251	689.149
308.993	22.907	864.287	688.466
310.008	23.250	863.761	689.318
311.022	23.409	863.214	689.442
312.037	23.099	862.711	687.772
313.052	22.881	862.308	686.542
314.066	22.977	861.233	685.999
315.081	22.107	860.138	681.692
316.095	21.480	858.618	677.997
317.110	22.014	859.157	680.434
318.125	22.832	859.271	683.631
319.139	22.536	857.574	681.080
320.154	21.389	855.975	675.321
321.168	20.910	855.296	672.875
322.183	21.477	855.532	675.192
323.197	22.328	855.718	678.561
324.212	22.748	855.537	679.978
325.227	22.902	855.100	680.162
326.241	22.848	855.139	679.925
327.256	22.885	854.267	679.314
328.270	22.785	853.329	678.123
329.285	22.648	852.684	677.024
330.300	22.470	852.279	675.961
331.314	22.354	851.136	674.549
332.329	22.353	850.512	673.993
333.343	22.761	850.058	675.131
334.358	23.141	849.685	676.232
335.373	23.010	849.135	675.232
336.387	23.044	848.834	675.064
337.402	23.250	848.550	675.563
338.416	23.404	848.221	675.828
339.431	23.434	847.346	675.185
340.446	23.439	846.609	674.557
341.460	23.681	846.335	675.200
342.475	23.616	845.826	674.486
343.489	23.329	845.184	672.826
344.504	23.402	844.254	672.302
345.519	23.494	844.189	672.543
346.533	23.829	843.740	673.394
347.548	23.847	843.343	673.087
348.562	23.876	842.772	672.681
349.577	23.999	842.182	672.613
350.592	23.868	841.544	671.552
351.606	23.791	841.006	670.770
352.621	23.679	840.538	669.916
353.635	23.677	840.018	669.435
354.650	23.631	839.260	668.597
355.665	23.318	837.950	666.319
356.679	22.235	836.696	661.193
357.694	22.144	835.997	660.237
358.708	22.779	836.204	662.730
359.723	22.746	835.640	662.098
360.738	23.092	835.337	663.098
361.752	23.532	835.284	664.648
362.767	23.440	835.052	664.058
363.781	23.611	834.945	664.555
364.796	24.011	834.740	665.829
365.810	24.058	834.469	665.733
366.825	24.137	833.898	665.512
367.840	24.299	833.286	665.568
368.854	23.999	832.891	664.077
369.869	23.425	832.135	661.272
370.883	23.457	831.427	660.772
371.898	23.621	830.456	660.552
372.913	23.443	830.081	659.533
373.927	23.526	829.397	659.238
374.942	23.652	828.844	659.208
375.956	23.688	828.507	659.018
376.971	23.854	827.667	658.907
377.986	23.970	827.219	658.919
379.000	24.046	826.866	658.862
380.015	24.097	826.377	658.604
381.029	23.969	825.811	657.623
382.044	23.929	825.058	656.816
383.059	24.189	824.471	657.248
384.073	24.128	824.067	656.643
385.088	24.144	823.485	656.180
386.102	24.165	822.756	655.618
387.117	23.855	822.467	654.191
388.132	23.788	821.819	653.373
389.146	23.602	820.854	651.861
390.161	23.043	820.100	649.153
391.175	23.161	819.638	649.163
392.190	23.720	819.966	651.419
393.205	23.748	819.299	650.931
394.219	22.947	817.453	646.479
395.234	21.143	815.508	638.294
396.248	20.642	814.203	635.383
397.263	21.605	815.018	639.485
398.278	23.223	816.445	646.463
399.292	23.677	816.653	648.225
400.307	23.356	815.918	646.414
401.321	23.345	815.336	645.857
402.336	23.415	814.675	645.529
403.350	23.741	814.587	646.591
404.365	24.123	814.853	648.135
405.380	24.554	814.196	649.122
406.394	24.760	813.961	649.625
407.409	24.816	813.898	649.722
408.423	24.817	813.387	649.260
409.438	24.644	812.884	648.173
410.453	24.716	812.357	647.957
411.467	24.846	812.020	648.101
412.482	24.804	811.244	647.272
413.496	24.774	810.468	646.488
414.511	24.876	810.424	646.763
415.526	24.811	810.101	646.212
416.540	24.838	809.632	645.880
417.555	24.757	809.429	645.370
418.569	24.410	808.372	643.219
419.584	24.534	807.319	642.770
420.599	24.507	807.420	642.695
421.613	151.430	1365.829	1789.357
422.628	131.451	1447.184	1789.458
