DTS Sentinel unit serial number:	SN413079Multiplexer serial number:	ORYXHardware model number:	OX4-SRSoftware version number:	ORYX F/W v4.00 Oryx Data Collector v3.7.2.0data status	okinstallation	princeton_trtdifferential loss correction	single-endedforward channel	channel 3reverse channel	N/Adate	2019/09/16time	22:12:35forward acquisition time	60.00reverse acquisition time	0.00gamma	496.2192k internal	0.2324k external	0.2324temperature offset calibration	0.9937default loss term (dB/km)	0.3790temperature slope calibration	1.0000multiplexer offset coefficient	1.0000multiplexer slope coefficient	1.0000fibre end	0.00T internal ref (°C)	31.05T ext. ref 1 (°C)	0.07T ext. ref 2 (°C)	24.74length (m)	temperature (°C)	Stokes	anti-Stokes-747.200	-87.304	-0.387	-0.119
-746.185	-132.481	-0.177	-0.023
-745.171	86.782	0.068	-0.076
-744.156	-200.000	-0.008	0.313
-743.142	137.161	-0.085	0.112
-742.127	-200.000	0.043	0.281
-741.112	309.722	-0.132	0.248
-740.098	-109.130	-0.319	0.069
-739.083	-89.309	-0.246	-0.073
-738.069	71.504	0.080	-0.084
-737.054	800.000	0.122	0.431
-736.039	11.847	-0.337	0.261
-735.025	-18.138	0.265	-0.167
-734.010	-94.623	-0.114	-0.031
-732.996	137.821	-0.100	0.132
-731.981	-6.292	-0.221	-0.152
-730.966	-120.875	-0.266	0.045
-729.952	224.593	0.005	-0.008
-728.937	800.000	-0.061	-0.243
-727.923	-119.772	-0.375	0.065
-726.908	47.113	0.168	-0.158
-725.894	-142.545	-0.347	0.034
-724.879	-47.306	0.042	0.020
-723.864	291.997	-0.125	-0.230
-722.850	24.104	-0.214	-0.178
-721.835	302.648	0.076	0.141
-720.821	-200.000	0.017	-0.239
-719.806	117.735	-0.112	-0.139
-718.791	-136.830	-0.086	0.010
-717.777	-88.726	-0.269	-0.081
-716.762	-200.000	-0.009	0.060
-715.748	375.834	-0.048	-0.098
-714.733	-200.000	0.042	0.254
-713.718	91.722	-0.135	-0.153
-712.704	-200.000	0.044	0.287
-711.689	-200.000	0.020	-0.139
-710.675	-200.000	0.051	-0.486
-709.660	-0.858	-0.128	0.091
-708.645	-200.000	0.064	-0.351
-707.631	-38.220	0.226	-0.121
-706.616	67.705	-0.102	0.105
-705.602	-200.000	-0.066	-0.299
-704.587	25.626	0.060	-0.051
-703.572	800.000	-0.042	0.119
-702.558	137.389	0.106	0.140
-701.543	-23.220	0.180	-0.109
-700.529	-200.000	-0.089	-0.418
-699.514	147.577	-0.229	-0.310
-698.499	-9.081	0.132	0.089
-697.485	323.940	-0.098	-0.188
-696.470	-200.000	-0.070	-0.316
-695.456	800.000	-0.069	0.256
-694.441	105.472	-0.135	0.161
-693.426	800.000	0.031	0.125
-692.412	185.711	0.128	-0.192
-691.397	-200.000	0.036	-0.206
-690.383	316.403	-0.235	-0.448
-689.368	-144.668	0.230	0.021
-688.354	-200.000	-0.003	0.057
-687.339	378.071	0.080	0.164
-686.324	-200.000	0.008	-0.129
-685.310	800.000	0.094	-0.264
-684.295	-30.124	0.059	-0.034
-683.281	-192.728	-0.105	0.001
-682.266	-70.949	0.153	-0.058
-681.251	-200.000	-0.020	0.198
-680.237	258.583	-0.142	0.247
-679.222	-200.000	-0.016	0.209
-678.208	-85.014	0.170	0.054
-677.193	-88.666	0.125	-0.037
-676.178	800.000	-0.043	0.149
-675.164	-200.000	0.068	0.397
-674.149	-73.143	-0.274	0.101
-673.135	-200.000	-0.029	-0.341
-672.120	-50.758	-0.142	0.067
-671.105	-200.000	-0.010	0.074
-670.091	-137.600	-0.249	0.028
-669.076	109.541	0.050	-0.061
-668.062	-200.000	-0.240	-0.001
-667.047	-42.621	0.182	-0.093
-666.032	143.572	0.191	0.256
-665.018	800.000	-0.194	-0.588
-664.003	-65.297	0.318	0.129
-662.989	-137.607	-0.449	0.051
-661.974	-11.441	0.072	0.048
-660.959	-200.000	-0.012	0.146
-659.945	-126.231	0.174	0.026
-658.930	122.354	0.112	0.141
-657.916	-200.000	0.001	-0.150
-656.901	-200.000	-0.002	0.063
-655.886	-42.923	-0.049	-0.025
-654.872	-151.997	-0.254	-0.019
-653.857	-87.197	-0.041	0.012
-652.843	-98.217	0.090	0.023
-651.828	89.878	-0.010	0.012
-650.814	-128.129	0.095	0.014
-649.799	490.065	0.101	-0.232
-648.784	800.000	-0.118	-0.428
-647.770	-60.194	-0.292	-0.125
-646.755	-160.970	0.330	0.017
-645.741	145.672	-0.137	-0.184
-644.726	-90.635	-0.106	-0.031
-643.711	-116.877	-0.274	-0.051
-642.697	800.000	-0.022	-0.089
-641.682	-200.000	0.034	0.210
-640.668	-200.000	-0.082	0.428
-639.653	-200.000	0.008	0.126
-638.638	9.296	0.087	-0.066
-637.624	-43.718	-0.085	0.043
-636.609	82.870	0.275	-0.300
-635.595	-142.200	-0.305	0.030
-634.580	122.134	0.335	-0.420
-633.565	-7.192	-0.196	-0.134
-632.551	-200.000	-0.020	0.204
-631.536	10.525	0.087	-0.066
-630.522	-142.705	0.193	-0.019
-629.507	-35.965	0.290	-0.158
-628.492	-200.000	0.097	-0.694
-627.478	-200.000	0.057	0.298
-626.463	-101.079	-0.147	0.036
-625.449	-159.985	-0.254	0.014
-624.434	127.619	0.092	0.118
-623.419	267.884	0.178	0.313
-622.405	-63.252	-0.124	0.051
-621.390	-87.544	-0.133	0.041
-620.376	545.548	0.137	0.330
-619.361	263.344	0.164	-0.286
-618.346	-42.512	-0.118	0.060
-617.332	9.205	-0.155	-0.118
-616.317	-63.773	-0.398	0.164
-615.303	24.553	-0.077	-0.064
-614.288	397.942	-0.089	-0.187
-613.273	79.940	-0.127	-0.137
-612.259	476.832	0.185	-0.420
-611.244	-108.772	-0.200	0.043
-610.230	-20.974	-0.138	-0.085
-609.215	43.258	0.147	-0.135
-608.201	800.000	0.044	-0.191
-607.186	206.210	-0.212	0.331
-606.171	-154.652	0.139	0.009
-605.157	-200.000	-0.055	-0.316
-604.142	439.782	-0.085	-0.186
-603.128	58.765	0.053	0.052
-602.113	-200.000	0.042	-0.263
-601.098	56.095	-0.118	0.115
-600.084	108.353	0.229	-0.274
-599.069	74.078	-0.184	-0.193
-598.055	43.460	0.081	0.075
-597.040	220.812	0.074	0.120
-596.025	-200.000	0.056	0.251
-595.011	-10.584	0.185	-0.123
-593.996	-153.049	-0.104	0.007
-592.982	-23.614	-0.114	-0.068
-591.967	-130.145	-0.177	-0.024
-590.952	109.603	-0.264	0.317
-589.938	-37.601	-0.143	-0.076
-588.923	-200.000	-0.007	0.081
-587.909	-67.070	0.251	0.099
-586.894	701.447	-0.086	-0.228
-585.879	-57.087	0.254	-0.112
-584.865	-200.000	-0.002	0.207
-583.850	563.637	-0.109	0.266
-582.836	168.927	0.144	0.206
-581.821	-39.958	-0.200	0.105
-580.806	29.333	-0.216	-0.184
-579.792	-200.000	0.081	0.490
-578.777	-200.000	0.030	-0.220
-577.763	160.973	0.159	-0.223
-576.748	436.085	-0.041	0.089
-575.733	175.874	-0.044	0.064
-574.719	800.000	0.093	-0.305
-573.704	800.000	-0.064	-0.195
-572.690	-51.524	0.120	-0.056
-571.675	62.443	0.194	0.195
-570.661	41.090	-0.172	-0.155
-569.646	323.980	0.094	0.181
-568.631	-28.740	0.210	0.121
-567.617	-34.900	0.353	-0.193
-566.602	-93.179	0.099	0.028
-565.588	258.431	-0.146	0.251
-564.573	372.397	0.093	0.189
-563.558	76.053	0.103	0.109
-562.544	-164.871	0.373	0.017
-561.529	-200.000	-0.192	-0.000
-560.515	41.314	-0.211	-0.191
-559.500	-139.644	-0.271	0.029
-558.485	800.000	-0.077	-0.270
-557.471	210.955	-0.093	0.147
-556.456	-116.078	0.235	0.044
-555.442	-108.044	0.170	0.037
-554.427	-91.622	0.155	-0.044
-553.412	-200.000	-0.033	0.169
-552.398	-200.000	-0.011	-0.232
-551.383	-200.000	0.000	-0.073
-550.369	-153.995	0.064	-0.004
-549.354	260.294	0.148	-0.255
-548.339	-28.212	0.194	0.112
-547.325	-200.000	-0.062	-0.326
-546.310	475.921	0.080	0.181
-545.296	42.048	-0.195	-0.178
-544.281	-60.257	-0.297	0.127
-543.266	547.945	-0.110	0.264
-542.252	-98.334	0.309	-0.079
-541.237	468.185	0.087	-0.196
-540.223	513.994	-0.223	-0.521
-539.208	-113.571	0.030	-0.006
-538.193	-66.265	0.087	0.035
-537.179	132.548	-0.090	0.117
-536.164	-111.922	0.368	0.074
-535.150	-200.000	0.006	0.070
-534.135	633.465	-0.072	0.182
-533.121	55.501	0.164	-0.159
-532.106	346.785	0.111	0.219
-531.091	800.000	-0.059	-0.249
-530.077	-200.000	0.019	-0.101
-529.062	31.953	-0.161	0.139
-528.048	282.002	0.199	0.357
-527.033	52.428	0.233	0.222
-526.018	-117.432	0.103	0.019
-525.004	-200.000	-0.027	0.324
-523.989	800.000	-0.167	0.472
-522.975	800.000	-0.082	0.303
-521.960	-74.691	0.213	0.077
-520.945	30.686	0.075	-0.064
-519.931	-149.466	0.148	0.012
-518.916	-15.391	0.031	-0.020
-517.902	154.444	-0.179	-0.246
-516.887	-64.538	-0.383	0.156
-515.872	67.778	-0.268	0.274
-514.858	-99.857	-0.234	-0.058
-513.843	115.085	0.096	-0.118
-512.829	-200.000	0.002	-0.319
-511.814	-12.131	-0.333	0.218
-510.799	-200.000	0.071	-0.357
-509.785	800.000	-0.036	-0.102
-508.770	-109.135	-0.162	0.035
-507.756	-165.622	0.201	0.009
-506.741	-40.492	0.128	0.067
-505.726	-81.707	0.179	0.059
-504.712	-150.259	0.330	-0.025
-503.697	91.414	0.097	0.109
-502.683	-200.000	-0.030	0.229
-501.668	728.162	-0.074	-0.197
-500.653	-65.822	-0.263	-0.105
-499.639	257.327	0.146	-0.251
-498.624	-119.201	-0.206	0.036
-497.610	-200.000	-0.021	0.103
-496.595	242.275	-0.082	0.138
-495.581	-67.705	-0.069	0.027
-494.566	-82.215	-0.249	0.081
-493.551	-106.534	-0.270	-0.060
-492.537	-200.000	-0.011	-0.059
-491.522	214.489	-0.106	-0.168
-490.508	-84.503	0.106	-0.033
-489.493	150.417	0.300	0.407
-488.478	-111.026	0.091	-0.019
-487.464	-13.039	-0.153	0.099
-486.449	-200.000	-0.037	0.174
-485.435	39.122	-0.169	-0.151
-484.420	-44.694	-0.073	-0.037
-483.405	111.119	0.040	-0.049
-482.391	-28.268	-0.262	0.151
-481.376	35.148	0.306	-0.267
-480.362	85.879	-0.166	0.182
-479.347	800.000	0.017	0.056
-478.332	-76.367	0.159	-0.056
-477.318	88.863	-0.156	0.173
-476.303	283.481	0.047	-0.084
-475.289	-116.149	0.122	0.023
-474.274	-200.000	-0.014	-0.069
-473.259	585.656	-0.086	0.212
-472.245	-79.807	-0.115	0.039
-471.230	126.945	-0.098	0.124
-470.216	800.000	0.022	0.063
-469.201	-110.568	0.163	-0.034
-468.186	91.035	-0.122	0.136
-467.172	-16.359	0.478	0.303
-466.157	141.554	-0.160	0.212
-465.143	-142.452	0.305	0.030
-464.128	186.423	0.091	0.136
-463.113	82.580	0.096	0.104
-462.099	-28.896	0.113	0.065
-461.084	-65.910	-0.336	0.134
-460.070	-72.457	-0.150	0.055
-459.055	145.059	-0.209	0.279
-458.040	-40.845	0.077	-0.040
-457.026	800.000	0.030	-0.085
-456.011	40.472	-0.178	0.160
-454.997	22.232	0.323	0.264
-453.982	-200.000	0.037	-0.171
-452.968	-120.591	-0.233	0.039
-451.953	-108.178	-0.358	-0.077
-450.938	800.000	-0.023	0.082
-449.924	800.000	0.019	0.064
-448.909	-200.000	0.001	0.122
-447.895	71.872	-0.021	0.022
-446.880	-200.000	-0.103	0.460
-445.865	-99.580	-0.360	-0.090
-444.851	234.667	0.002	0.004
-443.836	-200.000	0.002	-0.070
-442.822	800.000	0.031	0.121
-441.807	-14.779	-0.041	-0.026
-440.792	-117.941	0.139	-0.025
-439.778	-200.000	-0.023	-0.248
-438.763	16.128	0.068	-0.054
-437.749	43.240	-0.124	0.113
-436.734	63.377	0.171	0.171
-435.719	149.633	0.132	0.178
-434.705	479.852	-0.070	0.158
-433.690	62.951	0.262	0.262
-432.676	-200.000	0.035	0.158
-431.661	42.614	0.159	0.145
-430.646	50.172	-0.003	-0.003
-429.632	-49.363	0.299	-0.142
-428.617	-145.005	-0.168	0.015
-427.603	-149.624	-0.328	-0.026
-426.588	372.822	-0.041	0.084
-425.573	-56.552	-0.129	-0.057
-424.559	-150.426	-0.318	-0.024
-423.544	-200.000	-0.005	-0.455
-422.530	-131.808	0.186	-0.024
-421.515	209.506	-0.138	0.216
-420.500	-200.000	0.039	0.305
-419.486	-126.127	-0.277	-0.041
-418.471	-127.981	0.043	-0.006
-417.457	119.725	0.338	-0.417
-416.442	-200.000	-0.052	0.228
-415.428	148.369	0.167	-0.225
-414.413	-71.750	-0.105	-0.039
-413.398	-70.754	0.237	-0.089
-412.384	-130.642	-0.157	-0.021
-411.369	183.805	-0.109	-0.160
-410.355	443.345	-0.119	0.260
-409.340	-137.772	0.267	0.030
-408.325	-48.309	0.177	0.085
-407.311	147.386	-0.214	-0.287
-406.296	431.756	0.112	-0.242
-405.282	42.598	-0.206	-0.187
-404.267	731.356	0.066	-0.175
-403.252	-200.000	0.047	0.221
-402.238	-85.098	0.145	0.045
-401.223	99.983	-0.341	-0.394
-400.209	-97.659	0.069	-0.018
-399.194	-200.000	-0.002	-0.200
-398.179	322.822	0.117	0.221
-397.165	390.377	0.086	0.178
-396.150	-200.000	0.025	-0.168
-395.136	13.351	-0.191	-0.148
-394.121	-32.032	-0.300	-0.167
-393.106	131.263	-0.182	-0.232
-392.092	-200.000	0.003	-0.092
-391.077	125.981	-0.124	-0.156
-390.063	766.139	-0.080	-0.217
-389.048	127.540	-0.047	0.060
-388.033	126.356	0.153	0.193
-387.019	144.499	0.056	-0.075
-386.004	800.000	-0.032	-0.110
-384.990	-32.435	0.100	-0.056
-383.975	-19.612	-0.201	-0.124
-382.960	-200.000	0.073	0.328
-381.946	800.000	-0.052	0.190
-380.931	-101.461	0.128	-0.031
-379.917	-200.000	0.050	0.294
-378.902	-14.880	0.236	-0.150
-377.888	-200.000	-0.037	-0.269
-376.873	-36.198	-0.052	0.028
-375.858	800.000	-0.053	0.160
-374.844	-200.000	0.018	0.336
-373.829	142.203	-0.061	0.081
-372.815	-136.813	0.318	0.036
-371.800	-91.013	0.073	0.021
-370.785	116.835	0.097	-0.119
-369.771	-140.977	-0.131	0.013
-368.756	-200.000	-0.013	-0.299
-367.742	-132.897	0.110	0.014
-366.727	-29.671	0.067	0.038
-365.712	-67.348	-0.315	0.123
-364.698	-73.050	-0.029	-0.010
-363.683	19.065	0.031	0.024
-362.669	19.382	-0.139	-0.111
-361.654	323.168	-0.104	0.196
-360.639	56.747	0.313	0.303
-359.625	-117.190	-0.261	-0.047
-358.610	69.652	-0.106	-0.108
-357.596	445.040	-0.028	0.061
-356.581	-62.071	-0.061	0.025
-355.566	240.979	0.138	-0.229
-354.552	-87.892	-0.358	0.107
-353.537	-200.000	-0.027	0.121
-352.523	-200.000	-0.005	-0.106
-351.508	652.336	-0.042	-0.107
-350.493	-200.000	-0.016	-0.249
-349.479	800.000	0.025	-0.081
-348.464	-154.681	-0.219	0.014
-347.450	-200.000	0.025	0.222
-346.435	-200.000	0.023	-0.268
-345.420	-200.000	-0.048	-0.361
-344.406	140.781	-0.163	0.214
-343.391	-99.037	0.222	-0.056
-342.377	-150.673	0.195	0.015
-341.362	-132.087	0.262	-0.034
-340.348	-200.000	-0.078	0.347
-339.333	75.190	0.124	-0.130
-338.318	800.000	-0.076	0.222
-337.304	79.054	-0.087	0.093
-336.289	800.000	-0.071	0.196
-335.275	4.853	-0.229	0.167
-334.260	800.000	0.047	0.167
-333.245	-1.775	-0.447	0.312
-332.231	-10.424	-0.240	-0.158
-331.216	-84.197	-0.208	0.066
-330.202	-63.413	-0.159	-0.065
-329.187	13.558	-0.262	-0.202
-328.172	-200.000	-0.019	-0.097
-327.158	-108.784	-0.392	-0.083
-326.143	17.444	-0.191	-0.151
-325.129	58.595	0.158	0.154
-324.114	-200.000	-0.033	0.314
-323.099	-141.164	-0.060	-0.006
-322.085	-200.000	0.001	0.024
-321.070	48.039	0.092	-0.085
-320.056	-200.000	-0.004	0.324
-319.041	22.877	0.409	-0.333
-318.026	577.900	0.120	-0.292
-317.012	164.679	-0.134	-0.187
-315.997	120.891	0.145	0.180
-314.983	-82.887	0.173	-0.055
-313.968	-56.026	-0.106	-0.047
-312.953	-174.914	-0.346	0.010
-311.939	33.293	-0.307	-0.264
-310.924	800.000	0.099	-0.328
-309.910	-117.000	0.067	-0.012
-308.895	-73.488	0.266	-0.096
-307.880	7.294	0.133	0.099
-306.866	-96.429	-0.103	0.027
-305.851	-175.852	0.126	0.003
-304.837	-90.672	-0.320	-0.092
-303.822	4.793	0.124	-0.090
-302.807	-200.000	-0.012	0.151
-301.793	-200.000	0.042	0.450
-300.778	-70.926	0.078	-0.029
-299.764	44.384	0.027	0.025
-298.749	800.000	-0.017	-0.064
-297.735	800.000	0.047	0.177
-296.720	20.506	0.104	-0.083
-295.705	-76.810	-0.113	0.039
-294.691	-200.000	0.024	0.218
-293.676	-90.494	-0.161	0.046
-292.662	103.211	0.217	-0.252
-291.647	335.728	-0.064	-0.122
-290.632	-76.371	-0.311	0.109
-289.618	-200.000	-0.025	-0.136
-288.603	78.875	0.064	-0.068
-287.589	800.000	-0.035	0.141
-286.574	-128.300	-0.636	-0.090
-285.559	800.000	0.090	0.323
-284.545	-148.653	0.364	0.029
-283.530	-1.430	-0.200	0.140
-282.516	154.790	-0.212	-0.289
-281.501	102.194	0.114	0.131
-280.486	800.000	-0.073	-0.222
-279.472	24.022	-0.311	-0.254
-278.457	31.670	-0.145	0.123
-277.443	-154.440	-0.231	-0.015
-276.428	51.314	0.105	0.099
-275.413	-200.000	0.001	-0.187
-274.399	146.295	-0.209	-0.278
-273.384	101.299	-0.093	0.107
-272.370	-200.000	0.012	-0.481
-271.355	-200.000	-0.043	-0.343
-270.340	-200.000	-0.027	-0.180
-269.326	389.191	-0.154	-0.316
-268.311	73.601	-0.298	0.309
-267.297	64.441	0.103	-0.103
-266.282	-200.000	-0.011	0.302
-265.267	-75.227	0.215	0.076
-264.253	-52.932	0.520	-0.237
-263.238	59.480	-0.130	-0.127
-262.224	-20.938	0.069	-0.042
-261.209	74.526	0.125	0.130
-260.195	-50.093	0.124	-0.058
-259.180	29.549	-0.141	-0.119
-258.165	-81.857	0.110	-0.036
-257.151	-145.863	0.134	-0.012
-256.136	165.234	0.130	-0.183
-255.122	263.555	0.220	-0.379
-254.107	-200.000	0.030	0.132
-253.092	-116.356	0.179	-0.033
-252.078	70.978	0.037	-0.038
-251.063	-200.000	0.037	-0.165
-250.049	245.071	-0.057	-0.095
-249.034	800.000	-0.114	0.336
-248.019	556.205	0.030	-0.071
-247.005	128.559	-0.097	0.123
-245.990	-200.000	-0.010	-0.078
-244.976	-146.503	0.259	-0.022
-243.961	584.889	0.031	-0.075
-242.946	28.557	-0.038	0.032
-241.932	-144.703	-0.251	0.023
-240.917	-80.218	0.287	0.095
-239.903	195.360	0.033	0.050
-238.888	-117.824	-0.202	0.036
-237.873	-31.639	-0.139	0.077
-236.859	-111.826	0.312	-0.062
-235.844	74.464	-0.113	0.118
-234.830	-160.255	-0.124	0.007
-233.815	-102.654	-0.175	0.041
-232.800	-151.616	0.149	0.011
-231.786	216.032	0.078	-0.122
-230.771	800.000	-0.077	-0.276
-229.757	90.075	-0.067	-0.074
-228.742	-200.000	-0.063	-0.526
-227.727	280.330	-0.151	-0.267
-226.713	-113.654	0.160	-0.031
-225.698	60.799	0.135	-0.132
-224.684	800.000	-0.127	0.374
-223.669	-38.837	0.393	-0.205
-222.655	79.600	-0.327	0.348
-221.640	-91.217	0.318	-0.090
-220.625	-79.714	0.088	-0.029
-219.611	286.052	-0.016	0.028
-218.596	94.674	0.425	0.478
-217.582	-200.000	0.006	-0.066
-216.567	186.200	0.201	0.296
-215.552	39.836	0.357	0.317
-214.538	-200.000	-0.011	-0.110
-213.523	306.704	-0.097	0.178
-212.509	-200.000	0.039	0.211
-211.494	-48.966	-0.075	0.035
-210.479	-84.068	-0.129	0.041
-209.465	658.541	-0.007	-0.017
-208.450	-141.649	0.225	0.022
-207.436	17.475	0.238	-0.187
-206.421	-61.554	0.273	-0.113
-205.406	418.988	0.126	-0.266
-204.392	66.213	0.075	-0.076
-203.377	-174.257	0.291	-0.008
-202.363	-61.966	-0.119	-0.049
-201.348	-200.000	0.000	-0.010
-200.333	-200.000	-0.006	-0.035
-199.319	800.000	-0.116	-0.398
-198.304	-47.039	-0.507	0.245
-197.290	-121.515	0.783	0.128
-196.275	244.561	0.121	0.200
-195.260	87.724	-0.306	0.335
-194.246	719.743	0.098	-0.257
-193.231	-103.988	-0.120	-0.028
-192.217	-165.654	0.234	0.010
-191.202	800.000	-0.036	0.121
-190.187	304.318	0.057	0.104
-189.173	64.254	-0.237	-0.235
-188.158	355.366	0.026	0.051
-187.144	-94.473	-0.068	0.018
-186.129	800.000	0.026	-0.097
-185.114	326.500	0.071	-0.135
-184.100	-140.037	0.229	-0.024
-183.085	800.000	0.087	-0.356
-182.071	422.347	-0.090	0.190
-181.056	800.000	0.060	0.182
-180.042	-54.948	0.405	0.180
-179.027	-28.222	-0.254	0.145
-178.012	-200.000	-0.036	-0.272
-176.998	14.251	0.212	0.163
-175.983	-200.000	0.028	0.289
-174.969	-200.000	-0.004	0.045
-173.954	-14.512	-0.075	0.047
-172.939	58.279	0.059	0.057
-171.925	34.857	0.227	0.196
-170.910	800.000	0.102	-0.414
-169.896	-69.313	-0.280	-0.106
-168.881	564.511	-0.085	0.204
-167.866	543.337	0.086	0.202
-166.852	250.237	0.046	-0.077
-165.837	-154.596	0.080	-0.005
-164.823	149.697	-0.150	0.201
-163.808	-95.145	0.263	0.070
-162.793	107.317	0.115	0.135
-161.779	800.000	-0.047	-0.147
-160.764	-200.000	0.033	0.256
-159.750	271.949	0.009	0.016
-158.735	-200.000	0.029	-0.143
-157.720	-131.775	-0.122	-0.016
-156.706	293.148	-0.131	-0.236
-155.691	341.158	-0.032	0.062
-154.677	-50.901	0.279	-0.129
-153.662	-178.729	0.267	-0.006
-152.647	42.277	0.231	0.207
-151.633	-8.605	0.275	0.182
-150.618	-11.467	0.283	0.184
-149.604	179.429	0.290	0.419
-148.589	-9.910	-0.388	0.255
-147.574	800.000	0.038	-0.145
-146.560	-146.044	-0.071	0.006
-145.545	78.143	0.205	-0.215
-144.531	-115.292	-0.231	-0.043
-143.516	13.231	-0.142	0.108
-142.502	10.213	0.235	0.176
-141.487	22.482	0.088	-0.071
-140.472	-108.776	-0.284	-0.060
-139.458	-28.281	-0.235	-0.134
-138.443	-18.506	0.253	0.156
-137.429	-43.742	-0.047	0.023
-136.414	-2.428	-0.039	-0.027
-135.399	-18.971	-0.048	-0.029
-134.385	-9.108	0.243	-0.160
-133.370	-132.903	-0.176	0.022
-132.356	18.606	-0.233	0.184
-131.341	-200.000	0.031	0.372
-130.326	-200.000	0.005	0.028
-129.312	133.519	-0.058	-0.074
-128.297	232.985	-0.101	-0.163
-127.283	532.090	-0.018	-0.042
-126.268	48.854	-0.270	-0.249
-125.253	800.000	-0.059	0.224
-124.239	90.799	0.057	0.063
-123.224	182.485	-0.137	-0.199
-122.210	-200.000	-0.023	0.104
-121.195	18.487	0.600	0.473
-120.180	43.886	-0.215	0.194
-119.166	-200.000	0.019	0.100
-118.151	-87.000	-0.195	-0.059
-117.137	-59.131	-0.354	0.150
-116.122	800.000	-0.050	0.162
-115.107	180.957	-0.029	-0.042
-114.093	55.729	0.076	-0.073
-113.078	84.122	0.291	-0.313
-112.064	-200.000	0.071	0.359
-111.049	-200.000	0.026	-0.169
-110.034	35.489	0.320	-0.277
-109.020	-50.427	0.149	0.069
-108.005	272.110	0.055	0.096
-106.991	-200.000	-0.001	-0.058
-105.976	-200.000	-0.001	-0.086
-104.962	133.952	0.282	0.359
-103.947	-81.393	0.231	-0.075
-102.932	800.000	0.133	0.371
-101.918	800.000	-0.026	0.089
-100.903	12.348	0.043	-0.032
-99.889	137.915	-0.139	0.179
-98.874	-33.260	0.058	-0.032
-97.859	-200.000	0.018	0.498
-96.845	-14.482	0.186	0.118
-95.830	-8.527	0.070	-0.046
-94.816	-200.000	-0.012	0.176
-93.801	-13.511	0.160	0.102
-92.786	131.718	-0.048	-0.060
-91.772	-0.961	0.215	-0.150
-90.757	757.604	0.096	-0.256
-89.743	800.000	-0.056	-0.156
-88.728	-200.000	-0.014	-0.157
-87.713	-11.779	0.230	-0.149
-86.699	-200.000	-0.036	-0.317
-85.684	62.269	0.185	0.182
-84.670	-74.908	-0.467	0.165
-83.655	-86.522	-0.265	-0.080
-82.640	349.623	0.199	0.387
-81.626	279.093	-0.101	0.177
-80.611	-200.000	0.003	-0.107
-79.597	800.000	-0.062	0.185
-78.582	-120.349	0.641	0.107
-77.567	-200.000	-0.044	0.201
-76.553	800.000	-0.051	0.164
-75.538	620.807	-0.042	-0.103
-74.524	800.000	0.036	-0.145
-73.509	607.696	-0.171	0.420
-72.494	-200.000	0.005	-0.101
-71.480	-10.140	0.075	-0.049
-70.465	-146.951	0.259	0.022
-69.451	-200.000	-0.072	0.552
-68.436	80.480	0.113	0.120
-67.422	-95.190	-0.328	0.087
-66.407	-77.826	0.062	0.021
-65.392	28.948	0.101	-0.084
-64.378	-160.591	-0.435	0.023
-63.363	38.204	-0.158	0.139
-62.349	537.141	-0.081	0.190
-61.334	-3.619	-1.354	-0.925
-60.319	16.615	0.505	0.392
-59.305	800.000	-0.291	-1.122
-58.290	313.992	0.615	1.137
-57.276	800.000	0.494	1.590
-56.261	-200.000	100.634	578.360
-55.246	500.230	1415.903	3208.657
-54.232	156.705	2587.411	3511.131
-53.217	110.196	2158.967	2546.748
-52.203	41.626	1693.336	1506.619
-51.188	34.320	1503.252	1288.273
-50.173	31.770	1476.448	1248.287
-49.159	51.666	1527.902	1427.139
-48.144	53.299	1546.311	1455.360
-47.130	34.367	1504.287	1289.271
-46.115	31.397	1488.956	1256.158
-45.100	31.142	1486.237	1252.105
-44.086	31.126	1484.186	1250.222
-43.071	31.043	1482.527	1248.215
-42.057	30.938	1480.758	1245.973
-41.042	30.981	1479.488	1245.147
-40.027	30.993	1478.134	1244.037
-39.013	31.033	1476.425	1242.813
-37.998	30.926	1475.311	1241.115
-36.984	31.036	1473.993	1240.691
-35.969	31.015	1472.092	1238.900
-34.954	31.022	1470.910	1237.901
-33.940	30.991	1469.865	1236.767
-32.925	31.074	1468.539	1236.153
-31.911	31.106	1467.286	1235.261
-30.896	31.138	1465.839	1234.207
-29.881	31.131	1464.628	1233.091
-28.867	31.135	1463.070	1231.756
-27.852	31.085	1462.239	1230.679
-26.838	31.050	1460.979	1229.337
-25.823	30.963	1459.686	1227.629
-24.809	31.229	1457.322	1227.342
-23.794	31.106	1456.079	1225.437
-22.779	31.088	1455.115	1224.459
-21.765	31.078	1454.118	1223.507
-20.750	31.139	1452.669	1222.638
-19.736	30.988	1451.795	1220.865
-18.721	31.036	1450.594	1220.120
-17.706	31.109	1449.510	1219.641
-16.692	31.012	1448.394	1218.019
-15.677	31.050	1447.139	1217.164
-14.663	30.973	1446.530	1216.101
-13.648	31.163	1445.075	1216.063
-12.633	31.021	1445.015	1215.041
-11.619	31.007	1443.837	1213.910
-10.604	31.073	1442.642	1213.289
-9.590	30.950	1441.943	1211.854
-8.575	31.032	1441.467	1211.938
-7.560	31.048	1440.089	1210.837
-6.546	31.060	1439.174	1210.097
-5.531	30.958	1438.506	1208.826
-4.517	31.015	1437.603	1208.384
-3.502	31.022	1436.483	1207.441
-2.487	30.991	1436.069	1206.848
-1.473	30.998	1434.801	1205.776
-0.458	31.122	1432.571	1204.654
0.556	29.009	1423.568	1192.813
1.571	25.907	1398.414	1151.847
2.586	22.311	1338.952	1080.723
3.600	20.527	1257.649	1004.706
4.615	19.190	1213.413	961.821
5.629	16.634	1157.382	903.696
6.644	8.324	1072.986	796.428
7.659	1.415	1032.175	732.825
8.673	0.211	1026.403	722.883
9.688	-0.008	1023.667	719.846
10.702	-0.003	1021.897	718.564
11.717	0.070	1019.844	717.404
12.731	2.708	1022.146	731.552
13.746	10.909	1033.676	779.174
14.761	17.078	1040.773	814.128
15.775	17.459	1040.347	815.548
16.790	16.485	1038.277	809.194
17.804	15.403	1036.093	802.253
18.819	14.602	1033.945	796.692
19.834	14.177	1032.788	793.704
20.848	13.749	1032.496	791.371
21.863	13.613	1031.111	789.591
22.877	13.136	1030.910	787.091
23.892	13.193	1029.642	786.326
24.907	13.139	1028.580	785.187
25.921	13.029	1028.063	784.204
26.936	13.022	1027.661	783.793
27.950	13.039	1027.254	783.494
28.965	13.184	1026.067	783.208
29.980	13.250	1024.955	782.598
30.994	13.415	1023.996	782.579
32.009	13.438	1023.111	781.942
33.023	13.309	1022.988	781.172
34.038	13.428	1021.884	780.819
35.053	13.301	1021.204	779.635
36.067	13.395	1020.191	779.231
37.082	13.252	1019.729	778.137
38.096	13.205	1018.850	777.177
39.111	13.266	1017.976	776.726
40.126	13.188	1017.670	776.062
41.140	13.241	1016.249	775.156
42.155	13.056	1015.920	773.968
43.169	13.082	1014.660	773.063
44.184	13.037	1013.651	772.016
45.199	13.074	1012.539	771.271
46.213	13.021	1011.654	770.282
47.228	13.091	1010.559	769.708
48.242	13.179	1009.233	769.041
49.257	13.162	1008.746	768.520
50.271	13.201	1007.412	767.618
51.286	13.236	1006.913	767.334
52.301	13.164	1006.294	766.460
53.315	13.277	1005.707	766.467
54.330	13.145	1004.970	765.225
55.344	13.220	1003.390	764.302
56.359	13.148	1002.927	763.551
57.374	13.161	1002.217	763.002
58.388	13.206	1000.847	762.097
59.403	13.021	1000.455	760.877
60.417	13.076	999.707	760.497
61.432	13.209	998.520	760.137
62.447	13.047	998.252	759.120
63.461	13.064	997.524	758.580
64.476	13.046	996.706	757.808
65.490	12.939	995.771	756.541
66.505	12.952	994.613	755.650
67.520	13.114	993.597	755.553
68.534	13.085	993.547	755.318
69.549	13.099	992.395	754.437
70.563	13.028	991.948	753.707
71.578	13.102	991.279	753.469
72.593	13.055	990.406	752.527
73.607	12.992	989.199	751.257
74.622	12.958	988.325	750.368
75.636	12.899	987.925	749.730
76.651	13.023	986.933	749.476
77.666	13.059	985.969	748.840
78.680	13.099	984.850	748.105
79.695	12.956	984.527	747.148
80.709	12.981	984.640	747.280
81.724	13.006	983.939	746.795
82.739	13.150	982.479	746.271
83.753	13.110	982.115	745.747
84.768	13.168	981.639	745.581
85.782	13.270	980.922	745.433
86.797	13.325	980.384	745.205
87.812	13.268	979.397	744.133
88.826	13.208	978.375	743.018
89.841	13.261	977.199	742.299
90.855	13.289	976.946	742.165
91.870	13.246	976.257	741.384
92.884	13.339	975.423	741.102
93.899	13.370	974.549	740.511
94.914	13.443	973.908	740.286
95.928	13.332	973.634	739.515
96.943	13.373	972.703	738.927
97.957	13.373	971.879	738.233
98.972	13.327	970.896	737.218
99.987	13.354	970.351	736.859
101.001	13.233	969.671	735.738
102.016	13.300	968.569	735.136
103.030	13.338	967.877	734.715
104.045	13.464	966.954	734.509
105.060	13.371	966.050	733.342
106.074	13.330	964.809	732.153
107.089	13.134	964.541	731.021
108.103	13.075	963.735	730.084
109.118	13.105	962.502	729.218
110.133	13.246	961.348	728.901
111.147	13.128	961.275	728.258
112.162	13.151	960.271	727.534
113.176	13.276	958.922	726.998
114.191	13.225	957.983	726.001
115.206	13.142	957.679	725.340
116.220	13.223	956.629	724.837
117.235	13.193	955.900	724.089
118.249	13.007	955.493	722.902
119.264	13.297	954.398	723.278
120.279	13.221	953.833	722.452
121.293	13.361	952.582	722.053
122.308	13.102	952.242	720.601
123.322	13.166	951.344	720.136
124.337	13.117	950.439	719.174
125.352	13.100	949.488	718.318
126.366	13.065	948.519	717.369
127.381	13.120	947.213	716.554
128.395	13.196	946.250	716.092
129.410	13.035	945.915	715.080
130.424	13.194	944.385	714.547
131.439	13.132	944.082	713.987
132.454	13.117	943.058	713.082
133.468	13.187	941.870	712.424
134.483	13.299	941.371	712.466
135.497	13.283	940.723	711.846
136.512	13.150	940.216	710.825
137.527	13.368	939.235	710.955
138.541	13.235	938.521	709.782
139.556	13.159	938.255	709.191
140.570	13.269	937.107	708.735
141.585	13.304	936.211	708.145
142.600	13.299	936.209	708.058
143.614	13.420	935.210	707.755
144.629	13.342	934.427	706.769
145.643	13.413	933.710	706.468
146.658	13.371	933.016	705.700
147.673	13.298	932.336	704.812
148.687	13.392	931.429	704.463
149.702	13.312	930.719	703.526
150.716	13.289	929.848	702.706
151.731	13.407	928.682	702.265
152.746	13.303	928.057	701.289
153.760	13.388	927.346	701.051
154.775	13.323	926.440	700.027
155.789	13.503	925.334	699.889
156.804	13.467	924.931	699.372
157.819	13.518	924.009	698.828
158.833	13.392	923.722	698.017
159.848	13.522	923.103	698.034
160.862	13.649	922.386	697.968
161.877	13.664	920.880	696.827
162.892	13.559	920.488	696.030
163.906	13.319	919.978	694.572
164.921	13.227	918.958	693.357
165.935	13.431	917.966	693.404
166.950	13.491	916.984	692.848
167.964	13.541	915.895	692.173
168.979	13.527	915.297	691.602
169.994	13.499	914.405	690.752
171.008	13.494	913.463	689.955
172.023	13.465	912.845	689.307
173.037	13.695	911.473	689.167
174.052	13.551	911.258	688.345
175.067	13.496	910.832	687.733
176.081	13.501	910.185	687.207
177.096	13.455	909.395	686.360
178.110	13.480	908.124	685.442
179.125	13.471	907.683	685.009
180.140	13.692	906.516	684.981
181.154	13.614	906.111	684.293
182.169	13.609	905.317	683.612
183.183	13.565	905.071	683.185
184.198	13.661	904.339	682.969
185.213	13.747	903.583	682.690
186.227	13.756	902.922	682.168
187.242	13.709	902.379	681.506
188.256	13.770	901.839	681.287
189.271	13.790	900.744	680.481
190.286	13.854	899.960	680.089
191.300	13.792	899.256	679.244
192.315	13.537	898.924	677.889
193.329	13.461	897.976	676.806
194.344	13.627	897.424	677.005
195.359	13.562	897.043	676.395
196.373	13.618	896.536	676.181
197.388	13.720	896.016	676.146
198.402	13.743	895.851	676.054
199.417	13.917	895.218	676.224
200.432	13.942	894.887	676.017
201.446	13.994	894.214	675.658
202.461	14.102	893.784	675.715
203.475	14.175	892.904	675.286
204.490	14.128	892.208	674.509
205.504	13.987	891.604	673.419
206.519	13.908	890.835	672.461
207.534	13.873	890.001	671.629
208.548	14.052	889.017	671.552
209.563	13.987	888.979	671.201
210.577	13.897	887.965	670.013
211.592	13.997	887.810	670.240
212.607	14.001	887.229	669.759
213.621	14.115	886.589	669.674
214.636	14.119	885.827	669.057
215.650	14.168	884.904	668.496
216.665	14.094	884.543	667.869
217.680	14.201	883.826	667.697
218.694	14.230	883.449	667.468
219.709	14.118	882.867	666.521
220.723	14.236	882.488	666.650
221.738	14.182	881.877	665.910
222.753	14.137	880.965	664.983
223.767	14.237	880.009	664.604
224.782	14.279	879.120	664.042
225.796	14.254	878.841	663.671
226.811	14.342	877.889	663.246
227.826	14.214	877.342	662.262
228.840	14.259	876.904	662.051
229.855	14.265	876.282	661.547
230.869	14.200	875.608	660.723
231.884	14.339	874.511	660.390
232.899	14.208	874.149	659.535
233.913	14.393	872.985	659.333
234.928	14.197	872.808	658.365
235.942	14.227	871.876	657.721
236.957	14.211	871.397	657.240
237.972	14.294	870.635	656.935
238.986	14.392	869.777	656.614
240.001	14.330	869.675	656.235
241.015	14.275	868.877	655.360
242.030	14.316	868.118	654.890
243.045	14.284	867.808	654.471
244.059	14.358	866.948	654.055
245.074	14.295	866.288	653.253
246.088	14.394	866.148	653.477
247.103	14.378	865.380	652.779
248.117	14.598	864.497	652.917
249.132	14.592	864.000	652.460
250.147	14.586	863.457	651.967
251.161	14.681	862.948	651.898
252.176	14.658	862.256	651.226
253.190	14.754	861.915	651.287
254.205	14.918	860.753	650.987
255.220	14.877	860.509	650.585
256.234	14.853	859.569	649.725
257.249	14.901	858.953	649.388
258.263	14.869	858.505	648.867
259.278	14.902	857.941	648.512
260.293	14.913	857.518	648.177
261.307	14.981	856.851	647.878
262.322	15.010	856.108	647.373
263.336	14.967	855.590	646.758
264.351	15.056	854.921	646.538
265.366	15.065	854.433	646.146
266.380	14.999	853.858	645.398
267.395	15.028	853.282	645.018
268.409	14.986	852.249	644.019
269.424	15.123	851.338	643.802
270.439	15.052	850.919	643.155
271.453	15.230	849.866	642.986
272.468	15.077	848.961	641.656
273.482	15.040	848.964	641.461
274.497	15.033	848.364	640.924
275.512	14.928	848.246	640.376
276.526	15.111	847.072	640.134
277.541	14.929	846.541	638.978
278.555	14.985	846.261	638.923
279.570	15.132	845.444	638.812
280.585	15.189	844.535	638.287
281.599	15.290	843.961	638.179
282.614	15.179	843.534	637.380
283.628	15.108	843.223	636.818
284.643	15.246	842.371	636.642
285.657	15.163	841.943	635.949
286.672	15.347	841.332	636.125
287.687	15.278	840.841	635.436
288.701	15.248	840.484	634.999
289.716	15.356	840.147	635.097
290.730	15.208	839.638	634.096
291.745	15.306	838.706	633.704
292.760	15.264	838.039	632.989
293.774	15.343	837.572	632.878
294.789	15.410	836.961	632.611
295.803	15.263	836.799	631.879
296.818	15.291	835.700	631.097
297.833	15.433	834.829	630.919
298.847	15.291	834.421	630.023
299.862	15.390	833.948	629.981
300.876	15.458	833.020	629.477
301.891	15.486	832.382	629.045
302.906	15.552	831.602	628.648
303.920	15.456	831.335	628.031
304.935	15.575	830.697	627.939
305.949	15.587	830.208	627.558
306.964	15.669	829.221	627.062
307.979	15.619	828.745	626.459
308.993	15.676	828.718	626.596
310.008	15.573	827.845	625.498
311.022	15.703	827.209	625.446
312.037	15.805	826.659	625.355
313.052	15.658	826.651	624.747
314.066	15.523	825.910	623.631
315.081	15.598	825.218	623.328
316.095	15.646	824.532	622.935
317.110	15.539	824.032	622.104
318.125	15.659	823.502	622.096
319.139	15.671	822.774	621.533
320.154	15.767	822.113	621.333
321.168	15.558	822.157	620.540
322.183	15.725	821.289	620.445
323.197	15.759	820.791	620.139
324.212	15.864	820.158	619.992
325.227	15.758	819.643	619.158
326.241	15.676	819.550	618.732
327.256	15.659	818.869	618.103
328.270	15.822	818.256	618.183
329.285	15.676	818.111	617.483
330.300	15.821	816.983	617.108
331.314	15.795	816.520	616.607
332.329	15.797	815.781	616.003
333.343	15.758	815.409	615.524
334.358	15.846	814.591	615.173
335.373	15.922	814.385	615.244
336.387	16.022	813.555	614.926
337.402	15.907	813.653	614.525
338.416	15.872	812.741	613.656
339.431	15.987	812.148	613.573
340.446	16.024	811.813	613.399
341.460	15.940	811.225	612.596
342.475	16.187	810.275	612.719
343.489	16.150	810.010	612.332
344.504	16.206	809.288	611.937
345.519	16.209	808.805	611.526
346.533	16.227	808.405	611.234
347.548	16.111	808.210	610.612
348.562	16.238	807.539	610.512
349.577	16.065	807.021	609.441
350.592	16.126	806.453	609.178
351.606	16.118	805.879	608.663
352.621	16.161	805.604	608.556
353.635	16.195	804.786	608.008
354.650	16.175	805.012	608.051
355.665	16.214	804.536	607.779
356.679	16.323	803.665	607.457
357.694	16.277	803.257	606.933
358.708	16.231	802.796	606.362
359.723	16.246	802.193	605.909
360.738	16.196	802.056	605.570
361.752	16.156	801.672	605.085
362.767	16.215	801.161	604.858
363.781	16.392	800.339	604.818
364.796	16.390	800.023	604.516
365.810	16.415	799.719	604.325
366.825	16.438	799.454	604.151
367.840	16.540	799.132	604.220
368.854	16.607	798.401	603.853
369.869	16.653	797.681	603.418
370.883	16.575	797.425	602.894
371.898	16.585	796.884	602.467
372.913	16.598	796.328	602.038
373.927	16.583	795.677	601.441
374.942	16.531	795.523	601.086
375.956	16.551	794.559	600.376
376.971	16.648	794.093	600.313
377.986	16.705	793.711	600.176
379.000	16.901	792.638	600.004
380.015	16.854	792.249	599.491
381.029	16.795	791.806	598.893
382.044	16.762	791.236	598.294
383.059	16.773	790.520	597.736
384.073	16.763	790.348	597.519
385.088	16.771	789.833	597.106
386.102	16.835	789.110	596.731
387.117	16.719	788.733	595.985
388.132	16.726	788.223	595.570
389.146	16.768	787.831	595.372
390.161	16.763	787.681	595.188
391.175	16.942	787.063	595.294
392.190	16.746	787.005	594.511
393.205	16.999	786.077	594.645
394.219	16.857	786.000	594.035
395.234	16.925	785.200	593.617
396.248	16.751	784.840	592.683
397.263	16.871	784.264	592.615
398.278	16.854	783.357	591.819
399.292	16.833	783.543	591.834
400.307	16.800	783.033	591.279
401.321	17.025	782.084	591.295
402.336	16.885	782.459	591.039
403.350	16.877	782.122	590.702
404.365	16.878	781.517	590.197
405.380	16.964	781.180	590.190
406.394	17.087	780.375	589.957
407.409	17.085	780.060	589.661
408.423	17.068	779.651	589.240
409.438	17.099	779.100	588.877
410.453	17.156	779.033	588.974
411.467	17.267	778.391	588.821
412.482	17.274	778.039	588.526
413.496	17.181	777.586	587.810
414.511	17.211	776.965	587.391
415.526	17.181	776.640	586.992
416.540	17.130	776.564	586.706
417.555	17.144	775.863	586.172
418.569	17.335	775.401	586.431
419.584	17.422	774.937	586.328
420.599	17.399	774.430	585.811
421.613	108.232	1287.960	1463.164
422.628	92.414	1362.762	1463.261
