DTS Sentinel unit serial number:	SN413079Multiplexer serial number:	ORYXHardware model number:	OX4-SRSoftware version number:	ORYX F/W v4.00 Oryx Data Collector v3.7.2.0data status	okinstallation	princeton_trtdifferential loss correction	single-endedforward channel	channel 3reverse channel	N/Adate	2019/09/12time	19:45:04forward acquisition time	15.00reverse acquisition time	0.00gamma	496.2192k internal	0.2322k external	0.2322temperature offset calibration	1.0113default loss term (dB/km)	0.3790temperature slope calibration	1.0000multiplexer offset coefficient	1.0000multiplexer slope coefficient	1.0000fibre end	0.00T internal ref (°C)	32.00T ext. ref 1 (°C)	3.37T ext. ref 2 (°C)	26.63length (m)	temperature (°C)	Stokes	anti-Stokes-747.200	-56.712	-0.283	0.126
-746.185	262.453	0.244	0.428
-745.171	-79.739	1.029	0.350
-744.156	24.394	-0.194	-0.162
-743.142	-200.000	0.014	-0.923
-742.127	230.775	-0.201	-0.332
-741.112	-200.000	-0.095	0.531
-740.098	71.198	0.383	-0.401
-739.083	-200.000	0.035	0.306
-738.069	-200.000	-0.010	0.058
-737.054	126.016	0.100	0.128
-736.039	-200.000	0.008	0.126
-735.025	800.000	-0.087	0.346
-734.010	169.246	-0.233	0.336
-732.996	-105.984	0.150	-0.034
-731.981	-108.093	-0.220	-0.048
-730.966	-75.112	-0.311	0.112
-729.952	-200.000	0.083	0.458
-728.937	43.805	-0.196	0.181
-727.923	800.000	0.285	0.812
-726.908	-95.215	-0.383	-0.104
-725.894	-200.000	-0.030	0.526
-724.879	800.000	0.159	0.688
-723.864	-200.000	-0.109	0.753
-722.850	-200.000	-0.085	-0.588
-721.835	-200.000	-0.074	0.950
-720.821	13.225	0.687	-0.538
-719.806	117.096	-0.819	1.015
-718.791	349.592	-0.381	0.759
-717.777	-157.076	0.674	0.041
-716.762	3.584	0.852	0.627
-715.748	82.365	-0.017	0.018
-714.733	106.101	-0.194	-0.232
-713.718	477.380	-0.204	0.465
-712.704	-44.003	-1.056	0.536
-711.689	-98.033	-0.800	0.208
-710.675	-42.058	-0.308	0.159
-709.660	-140.853	-0.632	-0.066
-708.645	4.522	0.521	0.386
-707.631	92.753	0.362	-0.412
-706.616	800.000	-0.038	-0.123
-705.602	61.076	-0.212	-0.212
-704.587	-91.467	0.278	-0.080
-703.572	-57.663	-0.112	-0.049
-702.558	-173.141	0.146	-0.005
-701.543	187.051	-0.487	0.732
-700.529	43.534	-0.750	0.692
-699.514	3.275	0.131	-0.096
-698.499	800.000	0.103	0.449
-697.485	403.480	-0.095	-0.201
-696.470	-200.000	0.021	0.463
-695.456	-200.000	0.051	0.326
-694.441	-90.330	0.581	0.170
-693.426	-16.100	-0.427	-0.274
-692.412	5.201	-0.201	0.149
-691.397	127.487	0.236	0.303
-690.383	800.000	-0.064	-0.211
-689.368	-77.172	0.166	0.058
-688.354	67.492	0.805	-0.828
-687.339	-55.630	0.620	-0.280
-686.324	-88.849	-0.427	0.128
-685.310	-19.301	-0.777	0.486
-684.295	84.880	-0.313	-0.346
-683.281	165.324	0.186	-0.265
-682.266	-30.159	-1.247	0.715
-681.251	120.486	-0.512	0.640
-680.237	-62.329	0.691	0.290
-679.222	692.899	0.133	-0.353
-678.208	-8.312	-0.351	-0.238
-677.193	272.114	0.183	0.326
-676.178	-200.000	0.117	-0.527
-675.164	800.000	-0.119	-0.366
-674.149	197.803	0.194	-0.298
-673.135	800.000	-0.058	0.207
-672.120	800.000	0.056	-0.197
-671.105	-88.092	0.695	-0.210
-670.091	-70.526	-0.458	-0.175
-669.076	8.539	0.487	0.369
-668.062	-64.017	-0.768	-0.316
-667.047	81.964	0.294	0.321
-666.032	-200.000	0.045	0.250
-665.018	800.000	-0.109	0.425
-664.003	70.701	0.061	-0.063
-662.989	800.000	0.144	0.535
-661.974	-200.000	-0.078	0.556
-660.959	152.283	-0.310	-0.427
-659.945	-200.000	0.122	0.597
-658.930	-166.506	0.351	-0.015
-657.916	800.000	0.201	-0.760
-656.901	800.000	0.154	-0.585
-655.886	54.760	-0.672	0.653
-654.872	-200.000	-0.039	0.357
-653.857	-78.605	-0.335	0.115
-652.843	-180.282	-0.872	0.018
-651.828	-158.486	0.164	0.010
-650.814	384.245	0.219	-0.455
-649.799	-170.070	-0.944	-0.034
-648.784	-27.756	-0.115	0.067
-647.770	161.459	0.771	-1.086
-646.755	-200.000	-0.022	0.685
-645.741	236.700	0.361	0.602
-644.726	507.921	0.357	0.834
-643.711	800.000	0.050	0.175
-642.697	-129.848	-0.287	0.040
-641.682	-11.167	0.452	0.300
-640.668	3.959	-0.210	0.154
-639.653	110.502	-0.252	-0.305
-638.638	-145.780	1.064	0.095
-637.624	-100.730	-0.871	-0.216
-636.609	-200.000	-0.133	-0.593
-635.595	-50.136	-0.109	0.052
-634.580	-115.214	-0.214	-0.041
-633.565	24.286	-0.699	0.581
-632.551	800.000	0.059	-0.194
-631.536	-198.466	-0.981	0.006
-630.522	-54.906	-0.260	-0.118
-629.507	-200.000	-0.082	0.367
-628.492	26.604	-0.236	0.199
-627.478	-200.000	0.028	0.133
-626.463	-79.724	-0.876	0.297
-625.449	800.000	-0.033	0.094
-624.434	-200.000	0.096	-0.505
-623.419	-103.169	0.248	-0.059
-622.405	800.000	-0.185	-0.662
-621.390	77.143	0.115	-0.123
-620.376	-97.030	-0.826	-0.217
-619.361	800.000	-0.207	-0.859
-618.346	482.066	-0.160	0.366
-617.332	-88.720	-0.366	-0.109
-616.317	-68.354	0.646	0.252
-615.303	-42.486	-0.460	0.236
-614.288	-37.807	0.126	0.067
-613.273	-200.000	0.111	0.509
-612.259	-200.000	0.008	0.731
-611.244	800.000	0.169	-0.602
-610.230	157.741	-0.181	0.251
-609.215	-200.000	0.069	-0.454
-608.201	-100.810	0.661	0.164
-607.186	-200.000	0.036	-0.392
-606.171	-200.000	-0.010	0.674
-605.157	425.965	-0.447	0.969
-604.142	91.636	0.822	-0.929
-603.128	283.307	-0.067	-0.121
-602.113	657.161	0.407	-1.052
-601.098	161.758	-0.272	-0.383
-600.084	-200.000	-0.176	1.134
-599.069	-42.124	0.667	-0.343
-598.055	-200.000	-0.022	-0.115
-597.040	-48.511	-0.473	-0.229
-596.025	-120.993	-0.638	-0.108
-595.011	-134.361	0.351	0.043
-593.996	106.725	-0.254	-0.303
-592.982	-3.969	-0.427	-0.297
-591.967	800.000	-0.212	0.745
-590.952	133.416	-0.289	-0.375
-589.938	24.317	-0.240	-0.199
-588.923	-2.485	-0.250	0.176
-587.909	800.000	0.062	-0.177
-586.894	138.366	0.491	-0.646
-585.879	-200.000	-0.105	1.111
-584.865	6.358	0.595	-0.444
-583.850	214.967	0.119	0.189
-582.836	-49.087	0.593	-0.285
-581.821	-150.692	-0.726	-0.056
-580.806	-82.239	-0.651	0.213
-579.792	800.000	0.041	0.129
-578.777	-39.705	0.128	-0.067
-577.763	678.567	0.182	-0.476
-576.748	31.039	-0.291	0.250
-575.733	365.984	-0.158	-0.319
-574.719	-16.390	0.558	0.355
-573.704	800.000	0.245	0.760
-572.690	-6.245	0.271	0.186
-571.675	-5.337	0.555	-0.383
-570.661	523.408	0.064	-0.152
-569.646	-8.709	0.813	-0.547
-568.631	-200.000	-0.317	-0.001
-567.617	198.864	0.034	-0.052
-566.602	-200.000	0.013	-0.380
-565.588	76.271	-0.045	0.048
-564.573	61.423	0.573	0.572
-563.558	200.825	0.148	0.229
-562.544	-83.288	-1.419	-0.457
-561.529	-139.492	0.668	0.072
-560.515	-125.087	0.383	-0.059
-559.500	-30.874	0.366	-0.207
-558.485	-35.150	0.122	-0.067
-557.471	230.661	-0.210	-0.345
-556.456	117.497	-0.229	0.283
-555.442	217.368	0.361	-0.576
-554.427	19.545	0.176	0.142
-553.412	456.908	0.122	0.272
-552.398	106.926	0.447	0.532
-551.383	-153.981	-1.015	-0.069
-550.369	-55.808	0.409	-0.183
-549.354	-200.000	-0.146	-0.985
-548.339	18.166	-0.487	-0.389
-547.325	-75.687	-0.746	-0.265
-546.310	156.458	0.399	0.552
-545.296	321.122	0.387	-0.737
-544.281	23.273	-0.344	-0.283
-543.266	-170.520	-0.530	0.019
-542.252	-200.000	-0.030	-0.583
-541.237	42.951	-0.495	-0.452
-540.223	332.694	0.122	-0.237
-539.208	-102.514	-0.672	0.161
-538.193	-148.113	0.599	0.050
-537.179	-56.957	0.753	-0.333
-536.164	387.227	0.228	0.472
-535.150	-113.445	-0.405	0.080
-534.135	-200.000	-0.049	-0.450
-533.121	318.225	-0.140	0.266
-532.106	363.987	0.298	0.600
-531.091	-200.000	0.240	1.556
-530.077	-172.013	0.252	0.008
-529.062	-200.000	-0.025	0.212
-528.048	187.140	-0.084	-0.126
-527.033	20.043	0.453	0.366
-526.018	-30.271	0.637	0.362
-525.004	-111.252	-0.938	0.192
-523.989	-175.424	-0.608	0.017
-522.975	686.459	0.140	-0.366
-521.960	-24.080	0.410	0.245
-520.945	-110.281	-0.581	-0.121
-519.931	-200.000	0.042	0.404
-518.916	-58.527	0.365	0.159
-517.902	-200.000	0.083	-0.625
-516.887	344.747	-0.435	-0.854
-515.872	52.411	0.230	-0.220
-514.858	-18.320	-0.762	-0.477
-513.843	800.000	0.198	-0.635
-512.829	635.378	0.189	0.480
-511.814	265.722	-0.267	0.466
-510.799	-62.540	-0.364	0.152
-509.785	24.694	-0.635	0.526
-508.770	800.000	-0.202	0.609
-507.756	78.287	0.292	-0.312
-506.741	50.791	-0.263	-0.250
-505.726	-126.172	0.283	0.042
-504.712	166.661	0.291	0.413
-503.697	-126.294	0.759	0.113
-502.683	45.907	0.145	-0.134
-501.668	-200.000	-0.135	0.591
-500.653	586.766	-0.549	1.351
-499.639	115.039	-0.317	-0.387
-498.624	298.232	-0.409	-0.753
-497.610	-28.076	0.614	-0.355
-496.595	43.152	0.252	-0.230
-495.581	-186.615	0.523	0.007
-494.566	-200.000	-0.012	0.286
-493.551	147.998	0.252	-0.340
-492.537	-134.503	0.207	0.025
-491.522	-200.000	0.045	-0.250
-490.508	-185.096	0.183	-0.003
-489.493	-60.425	0.531	0.226
-488.478	800.000	0.038	0.163
-487.464	-73.567	0.277	0.101
-486.449	-200.000	-0.050	-0.951
-485.435	30.538	0.409	-0.350
-484.420	38.945	-0.130	0.117
-483.405	-48.893	-0.946	-0.454
-482.391	295.566	-0.120	-0.220
-481.376	-109.300	0.243	0.052
-480.362	-200.000	0.016	0.226
-479.347	800.000	-0.143	-0.519
-478.332	800.000	-0.192	-0.588
-477.318	76.883	0.272	-0.289
-476.303	65.488	-0.498	0.504
-475.289	167.164	0.095	0.135
-474.274	-164.031	-0.791	-0.037
-473.259	-200.000	-0.181	-0.925
-472.245	97.544	-0.284	0.326
-471.230	-71.927	0.076	-0.028
-470.216	800.000	0.105	-0.341
-469.201	62.112	-0.668	-0.666
-468.186	493.437	0.038	0.087
-467.172	-28.697	0.149	0.086
-466.157	117.531	-0.708	0.871
-465.143	-81.040	-0.529	-0.175
-464.128	-166.313	0.928	-0.039
-463.113	360.970	-0.244	-0.489
-462.099	162.694	-0.402	-0.564
-461.084	800.000	-0.250	0.812
-460.070	-26.499	-0.520	0.304
-459.055	15.994	0.448	-0.352
-458.040	-113.356	0.395	-0.077
-457.026	-39.801	-0.459	0.240
-456.011	-156.418	1.331	-0.083
-454.997	-53.934	0.405	-0.184
-453.982	-200.000	-0.260	1.308
-452.968	-200.000	0.518	0.002
-451.953	93.715	-0.927	-1.049
-450.938	-180.258	0.369	-0.008
-449.924	-200.000	0.048	0.375
-448.909	800.000	0.072	-0.293
-447.895	-101.259	-0.189	-0.046
-446.880	-70.352	0.492	0.186
-445.865	0.223	0.761	0.542
-444.851	93.105	-0.634	0.715
-443.836	-150.776	-1.150	-0.087
-442.822	-84.859	-0.876	-0.275
-441.807	20.031	0.547	0.441
-440.792	16.068	-0.678	-0.534
-439.778	-200.000	0.086	-0.633
-438.763	702.641	-0.131	-0.343
-437.749	45.782	-0.370	-0.341
-436.734	4.153	0.238	-0.174
-435.719	-45.400	0.351	0.174
-434.705	52.301	-0.251	0.239
-433.690	92.421	0.113	-0.128
-432.676	-59.835	0.216	-0.092
-431.661	189.382	0.542	-0.810
-430.646	-163.706	0.309	0.015
-429.632	-128.555	-0.415	0.059
-428.617	-200.000	0.129	0.647
-427.603	-103.068	0.798	0.189
-426.588	-49.723	-0.275	0.130
-425.573	800.000	0.073	-0.262
-424.559	800.000	-0.063	0.240
-423.544	-200.000	-0.014	0.282
-422.530	179.820	-0.226	-0.331
-421.515	89.477	1.255	-1.396
-420.500	93.408	0.318	-0.359
-419.486	95.578	-0.268	-0.305
-418.471	-80.439	0.561	-0.187
-417.457	-117.946	-0.149	-0.027
-416.442	-170.326	0.433	-0.015
-415.428	20.918	-0.391	0.316
-414.413	-27.147	0.342	0.199
-413.398	-200.000	-0.124	0.671
-412.384	389.327	-0.118	-0.245
-411.369	64.216	0.196	-0.197
-410.355	-42.745	0.570	-0.289
-409.340	-34.933	-0.091	0.050
-408.325	-118.760	0.849	0.149
-407.311	-117.938	0.442	0.079
-406.296	61.383	0.768	-0.761
-405.282	31.256	-0.371	-0.317
-404.267	800.000	0.296	0.909
-403.252	-200.000	0.059	0.371
-402.238	-143.234	-0.384	0.037
-401.223	373.776	0.246	-0.499
-400.209	239.391	0.471	-0.781
-399.194	428.404	0.212	0.456
-398.179	134.354	-0.190	0.246
-397.165	246.314	0.253	0.425
-396.150	-63.152	-1.003	-0.412
-395.136	39.725	-0.345	0.309
-394.121	26.237	0.486	-0.405
-393.106	-16.509	-0.169	-0.106
-392.092	290.623	0.540	-0.978
-391.077	-113.092	-0.586	0.115
-390.063	634.424	0.109	0.275
-389.048	179.668	0.398	-0.581
-388.033	-200.000	-0.029	0.598
-387.019	-1.355	0.144	0.101
-386.004	-200.000	-0.100	0.490
-384.990	-120.417	-0.743	0.126
-383.975	63.080	-0.590	0.589
-382.960	-43.139	0.755	-0.381
-381.946	-191.558	0.842	-0.008
-380.931	-34.238	0.377	-0.206
-379.917	212.774	-0.113	0.178
-378.902	92.110	-0.047	0.053
-377.888	-92.789	-0.490	-0.137
-376.873	139.477	-0.487	0.639
-375.858	123.568	-0.158	-0.198
-374.844	-125.532	0.924	-0.140
-373.829	-126.412	0.846	-0.125
-372.815	301.868	0.556	1.023
-371.800	-200.000	0.304	1.517
-370.785	-54.665	-0.547	-0.246
-369.771	-134.083	0.477	0.059
-368.756	-79.258	0.491	0.166
-367.742	-67.772	0.377	-0.147
-366.727	41.729	-0.228	0.206
-365.712	-200.000	-0.023	0.720
-364.698	531.701	0.239	-0.563
-363.683	575.037	0.248	0.603
-362.669	-101.004	1.173	0.287
-361.654	-0.113	0.285	-0.202
-360.639	-101.343	-0.625	-0.152
-359.625	-132.998	0.629	-0.080
-358.610	-200.000	0.029	0.958
-357.596	-29.604	-0.704	0.400
-356.581	-7.318	0.711	-0.479
-355.566	91.061	-0.451	-0.503
-354.552	208.536	0.181	0.281
-353.537	-40.565	-0.200	-0.103
-352.523	-200.000	0.025	0.220
-351.508	499.529	-0.063	0.144
-350.493	238.127	0.379	0.626
-349.479	-143.845	-0.439	-0.041
-348.464	354.753	0.206	-0.407
-347.450	800.000	0.087	0.322
-346.435	800.000	-0.096	0.341
-345.420	800.000	0.194	0.840
-344.406	55.489	0.471	-0.453
-343.391	401.458	0.334	-0.698
-342.377	447.355	0.228	0.499
-341.362	261.709	-0.236	-0.407
-340.348	-170.012	0.335	-0.012
-339.333	-200.000	-0.058	0.355
-338.318	31.114	-0.633	0.540
-337.304	133.925	0.318	0.409
-336.289	15.074	0.497	0.387
-335.275	-92.582	-0.535	-0.149
-334.260	-128.440	0.109	0.015
-333.245	56.371	-0.621	-0.600
-332.231	-185.106	0.403	0.006
-331.216	200.967	-0.086	-0.131
-330.202	657.209	-0.193	0.493
-329.187	-107.927	0.361	0.078
-328.172	-80.163	0.553	0.184
-327.158	52.147	-0.862	0.817
-326.143	-71.011	-0.762	0.285
-325.129	-200.000	-0.045	-0.697
-324.114	-200.000	-0.018	-0.552
-323.099	-157.672	0.882	-0.052
-322.085	-119.347	0.351	0.061
-321.070	-80.230	-0.454	0.151
-320.056	638.358	-0.386	-0.975
-319.041	-200.000	0.023	0.621
-318.026	-134.402	-0.282	-0.034
-317.012	294.675	-0.455	-0.826
-315.997	47.358	0.819	-0.758
-314.983	800.000	0.152	0.477
-313.968	177.424	-0.478	0.692
-312.953	-200.000	0.044	-0.622
-311.939	-135.515	1.004	0.119
-310.924	200.876	0.542	0.829
-309.910	-46.484	-0.544	-0.265
-308.895	-200.000	-0.011	0.051
-307.880	42.386	-0.231	0.209
-306.866	-171.709	-0.857	-0.028
-305.851	-200.000	-0.013	-0.253
-304.837	-136.265	-0.160	-0.019
-303.822	-24.501	-0.610	-0.361
-302.807	157.114	-0.221	-0.303
-301.793	112.679	0.327	0.394
-300.778	722.091	0.198	0.522
-299.764	-112.779	-0.961	-0.189
-298.749	516.614	0.165	-0.383
-297.735	-25.175	-0.489	-0.288
-296.720	-200.000	0.024	0.145
-295.705	-16.747	0.803	0.504
-294.691	87.190	-0.561	-0.615
-293.676	-12.823	-0.973	-0.629
-292.662	-24.439	-0.239	0.142
-291.647	-200.000	0.029	-0.417
-290.632	44.797	-0.163	0.149
-289.618	-200.000	0.048	0.213
-288.603	800.000	-0.168	0.584
-287.589	-68.661	-0.405	0.156
-286.574	-102.797	0.455	-0.107
-285.559	-12.036	0.306	-0.199
-284.545	409.831	-0.114	-0.240
-283.530	15.839	-0.645	-0.504
-282.516	800.000	0.147	0.539
-281.501	-200.000	-0.016	-0.284
-280.486	800.000	0.319	1.065
-279.472	-200.000	-0.063	0.278
-278.457	316.304	-0.312	0.584
-277.443	-65.512	-0.196	0.078
-276.428	67.382	-0.209	0.212
-275.413	96.619	0.512	0.581
-274.399	-5.633	-0.384	-0.261
-273.384	412.305	0.166	-0.349
-272.370	-200.000	-0.193	0.915
-271.355	236.538	0.335	0.550
-270.340	-59.939	0.723	-0.306
-269.326	800.000	0.288	-0.806
-268.311	104.483	0.345	-0.402
-267.297	800.000	-0.024	-0.074
-266.282	88.384	-0.295	-0.324
-265.267	-112.250	1.176	0.234
-264.253	65.610	-0.136	0.137
-263.238	-48.189	-0.411	-0.197
-262.224	16.842	-0.511	-0.401
-261.209	-12.767	0.837	0.541
-260.195	170.055	-0.164	0.232
-259.180	17.902	0.185	-0.146
-258.165	-179.102	0.263	-0.006
-257.151	17.080	0.941	0.739
-256.136	-200.000	-0.014	-0.838
-255.122	-67.815	-0.189	-0.073
-254.107	-100.245	-0.362	-0.089
-253.092	-200.000	-0.060	-0.907
-252.078	-10.241	-0.180	0.118
-251.063	-18.928	0.433	-0.267
-250.049	-200.000	0.012	0.150
-249.034	-67.780	0.121	-0.047
-248.019	800.000	-0.335	-1.371
-247.005	40.960	-0.390	-0.349
-245.990	800.000	0.096	-0.274
-244.976	11.341	0.672	-0.510
-243.961	-200.000	-0.031	-0.796
-242.946	-102.697	-0.614	-0.145
-241.932	-99.801	-0.317	0.079
-240.917	800.000	0.364	-1.306
-239.903	2.288	0.484	0.347
-238.888	348.547	-0.299	0.585
-237.873	487.244	0.234	0.529
-236.859	800.000	-0.160	-0.684
-235.844	-108.860	0.490	0.104
-234.830	62.044	-0.342	0.338
-233.815	-58.141	-0.684	0.295
-232.800	-200.000	0.101	-0.522
-231.786	129.621	-0.243	-0.308
-230.771	800.000	-0.227	0.624
-229.757	800.000	-0.019	0.064
-228.742	-40.504	1.012	-0.520
-227.727	22.365	-0.161	0.130
-226.713	-200.000	0.008	0.545
-225.698	-15.740	0.566	0.357
-224.684	-200.000	-0.022	0.805
-223.669	-200.000	0.141	-0.727
-222.655	16.114	0.612	-0.478
-221.640	-64.572	-0.352	-0.141
-220.625	-112.779	0.388	0.076
-219.611	-2.415	-0.458	0.318
-218.596	0.760	-0.282	0.200
-217.582	-26.237	0.675	0.392
-216.567	800.000	0.146	-0.478
-215.552	-44.153	-0.257	-0.128
-214.538	-138.683	0.634	0.069
-213.523	800.000	0.284	0.904
-212.509	-41.283	-0.352	0.180
-211.494	7.773	-0.524	-0.388
-210.479	41.613	-0.157	-0.140
-209.465	800.000	-0.201	-0.785
-208.450	-97.389	0.435	-0.112
-207.436	-31.494	0.474	-0.264
-206.421	134.486	0.283	0.363
-205.406	-200.000	0.011	1.023
-204.392	-123.523	-0.663	0.104
-203.377	-200.000	0.020	0.587
-202.363	-7.715	0.272	-0.182
-201.348	800.000	0.059	0.174
-200.333	-200.000	0.138	0.913
-199.319	-23.229	-0.447	0.266
-198.304	29.842	-0.187	-0.157
-197.290	-158.845	-0.559	0.032
-196.275	556.639	0.165	-0.392
-195.260	-112.013	0.366	0.073
-194.246	-146.733	-0.869	-0.074
-193.231	-200.000	0.077	0.743
-192.217	-200.000	-0.011	-0.698
-191.202	-100.206	-0.164	-0.040
-190.187	5.290	-0.482	0.351
-189.173	16.228	-0.353	-0.275
-188.158	-200.000	0.009	0.113
-187.144	-178.296	-0.286	-0.007
-186.129	-51.030	0.244	0.113
-185.114	-119.624	-0.501	0.086
-184.100	-86.954	0.572	0.172
-183.085	181.452	0.298	-0.433
-182.071	-69.101	-1.095	-0.417
-181.056	652.858	0.090	0.229
-180.042	-42.888	-0.346	-0.174
-179.027	-200.000	-0.033	-0.170
-178.012	167.690	-0.062	-0.086
-176.998	-166.729	0.456	0.019
-175.983	-116.402	-0.314	-0.057
-174.969	-66.808	-0.152	0.059
-173.954	-52.978	-0.461	-0.210
-172.939	96.314	0.518	0.585
-171.925	151.805	-0.056	0.076
-170.910	-68.002	0.253	-0.098
-169.896	-200.000	-0.037	0.339
-168.881	-200.000	0.102	-0.730
-167.866	-200.000	0.140	0.867
-166.852	118.740	-0.323	0.394
-165.837	-173.914	-0.446	-0.013
-164.823	-177.881	0.383	-0.009
-163.808	-42.085	0.089	0.045
-162.793	470.874	0.275	-0.610
-161.779	425.967	0.202	-0.429
-160.764	-55.143	-1.044	-0.464
-159.750	-62.456	0.410	0.168
-158.735	-30.601	-0.850	0.475
-157.720	-90.674	0.088	-0.025
-156.706	688.348	0.286	0.739
-155.691	158.271	-0.354	-0.484
-154.677	290.302	0.356	0.638
-153.662	-139.533	-0.691	-0.073
-152.647	136.574	-0.501	0.645
-151.633	60.134	-0.264	-0.258
-150.618	-200.000	-0.018	0.274
-149.604	623.965	-0.258	0.642
-148.589	-83.897	-0.330	0.104
-147.574	-200.000	-0.018	0.324
-146.560	-90.230	-0.217	0.062
-145.545	29.882	0.191	-0.161
-144.531	-91.963	0.822	0.230
-143.516	-47.895	0.882	0.422
-142.502	-102.846	-0.223	-0.052
-141.487	-63.318	0.251	-0.102
-140.472	282.252	0.489	-0.866
-139.458	-200.000	0.219	1.147
-138.443	-200.000	0.087	-0.601
-137.429	438.544	0.142	-0.306
-136.414	-164.486	-0.256	-0.012
-135.399	241.903	0.237	0.392
-134.385	-93.076	-0.459	0.126
-133.370	-124.614	-0.220	0.034
-132.356	145.469	0.381	0.503
-131.341	-200.000	0.120	0.559
-130.326	-43.054	0.777	-0.389
-129.312	151.726	0.462	0.621
-128.297	800.000	-0.063	0.188
-127.283	-95.143	-0.184	-0.049
-126.268	800.000	0.119	0.506
-125.253	-42.199	-0.286	0.144
-124.239	-122.651	0.331	0.053
-123.224	800.000	0.383	1.056
-122.210	-184.378	-0.976	-0.016
-121.195	241.504	0.268	0.442
-120.180	-56.310	-0.367	0.161
-119.166	-83.847	-0.513	0.161
-118.151	22.513	0.636	0.513
-117.137	8.514	-0.242	-0.179
-116.122	87.637	0.428	0.467
-115.107	-113.846	0.403	-0.077
-114.093	800.000	-0.250	0.753
-113.078	-200.000	-0.085	-0.402
-112.064	-200.000	0.040	-0.814
-111.049	-200.000	0.025	-0.250
-110.034	18.911	0.431	-0.340
-109.020	412.775	-0.086	0.181
-108.005	-158.297	-0.860	-0.049
-106.991	493.130	-0.338	0.764
-105.976	111.540	0.189	0.225
-104.962	-92.903	0.726	0.200
-103.947	61.459	-0.237	0.233
-102.932	24.233	0.285	-0.232
-101.918	201.143	0.306	0.464
-100.903	-200.000	-0.056	1.271
-99.889	128.403	-0.275	-0.345
-98.874	92.579	-0.196	-0.217
-97.859	-200.000	-0.092	0.954
-96.845	733.721	-0.014	-0.036
-95.830	-46.615	0.474	-0.229
-94.816	-35.910	0.153	-0.081
-93.801	36.143	0.228	-0.198
-92.786	-21.033	-0.430	0.259
-91.772	-15.718	-0.417	0.262
-90.757	-200.000	0.013	0.125
-89.743	234.472	-0.180	0.292
-88.728	86.709	-0.282	0.306
-87.713	132.057	0.661	0.838
-86.699	134.415	-0.487	-0.622
-85.684	-98.305	0.190	-0.048
-84.670	597.506	0.178	-0.435
-83.655	88.463	0.383	-0.418
-82.640	-200.000	-0.025	-0.129
-81.626	611.214	0.105	0.258
-80.611	-0.045	-0.362	0.254
-79.597	-138.491	-0.719	0.078
-78.582	-131.402	-0.796	0.104
-77.567	414.530	0.113	-0.237
-76.553	712.329	-0.348	0.907
-75.538	-18.389	0.237	0.146
-74.524	-49.495	0.154	-0.072
-73.509	98.647	-0.158	0.179
-72.494	-200.000	-0.081	-1.025
-71.480	-58.076	-0.454	-0.195
-70.465	60.497	-0.370	-0.361
-69.451	-200.000	-0.052	-0.390
-68.436	165.332	0.210	0.292
-67.422	-200.000	0.052	0.432
-66.407	-161.345	0.315	0.016
-65.392	-77.153	0.905	0.310
-64.378	473.909	0.186	0.413
-63.363	-200.000	-0.001	-0.280
-62.349	-36.721	0.760	0.402
-61.334	-28.165	-1.160	-0.660
-60.319	-173.269	0.881	0.026
-59.305	-200.000	0.204	-1.081
-58.290	62.460	0.942	0.925
-57.276	-200.000	0.352	2.151
-56.261	-200.000	97.236	609.382
-55.246	663.436	1359.229	3448.015
-54.232	203.377	2524.987	3840.376
-53.217	119.215	2138.845	2601.783
-52.203	43.044	1688.137	1514.152
-51.188	35.138	1504.089	1295.804
-50.173	32.732	1477.413	1256.757
-49.159	53.445	1530.382	1442.831
-48.144	53.775	1547.839	1461.469
-47.130	35.223	1506.285	1298.066
-46.115	32.330	1491.634	1265.949
-45.100	32.152	1488.327	1261.898
-44.086	32.049	1485.952	1259.141
-43.071	31.946	1484.025	1256.766
-42.057	31.946	1482.762	1255.645
-41.042	31.943	1480.619	1253.763
-40.027	31.957	1479.513	1252.870
-39.013	31.815	1478.444	1250.967
-37.998	32.101	1476.942	1251.556
-36.984	32.010	1475.647	1249.801
-35.969	32.151	1473.705	1249.048
-34.954	32.011	1472.909	1247.389
-33.940	32.057	1471.211	1246.211
-32.925	31.879	1470.391	1244.285
-31.911	31.956	1469.738	1244.189
-30.896	32.008	1467.749	1242.802
-29.881	32.124	1466.044	1242.079
-28.867	32.009	1464.924	1240.320
-27.852	32.004	1464.867	1240.189
-26.838	32.342	1461.289	1239.335
-25.823	32.146	1459.856	1236.783
-24.809	32.165	1458.309	1235.545
-23.794	32.090	1456.994	1233.890
-22.779	32.240	1455.202	1233.312
-21.765	31.883	1455.378	1231.067
-20.750	32.038	1453.742	1230.650
-19.736	31.932	1453.451	1229.660
-18.721	32.099	1451.517	1229.069
-17.706	31.896	1450.260	1226.625
-16.692	31.837	1450.466	1226.367
-15.677	31.786	1449.708	1225.341
-14.663	32.080	1448.019	1225.785
-13.648	32.120	1446.287	1224.533
-12.633	32.034	1446.212	1223.859
-11.619	31.896	1445.265	1222.109
-10.604	31.973	1444.600	1221.999
-9.590	32.026	1443.382	1221.271
-8.575	32.028	1443.039	1220.945
-7.560	31.858	1442.612	1219.427
-6.546	31.892	1441.550	1218.705
-5.531	31.757	1440.862	1217.198
-4.517	32.022	1438.171	1216.589
-3.502	32.062	1437.235	1216.010
-2.487	32.072	1436.200	1215.153
-1.473	31.966	1435.624	1213.932
-0.458	31.883	1434.272	1212.203
0.556	33.303	1424.625	1201.445
1.571	30.101	1400.195	1160.722
2.586	26.548	1342.177	1091.151
3.600	24.635	1263.451	1016.194
4.615	23.427	1216.353	971.609
5.629	20.089	1159.704	908.798
6.644	11.299	1076.055	800.216
7.659	4.472	1035.831	737.891
8.673	3.623	1030.225	729.819
9.688	3.504	1025.942	726.163
10.702	3.416	1024.437	724.618
11.717	2.939	1022.944	721.261
12.731	6.248	1026.392	739.194
13.746	15.054	1038.573	789.606
14.761	22.852	1046.719	832.656
15.775	24.503	1048.953	842.153
16.790	24.256	1048.497	840.550
17.804	23.555	1046.623	835.671
18.819	23.222	1046.599	834.010
19.834	23.358	1045.092	833.375
20.848	23.461	1043.287	832.347
21.863	23.260	1045.173	832.829
22.877	23.685	1043.031	833.043
23.892	23.388	1042.468	831.129
24.907	23.274	1041.779	829.971
25.921	23.451	1041.582	830.569
26.936	23.130	1040.048	827.770
27.950	23.178	1038.482	826.679
28.965	23.121	1036.930	825.103
29.980	22.669	1037.303	823.217
30.994	23.261	1035.949	824.827
32.009	23.051	1034.989	823.011
33.023	23.208	1034.615	823.374
34.038	23.004	1034.195	822.016
35.053	23.521	1032.563	823.049
36.067	23.297	1031.261	820.898
37.082	22.858	1031.708	819.146
38.096	23.291	1029.888	819.632
39.111	23.087	1029.649	818.425
40.126	23.228	1029.026	818.509
41.140	23.264	1027.391	817.305
42.155	23.072	1026.347	815.516
43.169	22.576	1025.349	812.362
44.184	22.493	1023.689	810.594
45.199	22.401	1023.591	810.025
46.213	22.364	1023.048	809.351
47.228	22.609	1021.500	809.181
48.242	22.918	1020.983	810.118
49.257	23.488	1020.290	812.108
50.271	23.179	1019.691	810.143
51.286	23.395	1018.448	810.071
52.301	23.571	1019.246	811.439
53.315	23.419	1017.652	809.404
54.330	23.291	1017.440	808.581
55.344	23.327	1016.048	807.568
56.359	22.929	1014.993	804.843
57.374	22.975	1013.532	803.822
58.388	23.029	1013.114	803.665
59.403	22.824	1012.980	802.556
60.417	22.482	1012.290	800.386
61.432	22.482	1010.419	798.833
62.447	22.679	1009.859	799.214
63.461	22.603	1009.595	798.589
64.476	22.291	1009.825	797.288
65.490	22.713	1007.637	797.400
66.505	22.546	1007.250	796.266
67.520	22.438	1006.280	794.943
68.534	22.962	1004.914	796.153
69.549	22.399	1005.046	793.648
70.563	22.385	1003.975	792.669
71.578	22.241	1002.648	790.904
72.593	22.204	1000.697	789.129
73.607	21.923	999.828	787.115
74.622	21.784	998.907	785.696
75.636	21.901	999.720	786.793
76.651	22.054	998.737	786.637
77.666	22.029	997.456	785.446
78.680	21.970	998.314	785.785
79.695	22.363	995.918	785.587
80.709	22.199	995.848	784.727
81.724	22.340	994.927	784.560
82.739	22.194	995.731	784.476
83.753	22.605	993.741	784.666
84.768	22.934	993.404	785.796
85.782	23.248	992.566	786.460
86.797	23.910	991.719	788.656
87.812	23.896	991.777	788.569
88.826	23.694	989.978	786.173
89.841	23.682	989.196	785.433
90.855	23.823	988.884	785.737
91.870	23.623	988.408	784.405
92.884	23.546	988.665	784.198
93.899	23.293	987.195	781.849
94.914	23.558	985.384	781.512
95.928	23.466	985.236	780.921
96.943	23.266	984.259	779.196
97.957	23.021	984.281	778.069
98.972	23.178	982.713	777.448
99.987	23.412	981.194	777.205
101.001	23.392	981.734	777.476
102.016	23.332	980.579	776.230
103.030	23.237	979.594	774.965
104.045	23.289	977.556	773.512
105.060	23.419	977.879	774.267
106.074	23.540	976.231	773.419
107.089	23.084	976.147	771.298
108.103	22.965	975.217	769.974
109.118	22.565	973.609	766.897
110.133	22.952	971.992	767.237
111.147	22.421	971.083	764.149
112.162	22.040	970.902	762.286
113.176	22.140	969.256	761.355
114.191	22.277	968.933	761.628
115.206	22.759	967.555	762.562
116.220	22.427	967.746	761.208
117.235	22.251	967.273	760.010
118.249	22.321	965.472	758.831
119.264	22.460	964.158	758.327
120.279	22.111	964.020	756.651
121.293	22.058	962.829	755.418
122.308	22.112	962.364	755.220
123.322	22.326	960.031	754.239
124.337	21.807	960.769	752.525
125.352	21.555	960.083	750.842
126.366	21.881	957.679	750.292
127.381	21.607	957.261	748.723
128.395	21.979	956.664	749.781
129.410	22.306	956.143	750.700
130.424	22.465	955.366	750.702
131.439	22.545	954.813	750.542
132.454	22.396	953.703	748.969
133.468	22.739	952.670	749.551
134.483	22.793	952.053	749.228
135.497	22.483	951.302	747.255
136.512	22.741	951.063	748.098
137.527	22.550	949.559	746.037
138.541	22.864	948.995	746.857
139.556	22.712	948.632	745.862
140.570	22.637	948.579	745.436
141.585	22.983	947.690	746.133
142.600	23.225	946.671	746.287
143.614	23.347	947.062	747.041
144.629	23.329	946.406	746.386
145.643	23.770	945.188	747.215
146.658	23.798	943.691	746.080
147.673	23.284	943.281	743.535
148.687	23.150	941.422	741.439
149.702	22.872	940.776	739.700
150.716	22.864	940.290	739.218
151.731	22.791	939.179	737.978
152.746	22.721	938.612	737.175
153.760	22.996	938.086	737.842
154.775	22.960	936.892	736.688
155.789	23.118	935.544	736.220
156.804	23.088	936.059	736.435
157.819	22.787	935.205	734.448
158.833	23.253	933.627	735.076
159.848	23.092	932.330	733.324
160.862	23.452	932.316	734.740
161.877	23.440	931.618	734.075
162.892	23.056	930.864	731.827
163.906	23.021	927.956	729.333
164.921	22.728	928.442	728.442
165.935	22.650	926.933	726.869
166.950	22.919	925.900	727.102
167.964	22.809	925.155	726.000
168.979	22.935	924.689	726.089
169.994	22.929	923.706	725.231
171.008	22.767	922.644	723.666
172.023	22.753	923.034	723.851
173.037	23.195	921.872	724.685
174.052	23.389	921.340	725.000
175.067	23.305	920.709	724.095
176.081	23.037	918.663	721.326
177.096	22.620	918.430	719.378
178.110	22.431	917.348	717.698
179.125	22.271	916.969	716.687
180.140	22.027	916.151	714.992
181.154	22.500	914.098	715.245
182.169	22.905	913.841	716.627
183.183	23.058	914.026	717.326
184.198	23.126	913.853	717.402
185.213	23.163	913.113	716.909
186.227	23.056	912.906	716.249
187.242	23.298	912.201	716.613
188.256	23.543	911.005	716.601
189.271	23.484	910.982	716.279
190.286	23.476	910.576	715.865
191.300	23.387	909.551	714.638
192.315	22.607	908.191	710.364
193.329	22.574	906.116	708.543
194.344	21.992	906.981	706.815
195.359	22.640	905.650	708.318
196.373	22.514	906.302	708.262
197.388	22.719	905.925	708.726
198.402	23.401	906.014	711.471
199.417	23.480	905.113	711.020
200.432	23.734	905.368	712.176
201.446	23.717	904.805	711.600
202.461	23.900	904.016	711.651
203.475	24.132	903.282	711.938
204.490	23.629	902.433	709.197
205.504	23.368	899.973	706.159
206.519	23.078	900.532	705.380
207.534	23.178	899.654	705.028
208.548	23.187	898.780	704.316
209.563	23.530	898.146	705.121
210.577	23.481	897.360	704.245
211.592	23.216	897.083	702.914
212.607	23.500	896.945	703.872
213.621	23.767	897.137	705.021
214.636	23.700	895.899	703.718
215.650	23.721	894.355	702.529
216.665	23.380	894.820	701.479
217.680	23.732	893.453	701.738
218.694	23.303	894.535	700.827
219.709	23.564	894.091	701.449
220.723	23.497	892.975	700.248
221.738	23.360	892.263	699.087
222.753	23.023	891.306	696.946
223.767	23.435	889.611	697.183
224.782	23.255	889.549	696.361
225.796	23.299	889.041	696.077
226.811	23.899	888.715	698.114
227.826	23.560	887.758	695.974
228.840	23.139	886.736	693.461
229.855	22.948	886.717	692.633
230.869	22.954	886.147	692.152
231.884	23.044	885.572	691.995
232.899	23.096	884.315	691.155
233.913	23.037	884.103	690.698
234.928	22.901	883.375	689.536
235.942	22.884	882.697	688.880
236.957	22.638	881.611	687.014
237.972	22.690	880.336	686.162
238.986	22.954	879.420	686.412
240.001	22.849	879.310	685.857
241.015	22.600	878.858	684.477
242.030	22.499	878.547	683.781
243.045	22.971	878.523	685.534
244.059	23.404	876.567	685.621
245.074	23.065	877.257	684.788
246.088	22.993	876.578	683.919
247.103	23.042	876.705	684.150
248.117	23.578	875.181	684.966
249.132	23.728	875.795	685.967
250.147	24.203	875.609	687.596
251.161	24.440	875.099	688.048
252.176	24.783	874.748	689.032
253.190	24.362	874.299	686.994
254.205	24.226	874.257	686.377
255.220	24.783	873.139	687.580
256.234	24.685	871.748	686.050
257.249	24.146	871.841	683.993
258.263	24.338	870.620	683.709
259.278	23.941	870.750	682.231
260.293	24.226	869.636	682.389
261.307	24.410	868.990	682.525
262.322	24.363	868.945	682.249
263.336	24.255	869.045	681.854
264.351	24.730	866.851	681.886
265.366	24.419	866.829	680.622
266.380	24.031	866.504	678.824
267.395	24.478	866.156	680.197
268.409	24.331	864.808	678.520
269.424	24.406	865.503	679.290
270.439	24.306	863.859	677.560
271.453	24.475	862.791	677.302
272.468	24.081	862.673	675.655
273.482	24.404	861.516	675.912
274.497	24.198	861.463	675.032
275.512	24.207	860.211	674.024
276.526	23.887	859.278	672.026
277.541	24.196	859.039	672.944
278.555	24.199	859.164	672.996
279.570	24.253	858.863	672.904
280.585	24.477	858.390	673.318
281.599	24.223	857.836	671.868
282.614	24.375	856.693	671.485
283.628	24.211	855.485	669.859
284.643	23.897	854.878	668.147
285.657	23.841	855.575	668.422
286.672	23.852	854.681	667.705
287.687	23.811	854.548	667.388
288.701	24.005	853.903	667.555
289.716	24.311	853.083	668.000
290.730	24.184	851.773	666.440
291.745	24.377	850.754	666.307
292.760	24.543	850.335	666.539
293.774	24.063	850.448	664.775
294.789	24.678	850.625	667.153
295.803	24.925	850.152	667.643
296.818	24.306	849.920	665.094
297.833	24.386	848.055	663.873
298.847	24.273	847.206	662.730
299.862	24.456	846.319	662.657
300.876	24.236	846.509	661.928
301.891	24.214	846.223	661.567
302.906	24.097	846.595	661.362
303.920	24.561	845.429	662.114
304.935	24.918	844.421	662.589
305.949	24.817	844.870	662.508
306.964	25.019	843.583	662.185
307.979	24.738	842.448	660.201
308.993	24.046	843.221	658.189
310.008	24.538	841.420	658.541
311.022	24.917	840.998	659.545
312.037	24.647	840.959	658.465
313.052	24.236	840.644	656.645
314.066	23.959	840.061	655.112
315.081	23.694	838.519	652.875
316.095	23.993	836.929	652.678
317.110	24.096	836.988	653.045
318.125	23.937	836.412	651.955
319.139	23.785	836.563	651.456
320.154	23.520	835.548	649.639
321.168	23.848	834.353	649.852
322.183	23.615	834.977	649.428
323.197	24.166	833.550	650.273
324.212	23.921	833.420	649.220
325.227	24.016	833.121	649.275
326.241	23.877	832.384	648.137
327.256	24.080	831.897	648.439
328.270	24.117	831.347	648.087
329.285	24.062	830.387	647.081
330.300	23.745	830.103	645.652
331.314	23.538	828.989	643.977
332.329	23.698	828.773	644.334
333.343	23.940	828.899	645.251
334.358	24.480	827.711	646.223
335.373	24.385	828.160	646.175
336.387	24.376	826.494	644.785
337.402	24.300	826.418	644.395
338.416	24.439	827.052	645.332
339.431	24.902	825.860	646.017
340.446	25.251	825.217	646.715
341.460	25.296	825.657	647.165
342.475	25.281	824.651	646.266
343.489	25.352	823.979	645.938
344.504	25.259	824.606	646.039
345.519	25.374	823.911	645.849
346.533	25.467	823.315	645.660
347.548	25.318	822.592	644.501
348.562	25.383	821.911	644.141
349.577	24.925	820.855	641.618
350.592	24.638	820.283	640.087
351.606	24.960	819.116	640.269
352.621	24.672	818.920	639.030
353.635	24.281	819.598	638.105
354.650	24.292	818.622	637.325
355.665	24.319	818.941	637.615
356.679	24.604	816.446	636.631
357.694	24.683	817.416	637.612
358.708	24.822	816.071	637.001
359.723	24.908	815.595	636.882
360.738	24.640	815.062	635.454
361.752	24.529	814.318	634.424
362.767	24.651	814.023	634.571
363.781	24.740	813.903	634.739
364.796	25.040	813.731	635.611
365.810	25.345	813.100	636.145
366.825	25.470	813.018	636.467
367.840	25.469	813.214	636.561
368.854	25.320	812.948	635.767
369.869	25.323	811.538	634.619
370.883	25.149	810.152	632.866
371.898	24.873	810.431	632.052
372.913	25.147	809.962	632.598
373.927	25.355	809.692	633.065
374.942	24.889	809.650	631.333
375.956	25.204	807.760	630.912
376.971	25.035	807.191	629.816
377.986	25.695	806.697	631.691
379.000	25.329	807.031	630.613
380.015	25.632	806.591	631.279
381.029	25.851	805.156	630.865
382.044	25.427	805.835	629.854
383.059	25.495	804.628	629.092
384.073	25.839	804.058	629.796
385.088	25.341	804.413	628.276
386.102	25.158	802.744	626.277
387.117	24.940	801.914	624.815
388.132	25.020	801.456	624.679
389.146	25.035	800.235	623.726
390.161	24.864	799.984	622.880
391.175	24.819	800.300	622.913
392.190	25.313	800.556	624.778
393.205	25.724	799.031	624.959
394.219	24.978	798.706	622.060
395.234	24.789	797.607	620.496
396.248	24.679	796.625	619.296
397.263	24.442	796.702	618.479
398.278	24.906	796.450	619.834
399.292	24.797	795.270	618.486
400.307	24.250	795.526	616.737
401.321	24.125	795.089	615.912
402.336	24.085	794.883	615.558
403.350	24.533	794.466	616.729
404.365	25.241	793.868	618.654
405.380	25.245	793.756	618.525
406.394	25.710	793.984	620.249
407.409	25.773	793.550	620.073
408.423	26.105	792.986	620.721
409.438	25.702	792.558	618.945
410.453	25.817	792.204	619.008
411.467	25.849	791.448	618.472
412.482	26.001	790.833	618.460
413.496	26.100	790.604	618.565
414.511	26.086	790.604	618.461
415.526	26.027	790.745	618.313
416.540	25.951	789.945	617.376
417.555	25.721	789.717	616.354
418.569	25.641	788.569	615.131
419.584	25.807	788.050	615.238
420.599	25.655	787.750	614.429
421.613	161.079	1370.026	1793.511
422.628	139.448	1454.833	1793.621
