DTS Sentinel unit serial number:	SN413079Multiplexer serial number:	ORYXHardware model number:	OX4-SRSoftware version number:	ORYX F/W v4.00 Oryx Data Collector v3.7.2.0data status	okinstallation	princeton_trtdifferential loss correction	single-endedforward channel	channel 3reverse channel	N/Adate	2019/09/17time	03:04:35forward acquisition time	60.00reverse acquisition time	0.00gamma	496.2192k internal	0.2323k external	0.2323temperature offset calibration	0.9942default loss term (dB/km)	0.3790temperature slope calibration	1.0000multiplexer offset coefficient	1.0000multiplexer slope coefficient	1.0000fibre end	0.00T internal ref (°C)	29.94T ext. ref 1 (°C)	0.13T ext. ref 2 (°C)	24.86length (m)	temperature (°C)	Stokes	anti-Stokes-747.200	1.428	-0.311	-0.226
-746.185	800.000	-0.052	0.211
-745.171	-34.294	-0.076	0.042
-744.156	-200.000	-0.010	0.292
-743.142	-37.892	-0.167	-0.090
-742.127	215.079	0.118	0.188
-741.112	-200.000	-0.013	0.069
-740.098	-48.249	-0.321	0.156
-739.083	-93.360	0.409	0.115
-738.069	-200.000	-0.008	0.307
-737.054	734.067	0.146	0.395
-736.039	-59.831	-0.057	-0.024
-735.025	-93.849	0.081	0.023
-734.010	590.380	-0.091	0.226
-732.996	800.000	0.058	-0.175
-731.981	-200.000	0.012	0.166
-730.966	-84.464	-0.259	-0.082
-729.952	-111.809	-0.065	0.013
-728.937	-10.503	-0.159	0.106
-727.923	513.395	-0.109	-0.257
-726.908	-113.744	-0.152	-0.030
-725.894	24.662	0.127	-0.106
-724.879	-58.345	0.294	0.129
-723.864	378.258	-0.112	-0.230
-722.850	-76.281	0.286	-0.102
-721.835	-200.000	-0.001	-0.037
-720.821	697.114	0.049	-0.129
-719.806	704.576	-0.119	-0.318
-718.791	-117.572	-0.393	0.072
-717.777	264.227	0.160	-0.280
-716.762	171.140	-0.158	0.229
-715.748	-68.471	-0.287	-0.112
-714.733	9.824	-0.179	-0.137
-713.718	405.190	-0.020	-0.043
-712.704	-3.307	0.035	0.025
-711.689	292.001	-0.149	-0.273
-710.675	686.647	0.025	0.065
-709.660	800.000	-0.063	-0.256
-708.645	118.412	0.172	-0.214
-707.631	-0.738	-0.061	-0.043
-706.616	63.645	-0.075	-0.075
-705.602	119.359	-0.191	0.239
-704.587	800.000	0.117	0.341
-703.572	-200.000	-0.011	-0.063
-702.558	54.252	0.138	-0.134
-701.543	420.116	0.059	-0.128
-700.529	-200.000	-0.013	0.068
-699.514	410.502	0.204	0.435
-698.499	15.710	-0.379	-0.300
-697.485	-183.072	0.174	0.003
-696.470	308.531	-0.108	0.204
-695.456	-141.616	0.038	0.004
-694.441	603.613	-0.065	-0.164
-693.426	714.899	0.059	-0.158
-692.412	-59.803	0.367	0.158
-691.397	404.488	-0.115	-0.243
-690.383	-125.507	-0.129	0.020
-689.368	290.501	0.110	-0.201
-688.354	-200.000	-0.017	0.089
-687.339	320.775	-0.139	0.266
-686.324	800.000	-0.104	-0.307
-685.310	-109.363	-0.216	0.046
-684.295	0.298	-0.214	0.154
-683.281	0.129	0.232	0.166
-682.266	-200.000	-0.056	0.348
-681.251	164.104	-0.164	-0.232
-680.237	-200.000	0.013	-0.110
-679.222	-95.248	0.444	0.120
-678.208	800.000	-0.071	-0.225
-677.193	294.997	-0.127	0.234
-676.178	800.000	0.044	-0.178
-675.164	-181.396	-0.263	-0.005
-674.149	-163.494	0.342	0.016
-673.135	-183.235	0.226	-0.004
-672.120	-34.308	0.143	-0.079
-671.105	800.000	-0.018	-0.080
-670.091	69.206	0.140	-0.145
-669.076	800.000	-0.047	-0.145
-668.062	-152.196	-0.055	0.004
-667.047	-44.956	0.411	-0.206
-666.032	-50.698	0.209	0.099
-665.018	-13.382	-0.083	-0.054
-664.003	800.000	0.010	0.029
-662.989	800.000	-0.059	-0.196
-661.974	-170.136	0.104	0.004
-660.959	798.015	0.058	-0.162
-659.945	-95.767	0.067	0.018
-658.930	148.737	0.036	-0.049
-657.916	800.000	-0.182	-0.518
-656.901	125.565	-0.128	-0.163
-655.886	61.533	0.091	0.092
-654.872	-92.610	-0.223	-0.063
-653.857	-90.210	-0.525	-0.154
-652.843	-154.580	0.480	-0.032
-651.828	156.621	0.135	0.188
-650.814	-4.545	0.080	0.055
-649.799	-35.017	-0.118	-0.065
-648.784	800.000	0.074	-0.225
-647.770	-75.165	0.300	0.108
-646.755	-70.732	0.228	-0.087
-645.741	-151.275	-0.565	0.042
-644.726	-42.618	0.189	0.097
-643.711	-200.000	0.050	0.265
-642.697	-121.429	-0.268	-0.045
-641.682	121.765	-0.079	-0.099
-640.668	-107.711	0.272	0.060
-639.653	-3.696	-0.334	0.233
-638.638	800.000	0.033	-0.110
-637.624	-200.000	0.034	-0.185
-636.609	404.808	-0.066	0.140
-635.595	76.765	0.187	0.200
-634.580	-14.612	-0.195	-0.126
-633.565	-148.496	0.060	0.005
-632.551	-45.170	0.034	-0.017
-631.536	-117.989	0.248	-0.045
-630.522	41.100	0.066	-0.060
-629.507	542.670	-0.037	-0.089
-628.492	14.231	-0.433	0.339
-627.478	56.101	-0.120	0.117
-626.463	-184.399	-0.099	0.002
-625.449	800.000	-0.051	-0.146
-624.434	54.346	0.098	-0.094
-623.419	-43.638	0.301	0.153
-622.405	77.948	-0.164	0.176
-621.390	-112.063	-0.436	0.088
-620.376	-120.333	-0.379	-0.065
-619.361	-0.106	0.305	-0.218
-618.346	-200.000	0.003	-0.168
-617.332	-73.037	0.472	-0.174
-616.317	159.618	-0.109	-0.152
-615.303	-200.000	0.080	-0.366
-614.288	-121.448	-0.155	-0.026
-613.273	-200.000	0.051	-0.241
-612.259	-200.000	-0.022	-0.177
-611.244	-19.173	0.133	-0.083
-610.230	-121.847	-0.301	0.050
-609.215	-90.178	-0.121	0.035
-608.201	-200.000	-0.017	-0.093
-607.186	-123.967	0.025	0.004
-606.171	593.579	-0.169	-0.420
-605.157	-166.956	-0.371	-0.015
-604.142	-97.075	-0.238	-0.063
-603.128	176.789	0.138	-0.202
-602.113	-83.129	0.214	-0.069
-601.098	-141.257	-0.083	0.008
-600.084	383.015	-0.116	0.240
-599.069	371.194	0.113	-0.230
-598.055	-79.239	0.173	-0.059
-597.040	244.183	0.070	0.118
-596.025	100.344	0.097	-0.113
-595.011	458.836	-0.125	0.279
-593.996	-95.885	0.285	-0.076
-592.982	239.349	0.108	0.181
-591.967	800.000	-0.089	-0.267
-590.952	27.492	0.175	-0.148
-589.938	-146.610	0.266	-0.023
-588.923	-122.938	-0.194	-0.031
-587.909	-26.368	-0.251	0.148
-586.894	-108.226	0.066	0.014
-585.879	-200.000	0.058	-0.444
-584.865	86.986	0.162	0.180
-583.850	800.000	-0.101	0.349
-582.836	426.872	-0.055	0.119
-581.821	166.286	-0.229	0.326
-580.806	-126.420	-0.036	0.005
-579.792	-160.512	0.119	0.006
-578.777	-5.508	0.197	-0.136
-577.763	-82.855	0.043	0.014
-576.748	-104.198	-0.107	-0.025
-575.733	-145.657	0.518	0.046
-574.719	-200.000	-0.070	0.543
-573.704	24.511	-0.261	0.216
-572.690	127.901	0.048	-0.061
-571.675	-200.000	-0.088	-0.489
-570.661	-200.000	-0.007	-0.416
-569.646	-200.000	0.011	0.199
-568.631	-200.000	-0.003	-0.088
-567.617	-200.000	-0.018	0.342
-566.602	-36.590	0.318	0.171
-565.588	-66.600	-0.149	0.059
-564.573	-200.000	0.052	0.269
-563.558	246.385	-0.084	-0.142
-562.544	800.000	0.068	0.195
-561.529	-200.000	-0.021	0.169
-560.515	-61.638	-0.391	-0.165
-559.500	-112.538	0.278	-0.056
-558.485	-200.000	0.030	-0.167
-557.471	-94.598	-0.111	-0.030
-556.456	-40.864	-0.040	-0.021
-555.442	301.828	-0.217	0.402
-554.427	56.410	0.112	0.109
-553.412	-86.740	0.278	0.085
-552.398	-149.255	-0.076	0.006
-551.383	-200.000	-0.020	0.108
-550.369	586.012	-0.149	0.368
-549.354	-49.458	0.180	-0.086
-548.339	115.357	-0.051	-0.063
-547.325	51.470	0.028	0.027
-546.310	-42.236	0.083	-0.042
-545.296	-200.000	-0.001	-0.104
-544.281	800.000	0.073	-0.277
-543.266	-91.395	-0.342	0.098
-542.252	800.000	-0.089	0.322
-541.237	-66.595	0.311	-0.124
-540.223	45.939	-0.229	0.212
-539.208	228.883	0.059	0.097
-538.193	15.650	0.189	0.148
-537.179	-200.000	-0.023	-0.433
-536.164	-84.018	0.366	-0.116
-535.150	-123.933	0.558	-0.088
-534.135	-32.002	-0.169	-0.095
-533.121	-155.815	0.137	0.009
-532.106	395.165	0.138	-0.287
-531.091	576.038	-0.093	0.228
-530.077	-200.000	0.007	-0.055
-529.062	135.072	0.158	0.205
-528.048	-200.000	-0.091	-0.410
-527.033	-81.227	0.350	-0.116
-526.018	-22.547	-0.191	-0.116
-525.004	-200.000	0.057	-0.270
-523.989	-88.396	-0.228	0.068
-522.975	-93.547	-0.122	-0.034
-521.960	-200.000	-0.039	0.270
-520.945	-103.522	-0.209	0.049
-519.931	-123.113	-0.257	0.041
-518.916	52.500	-0.227	-0.217
-517.902	50.875	0.242	0.230
-516.887	800.000	-0.059	0.206
-515.872	-13.729	0.453	0.293
-514.858	-200.000	0.225	-0.000
-513.843	-60.365	-0.058	-0.025
-512.829	-200.000	0.079	-0.353
-511.814	136.781	0.034	0.045
-510.799	-25.356	0.305	0.181
-509.785	492.631	-0.204	-0.469
-508.770	211.344	0.157	-0.248
-507.756	245.851	0.057	0.096
-506.741	-95.060	-0.535	-0.144
-505.726	-200.000	-0.068	0.367
-504.712	-128.100	-0.215	-0.031
-503.697	535.258	-0.100	-0.237
-502.683	800.000	0.087	-0.294
-501.668	-56.633	-0.064	-0.028
-500.653	-95.603	0.277	0.074
-499.639	-23.933	-0.102	-0.061
-498.624	-200.000	-0.011	0.353
-497.610	800.000	-0.039	-0.123
-496.595	-131.724	0.314	0.041
-495.581	0.983	0.297	0.213
-494.566	301.498	0.046	0.085
-493.551	-126.229	0.140	0.021
-492.537	7.171	-0.182	-0.136
-491.522	-200.000	-0.001	-0.015
-490.508	13.496	0.152	0.118
-489.493	800.000	-0.056	-0.178
-488.478	-107.649	-0.220	-0.048
-487.464	-200.000	-0.000	-0.058
-486.449	-200.000	0.036	0.191
-485.435	-77.034	0.102	0.035
-484.420	71.997	-0.155	-0.162
-483.405	478.141	-0.041	0.092
-482.391	314.712	0.116	0.218
-481.376	188.010	-0.084	0.125
-480.362	5.719	0.146	-0.108
-479.347	-81.320	0.346	0.114
-478.332	-119.863	-0.159	0.027
-477.318	-177.929	0.242	-0.006
-476.303	-89.813	0.427	-0.125
-475.289	690.472	-0.112	0.292
-474.274	-200.000	-0.035	-0.237
-473.259	-200.000	0.008	-0.242
-472.245	200.291	-0.081	-0.125
-471.230	800.000	0.087	0.276
-470.216	-200.000	0.001	-0.126
-469.201	179.024	0.231	-0.337
-468.186	-103.788	-0.082	0.019
-467.172	12.324	0.383	0.295
-466.157	54.865	-0.033	-0.032
-465.143	112.206	-0.062	-0.074
-464.128	800.000	0.068	0.273
-463.113	800.000	-0.059	0.222
-462.099	-74.832	0.059	-0.021
-461.084	788.099	0.120	-0.330
-460.070	24.475	-0.198	0.163
-459.055	75.376	0.087	-0.092
-458.040	-28.741	0.038	-0.022
-457.026	-12.634	0.055	-0.036
-456.011	70.871	0.143	-0.148
-454.997	205.451	0.119	-0.185
-453.982	-139.298	-0.318	0.034
-452.968	-148.213	0.097	0.008
-451.953	167.538	0.157	-0.222
-450.938	-56.326	0.073	0.032
-449.924	-200.000	-0.013	0.194
-448.909	800.000	-0.107	-0.403
-447.895	-46.074	-0.263	-0.129
-446.880	258.926	-0.056	0.097
-445.865	-63.706	-0.072	-0.029
-444.851	632.793	0.010	-0.025
-443.836	260.485	0.042	0.073
-442.822	-200.000	-0.019	0.112
-441.807	-76.023	0.302	0.107
-440.792	44.467	0.259	-0.238
-439.778	-75.340	-0.112	-0.040
-438.763	-49.036	-0.252	-0.120
-437.749	61.228	-0.271	-0.269
-436.734	246.789	-0.067	-0.112
-435.719	800.000	0.060	0.248
-434.705	251.276	0.081	-0.137
-433.690	84.471	0.196	-0.214
-432.676	764.190	-0.036	-0.097
-431.661	-59.749	0.241	-0.103
-430.646	-12.483	-0.323	0.210
-429.632	19.078	-0.395	-0.316
-428.617	183.251	-0.053	-0.079
-427.603	60.216	-0.152	-0.150
-426.588	-37.580	0.212	0.113
-425.573	248.767	-0.140	-0.236
-424.559	-189.681	0.180	-0.002
-423.544	-200.000	-0.041	-0.386
-422.530	118.209	-0.107	0.131
-421.515	-106.117	-0.244	-0.055
-420.500	-121.881	0.445	0.073
-419.486	-102.213	-0.147	-0.035
-418.471	800.000	-0.060	0.255
-417.457	800.000	-0.101	0.323
-416.442	652.824	-0.118	-0.302
-415.428	27.427	0.200	-0.168
-414.413	-128.472	0.479	0.068
-413.398	62.195	-0.079	0.079
-412.384	31.908	-0.326	-0.280
-411.369	69.934	-0.315	0.324
-410.355	138.570	-0.041	-0.054
-409.340	-200.000	-0.032	-0.188
-408.325	698.459	0.029	-0.077
-407.311	106.377	-0.115	0.135
-406.296	114.417	-0.259	-0.314
-405.282	-109.071	0.387	-0.082
-404.267	-200.000	0.000	0.058
-403.252	31.987	0.070	-0.061
-402.238	-39.941	0.220	-0.114
-401.223	18.801	0.173	-0.138
-400.209	-95.470	0.066	0.018
-399.194	576.341	-0.188	0.457
-398.179	135.729	0.178	0.230
-397.165	-100.395	-0.384	-0.095
-396.150	-18.312	-0.325	-0.202
-395.136	55.593	-0.096	0.093
-394.121	220.849	-0.126	-0.202
-393.106	-200.000	0.021	0.110
-392.092	-200.000	0.010	-0.109
-391.077	-112.388	0.280	-0.056
-390.063	88.566	-0.106	0.117
-389.048	-200.000	0.002	-0.117
-388.033	35.996	-0.085	-0.074
-387.019	573.464	-0.134	-0.325
-386.004	-69.474	-0.120	-0.046
-384.990	800.000	0.054	-0.150
-383.975	310.009	0.240	0.448
-382.960	648.113	-0.033	0.085
-381.946	-51.439	0.279	-0.130
-380.931	-57.320	0.225	0.099
-379.917	61.979	-0.344	-0.341
-378.902	-97.642	0.415	-0.107
-377.888	30.108	0.151	-0.128
-376.873	-200.000	0.012	0.076
-375.858	800.000	0.108	-0.387
-374.844	-11.905	-0.304	0.198
-373.829	-84.129	-0.341	0.108
-372.815	22.972	-0.199	-0.163
-371.800	-200.000	0.042	0.221
-370.785	-42.741	-0.208	0.105
-369.771	700.050	-0.228	0.597
-368.756	191.332	-0.107	0.161
-367.742	-59.850	-0.394	0.168
-366.727	406.267	-0.231	-0.485
-365.712	77.706	-0.221	-0.234
-364.698	-127.988	0.113	0.016
-363.683	140.311	0.165	0.216
-362.669	-95.951	0.227	0.060
-361.654	-98.031	-0.528	-0.135
-360.639	-92.976	0.174	0.048
-359.625	13.714	-0.163	-0.126
-358.610	800.000	-0.106	0.325
-357.596	62.847	0.078	-0.078
-356.581	800.000	0.139	0.449
-355.566	-200.000	-0.010	0.191
-354.552	-113.721	-0.145	-0.028
-353.537	-115.601	0.133	-0.025
-352.523	7.687	-0.248	0.185
-351.508	-79.645	0.225	-0.075
-350.493	363.477	-0.178	-0.356
-349.479	249.416	-0.028	-0.046
-348.464	-200.000	0.024	-0.113
-347.450	-115.820	-0.199	0.037
-346.435	-6.967	-0.252	0.170
-345.420	185.178	-0.047	0.070
-344.406	118.892	0.206	-0.253
-343.391	-136.549	-0.207	-0.024
-342.377	-169.631	0.456	-0.016
-341.362	83.750	0.122	-0.132
-340.348	739.253	-0.111	0.295
-339.333	-162.557	0.215	0.011
-338.318	800.000	0.087	-0.314
-337.304	121.880	0.095	-0.118
-336.289	-3.753	0.240	0.166
-335.275	-37.119	-0.197	-0.105
-334.260	800.000	0.085	-0.303
-333.245	-112.136	0.348	0.069
-332.231	75.361	-0.065	0.068
-331.216	-200.000	-0.013	-0.094
-330.202	144.776	0.183	-0.243
-329.187	-67.107	0.169	0.066
-328.172	-29.378	-0.160	0.091
-327.158	-127.707	0.301	0.043
-326.143	-13.853	0.201	0.129
-325.129	-7.113	-0.090	-0.060
-324.114	126.382	-0.065	-0.082
-323.099	-60.259	-0.655	0.277
-322.085	-200.000	0.053	0.386
-321.070	623.391	-0.037	0.092
-320.056	800.000	-0.029	0.085
-319.041	-200.000	0.002	0.113
-318.026	800.000	-0.053	0.174
-317.012	-11.174	-0.048	-0.031
-315.997	-136.065	-0.242	-0.028
-314.983	-40.337	0.441	-0.228
-313.968	-98.587	0.197	-0.050
-312.953	415.587	-0.100	-0.212
-311.939	180.528	-0.161	-0.235
-310.924	607.916	0.096	0.239
-309.910	338.926	0.151	0.292
-308.895	244.820	0.114	0.190
-307.880	-177.154	0.174	0.004
-306.866	244.540	0.140	-0.233
-305.851	96.462	0.087	-0.099
-304.837	-102.865	0.280	0.066
-303.822	-70.481	-0.208	-0.078
-302.807	-25.542	0.156	0.092
-301.793	128.791	0.242	0.306
-300.778	333.174	-0.100	0.192
-299.764	-122.163	-0.072	-0.012
-298.749	185.407	0.297	0.438
-297.735	-117.735	-0.317	0.057
-296.720	85.229	0.163	-0.177
-295.705	62.726	0.254	-0.252
-294.691	10.037	0.247	-0.186
-293.676	-39.005	0.197	0.103
-292.662	257.705	0.098	0.167
-291.647	28.260	-0.221	-0.186
-290.632	192.138	0.211	-0.316
-289.618	5.438	-0.247	0.181
-288.603	-200.000	0.011	-0.170
-287.589	-79.282	0.260	-0.088
-286.574	45.253	0.286	-0.262
-285.559	-107.509	-0.100	0.022
-284.545	479.927	-0.082	-0.185
-283.530	-200.000	-0.019	0.092
-282.516	-70.798	-0.323	-0.121
-281.501	233.486	0.167	0.272
-280.486	36.873	0.217	0.190
-279.472	800.000	-0.058	0.178
-278.457	328.654	-0.135	-0.257
-277.443	-129.650	0.169	0.023
-276.428	-75.663	-0.131	0.046
-275.413	-69.329	-0.228	-0.087
-274.399	-48.177	-0.169	-0.081
-273.384	509.663	0.065	0.150
-272.370	-79.088	-0.072	-0.024
-271.355	-200.000	0.035	0.311
-270.340	699.073	0.075	0.195
-269.326	-200.000	0.006	0.159
-268.311	1.862	0.069	0.050
-267.297	271.855	0.039	-0.069
-266.282	-200.000	0.362	-0.002
-265.267	392.036	-0.050	-0.104
-264.253	800.000	-0.042	0.166
-263.238	-121.032	0.084	0.014
-262.224	49.386	0.288	-0.269
-261.209	88.328	-0.104	0.114
-260.195	-27.552	-0.241	-0.139
-259.180	-200.000	-0.061	0.295
-258.165	-119.573	-0.192	0.033
-257.151	800.000	0.108	0.307
-256.136	-98.252	-0.152	0.039
-255.122	-137.529	0.182	0.020
-254.107	800.000	-0.160	0.451
-253.092	359.613	0.114	-0.225
-252.078	-61.918	-0.077	0.032
-251.063	-156.747	-0.233	0.014
-250.049	-200.000	-0.026	0.153
-249.034	-117.955	-0.014	0.003
-248.019	-200.000	-0.002	0.331
-247.005	-169.533	0.156	-0.006
-245.990	-156.402	-0.209	0.013
-244.976	-200.000	0.007	0.246
-243.961	203.907	-0.045	0.069
-242.946	800.000	0.127	-0.436
-241.932	86.235	-0.097	0.106
-240.917	-35.314	-0.167	-0.090
-239.903	109.329	-0.125	-0.148
-238.888	149.469	-0.271	-0.364
-237.873	-107.856	-0.132	0.028
-236.859	755.052	-0.144	0.386
-235.844	-70.366	-0.100	-0.038
-234.830	-188.575	-0.097	-0.001
-233.815	147.183	0.050	0.066
-232.800	-200.000	-0.031	-0.307
-231.786	639.055	-0.080	-0.201
-230.771	-18.718	-0.226	0.139
-229.757	290.796	0.029	0.053
-228.742	111.939	0.206	-0.246
-227.727	546.040	0.056	-0.131
-226.713	315.102	-0.137	-0.256
-225.698	320.118	0.152	0.286
-224.684	-200.000	0.027	0.193
-223.669	218.173	-0.079	0.125
-222.655	14.143	0.074	0.057
-221.640	-77.386	0.214	0.074
-220.625	270.794	-0.038	0.067
-219.611	-11.034	-0.172	0.112
-218.596	736.990	-0.097	0.258
-217.582	-113.001	-0.429	0.084
-216.567	5.926	-0.081	-0.060
-215.552	-35.740	0.122	-0.066
-214.538	98.709	0.037	0.042
-213.523	800.000	-0.096	-0.325
-212.509	-44.644	-0.074	-0.036
-211.494	-102.803	0.400	-0.094
-210.479	-109.830	0.466	0.097
-209.465	-200.000	-0.302	0.001
-208.450	-200.000	-0.028	0.192
-207.436	-49.437	-0.091	-0.043
-206.421	-107.491	0.309	-0.067
-205.406	-167.249	-0.259	-0.010
-204.392	37.399	0.227	-0.199
-203.377	600.055	-0.107	0.262
-202.363	-0.228	-0.077	-0.054
-201.348	-41.282	0.145	0.074
-200.333	800.000	0.032	-0.109
-199.319	-200.000	0.036	0.495
-198.304	64.619	-0.226	0.225
-197.290	-200.000	0.033	-0.230
-196.275	151.930	-0.118	-0.159
-195.260	-200.000	0.012	0.231
-194.246	644.992	-0.114	0.287
-193.231	-78.256	-0.574	-0.195
-192.217	-200.000	-0.004	0.046
-191.202	140.659	-0.097	0.127
-190.187	3.614	0.167	0.120
-189.173	120.972	0.048	0.059
-188.158	663.039	-0.038	0.096
-187.144	-49.822	-0.090	0.042
-186.129	52.640	0.127	-0.120
-185.114	566.615	-0.122	0.293
-184.100	560.588	0.003	0.007
-183.085	159.527	0.106	-0.145
-182.071	2.203	0.122	-0.087
-181.056	-200.000	-0.079	-0.357
-180.042	-145.179	0.084	-0.008
-179.027	223.284	0.057	-0.091
-178.012	-200.000	-0.075	-0.427
-176.998	-119.828	-0.166	0.028
-175.983	-200.000	-0.019	-0.129
-174.969	-200.000	-0.008	-0.047
-173.954	-200.000	0.010	-0.135
-172.939	-200.000	-0.036	-0.245
-171.925	76.644	-0.088	0.092
-170.910	-1.611	-0.091	-0.063
-169.896	-200.000	-0.039	0.301
-168.881	-10.837	-0.310	0.202
-167.866	195.615	0.051	0.076
-166.852	800.000	0.084	-0.231
-165.837	-200.000	-0.046	0.306
-164.823	56.689	-0.025	0.024
-163.808	-134.316	0.215	-0.026
-162.793	-138.438	0.148	0.016
-161.779	212.579	0.138	0.216
-160.764	-200.000	-0.004	0.042
-159.750	233.197	-0.088	-0.143
-158.735	-200.000	0.018	0.253
-157.720	105.390	0.257	0.299
-156.706	-200.000	-0.015	-0.161
-155.691	-194.069	-0.201	0.002
-154.677	-181.194	0.129	0.003
-153.662	800.000	-0.023	0.070
-152.647	800.000	0.076	0.228
-151.633	-128.056	0.090	0.013
-150.618	637.390	0.217	0.544
-149.604	-200.000	0.050	0.320
-148.589	-5.974	-0.086	0.058
-147.574	-200.000	0.020	-0.296
-146.560	800.000	-0.018	0.069
-145.545	63.686	-0.142	0.140
-144.531	127.933	0.158	0.199
-143.516	800.000	-0.048	0.137
-142.502	-200.000	0.002	-0.068
-141.487	-32.935	0.263	0.144
-140.472	-143.277	-0.069	-0.007
-139.458	-95.876	0.037	-0.010
-138.443	203.004	0.079	-0.120
-137.429	294.929	-0.089	0.161
-136.414	-200.000	-0.017	-0.125
-135.399	-200.000	-0.017	0.236
-134.385	3.583	-0.003	0.002
-133.370	136.861	0.212	-0.273
-132.356	-200.000	-0.016	-0.130
-131.341	37.740	-0.209	-0.183
-130.326	800.000	-0.067	0.202
-129.312	338.052	0.040	0.077
-128.297	-84.048	0.205	-0.064
-127.283	-189.032	-0.351	0.004
-126.268	-200.000	0.003	0.293
-125.253	-200.000	-0.020	-0.427
-124.239	-79.392	0.231	0.077
-123.224	-74.851	0.124	-0.044
-122.210	339.131	-0.129	-0.248
-121.195	-200.000	0.022	0.163
-120.180	226.803	-0.160	-0.256
-119.166	800.000	0.080	-0.281
-118.151	-170.792	0.280	-0.009
-117.137	-88.809	-0.140	0.041
-116.122	-185.142	0.115	-0.002
-115.107	-200.000	0.010	-0.045
-114.093	-144.317	0.146	0.013
-113.078	378.425	-0.124	-0.251
-112.064	354.090	-0.152	0.298
-111.049	-113.773	-0.298	-0.057
-110.034	658.188	0.142	0.359
-109.020	34.123	-0.357	0.307
-108.005	453.697	0.201	0.439
-106.991	-60.578	0.064	-0.027
-105.976	350.761	-0.081	0.157
-104.962	-200.000	-0.009	-0.060
-103.947	19.290	0.224	0.177
-102.932	-200.000	-0.048	-0.350
-101.918	-200.000	-0.012	-0.131
-100.903	-76.691	-0.172	0.059
-99.889	-200.000	0.029	-0.165
-98.874	800.000	-0.098	-0.403
-97.859	32.857	-0.146	-0.125
-96.845	-41.878	0.264	0.133
-95.830	13.636	0.417	-0.319
-94.816	800.000	0.085	-0.235
-93.801	-115.187	0.105	-0.020
-92.786	127.871	-0.231	0.289
-91.772	-200.000	0.028	0.206
-90.757	107.803	0.095	-0.111
-89.743	38.627	-0.227	0.199
-88.728	175.565	0.113	-0.162
-87.713	175.432	0.082	0.117
-86.699	-2.098	-0.215	-0.149
-85.684	-23.943	0.390	-0.230
-84.670	-9.437	-0.039	0.026
-83.655	-117.425	0.125	-0.022
-82.640	94.785	0.127	0.142
-81.626	16.132	0.203	0.157
-80.611	-3.135	-0.099	-0.068
-79.597	800.000	0.073	0.285
-78.582	-63.788	-0.163	0.066
-77.567	-200.000	-0.010	-0.056
-76.553	471.143	0.099	0.218
-75.538	103.732	-0.048	-0.055
-74.524	-200.000	-0.039	0.271
-73.509	-158.033	-0.159	-0.009
-72.494	168.594	-0.175	-0.245
-71.480	800.000	0.097	0.404
-70.465	-147.916	-0.270	0.022
-69.451	232.315	0.047	0.076
-68.436	38.780	0.312	-0.274
-67.422	-83.545	0.199	0.062
-66.407	219.580	-0.132	0.207
-65.392	-36.902	-0.229	0.121
-64.378	-10.192	-0.311	-0.203
-63.363	-200.000	0.009	0.356
-62.349	393.583	0.034	0.070
-61.334	-12.702	-1.080	-0.692
-60.319	-18.509	0.687	0.421
-59.305	125.633	-0.930	-1.155
-58.290	639.130	0.383	0.957
-57.276	800.000	0.577	1.635
-56.261	-200.000	106.097	577.585
-55.246	459.735	1456.354	3187.240
-54.232	149.612	2640.339	3516.298
-53.217	106.493	2178.635	2539.198
-52.203	40.276	1707.712	1510.016
-51.188	33.060	1518.899	1293.829
-50.173	30.738	1492.390	1255.548
-49.159	50.767	1546.001	1438.783
-48.144	51.432	1563.088	1459.198
-47.130	33.224	1520.085	1295.753
-46.115	30.236	1505.270	1262.767
-45.100	29.964	1502.140	1258.247
-44.086	30.072	1499.804	1256.973
-43.071	29.976	1497.924	1254.694
-42.057	29.977	1496.122	1253.146
-41.042	29.938	1495.200	1252.055
-40.027	29.807	1493.619	1249.799
-39.013	29.965	1491.891	1249.367
-37.998	29.898	1491.015	1248.135
-36.984	29.925	1489.445	1246.950
-35.969	29.957	1487.809	1245.751
-34.954	29.856	1487.077	1244.404
-33.940	29.879	1485.444	1243.147
-32.925	29.912	1483.843	1241.981
-31.911	29.942	1482.911	1241.353
-30.896	30.031	1481.283	1240.536
-29.881	29.994	1480.351	1239.453
-28.867	30.003	1478.755	1238.131
-27.852	29.960	1477.535	1236.772
-26.838	29.994	1475.895	1235.576
-25.823	30.042	1474.518	1234.695
-24.809	29.984	1473.212	1233.169
-23.794	29.964	1471.839	1231.838
-22.779	30.008	1470.363	1230.844
-21.765	29.976	1469.683	1230.016
-20.750	29.970	1468.572	1228.995
-19.736	29.907	1467.582	1227.700
-18.721	29.991	1466.113	1226.976
-17.706	29.902	1465.464	1225.800
-16.692	30.010	1463.515	1224.834
-15.677	29.955	1462.763	1223.795
-14.663	29.988	1461.588	1222.978
-13.648	30.017	1460.425	1222.150
-12.633	29.942	1460.058	1221.296
-11.619	29.951	1459.355	1220.721
-10.604	29.888	1458.308	1219.380
-9.590	29.846	1457.698	1218.543
-8.575	29.842	1456.651	1217.594
-7.560	29.851	1455.645	1216.766
-6.546	29.845	1455.093	1216.216
-5.531	29.904	1453.925	1215.581
-4.517	29.897	1452.598	1214.375
-3.502	29.841	1451.744	1213.244
-2.487	29.999	1450.603	1213.278
-1.473	29.901	1449.971	1212.059
-0.458	29.939	1448.162	1210.749
0.556	28.150	1438.399	1199.742
1.571	25.379	1413.348	1160.855
2.586	22.169	1353.636	1091.811
3.600	20.570	1271.883	1016.439
4.615	19.464	1227.118	974.333
5.629	16.849	1170.931	915.534
6.644	8.541	1084.971	806.504
7.659	1.349	1044.055	741.015
8.673	0.292	1039.045	732.260
9.688	0.120	1035.940	729.172
10.702	0.078	1033.637	727.283
11.717	0.041	1031.838	725.777
12.731	2.827	1034.428	740.996
13.746	11.131	1046.148	789.736
14.761	17.180	1053.831	824.924
15.775	17.432	1052.816	825.278
16.790	16.502	1050.526	818.911
17.804	15.440	1048.152	811.854
18.819	14.561	1046.522	806.274
19.834	14.146	1045.372	803.311
20.848	13.860	1044.073	800.859
21.863	13.707	1043.401	799.536
22.877	13.386	1042.322	797.092
23.892	12.997	1042.172	795.035
24.907	13.140	1040.577	794.438
25.921	13.072	1040.167	793.725
26.936	13.009	1039.940	793.180
27.950	13.145	1039.490	793.417
28.965	13.132	1038.304	792.383
29.980	13.152	1037.490	791.787
30.994	13.358	1036.135	791.670
32.009	13.404	1035.421	791.270
33.023	13.418	1034.891	790.866
34.038	13.294	1034.316	789.761
35.053	13.302	1033.096	788.797
36.067	13.252	1032.332	787.905
37.082	13.326	1031.687	787.696
38.096	13.356	1030.782	787.080
39.111	13.216	1030.229	785.924
40.126	13.343	1029.050	785.556
41.140	13.114	1028.809	784.217
42.155	13.185	1027.116	783.193
43.169	13.048	1026.477	781.990
44.184	13.114	1025.121	781.197
45.199	12.924	1024.474	779.735
46.213	13.005	1023.658	779.429
47.228	13.177	1022.115	778.996
48.242	13.118	1021.422	778.121
49.257	13.239	1020.343	777.798
50.271	13.250	1019.374	777.046
51.286	13.220	1018.634	776.272
52.301	13.161	1018.331	775.696
53.315	13.126	1017.318	774.691
54.330	13.018	1016.773	773.699
55.344	13.074	1015.980	773.289
56.359	13.141	1014.581	772.471
57.374	13.081	1013.612	771.383
58.388	13.182	1012.522	770.959
59.403	13.200	1012.149	770.690
60.417	13.061	1011.864	769.758
61.432	13.097	1010.775	769.030
62.447	13.151	1009.390	768.156
63.461	13.045	1008.658	767.040
64.476	13.168	1007.756	766.856
65.490	12.970	1007.216	765.458
66.505	12.878	1006.640	764.524
67.520	12.966	1005.888	764.295
68.534	13.126	1004.948	764.256
69.549	13.078	1003.980	763.227
70.563	13.075	1003.414	762.716
71.578	12.984	1002.858	761.806
72.593	12.995	1001.822	761.006
73.607	12.966	1000.490	759.791
74.622	12.968	999.972	759.338
75.636	12.938	999.111	758.481
76.651	12.992	998.427	758.140
77.666	12.903	997.411	756.896
78.680	13.023	996.697	756.839
79.695	12.935	996.748	756.402
80.709	13.058	995.648	756.067
81.724	13.089	994.733	755.447
82.739	13.030	993.920	754.492
83.753	13.123	993.124	754.247
84.768	13.054	993.073	753.826
85.782	13.258	992.244	754.060
86.797	13.364	991.475	753.894
87.812	13.357	990.260	752.870
88.826	13.211	989.533	751.588
89.841	13.260	988.527	750.980
90.855	13.214	987.767	750.126
91.870	13.288	987.222	749.979
92.884	13.306	986.583	749.511
93.899	13.355	985.612	748.928
94.914	13.342	985.391	748.636
95.928	13.254	984.574	747.550
96.943	13.470	983.288	747.486
97.957	13.310	982.698	746.248
98.972	13.234	982.057	745.353
99.987	13.273	981.242	744.844
101.001	13.280	981.054	744.666
102.016	13.347	979.692	743.867
103.030	13.228	979.079	742.799
104.045	13.308	977.916	742.212
105.060	13.346	977.105	741.699
106.074	13.290	976.011	740.554
107.089	13.195	975.364	739.572
108.103	13.061	974.692	738.398
109.118	13.232	973.416	738.132
110.133	13.127	972.791	737.123
111.147	13.065	972.173	736.312
112.162	13.109	971.057	735.599
113.176	13.157	969.882	734.856
114.191	13.242	969.086	734.567
115.206	13.204	968.566	733.939
116.220	13.191	967.758	733.202
117.235	13.123	967.236	732.442
118.249	13.180	966.366	731.972
119.264	13.111	965.545	730.980
120.279	13.323	964.260	730.878
121.293	13.112	963.945	729.641
122.308	13.178	962.851	729.040
123.322	13.123	962.089	728.158
124.337	13.107	961.247	727.387
125.352	13.158	960.095	726.672
126.366	13.167	958.792	725.664
127.381	13.026	958.007	724.386
128.395	12.980	957.409	723.666
129.410	13.035	956.417	723.095
130.424	13.144	955.173	722.565
131.439	13.190	954.481	722.179
132.454	13.145	953.853	721.444
133.468	13.326	952.776	721.354
134.483	13.268	952.321	720.695
135.497	13.145	951.475	719.454
136.512	13.167	950.734	718.927
137.527	13.186	950.446	718.729
138.541	13.188	949.314	717.817
139.556	13.176	948.903	717.393
140.570	13.174	947.828	716.505
141.585	13.154	947.082	715.792
142.600	13.254	946.172	715.473
143.614	13.374	945.503	715.424
144.629	13.362	944.981	714.915
145.643	13.467	944.091	714.632
146.658	13.528	943.037	714.032
147.673	13.313	942.605	712.714
148.687	13.468	941.360	712.376
149.702	13.249	940.781	710.934
150.716	13.343	939.974	710.666
151.731	13.242	939.144	709.544
152.746	13.308	938.087	708.962
153.760	13.340	937.443	708.550
154.775	13.327	936.408	707.650
155.789	13.352	936.018	707.400
156.804	13.382	935.165	706.821
157.819	13.371	934.617	706.297
158.833	13.416	934.065	706.011
159.848	13.393	933.162	705.167
160.862	13.525	932.486	705.156
161.877	13.378	931.994	704.094
162.892	13.331	931.001	703.083
163.906	13.348	930.351	702.604
164.921	13.425	929.012	701.856
165.935	13.534	928.001	701.491
166.950	13.431	927.766	700.815
167.964	13.351	926.658	699.580
168.979	13.428	925.664	699.094
169.994	13.469	924.547	698.360
171.008	13.497	923.871	697.906
172.023	13.440	923.369	697.225
173.037	13.528	922.791	697.096
174.052	13.609	921.672	696.530
175.067	13.485	921.093	695.509
176.081	13.496	920.488	695.035
177.096	13.481	919.494	694.160
178.110	13.365	919.164	693.364
179.125	13.370	918.196	692.595
180.140	13.535	916.959	692.290
181.154	13.466	916.325	691.461
182.169	13.564	916.074	691.620
183.183	13.762	915.288	691.790
184.198	13.683	914.753	690.998
185.213	13.740	913.990	690.597
186.227	13.631	913.379	689.620
187.242	13.680	912.972	689.455
188.256	13.788	912.297	689.336
189.271	13.804	911.528	688.758
190.286	13.826	910.735	688.192
191.300	13.748	909.906	687.179
192.315	13.595	909.283	686.014
193.329	13.594	908.407	685.289
194.344	13.542	908.107	684.785
195.359	13.621	907.569	684.648
196.373	13.685	906.649	684.156
197.388	13.658	906.119	683.583
198.402	13.841	905.545	683.846
199.417	13.847	905.524	683.793
200.432	13.878	905.228	683.638
201.446	13.905	904.699	683.288
202.461	13.963	904.538	683.345
203.475	13.981	903.657	682.692
204.490	14.135	903.059	682.812
205.504	13.925	902.158	681.208
206.519	13.929	901.454	680.636
207.534	13.891	900.940	680.031
208.548	13.880	899.826	679.083
209.563	14.004	898.960	678.877
210.577	13.840	898.614	677.888
211.592	13.957	897.963	677.811
212.607	14.087	897.162	677.679
213.621	14.222	896.486	677.657
214.636	14.016	895.946	676.352
215.650	14.081	895.326	676.086
216.665	14.014	895.139	675.614
217.680	14.187	894.245	675.582
218.694	14.005	894.021	674.614
219.709	14.142	893.810	674.951
220.723	14.216	893.165	674.704
221.738	14.221	892.304	674.016
222.753	14.224	891.527	673.382
223.767	14.113	890.650	672.210
224.782	14.163	890.030	671.883
225.796	14.256	888.973	671.401
226.811	14.277	888.761	671.269
227.826	14.240	887.956	670.451
228.840	14.309	887.109	670.029
229.855	14.343	886.249	669.456
230.869	14.307	885.801	668.915
231.884	14.235	885.397	668.263
232.899	14.270	884.899	667.966
233.913	14.288	884.083	667.366
234.928	14.254	883.219	666.517
235.942	14.209	882.630	665.835
236.957	14.298	882.116	665.743
237.972	14.140	881.657	664.706
238.986	14.295	880.761	664.589
240.001	14.285	880.265	664.118
241.015	14.293	879.524	663.531
242.030	14.323	878.932	663.146
243.045	14.468	877.778	662.792
244.059	14.396	877.129	661.958
245.074	14.453	876.723	661.820
246.088	14.447	876.209	661.351
247.103	14.346	875.941	660.686
248.117	14.555	874.814	660.605
249.132	14.534	874.645	660.338
250.147	14.663	873.923	660.243
251.161	14.657	873.523	659.860
252.176	14.755	872.731	659.589
253.190	14.677	871.871	658.574
254.205	14.749	871.288	658.358
255.220	14.781	870.632	657.932
256.234	14.832	870.247	657.784
257.249	14.839	869.349	657.073
258.263	14.787	868.810	656.404
259.278	14.836	868.325	656.170
260.293	14.969	867.943	656.345
261.307	14.860	867.206	655.303
262.322	15.035	866.745	655.584
263.336	14.964	866.009	654.688
264.351	14.918	865.481	654.052
265.366	14.962	864.632	653.525
266.380	15.008	864.389	653.464
267.395	14.925	864.076	652.845
268.409	15.085	862.471	652.198
269.424	15.098	861.971	651.814
270.439	15.064	861.205	651.046
271.453	14.953	860.720	650.190
272.468	15.065	859.787	649.860
273.482	14.987	859.303	649.135
274.497	15.027	858.582	648.689
275.512	15.002	858.278	648.303
276.526	14.921	857.372	647.248
277.541	15.073	856.668	647.247
278.555	15.086	855.880	646.645
279.570	15.065	855.280	646.054
280.585	15.196	855.055	646.333
281.599	15.028	854.755	645.400
282.614	15.082	853.933	644.931
283.628	15.227	853.059	644.770
284.643	15.189	852.964	644.496
285.657	15.169	852.301	643.861
286.672	15.278	851.583	643.682
287.687	15.162	851.444	643.073
288.701	15.270	850.648	642.831
289.716	15.159	850.149	641.972
290.730	15.210	849.397	641.540
291.745	15.286	848.912	641.407
292.760	15.284	848.250	640.846
293.774	15.161	847.882	640.041
294.789	15.439	846.938	640.330
295.803	15.447	846.494	639.968
296.818	15.379	845.769	639.107
297.833	15.418	845.147	638.726
298.847	15.288	844.689	637.828
299.862	15.362	843.889	637.451
300.876	15.299	843.382	636.773
301.891	15.286	843.200	636.528
302.906	15.428	842.180	636.241
303.920	15.558	841.345	636.046
304.935	15.544	840.844	635.559
305.949	15.601	840.157	635.196
306.964	15.671	839.662	635.031
307.979	15.576	839.183	634.256
308.993	15.701	838.463	634.125
310.008	15.766	837.776	633.796
311.022	15.696	837.486	633.255
312.037	15.680	836.897	632.695
313.052	15.606	836.173	631.813
314.066	15.536	835.748	631.174
315.081	15.593	834.849	630.652
316.095	15.510	834.526	630.040
317.110	15.579	833.973	629.828
318.125	15.646	833.244	629.469
319.139	15.571	832.904	628.878
320.154	15.628	832.496	628.728
321.168	15.665	831.954	628.399
322.183	15.746	831.391	628.221
323.197	15.720	831.249	627.961
324.212	15.772	830.039	627.186
325.227	15.778	829.606	626.826
326.241	15.712	829.305	626.297
327.256	15.802	828.601	626.045
328.270	15.850	827.907	625.644
329.285	15.834	827.273	625.051
330.300	15.736	827.151	624.539
331.314	15.792	826.372	624.103
332.329	15.911	825.597	623.904
333.343	15.891	825.120	623.415
334.358	15.854	824.475	622.735
335.373	15.912	824.609	622.996
336.387	15.788	823.736	621.821
337.402	16.025	823.367	622.364
338.416	15.869	822.900	621.380
339.431	15.985	822.006	621.079
340.446	16.018	821.355	620.652
341.460	16.002	821.126	620.365
342.475	16.118	820.495	620.262
343.489	16.212	819.775	620.007
344.504	16.093	819.287	619.146
345.519	16.124	818.921	618.930
346.533	16.328	818.099	619.001
347.548	16.368	817.668	618.765
348.562	16.155	817.123	617.521
349.577	16.303	816.268	617.361
350.592	16.059	816.268	616.414
351.606	16.127	815.646	616.135
352.621	15.981	815.532	615.462
353.635	16.136	815.003	615.574
354.650	16.091	814.743	615.160
355.665	16.158	814.217	614.952
356.679	16.289	813.639	614.938
357.694	16.159	813.400	614.229
358.708	16.275	812.308	613.774
359.723	16.290	811.768	613.364
360.738	16.219	811.539	612.880
361.752	16.319	811.224	612.952
362.767	16.330	810.541	612.420
363.781	16.396	810.161	612.317
364.796	16.340	809.867	611.838
365.810	16.377	809.451	611.606
366.825	16.479	808.777	611.412
367.840	16.573	808.371	611.388
368.854	16.577	808.008	611.074
369.869	16.449	807.801	610.401
370.883	16.412	807.085	609.674
371.898	16.667	806.255	609.910
372.913	16.533	806.053	609.221
373.927	16.499	805.505	608.634
374.942	16.519	804.714	608.050
375.956	16.590	804.224	607.882
376.971	16.568	803.872	607.483
377.986	16.678	803.053	607.205
379.000	16.764	802.391	606.962
380.015	16.816	801.986	606.785
381.029	16.823	801.589	606.458
382.044	16.762	801.123	605.834
383.059	16.876	800.258	605.534
384.073	16.881	799.817	605.164
385.088	16.716	799.464	604.253
386.102	16.870	798.730	604.192
387.117	16.732	798.363	603.370
388.132	16.806	797.842	603.188
389.146	16.606	797.646	602.273
390.161	16.793	797.421	602.716
391.175	16.825	796.819	602.323
392.190	16.964	796.130	602.242
393.205	16.971	795.914	602.050
394.219	16.809	795.322	600.974
395.234	16.753	794.873	600.381
396.248	16.897	794.297	600.404
397.263	16.833	794.089	599.969
398.278	16.787	793.671	599.437
399.292	16.810	792.845	598.841
400.307	16.827	792.346	598.471
401.321	16.789	792.368	598.299
402.336	16.754	792.097	597.918
403.350	16.936	791.688	598.200
404.365	16.988	791.152	597.926
405.380	16.880	790.975	597.359
406.394	16.923	790.086	596.785
407.409	17.011	789.877	596.884
408.423	17.064	789.357	596.624
409.438	17.225	788.585	596.552
410.453	17.096	788.361	595.876
411.467	17.117	787.935	595.576
412.482	17.181	787.064	595.090
413.496	17.296	786.802	595.244
414.511	17.118	787.010	594.725
415.526	17.157	786.487	594.413
416.540	17.352	785.834	594.547
417.555	17.205	785.651	593.842
418.569	17.261	785.147	593.604
419.584	17.238	784.530	593.005
420.599	17.381	784.187	593.192
421.613	108.798	1289.938	1468.396
422.628	93.184	1363.594	1468.494
