DTS Sentinel unit serial number:	SN413079Multiplexer serial number:	ORYXHardware model number:	OX4-SRSoftware version number:	ORYX F/W v4.00 Oryx Data Collector v3.7.2.0data status	okinstallation	princeton_trtdifferential loss correction	single-endedforward channel	channel 3reverse channel	N/Adate	2019/09/16time	06:04:34forward acquisition time	60.00reverse acquisition time	0.00gamma	496.2192k internal	0.2334k external	0.2334temperature offset calibration	0.9959default loss term (dB/km)	0.3790temperature slope calibration	1.0000multiplexer offset coefficient	1.0000multiplexer slope coefficient	1.0000fibre end	0.00T internal ref (°C)	27.44T ext. ref 1 (°C)	11.27T ext. ref 2 (°C)	21.96length (m)	temperature (°C)	Stokes	anti-Stokes-747.200	-15.207	-0.331	0.213
-746.185	346.676	-0.148	-0.293
-745.171	125.241	0.091	0.116
-744.156	-93.626	-0.222	0.062
-743.142	-86.905	0.205	-0.063
-742.127	-200.000	-0.061	0.422
-741.112	-42.124	-0.251	0.129
-740.098	-88.885	0.144	0.043
-739.083	84.353	-0.154	0.169
-738.069	9.393	-0.165	-0.125
-737.054	-200.000	0.042	-0.256
-736.039	-64.176	-0.303	0.124
-735.025	378.356	-0.109	-0.223
-734.010	268.311	-0.064	-0.113
-732.996	-104.665	-0.261	-0.060
-731.981	209.666	0.159	0.250
-730.966	-70.660	0.168	-0.064
-729.952	28.642	-0.263	-0.223
-728.937	-102.445	-0.182	0.044
-727.923	128.017	-0.273	-0.348
-726.908	513.999	0.098	-0.229
-725.894	155.065	-0.193	-0.266
-724.879	45.025	0.165	-0.153
-723.864	-160.761	-0.120	0.006
-722.850	158.301	-0.143	-0.199
-721.835	-200.000	0.075	-0.351
-720.821	-87.245	-0.414	0.126
-719.806	158.974	-0.039	-0.055
-718.791	15.011	-0.122	-0.096
-717.777	483.742	0.120	-0.274
-716.762	-123.873	0.147	-0.023
-715.748	-54.287	-0.222	-0.101
-714.733	82.798	0.084	-0.091
-713.718	-60.238	-0.184	0.079
-712.704	36.270	-0.075	-0.067
-711.689	-200.000	-0.047	-0.253
-710.675	-200.000	0.054	-0.452
-709.660	305.796	-0.090	-0.168
-708.645	800.000	0.074	-0.223
-707.631	311.921	-0.203	-0.382
-706.616	20.657	0.234	0.190
-705.602	-150.623	-0.035	0.003
-704.587	-10.986	0.271	-0.180
-703.572	800.000	-0.086	-0.300
-702.558	-195.020	-0.182	-0.001
-701.543	53.995	-0.129	-0.124
-700.529	-56.007	-0.033	-0.015
-699.514	-158.385	-0.298	-0.017
-698.499	-57.931	-0.349	-0.153
-697.485	-92.253	-0.322	0.091
-696.470	-70.546	0.200	-0.076
-695.456	-200.000	0.011	0.147
-694.441	-59.931	-0.321	-0.138
-693.426	66.319	0.194	-0.197
-692.412	108.176	0.097	0.116
-691.397	216.852	-0.036	0.057
-690.383	800.000	-0.031	-0.105
-689.368	-200.000	0.031	-0.177
-688.354	800.000	-0.094	0.408
-687.339	328.221	0.116	-0.224
-686.324	8.881	-0.138	0.104
-685.310	-87.636	0.071	0.022
-684.295	-86.540	0.212	-0.065
-683.281	800.000	0.023	-0.082
-682.266	-117.769	-0.231	0.042
-681.251	-200.000	0.195	0.001
-680.237	800.000	-0.085	0.305
-679.222	26.723	-0.042	0.035
-678.208	-200.000	0.057	-0.435
-677.193	800.000	-0.048	0.191
-676.178	-77.701	0.222	-0.077
-675.164	58.578	0.244	-0.240
-674.149	233.025	0.011	0.018
-673.135	-200.000	-0.010	-0.211
-672.120	-106.529	-0.278	-0.062
-671.105	-200.000	-0.035	0.176
-670.091	36.182	0.159	-0.140
-669.076	-86.993	-0.120	-0.037
-668.062	-112.457	-0.168	0.034
-667.047	-200.000	0.017	0.192
-666.032	100.691	0.205	0.238
-665.018	-155.633	0.113	-0.007
-664.003	800.000	-0.057	-0.170
-662.989	0.843	0.325	-0.233
-661.974	800.000	-0.042	0.128
-660.959	30.707	-0.158	-0.135
-659.945	800.000	-0.078	-0.296
-658.930	-15.389	-0.132	0.085
-657.916	-83.888	-0.290	-0.093
-656.901	68.294	-0.100	0.102
-655.886	315.545	-0.110	0.208
-654.872	98.796	0.178	0.206
-653.857	111.356	-0.095	-0.114
-652.843	-200.000	-0.021	0.324
-651.828	91.738	-0.065	-0.073
-650.814	-200.000	0.055	0.324
-649.799	273.063	-0.160	0.283
-648.784	800.000	0.025	-0.078
-647.770	-30.585	0.109	-0.062
-646.755	431.430	0.046	0.100
-645.741	148.616	-0.031	-0.042
-644.726	800.000	0.034	0.137
-643.711	-22.294	0.203	-0.123
-642.697	800.000	0.067	-0.225
-641.682	-98.661	0.151	0.038
-640.668	799.821	-0.042	0.117
-639.653	-86.998	0.171	0.052
-638.638	70.118	-0.051	0.053
-637.624	-126.386	-0.243	0.036
-636.609	144.063	-0.093	0.124
-635.595	31.066	-0.305	-0.262
-634.580	-24.106	-0.187	-0.112
-633.565	782.852	-0.084	-0.230
-632.551	-46.804	-0.205	-0.100
-631.536	-59.155	-0.085	0.037
-630.522	-84.536	0.050	0.016
-629.507	518.974	-0.131	0.308
-628.492	195.288	-0.140	0.213
-627.478	-70.194	0.188	-0.072
-626.463	83.941	0.037	0.040
-625.449	374.427	-0.001	-0.003
-624.434	-200.000	0.020	0.248
-623.419	-56.738	-0.216	-0.095
-622.405	-200.000	0.043	-0.262
-621.390	-59.677	0.136	-0.058
-620.376	-22.441	-0.360	-0.218
-619.361	68.508	-0.218	-0.224
-618.346	-76.938	0.363	0.127
-617.332	-200.000	0.005	0.087
-616.317	281.564	-0.164	-0.294
-615.303	-141.389	0.246	-0.025
-614.288	-67.475	0.322	0.126
-613.273	-72.581	-0.320	-0.118
-612.259	-32.553	0.439	0.244
-611.244	55.798	0.151	0.146
-610.230	-146.219	-0.180	-0.016
-609.215	-37.224	-0.278	-0.149
-608.201	800.000	0.079	-0.322
-607.186	15.991	-0.161	-0.127
-606.171	-200.000	-0.012	0.231
-605.157	184.816	-0.133	-0.197
-604.142	-65.960	0.216	-0.086
-603.128	143.939	-0.055	-0.074
-602.113	-7.383	-0.089	-0.060
-601.098	69.661	0.137	-0.141
-600.084	745.526	-0.125	-0.336
-599.069	-144.634	0.269	-0.025
-598.055	-58.912	0.305	0.132
-597.040	-200.000	0.033	0.217
-596.025	301.103	-0.023	-0.043
-595.011	578.226	0.040	-0.097
-593.996	-200.000	0.011	-0.210
-592.982	-137.624	0.221	0.025
-591.967	-76.310	-0.207	0.073
-590.952	-200.000	-0.069	0.336
-589.938	-46.331	0.124	0.061
-588.923	-51.482	-0.042	0.020
-587.909	263.253	-0.149	0.258
-586.894	-160.263	-0.122	-0.007
-585.879	-117.944	0.167	0.030
-584.865	-1.207	-0.138	-0.098
-583.850	-200.000	-0.028	-0.139
-582.836	-87.017	-0.247	0.075
-581.821	672.812	0.112	0.289
-580.806	-191.401	-0.185	0.002
-579.792	-154.427	-0.523	0.035
-578.777	17.065	-0.263	0.208
-577.763	756.982	0.090	-0.243
-576.748	-65.385	0.200	-0.080
-575.733	209.056	0.091	-0.143
-574.719	-54.252	0.387	0.176
-573.704	800.000	0.068	0.295
-572.690	-48.525	0.288	0.138
-571.675	245.809	-0.090	-0.152
-570.661	69.593	0.277	0.285
-569.646	-200.000	-0.003	0.153
-568.631	-68.369	0.247	-0.096
-567.617	-1.418	0.233	0.164
-566.602	117.491	0.090	-0.111
-565.588	800.000	-0.075	-0.209
-564.573	-43.690	0.105	0.053
-563.558	-122.700	-0.197	0.032
-562.544	78.164	-0.175	-0.186
-561.529	509.744	-0.183	-0.425
-560.515	-50.915	-0.247	-0.116
-559.500	800.000	0.035	0.118
-558.485	-1.187	0.132	0.093
-557.471	391.923	0.149	-0.309
-556.456	278.198	-0.066	-0.118
-555.442	-29.544	0.147	0.084
-554.427	-116.228	-0.246	0.045
-553.412	-82.317	0.302	-0.098
-552.398	-200.000	-0.069	-0.327
-551.383	-148.853	-0.252	-0.020
-550.369	-129.085	0.069	0.010
-549.354	-200.000	-0.007	0.117
-548.339	-10.091	-0.244	0.161
-547.325	-178.129	-0.213	-0.005
-546.310	-200.000	0.011	0.237
-545.296	54.658	0.156	-0.150
-544.281	-122.438	0.329	0.053
-543.266	115.241	-0.053	0.065
-542.252	-26.508	-0.286	0.167
-541.237	-200.000	0.028	-0.182
-540.223	-200.000	-0.012	-0.054
-539.208	800.000	-0.016	-0.058
-538.193	207.620	-0.033	0.052
-537.179	330.438	-0.006	0.011
-536.164	-148.323	0.158	-0.013
-535.150	-57.915	0.181	-0.079
-534.135	262.569	-0.119	-0.205
-533.121	169.432	-0.112	-0.160
-532.106	-67.990	0.146	0.057
-531.091	-21.246	-0.343	0.209
-530.077	151.158	0.263	-0.357
-529.062	16.988	-0.153	0.120
-528.048	697.276	-0.079	-0.206
-527.033	30.961	-0.233	-0.199
-526.018	204.811	0.083	0.128
-525.004	369.856	0.068	-0.137
-523.989	-200.000	-0.001	-0.189
-522.975	142.627	-0.085	-0.112
-521.960	-45.821	0.250	0.123
-520.945	-200.000	0.049	-0.220
-519.931	-73.746	0.116	-0.042
-518.916	-161.468	0.130	0.007
-517.902	-200.000	-0.218	-0.001
-516.887	-200.000	0.000	0.181
-515.872	-98.007	0.306	0.079
-514.858	-200.000	0.003	0.175
-513.843	-200.000	0.018	0.119
-512.829	-49.641	0.017	0.008
-511.814	295.855	0.031	-0.056
-510.799	800.000	-0.115	-0.408
-509.785	152.191	0.176	-0.239
-508.770	-33.992	-0.076	-0.042
-507.756	-200.000	0.019	0.085
-506.741	480.837	-0.039	0.089
-505.726	137.143	-0.036	-0.046
-504.712	-110.946	-0.099	-0.020
-503.697	6.961	-0.066	-0.049
-502.683	188.572	-0.056	-0.084
-501.668	-200.000	-0.003	0.188
-500.653	-88.639	0.387	0.115
-499.639	307.704	0.117	0.217
-498.624	-24.021	-0.086	0.051
-497.610	128.351	0.120	0.152
-496.595	-142.309	0.070	0.007
-495.581	130.372	0.163	0.207
-494.566	-200.000	-0.045	0.222
-493.551	509.164	0.084	-0.194
-492.537	-146.894	0.076	-0.007
-491.522	-157.203	-0.011	0.001
-490.508	-36.934	-0.325	-0.174
-489.493	-200.000	0.015	-0.120
-488.478	39.809	-0.339	-0.303
-487.464	17.508	-0.219	-0.173
-486.449	13.813	0.148	0.115
-485.435	-183.692	-0.092	0.002
-484.420	-50.042	0.065	0.031
-483.405	-200.000	-0.001	0.004
-482.391	337.047	-0.119	0.231
-481.376	-200.000	-0.008	0.078
-480.362	1.246	0.118	-0.084
-479.347	547.998	0.057	-0.136
-478.332	-130.640	0.354	0.047
-477.318	-73.128	0.215	-0.079
-476.303	41.833	0.130	-0.118
-475.289	34.281	-0.214	-0.186
-474.274	-170.903	0.367	0.012
-473.259	-80.594	0.039	-0.013
-472.245	-166.237	-0.162	-0.007
-471.230	-19.691	-0.055	-0.034
-470.216	355.444	-0.078	-0.155
-469.201	-41.448	0.272	-0.139
-468.186	-183.067	0.194	0.003
-467.172	190.041	-0.074	0.111
-466.157	-45.225	-0.244	0.120
-465.143	-125.899	-0.159	0.024
-464.128	212.715	-0.037	-0.057
-463.113	-200.000	0.003	0.118
-462.099	-200.000	-0.018	-0.404
-461.084	-103.317	-0.134	-0.031
-460.070	-152.718	0.246	0.017
-459.055	-114.239	-0.126	0.024
-458.040	-138.253	-0.248	-0.027
-457.026	-57.038	-0.322	-0.141
-456.011	-92.290	-0.345	-0.097
-454.997	473.210	0.105	-0.235
-453.982	-200.000	-0.005	0.166
-452.968	-200.000	0.023	0.354
-451.953	-45.838	0.096	0.047
-450.938	547.450	-0.052	-0.124
-449.924	224.286	-0.074	-0.118
-448.909	-94.095	0.216	-0.059
-447.895	284.686	0.062	-0.111
-446.880	364.086	0.036	-0.072
-445.865	-72.039	-0.151	-0.056
-444.851	2.177	0.333	0.239
-443.836	-137.703	-0.295	0.033
-442.822	-120.317	0.327	-0.055
-441.807	-86.591	0.307	-0.094
-440.792	-139.251	0.227	-0.024
-439.778	167.422	-0.035	-0.050
-438.763	77.584	0.204	0.216
-437.749	256.029	-0.117	0.199
-436.734	-200.000	-0.000	0.225
-435.719	-76.318	-0.097	-0.034
-434.705	28.903	0.172	0.144
-433.690	-129.271	0.268	-0.037
-432.676	35.180	-0.233	0.203
-431.661	-85.124	-0.155	-0.048
-430.646	-186.532	0.120	-0.002
-429.632	-200.000	-0.004	0.076
-428.617	-200.000	0.054	-0.273
-427.603	-114.017	-0.253	0.049
-426.588	-48.183	-0.281	-0.135
-425.573	794.680	0.053	-0.146
-424.559	-90.596	-0.321	0.092
-423.544	5.822	0.246	0.180
-422.530	620.049	0.039	0.097
-421.515	241.047	-0.048	0.080
-420.500	-57.166	-0.108	0.047
-419.486	101.810	0.136	0.158
-418.471	-198.267	-0.242	-0.001
-417.457	8.029	0.102	-0.076
-416.442	498.589	-0.030	-0.068
-415.428	-149.471	-0.294	-0.023
-414.413	352.089	-0.102	-0.200
-413.398	800.000	0.107	0.391
-412.384	800.000	0.113	0.321
-411.369	683.994	0.190	0.492
-410.355	278.789	-0.066	-0.118
-409.340	373.738	0.116	-0.234
-408.325	-71.564	0.072	-0.027
-407.311	800.000	0.060	0.209
-406.296	-11.863	0.294	0.191
-405.282	800.000	-0.081	-0.307
-404.267	175.392	0.135	0.193
-403.252	6.242	-0.112	-0.082
-402.238	213.562	0.147	0.230
-401.223	800.000	0.028	-0.112
-400.209	228.065	-0.060	-0.097
-399.194	-51.907	-0.347	-0.160
-398.179	-93.758	0.039	-0.011
-397.165	-101.150	-0.111	0.027
-396.150	-15.725	-0.057	0.036
-395.136	-200.000	-0.008	0.123
-394.121	300.429	0.074	-0.135
-393.106	-63.289	0.150	-0.061
-392.092	-107.298	0.160	-0.035
-391.077	-200.000	-0.016	-0.159
-390.063	-112.129	0.237	0.047
-389.048	426.607	0.127	0.272
-388.033	-166.201	-0.482	-0.020
-387.019	64.033	0.190	0.190
-386.004	191.919	0.158	-0.236
-384.990	92.818	-0.190	-0.212
-383.975	96.182	-0.209	-0.237
-382.960	-48.020	-0.175	0.084
-381.946	1.276	0.276	-0.196
-380.931	-200.000	0.011	0.189
-379.917	13.291	0.283	0.217
-378.902	395.476	-0.064	-0.131
-377.888	-24.677	-0.120	-0.071
-376.873	478.604	-0.100	-0.225
-375.858	-200.000	0.066	0.394
-374.844	-157.202	-0.076	-0.005
-373.829	-111.401	-0.202	0.041
-372.815	-62.651	-0.080	0.033
-371.800	172.540	0.063	0.090
-370.785	-19.440	0.079	0.048
-369.771	800.000	0.053	0.200
-368.756	357.134	0.215	-0.424
-367.742	-31.286	-0.209	-0.117
-366.727	-127.684	-0.227	-0.032
-365.712	122.434	-0.148	0.184
-364.698	179.985	0.122	-0.177
-363.683	353.112	0.055	0.109
-362.669	-3.565	0.217	-0.150
-361.654	67.834	0.115	-0.116
-360.639	-90.670	-0.347	-0.099
-359.625	13.175	0.024	-0.018
-358.610	800.000	-0.043	0.121
-357.596	-96.633	-0.186	0.049
-356.581	-200.000	-0.038	-0.314
-355.566	-90.645	-0.158	0.045
-354.552	152.493	0.200	0.271
-353.537	800.000	-0.078	0.315
-352.523	12.758	0.365	-0.279
-351.508	-200.000	0.024	-0.267
-350.493	281.574	0.051	0.091
-349.479	-13.878	-0.264	-0.169
-348.464	800.000	0.055	0.212
-347.450	-32.231	-0.219	-0.121
-346.435	-165.056	0.338	0.015
-345.420	-39.304	-0.130	-0.067
-344.406	42.231	-0.306	0.275
-343.391	-10.295	-0.140	0.092
-342.377	-86.302	0.339	-0.103
-341.362	-200.000	0.044	0.354
-340.348	-10.294	-0.137	0.090
-339.333	-21.095	0.222	0.134
-338.318	317.821	-0.021	0.039
-337.304	-101.104	-0.169	-0.041
-336.289	-5.098	-0.324	-0.221
-335.275	-125.816	-0.262	-0.039
-334.260	190.845	-0.157	-0.234
-333.245	338.406	-0.132	-0.253
-332.231	466.277	0.013	-0.029
-331.216	-200.000	0.021	-0.136
-330.202	-200.000	0.048	-0.000
-329.187	800.000	-0.051	-0.184
-328.172	-200.000	0.006	-0.071
-327.158	800.000	-0.137	-0.472
-326.143	-72.256	-0.200	0.073
-325.129	59.388	0.191	0.186
-324.114	-200.000	0.013	0.201
-323.099	-200.000	-0.052	-0.273
-322.085	464.494	-0.038	-0.083
-321.070	-80.941	-0.024	-0.008
-320.056	584.408	-0.150	0.363
-319.041	17.882	0.069	0.055
-318.026	446.150	0.062	0.135
-317.012	11.548	0.178	0.135
-315.997	339.535	-0.125	0.242
-314.983	167.752	-0.157	-0.221
-313.968	-200.000	-0.003	0.149
-312.953	40.103	-0.235	-0.209
-311.939	-25.498	0.207	0.121
-310.924	-200.000	-0.013	-0.260
-309.910	76.179	0.099	-0.103
-308.895	-137.081	0.246	0.028
-307.880	458.004	0.117	0.257
-306.866	-101.534	-0.234	0.056
-305.851	-128.860	-0.003	-0.000
-304.837	154.749	-0.235	-0.320
-303.822	28.005	-0.160	0.133
-302.807	70.585	-0.154	0.158
-301.793	230.860	0.149	0.241
-300.778	-159.468	0.223	0.012
-299.764	165.377	0.076	-0.106
-298.749	462.983	-0.123	0.272
-297.735	800.000	-0.015	-0.051
-296.720	-98.547	-0.058	-0.015
-295.705	-160.531	0.248	0.013
-294.691	-59.269	-0.100	-0.043
-293.676	-168.262	0.109	0.004
-292.662	505.284	0.042	0.095
-291.647	-116.792	0.339	0.061
-290.632	-200.000	0.020	0.154
-289.618	-200.000	0.001	-0.040
-288.603	800.000	0.056	0.170
-287.589	85.877	-0.177	0.192
-286.574	-91.738	-0.107	0.030
-285.559	13.407	0.140	-0.107
-284.545	-3.634	-0.354	0.243
-283.530	-128.314	-0.262	0.037
-282.516	-70.492	-0.385	-0.144
-281.501	-108.160	-0.072	0.015
-280.486	-153.427	-0.116	0.008
-279.472	27.848	0.155	0.129
-278.457	54.499	0.113	-0.108
-277.443	656.411	0.016	0.040
-276.428	-98.893	0.146	-0.037
-275.413	-116.966	-0.203	0.037
-274.399	-119.587	0.081	-0.014
-273.384	-11.468	-0.154	0.100
-272.370	111.881	-0.155	0.185
-271.355	800.000	-0.121	0.359
-270.340	-131.473	0.097	-0.013
-269.326	184.301	0.295	0.431
-268.311	525.877	-0.129	-0.299
-267.297	-200.000	0.023	-0.144
-266.282	-200.000	-0.030	0.159
-265.267	-23.048	-0.142	-0.085
-264.253	571.417	-0.040	-0.096
-263.238	-25.576	-0.143	-0.083
-262.224	800.000	-0.050	-0.184
-261.209	-75.886	0.057	-0.020
-260.195	569.080	-0.043	0.103
-259.180	65.473	-0.185	0.184
-258.165	800.000	0.161	0.545
-257.151	-78.845	-0.182	-0.061
-256.136	-72.576	0.285	-0.104
-255.122	-17.391	-0.113	-0.070
-254.107	800.000	0.046	0.177
-253.092	-11.453	-0.326	-0.212
-252.078	372.745	-0.149	-0.298
-251.063	59.332	-0.091	-0.088
-250.049	545.465	-0.070	0.165
-249.034	113.112	0.103	-0.123
-248.019	800.000	-0.026	0.071
-247.005	245.924	-0.081	-0.135
-245.990	-38.573	-0.203	-0.106
-244.976	-200.000	-0.026	-0.146
-243.961	-106.545	-0.211	0.046
-242.946	14.992	0.109	-0.084
-241.932	-110.937	0.125	-0.025
-240.917	-109.653	0.115	0.024
-239.903	800.000	0.077	0.310
-238.888	151.917	0.094	0.126
-237.873	-23.733	0.086	-0.051
-236.859	67.232	-0.102	-0.102
-235.844	-174.911	0.368	0.010
-234.830	-131.648	0.152	0.020
-233.815	-65.682	0.057	0.022
-232.800	800.000	-0.021	-0.057
-231.786	21.262	-0.068	-0.054
-230.771	44.231	-0.242	-0.218
-229.757	800.000	0.130	0.519
-228.742	-200.000	-0.021	-0.247
-227.727	154.593	0.100	0.135
-226.713	-57.292	0.154	-0.067
-225.698	-124.980	0.132	-0.020
-224.684	-104.264	-0.330	0.075
-223.669	21.525	-0.284	-0.228
-222.655	20.491	-0.095	-0.076
-221.640	800.000	0.124	0.459
-220.625	-179.544	-0.359	0.008
-219.611	64.409	0.101	-0.100
-218.596	57.412	-0.080	-0.077
-217.582	-200.000	0.012	0.122
-216.567	-65.010	-0.253	0.101
-215.552	192.567	0.172	-0.255
-214.538	-5.980	0.081	0.054
-213.523	81.103	-0.216	-0.230
-212.509	-38.630	-0.088	0.046
-211.494	-47.170	-0.258	-0.124
-210.479	-45.753	0.224	0.109
-209.465	316.644	0.231	-0.430
-208.450	121.886	0.081	0.099
-207.436	-34.792	-0.218	-0.117
-206.421	-200.000	-0.003	-0.096
-205.406	-133.107	0.015	0.002
-204.392	429.605	0.105	0.223
-203.377	113.109	0.085	0.101
-202.363	-137.990	0.270	-0.030
-201.348	-98.432	-0.357	-0.090
-200.333	-40.159	0.218	-0.112
-199.319	-200.000	-0.015	-0.111
-198.304	4.216	0.131	0.094
-197.290	800.000	-0.159	-0.549
-196.275	800.000	0.112	-0.348
-195.260	-137.545	-0.211	0.023
-194.246	143.115	0.105	0.137
-193.231	395.518	0.088	0.180
-192.217	-200.000	0.038	0.183
-191.202	-84.592	0.334	0.104
-190.187	-200.000	0.037	-0.410
-189.173	-163.690	0.393	0.018
-188.158	161.711	0.237	0.327
-187.144	800.000	-0.061	0.213
-186.129	190.037	0.033	0.049
-185.114	113.054	-0.056	0.067
-184.100	34.130	0.081	-0.070
-183.085	-12.783	-0.089	-0.057
-182.071	800.000	-0.012	0.047
-181.056	-93.250	0.253	-0.069
-180.042	338.142	-0.114	0.218
-179.027	-200.000	-0.013	0.348
-178.012	121.733	0.123	0.150
-176.998	-8.370	-0.082	0.054
-175.983	-92.727	0.230	0.063
-174.969	-200.000	0.023	-0.149
-173.954	-99.717	-0.203	-0.050
-172.939	-74.442	0.053	0.019
-171.925	-144.063	0.227	-0.021
-170.910	-200.000	-0.050	-0.312
-169.896	41.093	0.102	-0.091
-168.881	-111.861	0.123	0.024
-167.866	677.086	-0.070	-0.177
-166.852	168.530	-0.129	0.180
-165.837	147.645	0.077	0.102
-164.823	-129.589	0.260	0.035
-163.808	58.864	0.074	0.072
-162.793	-34.793	0.256	-0.137
-161.779	800.000	-0.091	0.367
-160.764	81.885	-0.101	-0.107
-159.750	-65.082	0.370	-0.147
-158.735	302.814	-0.014	-0.026
-157.720	228.570	0.151	0.241
-156.706	143.201	0.238	0.311
-155.691	-67.761	-0.380	-0.146
-154.677	-100.396	0.097	-0.024
-153.662	-67.427	0.066	0.026
-152.647	28.354	0.224	0.186
-151.633	-3.035	0.288	0.198
-150.618	94.055	-0.019	0.021
-149.604	-29.278	0.171	-0.096
-148.589	-47.724	-0.154	0.073
-147.574	694.210	0.113	0.292
-146.560	-200.000	0.020	-0.192
-145.545	-154.921	-0.158	0.010
-144.531	-91.540	-0.211	-0.059
-143.516	-200.000	-0.018	-0.271
-142.502	84.726	0.063	0.067
-141.487	-200.000	-0.084	0.402
-140.472	-200.000	-0.010	0.351
-139.458	-200.000	-0.025	0.284
-138.443	-63.314	0.284	0.115
-137.429	800.000	0.080	0.223
-136.414	164.467	-0.179	0.247
-135.399	134.674	0.097	0.124
-134.385	-83.644	0.287	0.090
-133.370	-143.288	-0.165	-0.016
-132.356	-52.400	-0.163	-0.074
-131.341	-137.743	-0.189	0.021
-130.326	-200.000	-0.010	0.138
-129.312	-73.811	-0.191	-0.068
-128.297	-61.472	-0.157	-0.065
-127.283	800.000	0.075	0.306
-126.268	-200.000	-0.017	-0.182
-125.253	-92.761	0.094	-0.026
-124.239	117.776	0.023	0.028
-123.224	33.154	0.124	0.106
-122.210	214.163	-0.180	-0.279
-121.195	148.202	-0.047	0.062
-120.180	164.990	-0.112	0.155
-119.166	-181.523	0.242	0.005
-118.151	-200.000	0.040	0.298
-117.137	800.000	-0.036	0.140
-116.122	-45.442	-0.175	0.085
-115.107	-43.126	0.084	-0.042
-114.093	377.109	0.136	0.272
-113.078	-93.896	-0.077	0.021
-112.064	-25.860	-0.317	0.183
-111.049	142.516	-0.151	0.197
-110.034	170.811	0.266	-0.374
-109.020	-146.250	0.233	0.020
-108.005	-200.000	0.019	-0.313
-106.991	31.906	0.262	-0.222
-105.976	202.193	0.178	-0.269
-104.962	-200.000	0.016	0.466
-103.947	-86.795	0.233	0.070
-102.932	376.429	0.070	-0.139
-101.918	-98.551	0.067	-0.017
-100.903	-80.765	-0.224	-0.073
-99.889	468.411	0.049	-0.107
-98.874	160.565	-0.132	-0.180
-97.859	-200.000	-0.009	0.105
-96.845	10.695	-0.261	-0.195
-95.830	57.709	-0.193	-0.185
-94.816	-200.000	-0.017	0.243
-93.801	157.402	0.127	0.173
-92.786	-200.000	-0.005	0.157
-91.772	111.707	-0.091	0.107
-90.757	-154.881	-0.296	0.019
-89.743	-74.610	-0.131	0.046
-88.728	85.920	0.149	0.160
-87.713	-94.400	-0.106	0.028
-86.699	-200.000	-0.012	-0.377
-85.684	-134.893	-0.234	-0.028
-84.670	506.305	-0.145	0.330
-83.655	-45.669	-0.184	0.089
-82.640	-91.759	0.218	-0.061
-81.626	41.061	0.116	0.103
-80.611	-200.000	0.029	0.235
-79.597	212.537	0.160	-0.247
-78.582	623.532	0.032	0.080
-77.567	172.146	-0.058	-0.082
-76.553	-200.000	-0.029	0.278
-75.538	717.591	0.172	0.446
-74.524	-91.357	0.184	0.051
-73.509	-119.311	-0.437	-0.075
-72.494	275.139	0.047	0.081
-71.480	403.077	0.187	-0.385
-70.465	-3.707	0.341	-0.232
-69.451	-158.165	0.330	0.019
-68.436	105.146	0.212	-0.245
-67.422	48.283	-0.304	0.278
-66.407	136.640	0.016	0.020
-65.392	59.551	-0.239	0.230
-64.378	466.193	-0.041	-0.091
-63.363	5.172	-0.219	-0.158
-62.349	-15.473	-0.108	0.067
-61.334	58.057	-0.884	-0.847
-60.319	44.067	0.922	0.827
-59.305	-200.000	-0.106	-0.871
-58.290	596.506	0.537	1.301
-57.276	702.263	0.608	1.568
-56.261	-200.000	112.683	639.676
-55.246	468.762	1507.310	3309.762
-54.232	147.003	2677.272	3522.257
-53.217	103.099	2179.555	2498.199
-52.203	37.888	1706.573	1483.478
-51.188	30.488	1524.263	1274.427
-50.173	28.180	1499.394	1237.990
-49.159	52.734	1556.535	1454.885
-48.144	51.395	1572.731	1460.758
-47.130	30.758	1529.730	1280.652
-46.115	27.758	1513.933	1246.909
-45.100	27.546	1510.934	1242.944
-44.086	27.438	1508.835	1240.434
-43.071	27.413	1506.906	1238.625
-42.057	27.357	1505.284	1236.867
-41.042	27.386	1503.814	1235.803
-40.027	27.361	1502.563	1234.558
-39.013	27.389	1500.984	1233.399
-37.998	27.425	1499.485	1232.363
-36.984	27.338	1498.571	1230.974
-35.969	27.449	1496.807	1230.230
-34.954	27.401	1495.508	1228.784
-33.940	27.407	1494.235	1227.735
-32.925	27.426	1493.068	1226.851
-31.911	27.458	1491.565	1225.789
-30.896	27.386	1490.530	1224.401
-29.881	27.546	1488.868	1224.063
-28.867	27.528	1487.360	1222.654
-27.852	27.430	1486.555	1221.286
-26.838	27.489	1485.149	1220.481
-25.823	27.541	1483.138	1219.124
-24.809	27.558	1481.655	1217.969
-23.794	27.508	1480.807	1216.890
-22.779	27.409	1479.651	1215.230
-21.765	27.416	1478.385	1214.194
-20.750	27.423	1477.336	1213.330
-19.736	27.505	1476.018	1212.747
-18.721	27.470	1475.173	1211.766
-17.706	27.372	1474.347	1210.392
-16.692	27.478	1472.670	1209.669
-15.677	27.378	1471.982	1208.393
-14.663	27.527	1470.609	1208.209
-13.648	27.411	1470.153	1207.012
-12.633	27.360	1469.408	1206.019
-11.619	27.446	1468.797	1206.035
-10.604	27.469	1467.876	1205.388
-9.590	27.473	1466.691	1204.390
-8.575	27.406	1465.856	1203.213
-7.560	27.474	1464.605	1202.588
-6.546	27.434	1464.001	1201.782
-5.531	27.369	1463.183	1200.636
-4.517	27.312	1462.298	1199.485
-3.502	27.315	1461.189	1198.545
-2.487	27.421	1460.078	1198.282
-1.473	27.453	1459.005	1197.566
-0.458	27.457	1457.654	1196.440
0.556	25.906	1448.125	1185.138
1.571	23.026	1423.336	1146.110
2.586	19.768	1362.875	1077.065
3.600	18.247	1280.783	1003.189
4.615	17.163	1235.636	961.610
5.629	16.545	1183.212	917.376
6.644	14.092	1107.251	845.943
7.659	11.712	1073.345	808.215
8.673	11.366	1068.437	802.748
9.688	11.220	1065.232	799.551
10.702	11.180	1063.470	797.960
11.717	11.294	1061.338	796.849
12.731	12.116	1061.105	800.620
13.746	14.796	1064.254	816.025
14.761	17.277	1066.853	830.077
15.775	17.872	1067.039	833.054
16.790	17.160	1064.754	827.729
17.804	15.963	1062.861	820.358
18.819	15.196	1060.747	814.924
19.834	14.550	1059.825	811.005
20.848	14.248	1058.084	808.135
21.863	14.034	1057.707	806.735
22.877	13.803	1056.636	804.726
23.892	13.615	1056.449	803.601
24.907	13.620	1054.823	802.317
25.921	13.432	1054.310	800.948
26.936	13.573	1053.541	800.974
27.950	13.651	1052.167	800.237
28.965	13.623	1051.126	799.241
29.980	13.737	1049.955	798.826
30.994	13.763	1048.841	798.034
32.009	13.848	1048.129	797.830
33.023	13.931	1047.149	797.413
34.038	13.822	1046.618	796.411
35.053	13.703	1045.733	795.099
36.067	13.684	1045.094	794.451
37.082	13.812	1043.576	793.840
38.096	13.806	1042.799	793.150
39.111	13.731	1042.566	792.543
40.126	13.723	1041.583	791.691
41.140	13.625	1040.448	790.287
42.155	13.653	1039.283	789.467
43.169	13.576	1038.379	788.346
44.184	13.562	1037.073	787.215
45.199	13.513	1036.265	786.300
46.213	13.495	1035.561	785.612
47.228	13.533	1034.179	784.672
48.242	13.677	1033.332	784.643
49.257	13.623	1032.704	783.841
50.271	13.705	1031.554	783.287
51.286	13.633	1030.606	782.157
52.301	13.720	1029.655	781.778
53.315	13.705	1029.005	781.142
54.330	13.648	1028.074	780.102
55.344	13.701	1026.931	779.413
56.359	13.433	1026.588	777.823
57.374	13.558	1025.667	777.642
58.388	13.718	1024.296	777.288
59.403	13.626	1023.180	775.940
60.417	13.522	1022.623	774.963
61.432	13.555	1022.008	774.579
62.447	13.563	1021.467	774.141
63.461	13.555	1020.516	773.313
64.476	13.497	1019.771	772.408
65.490	13.369	1019.131	771.261
66.505	13.560	1017.712	771.008
67.520	13.491	1016.934	770.029
68.534	13.523	1016.307	769.634
69.549	13.479	1015.726	768.920
70.563	13.489	1014.860	768.245
71.578	13.527	1014.036	767.729
72.593	13.489	1013.112	766.787
73.607	13.458	1012.269	765.938
74.622	13.547	1011.376	765.605
75.636	13.435	1010.714	764.517
76.651	13.394	1009.556	763.388
77.666	13.518	1008.883	763.380
78.680	13.448	1008.249	762.509
79.695	13.258	1007.850	761.266
80.709	13.444	1007.050	761.450
81.724	13.569	1005.917	761.104
82.739	13.494	1005.494	760.368
83.753	13.590	1004.399	759.914
84.768	13.662	1004.079	759.935
85.782	13.688	1003.261	759.367
86.797	13.849	1002.429	759.409
87.812	13.835	1001.391	758.489
88.826	13.577	1001.009	756.956
89.841	13.591	999.934	756.141
90.855	13.683	998.585	755.472
91.870	13.767	998.195	755.494
92.884	13.817	997.533	755.152
93.899	13.775	997.115	754.575
94.914	13.787	996.051	753.761
95.928	13.871	994.985	753.268
96.943	13.930	994.313	752.959
97.957	13.756	993.700	751.640
98.972	13.744	992.751	750.803
99.987	13.793	992.101	750.466
101.001	13.756	991.196	749.546
102.016	13.799	990.523	749.166
103.030	13.808	989.204	748.145
104.045	13.742	988.520	747.264
105.060	13.946	987.430	747.292
106.074	13.804	986.707	746.040
107.089	13.627	985.806	744.495
108.103	13.569	984.757	743.380
109.118	13.565	983.634	742.446
110.133	13.593	983.230	742.200
111.147	13.666	982.207	741.689
112.162	13.694	981.181	740.973
113.176	13.592	980.758	740.134
114.191	13.627	979.816	739.515
115.206	13.725	978.763	739.091
116.220	13.529	978.409	737.885
117.235	13.729	977.093	737.717
118.249	13.538	976.846	736.614
119.264	13.643	975.442	735.960
120.279	13.654	974.904	735.536
121.293	13.619	973.946	734.593
122.308	13.531	973.079	733.485
123.322	13.620	972.255	733.193
124.337	13.505	971.576	732.109
125.352	13.568	970.112	731.218
126.366	13.599	968.695	730.222
127.381	13.526	967.757	729.126
128.395	13.451	967.141	728.271
129.410	13.494	966.038	727.563
130.424	13.572	965.004	727.062
131.439	13.524	964.517	726.421
132.454	13.529	963.636	725.716
133.468	13.638	962.594	725.343
134.483	13.738	961.759	725.086
135.497	13.646	961.713	724.587
136.512	13.660	960.544	723.704
137.527	13.600	960.231	723.140
138.541	13.701	959.166	722.716
139.556	13.609	958.558	721.791
140.570	13.768	957.418	721.560
141.585	13.709	956.827	720.795
142.600	13.733	956.724	720.760
143.614	13.783	955.676	720.124
144.629	13.940	954.581	719.913
145.643	13.846	954.205	719.157
146.658	13.956	953.089	718.732
147.673	13.790	952.606	717.585
148.687	13.795	951.594	716.781
149.702	13.669	951.253	715.918
150.716	13.698	950.156	715.151
151.731	13.663	949.398	714.369
152.746	13.727	948.447	713.865
153.760	13.824	947.413	713.441
154.775	13.772	946.804	712.694
155.789	13.881	945.858	712.388
156.804	13.801	945.435	711.665
157.819	13.756	944.787	710.922
158.833	13.784	944.188	710.526
159.848	13.999	943.271	710.694
160.862	14.063	942.537	710.351
161.877	14.070	941.508	709.539
162.892	13.837	940.920	708.041
163.906	13.794	939.887	707.017
164.921	13.760	939.427	706.464
165.935	13.788	937.950	705.413
166.950	13.833	936.969	704.803
167.964	13.992	935.776	704.518
168.979	13.959	935.022	703.745
169.994	13.978	934.309	703.229
171.008	13.911	933.666	702.398
172.023	13.841	933.196	701.688
173.037	14.016	932.084	701.526
174.052	14.186	930.985	701.353
175.067	14.053	930.809	700.601
176.081	13.978	929.858	699.506
177.096	13.950	929.017	698.696
178.110	13.923	928.291	697.971
179.125	13.970	927.534	697.538
180.140	13.902	927.036	696.818
181.154	13.855	926.328	696.027
182.169	13.994	925.699	696.073
183.183	14.085	925.125	695.961
184.198	14.233	924.322	695.914
185.213	14.097	923.577	694.724
186.227	14.144	922.508	694.054
187.242	14.196	922.662	694.327
188.256	14.358	921.635	694.167
189.271	14.406	921.224	693.997
190.286	14.286	920.214	692.673
191.300	14.114	919.454	691.325
192.315	14.003	918.609	690.168
193.329	13.934	917.685	689.126
194.344	13.942	917.350	688.847
195.359	14.009	916.808	688.659
196.373	14.079	916.226	688.450
197.388	14.260	915.845	688.851
198.402	14.231	915.230	688.208
199.417	14.285	914.871	688.102
200.432	14.429	914.007	687.986
201.446	14.493	913.336	687.684
202.461	14.499	913.319	687.633
203.475	14.520	912.891	687.337
204.490	14.428	912.470	686.578
205.504	14.496	911.153	685.806
206.519	14.389	910.113	684.524
207.534	14.407	909.546	684.111
208.548	14.328	909.168	683.443
209.563	14.411	908.268	683.048
210.577	14.442	907.616	682.623
211.592	14.509	906.804	682.224
212.607	14.490	906.828	682.104
213.621	14.610	906.152	682.028
214.636	14.547	905.250	681.030
215.650	14.698	904.376	680.930
216.665	14.594	904.159	680.280
217.680	14.504	903.506	679.362
218.694	14.746	902.722	679.698
219.709	14.660	902.821	679.361
220.723	14.585	901.966	678.355
221.738	14.705	900.938	678.008
222.753	14.705	899.814	677.102
223.767	14.771	899.337	676.951
224.782	14.789	898.555	676.375
225.796	14.632	898.368	675.541
226.811	14.856	897.155	675.473
227.826	14.743	896.603	674.540
228.840	14.781	895.752	673.993
229.855	14.770	895.253	673.515
230.869	14.848	894.661	673.324
231.884	14.682	893.978	672.083
232.899	14.671	893.536	671.648
233.913	14.667	892.441	670.747
234.928	14.795	891.703	670.649
235.942	14.847	890.887	670.183
236.957	14.692	890.312	669.070
237.972	14.762	889.724	668.850
238.986	14.737	889.207	668.304
240.001	14.660	888.949	667.741
241.015	14.758	887.857	667.251
242.030	14.808	887.295	666.969
243.045	14.775	886.592	666.253
244.059	14.902	885.998	666.251
245.074	14.909	885.010	665.479
246.088	14.868	884.539	664.903
247.103	14.862	884.243	664.599
248.117	14.876	883.671	664.162
249.132	14.907	883.264	663.923
250.147	15.072	882.209	663.726
251.161	15.171	881.769	663.726
252.176	15.170	880.991	663.080
253.190	15.290	880.495	663.120
254.205	15.325	879.906	662.759
255.220	15.189	879.380	661.767
256.234	15.406	878.178	661.659
257.249	15.377	877.843	661.235
258.263	15.329	877.093	660.420
259.278	15.415	876.655	660.369
260.293	15.370	876.252	659.830
261.307	15.366	875.586	659.258
262.322	15.337	875.240	658.825
263.336	15.478	874.598	658.834
264.351	15.540	873.910	658.502
265.366	15.442	873.352	657.640
266.380	15.562	872.785	657.623
267.395	15.418	872.086	656.474
268.409	15.448	871.242	655.898
269.424	15.580	870.143	655.531
270.439	15.548	869.621	654.953
271.453	15.371	869.077	653.794
272.468	15.469	868.344	653.569
273.482	15.501	867.613	653.083
274.497	15.604	866.495	652.584
275.512	15.400	866.240	651.543
276.526	15.554	865.690	651.671
277.541	15.667	864.935	651.483
278.555	15.478	864.638	650.469
279.570	15.556	863.706	650.010
280.585	15.722	863.253	650.254
281.599	15.740	862.655	649.815
282.614	15.651	862.236	649.100
283.628	15.546	861.698	648.230
284.643	15.654	860.912	647.998
285.657	15.580	860.725	647.518
286.672	15.600	859.934	646.943
287.687	15.725	859.407	646.966
288.701	15.803	858.749	646.715
289.716	15.748	858.157	646.001
290.730	15.819	857.718	645.887
291.745	15.765	857.172	645.209
292.760	15.771	855.988	644.287
293.774	15.812	855.596	644.088
294.789	15.843	855.468	644.055
295.803	15.752	854.800	643.147
296.818	15.803	853.984	642.671
297.833	15.907	853.287	642.486
298.847	15.907	853.035	642.239
299.862	15.821	852.058	641.122
300.876	15.986	851.161	641.016
301.891	16.007	850.509	640.549
302.906	16.017	850.181	640.282
303.920	16.000	849.153	639.387
304.935	15.995	849.065	639.245
305.949	16.118	848.346	639.114
306.964	16.158	847.589	638.639
307.979	16.042	846.917	637.636
308.993	16.120	846.570	637.615
310.008	16.108	846.116	637.170
311.022	16.049	845.687	636.569
312.037	16.210	844.821	636.467
313.052	16.074	844.621	635.750
314.066	16.133	843.866	635.346
315.081	15.856	843.703	634.123
316.095	16.043	842.895	634.164
317.110	16.014	842.131	633.424
318.125	15.909	841.841	632.755
319.139	16.017	841.671	632.977
320.154	16.140	840.697	632.650
321.168	16.121	840.410	632.305
322.183	16.122	839.650	631.684
323.197	16.292	839.077	631.832
324.212	16.062	838.948	630.817
325.227	16.097	837.911	630.112
326.241	16.354	837.659	630.828
327.256	16.066	837.099	629.277
328.270	16.246	836.247	629.252
329.285	16.249	836.247	629.207
330.300	16.310	835.117	628.529
331.314	16.129	834.999	627.708
332.329	16.235	834.347	627.559
333.343	16.332	833.561	627.271
334.358	16.394	832.834	626.898
335.373	16.471	832.318	626.740
336.387	16.334	832.095	626.009
337.402	16.286	831.567	625.378
338.416	16.430	830.882	625.342
339.431	16.502	830.389	625.180
340.446	16.641	829.573	625.025
341.460	16.703	829.123	624.860
342.475	16.609	828.744	624.174
343.489	16.767	828.128	624.233
344.504	16.603	827.618	623.192
345.519	16.678	827.333	623.197
346.533	16.801	826.786	623.182
347.548	16.705	826.214	622.344
348.562	16.544	825.564	621.207
349.577	16.535	824.985	620.685
350.592	16.528	824.580	620.300
351.606	16.575	824.079	620.039
352.621	16.566	823.525	619.533
353.635	16.621	823.005	619.291
354.650	16.668	822.733	619.201
355.665	16.631	822.740	619.019
356.679	16.527	821.870	617.927
357.694	16.809	821.132	618.347
358.708	16.799	820.750	617.969
359.723	16.674	820.293	617.113
360.738	16.867	819.577	617.226
361.752	16.733	819.107	616.326
362.767	16.881	818.571	616.407
363.781	16.909	818.317	616.265
364.796	16.931	817.867	615.949
365.810	16.897	817.664	615.620
366.825	17.001	816.900	615.366
367.840	16.965	816.911	615.189
368.854	16.909	816.372	614.527
369.869	17.026	815.900	614.543
370.883	16.991	815.382	613.969
371.898	17.152	814.586	613.898
372.913	17.125	813.870	613.207
373.927	17.165	813.391	612.935
374.942	17.086	813.196	612.452
375.956	17.239	812.020	612.063
376.971	17.218	811.464	611.512
377.986	17.254	810.729	611.033
379.000	17.263	810.549	610.875
380.015	17.249	810.508	610.743
381.029	17.314	809.383	610.074
382.044	17.232	809.229	609.607
383.059	17.118	808.619	608.687
384.073	17.315	808.061	608.919
385.088	17.437	807.083	608.564
386.102	17.318	806.907	607.951
387.117	17.112	806.484	606.844
388.132	17.203	806.137	606.853
389.146	17.213	805.505	606.359
390.161	17.175	805.395	606.087
391.175	17.157	804.964	605.647
392.190	17.308	804.688	605.922
393.205	17.240	803.920	605.049
394.219	17.345	803.511	605.059
395.234	17.232	802.761	604.041
396.248	17.243	802.304	603.682
397.263	17.274	802.063	603.557
398.278	17.259	801.398	602.950
399.292	17.258	800.958	602.563
400.307	17.205	800.998	602.350
401.321	17.172	800.292	601.649
402.336	17.266	799.998	601.707
403.350	17.371	799.050	601.315
404.365	17.341	799.082	601.179
405.380	17.409	798.583	600.992
406.394	17.504	798.173	600.963
407.409	17.531	797.745	600.682
408.423	17.581	797.014	600.256
409.438	17.476	797.049	599.861
410.453	17.643	796.272	599.811
411.467	17.636	795.922	599.469
412.482	17.661	795.476	599.168
413.496	17.687	794.931	598.793
414.511	17.728	794.767	598.761
415.526	17.678	794.459	598.302
416.540	17.758	793.551	597.847
417.555	17.577	793.620	597.211
418.569	17.847	792.865	597.535
419.584	17.639	792.580	596.538
420.599	17.749	791.873	596.337
421.613	111.271	1293.095	1474.542
422.628	95.624	1366.094	1474.630
