DTS Sentinel unit serial number:	SN413079Multiplexer serial number:	ORYXHardware model number:	OX4-SRSoftware version number:	ORYX F/W v4.00 Oryx Data Collector v3.7.2.0data status	okinstallation	princeton_trtdifferential loss correction	single-endedforward channel	channel 3reverse channel	N/Adate	2019/09/13time	13:28:35forward acquisition time	60.00reverse acquisition time	0.00gamma	496.2192k internal	0.2303k external	0.2303temperature offset calibration	1.0148default loss term (dB/km)	0.3790temperature slope calibration	1.0000multiplexer offset coefficient	1.0000multiplexer slope coefficient	1.0000fibre end	0.00T internal ref (°C)	35.00T ext. ref 1 (°C)	4.57T ext. ref 2 (°C)	31.00length (m)	temperature (°C)	Stokes	anti-Stokes-747.200	-60.677	-0.305	-0.132
-746.185	104.482	0.042	-0.051
-745.171	800.000	-0.086	0.262
-744.156	800.000	-0.055	-0.184
-743.142	-91.141	-0.205	-0.060
-742.127	-200.000	-0.013	0.425
-741.112	143.361	0.102	-0.139
-740.098	800.000	0.091	0.364
-739.083	-200.000	0.031	-0.167
-738.069	244.857	0.016	0.027
-737.054	-200.000	-0.298	-0.000
-736.039	5.961	0.156	0.118
-735.025	-188.430	0.441	-0.006
-734.010	158.334	-0.098	-0.139
-732.996	-196.587	0.454	-0.003
-731.981	-74.894	-0.376	-0.137
-730.966	-29.676	-0.058	0.034
-729.952	64.465	-0.043	-0.045
-728.937	-151.291	-0.137	-0.010
-727.923	-67.481	-0.422	0.169
-726.908	214.468	0.244	0.393
-725.894	-60.298	-0.132	-0.057
-724.879	94.775	-0.074	0.086
-723.864	-66.867	0.168	-0.068
-722.850	-200.000	0.063	-0.334
-721.835	-130.365	0.080	0.011
-720.821	27.314	0.258	0.220
-719.806	-136.697	-0.067	0.008
-718.791	27.265	0.127	-0.109
-717.777	-200.000	-0.044	-0.208
-716.762	67.683	0.069	-0.071
-715.748	-22.380	0.266	0.164
-714.733	233.656	-0.036	0.061
-713.718	69.268	-0.215	-0.225
-712.704	-59.661	-0.136	-0.059
-711.689	222.342	0.095	0.155
-710.675	535.960	0.087	0.210
-709.660	-86.901	-0.140	0.043
-708.645	346.278	-0.040	0.081
-707.631	-200.000	-0.035	-0.184
-706.616	-81.255	0.292	-0.098
-705.602	-133.447	0.093	0.012
-704.587	423.187	-0.149	-0.326
-703.572	-66.439	-0.355	-0.143
-702.558	54.671	0.050	0.049
-701.543	-43.239	0.117	0.060
-700.529	-71.386	0.234	-0.089
-699.514	-110.420	0.394	-0.083
-698.499	146.042	0.181	0.247
-697.485	489.841	-0.085	-0.198
-696.470	800.000	0.012	-0.041
-695.456	-132.722	-0.066	-0.009
-694.441	-25.988	-0.223	0.134
-693.426	-20.184	0.256	-0.160
-692.412	800.000	0.149	0.518
-691.397	-58.669	0.221	-0.098
-690.383	-111.953	-0.124	-0.025
-689.368	-200.000	0.035	-0.361
-688.354	118.989	-0.138	0.173
-687.339	174.765	0.065	0.096
-686.324	13.720	0.250	0.197
-685.310	389.834	0.159	-0.334
-684.295	113.802	0.278	0.344
-683.281	-78.540	0.152	0.053
-682.266	141.841	-0.067	0.091
-681.251	472.005	0.169	-0.387
-680.237	667.805	0.116	-0.305
-679.222	124.451	0.117	0.149
-678.208	-88.549	0.178	-0.054
-677.193	293.501	0.080	0.148
-676.178	-200.000	-0.032	0.228
-675.164	-126.103	0.149	0.023
-674.149	-132.388	-0.552	0.072
-673.135	-51.948	-0.186	-0.088
-672.120	-142.006	0.290	-0.029
-671.105	800.000	-0.072	-0.211
-670.091	53.286	0.063	0.062
-669.076	22.557	-0.096	0.080
-668.062	-59.432	0.061	-0.026
-667.047	606.386	-0.028	-0.070
-666.032	-16.397	-0.271	-0.175
-665.018	-17.399	-0.230	0.147
-664.003	69.234	0.139	0.145
-662.989	15.056	0.124	-0.099
-661.974	252.378	-0.021	0.036
-660.959	-36.059	0.198	-0.109
-659.945	27.321	0.100	-0.085
-658.930	-164.499	0.086	0.004
-657.916	-75.927	0.236	0.085
-656.901	-43.194	-0.167	-0.086
-655.886	-173.847	-0.168	0.005
-654.872	-63.872	-0.311	-0.129
-653.857	-200.000	0.062	-0.345
-652.843	90.004	-0.117	0.132
-651.828	111.841	0.140	-0.171
-650.814	800.000	-0.042	-0.168
-649.799	-200.000	0.022	0.224
-648.784	-200.000	0.005	-0.072
-647.770	-200.000	-0.003	0.167
-646.755	153.879	-0.113	0.157
-645.741	122.909	0.183	0.233
-644.726	691.191	0.048	-0.128
-643.711	-200.000	0.029	-0.159
-642.697	2.523	-0.148	-0.108
-641.682	188.756	0.175	-0.265
-640.668	330.381	-0.131	0.257
-639.653	-77.766	-0.215	-0.075
-638.638	-91.071	-0.242	0.071
-637.624	664.726	0.127	0.332
-636.609	-123.230	-0.251	0.041
-635.595	-200.000	-0.034	-0.323
-634.580	800.000	-0.105	-0.325
-633.565	32.210	-0.204	-0.178
-632.551	539.244	-0.029	0.071
-631.536	-200.000	-0.028	0.277
-630.522	-46.220	-0.121	0.060
-629.507	-200.000	-0.010	0.108
-628.492	-200.000	-0.013	0.097
-627.478	154.881	-0.114	-0.159
-626.463	-200.000	0.099	-0.000
-625.449	160.476	0.208	0.294
-624.434	-75.299	-0.114	0.041
-623.419	800.000	-0.024	-0.081
-622.405	131.155	0.131	0.171
-621.390	46.503	0.077	-0.072
-620.376	-90.234	-0.324	0.095
-619.361	-48.933	-0.423	0.206
-618.346	517.110	-0.089	-0.211
-617.332	799.357	-0.152	-0.425
-616.317	-92.031	0.215	0.062
-615.303	-73.844	-0.151	0.056
-614.288	466.348	-0.150	0.341
-613.273	800.000	0.066	0.269
-612.259	91.077	0.092	-0.104
-611.244	-49.365	-0.206	-0.099
-610.230	-200.000	0.037	-0.298
-609.215	-200.000	0.069	-0.337
-608.201	41.069	0.358	-0.328
-607.186	800.000	-0.049	-0.170
-606.171	-78.766	0.161	0.056
-605.157	-200.000	-0.028	0.211
-604.142	196.983	0.082	0.126
-603.128	561.315	0.043	0.105
-602.113	18.071	0.249	0.201
-601.098	-15.798	-0.013	0.008
-600.084	-124.165	-0.163	0.026
-599.069	800.000	0.093	-0.317
-598.055	-9.599	0.378	0.255
-597.040	-200.000	-0.025	0.221
-596.025	-200.000	-0.037	0.000
-595.011	2.612	0.097	-0.071
-593.996	-193.101	0.114	0.001
-592.982	161.116	-0.138	-0.196
-591.967	225.891	-0.139	0.229
-590.952	-200.000	-0.018	-0.141
-589.938	-185.411	-0.202	-0.003
-588.923	160.500	-0.098	0.139
-587.909	800.000	0.085	0.357
-586.894	332.473	-0.122	0.238
-585.879	-139.663	-0.172	-0.019
-584.865	-200.000	0.051	0.329
-583.850	-33.805	-0.217	0.121
-582.836	38.328	0.091	0.082
-581.821	-114.506	-0.047	-0.009
-580.806	800.000	-0.046	-0.131
-579.792	428.340	0.057	0.125
-578.777	-59.752	-0.025	-0.011
-577.763	7.122	0.255	0.193
-576.748	-200.000	-0.602	0.002
-575.733	-21.724	-0.090	0.056
-574.719	-167.883	-0.078	-0.003
-573.704	-19.142	-0.240	-0.151
-572.690	73.814	-0.041	0.043
-571.675	-105.927	-0.270	0.062
-570.661	800.000	-0.127	-0.464
-569.646	-200.000	0.015	-0.233
-568.631	-73.515	-0.172	-0.063
-567.617	800.000	-0.079	-0.257
-566.602	8.104	-0.159	0.121
-565.588	139.812	0.180	-0.241
-564.573	-142.513	0.097	-0.010
-563.558	-20.557	-0.243	0.151
-562.544	178.598	-0.065	-0.096
-561.529	-55.036	-0.076	0.035
-560.515	67.644	0.172	-0.177
-559.500	38.886	0.138	0.124
-558.485	311.823	0.127	-0.242
-557.471	-94.015	0.277	-0.077
-556.456	452.623	-0.043	-0.095
-555.442	-23.025	0.330	-0.201
-554.427	112.449	0.261	-0.319
-553.412	-112.827	0.478	-0.096
-552.398	800.000	-0.160	-0.449
-551.383	36.921	0.200	-0.179
-550.369	48.226	0.098	-0.092
-549.354	-200.000	-0.007	-0.159
-548.339	8.319	0.220	-0.167
-547.325	-92.557	-0.250	0.071
-546.310	-125.600	-0.587	-0.090
-545.296	-200.000	0.003	0.097
-544.281	544.455	0.005	0.011
-543.266	-98.885	0.310	-0.080
-542.252	35.307	0.117	0.104
-541.237	800.000	0.053	-0.194
-540.223	-129.814	-0.481	0.067
-539.208	69.284	0.096	-0.100
-538.193	-200.000	-0.070	-0.362
-537.179	-88.079	0.157	0.048
-536.164	-151.361	0.251	0.019
-535.150	-200.000	0.022	-0.385
-534.135	-130.914	0.341	-0.046
-533.121	195.122	-0.045	-0.069
-532.106	-126.995	-0.375	-0.056
-531.091	79.875	0.069	0.074
-530.077	251.441	-0.127	0.219
-529.062	365.959	-0.205	0.417
-528.048	-200.000	0.009	-0.175
-527.033	-200.000	0.075	-0.392
-526.018	151.628	0.091	0.125
-525.004	230.295	0.058	0.096
-523.989	2.772	0.276	0.202
-522.975	-200.000	0.004	-0.267
-521.960	-200.000	-0.013	-0.347
-520.945	216.533	0.118	-0.189
-519.931	-136.853	-0.175	-0.020
-518.916	31.577	0.150	-0.131
-517.902	7.892	-0.135	0.102
-516.887	800.000	0.018	0.076
-515.872	-170.332	0.582	-0.021
-514.858	-200.000	0.004	0.077
-513.843	231.617	0.158	-0.261
-512.829	403.582	0.045	-0.096
-511.814	-102.413	-0.132	0.032
-510.799	-200.000	0.010	-0.154
-509.785	63.616	-0.160	-0.163
-508.770	800.000	-0.031	-0.111
-507.756	477.323	0.173	0.395
-506.741	31.157	0.108	0.094
-505.726	-48.543	-0.151	-0.073
-504.712	-77.280	0.264	0.092
-503.697	254.936	-0.130	0.225
-502.683	-75.865	-0.397	0.142
-501.668	43.060	-0.068	0.063
-500.653	17.068	0.078	-0.063
-499.639	43.605	-0.163	0.150
-498.624	-88.340	0.232	0.070
-497.610	-65.615	-0.023	0.009
-496.595	-15.665	-0.068	-0.044
-495.581	-200.000	0.069	0.380
-494.566	22.902	-0.249	0.206
-493.551	800.000	-0.012	0.037
-492.537	-200.000	0.025	-0.171
-491.522	182.186	0.196	0.292
-490.508	-20.824	-0.407	0.251
-489.493	379.279	0.034	-0.069
-488.478	800.000	-0.029	-0.118
-487.464	-200.000	-0.004	-0.152
-486.449	800.000	0.051	-0.195
-485.435	186.760	0.201	0.302
-484.420	316.853	-0.035	0.066
-483.405	20.133	0.136	0.110
-482.391	14.825	-0.250	-0.197
-481.376	-200.000	-0.047	-0.454
-480.362	55.301	0.099	0.097
-479.347	44.584	0.211	0.196
-478.332	379.531	0.139	-0.287
-477.318	20.339	0.328	0.267
-476.303	-87.016	0.140	-0.043
-475.289	-56.719	0.062	-0.027
-474.274	220.263	0.114	-0.183
-473.259	384.767	-0.152	0.316
-472.245	223.786	-0.124	-0.201
-471.230	23.031	0.092	-0.076
-470.216	-200.000	0.000	0.152
-469.201	800.000	-0.131	0.471
-468.186	82.214	-0.143	0.156
-467.172	262.216	-0.043	0.076
-466.157	-152.715	-0.216	-0.015
-465.143	800.000	0.052	0.191
-464.128	99.990	-0.243	0.284
-463.113	-200.000	-0.016	0.206
-462.099	-200.000	-0.016	0.160
-461.084	428.997	0.112	-0.244
-460.070	388.772	-0.109	-0.228
-459.055	-120.970	-0.225	0.038
-458.040	343.447	-0.057	0.113
-457.026	105.178	0.220	-0.261
-456.011	-171.797	-0.207	-0.007
-454.997	-33.076	0.084	-0.047
-453.982	-46.574	0.101	-0.050
-452.968	162.862	0.099	-0.140
-451.953	800.000	0.006	-0.023
-450.938	-200.000	0.013	-0.191
-449.924	7.814	-0.167	0.126
-448.909	586.154	0.027	0.066
-447.895	-200.000	-0.027	-0.179
-446.880	800.000	0.109	0.331
-445.865	91.301	-0.201	0.227
-444.851	162.759	-0.036	-0.052
-443.836	131.063	-0.160	0.207
-442.822	-120.884	-0.181	-0.031
-441.807	356.617	0.047	0.095
-440.792	-15.922	0.068	-0.043
-439.778	-98.032	-0.186	-0.048
-438.763	-68.402	0.218	0.085
-437.749	-200.000	0.004	0.024
-436.734	185.284	-0.194	-0.289
-435.719	-4.801	-0.146	0.102
-434.705	-148.255	-0.159	-0.013
-433.690	-68.857	0.230	0.090
-432.676	-34.378	-0.063	-0.035
-431.661	98.454	-0.172	-0.200
-430.646	-33.811	0.089	-0.049
-429.632	-200.000	-0.001	0.072
-428.617	-146.623	-0.208	0.018
-427.603	-62.367	0.065	0.027
-426.588	800.000	-0.106	-0.307
-425.573	-15.375	-0.202	0.130
-424.559	-128.429	-0.346	0.049
-423.544	117.584	0.178	-0.221
-422.530	800.000	-0.025	0.102
-421.515	8.048	0.194	-0.146
-420.500	-92.987	-0.419	0.118
-419.486	-200.000	0.000	-0.168
-418.471	261.195	-0.091	-0.158
-417.457	108.691	-0.125	-0.150
-416.442	-132.456	-0.241	-0.031
-415.428	91.617	0.279	-0.316
-414.413	-92.962	0.192	0.054
-413.398	-159.323	-0.148	-0.008
-412.384	800.000	0.099	0.356
-411.369	-61.383	-0.141	-0.060
-410.355	293.007	0.085	-0.156
-409.340	-200.000	0.015	-0.182
-408.325	4.477	0.035	-0.026
-407.311	-70.047	-0.063	-0.024
-406.296	-130.061	-0.354	0.049
-405.282	-200.000	0.331	0.001
-404.267	-83.754	-0.188	0.060
-403.252	-99.295	0.173	0.044
-402.238	800.000	0.074	0.250
-401.223	112.908	0.147	0.179
-400.209	-200.000	0.025	-0.185
-399.194	-10.825	0.155	-0.103
-398.179	-117.766	0.306	-0.055
-397.165	-50.210	0.062	-0.029
-396.150	81.374	-0.259	-0.282
-395.136	59.151	-0.209	-0.207
-394.121	11.710	-0.094	0.073
-393.106	-134.904	-0.021	-0.003
-392.092	402.279	0.120	0.253
-391.077	322.627	0.054	0.103
-390.063	-50.641	-0.184	0.087
-389.048	634.018	0.060	0.153
-388.033	740.645	-0.185	-0.498
-387.019	-36.625	-0.333	-0.180
-386.004	58.645	0.160	-0.158
-384.990	-200.000	-0.034	-0.374
-383.975	214.075	-0.116	-0.184
-382.960	24.206	-0.204	-0.169
-381.946	-53.106	0.130	0.060
-380.931	119.897	-0.085	-0.105
-379.917	-94.986	0.251	0.068
-378.902	-200.000	-0.021	0.143
-377.888	-72.278	-0.064	-0.024
-376.873	-200.000	0.074	-0.405
-375.858	280.778	-0.045	-0.081
-374.844	-59.214	0.435	0.188
-373.829	178.487	-0.117	0.172
-372.815	-200.000	-0.025	0.343
-371.800	498.939	0.139	0.321
-370.785	-200.000	-0.055	0.267
-369.771	76.674	0.058	-0.062
-368.756	800.000	-0.074	0.211
-367.742	-200.000	0.000	-0.105
-366.727	-110.161	-0.104	-0.022
-365.712	-47.058	0.020	-0.010
-364.698	-93.847	-0.185	-0.051
-363.683	451.535	-0.122	0.271
-362.669	-11.223	-0.155	-0.103
-361.654	-166.391	-0.134	0.006
-360.639	142.776	0.156	0.209
-359.625	579.256	0.083	0.203
-358.610	169.225	-0.167	0.239
-357.596	-85.340	-0.082	-0.026
-356.581	100.180	0.116	0.135
-355.566	-84.383	0.158	0.050
-354.552	-96.811	0.426	0.112
-353.537	400.969	-0.085	0.178
-352.523	89.400	-0.327	0.365
-351.508	72.713	0.189	0.198
-350.493	125.795	-0.088	0.111
-349.479	108.590	0.095	0.114
-348.464	800.000	-0.039	-0.140
-347.450	-75.943	-0.147	-0.052
-346.435	-200.000	0.013	-0.116
-345.420	1.544	0.146	0.105
-344.406	129.342	0.280	0.358
-343.391	-43.993	0.347	0.175
-342.377	-200.000	0.012	0.096
-341.362	-16.606	-0.123	0.078
-340.348	-62.670	0.398	-0.166
-339.333	688.047	0.125	0.329
-338.318	-200.000	-0.016	-0.085
-337.304	-20.382	0.301	-0.186
-336.289	92.051	-0.158	0.179
-335.275	-200.000	0.010	-0.083
-334.260	800.000	0.016	0.060
-333.245	154.236	-0.233	0.321
-332.231	800.000	0.143	0.541
-331.216	104.547	-0.104	0.123
-330.202	-46.892	-0.187	-0.092
-329.187	-200.000	-0.006	0.067
-328.172	800.000	0.079	0.227
-327.158	6.592	-0.036	-0.027
-326.143	800.000	0.117	-0.450
-325.129	-200.000	-0.012	-0.182
-324.114	268.799	0.044	-0.077
-323.099	-132.826	-0.216	0.028
-322.085	39.367	-0.090	-0.081
-321.070	112.350	-0.137	-0.166
-320.056	-77.736	0.103	0.036
-319.041	-52.940	0.309	-0.142
-318.026	-2.612	-0.131	0.092
-317.012	-165.272	0.279	-0.012
-315.997	17.033	-0.200	0.159
-314.983	-28.309	0.051	0.029
-313.968	-108.687	-0.221	0.048
-312.953	54.533	0.157	-0.151
-311.939	-200.000	0.041	0.218
-310.924	-66.803	-0.184	-0.073
-309.910	35.296	-0.409	-0.359
-308.895	96.932	0.076	0.087
-307.880	-125.807	0.114	0.017
-306.866	-74.879	-0.318	0.114
-305.851	-52.440	-0.471	-0.218
-304.837	3.516	-0.094	0.069
-303.822	-52.864	0.372	0.172
-302.807	-40.275	-0.015	-0.008
-301.793	800.000	-0.149	-0.522
-300.778	-16.877	-0.105	-0.067
-299.764	40.132	0.099	0.089
-298.749	800.000	-0.027	-0.106
-297.735	-86.295	0.103	-0.032
-296.720	-54.772	0.289	-0.131
-295.705	-111.605	-0.275	0.056
-294.691	800.000	-0.097	0.317
-293.676	61.592	0.196	-0.196
-292.662	227.392	-0.141	-0.230
-291.647	-131.713	0.224	-0.029
-290.632	800.000	0.134	-0.482
-289.618	10.066	-0.187	0.142
-288.603	25.877	-0.285	0.238
-287.589	-200.000	-0.016	0.119
-286.574	-200.000	0.020	0.110
-285.559	800.000	-0.075	-0.235
-284.545	-82.584	-0.428	-0.139
-283.530	60.504	0.150	-0.149
-282.516	74.177	-0.113	-0.119
-281.501	-77.514	0.210	-0.073
-280.486	-109.115	0.283	-0.060
-279.472	-200.000	0.021	-0.205
-278.457	-63.984	-0.066	-0.027
-277.443	280.349	-0.142	-0.254
-276.428	-66.681	0.091	0.036
-275.413	207.832	-0.118	0.184
-274.399	-60.333	-0.063	0.027
-273.384	-31.158	0.271	-0.153
-272.370	583.821	0.080	0.195
-271.355	-107.111	-0.129	-0.029
-270.340	800.000	0.088	-0.261
-269.326	-133.711	-0.246	0.031
-268.311	-200.000	-0.023	-0.116
-267.297	-200.000	-0.018	0.354
-266.282	711.760	0.062	0.165
-265.267	-17.521	0.260	0.164
-264.253	-200.000	0.008	-0.228
-263.238	-200.000	-0.076	-0.377
-262.224	313.635	0.089	-0.168
-261.209	129.534	0.217	0.277
-260.195	160.448	0.115	0.160
-259.180	-119.869	-0.163	0.028
-258.165	63.669	0.267	0.268
-257.151	-101.656	-0.031	-0.007
-256.136	120.519	-0.348	-0.432
-255.122	390.039	0.006	0.012
-254.107	30.079	0.078	0.066
-253.092	-12.780	0.187	-0.121
-252.078	209.948	-0.149	0.234
-251.063	-8.153	0.312	-0.210
-250.049	-79.877	-0.023	-0.008
-249.034	-200.000	-0.011	0.048
-248.019	-128.887	0.155	0.022
-247.005	-143.095	-0.082	-0.008
-245.990	89.745	0.051	0.057
-244.976	-11.602	-0.419	0.275
-243.961	-117.523	0.333	-0.060
-242.946	-200.000	0.066	0.351
-241.932	-22.938	-0.153	-0.092
-240.917	142.639	0.089	-0.119
-239.903	-96.424	-0.156	0.041
-238.888	-89.986	0.258	0.075
-237.873	9.423	0.165	0.125
-236.859	124.497	-0.060	0.075
-235.844	2.533	0.316	0.228
-234.830	-200.000	-0.018	0.177
-233.815	-80.044	0.582	-0.195
-232.800	18.002	-0.124	-0.099
-231.786	83.118	0.241	0.262
-230.771	-37.338	0.379	0.202
-229.757	-200.000	0.007	0.064
-228.742	-55.249	-0.191	-0.086
-227.727	-175.623	0.083	0.002
-226.713	26.263	0.174	-0.145
-225.698	285.023	0.060	-0.109
-224.684	-200.000	-0.088	0.423
-223.669	-200.000	-0.015	-0.098
-222.655	-200.000	0.018	-0.101
-221.640	343.352	-0.166	0.324
-220.625	800.000	0.067	-0.271
-219.611	-106.218	0.202	0.045
-218.596	-200.000	-0.002	0.267
-217.582	-200.000	-0.050	-0.245
-216.567	156.479	0.342	-0.471
-215.552	-52.204	0.258	-0.120
-214.538	229.931	0.027	0.044
-213.523	-50.477	0.488	-0.230
-212.509	19.246	0.139	-0.111
-211.494	-26.395	0.234	-0.137
-210.479	-106.481	-0.273	-0.061
-209.465	81.723	0.197	0.212
-208.450	384.785	0.183	0.376
-207.436	-43.539	0.134	-0.067
-206.421	-22.103	0.221	-0.134
-205.406	-27.411	0.091	0.053
-204.392	158.185	0.078	-0.108
-203.377	-41.938	0.146	0.075
-202.363	-44.356	-0.251	0.125
-201.348	800.000	-0.071	-0.245
-200.333	358.399	0.086	-0.172
-199.319	635.721	-0.019	0.048
-198.304	151.596	0.029	0.040
-197.290	-39.019	-0.277	-0.146
-196.275	436.246	-0.096	0.208
-195.260	37.942	0.182	-0.162
-194.246	397.562	-0.137	0.285
-193.231	800.000	-0.116	0.338
-192.217	412.967	-0.013	-0.027
-191.202	64.626	0.067	-0.068
-190.187	465.479	0.166	-0.370
-189.173	102.092	0.247	-0.287
-188.158	578.587	0.092	0.224
-187.144	-200.000	0.000	-0.033
-186.129	45.197	0.043	-0.039
-185.114	-171.565	0.103	-0.003
-184.100	-4.534	-0.395	0.272
-183.085	-200.000	0.007	-0.032
-182.071	800.000	0.094	0.321
-181.056	-84.000	0.299	-0.095
-180.042	-51.687	-0.158	0.073
-179.027	1.332	0.123	0.088
-178.012	-200.000	0.003	-0.234
-176.998	60.515	-0.071	0.070
-175.983	-200.000	0.010	-0.193
-174.969	-32.395	-0.227	0.126
-173.954	10.182	-0.095	0.072
-172.939	32.732	-0.233	-0.201
-171.925	-113.528	0.075	0.015
-170.910	-72.199	-0.300	0.111
-169.896	-137.486	0.401	-0.045
-168.881	800.000	0.079	-0.222
-167.866	10.959	0.125	-0.095
-166.852	672.756	0.097	0.250
-165.837	800.000	0.036	0.139
-164.823	1.886	-0.141	0.102
-163.808	-6.180	0.141	-0.096
-162.793	800.000	-0.056	-0.170
-161.779	5.660	0.187	-0.138
-160.764	-32.405	-0.408	-0.227
-159.750	124.999	-0.192	0.240
-158.735	28.343	0.069	0.058
-157.720	-82.231	-0.092	0.030
-156.706	-200.000	0.011	0.345
-155.691	800.000	0.051	-0.183
-154.677	628.117	-0.103	0.260
-153.662	-128.075	-0.253	-0.036
-152.647	-71.318	-0.222	-0.083
-151.633	-94.190	-0.088	0.024
-150.618	-200.000	0.025	0.138
-149.604	-109.192	-0.073	0.015
-148.589	-14.480	-0.117	-0.075
-147.574	20.113	0.217	-0.174
-146.560	-200.000	0.019	-0.089
-145.545	98.118	0.227	0.260
-144.531	800.000	0.116	0.347
-143.516	67.668	0.247	-0.251
-142.502	-84.151	0.171	0.054
-141.487	-40.662	-0.191	-0.099
-140.472	488.503	-0.120	-0.274
-139.458	230.979	0.084	0.136
-138.443	-200.000	0.025	-0.118
-137.429	-200.000	-0.022	0.156
-136.414	-200.000	-0.034	-0.168
-135.399	42.529	-0.379	0.343
-134.385	-200.000	0.055	-0.321
-133.370	495.190	0.138	-0.316
-132.356	-10.327	0.273	0.180
-131.341	-200.000	0.006	-0.064
-130.326	-200.000	-0.016	0.257
-129.312	29.960	-0.100	0.085
-128.297	-200.000	0.008	0.064
-127.283	248.689	-0.037	-0.063
-126.268	378.377	-0.091	-0.185
-125.253	-200.000	-0.011	-0.243
-124.239	-84.688	0.273	-0.086
-123.224	-77.175	0.322	0.111
-122.210	-8.375	0.143	-0.095
-121.195	27.250	-0.253	0.211
-120.180	-96.352	0.388	0.102
-119.166	-156.079	-0.296	-0.019
-118.151	94.320	-0.091	-0.102
-117.137	800.000	-0.021	-0.061
-116.122	-68.017	0.453	-0.176
-115.107	-45.939	-0.028	0.014
-114.093	-83.070	-0.127	0.041
-113.078	-200.000	-0.013	0.176
-112.064	37.158	-0.185	-0.163
-111.049	-200.000	0.007	-0.090
-110.034	68.498	-0.106	-0.108
-109.020	-51.672	0.217	-0.101
-108.005	269.298	-0.043	0.076
-106.991	-27.731	0.169	-0.097
-105.976	208.389	0.088	0.137
-104.962	-126.959	0.072	-0.011
-103.947	800.000	0.049	-0.175
-102.932	-55.207	0.153	0.068
-101.918	74.366	-0.046	-0.048
-100.903	-47.063	-0.218	0.106
-99.889	-200.000	-0.066	-0.416
-98.874	-91.910	0.106	-0.030
-97.859	-200.000	0.003	0.158
-96.845	-43.572	0.152	0.076
-95.830	274.269	-0.191	-0.336
-94.816	402.450	-0.071	0.148
-93.801	800.000	-0.086	0.269
-92.786	9.198	-0.065	-0.048
-91.772	-200.000	0.014	-0.303
-90.757	-82.998	-0.199	-0.064
-89.743	-95.770	0.175	0.046
-88.728	-200.000	0.019	-0.127
-87.713	-35.238	-0.098	-0.053
-86.699	-157.069	-0.326	-0.020
-85.684	206.437	0.126	0.195
-84.670	-200.000	-0.002	-0.225
-83.655	-200.000	-0.011	0.230
-82.640	-200.000	-0.036	0.261
-81.626	-119.319	0.218	-0.038
-80.611	-21.632	0.093	-0.056
-79.597	286.535	0.016	0.028
-78.582	-200.000	0.020	0.128
-77.567	26.936	-0.181	0.150
-76.553	198.590	-0.216	-0.328
-75.538	10.865	-0.130	-0.099
-74.524	60.207	-0.186	-0.183
-73.509	-111.441	-0.281	-0.057
-72.494	-200.000	0.096	-0.454
-71.480	33.609	-0.048	0.041
-70.465	-95.225	-0.315	-0.084
-69.451	-108.830	0.127	0.027
-68.436	-138.978	0.139	0.015
-67.422	-200.000	-0.007	0.125
-66.407	-40.109	0.117	-0.061
-65.392	151.436	-0.136	-0.184
-64.378	327.449	-0.142	0.269
-63.363	2.407	0.093	-0.067
-62.349	-200.000	0.022	-0.293
-61.334	127.343	-0.780	-0.982
-60.319	-112.396	0.216	0.043
-59.305	800.000	-0.214	-0.861
-58.290	163.572	0.619	0.864
-57.276	553.446	0.719	1.713
-56.261	-200.000	94.902	559.823
-55.246	633.454	1382.946	3475.827
-54.232	185.308	2606.374	3836.300
-53.217	121.518	2217.824	2740.374
-52.203	45.603	1750.043	1602.754
-51.188	38.094	1559.220	1375.298
-50.173	35.713	1531.597	1334.378
-49.159	53.201	1581.727	1501.890
-48.144	56.918	1600.730	1546.121
-47.130	38.457	1555.986	1374.778
-46.115	35.289	1540.293	1338.781
-45.100	35.146	1536.904	1334.789
-44.086	35.092	1535.147	1332.835
-43.071	35.004	1534.034	1331.206
-42.057	34.888	1531.983	1328.568
-41.042	34.907	1530.382	1327.258
-40.027	34.999	1528.948	1326.594
-39.013	35.075	1526.866	1325.263
-37.998	34.947	1525.958	1323.536
-36.984	35.001	1525.291	1323.279
-35.969	34.950	1523.846	1321.620
-34.954	34.983	1522.429	1320.569
-33.940	34.953	1520.958	1319.030
-32.925	35.144	1519.005	1318.602
-31.911	35.010	1518.073	1316.820
-30.896	35.109	1516.891	1316.423
-29.881	34.992	1515.696	1314.530
-28.867	34.943	1514.178	1312.826
-27.852	35.120	1512.196	1312.263
-26.838	35.083	1511.185	1311.082
-25.823	35.054	1509.629	1309.484
-24.809	35.083	1507.449	1307.735
-23.794	35.081	1506.141	1306.539
-22.779	35.167	1504.993	1306.073
-21.765	35.109	1504.229	1304.965
-20.750	35.006	1503.317	1303.423
-19.736	35.033	1501.754	1302.198
-18.721	34.969	1500.858	1300.931
-17.706	34.887	1500.005	1299.583
-16.692	34.988	1498.463	1298.884
-15.677	34.991	1497.943	1298.400
-14.663	34.963	1497.151	1297.477
-13.648	34.981	1495.538	1296.146
-12.633	34.939	1494.823	1295.189
-11.619	35.007	1493.996	1294.883
-10.604	35.005	1493.032	1293.980
-9.590	34.905	1492.343	1292.662
-8.575	34.915	1491.606	1292.036
-7.560	34.971	1490.713	1291.592
-6.546	34.975	1489.351	1290.383
-5.531	34.910	1489.090	1289.670
-4.517	34.914	1487.925	1288.639
-3.502	34.937	1486.926	1287.872
-2.487	34.879	1485.934	1286.572
-1.473	34.857	1485.282	1285.814
-0.458	34.884	1483.913	1284.757
0.556	37.236	1474.128	1275.052
1.571	34.033	1446.244	1230.145
2.586	29.708	1381.543	1148.210
3.600	27.492	1296.227	1064.280
4.615	24.982	1248.647	1010.977
5.629	21.096	1190.674	942.994
6.644	12.671	1104.648	832.364
7.659	5.793	1063.122	767.434
8.673	4.848	1056.644	758.095
9.688	4.567	1053.527	754.425
10.702	4.362	1051.917	752.211
11.717	4.514	1051.116	752.312
12.731	7.828	1054.177	770.504
13.746	16.377	1065.652	820.513
14.761	21.998	1072.830	853.373
15.775	22.191	1072.344	853.851
16.790	21.597	1069.974	849.008
17.804	20.492	1068.637	842.517
18.819	19.659	1066.486	836.711
19.834	19.176	1064.942	833.093
20.848	19.036	1064.256	831.805
21.863	18.954	1063.317	830.602
22.877	18.761	1063.216	829.516
23.892	18.611	1062.148	827.885
24.907	18.581	1061.354	827.049
25.921	18.426	1060.674	825.697
26.936	18.362	1059.976	824.775
27.950	18.430	1058.616	823.971
28.965	18.509	1057.301	823.254
29.980	18.438	1056.947	822.565
30.994	18.674	1055.921	822.827
32.009	18.838	1054.600	822.506
33.023	18.895	1053.728	822.029
34.038	18.830	1053.358	821.355
35.053	18.643	1052.349	819.604
36.067	18.682	1051.174	818.801
37.082	18.614	1050.269	817.701
38.096	18.686	1049.761	817.573
39.111	18.766	1048.985	817.278
40.126	18.766	1048.432	816.777
41.140	18.585	1047.263	814.933
42.155	18.405	1045.806	812.872
43.169	18.104	1045.033	810.771
44.184	18.045	1044.281	809.837
45.199	18.133	1042.745	808.991
46.213	18.106	1041.822	808.074
47.228	18.206	1041.419	808.165
48.242	18.526	1039.898	808.423
49.257	18.651	1039.054	808.284
50.271	18.508	1038.384	807.018
51.286	18.590	1037.690	806.791
52.301	18.746	1036.415	806.462
53.315	18.690	1035.625	805.513
54.330	18.598	1034.596	804.211
55.344	18.388	1033.904	802.618
56.359	18.344	1032.962	801.611
57.374	18.365	1031.850	800.774
58.388	18.401	1031.362	800.493
59.403	18.389	1029.816	799.167
60.417	18.228	1029.481	798.083
61.432	18.113	1028.751	796.911
62.447	18.074	1028.148	796.192
63.461	18.099	1027.185	795.492
64.476	17.956	1026.477	794.207
65.490	18.119	1025.392	794.055
66.505	17.984	1024.493	792.661
67.520	17.986	1023.912	792.152
68.534	17.987	1023.294	791.607
69.549	18.152	1022.191	791.451
70.563	18.239	1021.240	791.046
71.578	18.096	1020.793	789.969
72.593	17.934	1019.900	788.459
73.607	18.004	1018.468	787.603
74.622	17.817	1018.089	786.383
75.636	17.799	1016.819	785.248
76.651	17.804	1016.190	784.716
77.666	17.921	1015.719	784.820
78.680	17.935	1014.718	784.044
79.695	18.002	1014.157	783.846
80.709	18.011	1013.665	783.436
81.724	18.089	1012.681	782.967
82.739	18.223	1012.145	783.097
83.753	18.130	1012.026	782.507
84.768	18.474	1011.050	783.256
85.782	18.693	1010.666	783.891
86.797	18.877	1009.929	784.088
87.812	18.880	1008.974	783.293
88.826	18.640	1008.148	781.489
89.841	18.580	1007.203	780.413
90.855	18.604	1006.683	780.051
91.870	18.719	1005.667	779.717
92.884	19.010	1004.626	780.159
93.899	18.827	1004.194	778.926
94.914	18.744	1003.161	777.680
95.928	18.868	1002.729	777.837
96.943	18.973	1001.932	777.623
97.957	18.842	1000.474	775.834
98.972	18.638	1000.045	774.512
99.987	18.812	998.705	774.190
101.001	18.718	998.486	773.525
102.016	18.721	997.647	772.823
103.030	18.659	996.452	771.552
104.045	18.744	995.578	771.184
105.060	18.825	994.861	770.925
106.074	18.742	993.924	769.761
107.089	18.375	993.192	767.482
108.103	18.217	992.159	765.908
109.118	18.132	991.244	764.751
110.133	18.073	989.832	763.334
111.147	18.048	989.066	762.565
112.162	18.067	988.223	761.930
113.176	18.071	987.636	761.429
114.191	18.272	986.904	761.691
115.206	18.314	985.848	760.994
116.220	18.384	985.158	760.708
117.235	18.129	984.414	758.930
118.249	18.082	983.520	757.967
119.264	18.206	982.111	757.362
120.279	18.136	981.548	756.553
121.293	18.058	980.854	755.605
122.308	17.966	980.115	754.563
123.322	17.989	979.082	753.803
124.337	17.870	978.065	752.430
125.352	17.776	977.102	751.209
126.366	17.821	975.885	750.402
127.381	17.914	974.722	749.851
128.395	17.763	974.313	748.806
129.410	17.932	972.745	748.277
130.424	18.042	971.849	748.001
131.439	18.116	970.984	747.596
132.454	18.248	970.457	747.699
133.468	18.245	969.891	747.184
134.483	18.207	969.438	746.605
135.497	18.268	968.627	746.180
136.512	18.262	967.766	745.421
137.527	18.312	966.873	744.889
138.541	18.373	966.176	744.550
139.556	18.197	965.785	743.416
140.570	18.245	965.099	743.032
141.585	18.296	964.525	742.745
142.600	18.566	963.733	743.239
143.614	18.653	963.259	743.185
144.629	18.704	962.466	742.729
145.643	18.754	961.935	742.470
146.658	18.899	960.443	741.878
147.673	18.637	959.601	740.030
148.687	18.435	958.912	738.563
149.702	18.319	957.462	736.883
150.716	18.263	956.824	736.087
151.731	18.205	956.294	735.365
152.746	18.279	955.389	734.919
153.760	18.289	954.405	734.141
154.775	18.350	953.677	733.777
155.789	18.472	952.736	733.512
156.804	18.476	952.408	733.213
157.819	18.346	951.726	732.066
158.833	18.611	950.937	732.524
159.848	18.788	950.550	732.920
160.862	18.765	949.802	732.179
161.877	18.844	948.954	731.796
162.892	18.551	947.693	729.512
163.906	18.295	947.245	728.017
164.921	18.157	946.331	726.664
165.935	18.340	944.900	726.274
166.950	18.339	943.993	725.511
167.964	18.323	943.329	724.868
168.979	18.563	941.727	724.586
169.994	18.476	940.865	723.492
171.008	18.361	940.251	722.473
172.023	18.358	939.564	721.865
173.037	18.502	938.866	721.870
174.052	18.732	938.810	722.734
175.067	18.764	936.964	721.383
176.081	18.527	936.051	719.622
177.096	18.277	935.521	718.103
178.110	18.197	934.802	717.153
179.125	18.269	934.170	716.904
180.140	18.320	933.441	716.495
181.154	18.404	932.286	715.894
182.169	18.596	931.871	716.315
183.183	18.555	931.759	715.996
184.198	18.705	931.083	716.037
185.213	18.704	930.073	715.193
186.227	18.829	929.525	715.231
187.242	18.790	929.146	714.714
188.256	18.760	928.810	714.264
189.271	18.928	927.713	714.057
190.286	19.048	927.076	714.001
191.300	18.686	926.356	711.884
192.315	18.328	925.286	709.514
193.329	18.143	924.348	707.967
194.344	18.161	923.472	707.308
195.359	18.287	922.981	707.388
196.373	18.470	922.882	708.007
197.388	18.639	922.088	708.032
198.402	18.749	922.282	708.573
199.417	19.023	921.398	708.958
200.432	18.968	921.554	708.791
201.446	19.130	920.790	708.807
202.461	19.173	920.792	708.925
203.475	19.143	920.442	708.469
204.490	19.201	919.506	707.924
205.504	19.089	918.293	706.469
206.519	18.853	917.420	704.765
207.534	18.974	916.671	704.623
208.548	18.783	915.829	703.131
209.563	18.688	915.529	702.449
210.577	18.934	914.620	702.697
211.592	18.868	913.901	701.813
212.607	19.080	913.655	702.427
213.621	19.169	913.285	702.442
214.636	19.091	912.208	701.234
215.650	19.088	911.794	700.841
216.665	19.187	910.983	700.560
217.680	19.224	910.426	700.220
218.694	19.287	910.310	700.323
219.709	19.441	909.681	700.404
220.723	19.256	909.028	699.090
221.738	19.254	908.095	698.300
222.753	19.295	906.941	697.518
223.767	19.263	906.358	696.879
224.782	19.310	905.621	696.438
225.796	19.393	905.479	696.606
226.811	19.464	904.861	696.352
227.826	19.391	903.681	695.092
228.840	19.225	903.082	693.898
229.855	19.164	902.680	693.283
230.869	19.268	901.734	692.912
231.884	19.134	900.973	691.729
232.899	19.118	900.249	691.047
233.913	19.095	899.343	690.198
234.928	19.056	899.018	689.732
235.942	18.974	897.877	688.468
236.957	18.973	897.287	687.949
237.972	18.967	896.652	687.378
238.986	18.987	896.169	687.029
240.001	19.045	895.505	686.687
241.015	18.985	894.895	685.919
242.030	19.135	894.155	685.889
243.045	19.022	893.909	685.193
244.059	19.137	893.324	685.142
245.074	19.217	892.633	684.869
246.088	19.224	892.021	684.364
247.103	19.343	891.303	684.225
248.117	19.591	890.634	684.635
249.132	19.521	890.579	684.256
250.147	19.833	890.187	685.130
251.161	19.954	889.158	684.757
252.176	20.053	889.063	685.015
253.190	20.088	888.311	684.510
254.205	20.125	887.903	684.281
255.220	20.081	887.863	684.016
256.234	20.222	886.675	683.596
257.249	20.154	885.948	682.709
258.263	20.110	885.424	682.071
259.278	20.027	884.684	681.115
260.293	20.038	884.378	680.862
261.307	20.271	883.762	681.243
262.322	20.144	883.183	680.238
263.336	20.267	882.488	680.123
264.351	20.108	882.411	679.380
265.366	20.266	881.321	679.101
266.380	20.293	880.552	678.553
267.395	20.291	879.823	677.922
268.409	20.133	879.121	676.704
269.424	20.129	878.100	675.846
270.439	20.171	877.571	675.541
271.453	20.087	876.940	674.668
272.468	20.080	875.729	673.652
273.482	19.889	875.515	672.683
274.497	20.093	874.675	672.771
275.512	19.969	873.986	671.701
276.526	19.963	873.600	671.321
277.541	19.940	872.935	670.663
278.555	20.069	872.464	670.740
279.570	20.092	872.255	670.607
280.585	20.380	871.729	671.260
281.599	20.367	871.103	670.667
282.614	20.217	870.174	669.312
283.628	20.161	869.347	668.403
284.643	20.074	868.917	667.675
285.657	19.979	868.508	666.937
286.672	20.113	867.697	666.772
287.687	20.125	867.562	666.653
288.701	20.078	867.211	666.147
289.716	20.165	866.373	665.777
290.730	20.119	865.632	664.973
291.745	20.152	865.115	664.644
292.760	20.337	864.262	664.639
293.774	20.283	863.912	664.101
294.789	20.377	863.645	664.200
295.803	20.475	863.066	664.069
296.818	20.261	862.085	662.436
297.833	20.066	861.543	661.218
298.847	20.251	860.799	661.294
299.862	20.229	860.181	660.677
300.876	20.235	859.796	660.345
301.891	20.568	858.781	660.774
302.906	20.498	858.175	659.982
303.920	20.516	857.946	659.819
304.935	20.865	857.094	660.428
305.949	20.907	856.522	660.086
306.964	20.945	855.475	659.366
307.979	20.685	855.081	658.019
308.993	20.639	854.383	657.251
310.008	20.577	854.624	657.145
311.022	20.678	853.946	656.946
312.037	20.774	853.213	656.685
313.052	20.637	852.514	655.573
314.066	20.540	851.856	654.645
315.081	20.279	850.992	652.942
316.095	20.229	850.443	652.274
317.110	20.342	850.032	652.324
318.125	20.331	849.682	651.957
319.139	20.344	848.993	651.422
320.154	20.441	848.693	651.496
321.168	20.385	848.214	650.859
322.183	20.401	847.849	650.582
323.197	20.289	847.047	649.489
324.212	20.473	846.280	649.532
325.227	20.448	846.012	649.176
326.241	20.416	845.435	648.559
327.256	20.405	844.765	647.946
328.270	20.345	844.149	647.191
329.285	20.360	843.353	646.579
330.300	20.317	843.199	646.245
331.314	20.347	842.354	645.652
332.329	20.390	841.898	645.405
333.343	20.557	841.151	645.394
334.358	20.796	840.841	645.985
335.373	20.846	840.043	645.500
336.387	20.589	840.125	644.553
337.402	20.893	838.910	644.691
338.416	20.981	838.476	644.624
339.431	20.810	838.281	643.788
340.446	20.986	837.792	644.004
341.460	21.117	837.490	644.200
342.475	21.138	836.485	643.445
343.489	21.257	836.261	643.656
344.504	21.283	835.548	643.144
345.519	21.342	835.407	643.196
346.533	21.520	834.788	643.319
347.548	21.535	834.068	642.760
348.562	21.313	833.245	641.255
349.577	21.092	832.566	639.865
350.592	20.753	832.588	638.584
351.606	20.801	831.901	638.174
352.621	20.828	831.238	637.710
353.635	20.724	830.536	636.735
354.650	20.917	830.390	637.271
355.665	20.960	829.864	636.968
356.679	21.101	829.452	637.111
357.694	21.103	828.885	636.625
358.708	21.140	828.575	636.466
359.723	21.108	827.803	635.699
360.738	21.074	827.427	635.232
361.752	21.085	826.764	634.707
362.767	21.045	826.832	634.559
363.781	21.288	826.252	634.937
364.796	21.351	826.086	634.983
365.810	21.456	825.514	634.869
366.825	21.486	825.363	634.805
367.840	21.723	824.812	635.184
368.854	21.633	824.127	634.276
369.869	21.645	823.913	634.098
370.883	21.483	822.845	632.635
371.898	21.503	822.316	632.244
372.913	21.429	822.383	631.973
373.927	21.639	821.444	631.951
374.942	21.520	820.679	630.880
375.956	21.486	820.145	630.289
376.971	21.531	819.675	630.036
377.986	21.732	819.322	630.431
379.000	21.779	818.874	630.198
380.015	21.938	818.207	630.201
381.029	21.902	817.644	629.582
382.044	21.725	817.376	628.687
383.059	21.775	816.662	628.261
384.073	21.896	816.030	628.152
385.088	21.802	815.497	627.348
386.102	21.709	814.553	626.237
387.117	21.493	813.961	624.954
388.132	21.462	813.586	624.498
389.146	21.460	813.042	624.019
390.161	21.543	812.839	624.105
391.175	21.710	812.384	624.297
392.190	21.827	812.603	624.826
393.205	21.715	811.658	623.645
394.219	21.753	810.842	623.098
395.234	21.646	810.453	622.362
396.248	21.626	809.814	621.745
397.263	21.387	809.404	620.528
398.278	21.328	808.778	619.785
399.292	21.372	808.258	619.486
400.307	21.384	808.128	619.374
401.321	21.409	807.557	618.970
402.336	21.537	807.159	619.065
403.350	21.488	806.945	618.672
404.365	21.522	806.874	618.684
405.380	21.583	805.944	618.129
406.394	21.937	805.534	619.010
407.409	21.957	805.257	618.811
408.423	21.986	804.915	618.598
409.438	22.073	804.400	618.453
410.453	22.106	804.363	618.488
411.467	22.186	803.938	618.386
412.482	22.300	803.393	618.314
413.496	22.345	802.435	617.679
414.511	22.364	802.223	617.529
415.526	22.380	802.426	617.687
416.540	22.177	801.966	616.564
417.555	22.229	801.358	616.225
418.569	22.158	801.007	615.652
419.584	22.205	800.443	615.327
420.599	22.224	799.673	614.748
421.613	158.707	1368.339	1788.634
422.628	137.732	1451.216	1788.742
