DTS Sentinel unit serial number:	SN413079Multiplexer serial number:	ORYXHardware model number:	OX4-SRSoftware version number:	ORYX F/W v4.00 Oryx Data Collector v3.7.2.0data status	okinstallation	princeton_trtdifferential loss correction	single-endedforward channel	channel 3reverse channel	N/Adate	2019/09/15time	00:04:35forward acquisition time	60.00reverse acquisition time	0.00gamma	496.2192k internal	0.2319k external	0.2319temperature offset calibration	0.9976default loss term (dB/km)	0.3790temperature slope calibration	1.0000multiplexer offset coefficient	1.0000multiplexer slope coefficient	1.0000fibre end	0.00T internal ref (°C)	32.19T ext. ref 1 (°C)	4.57T ext. ref 2 (°C)	27.18length (m)	temperature (°C)	Stokes	anti-Stokes-747.200	81.183	-0.110	-0.120
-746.185	9.211	-0.270	-0.206
-745.171	59.152	0.257	-0.256
-744.156	800.000	-0.031	0.105
-743.142	-60.582	0.211	-0.091
-742.127	246.588	0.095	0.163
-741.112	208.986	-0.209	-0.331
-740.098	-1.226	0.213	0.152
-739.083	-200.000	-0.003	0.291
-738.069	-127.711	-0.110	0.016
-737.054	800.000	0.046	-0.135
-736.039	-151.200	-0.387	-0.029
-735.025	362.526	-0.158	0.321
-734.010	-34.283	0.098	-0.054
-732.996	103.724	-0.043	-0.052
-731.981	-90.205	0.041	-0.012
-730.966	-117.163	-0.390	-0.072
-729.952	-12.591	-0.048	-0.032
-728.937	800.000	0.019	-0.072
-727.923	55.581	-0.255	0.250
-726.908	-39.712	-0.124	-0.066
-725.894	373.292	0.059	0.121
-724.879	-100.872	-0.239	0.059
-723.864	80.668	0.129	-0.141
-722.850	119.520	0.116	0.145
-721.835	188.793	0.156	0.236
-720.821	380.078	0.190	-0.394
-719.806	171.588	0.104	-0.151
-718.791	87.437	-0.080	-0.089
-717.777	-143.378	0.010	0.001
-716.762	-200.000	0.013	-0.195
-715.748	-34.526	0.294	0.163
-714.733	239.622	-0.107	-0.180
-713.718	-200.000	-0.039	0.278
-712.704	-109.195	-0.123	-0.026
-711.689	-53.930	-0.155	-0.071
-710.675	800.000	-0.050	-0.164
-709.660	428.536	-0.033	-0.073
-708.645	10.220	-0.113	-0.087
-707.631	663.332	-0.056	-0.145
-706.616	318.992	-0.066	0.127
-705.602	-13.260	0.029	-0.019
-704.587	-200.000	0.035	-0.229
-703.572	160.583	-0.178	-0.251
-702.558	-99.314	0.225	-0.057
-701.543	108.949	-0.067	-0.081
-700.529	-17.301	-0.109	-0.069
-699.514	131.086	0.072	0.093
-698.499	-102.871	0.211	-0.051
-697.485	83.611	-0.222	-0.245
-696.470	-200.000	-0.018	0.201
-695.456	-134.281	0.128	0.016
-694.441	-112.620	0.154	-0.031
-693.426	-31.261	-0.247	0.140
-692.412	228.822	-0.095	-0.156
-691.397	66.180	-0.274	0.281
-690.383	-200.000	-0.028	0.235
-689.368	-200.000	-0.014	0.189
-688.354	-200.000	0.003	0.018
-687.339	224.115	-0.158	-0.258
-686.324	-9.558	-0.180	0.121
-685.310	162.015	-0.054	0.076
-684.295	-133.081	-0.091	-0.012
-683.281	-75.327	-0.269	0.097
-682.266	-44.588	0.357	0.180
-681.251	-19.110	0.144	0.090
-680.237	36.230	-0.154	-0.137
-679.222	-200.000	-0.012	0.256
-678.208	68.728	-0.118	0.123
-677.193	-103.018	0.032	0.008
-676.178	-24.277	0.226	0.136
-675.164	-130.115	0.066	0.009
-674.149	-200.000	-0.012	0.156
-673.135	164.517	-0.210	0.299
-672.120	311.334	0.095	-0.180
-671.105	-103.037	-0.111	-0.027
-670.091	-99.089	0.547	-0.140
-669.076	-24.281	-0.103	-0.062
-668.062	-122.650	0.456	0.075
-667.047	-200.000	-0.006	0.135
-666.032	-200.000	0.015	-0.080
-665.018	-113.717	-0.251	0.049
-664.003	-194.235	-0.068	0.001
-662.989	-32.128	-0.086	0.049
-661.974	-200.000	-0.003	0.107
-660.959	-200.000	-0.294	-0.000
-659.945	532.415	-0.069	0.164
-658.930	800.000	0.016	-0.064
-657.916	102.135	-0.132	-0.155
-656.901	800.000	0.043	0.182
-655.886	-145.396	-0.157	-0.014
-654.872	73.898	0.113	0.120
-653.857	-8.849	0.203	0.137
-652.843	800.000	-0.061	-0.215
-651.828	109.286	-0.294	-0.354
-650.814	-56.152	0.055	-0.025
-649.799	-200.000	0.045	0.233
-648.784	-10.979	-0.430	0.286
-647.770	-0.692	0.170	0.122
-646.755	-187.677	0.328	0.004
-645.741	215.670	-0.070	-0.112
-644.726	1.320	-0.315	0.228
-643.711	-200.000	-0.004	0.281
-642.697	-24.431	-0.113	0.068
-641.682	-98.128	-0.414	-0.107
-640.668	57.035	0.058	-0.057
-639.653	417.424	-0.122	-0.262
-638.638	21.018	-0.149	-0.122
-637.624	-96.463	-0.298	0.079
-636.609	192.857	0.128	0.195
-635.595	327.012	-0.167	0.323
-634.580	5.661	-0.090	-0.067
-633.565	40.225	-0.181	0.164
-632.551	258.884	-0.069	0.121
-631.536	-200.000	0.002	-0.218
-630.522	-108.989	-0.201	-0.043
-629.507	158.943	0.129	0.181
-628.492	-200.000	-0.037	0.200
-627.478	-200.000	0.023	0.146
-626.463	-103.320	-0.163	-0.039
-625.449	105.263	-0.164	0.195
-624.434	800.000	-0.102	-0.320
-623.419	-200.000	-0.003	0.027
-622.405	-33.345	0.346	0.193
-621.390	339.284	-0.107	-0.211
-620.376	-40.053	-0.212	-0.111
-619.361	-88.312	-0.221	0.066
-618.346	-200.000	-0.017	-0.321
-617.332	-200.000	0.008	0.103
-616.317	63.467	-0.150	0.151
-615.303	-200.000	-0.009	-0.042
-614.288	151.392	-0.172	0.235
-613.273	36.789	0.331	0.295
-612.259	33.783	-0.141	0.123
-611.244	800.000	-0.138	-0.400
-610.230	-134.781	0.381	-0.047
-609.215	52.276	-0.091	0.087
-608.201	800.000	-0.039	-0.127
-607.186	33.085	0.197	0.172
-606.171	574.446	-0.070	-0.172
-605.157	553.960	-0.064	-0.155
-604.142	287.454	0.077	-0.140
-603.128	381.967	-0.070	-0.144
-602.113	95.416	0.179	0.206
-601.098	0.650	-0.257	0.185
-600.084	-126.447	0.170	0.025
-599.069	84.997	0.108	-0.119
-598.055	-200.000	0.005	0.083
-597.040	19.139	0.050	-0.041
-596.025	126.948	-0.090	-0.115
-595.011	58.871	-0.257	0.254
-593.996	301.877	0.073	0.135
-592.982	800.000	0.029	0.120
-591.967	-200.000	0.024	-0.222
-590.952	18.407	-0.467	-0.375
-589.938	-126.689	-0.268	0.040
-588.923	-198.310	0.159	-0.001
-587.909	29.102	0.280	-0.239
-586.894	736.351	0.082	0.221
-585.879	-200.000	-0.034	0.251
-584.865	422.286	-0.094	-0.203
-583.850	281.646	-0.050	0.090
-582.836	-200.000	-0.047	0.291
-581.821	-200.000	-0.023	-0.179
-580.806	-158.720	-0.265	0.015
-579.792	-137.623	0.332	0.038
-578.777	611.202	-0.043	-0.109
-577.763	19.751	-0.102	-0.083
-576.748	131.897	0.153	0.198
-575.733	-61.867	0.104	-0.044
-574.719	166.250	0.148	-0.211
-573.704	-143.124	-0.292	-0.028
-572.690	212.694	-0.035	-0.055
-571.675	-131.611	-0.149	0.020
-570.661	800.000	-0.051	-0.161
-569.646	-200.000	-0.061	0.305
-568.631	100.454	-0.021	0.024
-567.617	800.000	0.029	-0.120
-566.602	800.000	-0.015	-0.048
-565.588	8.517	-0.157	0.119
-564.573	34.086	-0.073	0.064
-563.558	-200.000	0.037	-0.274
-562.544	-31.588	-0.126	-0.071
-561.529	800.000	0.096	-0.393
-560.515	-29.385	-0.039	-0.022
-559.500	-200.000	-0.043	-0.304
-558.485	60.442	0.047	0.047
-557.471	92.444	-0.115	-0.130
-556.456	-85.316	-0.464	-0.145
-555.442	-179.959	0.337	-0.007
-554.427	349.781	0.104	0.206
-553.412	29.788	-0.111	-0.095
-552.398	-70.673	-0.178	0.068
-551.383	-81.968	0.161	-0.053
-550.369	-38.129	-0.184	-0.098
-549.354	-2.203	0.195	0.137
-548.339	-26.936	-0.060	-0.035
-547.325	583.967	-0.030	0.074
-546.310	-114.126	0.159	-0.031
-545.296	-51.759	-0.078	-0.036
-544.281	-35.053	0.248	-0.136
-543.266	-3.872	-0.107	0.074
-542.252	-92.734	0.374	0.105
-541.237	-50.877	-0.136	-0.064
-540.223	-82.683	-0.221	-0.072
-539.208	-166.706	-0.105	0.004
-538.193	622.161	-0.067	-0.168
-537.179	-200.000	-0.020	0.353
-536.164	382.631	-0.123	-0.255
-535.150	-144.122	0.091	-0.009
-534.135	54.141	-0.026	-0.025
-533.121	-115.072	0.373	0.071
-532.106	800.000	0.075	0.257
-531.091	-200.000	0.006	0.283
-530.077	347.763	-0.089	0.177
-529.062	-148.171	-0.196	-0.016
-528.048	-76.193	0.052	0.019
-527.033	153.633	0.118	-0.162
-526.018	148.491	0.237	-0.321
-525.004	-200.000	0.405	-0.002
-523.989	800.000	0.023	-0.080
-522.975	-95.689	-0.037	0.010
-521.960	641.094	-0.167	0.426
-520.945	-114.771	0.242	-0.046
-519.931	4.010	0.144	0.106
-518.916	-200.000	0.004	-0.137
-517.902	-200.000	0.035	-0.441
-516.887	-9.386	-0.335	-0.224
-515.872	522.361	-0.122	-0.287
-514.858	67.525	-0.171	-0.175
-513.843	-14.731	-0.240	0.154
-512.829	800.000	-0.058	0.181
-511.814	58.427	0.048	-0.047
-510.799	-163.327	-0.401	-0.019
-509.785	139.290	-0.062	0.082
-508.770	-66.066	-0.207	-0.083
-507.756	403.979	0.105	-0.221
-506.741	-48.954	-0.055	0.026
-505.726	-76.107	0.343	0.121
-504.712	677.759	0.045	-0.117
-503.697	-17.150	0.221	-0.139
-502.683	-83.611	-0.286	-0.092
-501.668	515.773	-0.254	0.594
-500.653	-29.578	0.203	0.116
-499.639	-167.693	-0.199	-0.008
-498.624	-61.407	0.265	0.112
-497.610	-134.167	0.254	-0.031
-496.595	97.643	-0.080	0.092
-495.581	6.359	-0.173	-0.129
-494.566	-130.320	0.264	-0.036
-493.551	149.527	-0.130	-0.177
-492.537	800.000	-0.074	0.313
-491.522	123.463	-0.216	0.271
-490.508	-200.000	0.046	-0.235
-489.493	145.961	0.145	0.195
-488.478	23.096	0.185	0.152
-487.464	800.000	-0.058	0.202
-486.449	186.536	0.248	0.370
-485.435	108.695	-0.145	0.174
-484.420	-200.000	-0.015	-0.266
-483.405	-200.000	-0.006	0.188
-482.391	-200.000	-0.004	0.262
-481.376	216.607	0.168	-0.267
-480.362	74.811	-0.168	-0.178
-479.347	-153.946	-0.283	-0.019
-478.332	32.817	0.096	0.083
-477.318	800.000	-0.005	-0.021
-476.303	-12.347	0.338	-0.221
-475.289	37.131	-0.161	-0.142
-474.274	49.257	-0.226	-0.213
-473.259	-38.188	0.205	0.109
-472.245	800.000	0.062	0.214
-471.230	4.400	0.112	-0.082
-470.216	-86.545	0.033	0.010
-469.201	-19.031	-0.172	0.107
-468.186	800.000	-0.052	0.225
-467.172	-118.959	0.369	0.065
-466.157	800.000	-0.119	-0.403
-465.143	800.000	-0.119	-0.398
-464.128	150.402	0.085	0.116
-463.113	75.231	0.142	-0.150
-462.099	-96.663	0.216	0.057
-461.084	-66.617	0.504	-0.200
-460.070	-200.000	0.043	-0.450
-459.055	-89.623	-0.068	-0.020
-458.040	-200.000	-0.021	-0.299
-457.026	-200.000	0.004	-0.039
-456.011	-200.000	-0.014	-0.085
-454.997	719.307	-0.121	-0.321
-453.982	-91.552	0.340	-0.097
-452.968	-116.768	-0.109	0.020
-451.953	-66.625	-0.046	-0.018
-450.938	-52.192	0.447	0.207
-449.924	-48.605	0.088	0.042
-448.909	800.000	-0.063	-0.227
-447.895	-191.766	0.311	-0.003
-446.880	28.761	-0.243	0.206
-445.865	-200.000	0.068	0.324
-444.851	340.304	-0.056	-0.110
-443.836	-200.000	-0.005	0.288
-442.822	-200.000	-0.039	-0.320
-441.807	736.621	-0.031	0.083
-440.792	243.353	-0.124	0.208
-439.778	800.000	0.049	0.165
-438.763	126.570	-0.182	0.231
-437.749	63.465	-0.156	0.156
-436.734	265.267	-0.033	0.058
-435.719	79.954	-0.074	0.079
-434.705	800.000	-0.026	0.096
-433.690	153.178	0.127	0.174
-432.676	-200.000	0.022	0.243
-431.661	21.603	-0.077	0.063
-430.646	293.786	-0.146	0.267
-429.632	-99.437	-0.420	-0.106
-428.617	-171.772	-0.216	0.007
-427.603	-200.000	0.013	-0.143
-426.588	-90.839	-0.255	-0.073
-425.573	-84.424	-0.350	-0.110
-424.559	176.165	-0.125	0.181
-423.544	-200.000	-0.005	0.164
-422.530	91.202	-0.128	-0.144
-421.515	-200.000	-0.104	0.530
-420.500	-9.735	-0.151	-0.100
-419.486	-26.832	0.079	0.046
-418.471	-126.909	-0.223	-0.033
-417.457	-179.742	-0.266	-0.006
-416.442	244.224	-0.030	0.050
-415.428	-124.518	-0.496	-0.077
-414.413	185.542	0.121	0.179
-413.398	213.247	0.075	-0.118
-412.384	-58.418	0.245	-0.106
-411.369	92.712	0.162	-0.183
-410.355	67.100	0.316	-0.322
-409.340	25.195	-0.129	-0.107
-408.325	117.924	-0.117	-0.143
-407.311	518.901	0.037	-0.086
-406.296	-124.485	-0.039	0.006
-405.282	-37.043	0.203	0.108
-404.267	-200.000	0.003	0.032
-403.252	86.007	0.037	0.041
-402.238	-200.000	0.002	0.063
-401.223	100.393	0.044	0.051
-400.209	-91.372	-0.299	-0.085
-399.194	-163.611	0.163	-0.008
-398.179	93.316	-0.195	0.220
-397.165	418.944	0.030	0.064
-396.150	12.911	-0.154	0.119
-395.136	-54.416	0.095	0.043
-394.121	-68.306	-0.349	0.135
-393.106	645.179	0.038	-0.097
-392.092	727.570	0.143	0.381
-391.077	-200.000	0.004	0.335
-390.063	371.570	-0.051	-0.102
-389.048	-62.062	-0.081	0.034
-388.033	-120.795	0.240	0.040
-387.019	259.267	0.089	0.153
-386.004	-29.409	-0.241	0.138
-384.990	800.000	-0.041	-0.133
-383.975	-134.625	-0.192	-0.023
-382.960	3.251	0.056	-0.040
-381.946	-77.634	0.342	-0.118
-380.931	-32.045	-0.236	0.131
-379.917	-110.046	-0.040	0.008
-378.902	-200.000	0.005	-0.223
-377.888	179.113	0.181	-0.265
-376.873	163.766	-0.192	-0.269
-375.858	200.349	0.069	-0.105
-374.844	-200.000	-0.001	0.240
-373.829	21.739	-0.094	0.077
-372.815	-200.000	-0.017	0.240
-371.800	145.293	0.083	0.110
-370.785	-107.150	-0.371	-0.082
-369.771	-200.000	0.001	-0.017
-368.756	-200.000	-0.055	0.392
-367.742	206.059	0.166	-0.258
-366.727	800.000	-0.071	0.256
-365.712	305.726	0.134	0.248
-364.698	-200.000	-0.068	-0.321
-363.683	721.013	0.121	-0.320
-362.669	186.552	-0.100	-0.148
-361.654	-37.656	-0.048	0.026
-360.639	488.982	-0.115	0.263
-359.625	100.211	0.135	-0.156
-358.610	243.475	0.020	-0.034
-357.596	263.889	-0.091	0.158
-356.581	113.096	-0.190	-0.229
-355.566	-47.733	0.220	0.106
-354.552	133.037	-0.115	-0.148
-353.537	20.226	-0.179	0.144
-352.523	486.957	0.046	0.104
-351.508	-140.507	0.207	0.021
-350.493	-5.791	0.276	-0.188
-349.479	-34.010	-0.351	-0.192
-348.464	-27.294	0.184	-0.107
-347.450	-200.000	0.005	-0.157
-346.435	-76.039	-0.250	0.088
-345.420	800.000	-0.036	0.138
-344.406	-99.941	0.263	0.065
-343.391	14.358	-0.191	0.148
-342.377	-7.253	0.287	-0.194
-341.362	-200.000	-0.008	0.140
-340.348	-200.000	-0.020	0.168
-339.333	253.927	0.035	-0.059
-338.318	-176.434	-0.180	0.005
-337.304	800.000	0.027	0.088
-336.289	89.743	0.157	0.174
-335.275	436.275	0.023	-0.050
-334.260	2.317	0.141	0.101
-333.245	124.374	-0.099	-0.124
-332.231	44.612	-0.055	-0.051
-331.216	-18.999	0.123	0.076
-330.202	34.450	0.246	0.214
-329.187	261.188	-0.127	0.220
-328.172	113.890	-0.027	-0.033
-327.158	84.922	-0.109	0.118
-326.143	800.000	-0.041	0.180
-325.129	-185.534	0.351	0.005
-324.114	-102.804	0.077	0.018
-323.099	29.119	0.332	-0.280
-322.085	-108.280	0.301	-0.065
-321.070	-41.443	0.250	-0.128
-320.056	16.439	-0.223	-0.175
-319.041	-86.055	-0.171	0.053
-318.026	342.081	0.126	0.245
-317.012	24.204	-0.039	0.032
-315.997	-105.990	-0.204	0.046
-314.983	181.281	0.082	-0.120
-313.968	-132.778	0.277	0.035
-312.953	-10.048	0.070	0.046
-311.939	-110.644	-0.130	-0.027
-310.924	-91.146	0.266	0.076
-309.910	-200.000	-0.045	0.340
-308.895	174.298	-0.084	-0.121
-307.880	118.551	-0.040	0.050
-306.866	-22.471	0.207	-0.125
-305.851	102.181	0.239	-0.277
-304.837	-147.472	-0.067	0.006
-303.822	-115.467	-0.107	-0.020
-302.807	43.496	0.248	0.225
-301.793	22.093	0.322	0.261
-300.778	-130.241	0.203	-0.027
-299.764	-200.000	-0.004	-0.044
-298.749	-37.690	-0.260	-0.137
-297.735	-200.000	0.005	-0.247
-296.720	78.894	0.011	-0.011
-295.705	-120.501	0.195	0.033
-294.691	-87.052	0.174	-0.053
-293.676	800.000	0.081	-0.302
-292.662	84.976	0.101	-0.110
-291.647	75.458	-0.167	-0.176
-290.632	-200.000	-0.028	0.310
-289.618	81.770	0.139	-0.149
-288.603	-152.088	0.335	-0.024
-287.589	-200.000	-0.010	0.091
-286.574	166.065	-0.142	-0.200
-285.559	-200.000	0.022	0.159
-284.545	341.864	0.165	0.320
-283.530	-133.238	-0.270	-0.034
-282.516	116.928	-0.076	0.093
-281.501	168.721	-0.168	-0.237
-280.486	496.838	0.038	0.086
-279.472	-45.493	-0.333	-0.164
-278.457	-200.000	0.081	-0.362
-277.443	550.241	-0.116	-0.275
-276.428	-200.000	0.008	0.205
-275.413	-149.143	0.552	0.044
-274.399	74.659	0.321	0.336
-273.384	-173.574	0.342	-0.010
-272.370	-53.153	0.118	-0.054
-271.355	-69.053	0.049	0.019
-270.340	-200.000	-0.004	-0.057
-269.326	25.379	-0.131	-0.109
-268.311	543.722	0.250	0.592
-267.297	-81.561	-0.230	-0.075
-266.282	491.756	0.123	-0.280
-265.267	-68.172	0.249	-0.096
-264.253	-115.936	-0.184	0.034
-263.238	351.233	-0.152	-0.299
-262.224	84.267	-0.050	-0.054
-261.209	-138.460	0.138	0.015
-260.195	273.438	0.014	-0.025
-259.180	313.090	-0.020	-0.037
-258.165	-35.288	-0.271	-0.146
-257.151	-168.111	-0.144	0.006
-256.136	232.058	0.102	0.166
-255.122	-40.668	-0.051	-0.026
-254.107	-46.878	0.116	0.056
-253.092	-159.885	0.272	-0.015
-252.078	-200.000	-0.025	-0.538
-251.063	-52.570	-0.161	-0.074
-250.049	-118.041	-0.144	0.025
-249.034	779.115	-0.115	0.311
-248.019	-50.085	0.287	0.135
-247.005	-114.585	-0.127	-0.024
-245.990	225.595	0.057	0.092
-244.976	800.000	0.052	-0.166
-243.961	-129.947	-0.321	0.044
-242.946	-151.688	0.105	-0.008
-241.932	-90.215	0.259	-0.075
-240.917	-56.305	0.139	0.061
-239.903	14.221	-0.137	0.106
-238.888	317.331	0.221	0.415
-237.873	-200.000	-0.045	-0.287
-236.859	-138.033	0.212	-0.023
-235.844	11.143	0.079	-0.060
-234.830	125.808	-0.093	0.116
-233.815	-85.470	-0.185	-0.057
-232.800	800.000	-0.047	0.151
-231.786	112.554	0.077	0.093
-230.771	508.298	0.025	0.057
-229.757	800.000	-0.055	0.201
-228.742	288.175	0.069	-0.124
-227.727	-200.000	0.026	-0.273
-226.713	-149.524	-0.135	0.011
-225.698	800.000	-0.105	-0.289
-224.684	-200.000	0.040	-0.302
-223.669	56.811	0.211	-0.204
-222.655	800.000	0.045	0.164
-221.640	-59.802	0.224	-0.095
-220.625	-200.000	-0.001	-0.287
-219.611	-49.065	-0.225	0.106
-218.596	-4.308	0.166	-0.114
-217.582	-200.000	0.010	-0.121
-216.567	180.863	0.035	0.052
-215.552	-89.227	0.096	0.028
-214.538	-103.225	0.255	0.060
-213.523	-200.000	0.015	0.124
-212.509	-10.279	-0.339	-0.223
-211.494	301.680	0.129	0.237
-210.479	-137.850	-0.348	0.039
-209.465	-117.092	-0.134	0.024
-208.450	800.000	-0.065	0.193
-207.436	141.604	0.201	-0.264
-206.421	-35.163	-0.111	0.060
-205.406	-200.000	0.047	-0.404
-204.392	198.098	-0.148	-0.224
-203.377	-189.752	0.102	0.001
-202.363	69.908	0.149	0.153
-201.348	-67.729	0.325	0.126
-200.333	-31.010	-0.179	0.100
-199.319	-76.421	0.486	-0.169
-198.304	-87.347	0.194	0.058
-197.290	-42.353	0.205	-0.104
-196.275	325.830	-0.128	-0.243
-195.260	-91.796	-0.367	-0.103
-194.246	800.000	-0.028	0.097
-193.231	2.175	0.306	0.219
-192.217	-82.366	0.063	-0.020
-191.202	-38.220	-0.249	0.131
-190.187	684.433	0.081	0.210
-189.173	-114.213	-0.126	0.024
-188.158	-53.733	0.421	-0.190
-187.144	-200.000	-0.025	-0.339
-186.129	71.888	-0.183	-0.189
-185.114	800.000	-0.040	-0.164
-184.100	-72.725	0.152	-0.055
-183.085	-79.884	0.224	-0.074
-182.071	502.749	-0.058	0.132
-181.056	-38.329	-0.161	0.084
-180.042	-159.148	-0.076	-0.004
-179.027	800.000	-0.025	-0.085
-178.012	-200.000	0.004	-0.188
-176.998	240.215	0.166	-0.274
-175.983	267.765	0.152	-0.263
-174.969	-106.851	-0.182	0.040
-173.954	-200.000	-0.004	0.042
-172.939	-153.610	0.036	0.002
-171.925	45.251	-0.157	0.143
-170.910	-60.066	0.097	-0.041
-169.896	-200.000	-0.280	0.001
-168.881	-200.000	0.010	-0.066
-167.866	-200.000	0.005	0.274
-166.852	800.000	-0.012	0.047
-165.837	-154.934	-0.124	0.008
-164.823	-15.440	-0.025	0.016
-163.808	-57.054	0.121	-0.053
-162.793	-200.000	0.018	0.212
-161.779	222.634	0.073	0.116
-160.764	-53.394	-0.271	-0.123
-159.750	-57.238	0.183	-0.080
-158.735	-200.000	0.098	0.520
-157.720	-89.715	0.088	-0.025
-156.706	205.302	0.150	0.230
-155.691	122.630	-0.094	0.116
-154.677	800.000	0.092	-0.339
-153.662	-153.236	-0.293	0.020
-152.647	-61.881	0.255	0.105
-151.633	-156.915	0.305	-0.018
-150.618	39.085	0.119	-0.105
-149.604	800.000	0.061	0.172
-148.589	-130.425	0.200	-0.027
-147.574	-51.723	-0.018	0.008
-146.560	-118.946	-0.130	0.023
-145.545	317.811	0.137	0.256
-144.531	800.000	0.143	0.458
-143.516	-158.765	-0.128	-0.007
-142.502	800.000	-0.045	0.190
-141.487	99.909	-0.072	-0.082
-140.472	-27.403	0.264	0.152
-139.458	-99.310	-0.361	0.090
-138.443	395.104	-0.117	-0.242
-137.429	-200.000	0.037	-0.189
-136.414	-200.000	0.001	0.014
-135.399	52.014	0.176	0.166
-134.385	-82.299	-0.294	-0.095
-133.370	800.000	-0.025	0.074
-132.356	-200.000	-0.036	0.300
-131.341	-144.021	-0.157	0.015
-130.326	-114.761	0.086	0.016
-129.312	800.000	-0.048	0.172
-128.297	-139.686	0.190	0.020
-127.283	-199.529	0.309	-0.002
-126.268	55.299	-0.263	0.251
-125.253	-200.000	-0.024	0.129
-124.239	-145.882	0.105	0.009
-123.224	-51.621	-0.148	0.068
-122.210	-200.000	-0.057	0.438
-121.195	-200.000	-0.000	-0.165
-120.180	800.000	-0.072	-0.198
-119.166	-154.458	-0.102	-0.007
-118.151	273.018	0.059	-0.103
-117.137	258.650	-0.042	-0.071
-116.122	-62.580	-0.025	-0.010
-115.107	-183.645	-0.187	0.003
-114.093	71.484	-0.248	0.254
-113.078	219.769	0.068	0.108
-112.064	-133.969	-0.073	-0.009
-111.049	-200.000	-0.028	0.294
-110.034	-145.491	-0.161	-0.014
-109.020	-200.000	0.015	0.255
-108.005	-75.107	0.194	0.068
-106.991	-200.000	0.014	0.361
-105.976	180.308	0.169	-0.245
-104.962	227.637	-0.053	0.086
-103.947	-200.000	0.006	0.337
-102.932	111.450	-0.193	0.230
-101.918	-75.650	0.119	-0.042
-100.903	-45.052	0.019	-0.009
-99.889	-200.000	-0.021	-0.187
-98.874	53.528	-0.063	-0.059
-97.859	-25.124	0.091	-0.053
-96.845	106.703	0.051	0.060
-95.830	-200.000	-0.049	0.394
-94.816	-6.444	-0.046	-0.031
-93.801	29.983	0.152	0.128
-92.786	-200.000	0.007	0.172
-91.772	-69.956	0.184	-0.069
-90.757	281.575	0.171	0.302
-89.743	-200.000	-0.042	-0.274
-88.728	-45.681	-0.271	-0.132
-87.713	-87.384	0.152	0.046
-86.699	63.910	-0.217	0.215
-85.684	239.834	0.123	-0.201
-84.670	-107.645	-0.119	-0.026
-83.655	-109.780	0.225	0.047
-82.640	-18.243	0.206	0.127
-81.626	-200.000	0.029	0.451
-80.611	800.000	0.133	-0.370
-79.597	-191.130	-0.477	0.005
-78.582	328.417	-0.089	0.169
-77.567	15.389	0.138	-0.107
-76.553	800.000	-0.044	0.145
-75.538	-200.000	0.005	-0.097
-74.524	-79.517	0.308	-0.103
-73.509	154.561	-0.158	0.213
-72.494	-87.148	0.061	-0.018
-71.480	-29.093	0.275	-0.156
-70.465	259.541	-0.222	-0.378
-69.451	-120.954	-0.241	0.040
-68.436	-48.285	0.096	-0.046
-67.422	-152.184	-0.174	0.012
-66.407	-36.632	-0.072	-0.038
-65.392	133.851	0.114	0.146
-64.378	216.588	-0.163	-0.256
-63.363	37.667	0.010	-0.009
-62.349	-68.362	-0.064	-0.024
-61.334	111.582	-0.727	-0.864
-60.319	608.095	0.221	0.542
-59.305	-200.000	-0.038	-0.926
-58.290	800.000	0.423	1.394
-57.276	388.844	0.905	1.845
-56.261	-200.000	95.280	596.179
-55.246	678.376	1367.728	3503.167
-54.232	200.087	2540.972	3841.861
-53.217	121.254	2160.551	2648.909
-52.203	43.090	1706.225	1532.740
-51.188	35.403	1519.514	1312.627
-50.173	32.957	1492.917	1273.139
-49.159	52.173	1541.020	1446.154
-48.144	54.111	1558.435	1475.710
-47.130	35.649	1518.422	1313.158
-46.115	32.422	1504.161	1278.884
-45.100	32.305	1500.489	1274.918
-44.086	32.233	1498.841	1272.980
-43.071	32.259	1497.016	1271.556
-42.057	32.142	1495.311	1269.267
-41.042	32.180	1493.904	1268.283
-40.027	32.133	1492.496	1266.719
-39.013	32.149	1491.176	1265.656
-37.998	32.134	1489.800	1264.333
-36.984	32.152	1488.809	1263.564
-35.969	32.187	1487.178	1262.367
-34.954	32.224	1486.006	1261.572
-33.940	32.153	1484.373	1259.658
-32.925	32.230	1482.954	1258.918
-31.911	32.316	1481.276	1258.019
-30.896	32.270	1480.397	1256.914
-29.881	32.267	1478.967	1255.630
-28.867	32.351	1477.185	1254.633
-27.852	32.335	1475.664	1253.181
-26.838	32.270	1474.675	1251.857
-25.823	32.346	1473.081	1250.964
-24.809	32.168	1471.633	1248.501
-23.794	32.262	1469.753	1247.478
-22.779	32.277	1468.611	1246.557
-21.765	32.269	1467.568	1245.571
-20.750	32.210	1466.792	1244.472
-19.736	32.125	1465.816	1243.032
-18.721	32.213	1464.595	1242.531
-17.706	32.154	1462.899	1240.651
-16.692	32.080	1462.637	1239.889
-15.677	32.153	1460.901	1238.852
-14.663	32.068	1460.336	1237.766
-13.648	32.114	1459.298	1237.139
-12.633	32.206	1458.342	1236.885
-11.619	32.173	1457.623	1236.006
-10.604	32.133	1456.666	1234.883
-9.590	32.122	1455.905	1234.120
-8.575	32.084	1455.292	1233.302
-7.560	32.078	1454.228	1232.310
-6.546	32.125	1453.382	1231.850
-5.531	32.202	1452.485	1231.547
-4.517	32.132	1450.991	1229.775
-3.502	32.120	1449.928	1228.746
-2.487	32.006	1449.627	1227.699
-1.473	32.259	1447.916	1227.853
-0.458	32.211	1446.709	1226.468
0.556	31.033	1437.230	1215.513
1.571	28.050	1411.943	1174.884
2.586	24.600	1351.612	1103.319
3.600	23.020	1270.235	1027.622
4.615	21.597	1224.225	982.334
5.629	18.675	1168.032	921.495
6.644	11.108	1085.133	818.136
7.659	5.390	1045.898	760.729
8.673	4.586	1040.733	753.011
9.688	4.600	1037.676	750.801
10.702	4.577	1036.178	749.539
11.717	4.518	1033.994	747.609
12.731	6.609	1035.511	758.707
13.746	13.586	1045.529	799.761
14.761	18.620	1051.510	828.642
15.775	18.558	1050.109	827.165
16.790	17.422	1048.558	820.398
17.804	16.333	1045.981	813.068
18.819	15.520	1044.159	807.671
19.834	15.164	1042.508	804.612
20.848	14.830	1041.793	802.386
21.863	14.658	1041.308	801.116
22.877	14.430	1039.999	798.948
23.892	14.138	1039.757	797.289
24.907	14.210	1038.757	796.800
25.921	14.174	1038.010	795.981
26.936	14.289	1037.160	795.810
27.950	14.130	1036.204	794.246
28.965	14.229	1034.949	793.685
29.980	14.295	1034.200	793.354
30.994	14.354	1032.954	792.612
32.009	14.474	1032.125	792.477
33.023	14.457	1031.518	791.860
34.038	14.477	1030.680	791.241
35.053	14.294	1030.072	789.834
36.067	14.255	1028.815	788.617
37.082	14.251	1027.930	787.852
38.096	14.239	1026.810	786.867
39.111	14.346	1026.296	786.908
40.126	14.399	1025.629	786.574
41.140	14.332	1024.355	785.214
42.155	14.073	1023.517	783.283
43.169	14.016	1022.439	782.120
44.184	14.044	1021.540	781.493
45.199	13.846	1020.750	779.890
46.213	13.994	1019.319	779.421
47.228	14.154	1018.172	779.225
48.242	14.180	1017.394	778.684
49.257	14.269	1016.028	777.987
50.271	14.240	1015.427	777.322
51.286	14.333	1014.273	776.803
52.301	14.322	1013.632	776.190
53.315	14.268	1013.059	775.431
54.330	14.204	1012.170	774.384
55.344	14.100	1011.225	773.108
56.359	14.248	1009.934	772.741
57.374	14.209	1009.354	772.048
58.388	14.096	1008.861	771.078
59.403	14.134	1007.816	770.389
60.417	13.981	1007.049	769.026
61.432	14.066	1006.395	768.853
62.447	14.009	1005.707	767.996
63.461	13.870	1005.237	766.925
64.476	13.828	1004.257	765.914
65.490	13.726	1003.442	764.754
66.505	13.846	1002.394	764.443
67.520	14.132	1000.891	764.545
68.534	13.972	1000.992	763.820
69.549	13.968	1000.084	763.038
70.563	14.004	998.900	762.234
71.578	13.987	998.331	761.652
72.593	13.998	997.481	760.989
73.607	13.845	996.485	759.460
74.622	13.767	995.925	758.609
75.636	13.737	995.152	757.818
76.651	13.858	993.718	757.211
77.666	13.817	993.740	756.972
78.680	13.852	992.857	756.391
79.695	13.891	992.314	756.088
80.709	13.934	991.601	755.673
81.724	13.950	990.839	755.099
82.739	13.931	990.189	754.453
83.753	14.120	989.216	754.502
84.768	14.156	988.669	754.182
85.782	14.298	987.719	754.035
86.797	14.348	987.294	753.866
87.812	14.367	986.402	753.204
88.826	14.207	986.014	752.119
89.841	14.196	985.108	751.313
90.855	14.331	983.997	751.008
91.870	14.322	983.351	750.406
92.884	14.291	982.920	749.872
93.899	14.320	982.094	749.307
94.914	14.388	981.168	748.837
95.928	14.514	980.402	748.754
96.943	14.453	979.820	747.970
97.957	14.308	978.728	746.422
98.972	14.301	978.305	746.002
99.987	14.415	977.331	745.703
101.001	14.272	976.840	744.620
102.016	14.290	975.745	743.802
103.030	14.271	974.972	743.061
104.045	14.310	974.140	742.536
105.060	14.208	973.238	741.329
106.074	14.400	971.927	741.118
107.089	14.122	971.562	739.537
108.103	14.061	970.351	738.280
109.118	14.036	969.498	737.457
110.133	14.121	968.565	737.055
111.147	14.006	967.533	735.697
112.162	14.002	966.710	734.986
113.176	14.004	966.465	734.744
114.191	14.160	965.082	734.317
115.206	14.048	964.551	733.354
116.220	14.189	963.416	733.046
117.235	14.064	963.007	732.123
118.249	14.127	962.113	731.653
119.264	14.043	961.036	730.403
120.279	13.913	960.443	729.315
121.293	14.057	959.564	729.215
122.308	14.036	958.947	728.589
123.322	13.886	958.526	727.548
124.337	14.027	956.363	726.460
125.352	13.864	956.019	725.419
126.366	13.902	954.529	724.392
127.381	14.016	953.495	724.041
128.395	13.912	952.875	723.053
129.410	13.953	951.647	722.232
130.424	14.035	951.008	722.044
131.439	13.886	950.760	721.142
132.454	13.885	949.662	720.240
133.468	14.196	948.676	720.779
134.483	14.190	948.248	720.361
135.497	14.094	947.588	719.384
136.512	14.139	946.867	718.965
137.527	14.078	946.148	718.095
138.541	14.117	945.499	717.706
139.556	14.106	944.973	717.192
140.570	14.182	943.845	716.603
141.585	14.223	942.842	715.956
142.600	14.229	942.371	715.560
143.614	14.360	941.442	715.352
144.629	14.355	940.848	714.818
145.643	14.472	940.380	714.901
146.658	14.358	939.270	713.504
147.673	14.303	938.634	712.724
148.687	14.282	937.441	711.666
149.702	14.193	936.664	710.630
150.716	14.203	935.738	709.908
151.731	14.202	935.132	709.381
152.746	14.178	934.022	708.373
153.760	14.235	933.345	708.039
154.775	14.119	932.919	707.163
155.789	14.322	931.966	707.237
156.804	14.364	931.604	707.081
157.819	14.438	930.545	706.529
158.833	14.315	930.126	705.624
159.848	14.363	929.276	705.122
160.862	14.440	928.435	704.745
161.877	14.418	927.900	704.183
162.892	14.406	926.645	703.119
163.906	14.231	926.354	702.100
164.921	14.093	925.452	700.770
165.935	14.216	924.531	700.532
166.950	14.331	923.443	700.129
167.964	14.323	922.496	699.313
168.979	14.412	921.359	698.763
169.994	14.303	920.997	697.968
171.008	14.315	919.660	696.945
172.023	14.312	919.095	696.443
173.037	14.329	918.430	695.948
174.052	14.551	917.508	696.116
175.067	14.543	917.138	695.737
176.081	14.456	916.236	694.631
177.096	14.308	915.588	693.460
178.110	14.417	914.344	692.912
179.125	14.258	914.168	692.056
180.140	14.311	913.563	691.754
181.154	14.486	912.438	691.568
182.169	14.448	911.988	691.011
183.183	14.476	911.532	690.720
184.198	14.652	910.616	690.691
185.213	14.669	909.861	690.128
186.227	14.539	909.602	689.333
187.242	14.729	909.021	689.616
188.256	14.642	908.769	689.004
189.271	14.702	907.694	688.377
190.286	14.739	906.846	687.824
191.300	14.608	906.041	686.615
192.315	14.368	905.092	684.850
193.329	14.382	904.231	684.193
194.344	14.406	903.611	683.764
195.359	14.398	903.517	683.599
196.373	14.476	902.944	683.422
197.388	14.516	902.504	683.194
198.402	14.759	901.773	683.576
199.417	14.797	901.505	683.466
200.432	14.880	901.361	683.635
201.446	15.021	900.567	683.549
202.461	14.974	900.336	683.120
203.475	15.130	899.578	683.121
204.490	15.036	899.340	682.500
205.504	14.969	898.083	681.210
206.519	14.854	897.376	680.147
207.534	14.790	896.482	679.149
208.548	14.835	895.979	678.891
209.563	14.888	895.087	678.371
210.577	14.929	894.462	678.000
211.592	14.733	894.233	676.975
212.607	14.946	893.866	677.500
213.621	15.164	892.960	677.634
214.636	15.008	892.337	676.471
215.650	14.999	891.461	675.710
216.665	15.044	890.853	675.370
217.680	15.085	890.874	675.492
218.694	15.090	890.152	674.907
219.709	15.160	889.279	674.468
220.723	15.212	889.037	674.432
221.738	15.099	888.486	673.501
222.753	15.086	887.442	672.596
223.767	15.013	886.855	671.798
224.782	15.069	886.114	671.404
225.796	15.292	885.192	671.540
226.811	15.206	884.610	670.696
227.826	15.305	884.130	670.669
228.840	15.173	883.421	669.542
229.855	15.247	882.358	668.975
230.869	15.146	881.926	668.181
231.884	15.179	881.642	668.038
232.899	15.216	880.668	667.389
233.913	15.139	879.865	666.417
234.928	15.064	879.237	665.582
235.942	15.074	878.752	665.196
236.957	15.172	877.938	664.912
237.972	15.157	877.237	664.263
238.986	15.144	876.470	663.572
240.001	15.272	875.986	663.653
241.015	15.209	875.292	662.818
242.030	15.154	874.727	662.117
243.045	15.163	874.019	661.555
244.059	15.252	873.772	661.662
245.074	15.247	873.226	661.170
246.088	15.227	872.688	660.626
247.103	15.263	871.871	660.089
248.117	15.370	871.270	659.998
249.132	15.599	870.667	660.382
250.147	15.632	869.991	659.942
251.161	15.655	869.499	659.600
252.176	15.642	869.128	659.210
253.190	15.740	868.360	658.953
254.205	15.900	867.514	658.878
255.220	15.857	867.237	658.442
256.234	15.808	866.441	657.589
257.249	15.822	866.323	657.494
258.263	15.861	865.118	656.672
259.278	15.752	864.792	655.945
260.293	15.825	864.219	655.737
261.307	15.894	863.689	655.543
262.322	15.909	863.077	655.079
263.336	15.899	862.831	654.796
264.351	16.161	861.607	654.827
265.366	16.080	860.834	653.866
266.380	16.157	860.629	653.954
267.395	15.978	860.051	652.760
268.409	16.080	859.324	652.544
269.424	15.862	858.780	651.233
270.439	15.793	858.218	650.482
271.453	15.887	857.169	649.991
272.468	15.894	856.490	649.448
273.482	15.844	855.670	648.573
274.497	15.961	854.856	648.349
275.512	15.887	854.653	647.853
276.526	15.902	853.983	647.347
277.541	15.832	853.565	646.705
278.555	16.000	852.648	646.595
279.570	16.044	852.556	646.638
280.585	16.001	852.292	646.217
281.599	16.211	851.107	646.066
282.614	16.074	850.630	645.122
283.628	16.091	849.708	644.429
284.643	16.147	848.987	644.041
285.657	16.066	848.889	643.600
286.672	16.106	848.060	643.067
287.687	16.232	847.593	643.134
288.701	16.188	847.176	642.596
289.716	16.061	846.859	641.815
290.730	16.221	846.273	641.923
291.745	16.116	845.874	641.162
292.760	16.218	844.922	640.771
293.774	16.353	844.287	640.746
294.789	16.166	844.008	639.769
295.803	16.345	843.307	639.860
296.818	16.291	842.578	639.043
297.833	16.137	841.957	637.935
298.847	16.273	841.169	637.796
299.862	16.298	840.578	637.383
300.876	16.291	840.035	636.888
301.891	16.320	839.368	636.439
302.906	16.505	838.746	636.607
303.920	16.406	838.145	635.720
304.935	16.544	837.575	635.750
305.949	16.724	836.851	635.820
306.964	16.610	836.221	634.858
307.979	16.428	835.905	633.879
308.993	16.619	835.161	633.976
310.008	16.570	834.876	633.519
311.022	16.591	834.353	633.147
312.037	16.445	834.201	632.429
313.052	16.519	833.533	632.142
314.066	16.467	832.477	631.090
315.081	16.483	831.585	630.419
316.095	16.400	831.462	629.961
317.110	16.334	830.703	629.084
318.125	16.423	830.083	628.889
319.139	16.370	829.936	628.525
320.154	16.432	829.576	628.426
321.168	16.474	828.839	627.969
322.183	16.407	828.489	627.399
323.197	16.442	828.061	627.149
324.212	16.581	827.452	627.148
325.227	16.569	826.707	626.483
326.241	16.738	826.045	626.553
327.256	16.538	825.656	625.462
328.270	16.638	824.828	625.149
329.285	16.694	824.315	624.912
330.300	16.632	823.629	624.108
331.314	16.595	823.332	623.690
332.329	16.658	822.893	623.537
333.343	16.725	822.068	623.102
334.358	16.740	821.644	622.779
335.373	16.803	821.124	622.563
336.387	16.794	820.600	622.078
337.402	16.789	820.400	621.851
338.416	16.805	819.609	621.257
339.431	16.863	819.237	621.132
340.446	16.981	818.335	620.825
341.460	17.094	817.840	620.807
342.475	17.033	817.337	620.148
343.489	16.974	817.172	619.751
344.504	17.149	816.319	619.688
345.519	17.167	815.850	619.345
346.533	17.193	815.346	619.000
347.548	17.207	814.832	618.606
348.562	17.092	814.474	617.862
349.577	16.925	813.672	616.591
350.592	17.093	813.377	616.924
351.606	16.862	813.004	615.747
352.621	16.829	812.728	615.366
353.635	16.974	811.623	614.998
354.650	16.969	811.656	614.952
355.665	17.009	811.278	614.754
356.679	17.059	810.748	614.481
357.694	17.160	809.876	614.132
358.708	17.189	809.332	613.768
359.723	17.095	809.339	613.378
360.738	17.274	808.380	613.246
361.752	17.227	808.034	612.758
362.767	17.146	807.596	612.079
363.781	17.223	807.105	611.931
364.796	17.347	806.986	612.234
365.810	17.293	806.510	611.624
366.825	17.252	806.258	611.232
367.840	17.305	805.814	611.031
368.854	17.460	805.254	611.107
369.869	17.427	804.822	610.608
370.883	17.291	804.128	609.539
371.898	17.437	803.412	609.467
372.913	17.269	803.119	608.590
373.927	17.440	802.554	608.718
374.942	17.506	801.544	608.135
375.956	17.437	801.552	607.840
376.971	17.616	800.513	607.638
377.986	17.651	800.348	607.584
379.000	17.545	799.860	606.779
380.015	17.685	799.545	606.985
381.029	17.776	798.627	606.560
382.044	17.675	797.985	605.658
383.059	17.602	797.596	605.053
384.073	17.756	796.856	604.985
385.088	17.601	796.709	604.267
386.102	17.588	796.008	603.636
387.117	17.563	795.420	603.050
388.132	17.535	795.085	602.643
389.146	17.561	794.701	602.390
390.161	17.620	794.266	602.215
391.175	17.722	793.966	602.296
392.190	17.657	793.789	601.878
393.205	17.545	793.510	601.219
394.219	17.623	792.675	600.807
395.234	17.655	792.153	600.470
396.248	17.635	791.325	599.721
397.263	17.541	790.907	599.021
398.278	17.592	790.336	598.712
399.292	17.481	790.490	598.388
400.307	17.629	789.634	598.206
401.321	17.391	789.649	597.329
402.336	17.613	789.046	597.598
403.350	17.687	788.168	597.140
404.365	17.684	788.190	597.092
405.380	17.795	787.827	597.153
406.394	17.805	787.460	596.858
407.409	17.921	786.788	596.702
408.423	18.040	786.540	596.877
409.438	18.008	785.826	596.168
410.453	18.087	785.413	596.078
411.467	18.203	785.118	596.206
412.482	18.145	784.451	595.446
413.496	18.253	784.153	595.543
414.511	18.035	784.109	594.699
415.526	18.157	783.328	594.478
416.540	18.018	783.195	593.839
417.555	17.979	783.094	593.576
418.569	18.142	782.387	593.554
419.584	18.103	781.907	593.002
420.599	18.176	781.473	592.873
421.613	155.979	1368.911	1794.450
422.628	134.647	1454.489	1794.558
