DTS Sentinel unit serial number:	SN413079Multiplexer serial number:	ORYXHardware model number:	OX4-SRSoftware version number:	ORYX F/W v4.00 Oryx Data Collector v3.7.2.0data status	okinstallation	princeton_trtdifferential loss correction	single-endedforward channel	channel 3reverse channel	N/Adate	2019/09/13time	19:12:35forward acquisition time	60.00reverse acquisition time	0.00gamma	496.2192k internal	0.2324k external	0.2324temperature offset calibration	1.0095default loss term (dB/km)	0.3790temperature slope calibration	1.0000multiplexer offset coefficient	1.0000multiplexer slope coefficient	1.0000fibre end	0.00T internal ref (°C)	31.44T ext. ref 1 (°C)	3.82T ext. ref 2 (°C)	24.79length (m)	temperature (°C)	Stokes	anti-Stokes-747.200	-34.802	-0.256	0.141
-746.185	-200.000	-0.005	0.144
-745.171	-18.711	0.147	0.092
-744.156	-36.781	-0.178	0.097
-743.142	607.334	0.040	-0.102
-742.127	-200.000	-0.016	-0.173
-741.112	-151.565	0.143	0.011
-740.098	-76.881	-0.189	0.067
-739.083	-200.000	-0.052	0.281
-738.069	-200.000	-0.030	0.423
-737.054	91.700	-0.201	0.228
-736.039	740.074	-0.010	-0.026
-735.025	800.000	-0.062	0.235
-734.010	-79.591	-0.406	-0.138
-732.996	-24.132	-0.426	-0.257
-731.981	-164.525	-0.360	-0.017
-730.966	-40.357	0.230	-0.120
-729.952	122.432	-0.142	-0.179
-728.937	-26.086	-0.045	-0.027
-727.923	-200.000	0.022	0.237
-726.908	-200.000	0.020	-0.182
-725.894	-200.000	-0.023	-0.157
-724.879	-127.812	0.071	0.010
-723.864	5.990	-0.060	0.045
-722.850	92.804	0.172	-0.196
-721.835	-139.864	0.019	0.002
-720.821	800.000	0.136	-0.431
-719.806	357.424	-0.137	-0.276
-718.791	374.626	0.166	-0.340
-717.777	-200.000	-0.018	-0.125
-716.762	389.812	-0.123	-0.257
-715.748	-108.635	0.086	0.019
-714.733	800.000	-0.089	0.284
-713.718	-200.000	-0.028	-0.223
-712.704	53.745	-0.108	-0.104
-711.689	-200.000	-0.051	0.261
-710.675	-200.000	-0.049	0.371
-709.660	486.470	-0.047	-0.107
-708.645	486.677	0.096	-0.220
-707.631	-149.023	0.263	0.021
-706.616	-114.861	-0.304	-0.058
-705.602	618.397	0.116	-0.293
-704.587	797.344	0.082	0.228
-703.572	47.023	-0.081	-0.076
-702.558	3.545	-0.282	-0.207
-701.543	-200.000	0.007	-0.262
-700.529	9.461	-0.170	0.130
-699.514	-200.000	-0.010	-0.056
-698.499	-200.000	-0.002	0.012
-697.485	-134.693	-0.079	-0.010
-696.470	-136.868	0.360	0.042
-695.456	800.000	0.040	0.115
-694.441	-17.926	-0.342	-0.216
-693.426	46.794	0.141	0.132
-692.412	-158.211	-0.189	-0.011
-691.397	53.948	-0.316	-0.306
-690.383	132.294	-0.106	-0.138
-689.368	-200.000	-0.021	0.100
-688.354	-88.154	-0.275	-0.083
-687.339	-75.338	-0.199	-0.071
-686.324	25.960	0.045	-0.038
-685.310	-200.000	-0.051	0.396
-684.295	140.964	0.176	0.235
-683.281	95.385	0.189	-0.217
-682.266	-135.088	-0.180	0.022
-681.251	450.189	-0.092	-0.205
-680.237	-187.158	0.131	-0.002
-679.222	328.027	-0.174	0.336
-678.208	800.000	0.069	-0.221
-677.193	251.716	0.049	-0.084
-676.178	108.573	0.172	-0.207
-675.164	83.679	-0.226	-0.248
-674.149	-200.000	0.015	0.253
-673.135	-200.000	-0.446	0.002
-672.120	55.706	-0.027	0.026
-671.105	-200.000	0.018	-0.316
-670.091	-127.084	-0.380	-0.056
-669.076	-200.000	-0.020	-0.173
-668.062	182.689	0.142	-0.210
-667.047	-22.417	0.390	-0.238
-666.032	-38.005	0.355	-0.190
-665.018	-160.156	0.047	-0.003
-664.003	538.128	0.071	-0.169
-662.989	17.377	-0.292	0.233
-661.974	-76.704	-0.208	-0.073
-660.959	502.726	-0.167	-0.388
-659.945	-137.240	-0.192	-0.022
-658.930	-133.645	-0.273	-0.034
-657.916	-72.384	-0.252	-0.094
-656.901	-13.894	-0.208	0.135
-655.886	800.000	-0.028	0.080
-654.872	-200.000	-0.037	-0.225
-653.857	-185.842	0.137	0.002
-652.843	663.086	0.074	-0.191
-651.828	30.611	-0.225	0.193
-650.814	-28.456	0.224	0.130
-649.799	11.984	-0.172	0.133
-648.784	355.912	0.027	-0.054
-647.770	800.000	-0.060	-0.217
-646.755	-7.590	-0.381	-0.259
-645.741	800.000	-0.072	-0.292
-644.726	28.090	-0.167	0.142
-643.711	-10.050	0.145	-0.097
-642.697	-137.977	0.182	-0.020
-641.682	-107.636	0.042	0.009
-640.668	-200.000	-0.002	0.047
-639.653	-47.976	-0.318	-0.154
-638.638	-181.774	-0.395	-0.008
-637.624	-13.940	0.192	0.125
-636.609	-200.000	-0.009	0.130
-635.595	185.480	0.045	-0.067
-634.580	-156.113	0.432	0.027
-633.565	67.796	-0.145	-0.149
-632.551	87.801	-0.217	-0.241
-631.536	-55.312	-0.204	-0.092
-630.522	-57.490	-0.236	-0.104
-629.507	-93.626	-0.173	-0.048
-628.492	800.000	-0.021	-0.070
-627.478	-165.254	-0.331	0.015
-626.463	244.633	-0.061	0.102
-625.449	-111.242	0.215	-0.044
-624.434	-200.000	0.010	-0.086
-623.419	28.985	-0.206	0.175
-622.405	2.587	-0.202	0.147
-621.390	-86.302	0.186	0.058
-620.376	-58.394	0.144	-0.063
-619.361	800.000	0.045	-0.164
-618.346	29.306	0.132	-0.113
-617.332	-200.000	-0.044	0.498
-616.317	-128.305	0.278	-0.040
-615.303	303.744	0.024	-0.044
-614.288	-97.080	0.073	-0.019
-613.273	-111.685	-0.199	0.040
-612.259	84.513	0.054	-0.059
-611.244	-117.702	-0.352	-0.064
-610.230	-200.000	0.020	0.107
-609.215	169.765	0.085	0.123
-608.201	-10.595	0.208	-0.138
-607.186	-200.000	-0.021	0.198
-606.171	-77.110	0.276	-0.096
-605.157	800.000	-0.103	0.323
-604.142	295.485	0.147	0.270
-603.128	-102.343	-0.348	-0.084
-602.113	54.240	-0.061	-0.059
-601.098	-97.579	0.318	-0.083
-600.084	-151.172	0.139	-0.010
-599.069	269.115	-0.151	0.266
-598.055	-200.000	0.048	0.350
-597.040	225.281	0.182	-0.296
-596.025	4.251	0.089	0.065
-595.011	323.821	0.093	0.178
-593.996	299.454	0.125	-0.230
-592.982	800.000	0.085	-0.251
-591.967	597.222	-0.138	-0.344
-590.952	800.000	-0.040	0.146
-589.938	90.911	-0.112	-0.126
-588.923	-184.796	-0.289	-0.005
-587.909	432.217	0.144	-0.312
-586.894	-200.000	-0.059	-0.287
-585.879	800.000	0.065	0.252
-584.865	26.993	0.147	0.124
-583.850	-77.232	0.208	0.073
-582.836	-91.229	0.268	-0.077
-581.821	-200.000	0.010	-0.266
-580.806	-92.580	0.060	0.017
-579.792	98.789	-0.092	-0.107
-578.777	670.800	-0.098	0.255
-577.763	-170.736	-0.049	-0.002
-576.748	-87.137	0.217	-0.066
-575.733	150.317	-0.177	-0.241
-574.719	183.928	-0.098	-0.146
-573.704	1.920	-0.215	0.155
-572.690	-52.427	-0.185	-0.086
-571.675	-52.384	-0.070	-0.032
-570.661	34.852	0.145	-0.127
-569.646	-200.000	0.015	-0.088
-568.631	103.887	0.248	0.292
-567.617	-41.119	-0.139	0.072
-566.602	800.000	0.136	0.449
-565.588	-200.000	-0.045	-0.286
-564.573	248.459	0.071	-0.121
-563.558	-200.000	-0.045	0.247
-562.544	-130.139	-0.138	0.019
-561.529	800.000	0.058	0.200
-560.515	189.000	-0.191	-0.286
-559.500	305.118	0.115	-0.214
-558.485	-162.493	-0.242	0.012
-557.471	-22.802	0.101	0.061
-556.456	-106.896	0.075	0.017
-555.442	-131.679	-0.324	-0.043
-554.427	256.388	0.023	0.039
-553.412	-23.999	0.167	0.100
-552.398	66.890	0.159	-0.162
-551.383	800.000	-0.031	0.123
-550.369	-164.087	0.378	-0.018
-549.354	800.000	0.129	0.377
-548.339	-100.874	-0.326	0.080
-547.325	-200.000	0.017	0.097
-546.310	-27.813	-0.295	0.171
-545.296	-179.671	0.132	-0.003
-544.281	5.670	0.235	-0.174
-543.266	-88.121	-0.186	-0.056
-542.252	160.773	-0.056	0.078
-541.237	376.732	-0.086	0.175
-540.223	-200.000	0.005	0.112
-539.208	49.251	0.333	0.314
-538.193	-200.000	0.013	0.134
-537.179	-95.430	-0.051	0.014
-536.164	39.828	0.074	-0.066
-535.150	159.714	0.140	-0.195
-534.135	240.144	-0.082	-0.137
-533.121	-200.000	0.004	0.096
-532.106	359.378	0.070	0.140
-531.091	55.418	-0.311	0.301
-530.077	780.701	0.104	-0.284
-529.062	11.826	0.115	-0.088
-528.048	-40.745	0.053	0.027
-527.033	102.979	-0.139	-0.163
-526.018	-118.257	-0.222	-0.039
-525.004	-149.224	0.361	0.029
-523.989	800.000	0.036	-0.145
-522.975	-96.396	0.337	-0.089
-521.960	-89.967	0.221	-0.064
-520.945	-119.850	-0.057	-0.010
-519.931	468.656	0.049	0.111
-518.916	-200.000	-0.058	0.386
-517.902	1.826	-0.049	-0.035
-516.887	-13.399	-0.166	-0.107
-515.872	-200.000	0.017	-0.182
-514.858	229.712	-0.059	-0.096
-513.843	800.000	0.030	0.084
-512.829	464.724	0.117	0.261
-511.814	800.000	0.040	0.172
-510.799	-138.505	-0.111	0.012
-509.785	-2.581	-0.064	-0.045
-508.770	-14.731	0.211	0.136
-507.756	405.279	0.046	-0.098
-506.741	-200.000	-0.014	0.183
-505.726	-3.957	0.139	-0.096
-504.712	-53.434	-0.432	0.198
-503.697	-160.713	0.106	0.006
-502.683	-53.569	0.423	0.194
-501.668	800.000	-0.037	-0.112
-500.653	800.000	0.025	0.105
-499.639	-6.234	-0.099	-0.067
-498.624	497.980	0.032	0.074
-497.610	-61.301	-0.042	-0.018
-496.595	-200.000	0.001	-0.308
-495.581	-42.092	0.243	0.124
-494.566	-200.000	-0.057	-0.265
-493.551	-119.798	0.090	-0.015
-492.537	-159.255	-0.136	0.008
-491.522	-133.083	-0.181	0.023
-490.508	126.509	0.280	0.355
-489.493	-138.080	0.315	0.035
-488.478	-12.002	0.134	0.087
-487.464	800.000	0.058	0.217
-486.449	-70.808	-0.066	-0.025
-485.435	89.610	-0.095	0.106
-484.420	-200.000	0.036	-0.261
-483.405	-96.117	-0.470	0.125
-482.391	32.600	0.098	0.085
-481.376	-169.692	0.131	0.005
-480.362	-123.330	-0.309	0.049
-479.347	-200.000	0.016	0.118
-478.332	-2.961	0.109	-0.076
-477.318	-124.204	-0.547	0.086
-476.303	-51.964	0.204	0.095
-475.289	800.000	-0.098	-0.298
-474.274	-49.800	-0.169	0.080
-473.259	800.000	0.045	-0.127
-472.245	164.778	-0.038	0.054
-471.230	172.491	-0.209	-0.300
-470.216	-59.269	-0.286	-0.123
-469.201	43.603	-0.091	-0.083
-468.186	-7.761	-0.052	-0.035
-467.172	-165.058	0.137	-0.006
-466.157	-200.000	0.027	0.162
-465.143	-115.361	-0.099	-0.019
-464.128	-78.350	-0.241	0.082
-463.113	74.709	0.152	-0.159
-462.099	426.471	-0.090	0.193
-461.084	16.087	-0.102	-0.080
-460.070	-36.440	0.166	0.089
-459.055	198.832	0.068	0.104
-458.040	-130.381	0.121	0.016
-457.026	800.000	0.054	0.152
-456.011	128.412	-0.175	0.222
-454.997	-200.000	-0.033	0.168
-453.982	-44.328	-0.265	0.133
-452.968	-133.036	-0.108	0.014
-451.953	800.000	0.130	0.371
-450.938	263.363	-0.071	0.124
-449.924	-200.000	0.053	0.361
-448.909	800.000	0.052	-0.163
-447.895	-200.000	0.000	0.090
-446.880	28.829	0.213	0.180
-445.865	800.000	-0.048	-0.149
-444.851	112.107	-0.206	-0.248
-443.836	177.096	-0.216	-0.314
-442.822	-117.300	0.271	-0.049
-441.807	-112.950	-0.322	-0.064
-440.792	421.798	0.051	-0.109
-439.778	-42.827	0.150	0.076
-438.763	-83.782	-0.057	0.018
-437.749	81.001	0.181	-0.194
-436.734	-75.289	0.418	0.149
-435.719	-90.608	0.382	0.110
-434.705	-200.000	-0.049	0.249
-433.690	58.882	-0.128	-0.126
-432.676	-200.000	0.030	-0.217
-431.661	-71.183	0.161	-0.060
-430.646	-200.000	-0.043	0.294
-429.632	194.531	0.098	0.149
-428.617	800.000	0.061	-0.185
-427.603	-112.415	-0.102	0.020
-426.588	-200.000	0.037	-0.171
-425.573	-79.445	-0.342	-0.115
-424.559	-200.000	-0.022	-0.235
-423.544	169.232	0.078	-0.111
-422.530	24.762	0.284	-0.234
-421.515	-200.000	-0.033	-0.255
-420.500	174.295	0.365	-0.525
-419.486	-200.000	-0.059	-0.282
-418.471	2.940	-0.145	0.105
-417.457	-200.000	0.036	-0.221
-416.442	-74.549	0.184	0.066
-415.428	-200.000	-0.026	-0.143
-414.413	-8.056	0.143	-0.096
-413.398	301.720	-0.186	0.342
-412.384	-31.086	-0.154	0.086
-411.369	-165.687	-0.129	0.006
-410.355	800.000	-0.035	0.124
-409.340	361.487	0.132	-0.263
-408.325	-61.423	0.120	-0.050
-407.311	39.926	0.166	-0.149
-406.296	-111.141	0.131	0.027
-405.282	-200.000	0.058	-0.329
-404.267	-35.414	-0.099	-0.053
-403.252	23.380	-0.264	-0.216
-402.238	114.356	-0.118	0.143
-401.223	-163.805	0.106	-0.005
-400.209	-10.148	-0.075	0.050
-399.194	22.184	-0.096	-0.078
-398.179	23.053	0.131	0.107
-397.165	800.000	0.110	0.317
-396.150	270.123	0.222	0.389
-395.136	141.186	0.216	0.284
-394.121	-14.460	0.192	-0.123
-393.106	-62.588	-0.244	-0.101
-392.092	15.780	-0.119	0.093
-391.077	62.536	-0.140	-0.140
-390.063	-27.920	-0.163	-0.094
-389.048	-200.000	-0.025	0.207
-388.033	-4.267	0.220	0.151
-387.019	-200.000	-0.080	0.355
-386.004	639.597	0.104	0.263
-384.990	515.356	-0.040	0.092
-383.975	38.300	0.055	-0.049
-382.960	241.404	-0.080	-0.133
-381.946	-88.242	-0.149	0.044
-380.931	200.188	0.160	0.244
-379.917	-196.535	0.290	-0.002
-378.902	-113.413	-0.119	-0.023
-377.888	-200.000	-0.069	-0.307
-376.873	800.000	0.060	-0.254
-375.858	-1.745	-0.148	0.104
-374.844	-16.868	-0.433	0.272
-373.829	-200.000	-0.036	-0.184
-372.815	-200.000	-0.026	-0.247
-371.800	800.000	0.039	-0.134
-370.785	-108.653	0.362	0.077
-369.771	-143.110	0.219	0.021
-368.756	-31.858	-0.102	0.057
-367.742	-134.406	-0.516	0.063
-366.727	-96.466	0.242	-0.064
-365.712	341.564	-0.141	-0.275
-364.698	-77.897	-0.340	0.117
-363.683	67.788	-0.212	0.215
-362.669	-129.436	0.325	-0.045
-361.654	-112.394	-0.046	-0.009
-360.639	-135.781	-0.291	-0.034
-359.625	800.000	0.028	-0.112
-358.610	576.565	0.060	-0.145
-357.596	675.684	-0.069	0.177
-356.581	520.571	-0.004	-0.010
-355.566	-64.220	0.222	0.090
-354.552	111.986	0.106	-0.128
-353.537	23.030	0.358	0.292
-352.523	-152.151	0.124	-0.009
-351.508	8.911	-0.112	-0.084
-350.493	-102.389	0.333	-0.079
-349.479	-200.000	0.010	0.046
-348.464	-200.000	-0.040	0.215
-347.450	490.699	-0.006	-0.014
-346.435	64.900	-0.320	-0.321
-345.420	-58.707	0.171	-0.074
-344.406	800.000	-0.075	-0.207
-343.391	101.946	-0.045	-0.053
-342.377	-93.682	0.348	0.095
-341.362	-24.361	-0.246	-0.146
-340.348	1.854	0.038	0.027
-339.333	-200.000	0.001	-0.241
-338.318	-14.969	0.429	-0.273
-337.304	-200.000	-0.040	-0.518
-336.289	-29.312	-0.167	-0.095
-335.275	-62.083	0.459	-0.190
-334.260	182.960	-0.223	-0.327
-333.245	57.615	-0.184	-0.179
-332.231	-16.207	0.278	0.175
-331.216	32.419	0.085	0.073
-330.202	-79.668	-0.215	0.072
-329.187	-38.471	-0.112	-0.059
-328.172	-99.346	-0.098	-0.025
-327.158	-34.156	-0.439	0.239
-326.143	-69.804	-0.071	-0.027
-325.129	-10.291	0.209	-0.138
-324.114	215.225	0.199	-0.314
-323.099	-90.969	-0.148	0.042
-322.085	-200.000	0.013	0.068
-321.070	800.000	0.076	-0.320
-320.056	258.656	0.048	0.083
-319.041	-68.749	-0.280	-0.108
-318.026	161.521	-0.043	0.059
-317.012	14.769	-0.159	-0.123
-315.997	-200.000	-0.006	-0.162
-314.983	36.247	0.106	-0.093
-313.968	-85.408	0.041	0.013
-312.953	374.676	0.060	0.121
-311.939	377.669	0.133	0.270
-310.924	21.188	0.325	-0.262
-309.910	210.579	0.266	-0.414
-308.895	6.938	-0.224	-0.166
-307.880	-95.816	0.083	-0.022
-306.866	-78.116	0.129	0.044
-305.851	76.927	0.169	-0.178
-304.837	576.310	0.185	-0.447
-303.822	156.875	0.163	0.223
-302.807	-77.878	-0.104	-0.035
-301.793	-143.798	-0.361	-0.034
-300.778	91.912	-0.074	-0.082
-299.764	-120.507	0.090	0.015
-298.749	-77.370	-0.281	-0.097
-297.735	800.000	0.121	0.390
-296.720	396.589	0.101	0.209
-295.705	-200.000	-0.003	-0.122
-294.691	-200.000	0.004	-0.025
-293.676	-14.891	0.021	-0.013
-292.662	800.000	-0.057	0.194
-291.647	-67.412	-0.349	0.136
-290.632	-60.171	-0.103	-0.043
-289.618	277.584	0.177	-0.312
-288.603	12.153	-0.115	-0.088
-287.589	31.389	0.187	0.159
-286.574	-200.000	0.102	0.447
-285.559	800.000	-0.056	-0.186
-284.545	-200.000	-0.017	0.354
-283.530	-78.864	-0.150	0.051
-282.516	144.943	0.331	-0.438
-281.501	101.558	0.173	-0.200
-280.486	241.666	-0.045	0.074
-279.472	-129.681	0.044	-0.006
-278.457	38.399	-0.271	0.239
-277.443	-2.306	-0.106	0.074
-276.428	-29.794	0.176	0.099
-275.413	-56.533	-0.360	-0.158
-274.399	326.099	-0.034	-0.065
-273.384	-89.374	-0.172	-0.050
-272.370	7.216	-0.080	-0.060
-271.355	273.968	0.052	0.091
-270.340	-200.000	-0.006	0.266
-269.326	87.476	-0.105	0.115
-268.311	-37.910	0.172	-0.091
-267.297	85.013	-0.112	-0.122
-266.282	356.729	-0.063	0.124
-265.267	-19.811	-0.199	-0.122
-264.253	-50.130	0.286	-0.134
-263.238	-60.990	-0.289	0.121
-262.224	-200.000	-0.018	0.176
-261.209	-50.790	-0.298	0.139
-260.195	-107.745	0.157	-0.034
-259.180	-200.000	-0.005	-0.124
-258.165	-162.402	-0.242	-0.012
-257.151	-23.802	0.374	-0.222
-256.136	174.090	0.121	0.173
-255.122	-200.000	-0.029	0.128
-254.107	259.748	0.066	-0.113
-253.092	252.987	-0.017	-0.029
-252.078	-200.000	0.033	0.294
-251.063	45.475	0.046	0.042
-250.049	7.154	0.291	-0.215
-249.034	-48.788	-0.185	0.088
-248.019	619.867	-0.140	0.348
-247.005	-93.962	0.182	-0.050
-245.990	-200.000	-0.015	0.113
-244.976	800.000	-0.050	-0.163
-243.961	237.347	0.169	0.278
-242.946	-61.620	-0.095	-0.040
-241.932	110.062	-0.143	0.170
-240.917	-38.086	0.173	0.091
-239.903	-19.660	-0.311	0.190
-238.888	800.000	-0.087	-0.341
-237.873	-15.913	-0.307	0.193
-236.859	26.165	-0.139	0.115
-235.844	800.000	-0.018	0.056
-234.830	-72.168	0.269	-0.099
-233.815	156.110	0.141	0.192
-232.800	-129.436	0.253	0.035
-231.786	-200.000	-0.036	0.207
-230.771	103.629	0.259	0.300
-229.757	800.000	-0.015	-0.057
-228.742	-200.000	-0.025	-0.226
-227.727	-34.078	-0.063	0.034
-226.713	-78.018	-0.302	0.103
-225.698	-149.358	0.371	0.029
-224.684	59.475	-0.083	-0.081
-223.669	48.798	0.170	0.158
-222.655	-37.892	-0.193	0.101
-221.640	-137.542	-0.061	-0.007
-220.625	10.571	-0.042	-0.031
-219.611	458.195	0.129	-0.283
-218.596	694.151	-0.039	-0.101
-217.582	-47.106	0.253	-0.122
-216.567	221.943	0.122	0.194
-215.552	-6.214	-0.235	0.159
-214.538	186.530	0.266	0.391
-213.523	-106.921	0.109	-0.024
-212.509	-90.013	-0.194	-0.056
-211.494	-118.653	0.395	0.069
-210.479	-33.253	0.203	-0.111
-209.465	-200.000	-0.030	-0.218
-208.450	-200.000	0.008	0.233
-207.436	-200.000	0.013	0.294
-206.421	800.000	-0.044	0.125
-205.406	3.263	-0.043	-0.031
-204.392	-67.141	0.190	-0.074
-203.377	-2.162	0.114	-0.079
-202.363	161.003	0.088	-0.122
-201.348	-63.650	0.085	0.035
-200.333	777.982	-0.034	0.092
-199.319	-36.978	-0.045	-0.024
-198.304	5.411	-0.355	-0.259
-197.290	-171.104	0.165	-0.006
-196.275	-155.537	0.115	-0.007
-195.260	483.776	0.036	0.082
-194.246	-93.855	0.090	0.024
-193.231	94.399	-0.122	0.137
-192.217	-81.322	0.303	0.099
-191.202	62.203	0.191	0.188
-190.187	187.828	0.198	0.292
-189.173	-200.000	0.005	0.372
-188.158	-147.449	-0.197	0.016
-187.144	-115.014	0.121	0.023
-186.129	-28.456	-0.385	-0.219
-185.114	800.000	-0.058	-0.243
-184.100	207.502	-0.050	-0.076
-183.085	44.801	-0.247	0.225
-182.071	-118.315	0.197	0.035
-181.056	-198.855	-0.249	-0.001
-180.042	136.256	-0.060	-0.077
-179.027	800.000	-0.018	0.074
-178.012	-200.000	0.009	-0.196
-176.998	-31.418	0.163	-0.091
-175.983	86.660	-0.241	-0.263
-174.969	-83.467	-0.177	0.056
-173.954	135.443	0.153	0.197
-172.939	-200.000	-0.052	-0.236
-171.925	-200.000	0.031	0.309
-170.910	155.518	-0.130	0.177
-169.896	-71.777	0.285	0.105
-168.881	346.695	0.156	0.303
-167.866	-200.000	0.074	0.393
-166.852	49.981	-0.258	-0.240
-165.837	-82.997	-0.089	0.028
-164.823	-94.848	0.215	0.058
-163.808	449.104	0.034	0.073
-162.793	243.578	0.084	0.139
-161.779	79.507	-0.317	-0.336
-160.764	-200.000	-0.069	-0.332
-159.750	-200.000	0.020	-0.104
-158.735	217.442	-0.219	-0.344
-157.720	-49.205	0.182	0.086
-156.706	-200.000	0.013	-0.179
-155.691	222.842	-0.056	0.090
-154.677	6.577	-0.352	-0.258
-153.662	228.913	0.071	-0.114
-152.647	320.441	-0.119	0.223
-151.633	-49.974	-0.166	0.078
-150.618	329.124	0.056	0.106
-149.604	-200.000	0.011	0.069
-148.589	245.463	-0.121	-0.201
-147.574	9.223	-0.203	-0.151
-146.560	-114.106	0.225	0.043
-145.545	-102.552	0.219	-0.052
-144.531	266.737	0.123	-0.212
-143.516	196.848	0.044	0.066
-142.502	-12.085	-0.296	-0.191
-141.487	294.758	-0.118	0.212
-140.472	237.791	-0.099	-0.161
-139.458	334.315	0.057	0.109
-138.443	-54.122	-0.206	0.092
-137.429	322.591	-0.130	0.244
-136.414	-181.416	-0.377	-0.007
-135.399	-24.339	0.062	0.036
-134.385	-118.737	0.174	-0.030
-133.370	330.711	0.034	0.065
-132.356	-189.085	0.099	0.001
-131.341	-32.096	-0.464	-0.256
-130.326	-142.034	0.095	-0.009
-129.312	-143.347	0.150	-0.014
-128.297	-33.016	0.285	0.156
-127.283	125.684	0.204	-0.254
-126.268	800.000	-0.042	0.171
-125.253	-144.550	-0.155	-0.014
-124.239	204.959	0.024	-0.037
-123.224	-103.799	0.087	-0.020
-122.210	155.952	-0.050	-0.068
-121.195	487.860	-0.064	-0.143
-120.180	307.572	0.127	-0.233
-119.166	47.612	-0.051	-0.047
-118.151	-154.338	-0.271	-0.018
-117.137	578.090	-0.067	-0.162
-116.122	-87.288	0.360	-0.108
-115.107	27.754	0.246	-0.204
-114.093	-137.091	-0.252	-0.028
-113.078	-200.000	0.033	-0.349
-112.064	226.057	-0.198	-0.316
-111.049	-49.917	0.097	-0.045
-110.034	330.187	0.136	-0.258
-109.020	658.230	0.082	-0.206
-108.005	-200.000	0.010	-0.055
-106.991	219.878	0.081	0.128
-105.976	136.273	0.217	-0.278
-104.962	34.190	-0.110	0.094
-103.947	505.444	-0.101	0.230
-102.932	-200.000	0.018	0.106
-101.918	-45.822	0.122	0.059
-100.903	-88.086	-0.275	-0.081
-99.889	-200.000	0.044	-0.195
-98.874	405.099	-0.069	0.143
-97.859	56.780	0.122	-0.117
-96.845	-87.081	-0.239	-0.072
-95.830	-132.247	-0.283	-0.036
-94.816	800.000	0.121	-0.336
-93.801	37.524	0.070	0.061
-92.786	-120.647	-0.293	0.049
-91.772	45.835	-0.137	-0.125
-90.757	198.753	-0.101	-0.152
-89.743	-45.029	0.369	0.181
-88.728	75.082	0.064	-0.067
-87.713	273.651	0.034	-0.058
-86.699	800.000	-0.043	0.124
-85.684	46.404	-0.114	0.104
-84.670	800.000	0.084	0.329
-83.655	136.144	-0.248	0.317
-82.640	138.335	-0.201	0.259
-81.626	-75.312	0.311	0.109
-80.611	-84.022	-0.220	-0.069
-79.597	-200.000	-0.013	0.107
-78.582	-195.821	0.430	-0.003
-77.567	453.006	-0.054	0.118
-76.553	-200.000	0.023	0.115
-75.538	-200.000	0.014	0.146
-74.524	-200.000	0.050	-0.221
-73.509	800.000	0.049	0.188
-72.494	72.021	0.147	-0.151
-71.480	85.392	0.281	0.303
-70.465	-200.000	-0.004	-0.129
-69.451	-147.752	-0.384	-0.032
-68.436	121.858	-0.123	0.151
-67.422	-64.127	-0.319	0.128
-66.407	-200.000	0.080	0.450
-65.392	-200.000	0.025	-0.110
-64.378	83.021	-0.131	0.140
-63.363	-83.810	-0.101	-0.032
-62.349	413.931	0.077	0.162
-61.334	120.764	-0.791	-0.966
-60.319	21.034	0.457	0.365
-59.305	-200.000	-0.267	-1.375
-58.290	340.225	0.487	0.934
-57.276	800.000	0.493	1.388
-56.261	-200.000	100.907	602.679
-55.246	579.279	1415.769	3404.959
-54.232	191.140	2598.561	3841.375
-53.217	116.939	2156.992	2601.931
-52.203	42.140	1695.275	1512.192
-51.188	34.603	1507.112	1293.466
-50.173	32.103	1480.815	1254.176
-49.159	52.489	1533.958	1438.305
-48.144	54.026	1550.935	1464.613
-47.130	34.738	1508.678	1295.522
-46.115	31.638	1494.131	1262.114
-45.100	31.547	1490.602	1258.471
-44.086	31.544	1488.180	1256.362
-43.071	31.380	1486.799	1254.044
-42.057	31.501	1484.255	1252.660
-41.042	31.447	1483.383	1251.510
-40.027	31.505	1481.402	1250.176
-39.013	31.417	1480.856	1249.078
-37.998	31.348	1479.456	1247.388
-36.984	31.386	1477.892	1246.273
-35.969	31.416	1476.549	1245.295
-34.954	31.408	1475.397	1244.216
-33.940	31.404	1473.858	1242.845
-32.925	31.390	1472.751	1241.770
-31.911	31.443	1471.324	1240.868
-30.896	31.486	1470.310	1240.247
-29.881	31.588	1468.452	1239.309
-28.867	31.531	1467.725	1238.264
-27.852	31.487	1465.990	1236.465
-26.838	31.502	1464.885	1235.579
-25.823	31.450	1463.844	1234.312
-24.809	31.491	1461.368	1232.445
-23.794	31.469	1460.057	1231.146
-22.779	31.524	1458.858	1230.447
-21.765	31.485	1458.007	1229.424
-20.750	31.401	1457.042	1228.007
-19.736	31.493	1455.710	1227.444
-18.721	31.471	1454.878	1226.547
-17.706	31.469	1453.727	1225.514
-16.692	31.383	1452.850	1224.162
-15.677	31.443	1451.451	1223.331
-14.663	31.469	1450.180	1222.382
-13.648	31.424	1449.442	1221.417
-12.633	31.407	1448.560	1220.510
-11.619	31.447	1447.908	1220.174
-10.604	31.479	1446.945	1219.528
-9.590	31.477	1446.048	1218.705
-8.575	31.425	1445.211	1217.613
-7.560	31.359	1444.482	1216.525
-6.546	31.369	1443.913	1216.058
-5.531	31.362	1442.940	1215.145
-4.517	31.396	1441.972	1214.501
-3.502	31.341	1440.818	1213.128
-2.487	31.399	1439.478	1212.325
-1.473	31.398	1438.570	1211.506
-0.458	31.381	1437.134	1210.141
0.556	32.198	1427.034	1197.365
1.571	28.471	1400.697	1151.797
2.586	24.140	1337.782	1073.917
3.600	21.951	1256.548	996.203
4.615	20.557	1211.524	952.789
5.629	17.611	1156.330	893.869
6.644	10.328	1075.141	795.382
7.659	4.674	1036.837	740.136
8.673	3.838	1031.556	732.344
9.688	3.851	1027.633	729.556
10.702	3.777	1026.934	728.646
11.717	3.823	1024.975	727.409
12.731	5.863	1026.062	737.713
13.746	12.980	1035.754	778.296
14.761	19.472	1044.164	815.320
15.775	20.800	1045.176	822.314
16.790	20.337	1043.528	818.759
17.804	19.352	1040.989	812.057
18.819	18.307	1039.440	805.863
19.834	17.903	1037.993	802.768
20.848	17.697	1037.341	801.227
21.863	17.541	1037.021	800.177
22.877	17.411	1036.171	798.838
23.892	17.120	1035.393	796.803
24.907	17.122	1034.708	796.213
25.921	17.158	1033.890	795.683
26.936	17.129	1033.145	794.903
27.950	17.176	1031.764	793.991
28.965	17.208	1030.811	793.338
29.980	17.224	1030.519	793.115
30.994	17.437	1028.484	792.470
32.009	17.435	1028.121	792.113
33.023	17.529	1027.497	791.998
34.038	17.462	1026.726	791.022
35.053	17.352	1025.740	789.682
36.067	17.379	1024.429	788.730
37.082	17.202	1024.093	787.583
38.096	17.292	1023.343	787.350
39.111	17.474	1022.412	787.408
40.126	17.441	1021.952	786.828
41.140	17.432	1020.261	785.418
42.155	17.098	1019.341	783.100
43.169	16.981	1018.432	781.792
44.184	16.835	1017.558	780.379
45.199	16.904	1016.263	779.637
46.213	16.776	1015.848	778.661
47.228	17.049	1014.146	778.540
48.242	17.262	1013.213	778.729
49.257	17.341	1012.430	778.421
50.271	17.219	1011.452	777.040
51.286	17.202	1011.152	776.665
52.301	17.288	1010.705	776.646
53.315	17.265	1009.447	775.505
54.330	17.107	1008.889	774.287
55.344	17.167	1007.632	773.527
56.359	17.116	1006.500	772.359
57.374	17.127	1005.942	771.911
58.388	17.148	1004.928	771.159
59.403	16.960	1004.554	769.953
60.417	16.884	1003.599	768.806
61.432	16.865	1002.835	768.069
62.447	16.905	1002.173	767.672
63.461	16.739	1001.550	766.376
64.476	16.787	1000.497	765.722
65.490	16.818	999.479	765.013
66.505	16.628	998.867	763.623
67.520	16.715	998.068	763.332
68.534	16.851	997.364	763.340
69.549	16.755	996.902	762.490
70.563	16.734	996.019	761.650
71.578	16.757	995.085	760.970
72.593	16.667	994.390	759.970
73.607	16.504	993.481	758.478
74.622	16.493	992.546	757.647
75.636	16.646	991.617	757.556
76.651	16.645	991.074	757.068
77.666	16.589	990.604	756.392
78.680	16.667	989.342	755.710
79.695	16.680	988.895	755.358
80.709	16.733	988.577	755.288
81.724	16.791	987.825	754.903
82.739	16.951	987.147	755.030
83.753	16.973	986.212	754.346
84.768	17.309	985.424	755.172
85.782	17.404	985.123	755.294
86.797	17.562	984.937	755.784
87.812	17.568	984.112	755.111
88.826	17.491	982.271	753.292
89.841	17.400	981.875	752.522
90.855	17.422	981.255	752.073
91.870	17.369	980.564	751.245
92.884	17.518	979.674	751.156
93.899	17.481	979.245	750.596
94.914	17.465	978.701	750.039
95.928	17.586	977.551	749.626
96.943	17.495	976.730	748.531
97.957	17.414	975.951	747.513
98.972	17.424	974.898	746.683
99.987	17.489	974.269	746.421
101.001	17.388	973.624	745.417
102.016	17.289	973.286	744.657
103.030	17.491	971.657	744.229
104.045	17.436	970.972	743.398
105.060	17.480	969.906	742.710
106.074	17.421	968.879	741.599
107.089	17.112	968.082	739.579
108.103	16.887	967.299	737.934
109.118	16.869	966.135	736.904
110.133	16.836	965.377	736.116
111.147	16.795	964.439	735.160
112.162	16.708	963.435	733.951
113.176	16.777	962.566	733.525
114.191	16.964	961.872	733.739
115.206	17.031	961.107	733.380
116.220	16.949	960.628	732.594
117.235	16.914	959.501	731.519
118.249	16.910	958.809	730.911
119.264	16.877	957.877	729.994
120.279	16.886	956.899	729.223
121.293	16.727	956.385	728.083
122.308	16.768	955.302	727.368
123.322	16.681	954.637	726.426
124.337	16.706	953.529	725.627
125.352	16.561	952.723	724.326
126.366	16.764	951.117	723.911
127.381	16.608	950.570	722.763
128.395	16.648	949.533	722.082
129.410	16.820	948.137	721.689
130.424	16.762	947.388	720.807
131.439	16.963	946.298	720.767
132.454	16.879	946.041	720.154
133.468	17.097	945.246	720.408
134.483	16.980	944.887	719.574
135.497	17.022	944.085	719.078
136.512	17.061	943.252	718.545
137.527	16.990	942.758	717.807
138.541	17.083	941.577	717.236
139.556	16.899	941.375	716.239
140.570	17.048	940.368	716.040
141.585	17.210	939.761	716.199
142.600	17.288	939.193	716.028
143.614	17.364	938.343	715.637
144.629	17.525	937.689	715.754
145.643	17.463	936.625	714.618
146.658	17.510	936.027	714.295
147.673	17.305	935.189	712.731
148.687	17.213	934.079	711.438
149.702	17.152	933.225	710.471
150.716	17.050	932.269	709.252
151.731	16.953	931.564	708.249
152.746	16.978	930.764	707.682
153.760	17.046	930.368	707.603
154.775	17.192	929.370	707.389
155.789	17.173	928.824	706.833
156.804	17.305	928.334	706.944
157.819	17.395	926.994	706.236
158.833	17.362	926.328	705.527
159.848	17.376	926.173	705.406
160.862	17.558	925.411	705.518
161.877	17.594	924.812	705.147
162.892	17.343	923.484	703.034
163.906	17.126	922.947	701.667
164.921	17.050	922.195	700.719
165.935	17.157	920.972	700.170
166.950	17.173	920.514	699.825
167.964	17.103	919.362	698.599
168.979	17.255	918.494	698.505
169.994	17.233	917.489	697.585
171.008	17.208	916.512	696.680
172.023	17.148	915.865	695.880
173.037	17.374	915.120	696.176
174.052	17.477	914.404	695.993
175.067	17.378	914.019	695.233
176.081	17.202	912.755	693.492
177.096	17.031	912.019	692.172
178.110	17.097	910.964	691.581
179.125	17.204	910.562	691.650
180.140	17.304	909.706	691.346
181.154	17.211	909.145	690.481
182.169	17.169	909.172	690.270
183.183	17.398	908.377	690.536
184.198	17.490	907.562	690.226
185.213	17.605	906.444	689.781
186.227	17.583	906.112	689.377
187.242	17.491	905.824	688.727
188.256	17.578	905.228	688.563
189.271	17.716	904.272	688.332
190.286	17.693	904.041	688.003
191.300	17.530	902.649	686.226
192.315	17.262	901.403	684.138
193.329	17.074	901.046	683.051
194.344	17.048	899.916	682.029
195.359	17.284	899.812	682.839
196.373	17.294	899.672	682.712
197.388	17.396	899.068	682.604
198.402	17.635	898.534	683.096
199.417	17.770	898.083	683.233
200.432	17.858	897.515	683.094
201.446	17.825	897.799	683.116
202.461	17.959	897.330	683.236
203.475	17.962	896.789	682.775
204.490	18.138	895.622	682.528
205.504	17.793	895.253	680.810
206.519	17.696	893.746	679.218
207.534	17.633	893.230	678.512
208.548	17.635	892.437	677.859
209.563	17.728	892.108	677.921
210.577	17.723	891.088	677.066
211.592	17.632	890.814	676.433
212.607	17.787	890.555	676.795
213.621	17.957	889.735	676.786
214.636	18.006	889.103	676.437
215.650	17.986	888.233	675.638
216.665	17.778	888.109	674.661
217.680	18.000	887.497	675.015
218.694	18.004	887.292	674.815
219.709	18.023	886.495	674.222
220.723	18.071	885.742	673.780
221.738	17.997	885.085	672.927
222.753	17.984	884.308	672.228
223.767	17.987	883.790	671.785
224.782	18.142	882.604	671.434
225.796	18.131	882.101	670.948
226.811	18.150	881.622	670.600
227.826	18.162	880.873	670.015
228.840	18.021	880.295	668.966
229.855	17.922	879.531	667.939
230.869	18.151	878.305	667.842
231.884	18.061	878.308	667.435
232.899	18.027	877.238	666.431
233.913	17.885	876.809	665.492
234.928	17.903	875.774	664.716
235.942	17.764	875.501	663.909
236.957	17.754	874.286	662.892
237.972	17.829	873.639	662.634
238.986	17.927	873.014	662.480
240.001	17.910	872.427	661.912
241.015	17.810	871.962	661.113
242.030	17.859	871.391	660.810
243.045	18.071	870.834	661.150
244.059	18.036	870.289	660.543
245.074	18.008	869.842	660.037
246.088	18.070	869.171	659.709
247.103	18.244	868.364	659.707
248.117	18.316	868.277	659.861
249.132	18.416	867.556	659.639
250.147	18.450	867.471	659.649
251.161	18.796	867.093	660.633
252.176	18.881	866.246	660.256
253.190	18.662	865.599	658.863
254.205	18.730	865.352	658.878
255.220	19.019	864.280	659.109
256.234	18.914	863.633	658.156
257.249	18.774	863.271	657.288
258.263	18.903	862.720	657.304
259.278	18.954	861.935	656.841
260.293	18.754	862.136	656.171
261.307	18.903	861.190	655.963
262.322	18.891	860.684	655.473
263.336	18.866	860.510	655.187
264.351	18.932	859.652	654.728
265.366	19.033	858.936	654.508
266.380	18.918	858.524	653.699
267.395	19.124	857.317	653.507
268.409	19.007	856.818	652.622
269.424	18.929	855.944	651.605
270.439	18.778	855.641	650.742
271.453	18.916	854.600	650.418
272.468	18.847	853.704	649.417
273.482	18.809	853.442	649.015
274.497	18.868	852.925	648.786
275.512	18.765	852.331	647.889
276.526	18.866	851.399	647.506
277.541	18.887	850.753	647.034
278.555	18.856	850.505	646.672
279.570	18.972	849.722	646.457
280.585	19.137	849.278	646.682
281.599	19.166	849.098	646.595
282.614	19.127	847.802	645.406
283.628	18.875	847.659	644.296
284.643	19.000	846.926	644.148
285.657	18.926	846.586	643.555
286.672	18.930	846.026	643.087
287.687	19.064	845.417	643.068
288.701	18.956	845.019	642.305
289.716	18.913	844.602	641.773
290.730	18.998	843.874	641.479
291.745	18.981	843.336	640.951
292.760	19.082	842.740	640.818
293.774	19.172	841.932	640.480
294.789	19.181	841.460	640.098
295.803	19.241	841.365	640.190
296.818	19.115	840.244	638.814
297.833	18.943	839.928	637.881
298.847	18.997	838.967	637.292
299.862	19.051	838.370	636.984
300.876	19.078	837.842	636.628
301.891	19.204	837.304	636.626
302.906	19.087	837.005	635.911
303.920	19.411	836.114	636.375
304.935	19.531	835.312	636.148
305.949	19.528	834.794	635.687
306.964	19.687	833.823	635.478
307.979	19.490	833.589	634.516
308.993	19.239	833.342	633.352
310.008	19.464	832.484	633.469
311.022	19.579	832.040	633.495
312.037	19.426	831.766	632.671
313.052	19.357	830.971	631.757
314.066	19.292	830.673	631.236
315.081	19.085	829.642	629.641
316.095	19.109	829.058	629.229
317.110	19.103	828.696	628.877
318.125	19.138	828.108	628.501
319.139	19.238	827.218	628.138
320.154	19.076	827.264	627.525
321.168	19.193	826.888	627.610
322.183	19.294	825.998	627.247
323.197	19.469	825.305	627.300
324.212	19.306	824.988	626.414
325.227	19.403	824.265	626.161
326.241	19.297	824.109	625.602
327.256	19.229	823.378	624.747
328.270	19.298	822.644	624.384
329.285	19.264	822.116	623.803
330.300	19.283	821.448	623.310
331.314	19.261	821.058	622.880
332.329	19.229	820.820	622.528
333.343	19.384	820.092	622.482
334.358	19.531	819.693	622.653
335.373	19.699	818.626	622.393
336.387	19.642	818.764	622.236
337.402	19.662	818.109	621.755
338.416	19.609	817.849	621.313
339.431	19.611	817.288	620.839
340.446	19.854	816.436	621.011
341.460	19.894	816.404	621.072
342.475	19.823	815.870	620.357
343.489	20.103	815.142	620.754
344.504	19.975	814.460	619.721
345.519	20.148	814.155	620.054
346.533	20.165	813.363	619.456
347.548	20.206	812.778	619.099
348.562	20.148	812.165	618.371
349.577	19.742	811.620	616.456
350.592	19.721	811.207	616.012
351.606	19.729	810.479	615.434
352.621	19.750	809.975	615.069
353.635	19.589	809.756	614.276
354.650	19.736	809.394	614.471
355.665	19.711	809.121	614.120
356.679	19.820	808.725	614.154
357.694	19.846	807.929	613.585
358.708	19.832	807.683	613.295
359.723	19.935	807.067	613.139
360.738	19.895	806.436	612.462
361.752	19.989	805.878	612.318
362.767	19.922	805.531	611.761
363.781	19.990	805.364	611.823
364.796	20.066	805.255	611.953
365.810	20.141	804.626	611.686
366.825	20.338	804.085	611.915
367.840	20.581	803.746	612.458
368.854	20.505	803.693	612.097
369.869	20.329	802.974	610.877
370.883	20.328	802.176	610.209
371.898	20.288	801.785	609.718
372.913	20.404	801.090	609.542
373.927	20.307	800.753	608.893
374.942	20.312	800.138	608.389
375.956	20.496	799.227	608.287
376.971	20.370	798.994	607.612
377.986	20.316	798.532	607.021
379.000	20.552	797.993	607.381
380.015	20.722	797.583	607.609
381.029	20.533	797.272	606.659
382.044	20.551	796.519	606.096
383.059	20.610	795.753	605.666
384.073	20.687	795.397	605.608
385.088	20.819	793.860	604.843
386.102	20.362	794.282	603.521
387.117	20.320	793.736	602.908
388.132	20.417	792.695	602.401
389.146	20.377	792.288	601.899
390.161	20.368	792.179	601.731
391.175	20.434	791.789	601.611
392.190	20.524	791.628	601.747
393.205	20.395	791.301	600.998
394.219	20.511	790.472	600.716
395.234	20.501	789.679	600.025
396.248	20.395	789.308	599.326
397.263	20.297	788.903	598.627
398.278	20.408	787.946	598.230
399.292	20.149	788.190	597.471
400.307	20.163	787.689	597.085
401.321	20.278	786.953	596.872
402.336	20.289	786.866	596.790
403.350	20.442	786.443	596.941
404.365	20.376	786.486	596.695
405.380	20.492	785.595	596.363
406.394	20.737	785.286	596.918
407.409	20.924	784.987	597.276
408.423	20.826	784.573	596.576
409.438	20.890	784.004	596.309
410.453	20.898	783.450	595.861
411.467	21.090	783.110	596.206
412.482	20.863	783.315	595.532
413.496	21.071	782.385	595.484
414.511	21.068	782.305	595.360
415.526	21.193	781.527	595.140
416.540	21.036	781.459	594.503
417.555	20.994	780.893	593.877
418.569	21.097	780.287	593.713
419.584	21.147	779.674	593.365
420.599	21.184	779.219	593.091
421.613	161.272	1368.795	1794.185
422.628	139.349	1454.684	1794.297
