DTS Sentinel unit serial number:	SN413079Multiplexer serial number:	ORYXHardware model number:	OX4-SRSoftware version number:	ORYX F/W v4.00 Oryx Data Collector v3.7.2.0data status	okinstallation	princeton_trtdifferential loss correction	single-endedforward channel	channel 3reverse channel	N/Adate	2019/09/12time	09:46:11forward acquisition time	60.00reverse acquisition time	0.00gamma	496.2192k internal	0.2300k external	0.2300temperature offset calibration	1.0036default loss term (dB/km)	0.3790temperature slope calibration	1.0000multiplexer offset coefficient	1.0000multiplexer slope coefficient	1.0000fibre end	0.00T internal ref (°C)	35.94T ext. ref 1 (°C)	1.83T ext. ref 2 (°C)	32.63length (m)	temperature (°C)	Stokes	anti-Stokes-747.200	-58.757	0.184	0.081
-746.185	-200.000	0.062	0.565
-745.171	800.000	-0.064	0.224
-744.156	-168.490	-0.144	0.006
-743.142	107.805	-0.084	-0.102
-742.127	-200.000	0.009	0.467
-741.112	-78.291	0.179	-0.063
-740.098	-200.000	0.010	0.246
-739.083	800.000	0.034	0.105
-738.069	446.120	-0.086	0.193
-737.054	16.237	0.281	0.226
-736.039	-142.808	-0.251	0.025
-735.025	-126.952	0.207	0.031
-734.010	189.123	-0.164	0.251
-732.996	800.000	0.073	0.245
-731.981	800.000	-0.076	-0.229
-730.966	-79.103	-0.343	-0.119
-729.952	-200.000	0.019	0.383
-728.937	-0.583	-0.213	0.154
-727.923	800.000	-0.018	-0.066
-726.908	-11.981	-0.176	0.118
-725.894	-169.588	0.081	-0.003
-724.879	-200.000	-0.049	0.286
-723.864	-189.398	0.450	-0.005
-722.850	-58.201	0.085	0.038
-721.835	-200.000	0.005	0.139
-720.821	144.449	0.202	-0.275
-719.806	-63.846	-0.190	0.079
-718.791	-6.483	-0.063	-0.044
-717.777	460.997	0.049	-0.111
-716.762	57.745	-0.167	0.166
-715.748	114.674	0.131	0.163
-714.733	212.964	-0.071	-0.114
-713.718	-113.531	0.111	-0.022
-712.704	-200.000	-0.003	-0.090
-711.689	800.000	-0.039	-0.164
-710.675	800.000	0.093	0.317
-709.660	800.000	-0.044	0.190
-708.645	-47.247	0.073	-0.036
-707.631	800.000	0.043	0.163
-706.616	-200.000	-0.031	0.258
-705.602	-200.000	-0.021	-0.106
-704.587	-69.675	-0.118	-0.046
-703.572	-108.027	-0.576	-0.127
-702.558	-12.551	0.346	0.230
-701.543	800.000	0.045	0.153
-700.529	-31.037	0.129	-0.074
-699.514	-152.387	0.352	0.026
-698.499	-97.894	-0.442	0.116
-697.485	111.852	-0.076	0.093
-696.470	800.000	-0.027	-0.089
-695.456	184.725	0.120	0.180
-694.441	29.245	0.125	0.108
-693.426	209.422	-0.162	-0.259
-692.412	-8.711	0.091	-0.062
-691.397	-200.000	-0.030	0.152
-690.383	-200.000	-0.016	-0.230
-689.368	90.473	-0.308	0.351
-688.354	800.000	0.109	0.436
-687.339	36.636	0.165	0.149
-686.324	14.963	-0.337	0.269
-685.310	-113.141	-0.542	-0.109
-684.295	275.959	0.082	-0.149
-683.281	-184.288	-0.414	0.007
-682.266	31.397	0.116	-0.101
-681.251	800.000	-0.104	-0.305
-680.237	-200.000	-0.006	-0.028
-679.222	-152.218	0.127	-0.009
-678.208	167.849	-0.200	0.290
-677.193	800.000	0.023	0.073
-676.178	1.089	0.115	0.084
-675.164	52.625	0.298	0.290
-674.149	569.387	-0.165	-0.409
-673.135	-53.944	-0.290	-0.134
-672.120	78.442	-0.048	-0.052
-671.105	313.251	0.108	-0.206
-670.091	-164.608	0.079	-0.004
-669.076	444.173	0.047	0.105
-668.062	-89.235	0.124	0.037
-667.047	-139.337	-0.217	0.024
-666.032	-7.579	-0.254	-0.175
-665.018	133.731	-0.134	-0.177
-664.003	36.848	0.116	-0.104
-662.989	22.795	-0.254	-0.211
-661.974	-91.831	0.235	0.068
-660.959	71.165	-0.058	0.062
-659.945	-110.814	0.110	0.023
-658.930	-74.427	-0.143	-0.052
-657.916	-200.000	0.003	-0.131
-656.901	-200.000	0.047	0.397
-655.886	-60.217	-0.068	0.029
-654.872	800.000	-0.082	0.281
-653.857	185.786	0.142	-0.215
-652.843	-200.000	-0.051	-0.416
-651.828	800.000	0.026	0.074
-650.814	-43.675	-0.392	-0.201
-649.799	-42.284	0.071	-0.037
-648.784	-200.000	-0.059	-0.301
-647.770	100.536	-0.244	-0.288
-646.755	800.000	-0.073	-0.216
-645.741	250.688	0.065	0.113
-644.726	-108.516	-0.260	-0.057
-643.711	-89.585	0.222	-0.066
-642.697	-19.366	0.163	-0.102
-641.682	42.141	0.223	-0.205
-640.668	666.518	0.081	0.213
-639.653	77.519	0.129	-0.140
-638.638	-133.750	0.289	-0.037
-637.624	-184.761	0.252	0.004
-636.609	800.000	0.098	-0.303
-635.595	-82.290	-0.023	-0.007
-634.580	227.517	-0.076	0.125
-633.565	-82.801	0.182	0.060
-632.551	-200.000	-0.040	-0.375
-631.536	11.302	-0.043	-0.034
-630.522	-136.520	-0.167	0.020
-629.507	-179.239	0.167	-0.004
-628.492	142.507	-0.038	0.051
-627.478	-150.692	-0.360	0.028
-626.463	352.718	0.190	-0.383
-625.449	-40.100	-0.391	-0.207
-624.434	19.136	-0.105	-0.086
-623.419	61.185	-0.034	-0.035
-622.405	-200.000	0.053	-0.244
-621.390	800.000	-0.089	-0.357
-620.376	91.411	0.204	-0.232
-619.361	566.753	-0.044	-0.108
-618.346	-196.431	-0.134	-0.001
-617.332	51.093	0.155	-0.150
-616.317	-13.091	-0.061	0.040
-615.303	800.000	-0.073	0.283
-614.288	-9.167	0.124	0.084
-613.273	800.000	-0.022	-0.089
-612.259	100.068	0.050	0.059
-611.244	-124.312	0.228	-0.036
-610.230	-120.658	-0.444	0.076
-609.215	800.000	-0.091	0.271
-608.201	236.243	-0.151	-0.253
-607.186	-109.125	-0.517	-0.112
-606.171	-200.000	-0.050	-0.406
-605.157	178.853	-0.068	-0.100
-604.142	-127.094	0.094	0.014
-603.128	-50.346	-0.174	-0.084
-602.113	-114.519	0.165	0.032
-601.098	7.772	0.456	-0.346
-600.084	-127.622	0.406	-0.060
-599.069	119.357	-0.120	0.151
-598.055	91.927	0.197	-0.225
-597.040	64.052	-0.140	-0.143
-596.025	-200.000	-0.014	-0.192
-595.011	-60.882	-0.168	-0.072
-593.996	-93.090	-0.180	-0.051
-592.982	-110.235	-0.406	0.086
-591.967	-200.000	-0.038	-0.197
-590.952	150.527	-0.146	-0.201
-589.938	-83.982	-0.284	-0.092
-588.923	18.751	-0.395	-0.321
-587.909	-200.000	-0.004	-0.161
-586.894	487.828	-0.118	-0.274
-585.879	-200.000	0.010	0.152
-584.865	-36.139	0.143	-0.078
-583.850	-31.797	-0.215	-0.122
-582.836	-102.013	0.263	0.064
-581.821	-58.299	-0.358	0.158
-580.806	-95.888	-0.473	0.128
-579.792	359.555	0.125	0.253
-578.777	800.000	-0.143	-0.408
-577.763	-94.393	-0.133	-0.037
-576.748	-200.000	-0.039	-0.298
-575.733	800.000	0.008	-0.028
-574.719	-200.000	0.023	0.165
-573.704	25.099	-0.209	0.176
-572.690	-73.203	0.361	-0.134
-571.675	85.692	0.131	-0.146
-570.661	-37.939	0.401	-0.216
-569.646	-100.361	-0.196	-0.049
-568.631	800.000	0.085	0.365
-567.617	-153.091	0.017	-0.001
-566.602	451.538	-0.026	-0.059
-565.588	-79.056	-0.200	-0.069
-564.573	659.643	0.038	0.098
-563.558	-74.858	-0.070	-0.025
-562.544	-39.961	-0.135	0.071
-561.529	-200.000	0.011	-0.120
-560.515	14.956	0.021	-0.017
-559.500	-22.887	0.514	-0.314
-558.485	102.689	0.132	-0.157
-557.471	-27.380	-0.227	-0.134
-556.456	776.534	0.163	0.451
-555.442	92.345	0.029	0.033
-554.427	800.000	-0.058	0.223
-553.412	800.000	0.054	0.203
-552.398	-78.573	-0.190	-0.066
-551.383	-200.000	-0.037	0.195
-550.369	-135.311	0.270	-0.033
-549.354	800.000	-0.048	0.164
-548.339	-64.792	-0.278	0.114
-547.325	314.445	-0.102	-0.195
-546.310	8.768	0.259	-0.198
-545.296	13.189	0.117	0.091
-544.281	-11.422	-0.052	-0.034
-543.266	573.460	0.060	0.149
-542.252	-72.986	-0.102	-0.038
-541.237	-120.368	0.053	0.009
-540.223	-83.721	0.189	0.061
-539.208	-200.000	-0.005	-0.071
-538.193	539.796	-0.109	-0.263
-537.179	-5.846	-0.039	0.027
-536.164	-65.101	-0.033	-0.013
-535.150	-89.881	0.169	-0.050
-534.135	133.124	0.164	-0.215
-533.121	-162.006	0.139	0.007
-532.106	389.031	-0.116	-0.244
-531.091	70.318	-0.144	-0.150
-530.077	-200.000	0.043	-0.370
-529.062	211.906	-0.108	-0.172
-528.048	-135.731	-0.316	-0.038
-527.033	-200.000	-0.035	0.307
-526.018	156.090	-0.186	-0.259
-525.004	-14.613	0.122	0.079
-523.989	310.906	-0.174	0.329
-522.975	-200.000	0.029	-0.246
-521.960	-45.687	-0.319	-0.159
-520.945	800.000	0.105	-0.308
-519.931	-69.481	-0.074	-0.029
-518.916	66.940	-0.178	-0.184
-517.902	800.000	0.129	-0.391
-516.887	153.526	-0.114	0.157
-515.872	-26.292	0.265	0.157
-514.858	-46.169	-0.031	-0.015
-513.843	-112.442	-0.127	-0.026
-512.829	-108.569	-0.299	-0.065
-511.814	-67.359	0.273	-0.108
-510.799	718.269	0.036	-0.097
-509.785	139.667	-0.173	-0.231
-508.770	315.042	-0.098	-0.186
-507.756	-29.293	-0.232	0.135
-506.741	-7.777	0.080	-0.054
-505.726	-94.138	0.203	-0.056
-504.712	800.000	-0.024	0.085
-503.697	-18.814	-0.328	0.207
-502.683	-0.655	-0.057	0.041
-501.668	46.334	0.337	0.316
-500.653	8.593	-0.225	0.171
-499.639	-200.000	0.035	0.187
-498.624	4.218	0.221	-0.163
-497.610	800.000	0.054	-0.156
-496.595	-0.623	0.153	0.109
-495.581	-100.959	-0.020	0.005
-494.566	18.545	-0.200	0.161
-493.551	51.814	0.173	-0.166
-492.537	34.645	0.276	0.243
-491.522	36.995	-0.078	-0.070
-490.508	97.313	-0.150	0.174
-489.493	-200.000	-0.008	-0.418
-488.478	242.134	-0.053	0.090
-487.464	590.570	0.053	0.133
-486.449	161.767	0.137	-0.194
-485.435	-122.140	-0.085	-0.014
-484.420	50.099	0.135	0.129
-483.405	-112.562	0.171	0.034
-482.391	-30.580	-0.308	-0.176
-481.376	-11.405	0.129	-0.086
-480.362	-158.080	0.182	0.011
-479.347	-41.445	0.274	-0.142
-478.332	65.766	0.111	0.114
-477.318	401.607	-0.141	0.298
-476.303	42.138	0.234	-0.214
-475.289	-43.510	0.160	0.081
-474.274	309.412	0.164	0.310
-473.259	97.415	0.181	0.210
-472.245	-18.463	0.064	-0.041
-471.230	-200.000	-0.037	0.202
-470.216	-200.000	0.035	0.268
-469.201	143.311	0.056	-0.075
-468.186	119.225	-0.068	0.085
-467.172	800.000	0.154	0.490
-466.157	-102.429	0.291	0.070
-465.143	-94.458	0.272	-0.075
-464.128	298.683	0.128	0.238
-463.113	101.583	-0.225	0.265
-462.099	-200.000	-0.020	-0.278
-461.084	192.885	-0.235	-0.359
-460.070	800.000	-0.114	0.324
-459.055	123.073	0.053	-0.067
-458.040	566.389	-0.140	0.343
-457.026	-106.950	0.056	0.012
-456.011	-73.368	-0.066	-0.024
-454.997	800.000	-0.123	0.406
-453.982	310.969	0.078	0.148
-452.968	111.093	-0.045	0.055
-451.953	464.652	0.091	-0.206
-450.938	-111.784	0.201	-0.041
-449.924	-70.241	0.214	-0.082
-448.909	44.667	0.210	-0.195
-447.895	61.055	0.112	-0.112
-446.880	-200.000	-0.024	-0.137
-445.865	800.000	-0.075	-0.258
-444.851	92.210	-0.202	-0.229
-443.836	36.801	-0.212	0.189
-442.822	-26.701	-0.285	-0.168
-441.807	-132.970	0.227	0.029
-440.792	800.000	0.056	-0.194
-439.778	291.327	0.055	0.100
-438.763	-46.638	-0.203	-0.100
-437.749	222.370	0.220	0.357
-436.734	-49.050	0.157	0.076
-435.719	18.747	-0.196	0.158
-434.705	-200.000	0.007	-0.162
-433.690	-108.654	0.118	-0.026
-432.676	-127.071	0.164	-0.024
-431.661	800.000	0.048	0.201
-430.646	-85.058	0.026	-0.008
-429.632	-200.000	-0.000	-0.364
-428.617	70.126	0.221	-0.230
-427.603	208.952	-0.044	0.069
-426.588	-200.000	-0.032	0.187
-425.573	-200.000	-0.035	0.250
-424.559	227.494	-0.211	0.346
-423.544	218.829	0.135	0.218
-422.530	160.189	-0.108	0.152
-421.515	190.183	0.222	-0.335
-420.500	291.878	0.044	0.081
-419.486	-200.000	0.045	-0.249
-418.471	800.000	-0.009	0.037
-417.457	-14.768	-0.306	-0.198
-416.442	800.000	-0.071	0.277
-415.428	-99.264	0.204	0.052
-414.413	73.369	0.143	-0.151
-413.398	-200.000	0.018	0.194
-412.384	-139.142	0.203	-0.022
-411.369	136.129	0.166	-0.218
-410.355	800.000	0.071	0.241
-409.340	-92.717	-0.081	-0.023
-408.325	639.850	-0.016	-0.042
-407.311	188.600	-0.027	-0.040
-406.296	97.676	-0.120	0.139
-405.282	800.000	0.106	0.353
-404.267	668.162	-0.044	-0.115
-403.252	75.489	-0.015	0.016
-402.238	64.355	-0.121	0.122
-401.223	91.671	-0.138	0.156
-400.209	-84.474	-0.144	-0.046
-399.194	-132.490	0.149	-0.019
-398.179	-33.260	0.177	0.099
-397.165	-51.579	-0.085	-0.040
-396.150	-111.811	-0.123	-0.025
-395.136	-60.080	-0.078	0.033
-394.121	-94.193	0.064	0.018
-393.106	-200.000	0.012	0.084
-392.092	216.416	-0.110	0.176
-391.077	-200.000	-0.031	-0.343
-390.063	252.229	0.024	0.041
-389.048	75.497	-0.397	-0.422
-388.033	-15.433	0.351	0.226
-387.019	-37.073	-0.461	0.248
-386.004	800.000	0.119	0.380
-384.990	-162.076	0.153	-0.008
-383.975	-200.000	0.016	0.301
-382.960	-94.019	0.024	0.006
-381.946	-82.715	-0.310	0.101
-380.931	-24.554	-0.143	0.086
-379.917	800.000	-0.179	0.524
-378.902	-200.000	0.042	-0.234
-377.888	10.473	0.237	0.182
-376.873	-200.000	-0.046	0.275
-375.858	-76.719	0.079	0.028
-374.844	18.387	-0.128	-0.103
-373.829	-108.244	-0.261	0.057
-372.815	-10.965	-0.310	0.206
-371.800	-200.000	0.066	0.362
-370.785	212.315	0.091	-0.144
-369.771	345.495	0.074	0.145
-368.756	21.260	0.085	-0.069
-367.742	469.528	0.057	-0.128
-366.727	89.238	0.179	0.200
-365.712	-168.362	0.144	-0.006
-364.698	517.463	0.066	0.156
-363.683	20.581	0.121	0.098
-362.669	-106.198	-0.105	0.024
-361.654	-200.000	-0.034	0.339
-360.639	-200.000	-0.032	-0.160
-359.625	45.672	-0.174	0.162
-358.610	-200.000	0.038	0.287
-357.596	-200.000	-0.037	-0.223
-356.581	-35.947	-0.034	-0.019
-355.566	800.000	0.099	0.370
-354.552	117.246	0.104	0.129
-353.537	-156.352	0.296	0.019
-352.523	630.504	-0.104	0.265
-351.508	228.619	-0.054	-0.088
-350.493	27.050	0.073	0.062
-349.479	173.064	0.116	0.168
-348.464	800.000	0.077	-0.277
-347.450	-155.144	0.308	-0.020
-346.435	800.000	0.021	-0.061
-345.420	-200.000	0.049	0.224
-344.406	-58.783	-0.109	-0.047
-343.391	-200.000	-0.027	0.558
-342.377	34.188	0.189	0.166
-341.362	51.359	0.195	-0.186
-340.348	385.639	-0.168	0.348
-339.333	-71.951	0.199	-0.074
-338.318	13.184	0.185	-0.144
-337.304	-200.000	-0.011	-0.139
-336.289	245.593	0.119	-0.201
-335.275	1.736	0.114	0.083
-334.260	198.523	0.107	-0.164
-333.245	-200.000	-0.020	-0.204
-332.231	-79.969	-0.056	-0.019
-331.216	-115.094	0.104	0.020
-330.202	-111.202	-0.063	0.013
-329.187	34.469	-0.088	-0.077
-328.172	-78.980	0.062	-0.021
-327.158	800.000	-0.097	-0.380
-326.143	-79.992	0.226	-0.076
-325.129	-95.133	0.155	0.042
-324.114	184.057	0.130	0.193
-323.099	-200.000	0.037	-0.203
-322.085	800.000	0.039	-0.133
-321.070	198.379	0.050	-0.076
-320.056	-39.987	-0.109	0.057
-319.041	800.000	-0.084	0.268
-318.026	800.000	-0.106	0.330
-317.012	777.272	-0.115	-0.315
-315.997	-160.199	0.165	-0.009
-314.983	-52.623	0.202	0.094
-313.968	564.889	-0.036	-0.088
-312.953	-8.064	-0.089	0.060
-311.939	-200.000	-0.014	-0.110
-310.924	-88.840	-0.108	0.032
-309.910	-139.790	-0.124	0.013
-308.895	262.308	0.209	-0.363
-307.880	295.295	-0.060	0.109
-306.866	37.849	-0.234	0.208
-305.851	-9.656	0.293	0.196
-304.837	-200.000	0.021	-0.096
-303.822	-55.219	0.321	0.145
-302.807	-106.653	0.167	0.037
-301.793	-131.209	-0.499	-0.067
-300.778	-180.332	-0.337	0.007
-299.764	-149.407	0.275	0.022
-298.749	-200.000	-0.057	0.434
-297.735	-40.369	-0.176	-0.092
-296.720	800.000	-0.070	0.206
-295.705	-200.000	0.005	-0.050
-294.691	-55.123	0.225	-0.102
-293.676	-33.292	-0.195	0.108
-292.662	800.000	0.057	-0.209
-291.647	1.446	0.195	-0.140
-290.632	178.342	-0.011	-0.016
-289.618	136.463	0.094	-0.124
-288.603	61.341	0.150	-0.150
-287.589	74.920	-0.252	-0.266
-286.574	557.413	-0.089	-0.215
-285.559	164.709	-0.308	-0.435
-284.545	155.221	0.083	0.115
-283.530	-52.329	-0.241	-0.112
-282.516	3.212	-0.114	0.083
-281.501	123.641	0.175	-0.221
-280.486	166.143	-0.117	0.167
-279.472	-182.579	0.120	0.002
-278.457	-60.161	0.177	0.076
-277.443	-200.000	-0.011	-0.064
-276.428	-200.000	-0.037	-0.165
-275.413	197.967	-0.115	0.176
-274.399	800.000	0.026	0.108
-273.384	-7.015	-0.278	-0.189
-272.370	48.368	-0.128	-0.120
-271.355	-71.915	-0.185	-0.069
-270.340	163.262	0.058	-0.082
-269.326	-200.000	-0.016	0.164
-268.311	169.071	0.198	0.283
-267.297	-116.942	0.181	-0.033
-266.282	41.096	-0.231	0.209
-265.267	-47.860	-0.082	0.040
-264.253	800.000	0.131	0.393
-263.238	38.231	0.246	-0.219
-262.224	-179.761	0.278	-0.006
-261.209	-200.000	0.011	0.371
-260.195	102.957	0.091	-0.107
-259.180	-32.167	0.112	-0.063
-258.165	800.000	0.079	-0.218
-257.151	800.000	0.089	0.247
-256.136	294.092	-0.153	0.280
-255.122	-200.000	-0.046	-0.224
-254.107	261.120	0.067	0.116
-253.092	270.383	0.117	0.206
-252.078	117.234	0.101	-0.125
-251.063	-9.056	-0.196	-0.131
-250.049	93.272	-0.223	-0.252
-249.034	229.804	0.085	0.139
-248.019	-15.789	-0.041	0.026
-247.005	-83.123	-0.212	0.068
-245.990	-200.000	0.037	-0.218
-244.976	19.270	0.224	0.180
-243.961	6.292	-0.091	0.067
-242.946	-134.429	-0.140	-0.017
-241.932	-67.335	-0.091	-0.036
-240.917	147.157	-0.211	-0.284
-239.903	-200.000	-0.003	-0.144
-238.888	-200.000	-0.063	0.336
-237.873	800.000	-0.029	-0.112
-236.859	-1.392	0.073	0.051
-235.844	-200.000	-0.000	0.193
-234.830	-163.115	0.215	0.010
-233.815	-102.336	0.161	-0.038
-232.800	345.940	-0.121	0.237
-231.786	149.663	0.097	-0.132
-230.771	85.711	0.175	-0.192
-229.757	800.000	-0.130	-0.429
-228.742	-77.126	-0.101	0.035
-227.727	-200.000	0.041	-0.215
-226.713	800.000	0.107	0.368
-225.698	800.000	-0.058	-0.192
-224.684	625.071	0.082	-0.206
-223.669	-166.800	-0.297	-0.012
-222.655	-102.425	0.170	-0.041
-221.640	-200.000	0.038	0.452
-220.625	-200.000	-0.022	0.147
-219.611	-200.000	0.018	0.270
-218.596	305.520	0.026	-0.048
-217.582	-60.330	-0.120	-0.051
-216.567	235.822	0.128	0.212
-215.552	-58.022	-0.175	-0.076
-214.538	-55.351	-0.082	-0.037
-213.523	-41.878	0.057	-0.029
-212.509	800.000	-0.043	-0.142
-211.494	-127.813	-0.160	0.023
-210.479	184.928	0.109	0.162
-209.465	43.012	-0.265	0.241
-208.450	-200.000	0.003	0.288
-207.436	179.005	-0.156	0.228
-206.421	-9.195	0.325	-0.217
-205.406	15.751	-0.037	0.029
-204.392	-61.691	0.063	0.026
-203.377	-3.179	0.071	0.050
-202.363	-200.000	-0.009	0.129
-201.348	-41.468	0.103	-0.053
-200.333	-200.000	0.002	0.019
-199.319	-58.332	-0.190	-0.083
-198.304	638.294	0.108	-0.274
-197.290	262.767	0.079	-0.137
-196.275	-141.326	-0.133	-0.014
-195.260	278.089	0.093	-0.166
-194.246	-124.732	0.286	0.044
-193.231	-50.540	0.151	0.071
-192.217	-138.252	-0.277	-0.031
-191.202	196.643	-0.183	0.279
-190.187	-105.430	-0.105	0.024
-189.173	-48.856	0.148	-0.071
-188.158	-154.514	-0.213	0.014
-187.144	42.732	-0.126	-0.114
-186.129	-200.000	0.037	0.309
-185.114	-0.494	-0.148	0.105
-184.100	55.168	0.142	0.136
-183.085	-200.000	0.028	0.277
-182.071	157.533	0.075	-0.103
-181.056	-200.000	0.019	-0.307
-180.042	199.620	-0.115	0.176
-179.027	-7.871	-0.142	-0.095
-178.012	114.455	0.077	0.094
-176.998	-200.000	0.009	0.103
-175.983	-200.000	0.020	-0.333
-174.969	460.882	0.067	-0.148
-173.954	6.545	0.106	0.079
-172.939	-25.744	0.099	0.058
-171.925	-200.000	-0.017	0.545
-170.910	216.295	-0.121	0.192
-169.896	265.994	-0.097	0.170
-168.881	-200.000	0.019	0.124
-167.866	-135.608	0.075	0.009
-166.852	-113.939	0.238	0.046
-165.837	116.787	-0.090	0.110
-164.823	40.162	0.059	-0.053
-163.808	-200.000	0.035	-0.295
-162.793	-200.000	0.016	-0.128
-161.779	18.290	-0.117	0.093
-160.764	-81.135	0.209	0.069
-159.750	488.029	-0.162	0.369
-158.735	-200.000	-0.018	-0.150
-157.720	-63.861	-0.322	0.131
-156.706	57.845	-0.326	-0.318
-155.691	-2.315	0.437	-0.306
-154.677	-90.896	0.106	0.031
-153.662	74.506	-0.167	-0.175
-152.647	33.688	-0.204	0.176
-151.633	282.547	-0.074	0.133
-150.618	-200.000	-0.029	-0.132
-149.604	11.513	-0.230	-0.175
-148.589	432.034	0.041	-0.089
-147.574	-200.000	-0.064	-0.557
-146.560	49.934	-0.234	0.220
-145.545	-111.566	-0.392	-0.079
-144.531	-200.000	0.037	-0.178
-143.516	-3.648	-0.301	-0.208
-142.502	-72.809	0.326	0.120
-141.487	-20.056	-0.264	-0.162
-140.472	-8.972	-0.087	0.058
-139.458	-152.162	-0.140	-0.010
-138.443	-62.642	0.132	0.055
-137.429	330.377	0.179	-0.343
-136.414	-173.824	0.268	-0.008
-135.399	351.387	0.133	0.262
-134.385	-114.807	0.446	0.085
-133.370	800.000	-0.081	-0.295
-132.356	800.000	0.020	0.062
-131.341	630.298	-0.143	-0.359
-130.326	-145.610	0.154	-0.014
-129.312	-21.377	0.132	0.080
-128.297	-200.000	-0.022	-0.109
-127.283	-200.000	0.029	0.205
-126.268	-156.152	-0.100	-0.006
-125.253	-174.525	0.119	0.003
-124.239	1.958	-0.201	0.144
-123.224	-200.000	0.270	-0.001
-122.210	669.451	0.038	-0.098
-121.195	207.842	0.183	0.285
-120.180	-116.904	0.016	-0.003
-119.166	86.750	-0.475	-0.522
-118.151	-97.075	-0.213	0.056
-117.137	-200.000	0.009	0.211
-116.122	99.394	0.095	0.110
-115.107	-200.000	-0.006	0.067
-114.093	-200.000	-0.007	-0.235
-113.078	216.093	0.163	-0.258
-112.064	-188.580	0.284	0.004
-111.049	294.438	-0.054	-0.098
-110.034	-60.969	0.100	-0.042
-109.020	-120.162	0.221	0.038
-108.005	27.197	-0.013	-0.011
-106.991	-40.275	0.223	-0.115
-105.976	-49.924	0.201	-0.095
-104.962	-200.000	0.018	-0.092
-103.947	-156.308	-0.208	-0.013
-102.932	-200.000	0.033	0.332
-101.918	661.261	0.132	0.338
-100.903	-200.000	0.003	-0.039
-99.889	451.313	0.146	-0.320
-98.874	-101.942	0.259	0.062
-97.859	-81.720	-0.203	-0.066
-96.845	-100.702	-0.298	0.073
-95.830	-98.749	-0.082	-0.021
-94.816	131.221	-0.136	-0.174
-93.801	-124.704	-0.205	-0.032
-92.786	-135.599	-0.299	0.035
-91.772	-200.000	-0.021	0.136
-90.757	-200.000	-0.002	0.227
-89.743	-200.000	0.020	0.189
-88.728	-169.380	-0.304	0.011
-87.713	-54.372	-0.256	-0.116
-86.699	-112.197	0.177	-0.035
-85.684	-200.000	-0.043	0.190
-84.670	-160.908	0.301	-0.016
-83.655	800.000	-0.053	-0.215
-82.640	372.093	0.110	0.222
-81.626	-56.135	0.049	0.022
-80.611	-200.000	-0.001	0.031
-79.597	94.827	-0.050	-0.056
-78.582	272.201	-0.048	-0.085
-77.567	-108.470	0.120	-0.026
-76.553	-26.963	-0.056	-0.032
-75.538	226.873	0.031	-0.051
-74.524	91.134	0.196	0.219
-73.509	-109.062	0.068	0.014
-72.494	800.000	0.013	-0.052
-71.480	-200.000	0.024	0.260
-70.465	-146.636	0.066	-0.006
-69.451	540.969	0.167	0.395
-68.436	123.862	-0.094	0.118
-67.422	136.392	-0.208	-0.269
-66.407	-126.476	0.144	-0.021
-65.392	-3.000	-0.309	0.214
-64.378	-119.003	0.138	0.024
-63.363	-145.797	0.296	0.026
-62.349	-200.000	-0.032	0.297
-61.334	59.359	-0.805	-0.787
-60.319	-17.856	0.585	0.365
-59.305	-200.000	0.044	-0.751
-58.290	800.000	0.397	1.095
-57.276	286.454	0.806	1.444
-56.261	-200.000	90.378	523.617
-55.246	488.629	1384.683	3140.423
-54.232	148.267	2596.566	3479.649
-53.217	110.988	2220.882	2654.706
-52.203	45.785	1749.947	1606.223
-51.188	38.863	1556.521	1380.153
-50.173	36.504	1528.454	1338.891
-49.159	53.932	1576.661	1504.174
-48.144	57.723	1596.090	1549.350
-47.130	39.465	1552.737	1380.802
-46.115	36.175	1537.808	1344.583
-45.100	35.895	1534.716	1339.875
-44.086	35.873	1532.848	1338.037
-43.071	35.895	1530.890	1336.428
-42.057	35.893	1528.789	1334.528
-41.042	35.866	1527.933	1333.542
-40.027	35.924	1526.145	1332.326
-39.013	35.953	1524.630	1331.155
-37.998	35.888	1523.177	1329.383
-36.984	35.942	1521.868	1328.557
-35.969	35.873	1521.206	1327.455
-34.954	35.933	1519.320	1326.172
-33.940	35.897	1517.840	1324.579
-32.925	35.870	1516.889	1323.505
-31.911	35.943	1515.294	1322.566
-30.896	35.942	1514.308	1321.643
-29.881	35.998	1512.587	1320.475
-28.867	35.833	1511.644	1318.469
-27.852	35.968	1509.850	1317.774
-26.838	36.006	1508.516	1316.820
-25.823	36.047	1506.169	1315.002
-24.809	35.998	1504.868	1313.478
-23.794	35.988	1503.690	1312.326
-22.779	35.978	1502.654	1311.305
-21.765	36.012	1500.876	1309.933
-20.750	36.110	1499.327	1309.191
-19.736	36.007	1499.018	1308.173
-18.721	36.007	1497.707	1306.974
-17.706	36.036	1496.465	1306.039
-16.692	35.984	1495.904	1305.141
-15.677	35.895	1495.094	1303.780
-14.663	35.936	1493.552	1302.659
-13.648	35.986	1492.414	1301.956
-12.633	35.868	1491.824	1300.591
-11.619	35.807	1491.353	1299.714
-10.604	35.834	1490.340	1298.968
-9.590	35.898	1488.996	1298.177
-8.575	35.846	1488.163	1297.046
-7.560	35.884	1487.503	1296.675
-6.546	35.965	1485.949	1295.812
-5.531	35.979	1485.569	1295.523
-4.517	35.863	1484.783	1294.010
-3.502	35.889	1483.425	1292.949
-2.487	35.904	1482.696	1292.363
-1.473	35.776	1481.753	1290.629
-0.458	35.953	1479.744	1290.017
0.556	36.004	1470.747	1279.847
1.571	33.422	1444.528	1240.037
2.586	30.066	1383.830	1166.742
3.600	28.579	1301.251	1088.203
4.615	26.911	1253.961	1039.023
5.629	22.528	1194.801	965.945
6.644	11.570	1103.917	836.573
7.659	3.339	1059.559	762.289
8.673	2.125	1053.369	751.794
9.688	1.841	1050.425	748.233
10.702	1.725	1048.707	746.378
11.717	1.630	1046.943	744.591
12.731	5.010	1050.700	763.771
13.746	15.484	1065.599	826.332
14.761	23.568	1076.698	874.900
15.775	25.206	1077.568	883.603
16.790	25.344	1077.450	884.112
17.804	25.113	1076.621	882.216
18.819	24.885	1075.995	880.505
19.834	25.052	1074.966	880.403
20.848	25.207	1074.303	880.542
21.863	25.334	1073.979	880.822
22.877	25.301	1073.891	880.513
23.892	25.214	1073.321	879.539
24.907	25.233	1072.268	878.689
25.921	25.198	1071.620	877.913
26.936	25.140	1071.129	877.146
27.950	25.219	1069.698	876.282
28.965	25.182	1068.640	875.157
29.980	25.058	1067.307	873.387
30.994	24.984	1065.838	871.747
32.009	25.132	1065.201	871.869
33.023	25.330	1064.381	872.081
34.038	25.056	1063.558	870.003
35.053	25.003	1062.551	868.843
36.067	25.177	1062.354	869.448
37.082	25.084	1061.375	868.120
38.096	25.152	1060.484	867.643
39.111	25.366	1059.888	868.115
40.126	25.622	1059.053	868.590
41.140	25.269	1058.015	865.959
42.155	25.091	1056.229	863.564
43.169	24.840	1054.973	861.252
44.184	24.750	1053.992	859.940
45.199	24.764	1053.325	859.387
46.213	24.699	1052.020	857.935
47.228	24.758	1050.974	857.290
48.242	24.950	1050.389	857.653
49.257	25.107	1049.482	857.592
50.271	25.202	1048.854	857.455
51.286	25.178	1048.044	856.604
52.301	25.331	1047.228	856.588
53.315	25.133	1047.097	855.464
54.330	25.177	1046.230	854.887
55.344	24.973	1045.609	853.335
56.359	25.162	1044.284	853.078
57.374	24.997	1043.600	851.658
58.388	24.968	1042.675	850.691
59.403	24.916	1041.717	849.584
60.417	24.884	1041.279	849.001
61.432	24.782	1040.430	847.748
62.447	24.834	1039.710	847.336
63.461	24.798	1039.329	846.780
64.476	25.029	1038.387	847.029
65.490	24.972	1037.134	845.662
66.505	24.929	1036.304	844.710
67.520	24.813	1035.352	843.309
68.534	24.874	1034.934	843.182
69.549	24.878	1033.843	842.241
70.563	24.419	1032.330	838.777
71.578	24.257	1032.236	837.864
72.593	24.457	1031.225	837.905
73.607	24.317	1029.745	835.975
74.622	24.344	1028.670	835.154
75.636	24.479	1028.639	835.687
76.651	24.720	1027.888	836.130
77.666	24.659	1026.959	835.015
78.680	24.472	1026.062	833.339
79.695	24.493	1025.520	832.922
80.709	24.610	1024.939	832.925
81.724	24.682	1024.202	832.589
82.739	24.806	1023.202	832.276
83.753	24.672	1022.650	831.133
84.768	24.913	1022.024	831.669
85.782	25.310	1021.685	833.163
86.797	25.510	1020.925	833.395
87.812	25.465	1019.946	832.315
88.826	25.409	1018.866	831.099
89.841	25.359	1018.339	830.366
90.855	25.382	1017.577	829.777
91.870	25.420	1016.881	829.313
92.884	25.292	1016.721	828.515
93.899	25.271	1015.425	827.291
94.914	25.256	1013.963	825.958
95.928	25.374	1013.656	826.179
96.943	25.394	1013.016	825.674
97.957	25.013	1011.279	822.436
98.972	24.923	1010.286	821.143
99.987	24.708	1009.391	819.358
101.001	24.833	1008.536	819.162
102.016	25.188	1008.204	820.445
103.030	25.166	1007.180	819.442
104.045	24.999	1006.315	817.899
105.060	24.898	1005.345	816.579
106.074	24.641	1004.249	814.448
107.089	24.818	1003.397	814.490
108.103	24.992	1003.501	815.294
109.118	25.146	1002.481	815.090
110.133	24.907	1001.281	812.961
111.147	24.799	1000.428	811.707
112.162	24.725	999.237	810.331
113.176	24.638	997.476	808.438
114.191	24.676	997.567	808.611
115.206	24.748	996.587	808.072
116.220	24.482	995.676	806.061
117.235	24.367	994.445	804.476
118.249	24.649	993.485	804.898
119.264	24.533	992.875	803.807
120.279	24.431	992.053	802.612
121.293	24.388	991.539	801.936
122.308	24.544	990.762	801.936
123.322	24.483	990.166	801.108
124.337	24.492	988.614	799.822
125.352	24.487	987.339	798.697
126.366	24.063	986.069	795.703
127.381	23.579	985.009	792.618
128.395	24.231	984.630	795.154
129.410	24.783	984.589	797.512
130.424	25.166	983.414	798.193
131.439	25.139	982.290	797.091
132.454	25.080	980.857	795.593
133.468	24.967	980.959	795.108
134.483	24.889	979.952	793.873
135.497	24.997	979.356	793.797
136.512	25.304	978.256	794.194
137.527	25.501	977.532	794.408
138.541	25.255	977.168	792.955
139.556	25.352	976.324	792.629
140.570	25.365	975.376	791.847
141.585	25.348	974.705	791.159
142.600	25.438	974.279	791.136
143.614	25.290	973.317	789.634
144.629	25.270	972.606	788.900
145.643	25.574	972.256	789.882
146.658	25.413	970.746	787.879
147.673	25.230	969.477	785.978
148.687	25.095	968.417	784.459
149.702	25.031	967.534	783.395
150.716	24.938	966.605	782.168
151.731	25.077	965.109	781.493
152.746	25.098	964.610	781.112
153.760	25.206	964.347	781.301
154.775	25.388	963.594	781.411
155.789	25.436	962.638	780.778
156.804	25.354	961.921	779.768
157.819	25.426	960.742	779.058
158.833	25.376	959.913	778.099
159.848	25.360	959.583	777.694
160.862	25.519	958.544	777.471
161.877	25.370	957.603	775.995
162.892	25.186	957.151	774.765
163.906	25.377	956.054	774.634
164.921	25.484	954.588	773.836
165.935	25.392	953.530	772.515
166.950	25.366	952.786	771.731
167.964	25.426	951.839	771.157
168.979	25.388	950.979	770.228
169.994	25.235	949.819	768.563
171.008	25.076	949.002	767.154
172.023	25.332	948.072	767.430
173.037	25.453	947.566	767.467
174.052	25.331	946.174	765.751
175.067	25.238	945.262	764.551
176.081	25.082	944.533	763.229
177.096	25.035	943.996	762.530
178.110	25.345	942.805	762.817
179.125	25.012	942.102	760.767
180.140	24.657	941.147	758.421
181.154	24.592	940.298	757.393
182.169	24.816	939.634	757.740
183.183	25.188	939.712	759.312
184.198	25.502	939.213	760.169
185.213	25.506	938.393	759.455
186.227	25.196	937.658	757.483
187.242	25.423	937.083	757.909
188.256	25.366	936.527	757.154
189.271	25.470	935.717	756.868
190.286	25.615	935.115	756.925
191.300	25.423	934.057	755.198
192.315	24.723	932.976	751.316
193.329	23.976	931.478	746.906
194.344	23.487	930.119	743.700
195.359	24.320	930.396	747.350
196.373	25.050	930.535	750.455
197.388	25.304	930.571	751.478
198.402	25.275	929.542	750.461
199.417	25.220	929.269	749.946
200.432	25.294	928.695	749.725
201.446	25.295	928.091	749.173
202.461	24.868	927.391	746.761
203.475	25.007	926.610	746.646
204.490	24.546	925.031	743.390
205.504	23.392	923.314	737.148
206.519	23.805	923.035	738.576
207.534	24.641	923.705	742.523
208.548	24.788	922.594	742.172
209.563	25.263	922.543	744.034
210.577	25.190	921.637	742.936
211.592	24.887	921.062	741.153
212.607	25.371	920.730	742.821
213.621	25.642	920.240	743.482
214.636	25.417	919.610	741.979
215.650	25.448	919.404	741.875
216.665	25.365	918.682	740.884
217.680	25.418	918.449	740.849
218.694	25.553	917.871	740.873
219.709	25.227	917.047	738.799
220.723	24.838	915.807	736.136
221.738	25.065	915.482	736.744
222.753	25.249	914.991	737.040
223.767	25.308	914.015	736.431
224.782	25.329	913.472	736.012
225.796	25.454	913.221	736.256
226.811	25.536	912.503	735.950
227.826	25.254	910.903	733.441
228.840	24.435	909.460	728.870
229.855	24.201	909.194	727.638
230.869	24.617	908.336	728.585
231.884	24.185	907.538	726.117
232.899	24.244	906.808	725.711
233.913	25.027	907.215	729.159
234.928	25.301	906.786	729.864
235.942	25.127	906.233	728.649
236.957	25.028	906.010	728.002
237.972	24.747	904.894	725.901
238.986	24.745	904.052	725.153
240.001	24.830	903.510	725.000
241.015	24.899	902.731	724.588
242.030	24.906	902.374	724.265
243.045	25.203	901.555	724.746
244.059	25.185	901.272	724.379
245.074	25.433	900.271	724.514
246.088	25.271	900.275	723.796
247.103	24.950	899.283	721.642
248.117	24.910	898.682	720.935
249.132	25.504	898.579	723.180
250.147	26.026	898.392	725.066
251.161	26.013	897.709	724.397
252.176	26.047	897.646	724.419
253.190	26.083	896.881	723.881
254.205	26.138	896.663	723.863
255.220	26.384	895.824	724.107
256.234	26.563	894.811	723.939
257.249	26.252	894.268	722.191
258.263	25.973	894.111	720.885
259.278	26.078	893.506	720.756
260.293	26.173	893.062	720.713
261.307	26.239	892.805	720.703
262.322	26.172	891.854	719.605
263.336	26.106	891.067	718.645
264.351	25.728	889.468	715.787
265.366	24.436	887.816	709.266
266.380	23.987	886.792	706.601
267.395	24.938	887.469	710.855
268.409	25.675	887.532	713.769
269.424	25.802	886.628	713.479
270.439	25.911	886.484	713.732
271.453	26.022	885.809	713.567
272.468	25.882	885.283	712.526
273.482	26.090	884.895	712.972
274.497	26.094	884.754	712.812
275.512	25.964	883.673	711.365
276.526	25.378	882.369	707.943
277.541	25.601	881.914	708.392
278.555	26.055	881.417	709.716
279.570	25.868	880.747	708.380
280.585	25.649	880.259	707.064
281.599	25.785	879.515	706.940
282.614	25.932	879.241	707.231
283.628	25.534	878.165	704.743
284.643	25.083	876.978	701.965
285.657	25.420	877.071	703.297
286.672	25.421	876.334	702.644
287.687	24.868	875.687	699.902
288.701	25.160	875.449	700.793
289.716	25.589	875.225	702.226
290.730	25.275	874.323	700.217
291.745	25.075	873.947	699.073
292.760	24.961	872.607	697.496
293.774	24.911	871.913	696.683
294.789	25.823	872.229	700.422
295.803	26.519	872.656	703.410
296.818	26.441	872.251	702.720
297.833	26.558	871.724	702.688
298.847	26.272	870.527	700.549
299.862	25.842	869.789	698.229
300.876	26.130	869.455	699.013
301.891	26.298	869.213	699.409
302.906	26.357	868.529	699.023
303.920	26.070	867.254	696.826
304.935	25.949	866.491	695.686
305.949	26.304	866.503	697.004
306.964	26.441	865.665	696.796
307.979	26.288	864.932	695.556
308.993	26.098	864.316	694.265
310.008	26.409	864.632	695.655
311.022	26.679	863.984	696.112
312.037	26.411	863.374	694.527
313.052	26.231	862.531	693.097
314.066	26.127	861.643	691.924
315.081	25.597	860.126	688.616
316.095	24.687	858.567	683.829
317.110	25.217	858.844	686.015
318.125	26.149	859.268	689.858
319.139	25.798	858.157	687.565
320.154	24.575	856.635	681.622
321.168	24.165	855.371	678.993
322.183	24.539	856.024	680.876
323.197	25.570	856.869	685.422
324.212	26.039	856.038	686.479
325.227	26.069	855.700	686.262
326.241	26.399	854.943	686.850
327.256	26.075	854.686	685.351
328.270	26.031	854.196	684.728
329.285	25.940	853.515	683.778
330.300	25.812	852.541	682.452
331.314	25.433	851.836	680.392
332.329	25.761	850.834	680.772
333.343	26.112	850.782	681.996
334.358	26.324	850.577	682.572
335.373	26.362	849.527	681.816
336.387	26.380	849.379	681.705
337.402	26.478	849.215	681.879
338.416	26.835	849.026	683.012
339.431	26.845	848.104	682.247
340.446	26.754	847.574	681.419
341.460	26.981	847.334	682.021
342.475	26.932	846.682	681.252
343.489	26.665	845.945	679.595
344.504	26.845	845.161	679.581
345.519	26.951	844.975	679.768
346.533	27.193	844.833	680.497
347.548	27.284	844.232	680.297
348.562	27.331	843.947	680.180
349.577	27.258	843.049	679.125
350.592	27.038	842.765	678.014
351.606	26.944	842.357	677.275
352.621	27.126	841.285	677.031
353.635	26.953	841.299	676.339
354.650	26.838	840.722	675.388
355.665	26.605	839.491	673.471
356.679	25.542	837.743	668.062
357.694	25.470	837.053	667.184
358.708	26.125	836.959	669.482
359.723	26.028	836.728	668.879
360.738	26.228	836.593	669.453
361.752	26.659	836.653	671.036
362.767	26.838	836.200	671.278
363.781	26.968	836.007	671.546
364.796	27.418	835.911	673.072
365.810	27.471	835.353	672.758
366.825	27.547	835.016	672.709
367.840	27.576	834.541	672.375
368.854	27.354	834.078	671.122
369.869	27.007	832.907	668.844
370.883	26.666	832.254	667.003
371.898	26.916	831.708	667.427
372.913	26.857	831.032	666.608
373.927	26.781	830.648	665.961
374.942	27.090	830.043	666.554
375.956	27.141	829.205	666.008
376.971	27.190	828.635	665.669
377.986	27.379	828.062	665.844
379.000	27.437	828.128	666.048
380.015	27.531	827.434	665.774
381.029	27.333	826.566	664.296
382.044	27.229	826.078	663.465
383.059	27.420	825.810	663.889
384.073	27.455	825.434	663.653
385.088	27.464	824.933	663.226
386.102	27.493	823.933	662.467
387.117	27.315	823.447	661.371
388.132	27.069	822.990	660.051
389.146	27.022	822.243	659.226
390.161	26.447	821.535	656.511
391.175	26.379	821.302	656.022
392.190	27.164	821.028	658.590
393.205	27.220	820.470	658.285
394.219	26.124	818.876	652.985
395.234	24.491	816.623	645.238
396.248	23.622	815.455	641.119
397.263	24.699	816.170	645.513
398.278	26.516	817.848	653.351
399.292	26.978	817.631	654.787
400.307	26.836	816.863	653.605
401.321	26.630	816.806	652.757
402.336	26.619	816.295	652.251
403.350	26.828	816.432	653.055
404.365	27.466	816.325	655.207
405.380	27.809	815.918	656.058
406.394	28.095	815.365	656.582
407.409	28.178	815.270	656.746
408.423	28.120	814.956	656.224
409.438	28.128	814.006	655.433
410.453	28.022	814.091	655.063
411.467	28.124	813.487	654.883
412.482	28.222	812.428	654.322
413.496	28.032	811.971	653.218
414.511	28.148	811.780	653.421
415.526	28.191	811.650	653.413
416.540	28.143	811.442	653.017
417.555	28.025	810.448	651.737
418.569	27.791	809.398	650.001
419.584	27.762	808.982	649.506
420.599	27.933	808.667	649.806
421.613	103.592	1279.701	1431.619
422.628	89.266	1348.326	1431.734
