DTS Sentinel unit serial number:	SN413079Multiplexer serial number:	ORYXHardware model number:	OX4-SRSoftware version number:	ORYX F/W v4.00 Oryx Data Collector v3.7.2.0data status	okinstallation	princeton_trtdifferential loss correction	single-endedforward channel	channel 3reverse channel	N/Adate	2019/09/19time	09:28:34forward acquisition time	60.00reverse acquisition time	0.00gamma	496.2192k internal	0.2345k external	0.2345temperature offset calibration	0.9974default loss term (dB/km)	0.3790temperature slope calibration	1.0000multiplexer offset coefficient	1.0000multiplexer slope coefficient	1.0000fibre end	0.00T internal ref (°C)	22.72T ext. ref 1 (°C)	0.62T ext. ref 2 (°C)	19.41length (m)	temperature (°C)	Stokes	anti-Stokes-747.200	-22.224	0.040	0.024
-746.185	-123.787	-0.392	-0.062
-745.171	244.864	0.105	0.176
-744.156	-200.000	-0.290	0.000
-743.142	156.719	0.016	-0.022
-742.127	-200.000	-0.041	0.210
-741.112	72.571	-0.175	-0.183
-740.098	800.000	-0.063	0.205
-739.083	-200.000	0.038	-0.188
-738.069	-96.680	-0.361	-0.095
-737.054	-140.716	-0.204	-0.021
-736.039	13.929	-0.480	0.373
-735.025	193.188	0.053	0.081
-734.010	-44.550	0.070	0.035
-732.996	181.398	-0.159	-0.233
-731.981	516.191	-0.006	0.015
-730.966	-46.001	-0.194	0.096
-729.952	-131.934	0.181	0.024
-728.937	800.000	0.042	-0.135
-727.923	-37.485	-0.195	-0.104
-726.908	234.615	0.196	-0.323
-725.894	173.695	0.148	-0.213
-724.879	-200.000	0.019	0.175
-723.864	355.481	-0.146	-0.291
-722.850	-200.000	-0.014	-0.210
-721.835	-200.000	0.033	-0.160
-720.821	-200.000	-0.073	-0.352
-719.806	9.729	0.178	0.135
-718.791	62.884	-0.152	-0.152
-717.777	162.086	0.011	0.015
-716.762	-41.184	-0.101	-0.052
-715.748	21.125	-0.127	0.103
-714.733	717.834	-0.059	-0.155
-713.718	-124.754	-0.056	-0.009
-712.704	-21.982	-0.185	0.112
-711.689	-76.667	-0.132	0.046
-710.675	-77.713	-0.369	-0.127
-709.660	646.190	-0.142	0.362
-708.645	-200.000	0.046	0.287
-707.631	-200.000	-0.020	0.233
-706.616	800.000	-0.092	-0.299
-705.602	-5.549	0.206	-0.141
-704.587	-126.887	0.291	-0.043
-703.572	-200.000	0.008	0.098
-702.558	-192.834	0.084	-0.001
-701.543	149.278	-0.177	-0.239
-700.529	55.910	0.204	0.198
-699.514	-145.399	0.050	0.004
-698.499	-103.017	-0.535	0.127
-697.485	-200.000	-0.047	-0.389
-696.470	360.437	0.198	-0.397
-695.456	169.623	0.085	-0.122
-694.441	-200.000	-0.019	-0.265
-693.426	591.545	0.100	-0.247
-692.412	494.468	-0.077	-0.176
-691.397	173.596	-0.060	0.087
-690.383	-57.757	-0.143	0.062
-689.368	-14.275	-0.266	-0.171
-688.354	196.439	-0.256	-0.389
-687.339	220.677	0.069	0.111
-686.324	74.821	-0.024	-0.025
-685.310	-200.000	-0.040	-0.215
-684.295	-200.000	0.055	0.261
-683.281	-92.731	0.149	0.042
-682.266	-40.483	-0.192	-0.100
-681.251	-13.833	0.356	-0.230
-680.237	519.965	-0.059	-0.137
-679.222	-25.389	0.333	0.196
-678.208	-200.000	0.041	0.227
-677.193	-9.082	0.182	0.121
-676.178	-82.706	0.164	-0.053
-675.164	-31.890	-0.070	0.039
-674.149	26.587	-0.170	-0.142
-673.135	-76.594	0.025	-0.009
-672.120	-24.915	0.100	-0.059
-671.105	-34.737	-0.023	0.013
-670.091	-62.026	0.289	-0.120
-669.076	50.711	-0.210	0.198
-668.062	800.000	0.030	-0.083
-667.047	-200.000	-0.028	-0.186
-666.032	198.495	0.038	-0.057
-665.018	164.855	0.092	-0.129
-664.003	-135.048	-0.127	-0.015
-662.989	-96.703	0.150	-0.039
-661.974	784.935	-0.114	-0.312
-660.959	-94.856	-0.261	0.071
-659.945	651.415	0.070	-0.178
-658.930	-107.029	0.281	-0.062
-657.916	-200.000	0.002	-0.077
-656.901	51.228	0.072	0.068
-655.886	-53.934	-0.136	0.062
-654.872	-112.545	0.198	0.039
-653.857	251.799	0.100	-0.170
-652.843	249.895	0.088	-0.148
-651.828	-61.519	-0.118	-0.050
-650.814	800.000	-0.095	-0.315
-649.799	-200.000	0.050	-0.359
-648.784	-42.174	0.171	0.087
-647.770	-200.000	0.038	0.303
-646.755	-160.861	0.581	-0.031
-645.741	107.629	0.118	-0.140
-644.726	162.586	0.155	-0.217
-643.711	-129.310	-0.422	-0.058
-642.697	-96.854	-0.081	0.021
-641.682	0.659	-0.209	-0.149
-640.668	40.320	0.114	-0.102
-639.653	-200.000	0.014	-0.140
-638.638	-200.000	0.021	-0.171
-637.624	-35.632	-0.211	0.114
-636.609	208.208	-0.121	-0.189
-635.595	65.367	-0.265	0.267
-634.580	-200.000	0.032	-0.525
-633.565	-104.020	-0.266	-0.062
-632.551	451.946	-0.090	-0.198
-631.536	-45.747	0.283	0.139
-630.522	-44.441	0.434	0.216
-629.507	-147.150	0.225	-0.019
-628.492	271.767	-0.113	0.199
-627.478	317.013	-0.147	-0.277
-626.463	444.522	-0.009	-0.020
-625.449	146.993	-0.080	0.108
-624.434	-200.000	-0.018	-0.179
-623.419	-30.940	-0.236	0.133
-622.405	-22.237	-0.151	-0.091
-621.390	165.542	-0.139	-0.196
-620.376	43.718	-0.160	-0.146
-619.361	-200.000	0.005	-0.251
-618.346	-107.790	0.088	-0.019
-617.332	285.086	0.037	-0.067
-616.317	-68.744	0.513	0.197
-615.303	-66.005	-0.379	0.151
-614.288	19.419	0.319	0.256
-613.273	378.766	-0.183	0.373
-612.259	8.320	-0.418	-0.313
-611.244	-200.000	-0.034	-0.278
-610.230	49.922	-0.167	-0.156
-609.215	-14.709	-0.087	0.056
-608.201	-19.899	-0.117	-0.072
-607.186	-43.738	-0.209	0.105
-606.171	-61.798	-0.229	0.095
-605.157	69.895	-0.129	0.133
-604.142	135.011	0.219	0.283
-603.128	333.723	-0.094	0.182
-602.113	-118.841	-0.349	0.061
-601.098	-22.569	-0.085	-0.051
-600.084	-200.000	0.078	-0.432
-599.069	12.809	0.005	0.004
-598.055	646.493	0.010	0.024
-597.040	464.136	-0.092	-0.205
-596.025	-23.178	-0.063	-0.038
-595.011	-200.000	0.015	0.223
-593.996	796.426	0.084	-0.231
-592.982	301.948	-0.028	-0.052
-591.967	194.585	-0.059	0.089
-590.952	164.058	0.103	0.145
-589.938	-96.450	0.238	0.063
-588.923	186.576	-0.050	0.074
-587.909	359.726	0.155	-0.309
-586.894	116.867	-0.341	0.416
-585.879	76.774	-0.130	-0.137
-584.865	196.024	-0.097	0.147
-583.850	-73.423	0.283	0.103
-582.836	4.980	-0.049	0.036
-581.821	481.010	-0.078	-0.176
-580.806	353.415	-0.050	0.098
-579.792	-200.000	0.024	-0.110
-578.777	20.877	0.149	-0.120
-577.763	-88.271	0.102	0.030
-576.748	398.380	-0.052	0.108
-575.733	-200.000	0.006	-0.268
-574.719	-63.835	0.326	-0.133
-573.704	-200.000	0.055	0.271
-572.690	634.792	0.004	-0.010
-571.675	56.409	-0.191	-0.185
-570.661	800.000	0.039	0.149
-569.646	-135.943	-0.323	-0.038
-568.631	-200.000	0.029	0.152
-567.617	-176.441	-0.149	-0.004
-566.602	-54.392	-0.173	-0.078
-565.588	-5.260	-0.122	-0.084
-564.573	17.345	-0.167	0.132
-563.558	800.000	0.071	0.300
-562.544	90.171	0.075	-0.084
-561.529	37.840	0.172	0.152
-560.515	-200.000	0.036	0.350
-559.500	-200.000	0.008	-0.108
-558.485	-200.000	0.028	-0.241
-557.471	-200.000	-0.029	0.296
-556.456	468.870	-0.062	0.138
-555.442	-55.968	-0.149	0.066
-554.427	800.000	0.155	-0.435
-553.412	-104.193	-0.337	0.078
-552.398	-167.124	-0.206	-0.008
-551.383	66.898	0.105	0.106
-550.369	-69.369	-0.144	-0.055
-549.354	42.608	0.162	0.146
-548.339	52.985	0.192	-0.183
-547.325	-200.000	0.005	-0.095
-546.310	487.347	0.027	0.062
-545.296	264.190	0.120	-0.208
-544.281	800.000	0.013	-0.042
-543.266	203.144	-0.251	0.385
-542.252	0.127	-0.241	-0.170
-541.237	-200.000	-0.004	0.064
-540.223	578.125	0.143	-0.346
-539.208	75.727	-0.180	-0.189
-538.193	-40.547	0.304	0.157
-537.179	290.085	-0.176	-0.318
-536.164	-56.987	0.269	0.118
-535.150	267.899	0.063	0.109
-534.135	128.430	0.241	-0.304
-533.121	-74.789	-0.164	0.059
-532.106	-23.488	-0.195	-0.116
-531.091	-119.180	-0.377	0.065
-530.077	9.695	-0.080	0.060
-529.062	-44.593	0.093	-0.046
-528.048	107.776	0.065	-0.076
-527.033	-200.000	-0.249	0.000
-526.018	-19.002	-0.066	0.041
-525.004	-12.280	-0.289	0.187
-523.989	6.509	-0.095	-0.070
-522.975	-26.747	0.088	0.051
-521.960	-200.000	-0.002	-0.116
-520.945	95.651	0.022	0.025
-519.931	277.703	-0.167	0.296
-518.916	-104.798	0.384	0.088
-517.902	-123.405	-0.273	-0.043
-516.887	-200.000	0.004	-0.244
-515.872	-8.278	-0.116	-0.077
-514.858	36.282	-0.176	0.154
-513.843	-128.020	0.205	0.029
-512.829	-200.000	-0.023	-0.170
-511.814	134.609	0.087	0.112
-510.799	-153.823	0.303	-0.021
-509.785	53.296	0.231	0.220
-508.770	110.866	-0.227	0.271
-507.756	-135.587	-0.028	-0.003
-506.741	-38.715	0.096	-0.050
-505.726	-177.264	0.273	-0.007
-504.712	135.219	0.112	-0.144
-503.697	-200.000	-0.010	-0.450
-502.683	-158.134	0.403	-0.023
-501.668	800.000	-0.037	-0.143
-500.653	-95.342	-0.287	0.076
-499.639	-200.000	-0.071	-0.315
-498.624	167.552	0.142	0.201
-497.610	-35.970	0.359	0.193
-496.595	-33.534	-0.367	0.201
-495.581	-200.000	0.019	0.461
-494.566	800.000	0.055	0.185
-493.551	-3.968	-0.045	-0.031
-492.537	-30.374	0.195	-0.110
-491.522	-139.776	-0.423	-0.045
-490.508	-117.415	0.074	0.013
-489.493	183.944	0.034	-0.050
-488.478	4.074	-0.060	0.044
-487.464	148.405	-0.179	-0.239
-486.449	525.943	-0.108	0.252
-485.435	800.000	0.028	0.079
-484.420	678.146	0.084	0.215
-483.405	90.424	0.138	0.153
-482.391	13.528	-0.224	0.172
-481.376	-200.000	-0.003	0.409
-480.362	160.571	-0.128	-0.177
-479.347	800.000	0.021	0.081
-478.332	28.292	-0.166	0.139
-477.318	-82.987	0.085	0.027
-476.303	31.173	-0.303	-0.258
-475.289	-80.919	-0.304	0.100
-474.274	29.343	0.133	0.112
-473.259	-200.000	-0.013	0.170
-472.245	-3.010	0.191	0.132
-471.230	800.000	0.105	-0.292
-470.216	-94.507	-0.243	-0.066
-469.201	-180.327	0.178	0.004
-468.186	110.619	0.130	-0.155
-467.172	-86.716	0.118	-0.036
-466.157	196.528	0.171	-0.258
-465.143	294.241	-0.032	-0.058
-464.128	-61.970	0.112	-0.046
-463.113	-200.000	-0.002	-0.254
-462.099	-48.884	-0.175	0.083
-461.084	476.895	0.063	0.141
-460.070	-200.000	0.045	-0.280
-459.055	34.901	0.095	0.082
-458.040	-113.475	0.098	-0.019
-457.026	-87.163	0.471	0.142
-456.011	112.082	-0.152	0.182
-454.997	-84.019	0.075	-0.023
-453.982	-200.000	-0.011	0.062
-452.968	-47.581	0.106	0.051
-451.953	196.150	0.228	0.343
-450.938	305.662	0.122	0.225
-449.924	-200.000	0.026	0.164
-448.909	209.687	0.357	-0.553
-447.895	-10.148	-0.077	0.050
-446.880	-200.000	-0.050	0.305
-445.865	-131.068	-0.227	-0.030
-444.851	765.940	0.141	0.379
-443.836	337.038	0.160	-0.308
-442.822	-75.393	-0.220	0.078
-441.807	-63.647	0.285	-0.116
-440.792	611.770	0.195	0.483
-439.778	-173.008	-0.151	0.005
-438.763	-150.780	0.304	-0.023
-437.749	50.650	-0.230	0.215
-436.734	-200.000	-0.037	-0.186
-435.719	385.832	0.062	-0.126
-434.705	-200.000	0.031	0.137
-433.690	33.751	-0.071	-0.061
-432.676	171.483	-0.067	-0.095
-431.661	482.390	-0.172	-0.387
-430.646	173.531	0.189	0.270
-429.632	-64.585	0.169	0.068
-428.617	427.506	-0.044	-0.094
-427.603	-200.000	-0.008	-0.078
-426.588	17.118	0.269	-0.211
-425.573	-200.000	-0.027	-0.342
-424.559	-89.328	-0.296	-0.086
-423.544	140.449	-0.141	-0.184
-422.530	-72.127	-0.241	-0.088
-421.515	131.001	-0.228	-0.289
-420.500	51.129	0.322	-0.302
-419.486	-38.988	0.122	0.064
-418.471	-200.000	0.001	-0.106
-417.457	800.000	-0.005	0.014
-416.442	628.120	0.185	0.462
-415.428	262.903	-0.064	0.109
-414.413	83.120	0.174	0.187
-413.398	-200.000	0.017	-0.132
-412.384	261.515	-0.048	0.082
-411.369	12.356	-0.041	-0.032
-410.355	-13.079	0.111	0.071
-409.340	-116.073	0.190	-0.035
-408.325	102.502	0.126	-0.145
-407.311	64.932	-0.092	-0.091
-406.296	555.833	0.106	0.251
-405.282	215.619	-0.049	0.077
-404.267	-200.000	0.008	0.043
-403.252	-5.503	-0.329	0.223
-402.238	-200.000	0.020	0.381
-401.223	11.459	-0.199	0.151
-400.209	-108.211	-0.365	0.078
-399.194	44.415	0.163	0.148
-398.179	-200.000	-0.027	0.191
-397.165	-152.301	-0.046	0.003
-396.150	2.844	0.297	-0.213
-395.136	190.139	-0.055	-0.081
-394.121	-11.411	0.093	-0.061
-393.106	240.912	0.132	-0.217
-392.092	136.190	0.149	-0.192
-391.077	-200.000	-0.017	-0.166
-390.063	-34.649	-0.353	-0.190
-389.048	800.000	-0.055	0.152
-388.033	-76.988	0.237	-0.082
-387.019	-114.099	-0.135	0.026
-386.004	-200.000	-0.024	0.195
-384.990	-166.123	-0.266	0.011
-383.975	671.507	0.114	-0.291
-382.960	681.183	0.055	0.140
-381.946	-76.523	0.028	-0.010
-380.931	-200.000	-0.027	0.249
-379.917	-112.071	0.054	0.011
-378.902	379.520	-0.170	-0.343
-377.888	80.129	0.210	-0.223
-376.873	-39.123	-0.181	-0.094
-375.858	-49.141	-0.288	-0.136
-374.844	46.804	0.333	0.305
-373.829	-147.389	-0.309	0.026
-372.815	-134.541	0.202	-0.024
-371.800	800.000	-0.125	-0.356
-370.785	359.495	0.138	0.271
-369.771	-110.624	-0.138	0.028
-368.756	-160.253	-0.370	-0.020
-367.742	-200.000	0.053	-0.280
-366.727	-121.253	0.493	-0.081
-365.712	-1.100	-0.403	-0.281
-364.698	4.720	-0.149	0.108
-363.683	-47.705	0.350	-0.167
-362.669	17.787	-0.136	0.107
-361.654	-181.833	-0.125	0.002
-360.639	-110.950	0.221	-0.045
-359.625	-200.000	0.022	-0.124
-358.610	-87.250	0.375	-0.112
-357.596	-7.568	0.163	0.109
-356.581	49.178	-0.267	-0.247
-355.566	17.796	-0.115	0.090
-354.552	-97.309	-0.013	0.003
-353.537	800.000	-0.091	0.317
-352.523	44.385	0.199	-0.180
-351.508	-143.162	-0.461	0.044
-350.493	-52.302	-0.049	0.022
-349.479	-0.483	-0.141	0.099
-348.464	-86.689	0.263	0.079
-347.450	88.628	0.170	-0.187
-346.435	9.889	-0.073	-0.055
-345.420	800.000	-0.053	0.215
-344.406	-200.000	0.047	-0.371
-343.391	-46.964	-0.038	-0.018
-342.377	-97.554	-0.318	-0.081
-341.362	-200.000	0.031	-0.181
-340.348	-127.422	0.226	-0.032
-339.333	-200.000	0.037	-0.306
-338.318	-16.098	-0.311	-0.195
-337.304	210.859	-0.158	-0.244
-336.289	114.418	0.248	0.297
-335.275	-164.094	-0.121	-0.006
-334.260	-197.191	-0.214	0.001
-333.245	-123.691	0.159	0.025
-332.231	-67.579	0.166	0.064
-331.216	-200.000	0.052	-0.227
-330.202	-200.000	0.033	-0.265
-329.187	-20.766	-0.128	0.077
-328.172	323.713	-0.131	-0.246
-327.158	-200.000	-0.044	-0.253
-326.143	318.234	-0.205	-0.382
-325.129	-131.512	0.112	0.015
-324.114	-79.899	-0.386	-0.128
-323.099	68.911	-0.140	-0.142
-322.085	459.309	-0.095	-0.209
-321.070	-200.000	-0.005	0.186
-320.056	-200.000	-0.278	-0.000
-319.041	214.312	-0.075	0.118
-318.026	171.223	-0.049	0.069
-317.012	800.000	-0.113	0.350
-315.997	800.000	0.160	0.607
-314.983	29.240	0.260	0.217
-313.968	-86.858	0.251	-0.075
-312.953	-200.000	0.040	-0.322
-311.939	75.928	0.183	-0.191
-310.924	-85.123	-0.177	0.055
-309.910	168.858	0.102	-0.144
-308.895	-200.000	0.049	-0.457
-307.880	-0.478	0.192	0.134
-306.866	-94.421	0.242	-0.065
-305.851	-35.575	-0.280	0.150
-304.837	-200.000	0.016	-0.346
-303.822	-200.000	0.063	0.325
-302.807	-46.668	0.062	0.030
-301.793	505.575	-0.027	-0.061
-300.778	-68.406	-0.179	0.068
-299.764	-34.246	0.398	-0.215
-298.749	37.695	-0.342	-0.298
-297.735	-64.333	0.066	-0.026
-296.720	80.138	-0.101	0.106
-295.705	-200.000	-0.005	0.104
-294.691	368.960	-0.067	0.132
-293.676	800.000	0.060	0.257
-292.662	-89.353	-0.197	0.057
-291.647	258.463	-0.146	0.248
-290.632	593.922	-0.094	0.229
-289.618	291.658	0.185	0.331
-288.603	800.000	0.044	-0.165
-287.589	-129.790	-0.111	0.015
-286.574	800.000	0.088	-0.288
-285.559	-200.000	0.005	-0.460
-284.545	8.944	-0.304	-0.225
-283.530	-200.000	-0.057	0.270
-282.516	31.467	-0.192	0.162
-281.501	-92.381	0.178	-0.049
-280.486	-60.872	0.079	-0.033
-279.472	-103.279	-0.146	0.034
-278.457	800.000	0.072	-0.221
-277.443	68.144	-0.085	0.085
-276.428	-42.007	0.192	0.097
-275.413	-101.579	0.270	-0.064
-274.399	-63.998	0.394	0.158
-273.384	-76.887	-0.118	-0.040
-272.370	11.422	0.244	-0.183
-271.355	146.205	0.229	0.302
-270.340	528.121	0.084	0.194
-269.326	17.122	-0.321	-0.250
-268.311	-200.000	-0.048	-0.263
-267.297	218.630	0.189	0.296
-266.282	-72.045	0.442	0.161
-265.267	-7.723	0.234	-0.156
-264.253	-200.000	0.037	0.179
-263.238	-84.199	-0.268	0.083
-262.224	-200.000	0.016	0.162
-261.209	136.016	0.058	-0.075
-260.195	-37.265	-0.059	0.031
-259.180	76.590	0.214	0.222
-258.165	692.498	0.056	-0.145
-257.151	-104.163	0.019	-0.004
-256.136	19.536	-0.447	0.353
-255.122	800.000	0.058	-0.192
-254.107	-80.171	-0.165	-0.054
-253.092	-171.171	-0.268	-0.009
-252.078	-200.000	0.000	0.144
-251.063	180.939	-0.141	0.204
-250.049	-77.201	0.074	0.025
-249.034	234.710	0.114	-0.184
-248.019	216.566	0.124	-0.193
-247.005	679.414	-0.051	0.131
-245.990	800.000	0.215	0.585
-244.976	800.000	-0.010	-0.035
-243.961	131.824	0.172	-0.218
-242.946	-88.109	0.167	-0.049
-241.932	-200.000	0.003	0.379
-240.917	800.000	-0.024	-0.068
-239.903	-80.294	0.152	-0.050
-238.888	25.643	0.272	0.222
-237.873	89.059	-0.056	0.061
-236.859	515.336	0.026	0.061
-235.844	-200.000	-0.005	-0.359
-234.830	504.191	0.167	0.378
-233.815	-144.001	-0.048	0.004
-232.800	-168.757	0.345	0.013
-231.786	-200.000	0.011	-0.162
-230.771	-99.019	-0.199	0.050
-229.757	-92.877	-0.196	0.054
-228.742	-200.000	0.084	0.377
-227.727	-71.297	-0.164	0.060
-226.713	567.762	-0.062	0.147
-225.698	134.425	-0.175	-0.222
-224.684	-158.819	-0.085	0.005
-223.669	101.145	-0.070	-0.080
-222.655	63.024	0.250	0.245
-221.640	-200.000	0.043	0.328
-220.625	141.374	0.121	-0.156
-219.611	-153.148	-0.086	0.006
-218.596	-200.000	-0.008	0.307
-217.582	-54.565	0.167	-0.074
-216.567	104.106	0.062	0.072
-215.552	190.181	0.110	0.161
-214.538	800.000	-0.039	0.163
-213.523	-200.000	-0.001	0.006
-212.509	169.284	0.077	-0.107
-211.494	-200.000	-0.002	0.026
-210.479	-72.374	0.037	0.014
-209.465	292.505	0.122	-0.217
-208.450	-18.760	0.083	0.050
-207.436	583.743	0.061	-0.147
-206.421	800.000	0.099	0.321
-205.406	-200.000	-0.052	0.250
-204.392	128.903	0.123	0.154
-203.377	-131.991	0.135	-0.017
-202.363	13.652	0.072	0.055
-201.348	-15.932	0.259	0.161
-200.333	350.966	-0.111	-0.215
-199.319	-136.835	-0.091	-0.010
-198.304	-18.543	-0.280	0.171
-197.290	-131.662	0.304	0.039
-196.275	41.413	0.169	-0.150
-195.260	-169.790	-0.156	-0.006
-194.246	308.620	0.120	-0.219
-193.231	800.000	0.014	0.048
-192.217	-7.295	0.064	0.043
-191.202	-28.853	-0.269	0.152
-190.187	20.328	0.157	0.124
-189.173	-200.000	0.022	-0.251
-188.158	-187.503	-0.205	0.003
-187.144	155.967	0.207	0.279
-186.129	-200.000	0.002	0.127
-185.114	-200.000	0.009	-0.279
-184.100	452.373	-0.087	-0.188
-183.085	75.459	0.176	-0.182
-182.071	-48.590	-0.128	-0.060
-181.056	-85.634	0.281	0.086
-180.042	-49.500	0.240	-0.112
-179.027	162.745	-0.059	0.081
-178.012	-61.811	0.128	0.053
-176.998	800.000	-0.072	0.231
-175.983	148.883	-0.190	0.252
-174.969	-140.879	0.233	-0.023
-173.954	38.895	-0.245	0.214
-172.939	-119.730	0.101	-0.017
-171.925	-89.952	0.145	-0.042
-170.910	-43.670	-0.137	-0.068
-169.896	-200.000	0.002	-0.150
-168.881	233.841	0.039	0.063
-167.866	-200.000	0.003	-0.201
-166.852	157.505	-0.081	-0.109
-165.837	328.124	-0.149	-0.279
-164.823	490.412	-0.074	-0.165
-163.808	-89.857	-0.097	-0.028
-162.793	-7.961	0.180	-0.119
-161.779	586.387	0.041	-0.098
-160.764	19.583	-0.067	0.053
-159.750	-116.385	-0.216	-0.039
-158.735	800.000	-0.114	0.314
-157.720	-200.000	0.037	0.244
-156.706	-200.000	-0.023	-0.154
-155.691	-50.735	-0.097	-0.044
-154.677	-153.605	0.225	-0.015
-153.662	-19.175	-0.114	-0.069
-152.647	111.396	-0.242	0.285
-151.633	-32.180	0.275	-0.150
-150.618	183.300	0.208	-0.300
-149.604	342.494	0.084	0.160
-148.589	264.641	-0.093	-0.158
-147.574	-48.093	0.084	-0.039
-146.560	-135.705	-0.234	0.027
-145.545	-84.373	-0.287	-0.089
-144.531	141.682	-0.096	0.124
-143.516	-200.000	-0.035	-0.249
-142.502	-47.877	0.230	0.109
-141.487	231.881	-0.119	-0.191
-140.472	44.569	-0.202	-0.181
-139.458	-105.289	0.252	0.056
-138.443	-127.278	0.176	-0.025
-137.429	76.924	-0.208	0.215
-136.414	-66.999	0.164	0.063
-135.399	-89.554	0.205	0.059
-134.385	800.000	0.104	0.327
-133.370	8.951	0.127	0.094
-132.356	-83.316	0.148	0.046
-131.341	-35.423	-0.273	0.145
-130.326	-200.000	-0.007	-0.425
-129.312	147.167	-0.214	0.282
-128.297	-28.137	0.301	0.170
-127.283	46.939	-0.169	-0.153
-126.268	180.285	-0.142	-0.203
-125.253	108.901	0.135	0.158
-124.239	-68.410	0.146	-0.055
-123.224	37.578	-0.029	-0.025
-122.210	800.000	-0.031	-0.127
-121.195	653.365	-0.050	-0.126
-120.180	800.000	0.040	0.127
-119.166	800.000	0.120	0.393
-118.151	-127.085	0.143	0.020
-117.137	-19.624	-0.064	0.038
-116.122	-25.332	-0.095	-0.055
-115.107	286.373	0.003	0.006
-114.093	-141.163	0.446	0.044
-113.078	-200.000	-0.032	0.144
-112.064	-75.724	0.374	-0.129
-111.049	340.663	0.043	0.081
-110.034	-66.946	-0.272	0.105
-109.020	263.325	-0.072	0.122
-108.005	-16.780	-0.161	0.099
-106.991	-200.000	-0.052	0.362
-105.976	800.000	0.011	0.042
-104.962	243.326	0.047	0.077
-103.947	277.994	0.094	0.164
-102.932	-59.498	-0.178	-0.074
-101.918	-200.000	0.015	-0.107
-100.903	-94.237	0.094	0.025
-99.889	-33.349	0.132	0.071
-98.874	525.221	0.183	0.420
-97.859	800.000	-0.111	0.330
-96.845	-117.290	-0.166	-0.029
-95.830	7.307	-0.077	0.056
-94.816	800.000	0.093	0.340
-93.801	178.831	0.355	0.506
-92.786	-87.648	0.139	0.041
-91.772	-126.374	0.042	0.006
-90.757	-200.000	0.014	-0.262
-89.743	133.708	-0.251	0.317
-88.728	-34.446	0.218	0.116
-87.713	-163.775	-0.158	0.007
-86.699	-79.417	0.182	0.060
-85.684	800.000	-0.039	0.143
-84.670	411.995	-0.068	0.141
-83.655	-36.888	0.435	0.228
-82.640	201.896	-0.240	-0.361
-81.626	-143.850	-0.127	0.012
-80.611	-124.181	0.340	0.052
-79.597	95.378	0.031	-0.034
-78.582	-144.385	0.351	0.032
-77.567	800.000	0.020	0.076
-76.553	-11.161	-0.354	-0.228
-75.538	-111.679	-0.058	0.012
-74.524	10.852	-0.124	-0.092
-73.509	800.000	-0.037	-0.153
-72.494	-200.000	-0.062	0.311
-71.480	-200.000	0.060	0.385
-70.465	161.979	0.170	0.232
-69.451	-200.000	0.039	0.177
-68.436	105.533	0.180	0.207
-67.422	71.970	0.066	-0.067
-66.407	568.183	-0.059	-0.140
-65.392	800.000	-0.089	-0.321
-64.378	-126.282	0.194	-0.028
-63.363	155.918	-0.156	0.210
-62.349	800.000	0.046	0.127
-61.334	57.683	-1.398	-1.332
-60.319	107.550	0.631	0.731
-59.305	461.508	-0.482	-1.046
-58.290	800.000	0.477	1.651
-57.276	800.000	0.490	1.374
-56.261	-200.000	124.166	635.380
-55.246	389.317	1581.419	3190.473
-54.232	139.439	2758.793	3535.839
-53.217	93.317	2208.573	2432.939
-52.203	33.533	1718.760	1454.061
-51.188	25.674	1535.202	1244.611
-50.173	23.782	1511.140	1212.163
-49.159	47.825	1581.891	1438.067
-48.144	45.173	1594.325	1430.767
-47.130	25.807	1544.043	1252.507
-46.115	22.991	1527.609	1219.721
-45.100	22.860	1524.226	1216.073
-44.086	22.898	1521.843	1214.383
-43.071	22.791	1520.419	1212.465
-42.057	22.679	1519.031	1210.535
-41.042	22.641	1517.603	1209.091
-40.027	22.726	1515.395	1207.869
-39.013	22.723	1514.267	1206.900
-37.998	22.790	1512.826	1206.161
-36.984	22.742	1511.776	1204.949
-35.969	22.757	1510.396	1203.901
-34.954	22.731	1508.597	1202.241
-33.940	22.696	1507.014	1200.695
-32.925	22.640	1506.097	1199.533
-31.911	22.701	1504.637	1198.737
-30.896	22.655	1503.714	1197.646
-29.881	22.800	1502.495	1197.611
-28.867	22.745	1500.760	1195.807
-27.852	22.697	1499.626	1194.529
-26.838	22.757	1498.007	1193.603
-25.823	22.747	1496.632	1192.389
-24.809	22.811	1494.930	1191.421
-23.794	22.695	1493.637	1189.556
-22.779	22.807	1491.982	1188.946
-21.765	22.673	1491.272	1187.429
-20.750	22.815	1489.990	1187.319
-19.736	22.716	1488.836	1185.687
-18.721	22.738	1488.038	1185.154
-17.706	22.781	1486.435	1184.114
-16.692	22.760	1485.664	1183.318
-15.677	22.703	1484.704	1182.125
-14.663	22.653	1483.938	1181.129
-13.648	22.617	1483.329	1180.359
-12.633	22.708	1482.107	1179.949
-11.619	22.775	1480.790	1179.302
-10.604	22.658	1480.252	1178.040
-9.590	22.744	1479.316	1177.822
-8.575	22.691	1478.062	1176.426
-7.560	22.709	1477.455	1176.017
-6.546	22.756	1476.390	1175.434
-5.531	22.672	1475.734	1174.306
-4.517	22.629	1474.702	1173.156
-3.502	22.688	1473.387	1172.455
-2.487	22.816	1472.576	1172.612
-1.473	22.720	1471.925	1171.406
-0.458	22.683	1470.694	1170.139
0.556	21.678	1460.655	1160.269
1.571	19.052	1437.494	1124.632
2.586	16.318	1375.196	1058.677
3.600	14.988	1291.169	986.071
4.615	14.021	1247.231	946.921
5.629	12.178	1190.488	893.729
6.644	6.104	1107.570	800.543
7.659	1.495	1071.235	751.467
8.673	0.727	1066.117	744.034
9.688	0.570	1062.936	740.975
10.702	0.555	1061.568	739.884
11.717	0.608	1058.825	738.165
12.731	2.517	1060.010	748.260
13.746	8.593	1067.898	783.595
14.761	14.433	1076.151	818.336
15.775	16.990	1078.724	832.785
16.790	16.801	1077.856	831.117
17.804	15.895	1075.400	824.713
18.819	15.121	1073.453	819.362
19.834	14.619	1072.095	815.799
20.848	14.332	1070.821	813.354
21.863	14.003	1070.664	811.556
22.877	13.820	1069.570	809.766
23.892	13.513	1069.363	808.036
24.907	13.548	1067.811	806.966
25.921	13.427	1067.037	805.718
26.936	13.633	1066.759	806.439
27.950	13.567	1066.088	805.541
28.965	13.647	1065.379	805.323
29.980	13.654	1064.474	804.603
30.994	13.773	1063.067	804.043
32.009	13.758	1062.436	803.420
33.023	13.745	1062.017	802.972
34.038	13.675	1061.413	802.105
35.053	13.656	1060.127	800.970
36.067	13.558	1058.983	799.564
37.082	13.740	1058.119	799.717
38.096	13.543	1057.814	798.465
39.111	13.794	1056.551	798.651
40.126	13.730	1055.904	797.785
41.140	13.706	1054.643	796.643
42.155	13.513	1053.883	795.071
43.169	13.633	1052.633	794.633
44.184	13.516	1051.951	793.490
45.199	13.439	1051.052	792.373
46.213	13.496	1049.569	791.459
47.228	13.669	1048.655	791.524
48.242	13.733	1046.987	790.499
49.257	13.642	1046.619	789.716
50.271	13.647	1045.709	788.986
51.286	13.650	1044.702	788.172
52.301	13.712	1043.922	787.805
53.315	13.652	1043.018	786.769
54.330	13.793	1041.900	786.526
55.344	13.584	1041.567	785.214
56.359	13.646	1040.126	784.352
57.374	13.669	1039.443	783.877
58.388	13.668	1038.481	783.076
59.403	13.575	1037.575	781.885
60.417	13.542	1036.871	781.131
61.432	13.545	1036.428	780.741
62.447	13.530	1035.381	779.812
63.461	13.544	1034.340	779.027
64.476	13.556	1033.277	778.213
65.490	13.592	1032.747	777.913
66.505	13.472	1031.851	776.604
67.520	13.534	1031.319	776.428
68.534	13.662	1030.495	776.338
69.549	13.611	1029.089	774.972
70.563	13.524	1029.065	774.480
71.578	13.604	1028.051	774.022
72.593	13.493	1027.567	773.070
73.607	13.511	1026.448	772.242
74.622	13.573	1025.441	771.707
75.636	13.496	1024.416	770.510
76.651	13.551	1023.831	770.254
77.666	13.446	1023.112	769.159
78.680	13.539	1021.700	768.461
79.695	13.545	1021.722	768.435
80.709	13.479	1020.972	767.497
81.724	13.684	1019.812	767.510
82.739	13.717	1019.032	767.008
83.753	13.756	1018.260	766.540
84.768	13.708	1017.444	765.636
85.782	13.765	1016.836	765.370
86.797	13.698	1016.116	764.455
87.812	13.743	1015.250	763.940
88.826	13.837	1014.427	763.688
89.841	13.660	1013.768	762.311
90.855	13.660	1012.672	761.417
91.870	13.713	1012.303	761.318
92.884	13.788	1011.206	760.769
93.899	13.682	1010.791	759.903
94.914	13.852	1009.566	759.692
95.928	13.622	1009.857	758.790
96.943	13.794	1008.483	758.477
97.957	13.814	1007.680	757.899
98.972	13.842	1006.396	756.992
99.987	13.898	1005.950	756.847
101.001	13.808	1005.314	755.889
102.016	13.847	1004.788	755.607
103.030	13.831	1003.458	754.467
104.045	13.784	1002.727	753.639
105.060	13.891	1001.492	753.126
106.074	13.866	1000.749	752.386
107.089	13.729	999.999	751.138
108.103	13.659	999.082	750.066
109.118	13.678	998.369	749.549
110.133	13.669	997.480	748.775
111.147	13.612	996.769	747.919
112.162	13.646	996.019	747.441
113.176	13.673	994.871	746.636
114.191	13.713	993.919	746.035
115.206	13.772	992.929	745.490
116.220	13.748	992.516	745.006
117.235	13.752	991.149	743.933
118.249	13.824	990.124	743.420
119.264	13.776	989.308	742.527
120.279	13.712	988.671	741.698
121.293	13.591	988.113	740.671
122.308	13.637	987.373	740.260
123.322	13.618	986.449	739.414
124.337	13.717	985.402	739.006
125.352	13.684	984.415	738.051
126.366	13.752	983.237	737.407
127.381	13.807	981.782	736.496
128.395	13.709	981.247	735.593
129.410	13.545	980.386	734.158
130.424	13.802	979.198	734.338
131.439	13.693	978.352	733.159
132.454	13.703	977.492	732.492
133.468	13.715	976.658	731.855
134.483	13.702	976.090	731.309
135.497	13.809	975.190	731.039
136.512	13.775	974.487	730.297
137.527	13.784	973.934	729.861
138.541	13.764	972.814	728.869
139.556	13.764	972.385	728.483
140.570	13.666	971.835	727.575
141.585	13.823	970.948	727.534
142.600	13.923	969.892	727.120
143.614	13.931	969.046	726.452
144.629	13.875	968.680	725.873
145.643	13.977	967.825	725.612
146.658	13.955	966.761	724.655
147.673	13.966	965.789	723.908
148.687	14.002	964.768	723.234
149.702	13.923	964.164	722.374
150.716	13.911	963.438	721.716
151.731	13.868	962.499	720.762
152.746	13.843	962.040	720.245
153.760	13.970	960.646	719.689
154.775	13.908	960.085	718.936
155.789	13.971	959.349	718.593
156.804	14.045	958.709	718.373
157.819	14.004	957.789	717.441
158.833	14.011	957.127	716.911
159.848	13.995	956.514	716.322
160.862	14.022	956.138	716.094
161.877	13.977	955.071	715.037
162.892	13.934	954.286	714.198
163.906	13.970	953.288	713.544
164.921	13.977	952.591	712.990
165.935	13.992	951.886	712.465
166.950	13.945	950.592	711.232
167.964	14.089	949.988	711.333
168.979	14.027	949.000	710.265
169.994	13.941	947.824	708.954
171.008	14.040	946.936	708.647
172.023	14.113	946.033	708.221
173.037	14.070	945.630	707.673
174.052	14.132	944.636	707.132
175.067	14.161	943.815	706.576
176.081	14.209	943.158	706.227
177.096	14.122	942.672	705.432
178.110	14.208	941.251	704.672
179.125	14.175	940.545	703.938
180.140	14.264	940.141	703.952
181.154	14.176	939.375	702.942
182.169	14.262	938.672	702.718
183.183	14.196	938.163	701.995
184.198	14.282	937.393	701.721
185.213	14.185	936.952	700.919
186.227	14.281	936.153	700.666
187.242	14.197	935.764	699.958
188.256	14.394	934.930	700.098
189.271	14.334	934.343	699.344
190.286	14.415	933.276	698.823
191.300	14.290	932.801	697.882
192.315	14.223	931.999	696.941
193.329	14.238	931.052	696.233
194.344	14.142	930.684	695.497
195.359	14.348	930.111	695.869
196.373	14.325	929.434	695.202
197.388	14.274	929.346	694.865
198.402	14.364	928.451	694.506
199.417	14.401	928.443	694.593
200.432	14.448	927.423	693.967
201.446	14.552	926.960	693.992
202.461	14.516	926.831	693.682
203.475	14.644	926.112	693.615
204.490	14.599	925.431	692.857
205.504	14.459	925.059	691.938
206.519	14.434	923.825	690.849
207.534	14.603	923.169	690.997
208.548	14.478	922.241	689.724
209.563	14.563	921.603	689.538
210.577	14.557	921.158	689.116
211.592	14.475	920.427	688.173
212.607	14.551	919.984	688.095
213.621	14.627	919.004	687.614
214.636	14.699	918.600	687.544
215.650	14.686	917.694	686.752
216.665	14.779	916.967	686.530
217.680	14.777	916.766	686.309
218.694	14.809	916.490	686.174
219.709	14.844	915.729	685.688
220.723	14.752	915.005	684.707
221.738	14.669	914.259	683.748
222.753	14.763	913.399	683.432
223.767	14.820	912.867	683.206
224.782	14.771	912.098	682.370
225.796	14.955	910.909	682.168
226.811	14.900	910.796	681.799
227.826	14.969	910.029	681.448
228.840	14.937	908.988	680.476
229.855	14.952	908.588	680.177
230.869	14.847	908.052	679.291
231.884	14.825	907.790	678.945
232.899	14.863	906.645	678.182
233.913	14.885	905.667	677.481
234.928	14.797	905.575	676.994
235.942	14.909	904.551	676.620
236.957	14.904	903.714	675.917
237.972	14.919	903.273	675.586
238.986	14.884	902.829	675.055
240.001	14.890	902.200	674.548
241.015	15.085	900.844	674.260
242.030	15.052	900.550	673.846
243.045	14.946	899.855	672.839
244.059	15.127	898.958	672.838
245.074	15.097	898.924	672.633
246.088	15.152	897.771	671.932
247.103	15.064	897.409	671.250
248.117	15.178	896.592	671.034
249.132	15.077	896.194	670.274
250.147	15.178	895.808	670.330
251.161	15.148	895.058	669.590
252.176	15.175	894.145	668.956
253.190	15.316	893.747	669.162
254.205	15.354	893.204	668.847
255.220	15.406	892.455	668.433
256.234	15.285	891.717	667.341
257.249	15.406	891.007	667.231
258.263	15.517	890.263	667.053
259.278	15.325	889.760	665.856
260.293	15.616	889.073	666.436
261.307	15.523	888.528	665.602
262.322	15.543	888.271	665.430
263.336	15.485	887.534	664.587
264.351	15.547	886.763	664.196
265.366	15.536	886.393	663.820
266.380	15.729	885.262	663.674
267.395	15.647	884.524	662.739
268.409	15.642	884.074	662.323
269.424	15.670	883.135	661.674
270.439	15.583	882.970	661.146
271.453	15.509	881.607	659.778
272.468	15.593	881.334	659.847
273.482	15.571	880.778	659.285
274.497	15.691	879.895	659.034
275.512	15.814	879.384	659.076
276.526	15.674	878.588	657.873
277.541	15.600	877.702	656.861
278.555	15.752	877.204	657.024
279.570	15.789	876.418	656.522
280.585	15.860	876.093	656.496
281.599	15.775	875.614	655.748
282.614	15.813	874.823	655.248
283.628	15.830	873.964	654.613
284.643	15.947	873.418	654.600
285.657	15.830	873.197	653.921
286.672	15.837	872.823	653.609
287.687	15.881	872.052	653.146
288.701	15.892	871.660	652.839
289.716	15.839	871.063	652.127
290.730	15.958	870.526	652.128
291.745	15.952	869.754	651.470
292.760	15.986	869.055	651.021
293.774	15.958	868.291	650.282
294.789	16.132	867.039	649.957
295.803	15.964	867.148	649.335
296.818	16.046	866.378	649.016
297.833	16.162	865.436	648.700
298.847	16.121	864.694	647.925
299.862	15.956	864.487	647.081
300.876	16.077	864.121	647.216
301.891	16.175	862.891	646.612
302.906	16.088	862.471	645.906
303.920	16.158	862.138	645.866
304.935	16.156	861.254	645.141
305.949	16.129	861.174	644.920
306.964	16.218	860.388	644.614
307.979	16.209	859.584	643.921
308.993	16.373	858.745	643.861
310.008	16.359	858.002	643.195
311.022	16.415	857.832	643.223
312.037	16.368	857.089	642.428
313.052	16.404	856.854	642.334
314.066	16.301	856.169	641.372
315.081	16.324	855.803	641.126
316.095	16.319	854.733	640.253
317.110	16.353	854.448	640.108
318.125	16.355	853.732	639.522
319.139	16.418	853.240	639.339
320.154	16.272	853.166	638.672
321.168	16.233	852.444	637.930
322.183	16.345	851.958	637.932
323.197	16.353	851.359	637.455
324.212	16.462	850.741	637.349
325.227	16.541	850.298	637.256
326.241	16.442	849.840	636.486
327.256	16.434	849.155	635.884
328.270	16.507	848.596	635.686
329.285	16.420	847.873	634.761
330.300	16.506	847.171	634.503
331.314	16.413	846.999	633.967
332.329	16.664	846.241	634.286
333.343	16.430	845.742	632.980
334.358	16.629	845.052	633.150
335.373	16.613	844.669	632.749
336.387	16.614	844.276	632.403
337.402	16.609	843.612	631.828
338.416	16.541	843.230	631.233
339.431	16.698	842.505	631.222
340.446	16.879	841.495	631.080
341.460	16.726	840.897	630.009
342.475	16.842	840.508	630.093
343.489	16.762	840.449	629.695
344.504	16.860	839.582	629.352
345.519	16.833	839.002	628.764
346.533	16.956	838.444	628.745
347.548	16.904	837.982	628.151
348.562	16.963	837.386	627.867
349.577	16.959	836.918	627.447
350.592	16.797	836.609	626.560
351.606	16.772	836.127	626.049
352.621	16.715	835.684	625.454
353.635	16.862	834.975	625.410
354.650	16.881	834.833	625.319
355.665	16.881	834.217	624.801
356.679	17.021	833.640	624.830
357.694	17.010	833.174	624.384
358.708	16.853	832.886	623.534
359.723	16.850	832.121	622.898
360.738	16.916	831.161	622.365
361.752	17.063	830.535	622.381
362.767	17.011	830.360	622.005
363.781	17.081	830.349	622.197
364.796	17.105	829.535	621.619
365.810	17.287	829.022	621.847
366.825	17.196	828.602	621.144
367.840	17.062	828.900	620.822
368.854	17.222	828.028	620.699
369.869	17.142	827.771	620.159
370.883	17.295	826.946	620.042
371.898	17.256	826.207	619.294
372.913	17.300	825.590	618.935
373.927	17.394	824.650	618.516
374.942	17.139	824.502	617.425
375.956	17.280	824.027	617.527
376.971	17.321	823.208	617.006
377.986	17.230	823.046	616.501
379.000	17.371	822.356	616.440
380.015	17.389	822.033	616.208
381.029	17.356	821.446	615.596
382.044	17.542	820.611	615.586
383.059	17.469	819.963	614.784
384.073	17.556	819.373	614.599
385.088	17.452	819.268	614.093
386.102	17.358	818.788	613.339
387.117	17.530	817.826	613.183
388.132	17.467	817.678	612.793
389.146	17.502	817.323	612.595
390.161	17.665	816.509	612.518
391.175	17.533	816.506	611.989
392.190	17.609	815.942	611.785
393.205	17.622	815.393	611.364
394.219	17.621	814.868	610.914
395.234	17.551	814.562	610.378
396.248	17.581	814.134	610.111
397.263	17.501	813.724	609.464
398.278	17.578	813.145	609.251
399.292	17.461	812.778	608.504
400.307	17.398	812.433	607.967
401.321	17.666	811.706	608.326
402.336	17.472	811.713	607.586
403.350	17.649	810.999	607.629
404.365	17.746	810.357	607.440
405.380	17.729	810.015	607.069
406.394	17.682	809.662	606.584
407.409	17.789	809.224	606.583
408.423	17.769	809.068	606.339
409.438	17.847	808.365	606.035
410.453	17.764	808.323	605.658
411.467	17.858	807.612	605.403
412.482	17.788	807.076	604.699
413.496	17.847	806.423	604.366
414.511	17.856	806.138	604.132
415.526	17.801	805.885	603.694
416.540	18.023	805.310	603.995
417.555	17.967	804.871	603.414
418.569	18.020	804.292	603.114
419.584	18.041	803.716	602.704
420.599	18.039	803.187	602.246
421.613	114.741	1298.298	1488.667
422.628	99.062	1370.407	1488.780
