DTS Sentinel unit serial number:	SN413079Multiplexer serial number:	ORYXHardware model number:	OX4-SRSoftware version number:	ORYX F/W v4.00 Oryx Data Collector v3.7.2.0data status	okinstallation	princeton_trtdifferential loss correction	single-endedforward channel	channel 3reverse channel	N/Adate	2019/09/12time	14:10:11forward acquisition time	60.00reverse acquisition time	0.00gamma	496.2192k internal	0.2294k external	0.2294temperature offset calibration	1.0049default loss term (dB/km)	0.3790temperature slope calibration	1.0000multiplexer offset coefficient	1.0000multiplexer slope coefficient	1.0000fibre end	0.00T internal ref (°C)	40.37T ext. ref 1 (°C)	2.22T ext. ref 2 (°C)	35.74length (m)	temperature (°C)	Stokes	anti-Stokes-747.200	-27.095	-0.109	0.065
-746.185	-200.000	-0.034	0.365
-745.171	-73.652	-0.261	0.097
-744.156	800.000	-0.135	0.494
-743.142	580.724	0.109	-0.272
-742.127	285.982	-0.090	0.166
-741.112	12.100	0.167	-0.131
-740.098	-200.000	-0.000	0.261
-739.083	-43.756	-0.116	-0.060
-738.069	299.545	-0.142	0.267
-737.054	48.782	-0.139	0.134
-736.039	-38.607	-0.219	-0.118
-735.025	1.407	-0.082	-0.060
-734.010	-200.000	-0.019	0.103
-732.996	117.510	-0.130	-0.163
-731.981	393.635	-0.066	-0.140
-730.966	-47.437	0.159	0.079
-729.952	41.297	-0.088	0.082
-728.937	-200.000	0.003	0.156
-727.923	-200.000	0.023	-0.206
-726.908	-101.822	-0.150	-0.037
-725.894	-77.628	-0.144	0.051
-724.879	-200.000	-0.004	0.047
-723.864	735.939	-0.060	0.163
-722.850	-59.632	-0.166	-0.073
-721.835	-200.000	0.003	-0.242
-720.821	-38.406	-0.114	-0.062
-719.806	-200.000	-0.003	0.085
-718.791	-92.754	-0.252	-0.072
-717.777	800.000	-0.029	-0.085
-716.762	-99.506	-0.129	-0.033
-715.748	29.338	0.063	0.054
-714.733	223.606	0.119	-0.196
-713.718	-32.452	-0.214	-0.122
-712.704	224.693	0.139	0.230
-711.689	229.536	-0.076	0.127
-710.675	-200.000	-0.047	-0.243
-709.660	-147.377	0.093	-0.008
-708.645	-88.220	0.115	-0.035
-707.631	36.956	-0.065	0.058
-706.616	-43.470	-0.095	0.049
-705.602	-173.964	0.197	-0.006
-704.587	161.136	0.172	-0.245
-703.572	-94.118	-0.120	0.034
-702.558	115.827	-0.008	0.010
-701.543	153.996	0.103	-0.144
-700.529	-91.374	-0.270	0.079
-699.514	-132.107	0.166	-0.022
-698.499	-117.112	-0.169	0.031
-697.485	-200.000	0.056	0.259
-696.470	250.247	-0.137	0.237
-695.456	493.511	0.163	-0.381
-694.441	800.000	0.066	-0.231
-693.426	-200.000	-0.008	0.158
-692.412	-16.575	-0.079	0.051
-691.397	94.122	-0.141	-0.163
-690.383	800.000	-0.075	0.219
-689.368	-114.333	0.300	-0.059
-688.354	-151.098	-0.352	0.027
-687.339	800.000	-0.086	0.296
-686.324	-200.000	0.034	-0.367
-685.310	-200.000	-0.024	0.163
-684.295	-100.283	0.166	0.042
-683.281	10.726	-0.272	0.212
-682.266	-92.118	0.176	-0.051
-681.251	42.615	0.176	-0.164
-680.237	800.000	-0.106	0.359
-679.222	-200.000	0.054	-0.257
-678.208	-8.720	-0.122	0.084
-677.193	-153.979	0.233	-0.016
-676.178	74.254	-0.099	0.106
-675.164	34.019	0.295	0.262
-674.149	-87.746	0.334	0.103
-673.135	800.000	0.016	-0.062
-672.120	-144.966	0.474	-0.044
-671.105	219.009	-0.174	-0.284
-670.091	133.453	-0.182	0.240
-669.076	-166.367	-0.350	0.015
-668.062	-99.443	-0.114	0.029
-667.047	53.410	-0.185	-0.181
-666.032	-108.063	-0.246	-0.055
-665.018	-50.960	-0.231	-0.110
-664.003	800.000	-0.030	-0.105
-662.989	-200.000	-0.000	0.023
-661.974	-102.478	-0.143	0.035
-660.959	11.088	-0.208	-0.162
-659.945	-103.229	-0.119	0.029
-658.930	72.391	-0.221	-0.235
-657.916	-36.539	-0.131	0.072
-656.901	-19.705	-0.057	-0.036
-655.886	-135.822	0.086	0.010
-654.872	800.000	0.053	-0.192
-653.857	100.820	-0.257	-0.304
-652.843	224.613	-0.110	0.182
-651.828	60.276	-0.151	-0.153
-650.814	-108.908	-0.207	-0.045
-649.799	-200.000	0.016	-0.086
-648.784	800.000	-0.085	0.263
-647.770	800.000	0.069	-0.233
-646.755	-148.419	-0.277	0.023
-645.741	800.000	-0.031	0.114
-644.726	-96.414	-0.284	-0.076
-643.711	243.292	0.038	0.064
-642.697	-136.236	-0.196	0.023
-641.682	-173.394	-0.167	0.005
-640.668	-106.553	-0.213	0.048
-639.653	-200.000	-0.024	-0.234
-638.638	92.633	0.213	0.245
-637.624	-155.664	-0.120	0.008
-636.609	-200.000	0.030	0.152
-635.595	13.939	-0.241	-0.191
-634.580	-85.295	0.102	-0.032
-633.565	208.892	0.052	-0.082
-632.551	235.713	-0.080	0.134
-631.536	-103.760	-0.337	-0.080
-630.522	-101.109	-0.062	0.016
-629.507	800.000	-0.023	0.097
-628.492	40.694	0.150	0.137
-627.478	-94.231	-0.285	0.079
-626.463	624.561	-0.077	-0.197
-625.449	25.170	-0.056	-0.048
-624.434	-200.000	0.016	0.129
-623.419	605.594	0.042	0.108
-622.405	76.839	0.080	0.086
-621.390	62.592	0.125	-0.128
-620.376	-139.366	-0.072	0.008
-619.361	-200.000	0.001	0.474
-618.346	-6.551	0.125	0.087
-617.332	266.010	0.128	-0.228
-616.317	-63.856	-0.112	-0.047
-615.303	392.479	-0.017	-0.035
-614.288	98.768	0.176	-0.206
-613.273	800.000	-0.072	-0.223
-612.259	96.391	0.205	0.238
-611.244	-149.491	-0.272	0.022
-610.230	-166.697	0.292	-0.012
-609.215	-126.683	0.242	0.036
-608.201	-57.820	0.292	-0.130
-607.186	121.093	0.010	-0.012
-606.171	33.798	-0.029	-0.025
-605.157	800.000	-0.152	-0.473
-604.142	-200.000	-0.010	-0.256
-603.128	169.309	-0.152	-0.221
-602.113	4.673	0.257	-0.192
-601.098	516.355	-0.058	-0.138
-600.084	245.398	-0.050	-0.086
-599.069	-64.202	0.045	0.018
-598.055	21.226	0.253	0.209
-597.040	800.000	-0.083	0.298
-596.025	800.000	0.063	0.248
-595.011	-104.269	-0.141	0.033
-593.996	129.191	-0.157	0.204
-592.982	-200.000	0.034	0.178
-591.967	-34.404	0.061	-0.034
-590.952	-200.000	-0.058	-0.338
-589.938	146.279	-0.103	-0.141
-588.923	-200.000	-0.006	0.228
-587.909	-123.331	-0.192	-0.031
-586.894	236.298	-0.057	-0.096
-585.879	-200.000	0.022	-0.226
-584.865	26.781	-0.092	-0.078
-583.850	697.746	0.126	-0.336
-582.836	112.522	0.096	0.118
-581.821	-200.000	0.053	0.287
-580.806	-101.860	0.039	-0.010
-579.792	-155.138	-0.089	-0.006
-578.777	-19.184	-0.365	-0.230
-577.763	126.785	-0.136	-0.175
-576.748	190.532	0.078	-0.120
-575.733	-170.552	-0.097	0.003
-574.719	-62.172	-0.032	-0.013
-573.704	-109.181	0.294	-0.064
-572.690	6.186	-0.184	0.138
-571.675	-45.556	-0.073	-0.037
-570.661	800.000	0.077	0.274
-569.646	-200.000	-0.009	-0.080
-568.631	204.534	0.033	-0.052
-567.617	-148.400	0.280	-0.023
-566.602	800.000	0.089	0.330
-565.588	246.299	-0.095	-0.162
-564.573	-50.408	-0.302	-0.145
-563.558	-200.000	0.020	0.136
-562.544	-160.555	0.313	-0.017
-561.529	-10.320	0.125	0.084
-560.515	34.669	0.176	-0.156
-559.500	800.000	-0.050	0.195
-558.485	-200.000	-0.035	0.166
-557.471	-8.769	-0.163	-0.111
-556.456	188.160	0.091	0.138
-555.442	327.975	-0.055	-0.107
-554.427	64.573	0.118	-0.120
-553.412	302.533	0.273	0.512
-552.398	-110.672	0.105	0.022
-551.383	-200.000	-0.002	0.030
-550.369	53.521	0.065	-0.063
-549.354	57.126	0.086	-0.085
-548.339	800.000	-0.108	-0.341
-547.325	183.580	0.091	0.136
-546.310	-127.718	0.110	-0.016
-545.296	530.176	0.136	0.326
-544.281	-146.424	-0.179	0.016
-543.266	-200.000	0.002	0.098
-542.252	-144.649	-0.282	0.026
-541.237	800.000	-0.024	-0.088
-540.223	-200.000	0.003	-0.235
-539.208	800.000	-0.067	-0.217
-538.193	800.000	0.096	-0.351
-537.179	-103.118	-0.323	-0.077
-536.164	-64.928	0.389	-0.160
-535.150	439.772	0.076	-0.168
-534.135	800.000	-0.050	-0.167
-533.121	-132.850	-0.337	-0.044
-532.106	-124.386	-0.303	0.048
-531.091	-200.000	-0.010	-0.066
-530.077	-93.051	0.336	0.095
-529.062	800.000	0.073	0.290
-528.048	-200.000	0.015	-0.165
-527.033	-162.672	-0.328	-0.016
-526.018	164.502	-0.240	-0.344
-525.004	-200.000	0.012	0.218
-523.989	383.742	0.047	-0.098
-522.975	-200.000	-0.013	-0.280
-521.960	-98.370	0.120	-0.031
-520.945	-137.707	0.393	0.045
-519.931	48.333	0.033	-0.032
-518.916	-12.185	0.249	0.165
-517.902	559.905	0.065	0.160
-516.887	800.000	0.088	-0.283
-515.872	-128.285	0.031	-0.004
-514.858	-188.128	-0.492	-0.006
-513.843	-61.072	0.135	0.058
-512.829	99.586	-0.216	0.254
-511.814	251.656	0.029	-0.050
-510.799	555.531	0.095	-0.232
-509.785	59.068	-0.042	-0.042
-508.770	129.162	-0.177	0.229
-507.756	800.000	0.038	-0.141
-506.741	-25.792	0.205	-0.123
-505.726	107.482	0.229	0.276
-504.712	800.000	-0.124	-0.368
-503.697	-28.882	-0.189	-0.110
-502.683	-191.696	0.148	-0.001
-501.668	-69.723	-0.219	-0.085
-500.653	23.559	-0.083	-0.069
-499.639	133.722	0.093	-0.122
-498.624	-72.312	-0.116	0.043
-497.610	244.658	-0.221	0.376
-496.595	-74.088	0.180	-0.066
-495.581	-200.000	-0.021	-0.292
-494.566	-200.000	-0.010	0.188
-493.551	-55.093	-0.080	-0.036
-492.537	-19.806	-0.175	-0.109
-491.522	757.745	0.108	0.296
-490.508	89.841	-0.075	0.085
-489.493	-16.772	-0.165	-0.105
-488.478	-162.597	-0.548	-0.027
-487.464	-200.000	-0.005	0.402
-486.449	-200.000	0.026	-0.190
-485.435	800.000	0.096	-0.340
-484.420	216.277	0.131	0.211
-483.405	-79.695	-0.176	0.060
-482.391	78.255	-0.090	0.097
-481.376	-153.087	0.312	0.022
-480.362	78.852	0.107	-0.116
-479.347	-43.931	0.270	0.137
-478.332	-50.606	-0.422	0.201
-477.318	305.840	-0.159	0.300
-476.303	-0.814	-0.252	0.180
-475.289	-35.618	0.301	-0.165
-474.274	337.456	0.125	-0.247
-473.259	-200.000	-0.020	0.405
-472.245	-80.407	0.224	-0.076
-471.230	120.233	-0.041	-0.052
-470.216	258.095	-0.040	0.070
-469.201	-125.167	0.170	-0.026
-468.186	-200.000	-0.030	0.139
-467.172	-100.697	-0.304	0.076
-466.157	-200.000	0.035	-0.403
-465.143	93.737	-0.054	0.062
-464.128	-129.208	0.271	0.038
-463.113	95.997	-0.156	0.180
-462.099	-69.546	0.082	-0.032
-461.084	192.694	-0.060	-0.092
-460.070	-200.000	0.030	-0.271
-459.055	-171.816	0.324	-0.011
-458.040	-200.000	-0.024	0.274
-457.026	-64.652	0.244	0.100
-456.011	-200.000	-0.023	-0.303
-454.997	541.471	0.085	0.204
-453.982	-200.000	-0.046	-0.307
-452.968	-88.071	-0.119	0.036
-451.953	-93.082	-0.185	0.052
-450.938	-2.232	0.359	0.255
-449.924	426.986	0.015	0.033
-448.909	-93.437	0.132	-0.037
-447.895	-173.890	0.124	0.004
-446.880	-88.007	0.238	-0.072
-445.865	-200.000	-0.011	-0.224
-444.851	593.157	0.043	-0.107
-443.836	99.667	0.122	0.143
-442.822	125.374	0.081	0.104
-441.807	-200.000	0.029	0.300
-440.792	300.228	-0.052	-0.097
-439.778	534.527	0.061	-0.147
-438.763	-20.639	-0.136	-0.085
-437.749	165.966	-0.121	0.174
-436.734	-200.000	0.000	-0.233
-435.719	800.000	-0.063	-0.207
-434.705	-170.348	0.231	-0.008
-433.690	123.824	0.137	-0.174
-432.676	-200.000	0.019	0.178
-431.661	-66.567	-0.073	-0.029
-430.646	-95.861	0.094	-0.025
-429.632	-200.000	-0.020	0.101
-428.617	0.235	0.108	-0.077
-427.603	71.799	0.184	-0.193
-426.588	502.590	0.124	0.289
-425.573	142.997	0.023	0.030
-424.559	322.960	0.036	-0.070
-423.544	-29.652	-0.080	0.046
-422.530	183.976	-0.121	0.180
-421.515	800.000	-0.047	-0.194
-420.500	-28.254	0.096	0.056
-419.486	-85.418	0.297	0.093
-418.471	-200.000	0.001	0.188
-417.457	34.788	-0.204	-0.180
-416.442	46.197	0.077	-0.072
-415.428	386.634	-0.118	0.246
-414.413	-96.440	0.203	0.054
-413.398	212.134	-0.072	0.114
-412.384	-17.757	-0.269	-0.171
-411.369	-200.000	0.010	0.145
-410.355	-200.000	0.024	0.350
-409.340	800.000	-0.011	0.034
-408.325	159.428	0.172	-0.241
-407.311	220.188	0.113	0.182
-406.296	-200.000	0.046	-0.244
-405.282	-62.462	0.212	0.089
-404.267	-200.000	-0.004	-0.110
-403.252	-74.398	-0.311	-0.113
-402.238	-150.821	0.321	0.025
-401.223	-49.669	-0.030	-0.014
-400.209	192.702	-0.037	0.056
-399.194	402.764	0.147	0.311
-398.179	85.790	0.136	-0.151
-397.165	-95.177	-0.155	0.042
-396.150	-200.000	-0.006	-0.309
-395.136	102.684	0.061	-0.072
-394.121	-63.393	0.284	-0.118
-393.106	-75.859	-0.488	0.174
-392.092	493.214	0.036	0.082
-391.077	-162.581	-0.170	-0.008
-390.063	800.000	0.039	-0.139
-389.048	-200.000	-0.018	-0.145
-388.033	-26.465	0.207	-0.123
-387.019	-103.634	-0.208	-0.049
-386.004	67.204	0.152	0.156
-384.990	277.368	-0.097	0.173
-383.975	-200.000	0.038	-0.221
-382.960	-173.465	0.171	0.005
-381.946	25.793	-0.026	0.022
-380.931	-139.555	-0.254	-0.027
-379.917	-33.314	0.347	-0.193
-378.902	227.748	0.080	0.130
-377.888	183.307	-0.055	-0.082
-376.873	-14.993	-0.135	0.088
-375.858	-68.642	-0.261	-0.102
-374.844	-196.371	0.215	-0.001
-373.829	-0.516	-0.146	-0.105
-372.815	-121.128	-0.125	-0.021
-371.800	58.580	-0.068	-0.068
-370.785	-112.338	0.101	-0.020
-369.771	-126.186	0.249	0.037
-368.756	543.878	-0.311	0.749
-367.742	291.498	0.127	0.234
-366.727	68.374	0.151	-0.156
-365.712	-24.701	-0.101	-0.060
-364.698	26.507	0.194	0.164
-363.683	191.704	0.037	0.056
-362.669	212.464	0.067	-0.107
-361.654	-39.066	0.168	-0.089
-360.639	-68.992	-0.059	-0.023
-359.625	-104.162	-0.206	-0.048
-358.610	1.641	-0.139	-0.101
-357.596	117.154	-0.155	0.192
-356.581	-131.386	0.455	0.061
-355.566	235.283	0.149	-0.248
-354.552	-200.000	-0.031	0.166
-353.537	-200.000	0.026	-0.277
-352.523	-65.462	0.136	-0.055
-351.508	78.726	-0.149	-0.160
-350.493	-29.587	0.052	-0.030
-349.479	88.691	-0.121	0.135
-348.464	57.150	0.107	-0.105
-347.450	677.416	-0.083	-0.218
-346.435	703.682	0.078	-0.206
-345.420	453.256	-0.061	-0.136
-344.406	-200.000	-0.066	-0.319
-343.391	56.422	-0.157	0.153
-342.377	-200.000	-0.003	0.062
-341.362	58.245	0.162	-0.160
-340.348	310.943	-0.089	-0.167
-339.333	266.453	0.123	-0.216
-338.318	236.497	0.077	-0.128
-337.304	-40.403	-0.239	0.125
-336.289	-10.787	-0.043	-0.029
-335.275	721.434	0.093	-0.250
-334.260	-66.229	-0.106	0.043
-333.245	96.812	-0.073	0.084
-332.231	56.755	0.109	0.107
-331.216	-95.164	0.009	-0.003
-330.202	-38.313	-0.221	0.118
-329.187	-83.694	0.032	0.010
-328.172	11.767	0.101	0.078
-327.158	-79.450	-0.259	-0.088
-326.143	120.816	-0.019	-0.024
-325.129	800.000	0.021	0.070
-324.114	-200.000	-0.011	0.114
-323.099	800.000	-0.057	0.205
-322.085	-50.258	-0.211	0.100
-321.070	-92.430	0.098	0.028
-320.056	127.584	0.086	0.109
-319.041	800.000	0.080	0.261
-318.026	64.442	-0.155	0.157
-317.012	16.518	0.058	-0.046
-315.997	-13.361	-0.133	0.087
-314.983	-132.037	0.163	0.021
-313.968	800.000	0.020	0.062
-312.953	60.283	-0.221	-0.220
-311.939	-200.000	0.026	-0.343
-310.924	-59.757	-0.380	-0.164
-309.910	-3.909	0.103	-0.072
-308.895	-107.065	-0.205	-0.046
-307.880	-140.473	0.196	0.020
-306.866	330.749	-0.126	0.244
-305.851	-200.000	0.004	-0.199
-304.837	-200.000	0.012	0.107
-303.822	587.179	0.126	-0.312
-302.807	384.269	-0.048	-0.100
-301.793	-10.603	0.136	-0.090
-300.778	295.869	-0.076	-0.139
-299.764	486.492	-0.098	-0.224
-298.749	321.042	0.050	0.095
-297.735	-200.000	0.043	0.366
-296.720	-129.106	-0.218	0.031
-295.705	33.897	0.146	-0.127
-294.691	-38.140	-0.242	-0.129
-293.676	294.587	-0.026	0.047
-292.662	-60.933	0.178	0.076
-291.647	240.138	0.135	-0.226
-290.632	496.737	-0.107	0.248
-289.618	-28.311	-0.211	0.123
-288.603	318.361	0.047	0.089
-287.589	-65.527	0.245	0.099
-286.574	-11.747	-0.194	-0.128
-285.559	538.455	-0.040	-0.096
-284.545	107.957	0.198	0.237
-283.530	25.642	-0.208	-0.174
-282.516	-200.000	-0.024	-0.224
-281.501	-83.455	-0.565	0.182
-280.486	-127.977	-0.134	0.019
-279.472	624.739	-0.101	-0.256
-278.457	-131.028	0.121	-0.016
-277.443	-200.000	-0.021	-0.250
-276.428	-66.561	0.111	0.044
-275.413	-134.248	0.192	-0.024
-274.399	183.284	0.098	0.145
-273.384	449.693	-0.039	0.087
-272.370	82.136	0.280	0.305
-271.355	-71.259	0.224	-0.084
-270.340	-10.879	0.192	-0.128
-269.326	-133.535	0.139	0.018
-268.311	-112.733	0.077	0.015
-267.297	426.376	0.037	0.081
-266.282	-77.114	-0.098	0.034
-265.267	164.303	0.028	-0.040
-264.253	350.862	-0.159	0.316
-263.238	-200.000	-0.043	-0.309
-262.224	-77.658	0.068	0.024
-261.209	170.845	-0.134	-0.193
-260.195	500.766	-0.048	0.111
-259.180	3.889	0.066	0.048
-258.165	137.349	-0.071	-0.093
-257.151	800.000	-0.040	0.170
-256.136	274.140	-0.102	0.180
-255.122	-96.898	-0.266	0.070
-254.107	800.000	0.054	-0.178
-253.092	-67.344	0.272	-0.107
-252.078	800.000	-0.096	0.297
-251.063	-19.736	0.333	-0.207
-250.049	-152.534	-0.277	-0.020
-249.034	-171.980	0.096	-0.003
-248.019	-16.316	0.055	0.035
-247.005	-48.565	-0.269	-0.130
-245.990	-50.575	0.216	0.102
-244.976	-200.000	0.016	0.267
-243.961	-200.000	0.009	0.081
-242.946	-200.000	-0.008	-0.164
-241.932	-34.653	-0.367	-0.202
-240.917	237.884	-0.163	-0.271
-239.903	-132.616	0.378	-0.049
-238.888	113.165	0.202	0.246
-237.873	269.675	-0.205	0.361
-236.859	-179.855	0.234	0.005
-235.844	-128.151	0.306	-0.044
-234.830	-200.000	0.016	-0.257
-233.815	16.650	0.223	-0.177
-232.800	800.000	0.074	0.228
-231.786	-99.906	0.247	0.062
-230.771	-98.232	0.322	0.083
-229.757	-200.000	0.013	-0.158
-228.742	-118.443	-0.296	0.053
-227.727	-200.000	0.010	-0.090
-226.713	-80.977	0.071	0.024
-225.698	-95.096	-0.429	-0.116
-224.684	43.109	-0.139	0.127
-223.669	28.350	0.212	-0.180
-222.655	-97.689	0.287	0.074
-221.640	-41.261	-0.265	0.137
-220.625	39.328	-0.025	0.022
-219.611	31.510	0.145	-0.125
-218.596	118.060	0.122	-0.151
-217.582	-200.000	-0.007	0.221
-216.567	62.211	-0.030	-0.030
-215.552	69.895	0.217	-0.224
-214.538	407.239	0.061	0.130
-213.523	-112.273	0.393	0.079
-212.509	-200.000	-0.060	-0.322
-211.494	-200.000	-0.066	-0.482
-210.479	4.544	-0.151	-0.111
-209.465	368.446	-0.170	0.343
-208.450	-200.000	-0.062	-0.349
-207.436	471.003	-0.042	-0.094
-206.421	172.403	0.050	0.071
-205.406	-200.000	0.038	-0.318
-204.392	291.875	-0.105	-0.191
-203.377	197.695	0.066	0.101
-202.363	-107.118	0.368	0.081
-201.348	800.000	-0.121	0.367
-200.333	-200.000	-0.008	0.286
-199.319	-200.000	-0.042	0.291
-198.304	532.534	0.124	0.293
-197.290	-40.400	0.116	0.060
-196.275	375.992	0.149	0.304
-195.260	-24.264	-0.066	0.039
-194.246	216.422	-0.241	0.384
-193.231	-200.000	0.000	0.220
-192.217	224.034	0.040	0.064
-191.202	-28.753	-0.400	0.230
-190.187	-32.985	0.059	0.033
-189.173	-89.501	-0.101	-0.030
-188.158	473.904	0.097	-0.220
-187.144	800.000	-0.081	-0.338
-186.129	-200.000	-0.041	0.294
-185.114	-200.000	0.015	0.271
-184.100	-87.993	-0.125	-0.038
-183.085	-60.271	0.163	-0.069
-182.071	-200.000	-0.015	0.155
-181.056	800.000	0.035	0.145
-180.042	112.783	0.112	-0.135
-179.027	543.524	-0.075	0.180
-178.012	-102.726	-0.182	0.043
-176.998	-71.342	0.111	0.042
-175.983	136.456	-0.157	0.205
-174.969	13.185	0.049	0.038
-173.954	-31.825	-0.302	-0.169
-172.939	122.829	-0.098	0.123
-171.925	258.316	-0.122	0.210
-170.910	-102.731	-0.191	0.046
-169.896	800.000	0.033	0.106
-168.881	-43.531	-0.039	-0.019
-167.866	39.812	0.308	0.276
-166.852	-200.000	0.020	0.190
-165.837	-44.829	0.141	-0.070
-164.823	800.000	-0.098	0.311
-163.808	207.943	0.049	-0.076
-162.793	-85.661	0.162	0.050
-161.779	-144.126	-0.222	-0.021
-160.764	-111.835	-0.204	0.041
-159.750	-116.483	0.032	-0.006
-158.735	406.582	0.141	0.298
-157.720	-200.000	0.018	-0.094
-156.706	-200.000	0.018	0.080
-155.691	112.784	0.181	-0.219
-154.677	-134.905	-0.198	0.024
-153.662	362.047	0.197	-0.396
-152.647	-122.034	-0.355	-0.058
-151.633	-61.826	-0.094	0.039
-150.618	-200.000	0.001	-0.198
-149.604	-104.882	-0.214	0.049
-148.589	220.605	-0.061	0.098
-147.574	689.829	-0.078	0.204
-146.560	577.449	0.050	0.122
-145.545	800.000	-0.076	0.255
-144.531	-86.631	-0.442	-0.135
-143.516	-200.000	-0.011	0.363
-142.502	139.156	0.078	0.102
-141.487	77.620	0.271	-0.289
-140.472	-116.405	-0.516	0.095
-139.458	113.200	0.077	0.094
-138.443	800.000	0.031	-0.126
-137.429	20.292	0.215	-0.173
-136.414	800.000	-0.028	0.116
-135.399	-140.744	0.176	0.018
-134.385	800.000	-0.054	0.149
-133.370	17.603	-0.358	-0.284
-132.356	-67.157	0.183	-0.072
-131.341	-173.884	0.357	0.011
-130.326	-200.000	-0.043	0.350
-129.312	-200.000	0.014	-0.116
-128.297	-200.000	-0.012	-0.202
-127.283	155.428	0.232	-0.319
-126.268	45.026	0.132	-0.121
-125.253	-85.412	0.091	0.028
-124.239	-55.534	0.273	0.122
-123.224	121.402	0.237	0.295
-122.210	-64.983	0.240	-0.097
-121.195	-96.796	0.387	0.101
-120.180	-98.984	-0.248	-0.063
-119.166	-24.582	-0.217	0.129
-118.151	8.486	-0.148	0.111
-117.137	287.837	-0.096	-0.174
-116.122	-123.740	-0.180	0.028
-115.107	800.000	-0.021	-0.063
-114.093	-137.920	-0.049	0.005
-113.078	39.714	-0.139	-0.124
-112.064	264.084	0.208	-0.362
-111.049	-195.543	0.244	-0.002
-110.034	-200.000	0.039	0.282
-109.020	290.588	-0.069	-0.125
-108.005	-118.127	0.230	-0.041
-106.991	-16.968	-0.088	0.055
-105.976	-200.000	0.008	0.105
-104.962	-17.493	0.128	-0.080
-103.947	72.188	0.165	0.171
-102.932	-108.877	-0.154	-0.033
-101.918	-26.295	0.176	-0.103
-100.903	-69.181	0.193	-0.074
-99.889	-200.000	-0.027	0.199
-98.874	324.464	0.066	-0.127
-97.859	-62.406	0.140	0.058
-96.845	-85.214	-0.167	-0.052
-95.830	-53.106	-0.116	-0.053
-94.816	-155.012	0.249	-0.016
-93.801	372.389	0.034	-0.068
-92.786	-46.305	0.418	-0.205
-91.772	41.470	0.074	-0.066
-90.757	214.219	-0.122	-0.192
-89.743	-71.003	0.198	-0.074
-88.728	-122.537	0.292	-0.047
-87.713	35.745	-0.162	0.142
-86.699	-34.500	0.204	0.111
-85.684	37.116	-0.144	0.127
-84.670	10.543	-0.415	0.315
-83.655	-200.000	0.006	0.054
-82.640	-99.189	-0.075	-0.019
-81.626	-200.000	-0.005	-0.156
-80.611	164.043	0.061	-0.086
-79.597	-86.399	-0.285	0.087
-78.582	800.000	0.053	0.199
-77.567	-166.129	0.132	0.006
-76.553	284.433	-0.020	0.036
-75.538	36.506	0.085	0.075
-74.524	-83.821	0.193	-0.061
-73.509	-6.386	-0.217	-0.147
-72.494	-200.000	0.012	-0.211
-71.480	-31.798	-0.073	-0.041
-70.465	184.499	0.256	0.377
-69.451	-111.230	0.103	-0.021
-68.436	-149.794	0.161	-0.013
-67.422	-43.250	-0.187	0.094
-66.407	-27.700	-0.226	-0.130
-65.392	24.515	-0.277	0.229
-64.378	-50.465	0.350	-0.165
-63.363	120.348	-0.149	0.184
-62.349	25.045	-0.167	0.138
-61.334	43.513	-0.829	-0.754
-60.319	497.288	0.145	0.332
-59.305	-200.000	-0.090	-0.771
-58.290	186.830	0.558	0.827
-57.276	224.563	0.879	1.414
-56.261	-200.000	77.712	511.258
-55.246	508.763	1333.912	3084.305
-54.232	147.883	2558.969	3434.332
-53.217	114.494	2242.001	2718.372
-52.203	50.629	1771.506	1668.553
-51.188	43.632	1572.358	1431.632
-50.173	41.026	1542.663	1386.406
-49.159	56.910	1580.448	1532.468
-48.144	62.825	1600.186	1593.161
-47.130	44.300	1562.949	1427.534
-46.115	40.731	1548.767	1389.603
-45.100	40.560	1545.221	1385.177
-44.086	40.457	1543.115	1382.511
-43.071	40.398	1540.905	1380.068
-42.057	40.382	1539.063	1378.254
-41.042	40.402	1537.633	1377.057
-40.027	40.321	1536.498	1375.418
-39.013	40.258	1535.006	1373.595
-37.998	40.314	1533.034	1372.160
-36.984	40.355	1532.362	1371.793
-35.969	40.385	1530.937	1370.670
-34.954	40.518	1529.401	1370.159
-33.940	40.355	1528.215	1367.918
-32.925	40.452	1526.205	1366.731
-31.911	40.431	1524.744	1365.222
-30.896	40.358	1523.885	1363.896
-29.881	40.406	1522.201	1362.669
-28.867	40.430	1521.308	1361.978
-27.852	40.316	1520.244	1360.186
-26.838	40.500	1517.879	1359.278
-25.823	40.477	1516.185	1357.551
-24.809	40.358	1514.920	1355.553
-23.794	40.435	1513.783	1355.005
-22.779	40.461	1511.793	1353.350
-21.765	40.514	1510.841	1352.806
-20.750	40.384	1509.867	1350.995
-19.736	40.471	1508.219	1350.057
-18.721	40.440	1507.410	1349.071
-17.706	40.393	1506.099	1347.524
-16.692	40.359	1505.384	1346.597
-15.677	40.403	1504.022	1345.627
-14.663	40.274	1502.949	1343.732
-13.648	40.192	1502.317	1342.563
-12.633	40.380	1501.035	1342.632
-11.619	40.312	1501.045	1342.127
-10.604	40.424	1499.353	1341.326
-9.590	40.311	1498.486	1339.727
-8.575	40.352	1497.510	1339.079
-7.560	40.399	1496.392	1338.349
-6.546	40.351	1495.686	1337.334
-5.531	40.239	1495.399	1336.269
-4.517	40.265	1494.267	1335.383
-3.502	40.339	1492.920	1334.626
-2.487	40.296	1492.210	1333.648
-1.473	40.324	1490.948	1332.652
-0.458	40.332	1489.630	1331.480
0.556	40.488	1480.220	1319.603
1.571	37.575	1451.839	1275.135
2.586	33.582	1388.707	1194.486
3.600	31.452	1305.011	1109.772
4.615	29.799	1256.341	1058.833
5.629	24.966	1197.022	982.315
6.644	13.062	1105.272	846.279
7.659	3.840	1058.505	764.946
8.673	2.525	1052.251	753.889
9.688	2.276	1049.356	750.525
10.702	2.024	1047.623	747.983
11.717	2.076	1045.934	746.969
12.731	5.504	1050.267	766.817
13.746	16.265	1065.969	831.481
14.761	24.439	1075.976	879.684
15.775	25.705	1076.698	886.434
16.790	25.674	1076.529	886.062
17.804	25.544	1075.573	884.556
18.819	25.435	1074.644	883.178
19.834	25.397	1074.500	882.798
20.848	25.519	1073.982	882.895
21.863	25.729	1073.333	883.314
22.877	25.564	1073.500	882.561
23.892	25.585	1072.408	881.689
24.907	25.505	1071.737	880.665
25.921	25.534	1070.571	879.774
26.936	25.525	1070.242	879.380
27.950	25.563	1068.863	878.354
28.965	25.414	1068.183	876.992
29.980	25.418	1066.168	875.280
30.994	25.327	1064.947	873.758
32.009	25.552	1064.287	874.234
33.023	25.660	1064.085	874.513
34.038	25.399	1062.800	872.113
35.053	25.370	1062.048	871.278
36.067	25.727	1061.024	872.089
37.082	25.503	1060.520	870.514
38.096	25.505	1060.156	870.150
39.111	25.695	1059.274	870.264
40.126	25.814	1058.449	870.086
41.140	25.794	1057.072	868.780
42.155	25.459	1055.758	866.012
43.169	25.113	1054.735	863.429
44.184	25.179	1053.355	862.540
45.199	25.328	1052.555	862.526
46.213	25.107	1051.936	860.881
47.228	24.996	1051.106	859.592
48.242	25.242	1050.397	860.116
49.257	25.422	1049.499	860.166
50.271	25.460	1048.906	859.784
51.286	25.473	1048.804	859.689
52.301	25.616	1047.621	859.323
53.315	25.672	1046.773	858.819
54.330	25.574	1045.986	857.631
55.344	25.441	1045.191	856.268
56.359	25.457	1044.436	855.654
57.374	25.616	1043.515	855.579
58.388	25.426	1042.594	853.847
59.403	25.189	1042.208	852.325
60.417	25.200	1041.375	851.622
61.432	25.136	1040.355	850.410
62.447	25.198	1039.704	850.094
63.461	25.225	1039.375	849.880
64.476	25.279	1038.264	849.153
65.490	25.316	1037.314	848.473
66.505	25.180	1036.163	846.818
67.520	25.154	1035.575	846.138
68.534	25.253	1035.071	846.119
69.549	25.119	1033.917	844.470
70.563	24.805	1033.245	842.368
71.578	24.772	1032.069	841.178
72.593	24.739	1031.610	840.575
73.607	24.593	1030.459	838.877
74.622	24.621	1029.461	838.121
75.636	24.898	1028.597	838.640
76.651	24.987	1028.236	838.692
77.666	24.964	1027.142	837.614
78.680	24.963	1026.050	836.646
79.695	24.913	1025.818	836.150
80.709	24.986	1025.034	835.778
81.724	25.164	1024.573	836.155
82.739	25.103	1023.338	834.793
83.753	25.151	1022.670	834.398
84.768	25.319	1022.342	834.837
85.782	25.647	1021.772	835.820
86.797	25.900	1021.214	836.466
87.812	25.797	1020.354	835.207
88.826	25.641	1019.265	833.520
89.841	25.676	1018.103	832.660
90.855	25.774	1017.644	832.663
91.870	25.752	1016.812	831.808
92.884	25.785	1016.290	831.460
93.899	25.730	1015.236	830.268
94.914	25.498	1014.148	828.235
95.928	25.627	1013.456	828.192
96.943	25.715	1012.624	827.843
97.957	25.537	1011.296	825.867
98.972	25.311	1010.215	823.875
99.987	25.062	1009.441	822.029
101.001	25.078	1008.939	821.619
102.016	25.331	1008.504	822.354
103.030	25.582	1007.450	822.569
104.045	25.404	1006.113	820.588
105.060	25.154	1005.192	818.626
106.074	25.100	1003.851	817.213
107.089	25.049	1003.559	816.674
108.103	25.388	1002.916	817.621
109.118	25.426	1002.254	817.180
110.133	25.168	1001.060	814.964
111.147	25.028	1000.461	813.767
112.162	25.125	998.801	812.783
113.176	24.869	997.839	810.769
114.191	25.106	996.992	811.083
115.206	25.181	996.440	810.902
116.220	24.879	995.397	808.618
117.235	24.739	994.086	806.851
118.249	24.765	993.979	806.808
119.264	24.950	992.647	806.488
120.279	24.806	991.946	805.202
121.293	24.776	991.025	804.247
122.308	24.921	990.781	804.630
123.322	24.909	990.321	804.130
124.337	24.918	988.620	802.718
125.352	24.682	987.796	800.921
126.366	24.332	986.155	797.955
127.381	23.993	985.049	795.472
128.395	24.460	984.842	797.324
129.410	25.348	984.397	800.855
130.424	25.404	983.573	800.364
131.439	25.537	982.452	799.971
132.454	25.414	981.895	798.898
133.468	25.478	981.186	798.535
134.483	25.327	980.310	797.083
135.497	25.354	980.081	796.947
136.512	25.602	979.386	797.409
137.527	25.674	978.707	797.104
138.541	25.597	977.914	796.047
139.556	25.673	977.065	795.623
140.570	25.623	976.248	794.665
141.585	25.703	975.143	794.052
142.600	25.811	974.933	794.287
143.614	25.707	973.597	792.669
144.629	25.812	973.155	792.700
145.643	25.924	972.895	792.913
146.658	25.962	971.170	791.601
147.673	25.674	970.377	789.620
148.687	25.603	969.000	788.121
149.702	25.607	968.156	787.382
150.716	25.418	967.002	785.548
151.731	25.307	966.307	784.429
152.746	25.462	965.208	784.142
153.760	25.572	965.258	784.596
154.775	25.842	964.209	784.848
155.789	25.892	963.529	784.444
156.804	25.776	962.745	783.233
157.819	25.854	961.152	782.206
158.833	25.727	960.839	781.328
159.848	25.867	959.881	781.090
160.862	25.847	959.447	780.577
161.877	25.867	957.908	779.343
162.892	25.671	957.376	777.994
163.906	25.610	956.789	777.184
164.921	25.695	955.400	776.356
165.935	25.699	954.204	775.331
166.950	25.800	953.077	774.781
167.964	25.731	952.656	774.078
168.979	25.740	951.371	773.002
169.994	25.562	950.578	771.524
171.008	25.589	949.467	770.669
172.023	25.732	948.458	770.394
173.037	25.943	948.071	770.913
174.052	25.793	946.817	769.188
175.067	25.495	945.865	767.075
176.081	25.496	945.201	766.474
177.096	25.508	944.428	765.829
178.110	25.578	943.480	765.288
179.125	25.333	942.497	763.383
180.140	25.160	941.253	761.573
181.154	25.084	941.110	761.067
182.169	25.244	939.882	760.685
183.183	25.633	939.693	762.112
184.198	25.872	939.334	762.765
185.213	25.703	939.109	761.802
186.227	25.678	938.555	761.181
187.242	25.608	938.084	760.433
188.256	25.889	936.921	760.610
189.271	25.811	936.275	759.690
190.286	25.964	935.454	759.601
191.300	25.746	934.622	757.941
192.315	25.052	933.119	753.736
193.329	24.395	931.265	749.413
194.344	23.949	930.522	746.878
195.359	24.519	930.693	749.342
196.373	25.337	931.689	753.510
197.388	25.796	930.684	754.553
198.402	25.554	930.251	753.122
199.417	25.660	929.560	752.942
200.432	25.643	929.012	752.362
201.446	25.637	928.263	751.660
202.461	25.267	927.904	749.758
203.475	25.371	927.115	749.490
204.490	24.988	925.579	746.585
205.504	23.700	923.844	739.759
206.519	24.033	923.527	740.826
207.534	25.019	923.815	745.094
208.548	25.289	923.022	745.511
209.563	25.619	922.973	746.773
210.577	25.589	922.550	746.243
211.592	25.304	921.815	744.400
212.607	25.682	921.783	745.874
213.621	25.854	920.987	745.878
214.636	25.839	920.440	745.305
215.650	25.720	920.010	744.401
216.665	25.772	919.326	743.997
217.680	25.878	918.397	743.616
218.694	25.875	918.397	743.535
219.709	25.619	917.449	741.650
220.723	25.172	916.376	738.874
221.738	25.466	916.008	739.722
222.753	25.607	915.553	739.868
223.767	25.564	914.668	738.911
224.782	25.665	914.078	738.785
225.796	25.963	913.420	739.408
226.811	25.825	913.425	738.782
227.826	25.498	912.030	736.248
228.840	24.772	910.515	731.993
229.855	24.603	909.916	730.755
230.869	24.904	909.436	731.532
231.884	24.661	908.134	729.431
232.899	24.621	907.884	729.003
233.913	25.483	908.001	732.545
234.928	25.632	907.665	732.818
235.942	25.352	907.285	731.306
236.957	25.389	906.691	730.912
237.972	25.171	905.737	729.195
238.986	25.119	904.854	728.207
240.001	25.286	904.097	728.212
241.015	25.297	903.458	727.678
242.030	25.312	902.793	727.136
243.045	25.363	902.783	727.271
244.059	25.613	901.975	727.566
245.074	25.709	901.504	727.510
246.088	25.797	900.743	727.189
247.103	25.364	899.767	724.588
248.117	25.427	899.189	724.311
249.132	25.930	899.157	726.251
250.147	26.391	899.125	728.017
251.161	26.350	898.829	727.547
252.176	26.461	898.371	727.560
253.190	26.564	897.201	726.961
254.205	26.595	896.965	726.831
255.220	26.692	896.610	726.867
256.234	26.727	895.957	726.412
257.249	26.544	895.414	725.175
258.263	26.415	894.471	723.831
259.278	26.341	894.163	723.224
260.293	26.476	893.638	723.272
261.307	26.603	893.021	723.216
262.322	26.528	892.519	722.446
263.336	26.415	891.806	721.357
264.351	25.957	890.388	718.320
265.366	24.937	888.277	712.496
266.380	24.460	887.624	710.014
267.395	25.269	887.972	713.449
268.409	26.025	888.110	716.501
269.424	26.081	887.398	716.082
270.439	26.108	887.502	716.213
271.453	26.188	886.366	715.548
272.468	26.157	885.978	715.050
273.482	26.425	885.737	715.853
274.497	26.440	885.234	715.440
275.512	26.402	883.960	714.197
276.526	25.732	882.616	710.407
277.541	25.976	882.389	711.124
278.555	26.244	882.122	711.902
279.570	26.154	881.257	710.786
280.585	26.166	880.086	709.827
281.599	26.111	879.941	709.430
282.614	26.201	879.719	709.542
283.628	25.792	878.320	706.746
284.643	25.385	877.635	704.536
285.657	25.841	877.754	706.357
286.672	25.710	876.900	705.096
287.687	25.125	875.759	701.824
288.701	25.593	875.740	703.580
289.716	25.994	875.389	704.802
290.730	25.580	874.536	702.436
291.745	25.493	873.912	701.533
292.760	25.411	872.788	700.250
293.774	25.268	871.984	698.987
294.789	26.196	872.618	703.046
295.803	26.910	872.670	705.805
296.818	26.745	872.366	704.857
297.833	26.909	872.255	705.340
298.847	26.614	870.547	702.753
299.862	26.317	869.829	700.959
300.876	26.333	869.738	700.886
301.891	26.782	869.345	702.246
302.906	26.927	868.768	702.279
303.920	26.379	867.866	699.371
304.935	26.341	866.990	698.456
305.949	26.845	866.432	699.891
306.964	26.925	865.949	699.747
307.979	26.571	865.544	697.993
308.993	26.491	865.296	697.422
310.008	26.886	864.757	698.447
311.022	26.944	864.483	698.386
312.037	26.872	863.755	697.460
313.052	26.658	862.853	695.848
314.066	26.620	861.752	694.752
315.081	25.854	860.719	690.922
316.095	24.946	859.608	686.491
317.110	25.471	859.887	688.666
318.125	26.414	859.839	692.177
319.139	26.064	858.985	690.091
320.154	24.785	857.466	683.924
321.168	24.422	856.190	681.459
322.183	24.929	856.386	683.488
323.197	25.860	857.070	687.531
324.212	26.325	856.789	689.016
325.227	26.617	856.134	689.541
326.241	26.738	855.815	689.684
327.256	26.564	855.043	688.339
328.270	26.401	854.429	687.162
329.285	26.168	854.278	686.096
330.300	26.134	852.957	684.845
331.314	25.936	851.970	683.240
332.329	25.948	851.645	682.966
333.343	26.509	851.115	684.605
334.358	26.799	851.195	685.707
335.373	26.655	850.781	684.766
336.387	26.668	850.292	684.359
337.402	26.869	849.852	684.704
338.416	27.038	849.333	684.865
339.431	27.132	848.835	684.755
340.446	27.120	848.255	684.184
341.460	27.225	848.057	684.359
342.475	27.272	847.268	683.838
343.489	27.077	846.562	682.475
344.504	27.188	845.986	682.367
345.519	27.279	845.596	682.331
346.533	27.562	845.076	682.914
347.548	27.615	844.649	682.705
348.562	27.613	844.395	682.432
349.577	27.449	844.020	681.456
350.592	27.461	843.207	680.782
351.606	27.396	842.867	680.206
352.621	27.509	842.164	680.000
353.635	27.385	841.414	678.873
354.650	27.326	841.022	678.277
355.665	26.988	840.312	676.386
356.679	26.029	838.690	671.451
357.694	25.739	838.187	669.910
358.708	26.455	838.043	672.398
359.723	26.450	837.224	671.663
360.738	26.641	837.236	672.321
361.752	26.974	837.002	673.311
362.767	27.219	836.480	673.737
363.781	27.488	836.747	674.893
364.796	27.758	836.680	675.776
365.810	27.836	836.098	675.537
366.825	28.001	835.522	675.621
367.840	27.751	835.559	674.668
368.854	27.776	834.825	674.105
369.869	27.180	833.755	670.984
370.883	26.991	833.575	670.083
371.898	27.113	832.660	669.737
372.913	27.292	831.576	669.464
373.927	27.100	831.145	668.354
374.942	27.402	830.484	668.873
375.956	27.348	830.043	668.259
376.971	27.476	829.729	668.416
377.986	27.803	829.249	669.169
379.000	27.883	828.803	669.042
380.015	27.921	828.362	668.767
381.029	27.773	827.531	667.496
382.044	27.756	826.929	666.889
383.059	27.844	826.488	666.797
384.073	27.856	825.822	666.246
385.088	27.840	825.418	665.802
386.102	27.717	825.122	665.054
387.117	27.610	824.526	664.125
388.132	27.714	823.421	663.556
389.146	27.404	822.886	661.938
390.161	26.728	821.911	658.638
391.175	26.816	821.740	658.764
392.190	27.416	821.483	660.679
393.205	27.426	820.927	660.208
394.219	26.452	819.380	655.378
395.234	24.963	816.953	647.996
396.248	24.076	816.032	644.004
397.263	24.879	817.335	647.881
398.278	26.826	818.516	655.808
399.292	27.373	818.315	657.569
400.307	26.962	817.844	655.646
401.321	26.977	817.244	655.160
402.336	27.015	816.923	654.981
403.350	27.468	816.492	656.211
404.365	27.794	816.816	657.589
405.380	28.075	816.517	658.302
406.394	28.459	816.437	659.560
407.409	28.537	815.871	659.325
408.423	28.438	815.353	658.494
409.438	28.448	814.635	657.890
410.453	28.447	814.455	657.683
411.467	28.620	813.966	657.850
412.482	28.660	813.165	657.288
413.496	28.456	812.686	656.111
414.511	28.544	812.731	656.406
415.526	28.623	812.050	656.080
416.540	28.465	811.896	655.333
417.555	28.548	811.021	654.864
418.569	28.244	810.556	653.349
419.584	28.019	810.176	652.182
420.599	28.191	809.386	652.099
421.613	96.880	1267.575	1386.273
422.628	83.275	1334.377	1386.384
