DTS Sentinel unit serial number:	SN413079Multiplexer serial number:	ORYXHardware model number:	OX4-SRSoftware version number:	ORYX F/W v4.00 Oryx Data Collector v3.7.2.0data status	okinstallation	princeton_trtdifferential loss correction	single-endedforward channel	channel 3reverse channel	N/Adate	2019/09/19time	07:56:34forward acquisition time	60.00reverse acquisition time	0.00gamma	496.2192k internal	0.2346k external	0.2346temperature offset calibration	0.9979default loss term (dB/km)	0.3790temperature slope calibration	1.0000multiplexer offset coefficient	1.0000multiplexer slope coefficient	1.0000fibre end	0.00T internal ref (°C)	19.75T ext. ref 1 (°C)	0.55T ext. ref 2 (°C)	15.21length (m)	temperature (°C)	Stokes	anti-Stokes-747.200	42.048	-0.199	0.181
-746.185	-36.622	-0.395	0.212
-745.171	-139.882	0.257	0.027
-744.156	-175.426	-0.336	0.009
-743.142	231.529	-0.073	0.119
-742.127	-74.688	-0.171	-0.062
-741.112	-119.986	0.039	0.007
-740.098	800.000	0.089	0.375
-739.083	90.547	-0.289	-0.324
-738.069	269.530	0.025	0.044
-737.054	-173.751	0.201	-0.006
-736.039	-200.000	-0.036	-0.260
-735.025	-42.822	-0.046	0.023
-734.010	768.559	-0.036	-0.098
-732.996	-200.000	0.013	0.290
-731.981	105.794	0.135	0.159
-730.966	-137.962	-0.394	-0.044
-729.952	-78.564	-0.177	-0.061
-728.937	176.792	0.157	-0.228
-727.923	-110.006	0.142	0.030
-726.908	-99.784	-0.447	-0.112
-725.894	-200.000	0.041	0.241
-724.879	-66.726	-0.085	-0.034
-723.864	800.000	-0.037	0.150
-722.850	-42.795	-0.156	-0.079
-721.835	81.392	0.106	-0.114
-720.821	431.909	0.088	0.190
-719.806	274.049	-0.125	0.221
-718.791	-39.715	0.067	0.035
-717.777	-0.628	-0.081	-0.058
-716.762	-18.080	0.179	0.112
-715.748	-200.000	0.037	0.170
-714.733	-5.561	-0.245	-0.168
-713.718	56.117	0.201	-0.195
-712.704	-50.705	0.228	0.107
-711.689	-116.253	0.212	-0.039
-710.675	45.752	-0.050	0.046
-709.660	13.381	0.114	-0.089
-708.645	-76.474	-0.042	-0.015
-707.631	10.577	0.078	0.060
-706.616	0.460	-0.242	-0.172
-705.602	86.683	-0.052	0.058
-704.587	-200.000	0.004	0.249
-703.572	800.000	-0.043	-0.131
-702.558	-13.527	-0.131	-0.085
-701.543	127.198	-0.042	-0.053
-700.529	-105.419	-0.193	-0.044
-699.514	-147.236	-0.141	0.012
-698.499	-37.691	-0.191	-0.102
-697.485	90.248	-0.200	-0.224
-696.470	800.000	0.079	0.262
-695.456	429.691	-0.088	-0.191
-694.441	-98.326	-0.266	-0.068
-693.426	-33.135	-0.310	0.172
-692.412	800.000	0.048	-0.150
-691.397	-200.000	0.106	-0.471
-690.383	-200.000	0.008	-0.355
-689.368	14.233	-0.127	0.099
-688.354	-200.000	-0.001	-0.179
-687.339	-80.725	-0.158	-0.052
-686.324	67.953	0.299	-0.305
-685.310	-138.056	0.285	-0.032
-684.295	-68.954	-0.358	-0.138
-683.281	800.000	-0.039	-0.109
-682.266	-3.969	-0.237	-0.164
-681.251	253.846	0.109	-0.185
-680.237	411.961	-0.222	-0.469
-679.222	-120.620	0.263	-0.044
-678.208	800.000	0.046	0.141
-677.193	-200.000	-0.010	-0.147
-676.178	26.039	-0.201	-0.167
-675.164	-126.303	-0.502	-0.075
-674.149	-113.236	-0.096	-0.019
-673.135	122.029	0.210	-0.261
-672.120	-50.687	-0.196	-0.092
-671.105	-78.029	-0.111	-0.038
-670.091	-94.929	-0.148	-0.040
-669.076	388.760	-0.095	0.196
-668.062	-83.737	-0.192	-0.061
-667.047	41.269	-0.028	-0.025
-666.032	172.204	0.237	-0.340
-665.018	-79.384	0.164	-0.055
-664.003	23.996	-0.067	-0.055
-662.989	275.922	0.131	0.231
-661.974	78.907	0.150	0.160
-660.959	-120.911	0.044	-0.007
-659.945	800.000	-0.049	0.142
-658.930	102.811	0.092	0.107
-657.916	800.000	0.040	0.171
-656.901	35.413	-0.221	0.193
-655.886	-104.509	0.113	-0.026
-654.872	167.385	-0.027	-0.039
-653.857	-200.000	-0.049	-0.368
-652.843	128.507	-0.264	0.335
-651.828	84.860	-0.058	-0.064
-650.814	-38.425	0.162	-0.085
-649.799	-123.172	-0.203	0.032
-648.784	376.475	-0.148	-0.300
-647.770	43.409	-0.175	-0.159
-646.755	20.092	0.203	0.163
-645.741	-44.321	-0.175	0.088
-644.726	508.986	0.083	0.193
-643.711	263.162	-0.125	0.216
-642.697	800.000	-0.054	0.154
-641.682	-96.338	-0.193	0.051
-640.668	-26.804	-0.358	-0.208
-639.653	-110.276	0.247	-0.051
-638.638	-37.272	-0.152	-0.081
-637.624	-121.881	0.246	0.040
-636.609	-200.000	0.029	-0.147
-635.595	148.988	-0.122	-0.165
-634.580	108.017	0.073	0.086
-633.565	-200.000	-0.007	0.067
-632.551	-84.913	-0.258	0.080
-631.536	491.746	0.079	-0.181
-630.522	1.489	0.218	0.156
-629.507	158.444	0.234	0.324
-628.492	800.000	-0.035	-0.125
-627.478	-26.882	0.300	0.174
-626.463	47.794	-0.149	0.138
-625.449	24.307	-0.116	0.095
-624.434	-101.675	0.004	0.001
-623.419	-93.409	-0.209	-0.058
-622.405	36.532	0.355	0.312
-621.390	-106.892	-0.191	0.042
-620.376	-200.000	0.033	-0.196
-619.361	165.358	0.191	0.268
-618.346	-200.000	-0.050	-0.339
-617.332	-158.071	-0.387	0.023
-616.317	-200.000	-0.026	-0.193
-615.303	-95.213	-0.080	0.021
-614.288	37.697	-0.267	-0.236
-613.273	-102.276	-0.130	0.031
-612.259	-109.575	-0.163	0.034
-611.244	190.889	-0.095	-0.141
-610.230	7.787	0.166	0.123
-609.215	470.132	0.059	0.131
-608.201	-200.000	0.017	0.073
-607.186	205.006	-0.083	-0.128
-606.171	-104.348	-0.153	0.035
-605.157	800.000	-0.097	0.295
-604.142	751.762	0.063	-0.170
-603.128	-44.237	-0.361	-0.180
-602.113	-139.392	0.128	-0.014
-601.098	240.718	-0.061	0.101
-600.084	800.000	-0.061	0.254
-599.069	-115.301	0.164	0.031
-598.055	57.918	-0.114	-0.111
-597.040	800.000	-0.028	0.079
-596.025	302.381	0.210	-0.386
-595.011	-97.733	0.255	-0.066
-593.996	712.279	0.092	-0.242
-592.982	-200.000	-0.036	0.202
-591.967	-200.000	0.001	-0.115
-590.952	-133.576	-0.407	-0.051
-589.938	-54.111	0.118	0.054
-588.923	182.555	0.216	-0.317
-587.909	-200.000	0.046	-0.253
-586.894	-73.213	-0.132	-0.048
-585.879	149.205	0.058	0.078
-584.865	-200.000	-0.001	-0.162
-583.850	-200.000	-0.009	-0.153
-582.836	-200.000	0.056	-0.339
-581.821	800.000	0.011	0.033
-580.806	-72.622	0.121	-0.044
-579.792	-200.000	0.082	0.510
-578.777	-129.300	0.363	0.050
-577.763	-200.000	-0.066	-0.441
-576.748	-148.960	-0.073	-0.006
-575.733	223.019	-0.137	0.220
-574.719	-200.000	0.000	0.295
-573.704	26.515	-0.179	-0.148
-572.690	-49.106	-0.299	0.142
-571.675	-73.460	-0.114	-0.041
-570.661	-91.558	-0.491	0.139
-569.646	-41.814	0.229	-0.116
-568.631	-200.000	0.015	0.088
-567.617	-84.510	0.159	-0.050
-566.602	77.841	0.111	-0.117
-565.588	-108.370	-0.310	0.066
-564.573	-149.248	0.119	0.009
-563.558	-200.000	-0.043	-0.202
-562.544	-122.717	-0.371	-0.060
-561.529	-57.227	-0.179	0.078
-560.515	263.388	0.172	-0.297
-559.500	-3.798	0.101	-0.069
-558.485	38.946	-0.212	0.188
-557.471	-161.725	0.377	0.019
-556.456	337.200	0.174	-0.336
-555.442	-6.796	0.359	0.242
-554.427	145.243	0.180	-0.240
-553.412	800.000	-0.078	-0.222
-552.398	-118.424	-0.114	0.020
-551.383	-72.783	0.388	0.142
-550.369	100.709	-0.080	-0.092
-549.354	-200.000	-0.001	-0.123
-548.339	-109.281	-0.359	-0.076
-547.325	264.849	0.037	0.064
-546.310	800.000	0.038	-0.151
-545.296	93.886	-0.161	-0.181
-544.281	-198.536	-0.200	0.001
-543.266	-136.770	0.240	-0.027
-542.252	131.242	-0.178	-0.227
-541.237	-101.329	-0.232	0.056
-540.223	-116.692	-0.306	0.056
-539.208	-74.062	0.384	-0.138
-538.193	-79.938	0.010	0.003
-537.179	-85.298	-0.207	-0.064
-536.164	-151.765	-0.422	-0.031
-535.150	-200.000	-0.010	0.345
-534.135	138.038	-0.100	0.130
-533.121	-200.000	0.023	-0.136
-532.106	-51.985	0.135	-0.062
-531.091	101.835	0.086	0.099
-530.077	-200.000	0.010	0.059
-529.062	196.865	-0.241	0.364
-528.048	-97.119	-0.469	0.122
-527.033	123.002	0.041	-0.050
-526.018	800.000	-0.080	-0.264
-525.004	-93.413	0.164	-0.045
-523.989	228.249	0.060	0.097
-522.975	466.681	-0.083	0.183
-521.960	586.321	-0.087	0.212
-520.945	-105.127	0.159	-0.036
-519.931	60.859	0.063	0.062
-518.916	-200.000	-0.009	0.296
-517.902	-155.161	0.146	0.009
-516.887	138.102	-0.014	-0.018
-515.872	800.000	0.029	0.089
-514.858	-123.460	-0.301	0.047
-513.843	-54.070	0.030	-0.014
-512.829	800.000	-0.073	-0.293
-511.814	800.000	0.061	-0.170
-510.799	-66.386	-0.193	0.076
-509.785	-86.116	0.160	0.049
-508.770	432.051	0.062	-0.133
-507.756	-20.305	-0.096	0.058
-506.741	51.349	0.104	0.098
-505.726	667.349	-0.078	-0.200
-504.712	-87.337	0.275	0.083
-503.697	451.076	0.098	0.214
-502.683	800.000	-0.054	-0.178
-501.668	-23.994	-0.267	0.158
-500.653	319.706	-0.142	0.267
-499.639	202.999	-0.099	-0.152
-498.624	50.538	-0.298	-0.279
-497.610	-200.000	-0.046	-0.435
-496.595	84.903	0.137	0.148
-495.581	-152.142	0.350	0.025
-494.566	99.194	-0.214	-0.245
-493.551	196.778	-0.056	-0.085
-492.537	38.822	0.164	-0.145
-491.522	298.468	-0.248	-0.452
-490.508	-32.671	-0.215	0.118
-489.493	-85.721	0.234	-0.072
-488.478	325.923	-0.125	-0.236
-487.464	-116.923	-0.273	0.049
-486.449	-50.372	-0.205	-0.096
-485.435	-40.309	0.419	-0.216
-484.420	416.254	-0.039	-0.083
-483.405	466.223	-0.148	0.328
-482.391	-72.940	-0.341	-0.124
-481.376	-89.147	0.249	0.073
-480.362	-21.131	0.303	-0.184
-479.347	14.439	-0.122	0.094
-478.332	-70.946	-0.080	0.030
-477.318	25.840	-0.213	0.176
-476.303	-200.000	-0.006	-0.088
-475.289	80.014	0.180	-0.192
-474.274	-30.628	0.150	-0.084
-473.259	-130.756	-0.212	0.028
-472.245	-55.301	0.288	0.128
-471.230	-200.000	0.002	-0.104
-470.216	199.368	-0.222	0.337
-469.201	-95.669	0.261	0.069
-468.186	-125.048	0.228	0.035
-467.172	42.780	0.087	0.079
-466.157	-200.000	-0.008	0.169
-465.143	-123.813	-0.241	-0.038
-464.128	-96.536	-0.188	-0.049
-463.113	-200.000	-0.019	-0.132
-462.099	344.963	-0.011	-0.022
-461.084	-21.893	-0.201	0.121
-460.070	370.693	0.102	0.204
-459.055	800.000	0.040	-0.130
-458.040	-200.000	-0.020	-0.390
-457.026	-67.627	-0.115	0.044
-456.011	9.439	-0.085	-0.064
-454.997	800.000	-0.062	0.185
-453.982	-152.761	-0.103	0.007
-452.968	647.168	-0.067	0.169
-451.953	313.052	-0.053	0.099
-450.938	77.365	0.359	0.377
-449.924	-66.785	-0.177	-0.069
-448.909	-149.305	0.272	-0.021
-447.895	-200.000	-0.018	0.197
-446.880	38.987	-0.052	-0.046
-445.865	-200.000	0.004	0.034
-444.851	539.375	-0.149	-0.350
-443.836	95.459	-0.165	0.186
-442.822	-200.000	-0.012	-0.173
-441.807	-138.682	0.356	0.039
-440.792	-79.810	-0.187	-0.062
-439.778	-79.461	0.149	0.050
-438.763	-200.000	-0.010	0.113
-437.749	800.000	0.078	-0.232
-436.734	-144.840	0.264	-0.024
-435.719	-127.244	0.335	0.048
-434.705	402.073	-0.051	-0.105
-433.690	595.354	-0.053	-0.130
-432.676	800.000	-0.101	-0.329
-431.661	-200.000	-0.023	0.380
-430.646	240.670	-0.143	0.235
-429.632	-200.000	-0.010	0.297
-428.617	196.267	0.172	0.259
-427.603	-29.143	-0.081	0.046
-426.588	-31.448	-0.064	-0.035
-425.573	205.659	0.112	0.172
-424.559	800.000	-0.042	-0.122
-423.544	-117.879	0.116	-0.020
-422.530	651.042	0.139	-0.352
-421.515	193.270	0.057	-0.085
-420.500	800.000	-0.031	0.096
-419.486	-99.847	-0.153	0.038
-418.471	506.735	-0.148	0.340
-417.457	-133.491	0.195	0.024
-416.442	669.845	0.101	-0.258
-415.428	800.000	0.086	-0.347
-414.413	-13.382	0.253	-0.162
-413.398	-20.459	-0.269	-0.163
-412.384	-150.131	-0.338	0.026
-411.369	400.492	0.053	0.111
-410.355	-200.000	-0.035	-0.178
-409.340	-35.843	0.005	0.003
-408.325	12.662	-0.166	0.127
-407.311	-141.992	0.146	0.014
-406.296	-200.000	-0.002	0.177
-405.282	-77.056	-0.116	0.040
-404.267	344.537	0.091	0.176
-403.252	95.652	-0.161	0.182
-402.238	426.366	0.135	-0.288
-401.223	800.000	-0.095	-0.287
-400.209	60.478	0.117	0.114
-399.194	-200.000	0.002	-0.014
-398.179	18.697	-0.113	-0.089
-397.165	-131.990	0.247	0.032
-396.150	26.956	0.160	0.132
-395.136	-68.861	0.091	0.035
-394.121	29.655	0.039	-0.033
-393.106	-61.132	0.100	0.042
-392.092	800.000	-0.023	0.071
-391.077	-200.000	0.046	-0.237
-390.063	54.723	0.168	0.160
-389.048	-58.606	0.200	-0.085
-388.033	19.413	0.142	-0.112
-387.019	-57.010	0.279	0.121
-386.004	-174.219	-0.271	-0.008
-384.990	-68.035	0.140	0.054
-383.975	463.393	-0.050	-0.111
-382.960	218.203	0.227	-0.358
-381.946	-122.032	0.206	-0.033
-380.931	-118.211	0.101	0.018
-379.917	-120.367	-0.172	0.029
-378.902	23.615	-0.251	0.204
-377.888	-98.910	0.251	0.063
-376.873	-91.303	-0.227	-0.064
-375.858	-200.000	0.014	-0.097
-374.844	736.068	0.086	-0.228
-373.829	800.000	0.188	-0.558
-372.815	-29.148	-0.216	0.122
-371.800	-200.000	-0.020	-0.359
-370.785	-200.000	-0.036	0.350
-369.771	-200.000	-0.023	-0.260
-368.756	-200.000	-0.087	0.491
-367.742	129.333	-0.129	0.162
-366.727	-184.233	-0.281	0.005
-365.712	-81.908	0.167	0.054
-364.698	-13.306	-0.160	0.103
-363.683	-200.000	0.004	0.169
-362.669	116.633	-0.242	-0.292
-361.654	83.009	0.181	-0.194
-360.639	-7.504	-0.208	0.138
-359.625	356.608	0.036	-0.072
-358.610	-58.111	0.112	-0.048
-357.596	-200.000	0.061	0.514
-356.581	751.877	-0.182	0.485
-355.566	49.253	-0.198	0.183
-354.552	-49.187	-0.175	0.083
-353.537	-167.468	0.284	-0.011
-352.523	141.898	0.056	0.073
-351.508	43.751	-0.195	-0.176
-350.493	404.369	0.198	0.411
-349.479	200.445	-0.081	0.123
-348.464	19.117	-0.215	-0.170
-347.450	-165.662	0.220	-0.009
-346.435	-58.514	-0.195	0.083
-345.420	141.380	-0.177	0.231
-344.406	-112.825	-0.138	-0.027
-343.391	13.532	0.194	-0.148
-342.377	-68.513	0.099	0.038
-341.362	40.256	0.227	0.201
-340.348	41.241	-0.125	-0.111
-339.333	145.978	0.212	-0.279
-338.318	321.191	0.115	0.215
-337.304	-200.000	0.033	-0.198
-336.289	-120.965	0.047	0.008
-335.275	-78.525	0.106	-0.036
-334.260	9.536	0.212	-0.158
-333.245	-15.465	0.179	-0.113
-332.231	35.380	-0.040	-0.034
-331.216	-131.929	0.210	-0.027
-330.202	-134.622	-0.228	-0.027
-329.187	451.386	0.056	0.123
-328.172	800.000	0.076	-0.259
-327.158	175.019	0.090	-0.128
-326.143	677.312	0.131	-0.335
-325.129	44.604	0.158	0.143
-324.114	99.527	-0.148	-0.169
-323.099	271.921	0.138	-0.240
-322.085	-184.865	0.074	0.001
-321.070	-81.586	0.293	0.095
-320.056	-200.000	0.018	-0.308
-319.041	636.116	0.122	-0.305
-318.026	85.621	0.050	-0.054
-317.012	800.000	0.132	0.361
-315.997	63.728	-0.194	0.192
-314.983	214.997	0.123	0.191
-313.968	1.008	0.302	0.213
-312.953	-85.606	0.283	-0.087
-311.939	-90.665	0.286	0.081
-310.924	265.131	0.177	0.303
-309.910	194.236	0.120	-0.179
-308.895	-200.000	0.024	0.391
-307.880	-196.730	0.118	-0.001
-306.866	-200.000	0.006	0.050
-305.851	126.877	0.169	0.210
-304.837	-200.000	0.011	-0.164
-303.822	-18.151	0.164	0.101
-302.807	128.997	0.119	0.149
-301.793	74.542	-0.204	0.210
-300.778	-101.459	-0.217	-0.052
-299.764	-145.685	0.125	-0.011
-298.749	13.057	-0.317	-0.241
-297.735	41.449	0.126	-0.112
-296.720	11.498	0.231	-0.174
-295.705	-63.663	-0.043	-0.017
-294.691	-2.604	-0.196	-0.135
-293.676	-28.331	0.131	0.074
-292.662	800.000	0.055	0.155
-291.647	-139.666	-0.224	0.023
-290.632	-200.000	0.071	-0.462
-289.618	-124.168	-0.297	0.046
-288.603	-200.000	-0.004	0.039
-287.589	-22.192	-0.384	0.229
-286.574	-200.000	-0.057	0.345
-285.559	-144.172	0.496	-0.046
-284.545	750.126	-0.134	0.354
-283.530	-8.255	0.292	-0.193
-282.516	298.739	0.151	0.274
-281.501	-24.785	-0.217	0.127
-280.486	-200.000	0.017	-0.129
-279.472	-200.000	0.006	0.107
-278.457	-108.342	0.302	0.064
-277.443	36.686	-0.289	0.251
-276.428	14.649	-0.144	0.110
-275.413	-98.482	-0.146	0.037
-274.399	-200.000	-0.002	0.091
-273.384	-200.000	-0.048	-0.334
-272.370	88.478	-0.216	0.236
-271.355	597.874	0.099	0.242
-270.340	-200.000	-0.081	0.432
-269.326	-122.600	0.312	0.050
-268.311	-132.034	0.272	-0.035
-267.297	696.310	0.125	-0.323
-266.282	463.293	0.102	0.223
-265.267	394.208	0.119	-0.244
-264.253	-200.000	-0.114	-0.000
-263.238	-24.226	0.081	-0.047
-262.224	-200.000	-0.013	0.442
-261.209	-85.831	0.275	-0.084
-260.195	18.320	0.054	0.042
-259.180	286.293	0.088	0.157
-258.165	-98.078	0.241	-0.061
-257.151	-64.357	0.091	0.036
-256.136	-55.282	-0.327	-0.144
-255.122	800.000	0.003	0.013
-254.107	214.438	0.206	0.320
-253.092	174.919	0.095	-0.135
-252.078	-55.602	-0.243	-0.107
-251.063	624.563	-0.135	0.334
-250.049	-97.911	0.184	-0.047
-249.034	-200.000	-0.029	0.205
-248.019	73.487	-0.167	-0.171
-247.005	307.440	-0.191	0.350
-245.990	-31.473	0.147	-0.081
-244.976	2.993	0.246	0.175
-243.961	329.329	0.101	-0.191
-242.946	-159.779	-0.258	0.014
-241.932	244.588	0.094	0.155
-240.917	-200.000	-0.011	-0.114
-239.903	549.150	-0.100	0.235
-238.888	8.288	-0.099	0.073
-237.873	-200.000	-0.040	-0.262
-236.859	-200.000	0.007	0.129
-235.844	-11.265	0.114	-0.074
-234.830	-1.439	-0.028	-0.019
-233.815	-52.171	-0.338	-0.154
-232.800	221.974	0.241	-0.380
-231.786	-200.000	0.058	-0.392
-230.771	-63.204	-0.405	-0.163
-229.757	-57.150	-0.097	0.042
-228.742	800.000	0.157	0.538
-227.727	-37.004	-0.209	0.110
-226.713	171.834	0.131	-0.184
-225.698	800.000	0.065	-0.218
-224.684	-200.000	0.106	-0.493
-223.669	142.357	-0.138	0.179
-222.655	800.000	0.049	0.162
-221.640	-200.000	-0.008	0.121
-220.625	-150.545	0.182	0.014
-219.611	207.565	0.107	0.163
-218.596	-150.169	-0.209	0.016
-217.582	314.190	-0.140	0.258
-216.567	-81.351	0.146	0.047
-215.552	668.311	0.168	0.425
-214.538	-11.098	-0.219	0.141
-213.523	-200.000	-0.018	0.228
-212.509	49.261	0.247	-0.228
-211.494	-200.000	-0.033	0.175
-210.479	-200.000	-0.002	-0.010
-209.465	646.918	0.099	-0.247
-208.450	-113.477	-0.173	-0.033
-207.436	-200.000	0.026	0.258
-206.421	113.420	0.112	0.133
-205.406	-118.853	-0.101	-0.017
-204.392	-112.066	0.144	0.028
-203.377	517.295	0.084	-0.193
-202.363	-151.464	0.406	0.029
-201.348	-30.626	-0.193	-0.107
-200.333	-44.651	-0.129	0.063
-199.319	-200.000	-0.028	-0.147
-198.304	-200.000	-0.043	-0.257
-197.290	62.803	-0.206	-0.201
-196.275	334.098	-0.131	-0.248
-195.260	36.911	0.183	0.159
-194.246	670.879	0.075	0.190
-193.231	72.834	0.126	-0.129
-192.217	800.000	0.013	-0.046
-191.202	-200.000	0.087	0.474
-190.187	39.717	0.066	-0.058
-189.173	616.850	-0.025	-0.062
-188.158	800.000	-0.027	0.102
-187.144	-199.302	0.332	0.002
-186.129	-109.254	-0.040	0.008
-185.114	-158.481	-0.342	0.019
-184.100	-52.977	-0.036	-0.016
-183.085	185.491	-0.127	0.184
-182.071	62.524	0.158	-0.154
-181.056	729.582	-0.074	0.193
-180.042	-200.000	-0.024	0.200
-179.027	-200.000	0.005	-0.400
-178.012	101.657	-0.138	-0.157
-176.998	800.000	0.059	-0.220
-175.983	-200.000	0.012	-0.508
-174.969	-200.000	-0.017	-0.499
-173.954	123.569	0.050	-0.061
-172.939	-85.023	0.250	0.077
-171.925	19.912	-0.147	-0.116
-170.910	646.167	-0.096	-0.240
-169.896	-200.000	0.040	0.259
-168.881	173.558	0.096	0.135
-167.866	-200.000	-0.026	0.141
-166.852	800.000	0.133	-0.399
-165.837	-175.296	-0.109	0.003
-164.823	339.364	0.048	0.092
-163.808	-34.768	-0.264	0.141
-162.793	-60.261	-0.175	-0.073
-161.779	224.503	-0.096	0.152
-160.764	-58.992	0.218	0.092
-159.750	-155.722	-0.230	-0.014
-158.735	438.188	-0.051	0.108
-157.720	-92.631	0.213	0.058
-156.706	51.520	0.075	0.070
-155.691	-200.000	-0.045	-0.357
-154.677	-54.755	0.092	0.041
-153.662	-142.455	-0.432	0.041
-152.647	-200.000	0.048	-0.209
-151.633	27.942	-0.136	0.112
-150.618	-105.455	-0.419	0.093
-149.604	-177.403	-0.067	0.002
-148.589	-200.000	-0.042	0.271
-147.574	-54.080	0.232	0.103
-146.560	0.769	-0.117	-0.082
-145.545	800.000	-0.053	-0.216
-144.531	-200.000	-0.004	-0.021
-143.516	-132.556	-0.402	-0.050
-142.502	87.651	-0.298	-0.322
-141.487	800.000	-0.101	0.310
-140.472	-200.000	-0.004	0.051
-139.458	-200.000	-0.023	0.164
-138.443	28.862	-0.105	0.087
-137.429	800.000	0.037	0.103
-136.414	182.361	-0.050	0.072
-135.399	-200.000	-0.012	0.227
-134.385	-140.268	0.083	-0.009
-133.370	-200.000	0.013	-0.082
-132.356	-65.504	-0.228	0.089
-131.341	521.138	0.037	-0.084
-130.326	18.719	-0.264	0.207
-129.312	-45.402	0.115	0.056
-128.297	-91.934	0.099	0.028
-127.283	-64.623	-0.124	-0.049
-126.268	276.736	-0.139	-0.241
-125.253	-116.186	-0.037	0.007
-124.239	-200.000	0.015	-0.196
-123.224	800.000	0.021	-0.082
-122.210	79.270	-0.058	-0.061
-121.195	184.909	-0.030	-0.043
-120.180	-165.950	0.219	0.009
-119.166	191.002	-0.053	-0.078
-118.151	-19.779	0.388	-0.234
-117.137	128.773	-0.134	0.166
-116.122	-24.160	0.328	0.191
-115.107	16.870	0.044	0.034
-114.093	202.380	0.153	0.231
-113.078	-200.000	-0.019	-0.093
-112.064	-100.943	0.176	0.042
-111.049	45.348	0.050	-0.045
-110.034	-138.306	0.173	0.019
-109.020	-101.096	0.280	-0.067
-108.005	-200.000	0.004	0.175
-106.991	83.948	0.244	-0.260
-105.976	1.749	-0.315	-0.222
-104.962	-142.242	0.098	0.009
-103.947	26.344	0.181	0.147
-102.932	-91.261	0.129	0.036
-101.918	-109.763	-0.219	-0.045
-100.903	-200.000	0.014	-0.317
-99.889	21.952	0.157	-0.125
-98.874	277.703	0.058	-0.101
-97.859	337.472	0.129	0.245
-96.845	-200.000	0.051	0.235
-95.830	-133.184	-0.205	-0.025
-94.816	209.266	0.139	0.212
-93.801	800.000	-0.057	-0.157
-92.786	800.000	-0.032	-0.086
-91.772	-200.000	-0.028	-0.217
-90.757	800.000	0.084	-0.307
-89.743	-78.792	-0.333	-0.111
-88.728	-36.678	-0.363	-0.190
-87.713	-4.512	-0.072	-0.048
-86.699	407.829	0.008	0.017
-85.684	11.612	0.210	-0.157
-84.670	-83.906	-0.195	0.061
-83.655	-128.868	0.246	-0.034
-82.640	81.929	-0.204	-0.215
-81.626	486.590	0.144	-0.321
-80.611	800.000	-0.089	-0.366
-79.597	708.924	-0.162	-0.417
-78.582	-76.893	-0.053	-0.018
-77.567	-100.366	0.348	-0.084
-76.553	218.555	-0.036	0.056
-75.538	391.011	-0.095	0.191
-74.524	17.697	0.037	0.028
-73.509	325.410	-0.133	-0.248
-72.494	-148.936	0.271	0.021
-71.480	-119.952	0.067	0.011
-70.465	51.995	-0.133	0.124
-69.451	-88.527	0.034	-0.010
-68.436	-0.230	0.201	0.140
-67.422	2.778	0.037	0.026
-66.407	186.634	-0.234	-0.339
-65.392	800.000	0.133	0.461
-64.378	-14.309	0.168	0.106
-63.363	800.000	-0.013	-0.056
-62.349	-148.870	0.378	0.030
-61.334	89.255	-1.094	-1.187
-60.319	105.708	0.723	0.832
-59.305	216.307	-0.824	-1.275
-58.290	738.159	0.666	1.741
-57.276	751.237	0.680	1.788
-56.261	-200.000	135.907	642.896
-55.246	333.824	1662.142	3130.116
-54.232	134.420	2801.276	3536.087
-53.217	83.240	2197.242	2328.599
-52.203	29.641	1712.525	1418.394
-51.188	22.508	1536.221	1223.000
-50.173	21.052	1514.777	1195.904
-49.159	44.572	1592.136	1424.086
-48.144	40.780	1601.456	1405.591
-47.130	22.659	1550.584	1235.290
-46.115	19.951	1534.726	1203.812
-45.100	19.832	1530.503	1199.625
-44.086	19.758	1529.295	1198.119
-43.071	19.743	1527.194	1196.317
-42.057	19.733	1525.478	1194.856
-41.042	19.773	1524.189	1194.080
-40.027	19.688	1523.085	1192.580
-39.013	19.731	1521.038	1191.226
-37.998	19.579	1520.549	1189.748
-36.984	19.698	1518.624	1189.014
-35.969	19.742	1517.261	1188.200
-34.954	19.639	1516.056	1186.503
-33.940	19.696	1514.733	1185.811
-32.925	19.680	1513.717	1184.857
-31.911	19.710	1512.255	1183.871
-30.896	19.686	1510.903	1182.600
-29.881	19.898	1509.164	1182.643
-28.867	19.783	1508.576	1181.350
-27.852	19.852	1506.858	1180.432
-26.838	19.821	1505.061	1178.765
-25.823	19.830	1503.951	1177.908
-24.809	19.749	1502.016	1175.794
-23.794	19.850	1500.776	1175.466
-22.779	19.743	1499.633	1173.799
-21.765	19.771	1499.152	1173.565
-20.750	19.807	1497.537	1172.494
-19.736	19.852	1496.201	1171.708
-18.721	19.821	1495.240	1170.702
-17.706	19.781	1493.818	1169.267
-16.692	19.709	1493.198	1168.249
-15.677	19.780	1491.815	1167.604
-14.663	19.642	1491.387	1166.290
-13.648	19.771	1489.795	1165.866
-12.633	19.708	1488.945	1164.734
-11.619	19.820	1487.908	1164.628
-10.604	19.742	1487.386	1163.651
-9.590	19.752	1486.667	1163.105
-8.575	19.834	1485.290	1162.536
-7.560	19.741	1484.940	1161.588
-6.546	19.799	1483.742	1160.994
-5.531	19.715	1483.211	1159.968
-4.517	19.745	1481.806	1159.027
-3.502	19.785	1480.749	1158.422
-2.487	19.697	1480.034	1157.228
-1.473	19.755	1478.874	1156.662
-0.458	19.679	1477.540	1155.067
0.556	18.582	1468.188	1144.627
1.571	15.873	1445.100	1108.709
2.586	12.969	1384.025	1043.418
3.600	11.589	1300.455	972.121
4.615	10.813	1257.136	935.194
5.629	9.532	1200.194	885.712
6.644	4.968	1118.576	801.968
7.659	0.928	1085.048	757.673
8.673	0.623	1079.451	752.176
9.688	0.505	1076.024	749.137
10.702	0.495	1075.105	748.381
11.717	0.587	1072.365	746.866
12.731	2.088	1072.723	754.469
13.746	7.439	1079.651	785.833
14.761	13.577	1087.727	822.187
15.775	16.796	1091.499	840.966
16.790	16.708	1091.285	840.294
17.804	15.749	1088.905	833.636
18.819	15.088	1086.568	828.503
19.834	14.509	1085.525	824.770
20.848	14.272	1084.923	823.068
21.863	14.114	1083.335	821.011
22.877	13.834	1082.865	819.200
23.892	13.634	1081.861	817.384
24.907	13.536	1081.129	816.274
25.921	13.436	1080.854	815.501
26.936	13.499	1079.968	815.069
27.950	13.587	1078.946	814.660
28.965	13.660	1077.905	814.158
29.980	13.682	1077.521	813.907
30.994	13.613	1076.482	812.712
32.009	13.685	1076.010	812.636
33.023	13.790	1074.886	812.229
34.038	13.794	1074.424	811.827
35.053	13.770	1073.275	810.768
36.067	13.667	1072.620	809.699
37.082	13.763	1071.354	809.141
38.096	13.696	1070.655	808.215
39.111	13.711	1069.977	807.707
40.126	13.761	1068.693	806.906
41.140	13.694	1068.083	806.048
42.155	13.619	1067.335	805.051
43.169	13.575	1066.108	803.838
44.184	13.482	1065.099	802.557
45.199	13.554	1064.149	802.117
46.213	13.641	1062.656	801.342
47.228	13.588	1061.855	800.413
48.242	13.536	1060.961	799.416
49.257	13.778	1059.476	799.394
50.271	13.618	1058.762	798.015
51.286	13.680	1057.709	797.445
52.301	13.645	1057.390	796.969
53.315	13.642	1056.363	796.107
54.330	13.724	1055.639	795.887
55.344	13.560	1054.807	794.403
56.359	13.620	1053.356	793.527
57.374	13.651	1052.551	792.998
58.388	13.614	1051.868	792.235
59.403	13.651	1050.780	791.521
60.417	13.544	1050.587	790.798
61.432	13.563	1049.959	790.347
62.447	13.570	1048.800	789.435
63.461	13.595	1048.157	788.999
64.476	13.559	1046.662	787.635
65.490	13.547	1046.249	787.196
66.505	13.496	1045.223	786.112
67.520	13.524	1044.400	785.558
68.534	13.601	1043.667	785.305
69.549	13.735	1042.396	784.909
70.563	13.587	1041.916	783.781
71.578	13.570	1041.654	783.432
72.593	13.664	1040.123	782.654
73.607	13.562	1039.534	781.662
74.622	13.590	1038.647	781.059
75.636	13.408	1037.775	779.477
76.651	13.394	1037.269	778.959
77.666	13.510	1036.728	779.032
78.680	13.564	1035.558	778.336
79.695	13.549	1034.549	777.441
80.709	13.534	1034.397	777.185
81.724	13.683	1033.406	777.071
82.739	13.585	1032.773	776.067
83.753	13.712	1032.013	776.022
84.768	13.697	1031.109	775.202
85.782	13.685	1030.625	774.713
86.797	13.698	1029.590	773.928
87.812	13.871	1028.566	773.899
88.826	13.670	1028.240	772.648
89.841	13.692	1027.161	771.869
90.855	13.655	1025.983	770.744
91.870	13.759	1025.362	770.695
92.884	13.828	1024.503	770.300
93.899	13.838	1023.961	769.871
94.914	13.731	1023.232	768.759
95.928	13.760	1022.448	768.233
96.943	13.810	1021.828	767.932
97.957	13.801	1020.851	767.088
98.972	13.778	1019.861	766.171
99.987	13.813	1019.214	765.777
101.001	13.749	1018.698	765.027
102.016	13.808	1017.363	764.232
103.030	13.704	1016.535	763.060
104.045	13.809	1015.635	762.800
105.060	13.791	1014.630	761.898
106.074	13.751	1013.792	761.017
107.089	13.673	1013.289	760.212
108.103	13.838	1011.841	759.816
109.118	13.717	1011.297	758.786
110.133	13.713	1010.453	758.069
111.147	13.615	1009.458	756.805
112.162	13.639	1008.628	756.226
113.176	13.636	1007.728	755.473
114.191	13.850	1006.498	755.454
115.206	13.713	1005.941	754.348
116.220	13.748	1004.723	753.526
117.235	13.699	1003.990	752.690
118.249	13.673	1003.197	751.910
119.264	13.670	1001.897	750.855
120.279	13.784	1001.892	751.300
121.293	13.724	1000.438	749.871
122.308	13.708	1000.015	749.416
123.322	13.659	999.217	748.529
124.337	13.538	998.204	747.162
125.352	13.622	996.893	746.492
126.366	13.688	995.321	745.545
127.381	13.740	994.072	744.779
128.395	13.622	993.409	743.684
129.410	13.760	992.130	743.282
130.424	13.652	991.723	742.427
131.439	13.674	990.735	741.718
132.454	13.616	990.360	741.113
133.468	13.680	989.404	740.619
134.483	13.683	988.630	739.987
135.497	13.729	987.993	739.649
136.512	13.677	987.154	738.724
137.527	13.675	986.541	738.191
138.541	13.800	985.665	738.028
139.556	13.791	984.619	737.140
140.570	13.720	984.551	736.705
141.585	13.705	983.541	735.819
142.600	13.817	982.691	735.616
143.614	13.926	981.710	735.296
144.629	13.893	980.970	734.532
145.643	13.929	980.219	734.064
146.658	13.793	979.565	732.910
147.673	13.962	978.575	732.847
148.687	13.780	977.720	731.343
149.702	13.808	976.722	730.652
150.716	13.877	975.419	729.916
151.731	13.877	974.910	729.475
152.746	13.812	974.754	729.007
153.760	13.978	973.432	728.681
154.775	13.844	972.956	727.670
155.789	13.890	972.052	727.134
156.804	13.955	971.149	726.678
157.819	13.880	970.432	725.748
158.833	14.016	970.067	726.005
159.848	14.022	969.351	725.431
160.862	14.155	968.293	725.157
161.877	14.075	967.606	724.228
162.892	13.988	966.715	723.121
163.906	13.917	966.358	722.482
164.921	14.026	964.993	721.868
165.935	13.893	964.347	720.747
166.950	13.919	963.163	719.907
167.964	14.033	962.518	719.857
168.979	14.171	960.962	719.226
169.994	14.103	960.120	718.238
171.008	14.153	958.851	717.441
172.023	14.103	958.726	717.070
173.037	14.221	957.803	716.821
174.052	14.190	957.210	716.182
175.067	14.191	956.316	715.455
176.081	13.934	956.102	714.124
177.096	14.111	954.612	713.711
178.110	14.197	953.834	713.433
179.125	14.096	952.911	712.246
180.140	14.135	952.279	711.879
181.154	14.214	951.213	711.359
182.169	14.145	951.137	710.943
183.183	14.213	950.326	710.565
184.198	14.285	949.624	710.284
185.213	14.229	948.771	709.341
186.227	14.211	948.258	708.821
187.242	14.260	947.958	708.742
188.256	14.306	947.142	708.263
189.271	14.401	946.334	708.004
190.286	14.416	945.637	707.483
191.300	14.317	944.736	706.326
192.315	14.183	944.133	705.244
193.329	14.248	943.184	704.747
194.344	14.093	942.601	703.592
195.359	14.242	942.245	703.895
196.373	14.382	941.476	703.851
197.388	14.406	940.693	703.304
198.402	14.326	940.275	702.592
199.417	14.488	940.006	703.011
200.432	14.452	939.645	702.530
201.446	14.611	938.703	702.429
202.461	14.597	938.508	702.163
203.475	14.694	937.520	701.772
204.490	14.479	937.446	700.751
205.504	14.547	936.224	700.057
206.519	14.583	935.400	699.531
207.534	14.693	934.686	699.398
208.548	14.617	934.104	698.582
209.563	14.545	933.387	697.681
210.577	14.443	932.677	696.665
211.592	14.554	932.039	696.590
212.607	14.751	931.180	696.706
213.621	14.767	930.759	696.399
214.636	14.664	930.407	695.641
215.650	14.653	929.727	695.025
216.665	14.682	928.925	694.486
217.680	14.651	928.475	693.958
218.694	14.750	928.199	694.102
219.709	14.839	927.355	693.782
220.723	14.818	926.510	692.998
221.738	14.794	926.088	692.522
222.753	14.716	925.346	691.583
223.767	14.869	924.025	691.169
224.782	14.827	923.595	690.612
225.796	14.956	922.588	690.329
226.811	15.113	921.545	690.135
227.826	14.814	921.710	688.966
228.840	14.914	920.701	688.562
229.855	14.890	920.140	687.984
230.869	14.929	919.033	687.255
231.884	15.019	918.292	687.010
232.899	14.863	917.932	686.039
233.913	14.812	917.665	685.569
234.928	14.912	916.862	685.318
235.942	14.860	916.320	684.639
236.957	14.906	915.154	683.896
237.972	14.980	914.493	683.644
238.986	14.934	914.250	683.215
240.001	14.918	913.386	682.443
241.015	14.993	912.321	681.894
242.030	15.056	911.760	681.669
243.045	14.951	911.550	681.025
244.059	15.118	911.017	681.245
245.074	15.027	909.799	679.906
246.088	15.092	909.139	679.614
247.103	15.062	908.588	679.023
248.117	15.020	908.102	678.428
249.132	15.083	907.249	677.988
250.147	15.273	906.337	678.011
251.161	15.155	905.891	677.142
252.176	15.360	905.296	677.468
253.190	15.334	904.481	676.693
254.205	15.399	903.785	676.374
255.220	15.199	903.880	675.576
256.234	15.415	902.540	675.386
257.249	15.335	902.430	674.921
258.263	15.317	902.017	674.481
259.278	15.395	900.885	673.886
260.293	15.308	901.033	673.590
261.307	15.454	899.750	673.156
262.322	15.586	899.075	673.121
263.336	15.475	898.575	672.241
264.351	15.481	898.013	671.786
265.366	15.709	897.168	672.006
266.380	15.711	896.680	671.589
267.395	15.506	896.524	670.596
268.409	15.669	895.075	670.100
269.424	15.579	894.708	669.410
270.439	15.558	893.786	668.577
271.453	15.556	893.055	667.963
272.468	15.607	892.401	667.617
273.482	15.536	892.009	666.983
274.497	15.638	891.024	666.589
275.512	15.659	890.651	666.337
276.526	15.648	889.537	665.400
277.541	15.674	889.011	665.049
278.555	15.738	888.286	664.704
279.570	15.738	887.502	664.057
280.585	15.907	886.682	664.050
281.599	15.867	886.157	663.442
282.614	15.789	885.697	662.731
283.628	15.727	885.372	662.186
284.643	15.871	884.929	662.363
285.657	15.799	884.391	661.617
286.672	15.899	883.746	661.471
287.687	15.775	883.234	660.542
288.701	15.980	882.266	660.561
289.716	15.873	882.185	660.024
290.730	15.851	881.801	659.594
291.745	15.999	880.872	659.418
292.760	16.073	880.080	659.055
293.774	15.917	879.447	657.916
294.789	15.985	878.758	657.607
295.803	16.076	878.214	657.495
296.818	16.084	877.378	656.842
297.833	16.040	877.006	656.335
298.847	16.197	875.878	656.045
299.862	16.015	875.400	654.921
300.876	15.981	875.056	654.474
301.891	16.080	874.340	654.263
302.906	16.174	873.469	653.917
303.920	16.179	872.817	653.391
304.935	16.189	872.042	652.791
305.949	16.167	871.629	652.341
306.964	16.289	870.842	652.163
307.979	16.205	870.237	651.328
308.993	16.297	869.692	651.219
310.008	16.253	869.635	650.948
311.022	16.222	868.999	650.295
312.037	16.271	868.675	650.183
313.052	16.379	867.681	649.801
314.066	16.092	867.272	648.333
315.081	16.239	866.821	648.502
316.095	16.229	866.052	647.829
317.110	16.337	865.388	647.690
318.125	16.320	864.700	647.055
319.139	16.342	864.011	646.564
320.154	16.344	863.659	646.252
321.168	16.222	863.356	645.501
322.183	16.413	862.248	645.343
323.197	16.609	861.871	645.752
324.212	16.485	861.050	644.610
325.227	16.470	860.577	644.139
326.241	16.437	860.360	643.796
327.256	16.581	859.677	643.776
328.270	16.468	858.930	642.729
329.285	16.466	858.522	642.359
330.300	16.486	857.914	641.924
331.314	16.422	857.480	641.298
332.329	16.525	856.622	640.991
333.343	16.495	856.104	640.434
334.358	16.631	855.319	640.305
335.373	16.517	855.152	639.692
336.387	16.567	854.465	639.311
337.402	16.661	854.049	639.297
338.416	16.466	853.431	638.040
339.431	16.471	853.145	637.790
340.446	16.818	852.052	638.225
341.460	16.739	851.776	637.665
342.475	16.708	850.970	636.887
343.489	16.700	850.708	636.603
344.504	16.640	850.180	635.926
345.519	16.868	849.273	636.047
346.533	16.894	848.955	635.852
347.548	16.792	848.822	635.315
348.562	16.827	848.197	634.921
349.577	16.837	847.655	634.498
350.592	16.750	847.104	633.704
351.606	16.928	846.008	633.491
352.621	16.853	845.745	632.960
353.635	16.735	845.825	632.520
354.650	16.657	845.573	631.985
355.665	16.894	844.590	632.078
356.679	17.017	844.099	632.112
357.694	16.835	843.668	631.058
358.708	16.938	842.878	630.794
359.723	16.991	842.014	630.288
360.738	17.008	841.651	630.023
361.752	17.076	841.123	629.826
362.767	16.974	841.186	629.439
363.781	17.043	840.417	629.062
364.796	17.066	840.115	628.868
365.810	17.119	839.692	628.689
366.825	17.116	838.925	628.050
367.840	17.148	839.021	628.184
368.854	17.110	838.554	627.638
369.869	17.246	837.670	627.422
370.883	17.104	837.414	626.651
371.898	17.188	836.506	626.227
372.913	17.152	836.248	625.847
373.927	17.370	835.327	625.905
374.942	17.267	835.016	625.235
375.956	17.334	833.979	624.648
376.971	17.399	833.657	624.591
377.986	17.385	833.243	624.174
379.000	17.461	832.857	624.111
380.015	17.393	832.092	623.231
381.029	17.437	831.608	622.976
382.044	17.415	831.326	622.629
383.059	17.490	830.233	622.028
384.073	17.327	829.965	621.178
385.088	17.377	829.252	620.772
386.102	17.423	828.916	620.634
387.117	17.316	828.417	619.815
388.132	17.356	827.899	619.519
389.146	17.549	827.247	619.679
390.161	17.516	826.749	619.131
391.175	17.438	826.400	618.531
392.190	17.454	826.650	618.722
393.205	17.438	825.814	617.980
394.219	17.621	825.254	618.171
395.234	17.402	824.963	617.104
396.248	17.521	824.082	616.824
397.263	17.495	823.775	616.445
398.278	17.621	822.998	616.264
399.292	17.590	822.485	615.712
400.307	17.584	822.379	615.557
401.321	17.521	822.110	615.076
402.336	17.490	821.610	614.535
403.350	17.679	820.823	614.573
404.365	17.586	820.668	614.068
405.380	17.605	820.437	613.908
406.394	17.733	819.748	613.799
407.409	17.616	819.425	613.083
408.423	17.807	818.916	613.332
409.438	17.797	818.352	612.821
410.453	17.876	817.889	612.705
411.467	17.873	817.326	612.215
412.482	17.748	817.337	611.723
413.496	17.868	816.552	611.512
414.511	18.044	815.737	611.475
415.526	17.775	816.110	610.739
416.540	17.928	815.397	610.700
417.555	17.984	814.386	610.088
418.569	18.003	814.233	609.987
419.584	18.023	813.721	609.622
420.599	18.027	813.253	609.232
421.613	115.124	1300.142	1491.389
422.628	99.684	1371.016	1491.489
