DTS Sentinel unit serial number:	SN413079Multiplexer serial number:	ORYXHardware model number:	OX4-SRSoftware version number:	ORYX F/W v4.00 Oryx Data Collector v3.7.2.0data status	okinstallation	princeton_trtdifferential loss correction	single-endedforward channel	channel 3reverse channel	N/Adate	2019/09/16time	17:56:35forward acquisition time	60.00reverse acquisition time	0.00gamma	496.2192k internal	0.2300k external	0.2300temperature offset calibration	0.9945default loss term (dB/km)	0.3790temperature slope calibration	1.0000multiplexer offset coefficient	1.0000multiplexer slope coefficient	1.0000fibre end	0.00T internal ref (°C)	37.75T ext. ref 1 (°C)	15.63T ext. ref 2 (°C)	31.52length (m)	temperature (°C)	Stokes	anti-Stokes-747.200	34.182	-0.106	0.094
-746.185	95.509	0.107	-0.124
-745.171	170.879	-0.253	-0.370
-744.156	-184.252	0.272	0.005
-743.142	-115.106	-0.098	-0.019
-742.127	732.528	0.125	0.341
-741.112	-82.892	-0.247	0.081
-740.098	120.116	0.209	0.264
-739.083	800.000	0.085	0.259
-738.069	280.218	-0.158	0.288
-737.054	-49.021	0.230	-0.112
-736.039	-44.896	-0.321	0.163
-735.025	146.167	0.148	0.203
-734.010	-200.000	-0.021	0.145
-732.996	-200.000	0.018	-0.367
-731.981	-161.780	0.201	-0.010
-730.966	-108.436	-0.270	0.059
-729.952	268.773	-0.069	-0.123
-728.937	-91.957	-0.301	0.087
-727.923	764.015	0.041	-0.114
-726.908	327.437	-0.012	0.023
-725.894	800.000	-0.074	0.224
-724.879	-31.237	0.250	-0.144
-723.864	197.314	-0.093	0.144
-722.850	55.822	-0.046	0.046
-721.835	0.593	0.114	-0.083
-720.821	239.581	-0.088	-0.150
-719.806	100.125	0.259	-0.306
-718.791	800.000	-0.057	-0.187
-717.777	-200.000	0.017	-0.354
-716.762	800.000	-0.064	0.199
-715.748	-26.162	0.159	0.095
-714.733	-68.554	-0.162	0.064
-713.718	261.512	0.121	0.214
-712.704	-66.037	0.125	-0.051
-711.689	-170.023	-0.363	0.013
-710.675	800.000	-0.083	-0.251
-709.660	-15.279	-0.116	0.076
-708.645	90.897	-0.017	-0.019
-707.631	-9.110	-0.246	-0.167
-706.616	30.219	-0.215	-0.187
-705.602	106.215	-0.197	0.238
-704.587	179.595	-0.132	0.197
-703.572	-200.000	0.000	0.136
-702.558	-110.316	-0.248	-0.053
-701.543	-22.840	0.078	-0.048
-700.529	180.009	0.119	-0.178
-699.514	382.876	0.057	-0.119
-698.499	800.000	-0.027	-0.084
-697.485	157.778	-0.087	-0.123
-696.470	-200.000	-0.013	-0.126
-695.456	-0.240	0.201	0.146
-694.441	-200.000	-0.020	-0.137
-693.426	-200.000	-0.029	-0.147
-692.412	278.561	0.187	0.340
-691.397	239.837	0.120	-0.203
-690.383	53.903	-0.354	-0.346
-689.368	-133.446	-0.239	-0.031
-688.354	-64.807	0.113	-0.047
-687.339	800.000	0.074	0.212
-686.324	800.000	-0.068	0.239
-685.310	1.818	-0.206	-0.151
-684.295	122.596	0.095	-0.120
-683.281	-200.000	-0.018	-0.134
-682.266	-200.000	0.059	0.334
-681.251	-140.207	-0.317	-0.034
-680.237	-52.626	0.059	0.028
-679.222	-144.354	0.253	-0.024
-678.208	-200.000	-0.014	0.177
-677.193	-108.157	-0.089	0.020
-676.178	-48.183	-0.276	-0.136
-675.164	-106.344	-0.100	-0.023
-674.149	389.482	0.193	-0.407
-673.135	208.825	0.039	0.062
-672.120	-2.760	-0.197	-0.140
-671.105	791.037	-0.028	0.078
-670.091	34.320	0.123	0.109
-669.076	-111.222	0.124	0.026
-668.062	-146.200	0.159	-0.014
-667.047	236.079	0.038	-0.064
-666.032	-200.000	0.006	0.051
-665.018	38.034	0.160	0.144
-664.003	-102.411	-0.013	0.003
-662.989	-16.298	0.209	-0.135
-661.974	-121.781	-0.278	-0.047
-660.959	625.549	-0.038	0.098
-659.945	120.307	-0.281	-0.355
-658.930	-111.805	-0.229	0.047
-657.916	-102.512	-0.310	-0.075
-656.901	553.583	0.096	-0.235
-655.886	-200.000	0.006	0.166
-654.872	561.815	0.082	0.203
-653.857	514.499	-0.191	-0.453
-652.843	-58.962	0.212	-0.093
-651.828	-200.000	0.016	-0.159
-650.814	-125.047	-0.201	0.031
-649.799	16.075	-0.392	0.314
-648.784	406.411	0.142	-0.304
-647.770	-200.000	-0.030	-0.540
-646.755	747.541	-0.046	0.125
-645.741	29.709	0.140	0.121
-644.726	261.031	-0.103	-0.181
-643.711	326.897	0.086	-0.167
-642.697	-200.000	0.006	-0.129
-641.682	288.384	-0.058	-0.107
-640.668	55.064	-0.343	0.336
-639.653	-84.700	0.020	-0.007
-638.638	8.008	-0.223	-0.170
-637.624	800.000	-0.061	0.202
-636.609	223.249	0.082	0.134
-635.595	800.000	-0.121	-0.361
-634.580	-2.063	0.063	0.045
-633.565	-78.521	0.253	0.088
-632.551	800.000	-0.056	0.166
-631.536	49.578	0.316	0.302
-630.522	544.084	0.043	0.103
-629.507	307.480	0.095	-0.180
-628.492	-167.681	0.170	-0.007
-627.478	-36.986	0.255	0.139
-626.463	-77.642	0.423	0.149
-625.449	800.000	0.059	-0.176
-624.434	40.556	-0.409	-0.374
-623.419	439.214	0.135	-0.298
-622.405	16.538	0.362	0.290
-621.390	271.222	0.150	0.268
-620.376	-0.619	0.183	-0.131
-619.361	193.842	0.047	-0.072
-618.346	113.384	-0.089	-0.110
-617.332	-200.000	0.045	-0.217
-616.317	-44.195	0.177	-0.090
-615.303	-200.000	-0.032	-0.162
-614.288	69.252	-0.096	0.100
-613.273	315.861	-0.155	0.296
-612.259	71.934	-0.052	0.055
-611.244	-200.000	-0.004	-0.271
-610.230	-25.808	-0.316	0.189
-609.215	-200.000	0.031	0.232
-608.201	52.099	-0.109	-0.105
-607.186	-23.790	0.122	-0.074
-606.171	-106.511	-0.200	0.045
-605.157	3.702	-0.155	-0.115
-604.142	-45.460	-0.059	0.029
-603.128	-37.961	0.226	-0.122
-602.113	-55.787	-0.078	0.035
-601.098	153.994	-0.313	-0.436
-600.084	-111.822	-0.246	-0.050
-599.069	-2.949	0.408	0.289
-598.055	800.000	-0.098	-0.294
-597.040	-85.694	0.055	-0.017
-596.025	-71.497	-0.374	-0.142
-595.011	-200.000	-0.055	0.363
-593.996	205.250	0.036	-0.057
-592.982	-200.000	-0.050	0.361
-591.967	-44.629	0.125	0.063
-590.952	-97.547	0.216	-0.057
-589.938	251.732	-0.061	-0.105
-588.923	204.555	-0.019	0.030
-587.909	800.000	-0.061	0.177
-586.894	-144.411	-0.437	0.041
-585.879	800.000	-0.042	0.127
-584.865	-147.097	-0.416	0.036
-583.850	-200.000	0.018	-0.200
-582.836	106.178	-0.016	-0.019
-581.821	-63.069	0.123	-0.052
-580.806	-134.069	0.230	0.029
-579.792	-200.000	0.007	-0.092
-578.777	121.575	0.172	-0.218
-577.763	43.527	-0.179	-0.165
-576.748	-107.444	-0.046	-0.010
-575.733	106.374	-0.116	-0.140
-574.719	-36.437	-0.216	-0.118
-573.704	281.049	-0.088	-0.160
-572.690	-3.983	0.301	0.212
-571.675	37.188	0.203	-0.182
-570.661	-200.000	-0.062	0.312
-569.646	-200.000	0.034	0.175
-568.631	173.522	0.077	-0.112
-567.617	-14.421	-0.331	0.216
-566.602	800.000	-0.079	0.295
-565.588	533.833	-0.053	-0.128
-564.573	-199.540	-0.428	0.002
-563.558	-58.081	0.384	0.170
-562.544	-200.000	0.065	0.306
-561.529	-5.695	0.307	0.213
-560.515	493.796	0.053	-0.124
-559.500	-145.006	-0.127	-0.012
-558.485	84.829	-0.225	-0.250
-557.471	-200.000	0.002	-0.082
-556.456	131.056	-0.151	0.196
-555.442	346.997	-0.066	0.132
-554.427	119.344	-0.220	-0.275
-553.412	129.964	-0.248	-0.322
-552.398	-34.799	0.270	-0.149
-551.383	800.000	-0.100	0.331
-550.369	-7.123	-0.217	0.149
-549.354	-199.287	0.116	-0.001
-548.339	202.769	-0.120	0.187
-547.325	789.411	-0.024	-0.068
-546.310	-3.092	-0.170	-0.120
-545.296	800.000	-0.074	-0.221
-544.281	-200.000	0.043	0.258
-543.266	800.000	-0.061	-0.171
-542.252	-87.321	0.165	0.051
-541.237	-39.976	-0.233	-0.123
-540.223	153.775	0.087	0.120
-539.208	0.837	-0.096	0.069
-538.193	-19.142	0.151	-0.095
-537.179	33.984	0.082	0.072
-536.164	-107.724	-0.219	-0.048
-535.150	-136.973	0.335	0.039
-534.135	62.007	-0.139	-0.140
-533.121	83.564	-0.132	-0.146
-532.106	-106.889	-0.213	0.048
-531.091	198.314	-0.181	-0.280
-530.077	742.453	-0.074	-0.202
-529.062	800.000	-0.115	-0.408
-528.048	-200.000	0.004	-0.189
-527.033	-200.000	-0.025	-0.282
-526.018	-93.833	0.059	-0.016
-525.004	36.184	-0.158	-0.141
-523.989	-61.907	-0.227	-0.096
-522.975	496.192	-0.096	-0.223
-521.960	-200.000	-0.027	-0.160
-520.945	-163.491	0.316	-0.015
-519.931	-143.351	0.293	0.028
-518.916	240.633	0.099	0.166
-517.902	-22.108	-0.121	-0.074
-516.887	73.811	-0.056	-0.060
-515.872	-102.661	-0.292	0.070
-514.858	214.353	-0.195	0.312
-513.843	800.000	0.035	0.117
-512.829	800.000	-0.030	0.114
-511.814	-44.231	-0.316	0.160
-510.799	-105.657	0.198	-0.045
-509.785	243.166	0.092	0.155
-508.770	28.426	0.169	0.144
-507.756	92.122	0.230	-0.262
-506.741	334.442	0.027	-0.054
-505.726	800.000	-0.078	-0.270
-504.712	-49.577	0.182	-0.088
-503.697	-21.912	0.116	0.071
-502.683	-200.000	-0.010	0.087
-501.668	80.808	0.205	-0.223
-500.653	-45.093	-0.144	-0.072
-499.639	144.422	0.255	-0.344
-498.624	-59.945	-0.299	-0.129
-497.610	-131.741	-0.132	-0.017
-496.595	251.615	0.059	-0.101
-495.581	-42.504	0.312	-0.161
-494.566	-180.468	0.282	0.006
-493.551	-53.000	0.069	0.032
-492.537	-129.491	-0.026	0.004
-491.522	9.226	-0.146	0.111
-490.508	-5.758	-0.398	0.275
-489.493	-122.417	-0.399	-0.066
-488.478	-200.000	0.011	-0.132
-487.464	-35.168	0.162	0.089
-486.449	800.000	0.157	-0.462
-485.435	-23.843	0.189	0.114
-484.420	-5.345	0.111	-0.077
-483.405	-87.161	0.279	0.086
-482.391	-33.557	0.155	-0.087
-481.376	143.190	-0.237	0.319
-480.362	-185.293	-0.363	-0.006
-479.347	-200.000	-0.000	0.061
-478.332	646.603	0.090	-0.231
-477.318	90.471	0.117	-0.132
-476.303	-80.625	-0.205	-0.069
-475.289	79.127	-0.125	0.135
-474.274	572.434	-0.065	-0.161
-473.259	-81.751	-0.132	0.044
-472.245	256.498	-0.079	0.138
-471.230	95.896	-0.140	-0.161
-470.216	800.000	-0.077	-0.307
-469.201	714.282	0.077	-0.207
-468.186	-104.810	0.265	-0.061
-467.172	-84.486	-0.213	-0.068
-466.157	1.242	0.092	-0.067
-465.143	45.275	0.212	0.197
-464.128	-174.114	0.100	0.003
-463.113	160.618	0.109	-0.153
-462.099	-157.784	-0.126	0.008
-461.084	214.815	0.186	-0.298
-460.070	-200.000	0.050	-0.382
-459.055	-200.000	-0.019	-0.348
-458.040	-89.315	-0.016	0.005
-457.026	370.057	-0.019	0.038
-456.011	3.381	-0.247	-0.182
-454.997	-7.261	0.111	0.076
-453.982	34.912	-0.224	-0.198
-452.968	314.211	-0.083	-0.158
-451.953	-60.885	-0.370	-0.158
-450.938	-27.530	-0.049	-0.029
-449.924	384.627	-0.087	0.182
-448.909	5.487	0.240	0.178
-447.895	-7.948	0.210	-0.143
-446.880	800.000	-0.044	-0.126
-445.865	-117.067	-0.074	0.014
-444.851	81.530	-0.222	0.242
-443.836	-96.264	-0.128	-0.034
-442.822	-99.142	0.258	0.066
-441.807	337.382	0.048	-0.093
-440.792	19.500	0.099	0.081
-439.778	-61.611	-0.276	0.117
-438.763	101.824	-0.139	0.164
-437.749	667.619	0.125	0.326
-436.734	-127.090	-0.100	-0.015
-435.719	800.000	-0.012	0.039
-434.705	43.116	-0.232	0.213
-433.690	-200.000	-0.036	-0.162
-432.676	800.000	-0.031	-0.121
-431.661	-46.844	0.281	-0.139
-430.646	145.157	0.116	-0.157
-429.632	-83.261	-0.183	0.059
-428.617	-200.000	0.030	0.293
-427.603	327.297	0.070	0.136
-426.588	-55.066	-0.070	0.032
-425.573	-200.000	-0.018	0.284
-424.559	-200.000	-0.067	0.319
-423.544	433.403	-0.037	0.082
-422.530	127.080	-0.133	0.170
-421.515	359.124	-0.136	-0.273
-420.500	-200.000	0.034	-0.281
-419.486	175.407	-0.074	-0.108
-418.471	-158.703	0.224	0.013
-417.457	-176.570	-0.093	-0.002
-416.442	-112.868	-0.163	0.033
-415.428	123.649	0.173	-0.218
-414.413	-48.022	-0.071	0.035
-413.398	-136.648	-0.082	-0.010
-412.384	23.253	-0.133	0.110
-411.369	-200.000	-0.012	-0.121
-410.355	-36.561	0.264	0.143
-409.340	800.000	0.070	0.276
-408.325	800.000	-0.025	0.105
-407.311	800.000	-0.203	0.589
-406.296	34.688	0.063	0.056
-405.282	-200.000	0.103	0.471
-404.267	-200.000	-0.006	-0.131
-403.252	563.871	-0.180	-0.439
-402.238	440.158	-0.130	-0.286
-401.223	-62.022	0.308	0.129
-400.209	12.093	-0.131	0.102
-399.194	218.019	0.076	0.123
-398.179	81.787	-0.264	0.288
-397.165	-1.620	0.270	0.191
-396.150	-200.000	-0.074	-0.491
-395.136	-200.000	0.041	-0.184
-394.121	-200.000	-0.018	0.218
-393.106	757.437	0.057	0.155
-392.092	-72.630	0.195	-0.073
-391.077	-200.000	-0.072	0.462
-390.063	-200.000	0.012	0.055
-389.048	462.640	0.076	0.170
-388.033	-0.930	0.155	-0.110
-387.019	-19.662	0.529	0.329
-386.004	-200.000	-0.007	0.174
-384.990	178.433	0.228	0.335
-383.975	154.207	-0.059	-0.081
-382.960	-200.000	-0.039	0.277
-381.946	-162.987	-0.344	-0.017
-380.931	-76.495	-0.286	0.101
-379.917	33.696	0.040	0.035
-378.902	-200.000	0.021	-0.146
-377.888	0.246	-0.381	-0.273
-376.873	748.144	-0.044	0.120
-375.858	-200.000	-0.051	0.340
-374.844	-146.173	0.379	0.034
-373.829	-54.537	0.265	0.120
-372.815	40.252	0.305	0.276
-371.800	-146.042	0.533	0.047
-370.785	261.585	-0.136	-0.236
-369.771	163.527	-0.068	0.096
-368.756	-86.638	-0.150	0.046
-367.742	279.247	0.056	0.100
-366.727	345.850	-0.108	-0.213
-365.712	27.348	-0.080	0.068
-364.698	-78.583	0.157	0.054
-363.683	800.000	-0.090	-0.386
-362.669	-126.056	-0.125	0.019
-361.654	223.819	-0.089	-0.144
-360.639	-200.000	0.004	-0.196
-359.625	184.447	0.151	0.226
-358.610	515.692	0.102	0.240
-357.596	158.256	-0.096	-0.134
-356.581	-200.000	-0.023	-0.125
-355.566	-26.247	-0.077	-0.046
-354.552	2.264	0.286	-0.208
-353.537	25.158	0.165	0.137
-352.523	11.201	0.238	0.183
-351.508	14.953	0.191	-0.150
-350.493	-32.165	-0.186	-0.104
-349.479	-55.004	0.212	0.096
-348.464	800.000	-0.090	0.266
-347.450	-52.232	0.180	-0.084
-346.435	-153.147	0.232	-0.016
-345.420	-24.735	-0.387	-0.231
-344.406	34.807	0.122	-0.108
-343.391	-200.000	0.008	-0.239
-342.377	-200.000	-0.029	0.139
-341.362	-93.635	-0.163	-0.045
-340.348	87.786	0.041	0.046
-339.333	500.849	0.041	-0.096
-338.318	-200.000	0.034	0.204
-337.304	109.329	-0.112	0.134
-336.289	-84.430	0.348	0.110
-335.275	800.000	0.026	-0.092
-334.260	-121.669	-0.133	0.022
-333.245	-54.267	0.221	0.101
-332.231	-200.000	0.106	0.000
-331.216	-49.791	0.290	-0.138
-330.202	-10.536	0.216	-0.143
-329.187	32.230	0.196	-0.170
-328.172	800.000	0.061	-0.173
-327.158	-63.507	0.268	-0.110
-326.143	-63.564	0.136	0.056
-325.129	-61.252	-0.071	-0.030
-324.114	-149.397	-0.153	-0.012
-323.099	-200.000	-0.038	0.252
-322.085	-146.613	0.317	-0.028
-321.070	398.651	0.204	0.428
-320.056	-3.658	-0.126	-0.088
-319.041	-114.081	-0.146	-0.028
-318.026	-31.439	0.138	-0.078
-317.012	-8.265	-0.116	-0.078
-315.997	800.000	-0.016	0.057
-314.983	99.674	0.264	0.307
-313.968	69.684	0.209	0.216
-312.953	-97.065	-0.234	0.061
-311.939	-200.000	-0.056	0.519
-310.924	56.173	0.053	-0.051
-309.910	56.911	-0.164	-0.160
-308.895	-167.171	-0.226	-0.009
-307.880	-200.000	-0.066	0.399
-306.866	-200.000	0.020	-0.117
-305.851	492.900	-0.019	0.044
-304.837	-57.417	-0.287	0.126
-303.822	800.000	0.060	-0.228
-302.807	25.781	0.117	-0.098
-301.793	-10.478	0.034	0.023
-300.778	-39.754	0.177	-0.093
-299.764	-67.667	-0.291	0.114
-298.749	-34.166	0.349	-0.192
-297.735	-135.539	-0.217	0.026
-296.720	197.646	-0.166	0.253
-295.705	669.727	0.054	-0.139
-294.691	-69.477	0.318	0.122
-293.676	-33.683	0.455	-0.252
-292.662	-14.503	-0.294	-0.189
-291.647	-79.964	0.138	-0.046
-290.632	-103.292	-0.267	0.063
-289.618	-72.610	-0.243	0.090
-288.603	522.061	0.143	-0.337
-287.589	326.213	0.206	-0.394
-286.574	-200.000	0.029	-0.240
-285.559	32.545	-0.244	-0.211
-284.545	-200.000	-0.001	-0.176
-283.530	-66.798	-0.104	0.041
-282.516	-200.000	0.003	-0.088
-281.501	-55.389	0.059	0.026
-280.486	-27.477	-0.081	-0.047
-279.472	-129.983	-0.023	-0.003
-278.457	-200.000	0.041	0.228
-277.443	-200.000	0.031	0.183
-276.428	-74.164	0.179	-0.065
-275.413	-200.000	0.015	-0.193
-274.399	-143.792	-0.213	-0.020
-273.384	756.735	0.134	0.362
-272.370	-200.000	-0.051	0.265
-271.355	-81.439	-0.421	-0.139
-270.340	800.000	-0.069	0.237
-269.326	-106.945	-0.171	0.038
-268.311	-149.047	0.397	0.032
-267.297	776.323	-0.150	-0.409
-266.282	-61.127	-0.346	0.146
-265.267	-0.935	0.122	0.086
-264.253	800.000	-0.056	0.164
-263.238	-60.429	0.100	0.042
-262.224	195.425	0.080	0.122
-261.209	668.680	0.047	0.122
-260.195	1.787	0.234	0.169
-259.180	-52.378	0.245	0.113
-258.165	-123.309	0.355	0.057
-257.151	229.376	-0.023	-0.038
-256.136	-200.000	0.038	0.294
-255.122	-131.039	0.126	0.017
-254.107	23.929	-0.122	0.101
-253.092	-200.000	-0.013	-0.057
-252.078	-51.244	-0.354	-0.166
-251.063	88.724	-0.235	0.261
-250.049	800.000	0.098	0.303
-249.034	-200.000	0.033	0.164
-248.019	-143.061	-0.309	0.030
-247.005	800.000	-0.093	-0.294
-245.990	329.999	0.118	-0.227
-244.976	-153.063	0.167	-0.012
-243.961	469.292	-0.180	-0.405
-242.946	158.076	-0.184	-0.255
-241.932	105.604	-0.240	-0.284
-240.917	694.882	0.058	-0.152
-239.903	-96.492	0.127	0.034
-238.888	-8.262	0.392	0.264
-237.873	110.032	-0.047	-0.056
-236.859	-151.108	-0.106	0.008
-235.844	-23.783	-0.211	-0.127
-234.830	-200.000	-0.068	0.453
-233.815	41.380	0.190	-0.172
-232.800	-200.000	0.021	0.241
-231.786	230.329	0.096	-0.156
-230.771	-20.831	0.220	-0.135
-229.757	-96.316	0.189	-0.050
-228.742	85.495	-0.041	0.046
-227.727	294.148	-0.081	0.148
-226.713	-65.430	-0.287	0.115
-225.698	212.422	-0.120	0.190
-224.684	-200.000	0.014	0.375
-223.669	800.000	-0.062	-0.207
-222.655	-200.000	-0.011	0.087
-221.640	800.000	-0.069	-0.227
-220.625	45.706	0.150	-0.139
-219.611	800.000	0.016	0.065
-218.596	6.266	-0.199	0.147
-217.582	800.000	0.040	-0.130
-216.567	-121.173	0.066	-0.011
-215.552	330.246	0.081	-0.155
-214.538	133.571	0.164	-0.212
-213.523	-200.000	0.003	0.055
-212.509	405.271	-0.096	-0.203
-211.494	-200.000	0.048	-0.259
-210.479	800.000	-0.035	0.127
-209.465	125.147	-0.162	0.203
-208.450	128.593	-0.095	0.121
-207.436	-25.338	-0.032	0.019
-206.421	800.000	0.020	-0.083
-205.406	114.448	0.106	0.128
-204.392	-85.743	0.223	0.069
-203.377	-102.466	-0.194	-0.046
-202.363	-200.000	-0.021	0.101
-201.348	11.624	0.182	0.139
-200.333	-43.218	-0.186	-0.094
-199.319	384.927	-0.097	-0.200
-198.304	414.533	-0.061	-0.131
-197.290	-200.000	-0.007	0.440
-196.275	800.000	-0.056	-0.232
-195.260	-76.743	-0.382	0.134
-194.246	529.036	0.080	-0.188
-193.231	-55.108	-0.364	-0.164
-192.217	-36.734	0.357	0.191
-191.202	-162.801	0.198	0.010
-190.187	-142.470	-0.072	0.007
-189.173	87.811	0.154	0.170
-188.158	-200.000	0.027	-0.222
-187.144	596.676	0.121	0.298
-186.129	-80.172	-0.167	0.056
-185.114	-35.844	0.227	0.122
-184.100	6.811	-0.376	0.279
-183.085	228.962	-0.218	0.356
-182.071	169.804	0.036	0.052
-181.056	35.885	0.204	-0.179
-180.042	519.953	-0.117	0.274
-179.027	-200.000	0.002	0.166
-178.012	2.906	0.202	-0.146
-176.998	800.000	-0.101	-0.312
-175.983	-85.849	0.143	-0.044
-174.969	-200.000	-0.004	-0.046
-173.954	-62.542	0.140	-0.058
-172.939	125.189	0.212	0.267
-171.925	-170.823	0.261	-0.009
-170.910	-81.159	0.222	-0.073
-169.896	34.945	-0.270	-0.236
-168.881	-91.013	0.156	0.045
-167.866	398.693	0.072	0.150
-166.852	-32.438	0.270	0.150
-165.837	-200.000	-0.069	0.324
-164.823	417.005	-0.153	-0.326
-163.808	-53.882	-0.227	-0.103
-162.793	-200.000	-0.003	-0.353
-161.779	-189.081	-0.226	-0.003
-160.764	-200.000	-0.043	0.287
-159.750	-107.466	0.457	0.100
-158.735	124.517	-0.193	0.242
-157.720	-75.959	0.211	0.075
-156.706	415.489	-0.044	0.095
-155.691	800.000	0.063	-0.182
-154.677	18.582	-0.122	0.097
-153.662	800.000	-0.027	-0.097
-152.647	37.495	0.299	-0.264
-151.633	620.073	0.075	0.188
-150.618	-66.747	-0.029	-0.011
-149.604	446.870	0.197	-0.432
-148.589	43.746	-0.122	-0.111
-147.574	472.814	-0.069	-0.155
-146.560	800.000	-0.009	0.027
-145.545	733.488	0.166	0.442
-144.531	90.318	-0.125	-0.140
-143.516	646.552	-0.083	0.210
-142.502	800.000	0.039	0.136
-141.487	-200.000	-0.009	0.432
-140.472	127.136	0.132	0.167
-139.458	230.296	-0.160	-0.260
-138.443	124.884	0.013	0.017
-137.429	-143.017	0.097	-0.009
-136.414	628.459	0.082	-0.205
-135.399	-200.000	-0.017	0.083
-134.385	-200.000	0.030	-0.177
-133.370	-143.153	0.180	-0.017
-132.356	148.600	0.101	-0.136
-131.341	-133.203	-0.173	0.022
-130.326	-138.954	0.107	-0.012
-129.312	-56.096	0.334	0.148
-128.297	76.121	-0.218	0.230
-127.283	-50.567	-0.209	-0.098
-126.268	209.869	0.120	0.187
-125.253	-2.689	-0.183	0.128
-124.239	-113.907	0.262	0.051
-123.224	800.000	-0.079	0.260
-122.210	42.740	0.099	0.089
-121.195	-169.766	0.264	0.009
-120.180	-200.000	-0.007	-0.094
-119.166	800.000	0.037	0.137
-118.151	55.043	-0.296	0.285
-117.137	135.247	0.166	0.214
-116.122	-200.000	-0.044	0.237
-115.107	800.000	-0.035	0.118
-114.093	800.000	-0.030	-0.092
-113.078	-115.019	0.552	-0.104
-112.064	-66.765	-0.229	-0.090
-111.049	75.234	0.226	0.237
-110.034	146.584	-0.201	0.269
-109.020	-170.294	0.368	0.013
-108.005	-165.552	0.044	-0.002
-106.991	-200.000	-0.021	-0.144
-105.976	-160.650	0.457	0.024
-104.962	321.634	0.082	-0.154
-103.947	697.500	-0.137	-0.359
-102.932	-200.000	0.000	-0.251
-101.918	73.781	0.052	0.054
-100.903	-36.813	-0.217	0.116
-99.889	800.000	0.034	0.135
-98.874	206.018	-0.157	-0.243
-97.859	-123.587	0.051	-0.008
-96.845	180.936	0.168	-0.246
-95.830	-200.000	0.001	0.136
-94.816	800.000	-0.145	0.434
-93.801	800.000	-0.061	-0.232
-92.786	-139.882	0.306	0.032
-91.772	-71.435	0.312	0.116
-90.757	-3.898	-0.055	-0.038
-89.743	-200.000	-0.013	-0.219
-88.728	-200.000	-0.008	-0.043
-87.713	314.351	0.051	0.096
-86.699	-84.708	-0.124	0.039
-85.684	-94.432	0.416	0.113
-84.670	800.000	-0.140	0.388
-83.655	42.998	-0.047	0.043
-82.640	742.848	-0.026	0.070
-81.626	-129.073	0.220	0.031
-80.611	-200.000	0.009	0.165
-79.597	-200.000	-0.000	-0.223
-78.582	365.403	0.076	-0.151
-77.567	229.337	-0.118	0.192
-76.553	24.056	0.236	0.193
-75.538	-109.746	0.050	-0.011
-74.524	-200.000	-0.012	0.142
-73.509	470.549	-0.107	-0.240
-72.494	-88.945	-0.090	0.027
-71.480	-200.000	-0.013	0.320
-70.465	-200.000	0.023	0.136
-69.451	266.260	0.048	-0.084
-68.436	739.221	0.155	-0.413
-67.422	-100.873	-0.441	0.108
-66.407	173.138	-0.106	-0.152
-65.392	-96.824	-0.192	0.050
-64.378	225.704	-0.073	0.118
-63.363	259.230	0.240	0.411
-62.349	-115.117	0.193	-0.036
-61.334	72.642	-0.635	-0.658
-60.319	210.116	0.464	0.723
-59.305	-200.000	-0.066	-0.913
-58.290	232.491	0.391	0.638
-57.276	613.927	0.580	1.443
-56.261	-200.000	88.023	517.786
-55.246	488.710	1375.932	3120.977
-54.232	149.328	2578.766	3466.232
-53.217	112.939	2216.492	2666.969
-52.203	47.664	1745.470	1616.874
-51.188	40.718	1552.073	1389.288
-50.173	38.316	1523.427	1347.070
-49.159	55.063	1570.066	1505.819
-48.144	59.155	1589.133	1552.690
-47.130	41.251	1546.999	1388.242
-46.115	37.952	1531.704	1351.656
-45.100	37.831	1527.241	1346.823
-44.086	37.730	1525.991	1344.970
-43.071	37.698	1523.960	1342.909
-42.057	37.745	1522.251	1341.671
-41.042	37.666	1521.579	1340.479
-40.027	37.671	1519.915	1339.000
-39.013	37.752	1518.017	1337.825
-37.998	37.758	1516.606	1336.571
-36.984	37.690	1515.892	1335.426
-35.969	37.634	1514.164	1333.465
-34.954	37.775	1512.630	1333.023
-33.940	37.789	1511.502	1332.074
-32.925	37.732	1510.494	1330.744
-31.911	37.792	1508.782	1329.592
-30.896	37.855	1507.399	1328.753
-29.881	37.867	1505.997	1327.544
-28.867	37.909	1504.291	1326.276
-27.852	37.695	1503.080	1323.695
-26.838	37.752	1501.580	1322.712
-25.823	37.774	1499.854	1321.287
-24.809	37.904	1497.939	1320.432
-23.794	37.735	1497.360	1318.719
-22.779	37.772	1496.161	1317.864
-21.765	37.802	1495.233	1317.196
-20.750	37.881	1493.287	1315.966
-19.736	37.769	1492.652	1314.600
-18.721	37.811	1491.291	1313.629
-17.706	37.843	1490.209	1312.839
-16.692	37.748	1489.308	1311.355
-15.677	37.741	1487.979	1310.081
-14.663	37.635	1487.208	1308.640
-13.648	37.704	1486.203	1308.168
-12.633	37.586	1485.300	1306.527
-11.619	37.751	1483.900	1306.355
-10.604	37.655	1483.083	1304.939
-9.590	37.763	1481.920	1304.583
-8.575	37.717	1481.265	1303.646
-7.560	37.671	1480.338	1302.473
-6.546	37.736	1479.797	1302.379
-5.531	37.758	1478.652	1301.472
-4.517	37.745	1477.526	1300.336
-3.502	37.671	1476.998	1299.329
-2.487	37.763	1475.252	1298.358
-1.473	37.703	1474.333	1297.093
-0.458	37.654	1473.269	1295.782
0.556	35.793	1463.281	1283.628
1.571	32.440	1436.050	1237.624
2.586	28.204	1372.280	1155.874
3.600	25.907	1288.490	1071.558
4.615	24.399	1240.358	1022.802
5.629	23.190	1188.598	973.388
6.644	19.694	1110.865	891.646
7.659	16.241	1071.972	843.133
8.673	15.783	1066.774	836.695
9.688	15.505	1064.016	833.077
10.702	15.591	1062.309	832.093
11.717	15.631	1060.056	830.451
12.731	16.926	1061.086	837.588
13.746	20.043	1064.368	855.520
14.761	20.495	1064.035	857.410
15.775	18.467	1060.189	844.253
16.790	16.960	1057.413	834.560
17.804	15.838	1055.150	827.185
18.819	14.927	1053.227	821.135
19.834	14.396	1051.389	817.025
20.848	14.035	1050.294	814.334
21.863	13.671	1049.884	812.161
22.877	13.561	1048.691	810.628
23.892	13.369	1048.069	809.138
24.907	13.261	1047.410	808.031
25.921	13.299	1046.280	807.270
26.936	13.260	1045.628	806.508
27.950	13.169	1045.155	805.626
28.965	13.309	1043.936	805.296
29.980	13.355	1042.257	804.155
30.994	13.501	1041.538	804.237
32.009	13.594	1040.398	803.739
33.023	13.588	1039.390	802.860
34.038	13.615	1038.628	802.328
35.053	13.516	1037.831	801.165
36.067	13.380	1037.101	799.873
37.082	13.459	1036.235	799.518
38.096	13.246	1035.831	798.106
39.111	13.462	1034.738	798.232
40.126	13.489	1033.767	797.546
41.140	13.363	1032.675	796.027
42.155	13.278	1031.689	794.786
43.169	13.179	1031.059	793.756
44.184	13.317	1029.371	793.048
45.199	13.266	1028.546	792.098
46.213	13.210	1027.761	791.153
47.228	13.112	1026.881	789.937
48.242	13.296	1025.511	789.691
49.257	13.311	1024.698	789.067
50.271	13.303	1024.065	788.473
51.286	13.335	1022.715	787.516
52.301	13.425	1021.921	787.266
53.315	13.394	1021.169	786.466
54.330	13.377	1020.454	785.768
55.344	13.258	1019.938	784.737
56.359	13.304	1018.296	783.622
57.374	13.357	1017.638	783.298
58.388	13.178	1016.938	781.840
59.403	13.257	1015.956	781.388
60.417	13.263	1015.085	780.680
61.432	13.260	1014.729	780.320
62.447	13.111	1013.718	778.774
63.461	13.163	1013.256	778.596
64.476	13.140	1011.992	777.447
65.490	13.181	1011.022	776.824
66.505	13.045	1010.708	775.876
67.520	13.098	1009.925	775.455
68.534	13.164	1009.116	775.075
69.549	13.174	1008.153	774.315
70.563	13.225	1007.332	773.855
71.578	13.171	1006.650	773.008
72.593	13.057	1005.881	771.817
73.607	13.230	1005.036	771.910
74.622	13.095	1003.807	770.267
75.636	13.017	1002.825	769.079
76.651	13.004	1002.474	768.685
77.666	13.024	1001.695	768.110
78.680	13.069	1000.663	767.462
79.695	13.020	1000.269	766.862
80.709	12.956	999.849	766.176
81.724	13.047	999.100	765.954
82.739	13.232	997.676	765.652
83.753	13.240	997.427	765.431
84.768	13.220	996.853	764.830
85.782	13.327	995.694	764.369
86.797	13.407	995.446	764.478
87.812	13.415	994.241	763.526
88.826	13.242	993.520	762.107
89.841	13.391	992.493	761.935
90.855	13.289	991.799	760.866
91.870	13.401	991.033	760.725
92.884	13.380	990.674	760.289
93.899	13.321	989.859	759.325
94.914	13.303	989.153	758.631
95.928	13.454	988.205	758.529
96.943	13.459	987.682	758.083
97.957	13.521	986.502	757.395
98.972	13.539	985.566	756.691
99.987	13.405	984.720	755.363
101.001	13.428	984.025	754.867
102.016	13.380	983.678	754.318
103.030	13.429	982.853	753.842
104.045	13.451	980.666	752.197
105.060	13.418	980.531	751.878
106.074	13.300	979.669	750.615
107.089	13.424	978.344	750.092
108.103	13.290	978.097	749.232
109.118	13.255	976.907	748.095
110.133	13.212	976.242	747.325
111.147	13.331	974.670	746.593
112.162	13.330	974.093	746.080
113.176	13.223	973.410	745.008
114.191	13.349	972.479	744.796
115.206	13.302	971.792	743.993
116.220	13.252	970.903	743.023
117.235	13.303	970.106	742.578
118.249	13.367	969.248	742.139
119.264	13.210	968.378	740.705
120.279	13.202	967.827	740.182
121.293	13.341	966.987	740.098
122.308	13.298	966.094	739.154
123.322	13.284	965.108	738.274
124.337	13.257	964.498	737.623
125.352	13.170	963.173	736.156
126.366	13.207	962.495	735.735
127.381	13.213	961.201	734.707
128.395	13.123	960.534	733.732
129.410	13.292	959.323	733.495
130.424	13.260	958.413	732.593
131.439	13.376	957.360	732.235
132.454	13.273	956.663	731.183
133.468	13.372	955.738	730.847
134.483	13.249	955.460	730.026
135.497	13.502	954.288	730.183
136.512	13.352	953.652	728.972
137.527	13.311	952.883	728.137
138.541	13.374	952.018	727.691
139.556	13.363	951.700	727.334
140.570	13.326	950.947	726.532
141.585	13.398	949.793	725.901
142.600	13.557	949.130	726.028
143.614	13.600	947.838	725.163
144.629	13.473	947.287	724.123
145.643	13.581	946.599	724.004
146.658	13.549	945.530	722.980
147.673	13.643	944.475	722.521
148.687	13.394	944.172	721.141
149.702	13.392	943.145	720.283
150.716	13.291	942.744	719.472
151.731	13.326	941.649	718.727
152.746	13.338	940.993	718.216
153.760	13.376	939.777	717.389
154.775	13.422	939.251	717.124
155.789	13.562	937.970	716.686
156.804	13.481	937.834	716.169
157.819	13.505	937.018	715.586
158.833	13.499	936.342	714.981
159.848	13.580	935.960	714.976
160.862	13.645	935.085	714.524
161.877	13.618	934.471	713.876
162.892	13.533	933.498	712.701
163.906	13.481	932.647	711.768
164.921	13.284	931.873	710.267
165.935	13.553	930.808	710.547
166.950	13.512	929.672	709.441
167.964	13.320	929.073	708.096
168.979	13.507	928.102	708.097
169.994	13.513	926.923	707.158
171.008	13.455	926.261	706.345
172.023	13.577	925.149	705.953
173.037	13.597	924.769	705.684
174.052	13.600	924.290	705.272
175.067	13.819	922.747	704.960
176.081	13.425	922.736	703.216
177.096	13.607	921.498	702.982
178.110	13.568	920.907	702.304
179.125	13.633	920.007	701.830
180.140	13.656	919.029	701.119
181.154	13.524	918.719	700.266
182.169	13.719	917.814	700.337
183.183	13.615	917.585	699.661
184.198	13.774	916.569	699.494
185.213	13.667	916.242	698.731
186.227	13.742	915.585	698.484
187.242	13.805	915.047	698.277
188.256	13.747	914.688	697.696
189.271	13.770	913.998	697.206
190.286	13.859	913.061	696.802
191.300	13.697	912.293	695.477
192.315	13.719	910.731	694.315
193.329	13.435	910.706	693.046
194.344	13.677	909.957	693.427
195.359	13.598	909.421	692.627
196.373	13.633	909.044	692.426
197.388	13.736	908.455	692.347
198.402	13.723	908.001	691.882
199.417	13.804	907.687	691.923
200.432	13.965	906.925	691.952
201.446	14.003	906.420	691.662
202.461	13.981	905.976	691.170
203.475	14.101	905.741	691.428
204.490	14.080	904.699	690.486
205.504	14.034	904.007	689.703
206.519	13.949	903.205	688.680
207.534	13.910	902.667	688.046
208.548	13.937	901.894	687.510
209.563	13.964	901.068	686.931
210.577	13.934	900.543	686.343
211.592	14.083	899.753	686.295
212.607	14.152	898.622	685.658
213.621	14.148	898.579	685.549
214.636	14.086	897.495	684.406
215.650	14.051	897.423	684.144
216.665	14.082	896.600	683.585
217.680	14.228	895.998	683.666
218.694	14.245	895.449	683.254
219.709	14.387	894.769	683.258
220.723	14.287	894.233	682.379
221.738	14.204	893.769	681.624
222.753	14.238	892.965	681.088
223.767	14.366	891.890	680.733
224.782	14.211	891.734	679.923
225.796	14.367	890.853	679.826
226.811	14.362	890.027	679.116
227.826	14.333	888.970	678.131
228.840	14.322	888.439	677.622
229.855	14.188	888.385	676.975
230.869	14.281	887.505	676.621
231.884	14.295	887.018	676.245
232.899	14.211	886.299	675.298
233.913	14.248	885.396	674.702
234.928	14.266	884.637	674.134
235.942	14.292	884.299	673.922
236.957	14.257	883.514	673.123
237.972	14.289	882.642	672.527
238.986	14.310	882.011	672.072
240.001	14.263	881.352	671.321
241.015	14.246	880.866	670.826
242.030	14.376	880.097	670.704
243.045	14.358	879.393	670.035
244.059	14.415	878.875	669.810
245.074	14.453	878.190	669.383
246.088	14.546	877.349	669.052
247.103	14.421	876.993	668.220
248.117	14.521	876.557	668.230
249.132	14.499	875.893	667.578
250.147	14.643	875.053	667.455
251.161	14.686	874.579	667.206
252.176	14.717	873.706	666.605
253.190	14.862	873.294	666.808
254.205	14.791	872.920	666.182
255.220	14.736	872.262	665.402
256.234	14.854	871.352	665.118
257.249	14.843	870.876	664.652
258.263	15.002	870.535	664.964
259.278	14.977	869.390	663.933
260.293	14.950	869.103	663.548
261.307	14.923	868.969	663.281
262.322	14.957	868.105	662.695
263.336	15.054	867.524	662.577
264.351	15.097	866.733	662.084
265.366	15.022	866.093	661.243
266.380	15.146	865.676	661.355
267.395	15.166	864.891	660.774
268.409	14.896	864.368	659.254
269.424	14.964	863.508	658.806
270.439	15.020	862.982	658.567
271.453	15.123	861.875	658.069
272.468	15.083	860.863	657.080
273.482	15.028	861.027	656.933
274.497	14.933	860.368	656.000
275.512	14.990	859.507	655.507
276.526	15.126	858.633	655.315
277.541	15.014	858.163	654.460
278.555	15.040	857.768	654.202
279.570	15.207	857.289	654.429
280.585	15.142	856.851	653.785
281.599	15.188	856.024	653.276
282.614	15.214	855.261	652.738
283.628	15.177	854.837	652.211
284.643	15.007	854.487	651.225
285.657	15.255	853.652	651.496
286.672	15.186	853.287	650.889
287.687	15.205	852.801	650.535
288.701	15.247	852.151	650.147
289.716	15.386	851.490	650.121
290.730	15.332	850.889	649.397
291.745	15.275	850.699	648.976
292.760	15.300	849.712	648.260
293.774	15.356	849.189	648.021
294.789	15.504	848.298	647.854
295.803	15.402	847.955	647.141
296.818	15.357	847.376	646.470
297.833	15.439	846.579	646.122
298.847	15.446	846.138	645.752
299.862	15.387	845.277	644.810
300.876	15.332	844.792	644.175
301.891	15.598	844.298	644.760
302.906	15.481	843.505	643.650
303.920	15.571	843.193	643.701
304.935	15.667	842.160	643.221
305.949	15.578	841.874	642.604
306.964	15.706	841.132	642.473
307.979	15.590	840.865	641.767
308.993	15.680	840.070	641.449
310.008	15.587	839.888	640.898
311.022	15.594	839.251	640.381
312.037	15.706	838.737	640.360
313.052	15.740	837.995	639.866
314.066	15.629	837.558	639.053
315.081	15.621	836.794	638.384
316.095	15.576	836.241	637.732
317.110	15.628	836.004	637.695
318.125	15.643	835.317	637.172
319.139	15.636	834.792	636.685
320.154	15.684	833.954	636.171
321.168	15.664	833.818	635.939
322.183	15.655	833.091	635.293
323.197	15.586	832.940	634.862
324.212	15.712	832.078	634.623
325.227	15.683	831.491	634.010
326.241	15.808	830.921	633.989
327.256	15.893	830.409	633.864
328.270	15.804	829.950	633.122
329.285	15.750	829.352	632.408
330.300	15.886	828.410	632.144
331.314	15.784	828.074	631.448
332.329	15.754	827.766	631.043
333.343	15.913	826.823	630.865
334.358	15.922	826.364	630.495
335.373	16.048	825.672	630.379
336.387	16.044	825.131	629.897
337.402	16.101	824.725	629.745
338.416	16.098	823.980	629.108
339.431	16.058	823.583	628.600
340.446	16.163	823.239	628.672
341.460	16.231	822.554	628.346
342.475	16.073	822.030	627.306
343.489	16.137	821.696	627.233
344.504	16.103	821.280	626.734
345.519	16.272	820.273	626.536
346.533	16.292	819.849	626.232
347.548	16.301	819.405	625.869
348.562	16.289	818.768	625.283
349.577	16.175	818.358	624.491
350.592	16.153	817.646	623.814
351.606	16.072	817.532	623.369
352.621	16.158	817.022	623.244
353.635	16.188	816.668	623.031
354.650	16.151	816.006	622.333
355.665	16.165	815.696	622.092
356.679	16.226	815.175	621.865
357.694	16.182	814.896	621.437
358.708	16.333	814.020	621.267
359.723	16.248	813.631	620.605
360.738	16.217	813.132	620.055
361.752	16.326	812.675	620.051
362.767	16.294	812.088	619.432
363.781	16.307	812.236	619.538
364.796	16.356	811.597	619.177
365.810	16.569	810.736	619.243
366.825	16.511	810.802	619.026
367.840	16.473	810.224	618.390
368.854	16.570	809.670	618.267
369.869	16.672	809.024	618.093
370.883	16.427	808.791	616.966
371.898	16.588	807.615	616.602
372.913	16.517	807.557	616.244
373.927	16.508	807.204	615.886
374.942	16.612	806.572	615.729
375.956	16.532	805.795	614.789
376.971	16.560	805.475	614.595
377.986	16.583	805.088	614.328
379.000	16.802	803.803	614.084
380.015	16.944	803.818	614.558
381.029	16.875	803.021	613.646
382.044	16.846	802.724	613.258
383.059	16.818	802.000	612.549
384.073	16.846	801.325	612.080
385.088	16.800	800.803	611.463
386.102	16.756	800.438	610.971
387.117	16.779	799.807	610.519
388.132	16.810	799.265	610.160
389.146	16.812	798.957	609.879
390.161	16.861	798.426	609.598
391.175	16.855	798.268	609.399
392.190	16.979	797.793	609.428
393.205	16.857	797.110	608.416
394.219	16.885	796.895	608.298
395.234	16.862	796.540	607.892
396.248	16.794	795.978	607.166
397.263	16.696	795.892	606.695
398.278	16.809	794.993	606.360
399.292	16.786	794.396	605.770
400.307	16.790	794.327	605.676
401.321	16.850	793.870	605.489
402.336	16.806	793.452	604.959
403.350	16.840	792.845	604.564
404.365	16.815	792.668	604.288
405.380	17.055	791.822	604.444
406.394	17.087	791.307	604.111
407.409	17.018	791.099	603.653
408.423	17.097	790.689	603.567
409.438	16.995	790.349	602.890
410.453	17.153	789.683	602.891
411.467	17.134	789.653	602.747
412.482	17.229	788.873	602.436
413.496	17.281	788.458	602.250
414.511	17.114	788.391	601.552
415.526	17.277	787.877	601.684
416.540	17.357	787.470	601.603
417.555	17.347	787.076	601.213
418.569	17.452	786.604	601.172
419.584	17.368	785.942	600.315
420.599	17.315	785.774	599.948
421.613	99.221	1275.748	1418.193
422.628	84.646	1347.151	1418.318
