DTS Sentinel unit serial number:	SN413079Multiplexer serial number:	ORYXHardware model number:	OX4-SRSoftware version number:	ORYX F/W v4.00 Oryx Data Collector v3.7.2.0data status	okinstallation	princeton_trtdifferential loss correction	single-endedforward channel	channel 3reverse channel	N/Adate	2019/09/18time	18:28:35forward acquisition time	60.00reverse acquisition time	0.00gamma	496.2192k internal	0.2294k external	0.2294temperature offset calibration	0.9997default loss term (dB/km)	0.3790temperature slope calibration	1.0000multiplexer offset coefficient	1.0000multiplexer slope coefficient	1.0000fibre end	0.00T internal ref (°C)	38.41T ext. ref 1 (°C)	0.93T ext. ref 2 (°C)	30.93length (m)	temperature (°C)	Stokes	anti-Stokes-747.200	-138.614	0.062	0.007
-746.185	123.654	-0.185	0.237
-745.171	-82.128	0.190	0.064
-744.156	-200.000	0.030	0.249
-743.142	-200.000	-0.019	0.148
-742.127	-200.000	-0.039	0.439
-741.112	-200.000	0.052	0.240
-740.098	-82.262	-0.183	0.061
-739.083	-200.000	0.078	0.528
-738.069	104.281	-0.352	0.424
-737.054	-119.221	-0.153	0.027
-736.039	151.023	0.290	0.403
-735.025	800.000	-0.199	0.591
-734.010	-200.000	-0.011	-0.159
-732.996	9.693	0.073	0.057
-731.981	233.467	-0.161	-0.272
-730.966	-34.036	-0.220	0.124
-729.952	79.316	0.082	-0.090
-728.937	-118.184	-0.223	-0.041
-727.923	256.972	-0.078	-0.137
-726.908	-154.199	-0.281	-0.019
-725.894	46.879	-0.240	-0.227
-724.879	-50.215	-0.403	-0.195
-723.864	-183.817	-0.243	-0.004
-722.850	-108.781	0.276	0.060
-721.835	0.431	-0.141	-0.103
-720.821	20.311	-0.140	-0.115
-719.806	800.000	-0.070	-0.219
-718.791	186.568	-0.138	-0.209
-717.777	800.000	0.077	0.272
-716.762	-99.322	-0.086	-0.022
-715.748	-200.000	-0.005	-0.252
-714.733	-200.000	0.056	0.347
-713.718	-76.674	0.119	-0.043
-712.704	-5.174	0.113	-0.079
-711.689	-200.000	-0.014	0.407
-710.675	552.390	-0.050	0.123
-709.660	800.000	-0.060	0.267
-708.645	139.220	0.100	-0.134
-707.631	-7.909	-0.067	-0.046
-706.616	-15.826	-0.255	-0.166
-705.602	-85.436	-0.132	0.042
-704.587	-51.128	-0.283	0.135
-703.572	-34.906	0.238	-0.133
-702.558	166.728	0.045	-0.065
-701.543	-184.765	0.149	-0.002
-700.529	-38.371	-0.069	0.037
-699.514	125.975	-0.097	-0.125
-698.499	-200.000	-0.033	-0.305
-697.485	265.650	-0.139	-0.247
-696.470	-200.000	-0.010	0.155
-695.456	476.491	0.074	0.171
-694.441	-74.870	-0.110	-0.040
-693.426	480.964	0.038	0.089
-692.412	-200.000	-0.007	0.092
-691.397	-200.000	-0.001	-0.130
-690.383	-45.686	0.188	0.095
-689.368	-200.000	0.056	-0.336
-688.354	-102.109	-0.079	0.019
-687.339	44.722	0.268	-0.252
-686.324	-27.176	0.148	-0.088
-685.310	12.931	0.101	0.079
-684.295	800.000	0.061	-0.223
-683.281	-87.712	-0.170	-0.052
-682.266	-200.000	0.037	-0.214
-681.251	-200.000	-0.001	0.329
-680.237	800.000	0.029	0.085
-679.222	-77.696	0.114	0.040
-678.208	800.000	0.113	-0.335
-677.193	-104.073	0.178	-0.042
-676.178	49.510	-0.541	-0.519
-675.164	-77.907	-0.269	-0.095
-674.149	72.331	-0.183	-0.195
-673.135	-200.000	0.004	-0.514
-672.120	89.759	-0.041	0.047
-671.105	800.000	0.047	-0.153
-670.091	134.914	-0.152	0.201
-669.076	-92.087	-0.322	0.093
-668.062	-8.138	-0.163	-0.112
-667.047	-93.196	0.135	-0.038
-666.032	-110.454	0.218	-0.046
-665.018	202.738	0.071	0.112
-664.003	238.689	0.037	-0.062
-662.989	395.122	-0.076	-0.162
-661.974	-97.628	0.055	0.014
-660.959	198.952	-0.184	0.288
-659.945	354.434	-0.097	-0.197
-658.930	-122.475	-0.374	0.062
-657.916	800.000	0.079	-0.341
-656.901	-65.058	-0.327	0.134
-655.886	109.000	-0.193	-0.235
-654.872	216.511	0.109	-0.176
-653.857	43.215	0.111	0.104
-652.843	660.139	0.026	0.070
-651.828	109.165	0.138	-0.169
-650.814	-29.355	0.280	-0.163
-649.799	224.516	0.035	0.057
-648.784	800.000	0.093	0.354
-647.770	444.747	0.079	0.177
-646.755	179.575	0.072	-0.107
-645.741	-200.000	-0.006	0.188
-644.726	-200.000	-0.059	0.268
-643.711	349.740	0.049	-0.098
-642.697	222.541	-0.201	0.330
-641.682	-2.813	0.180	-0.128
-640.668	399.223	0.043	0.091
-639.653	9.616	0.163	-0.126
-638.638	24.587	0.050	-0.042
-637.624	-145.690	0.384	0.035
-636.609	174.265	-0.206	-0.304
-635.595	157.117	-0.083	0.116
-634.580	365.408	-0.014	0.029
-633.565	-39.589	0.417	0.222
-632.551	-66.309	0.318	0.129
-631.536	-200.000	-0.026	-0.204
-630.522	-55.322	-0.110	-0.050
-629.507	645.245	0.115	-0.298
-628.492	-69.880	-0.551	0.214
-627.478	152.958	0.284	0.396
-626.463	-200.000	0.024	-0.184
-625.449	800.000	0.072	0.273
-624.434	-200.000	0.027	-0.272
-623.419	411.615	-0.075	-0.161
-622.405	-124.770	-0.273	0.043
-621.390	50.100	0.163	0.157
-620.376	583.692	-0.134	-0.336
-619.361	463.277	0.035	0.079
-618.346	-179.625	0.265	0.006
-617.332	-101.119	0.528	0.132
-616.317	-65.253	0.181	-0.074
-615.303	-61.268	0.466	-0.200
-614.288	2.014	0.208	-0.153
-613.273	-200.000	0.020	-0.402
-612.259	244.945	-0.184	-0.314
-611.244	-200.000	-0.017	0.116
-610.230	-159.900	0.100	0.006
-609.215	20.170	-0.170	-0.139
-608.201	-87.718	0.201	0.062
-607.186	770.424	-0.044	-0.123
-606.171	800.000	-0.120	-0.378
-605.157	-152.085	0.265	-0.020
-604.142	-45.499	0.214	-0.108
-603.128	104.468	-0.117	-0.140
-602.113	423.481	-0.075	0.164
-601.098	113.405	-0.209	-0.257
-600.084	-10.401	0.238	0.160
-599.069	-122.547	-0.212	0.035
-598.055	-82.326	0.182	-0.060
-597.040	-81.918	0.054	-0.018
-596.025	-176.851	-0.100	-0.003
-595.011	-200.000	0.061	-0.393
-593.996	-129.601	0.201	-0.028
-592.982	-200.000	0.049	-0.268
-591.967	243.702	-0.124	0.211
-590.952	800.000	-0.039	0.158
-589.938	-200.000	0.021	-0.103
-588.923	-162.003	-0.217	0.011
-587.909	24.820	-0.157	0.132
-586.894	-200.000	0.016	-0.342
-585.879	-142.555	0.069	-0.007
-584.865	-62.156	-0.080	-0.034
-583.850	2.796	0.145	0.107
-582.836	58.385	0.060	0.059
-581.821	-181.988	-0.034	-0.001
-580.806	234.447	-0.189	-0.316
-579.792	49.653	0.329	-0.315
-578.777	58.056	0.138	-0.138
-577.763	-200.000	0.000	0.280
-576.748	408.624	-0.049	0.106
-575.733	0.959	-0.100	-0.073
-574.719	-133.888	-0.353	0.045
-573.704	-13.665	0.207	-0.136
-572.690	102.260	0.192	-0.228
-571.675	-200.000	0.039	0.190
-570.661	-190.729	0.287	-0.003
-569.646	-96.798	0.465	-0.124
-568.631	611.717	0.058	0.147
-567.617	-42.194	-0.270	-0.140
-566.602	-168.181	-0.234	0.009
-565.588	296.274	0.090	0.167
-564.573	1.938	-0.317	-0.232
-563.558	82.095	-0.089	0.098
-562.544	-70.389	0.083	0.032
-561.529	4.794	-0.224	-0.167
-560.515	-18.830	-0.147	0.093
-559.500	-41.066	-0.191	0.100
-558.485	415.070	0.145	-0.313
-557.471	41.577	0.267	-0.245
-556.456	190.988	0.144	-0.220
-555.442	-122.553	0.457	-0.075
-554.427	-200.000	-0.251	-0.000
-553.412	134.690	-0.194	0.256
-552.398	800.000	0.056	-0.192
-551.383	-0.206	0.194	0.140
-550.369	-200.000	-0.037	-0.177
-549.354	-200.000	-0.014	-0.229
-548.339	-200.000	0.198	-0.000
-547.325	-45.991	-0.269	-0.135
-546.310	350.078	-0.137	0.275
-545.296	-64.508	0.085	0.035
-544.281	-5.487	-0.171	-0.119
-543.266	19.293	0.216	-0.176
-542.252	-70.499	0.156	0.060
-541.237	-200.000	-0.023	0.285
-540.223	-31.876	-0.157	-0.089
-539.208	193.681	-0.034	0.052
-538.193	-200.000	-0.048	-0.279
-537.179	-82.444	-0.301	0.099
-536.164	-62.585	0.091	-0.038
-535.150	122.636	-0.041	0.052
-534.135	-200.000	0.056	-0.286
-533.121	-200.000	-0.018	0.153
-532.106	800.000	-0.109	0.390
-531.091	-25.194	-0.327	-0.196
-530.077	-200.000	-0.035	-0.257
-529.062	88.993	-0.036	0.041
-528.048	-72.687	0.236	0.088
-527.033	-159.499	-0.451	0.025
-526.018	658.809	0.093	-0.242
-525.004	24.688	-0.156	-0.131
-523.989	-98.276	-0.375	0.098
-522.975	800.000	-0.044	0.165
-521.960	68.638	0.136	0.141
-520.945	-76.058	0.193	0.069
-519.931	148.417	0.113	-0.154
-518.916	-145.695	-0.194	0.018
-517.902	39.795	-0.116	0.105
-516.887	-54.905	0.304	-0.139
-515.872	-200.000	-0.022	-0.185
-514.858	0.409	0.049	0.035
-513.843	-43.748	-0.121	-0.062
-512.829	-156.394	0.186	-0.012
-511.814	800.000	-0.041	0.128
-510.799	67.878	-0.079	0.082
-509.785	288.067	-0.045	-0.082
-508.770	382.432	-0.172	-0.357
-507.756	-135.493	-0.345	0.042
-506.741	460.296	-0.098	0.221
-505.726	-115.142	-0.422	-0.081
-504.712	-64.354	-0.214	0.088
-503.697	338.395	0.063	-0.124
-502.683	-147.411	0.094	0.008
-501.668	-66.230	-0.150	-0.061
-500.653	-57.471	0.480	0.214
-499.639	338.581	-0.016	0.031
-498.624	-127.157	-0.056	-0.008
-497.610	20.034	-0.179	-0.146
-496.595	-82.697	0.432	-0.142
-495.581	-3.674	0.094	-0.066
-494.566	800.000	0.062	0.272
-493.551	-200.000	0.023	-0.127
-492.537	-72.666	0.122	-0.045
-491.522	-200.000	0.012	0.137
-490.508	560.267	0.075	-0.182
-489.493	79.348	-0.206	0.223
-488.478	134.451	-0.069	-0.091
-487.464	230.680	0.079	0.130
-486.449	-91.718	-0.159	-0.046
-485.435	800.000	-0.043	0.176
-484.420	14.794	0.115	0.091
-483.405	-200.000	0.016	-0.113
-482.391	59.928	0.125	-0.125
-481.376	-59.181	-0.159	-0.069
-480.362	-59.517	-0.116	0.050
-479.347	6.658	0.204	0.154
-478.332	216.359	-0.062	-0.099
-477.318	-17.817	0.138	0.088
-476.303	-184.878	-0.050	-0.001
-475.289	26.882	-0.063	0.053
-474.274	800.000	0.059	0.166
-473.259	800.000	0.024	0.073
-472.245	-139.478	-0.005	-0.001
-471.230	-87.172	-0.342	0.105
-470.216	-151.348	-0.147	0.011
-469.201	73.620	-0.230	0.243
-468.186	-117.399	0.194	0.036
-467.172	721.882	0.049	-0.133
-466.157	800.000	-0.074	0.296
-465.143	-169.175	-0.411	-0.015
-464.128	-171.374	0.177	-0.006
-463.113	-124.158	-0.417	0.066
-462.099	-31.472	-0.133	0.075
-461.084	-57.789	-0.473	0.209
-460.070	-131.542	-0.470	0.063
-459.055	-86.137	0.260	0.081
-458.040	-63.234	-0.231	0.096
-457.026	-23.871	0.343	-0.208
-456.011	-185.496	0.187	-0.003
-454.997	800.000	0.124	-0.361
-453.982	120.243	-0.316	-0.397
-452.968	293.180	0.081	-0.150
-451.953	596.363	0.068	0.169
-450.938	304.952	0.048	0.090
-449.924	800.000	0.129	-0.374
-448.909	-169.879	-0.314	-0.011
-447.895	-52.713	-0.250	-0.117
-446.880	-33.657	-0.312	-0.174
-445.865	-200.000	0.009	0.050
-444.851	-200.000	-0.015	0.114
-443.836	4.810	-0.176	0.131
-442.822	800.000	0.035	-0.130
-441.807	-170.543	-0.277	0.010
-440.792	-200.000	0.065	0.391
-439.778	800.000	-0.031	0.105
-438.763	-200.000	0.004	-0.047
-437.749	-36.524	0.295	-0.161
-436.734	-100.285	0.342	-0.086
-435.719	114.582	-0.421	0.519
-434.705	82.719	-0.037	-0.040
-433.690	120.423	0.027	0.034
-432.676	47.830	-0.061	0.058
-431.661	-40.731	0.148	0.077
-430.646	116.002	0.027	0.033
-429.632	58.487	0.004	-0.004
-428.617	-200.000	-0.049	-0.389
-427.603	-170.120	-0.300	-0.011
-426.588	-119.552	0.071	-0.012
-425.573	34.358	0.103	-0.091
-424.559	800.000	0.042	-0.149
-423.544	-31.998	0.295	-0.167
-422.530	11.381	0.327	-0.253
-421.515	-83.108	-0.066	-0.022
-420.500	-68.302	-0.382	-0.150
-419.486	73.183	0.207	0.219
-418.471	-200.000	0.032	0.287
-417.457	297.124	0.104	0.192
-416.442	-136.298	-0.276	0.033
-415.428	800.000	-0.053	0.182
-414.413	-164.276	0.297	-0.014
-413.398	-10.918	-0.140	0.093
-412.384	800.000	-0.015	-0.049
-411.369	-200.000	-0.017	-0.243
-410.355	800.000	0.041	0.162
-409.340	-113.234	-0.030	-0.006
-408.325	-200.000	-0.014	0.261
-407.311	-81.826	0.327	-0.108
-406.296	800.000	-0.082	-0.319
-405.282	65.309	-0.144	-0.147
-404.267	-200.000	-0.011	0.118
-403.252	93.129	0.233	-0.265
-402.238	-33.918	0.317	-0.176
-401.223	800.000	-0.047	0.198
-400.209	-50.170	-0.444	0.212
-399.194	800.000	-0.036	-0.112
-398.179	-78.216	-0.162	0.056
-397.165	4.509	-0.220	-0.163
-396.150	-78.831	0.081	-0.028
-395.136	52.653	0.123	0.118
-394.121	-21.600	-0.105	0.064
-393.106	-136.140	0.376	0.044
-392.092	44.895	-0.188	0.174
-391.077	-200.000	0.072	0.369
-390.063	694.778	0.059	0.157
-389.048	185.381	0.057	-0.086
-388.033	34.369	-0.151	-0.132
-387.019	110.720	-0.154	-0.187
-386.004	800.000	0.064	0.248
-384.990	189.150	0.071	-0.107
-383.975	59.306	0.250	-0.248
-382.960	70.154	-0.192	0.200
-381.946	-55.105	-0.126	-0.057
-380.931	-37.656	-0.181	-0.097
-379.917	31.962	0.096	0.084
-378.902	800.000	0.098	-0.420
-377.888	-151.225	0.301	-0.023
-376.873	-200.000	-0.054	0.378
-375.858	-156.265	-0.110	0.007
-374.844	-35.214	-0.249	-0.137
-373.829	227.028	-0.047	0.076
-372.815	-25.872	0.289	0.171
-371.800	19.007	0.138	0.111
-370.785	800.000	0.102	0.288
-369.771	47.184	-0.203	-0.190
-368.756	-108.794	0.137	-0.030
-367.742	-69.140	0.142	0.055
-366.727	2.639	-0.337	0.246
-365.712	-94.043	0.258	0.071
-364.698	-0.049	-0.196	0.140
-363.683	-200.000	-0.005	0.316
-362.669	68.987	0.148	0.153
-361.654	575.606	0.064	-0.157
-360.639	-102.853	-0.092	0.022
-359.625	11.240	-0.171	0.132
-358.610	-117.941	0.271	-0.049
-357.596	-76.391	0.162	-0.058
-356.581	217.932	0.214	-0.344
-355.566	-3.022	-0.142	-0.100
-354.552	552.016	-0.052	0.125
-353.537	334.004	-0.177	0.344
-352.523	-200.000	0.045	-0.229
-351.508	-7.878	0.036	0.025
-350.493	-200.000	0.018	0.138
-349.479	256.206	-0.154	-0.266
-348.464	644.980	0.095	-0.245
-347.450	79.816	0.029	0.031
-346.435	800.000	0.067	-0.206
-345.420	770.231	-0.062	0.169
-344.406	297.117	-0.102	0.188
-343.391	-200.000	0.010	-0.265
-342.377	436.217	-0.035	-0.077
-341.362	-41.041	-0.219	-0.114
-340.348	800.000	-0.065	0.185
-339.333	227.265	-0.103	0.168
-338.318	-61.574	0.102	-0.043
-337.304	-200.000	-0.002	0.285
-336.289	39.971	0.232	0.210
-335.275	317.094	0.159	0.303
-334.260	2.073	0.031	0.022
-333.245	40.519	0.175	0.158
-332.231	-55.532	-0.156	-0.071
-331.216	-200.000	0.016	-0.221
-330.202	-4.872	-0.106	-0.073
-329.187	107.032	-0.106	-0.127
-328.172	800.000	0.094	-0.311
-327.158	266.128	-0.140	-0.246
-326.143	169.407	0.077	-0.111
-325.129	757.264	0.175	0.476
-324.114	-53.609	0.190	-0.087
-323.099	-200.000	-0.005	-0.092
-322.085	-19.022	0.128	0.080
-321.070	62.417	0.114	-0.114
-320.056	-112.899	0.062	-0.012
-319.041	-142.536	-0.160	0.016
-318.026	190.126	-0.148	-0.224
-317.012	372.431	0.200	-0.409
-315.997	533.795	-0.080	-0.191
-314.983	-200.000	-0.002	0.180
-313.968	103.727	-0.140	0.166
-312.953	20.248	0.025	0.020
-311.939	800.000	-0.036	0.131
-310.924	-142.517	0.263	0.026
-309.910	-200.000	0.037	-0.292
-308.895	-16.740	-0.106	0.068
-307.880	-200.000	-0.000	0.169
-306.866	240.990	-0.108	0.182
-305.851	229.334	0.061	0.101
-304.837	-12.747	-0.088	-0.057
-303.822	-171.308	0.266	-0.009
-302.807	-38.071	0.191	-0.102
-301.793	-25.605	-0.213	-0.126
-300.778	-200.000	-0.033	0.282
-299.764	-81.332	-0.316	0.105
-298.749	-139.657	0.272	-0.029
-297.735	149.782	0.183	-0.250
-296.720	66.126	0.085	-0.087
-295.705	-200.000	-0.015	-0.110
-294.691	-15.347	0.174	0.112
-293.676	97.228	-0.084	0.096
-292.662	-126.229	0.202	0.030
-291.647	-200.000	0.015	0.375
-290.632	272.429	0.012	0.022
-289.618	50.005	-0.230	0.218
-288.603	-74.475	-0.297	-0.108
-287.589	-74.791	-0.165	0.060
-286.574	176.949	-0.248	-0.362
-285.559	-50.511	0.194	0.092
-284.545	-5.697	0.168	0.116
-283.530	-177.692	0.314	-0.008
-282.516	13.658	-0.263	-0.205
-281.501	-120.095	-0.262	0.045
-280.486	-89.881	0.263	-0.077
-279.472	331.389	-0.113	-0.218
-278.457	-88.660	-0.196	0.059
-277.443	-131.443	0.256	0.034
-276.428	307.297	0.037	0.068
-275.413	181.776	-0.007	0.010
-274.399	-153.405	0.164	0.011
-273.384	-200.000	0.033	0.328
-272.370	245.966	0.263	0.444
-271.355	264.109	0.271	0.474
-270.340	92.451	0.099	0.112
-269.326	72.243	-0.358	-0.375
-268.311	307.120	0.086	-0.160
-267.297	-114.240	0.069	0.013
-266.282	-200.000	0.035	0.314
-265.267	-200.000	0.054	0.411
-264.253	721.928	-0.063	-0.167
-263.238	-139.475	-0.061	-0.007
-262.224	350.735	0.019	-0.039
-261.209	324.190	0.083	-0.158
-260.195	-200.000	0.008	-0.123
-259.180	-85.719	0.175	-0.054
-258.165	-200.000	0.083	0.380
-257.151	-25.936	0.222	-0.131
-256.136	163.709	0.037	0.052
-255.122	308.586	0.021	-0.039
-254.107	45.599	-0.053	0.050
-253.092	-200.000	-0.022	-0.152
-252.078	-88.177	-0.081	-0.024
-251.063	-141.398	0.135	0.014
-250.049	800.000	0.004	0.012
-249.034	-200.000	-0.007	0.124
-248.019	-129.448	-0.194	0.027
-247.005	-120.852	-0.276	-0.047
-245.990	-46.801	-0.229	-0.112
-244.976	112.392	0.322	0.391
-243.961	800.000	0.049	-0.164
-242.946	-200.000	-0.050	-0.387
-241.932	192.260	0.151	0.228
-240.917	-138.119	-0.192	-0.021
-239.903	62.407	-0.066	0.066
-238.888	-95.994	-0.326	-0.087
-237.873	-200.000	0.019	0.164
-236.859	77.714	-0.049	0.052
-235.844	800.000	-0.083	-0.334
-234.830	57.430	-0.106	-0.104
-233.815	-200.000	0.019	-0.459
-232.800	-20.913	-0.348	0.213
-231.786	-92.099	0.295	-0.084
-230.771	110.767	-0.130	-0.157
-229.757	57.399	-0.095	-0.093
-228.742	202.423	-0.156	-0.242
-227.727	175.853	0.353	0.513
-226.713	214.966	-0.103	0.163
-225.698	-41.374	-0.203	-0.105
-224.684	-116.272	0.244	-0.045
-223.669	-200.000	0.045	0.236
-222.655	15.496	-0.127	-0.100
-221.640	-137.890	-0.309	0.035
-220.625	71.103	0.218	-0.227
-219.611	-200.000	0.025	0.130
-218.596	-144.813	0.136	-0.013
-217.582	213.126	-0.081	0.128
-216.567	-24.129	-0.295	-0.177
-215.552	9.684	0.009	0.007
-214.538	-200.000	0.162	-0.000
-213.523	-160.163	0.112	-0.006
-212.509	112.403	0.126	-0.153
-211.494	-163.038	-0.389	-0.019
-210.479	-25.098	-0.218	-0.130
-209.465	190.317	-0.155	0.233
-208.450	45.210	0.292	0.270
-207.436	800.000	-0.089	0.266
-206.421	-149.045	-0.161	0.013
-205.406	651.693	-0.051	0.132
-204.392	408.587	0.091	-0.194
-203.377	429.803	0.092	0.200
-202.363	222.111	-0.186	-0.300
-201.348	15.525	0.163	0.128
-200.333	306.126	-0.065	0.121
-199.319	52.647	0.090	-0.086
-198.304	-13.478	0.046	0.030
-197.290	-5.817	0.095	-0.065
-196.275	-15.459	0.284	-0.182
-195.260	-20.394	0.223	-0.137
-194.246	9.976	-0.370	0.281
-193.231	112.397	0.038	-0.046
-192.217	-75.729	0.258	-0.092
-191.202	-39.925	0.157	-0.082
-190.187	217.418	-0.038	0.061
-189.173	235.985	-0.050	0.083
-188.158	608.131	0.042	0.104
-187.144	739.581	0.105	0.283
-186.129	800.000	0.052	-0.154
-185.114	800.000	0.057	-0.168
-184.100	18.306	-0.302	-0.241
-183.085	109.740	-0.041	0.049
-182.071	114.156	0.176	0.214
-181.056	84.795	-0.058	-0.063
-180.042	19.343	-0.047	0.037
-179.027	-200.000	0.009	-0.073
-178.012	-200.000	0.020	0.240
-176.998	-148.305	-0.099	-0.008
-175.983	-144.003	0.339	0.032
-174.969	288.020	-0.125	0.226
-173.954	-181.207	0.326	0.006
-172.939	800.000	0.069	0.285
-171.925	170.056	-0.187	-0.268
-170.910	800.000	0.037	0.108
-169.896	-99.241	-0.347	-0.088
-168.881	-200.000	0.040	0.332
-167.866	12.272	-0.056	0.043
-166.852	-2.035	-0.232	0.163
-165.837	-99.443	-0.174	0.044
-164.823	7.844	-0.224	0.168
-163.808	63.437	0.105	0.105
-162.793	-40.030	0.392	-0.205
-161.779	115.053	0.106	-0.130
-160.764	-200.000	0.021	-0.333
-159.750	-8.427	0.243	-0.163
-158.735	-66.129	-0.069	0.027
-157.720	-28.875	-0.115	0.066
-156.706	-160.474	0.153	0.008
-155.691	-200.000	0.006	0.085
-154.677	-134.151	-0.201	0.025
-153.662	598.107	-0.136	0.336
-152.647	63.185	0.169	-0.169
-151.633	-145.537	-0.115	0.010
-150.618	84.147	-0.195	0.213
-149.604	33.260	0.150	0.130
-148.589	-200.000	-0.033	-0.171
-147.574	-106.383	-0.219	-0.049
-146.560	-161.028	-0.518	-0.027
-145.545	-121.152	-0.256	-0.043
-144.531	434.865	0.152	0.329
-143.516	734.129	0.026	0.068
-142.502	31.117	-0.275	-0.236
-141.487	-124.594	0.526	-0.082
-140.472	800.000	-0.106	0.309
-139.458	71.703	-0.157	0.163
-138.443	-50.843	0.045	-0.021
-137.429	158.206	0.158	0.219
-136.414	-1.282	0.180	-0.127
-135.399	-141.699	-0.066	-0.007
-134.385	-165.514	0.171	0.007
-133.370	-23.711	0.166	0.099
-132.356	800.000	-0.102	-0.342
-131.341	-21.232	0.181	0.110
-130.326	-141.744	-0.119	0.012
-129.312	323.486	-0.035	-0.066
-128.297	650.345	0.092	0.235
-127.283	-3.079	-0.037	0.025
-126.268	494.999	-0.047	0.107
-125.253	-24.820	0.226	0.134
-124.239	50.851	-0.088	0.084
-123.224	216.793	0.180	0.286
-122.210	-200.000	-0.008	0.039
-121.195	-79.642	-0.113	0.038
-120.180	800.000	0.062	0.195
-119.166	-180.282	0.159	-0.003
-118.151	800.000	-0.069	-0.209
-117.137	-42.960	-0.184	0.093
-116.122	-91.250	-0.262	-0.075
-115.107	154.189	-0.095	0.130
-114.093	-126.062	0.099	0.015
-113.078	-200.000	0.009	0.059
-112.064	190.132	0.230	0.345
-111.049	-200.000	0.023	0.149
-110.034	25.241	-0.131	0.109
-109.020	800.000	0.013	0.044
-108.005	653.780	-0.069	-0.177
-106.991	-200.000	-0.005	0.198
-105.976	117.361	-0.070	0.086
-104.962	-118.770	0.163	-0.029
-103.947	586.875	0.114	-0.279
-102.932	142.377	-0.054	-0.071
-101.918	552.608	-0.103	-0.246
-100.903	690.636	-0.105	-0.274
-99.889	53.878	-0.257	0.246
-98.874	-30.683	-0.173	0.097
-97.859	-200.000	0.044	-0.278
-96.845	-105.042	0.140	0.032
-95.830	18.958	0.229	-0.183
-94.816	-62.740	-0.102	-0.042
-93.801	-200.000	0.076	-0.000
-92.786	94.349	0.111	0.126
-91.772	-200.000	0.014	0.166
-90.757	108.412	-0.096	-0.114
-89.743	-136.570	-0.306	-0.035
-88.728	-70.925	0.337	0.127
-87.713	-114.524	0.295	-0.057
-86.699	-68.069	-0.303	0.118
-85.684	-200.000	0.017	0.164
-84.670	50.308	-0.170	0.160
-83.655	-164.998	0.548	0.024
-82.640	800.000	0.037	-0.103
-81.626	102.164	0.050	-0.058
-80.611	483.690	-0.005	-0.011
-79.597	438.647	0.121	-0.263
-78.582	424.673	0.040	0.085
-77.567	-53.188	-0.164	0.075
-76.553	800.000	0.051	-0.200
-75.538	276.769	0.102	-0.181
-74.524	-82.189	0.156	-0.051
-73.509	140.478	0.281	-0.370
-72.494	800.000	-0.047	-0.180
-71.480	-200.000	0.049	-0.586
-70.465	276.945	0.101	0.178
-69.451	800.000	0.042	0.162
-68.436	-103.880	0.236	0.055
-67.422	-142.472	-0.118	-0.012
-66.407	116.547	-0.172	-0.210
-65.392	800.000	-0.024	-0.073
-64.378	800.000	0.046	-0.151
-63.363	157.720	0.122	0.168
-62.349	91.283	0.109	0.122
-61.334	27.885	-0.719	-0.604
-60.319	-84.700	0.410	0.128
-59.305	-200.000	-0.192	-0.961
-58.290	294.632	0.521	0.947
-57.276	630.594	0.569	1.433
-56.261	-200.000	86.201	508.181
-55.246	478.018	1376.759	3101.724
-54.232	145.855	2593.730	3461.146
-53.217	110.828	2248.529	2693.141
-52.203	48.117	1774.446	1651.403
-51.188	41.480	1577.882	1421.337
-50.173	38.938	1549.964	1378.313
-49.159	54.876	1594.809	1532.030
-48.144	59.054	1614.776	1580.945
-47.130	42.017	1573.066	1420.583
-46.115	38.720	1557.417	1383.184
-45.100	38.581	1553.831	1378.965
-44.086	38.476	1552.071	1376.609
-43.071	38.409	1550.131	1374.361
-42.057	38.367	1548.237	1372.333
-41.042	38.279	1546.977	1370.544
-40.027	38.292	1545.714	1369.461
-39.013	38.318	1544.330	1368.361
-37.998	38.307	1542.715	1366.803
-36.984	38.339	1541.470	1365.867
-35.969	38.345	1539.929	1364.493
-34.954	38.431	1538.273	1363.567
-33.940	38.390	1536.875	1361.988
-32.925	38.442	1535.512	1361.090
-31.911	38.481	1533.886	1359.864
-30.896	38.494	1532.699	1358.848
-29.881	38.499	1531.427	1357.700
-28.867	38.487	1530.242	1356.511
-27.852	38.477	1528.558	1354.898
-26.838	38.448	1527.031	1353.289
-25.823	38.412	1525.804	1351.900
-24.809	38.467	1524.122	1350.734
-23.794	38.463	1522.100	1348.860
-22.779	38.477	1520.909	1347.851
-21.765	38.517	1519.854	1347.135
-20.750	38.450	1518.806	1345.691
-19.736	38.476	1517.942	1345.056
-18.721	38.491	1515.900	1343.291
-17.706	38.415	1515.524	1342.385
-16.692	38.352	1514.324	1340.841
-15.677	38.396	1512.789	1339.725
-14.663	38.396	1511.960	1338.943
-13.648	38.356	1510.945	1337.710
-12.633	38.365	1510.066	1336.944
-11.619	38.364	1509.046	1335.985
-10.604	38.380	1508.130	1335.224
-9.590	38.360	1507.121	1334.145
-8.575	38.325	1506.740	1333.514
-7.560	38.363	1505.456	1332.584
-6.546	38.375	1504.508	1331.774
-5.531	38.403	1503.666	1331.167
-4.517	38.456	1502.573	1330.508
-3.502	38.316	1501.793	1328.813
-2.487	38.349	1500.662	1327.982
-1.473	38.429	1499.433	1327.384
-0.458	38.369	1498.221	1325.850
0.556	37.557	1487.996	1313.747
1.571	33.595	1458.877	1261.631
2.586	27.821	1390.785	1165.888
3.600	24.237	1300.962	1069.037
4.615	21.757	1251.087	1013.643
5.629	18.102	1193.751	946.891
6.644	9.630	1105.582	833.242
7.659	2.348	1061.819	763.920
8.673	1.057	1055.784	753.100
9.688	0.911	1052.884	750.240
10.702	0.893	1051.648	749.204
11.717	0.859	1049.949	747.762
12.731	3.018	1052.207	759.987
13.746	10.719	1062.008	805.312
14.761	16.652	1069.702	840.625
15.775	17.641	1070.343	845.967
16.790	17.147	1068.933	842.329
17.804	16.265	1066.252	835.776
18.819	15.267	1064.630	829.494
19.834	14.819	1062.983	825.925
20.848	14.716	1061.439	824.140
21.863	14.366	1060.948	821.959
22.877	13.931	1060.438	819.349
23.892	13.793	1059.512	817.877
24.907	13.679	1059.020	816.865
25.921	13.774	1057.722	816.258
26.936	13.661	1057.445	815.418
27.950	13.683	1056.813	814.967
28.965	13.851	1055.967	815.066
29.980	13.783	1055.146	814.026
30.994	13.911	1053.853	813.586
32.009	13.860	1053.116	812.694
33.023	14.008	1052.313	812.729
34.038	13.927	1051.863	811.912
35.053	13.915	1050.889	811.031
36.067	13.963	1049.704	810.279
37.082	13.829	1049.302	809.245
38.096	13.904	1048.739	809.100
39.111	13.965	1047.579	808.434
40.126	13.819	1047.432	807.538
41.140	13.925	1045.499	806.488
42.155	13.734	1044.953	805.069
43.169	13.646	1043.778	803.668
44.184	13.773	1042.901	803.535
45.199	13.787	1041.476	802.436
46.213	13.606	1040.867	801.020
47.228	13.734	1039.819	800.759
48.242	13.898	1038.272	800.287
49.257	13.800	1037.687	799.296
50.271	13.885	1036.652	798.839
51.286	13.840	1035.823	797.908
52.301	13.882	1034.957	797.374
53.315	13.785	1034.534	796.511
54.330	13.876	1033.380	795.988
55.344	13.797	1032.597	794.937
56.359	13.632	1031.551	793.272
57.374	13.712	1030.712	792.940
58.388	13.773	1029.780	792.446
59.403	13.708	1028.970	791.441
60.417	13.690	1028.169	790.668
61.432	13.829	1027.347	790.627
62.447	13.712	1027.006	789.739
63.461	13.638	1025.995	788.537
64.476	13.638	1024.984	787.694
65.490	13.610	1023.999	786.732
66.505	13.751	1023.113	786.652
67.520	13.566	1022.609	785.319
68.534	13.619	1021.944	784.987
69.549	13.702	1021.039	784.614
70.563	13.803	1020.086	784.293
71.578	13.653	1019.857	783.339
72.593	13.584	1018.666	782.027
73.607	13.618	1017.927	781.554
74.622	13.658	1016.313	780.433
75.636	13.618	1015.722	779.721
76.651	13.672	1014.682	779.108
77.666	13.389	1014.623	777.662
78.680	13.512	1013.911	777.625
79.695	13.578	1013.120	777.261
80.709	13.572	1012.746	776.876
81.724	13.595	1011.556	776.002
82.739	13.680	1010.806	775.755
83.753	13.627	1010.356	775.095
84.768	13.721	1009.536	774.836
85.782	13.836	1008.593	774.580
86.797	13.888	1007.197	773.684
87.812	13.832	1006.640	772.925
88.826	13.821	1005.887	772.225
89.841	13.765	1005.064	771.269
90.855	13.819	1004.184	770.773
91.870	13.848	1003.272	770.140
92.884	13.830	1002.956	769.747
93.899	13.872	1002.160	769.260
94.914	13.958	1001.134	768.806
95.928	13.957	1000.223	768.030
96.943	13.984	999.795	767.762
97.957	13.951	998.906	766.856
98.972	13.870	998.323	765.968
99.987	13.872	997.568	765.332
101.001	13.840	996.839	764.557
102.016	13.893	995.991	764.080
103.030	13.812	995.157	763.004
104.045	13.866	994.024	762.316
105.060	13.863	993.209	761.606
106.074	13.877	992.229	760.854
107.089	13.831	990.972	759.611
108.103	13.799	990.348	758.919
109.118	13.632	989.687	757.582
110.133	13.712	988.696	757.122
111.147	13.897	987.666	757.109
112.162	13.762	986.825	755.785
113.176	13.867	986.186	755.706
114.191	13.857	985.165	754.810
115.206	13.766	984.523	753.840
116.220	13.862	983.943	753.765
117.235	13.843	982.753	752.698
118.249	13.850	982.204	752.245
119.264	13.821	981.147	751.235
120.279	13.838	980.508	750.756
121.293	13.765	979.531	749.613
122.308	13.719	979.318	749.175
123.322	13.807	977.694	748.266
124.337	13.683	977.051	747.149
125.352	13.722	975.598	746.147
126.366	13.903	974.341	745.931
127.381	13.810	973.781	745.019
128.395	13.840	972.505	744.110
129.410	13.913	971.200	743.376
130.424	13.851	970.364	742.391
131.439	13.859	969.557	741.742
132.454	13.890	968.984	741.377
133.468	13.820	968.329	740.497
134.483	13.859	967.548	740.011
135.497	13.960	966.665	739.720
136.512	13.927	965.661	738.741
137.527	13.831	965.175	737.873
138.541	13.869	964.448	737.423
139.556	13.958	963.694	737.174
140.570	13.813	962.991	735.929
141.585	13.854	962.291	735.512
142.600	13.948	961.734	735.438
143.614	13.981	960.446	734.532
144.629	13.931	960.183	734.048
145.643	13.933	958.935	733.035
146.658	14.008	958.343	732.847
147.673	13.994	957.477	732.058
148.687	14.002	955.982	730.886
149.702	14.037	955.410	730.539
150.716	13.885	954.910	729.423
151.731	13.790	954.055	728.289
152.746	13.868	953.213	727.923
153.760	13.887	952.616	727.488
154.775	14.004	951.573	727.137
155.789	14.083	950.771	726.807
156.804	13.901	949.976	725.341
157.819	14.002	949.242	725.156
158.833	14.032	948.696	724.806
159.848	14.125	947.860	724.508
160.862	14.067	947.478	723.901
161.877	14.015	946.772	723.072
162.892	14.076	945.786	722.516
163.906	13.963	944.944	721.322
164.921	13.995	943.982	720.659
165.935	14.023	942.908	719.897
166.950	14.113	941.880	719.437
167.964	14.091	940.703	718.381
168.979	14.112	940.518	718.268
169.994	13.960	939.350	716.654
171.008	14.062	938.402	716.310
172.023	14.046	937.719	715.654
173.037	14.125	936.720	715.168
174.052	14.226	935.764	714.809
175.067	14.261	935.299	714.542
176.081	14.176	934.397	713.424
177.096	14.098	933.557	712.386
178.110	14.102	933.073	711.972
179.125	14.193	932.450	711.823
180.140	14.253	931.281	711.124
181.154	14.105	930.804	710.065
182.169	14.194	930.083	709.831
183.183	14.189	929.565	709.350
184.198	14.326	928.621	709.151
185.213	14.310	928.235	708.725
186.227	14.252	927.816	708.096
187.242	14.407	927.062	708.117
188.256	14.297	926.712	707.320
189.271	14.400	925.331	706.642
190.286	14.252	924.918	705.634
191.300	14.215	924.048	704.754
192.315	14.153	923.183	703.768
193.329	14.200	922.707	703.542
194.344	14.257	921.691	702.946
195.359	14.247	921.319	702.557
196.373	14.407	920.181	702.300
197.388	14.401	920.057	702.120
198.402	14.377	919.742	701.718
199.417	14.457	919.233	701.600
200.432	14.568	918.775	701.659
201.446	14.535	918.151	700.982
202.461	14.474	917.813	700.406
203.475	14.663	917.302	700.743
204.490	14.615	916.070	699.540
205.504	14.655	915.396	699.133
206.519	14.564	914.952	698.351
207.534	14.563	914.177	697.692
208.548	14.486	913.513	696.802
209.563	14.602	912.364	696.347
210.577	14.664	911.749	696.076
211.592	14.615	911.601	695.696
212.607	14.656	911.288	695.568
213.621	14.692	910.301	694.903
214.636	14.646	909.625	694.134
215.650	14.709	909.076	693.917
216.665	14.518	908.834	692.876
217.680	14.693	908.225	693.075
218.694	14.806	907.441	692.883
219.709	14.868	906.667	692.488
220.723	14.567	906.700	691.206
221.738	14.692	905.795	690.975
222.753	14.878	905.104	691.155
223.767	14.766	904.125	689.884
224.782	14.733	903.318	689.070
225.796	14.768	902.604	688.606
226.811	14.818	902.076	688.351
227.826	14.990	901.024	688.193
228.840	14.903	900.549	687.414
229.855	14.859	899.824	686.617
230.869	14.915	899.481	686.526
231.884	14.908	898.873	685.973
232.899	14.869	898.390	685.384
233.913	14.949	897.308	684.826
234.928	14.780	896.499	683.457
235.942	14.796	895.847	682.964
236.957	14.866	895.071	682.595
237.972	14.919	894.486	682.306
238.986	14.950	893.744	681.807
240.001	15.031	892.868	681.406
241.015	14.862	892.665	680.503
242.030	14.941	892.097	680.333
243.045	14.886	891.393	679.511
244.059	14.963	890.537	679.112
245.074	15.083	889.891	679.045
246.088	14.991	889.352	678.202
247.103	15.149	888.470	678.107
248.117	15.142	887.948	677.620
249.132	15.175	887.513	677.363
250.147	15.122	887.213	676.862
251.161	15.306	886.330	676.871
252.176	15.375	885.090	676.139
253.190	15.311	884.819	675.618
254.205	15.223	884.574	675.016
255.220	15.415	883.588	674.976
256.234	15.269	883.190	674.025
257.249	15.357	882.559	673.838
258.263	15.396	882.174	673.638
259.278	15.487	881.175	673.183
260.293	15.467	880.916	672.847
261.307	15.436	880.396	672.264
262.322	15.445	879.809	671.792
263.336	15.567	878.933	671.551
264.351	15.540	878.177	670.806
265.366	15.568	877.775	670.553
266.380	15.471	877.505	669.898
267.395	15.500	876.515	669.199
268.409	15.480	875.717	668.452
269.424	15.608	874.971	668.331
270.439	15.586	874.145	667.555
271.453	15.721	873.217	667.321
272.468	15.563	872.761	666.290
273.482	15.517	872.151	665.580
274.497	15.659	871.362	665.483
275.512	15.620	870.760	664.809
276.526	15.556	870.272	664.125
277.541	15.484	869.850	663.461
278.555	15.656	868.925	663.375
279.570	15.647	868.285	662.792
280.585	15.736	868.158	662.989
281.599	15.615	867.584	662.015
282.614	15.767	866.784	661.945
283.628	15.821	865.865	661.394
284.643	15.723	865.772	660.879
285.657	15.820	864.950	660.573
286.672	15.754	864.725	660.087
287.687	15.719	864.143	659.446
288.701	15.892	863.550	659.613
289.716	15.956	862.758	659.198
290.730	15.951	862.258	658.739
291.745	15.883	861.931	658.165
292.760	15.887	860.797	657.258
293.774	15.975	860.190	657.079
294.789	15.780	860.148	656.230
295.803	16.011	859.362	656.472
296.818	15.980	858.743	655.818
297.833	15.883	858.190	654.963
298.847	15.839	857.399	654.129
299.862	16.062	856.578	654.312
300.876	16.089	855.678	653.668
301.891	15.935	855.345	652.760
302.906	16.075	854.570	652.654
303.920	16.148	854.035	652.470
304.935	16.138	853.467	651.940
305.949	16.234	852.838	651.770
306.964	16.195	852.172	651.055
307.979	16.178	851.756	650.613
308.993	16.340	850.778	650.432
310.008	16.276	850.243	649.720
311.022	16.314	849.975	649.602
312.037	16.489	849.196	649.625
313.052	16.361	848.801	648.774
314.066	16.327	848.295	648.196
315.081	16.181	847.851	647.240
316.095	16.280	847.219	647.080
317.110	16.046	846.939	645.913
318.125	16.169	846.334	645.866
319.139	16.275	845.470	645.554
320.154	16.235	844.972	644.962
321.168	16.131	844.724	644.321
322.183	16.217	844.277	644.250
323.197	16.177	843.754	643.641
324.212	16.363	842.979	643.704
325.227	16.404	841.969	643.033
326.241	16.342	842.028	642.782
327.256	16.290	841.428	642.071
328.270	16.277	840.672	641.385
329.285	16.407	840.502	641.695
330.300	16.381	840.099	641.232
331.314	16.294	839.252	640.197
332.329	16.388	838.618	640.013
333.343	16.488	837.795	639.707
334.358	16.463	837.343	639.213
335.373	16.492	836.709	638.782
336.387	16.540	836.004	638.367
337.402	16.382	835.727	637.502
338.416	16.646	834.775	637.715
339.431	16.510	834.539	636.966
340.446	16.664	833.701	636.849
341.460	16.688	833.071	636.401
342.475	16.675	832.691	636.009
343.489	16.770	832.140	635.885
344.504	16.756	831.736	635.468
345.519	16.800	830.840	634.894
346.533	16.650	830.573	634.072
347.548	16.760	830.022	634.005
348.562	16.922	829.513	634.168
349.577	16.731	829.006	633.008
350.592	16.825	828.507	632.922
351.606	16.742	828.222	632.338
352.621	16.778	827.534	631.891
353.635	16.783	827.124	631.541
354.650	16.859	826.448	631.255
355.665	16.857	826.347	631.113
356.679	16.745	825.825	630.241
357.694	16.855	825.121	630.058
358.708	17.032	824.676	630.319
359.723	16.956	823.959	629.436
360.738	16.981	823.370	629.021
361.752	16.870	823.025	628.290
362.767	16.934	822.566	628.120
363.781	16.976	822.337	628.045
364.796	17.027	821.698	627.690
365.810	17.025	821.530	627.500
366.825	17.120	821.202	627.543
367.840	17.018	820.762	626.778
368.854	17.170	820.199	626.852
369.869	17.206	819.625	626.489
370.883	17.179	818.987	625.849
371.898	17.254	818.406	625.623
372.913	17.075	817.902	624.524
373.927	17.196	817.115	624.316
374.942	17.108	816.795	623.690
375.956	17.241	815.883	623.429
376.971	17.136	815.301	622.542
377.986	17.329	814.959	622.936
379.000	17.292	814.693	622.540
380.015	17.360	813.983	622.193
381.029	17.227	813.646	621.394
382.044	17.321	813.009	621.194
383.059	17.405	812.272	620.883
384.073	17.288	811.722	619.980
385.088	17.386	811.555	620.156
386.102	17.372	810.499	619.243
387.117	17.556	809.939	619.430
388.132	17.332	809.937	618.557
389.146	17.324	809.639	618.245
390.161	17.410	808.834	617.890
391.175	17.388	808.527	617.521
392.190	17.544	808.073	617.684
393.205	17.331	808.260	617.001
394.219	17.449	807.374	616.697
395.234	17.374	806.902	616.010
396.248	17.332	806.321	615.361
397.263	17.437	805.789	615.280
398.278	17.403	805.036	614.526
399.292	17.307	805.161	614.222
400.307	17.412	804.784	614.258
401.321	17.480	804.254	614.044
402.336	17.470	803.880	613.669
403.350	17.643	803.418	613.886
404.365	17.439	803.338	613.035
405.380	17.726	802.176	613.125
406.394	17.611	801.867	612.423
407.409	17.600	801.543	612.080
408.423	17.696	801.149	612.070
409.438	17.588	800.506	611.139
410.453	17.833	799.941	611.530
411.467	17.809	799.466	611.026
412.482	17.885	799.219	611.056
413.496	17.871	798.668	610.530
414.511	17.927	798.377	610.457
415.526	17.710	798.230	609.514
416.540	17.882	797.458	609.483
417.555	18.005	797.155	609.636
418.569	17.924	796.760	608.993
419.584	17.705	796.510	607.968
420.599	17.845	795.738	607.823
421.613	98.969	1275.718	1413.102
422.628	84.691	1345.670	1413.227
