DTS Sentinel unit serial number:	SN413079Multiplexer serial number:	ORYXHardware model number:	OX4-SRSoftware version number:	ORYX F/W v4.00 Oryx Data Collector v3.7.2.0data status	okinstallation	princeton_trtdifferential loss correction	single-endedforward channel	channel 3reverse channel	N/Adate	2019/09/19time	14:48:35forward acquisition time	60.00reverse acquisition time	0.00gamma	496.2192k internal	0.2317k external	0.2317temperature offset calibration	1.0005default loss term (dB/km)	0.3790temperature slope calibration	1.0000multiplexer offset coefficient	1.0000multiplexer slope coefficient	1.0000fibre end	0.00T internal ref (°C)	32.77T ext. ref 1 (°C)	1.10T ext. ref 2 (°C)	29.73length (m)	temperature (°C)	Stokes	anti-Stokes-747.200	-39.471	0.087	0.046
-746.185	800.000	-0.063	0.242
-745.171	-70.986	-0.275	-0.105
-744.156	-200.000	-0.024	-0.151
-743.142	328.195	-0.093	0.181
-742.127	800.000	-0.052	0.185
-741.112	29.894	0.293	-0.253
-740.098	800.000	0.072	0.265
-739.083	800.000	-0.061	0.192
-738.069	-200.000	0.320	-0.000
-737.054	-200.000	-0.015	-0.104
-736.039	607.444	-0.165	0.417
-735.025	298.438	0.109	0.204
-734.010	-200.000	-0.037	-0.242
-732.996	-122.314	-0.327	-0.054
-731.981	274.293	-0.110	0.197
-730.966	-68.800	-0.116	-0.045
-729.952	-135.241	-0.157	0.019
-728.937	122.535	0.148	0.188
-727.923	-70.683	0.308	-0.118
-726.908	133.259	-0.188	0.246
-725.894	-200.000	-0.014	-0.127
-724.879	-135.104	-0.067	-0.008
-723.864	286.287	-0.073	-0.134
-722.850	41.294	-0.012	-0.011
-721.835	514.627	0.145	0.342
-720.821	-200.000	-0.023	0.358
-719.806	56.083	-0.116	0.114
-718.791	587.072	-0.093	-0.232
-717.777	-200.000	-0.003	-0.054
-716.762	-39.054	-0.037	-0.020
-715.748	800.000	0.031	0.120
-714.733	-200.000	0.024	0.181
-713.718	-200.000	-0.024	-0.265
-712.704	-126.871	-0.125	0.019
-711.689	53.833	0.029	0.028
-710.675	-75.058	-0.255	-0.092
-709.660	-80.012	-0.524	-0.178
-708.645	706.344	-0.080	-0.214
-707.631	-200.000	-0.049	0.254
-706.616	-18.621	-0.027	-0.017
-705.602	665.331	-0.104	-0.271
-704.587	263.007	-0.097	-0.170
-703.572	-137.257	0.374	-0.043
-702.558	-0.767	0.312	0.223
-701.543	14.831	-0.237	0.187
-700.529	-24.671	0.117	0.070
-699.514	711.118	0.069	0.184
-698.499	13.275	-0.016	-0.012
-697.485	-17.100	0.354	-0.226
-696.470	404.197	0.052	0.111
-695.456	175.272	0.078	-0.115
-694.441	128.448	0.195	-0.251
-693.426	-200.000	0.021	0.163
-692.412	-112.402	-0.074	-0.015
-691.397	800.000	-0.006	0.021
-690.383	-112.579	-0.185	0.037
-689.368	-41.970	0.084	-0.043
-688.354	-5.225	0.145	-0.101
-687.339	-166.045	0.103	-0.004
-686.324	-200.000	-0.003	-0.123
-685.310	-153.108	-0.260	0.018
-684.295	-47.228	0.170	-0.084
-683.281	545.855	0.043	0.103
-682.266	128.760	0.040	-0.051
-681.251	161.114	-0.091	0.129
-680.237	-31.646	0.084	0.048
-679.222	458.130	-0.069	0.156
-678.208	181.846	-0.137	-0.204
-677.193	-200.000	0.012	0.085
-676.178	0.076	-0.281	0.202
-675.164	413.428	0.183	0.394
-674.149	-80.735	-0.295	0.099
-673.135	-200.000	-0.009	0.093
-672.120	800.000	-0.162	0.469
-671.105	-26.809	0.140	0.082
-670.091	80.603	-0.162	0.176
-669.076	-21.853	-0.265	-0.163
-668.062	-70.888	-0.059	-0.022
-667.047	159.779	-0.198	-0.278
-666.032	371.393	0.040	-0.083
-665.018	-17.251	-0.109	-0.069
-664.003	-185.074	-0.243	0.004
-662.989	37.478	0.069	0.061
-661.974	-76.549	-0.281	0.100
-660.959	-200.000	-0.046	0.373
-659.945	295.038	-0.022	-0.041
-658.930	800.000	-0.049	-0.188
-657.916	130.090	-0.187	0.242
-656.901	-126.702	-0.297	-0.044
-655.886	-75.938	0.328	0.117
-654.872	-200.000	-0.004	-0.094
-653.857	429.211	0.035	-0.077
-652.843	-200.000	0.048	-0.338
-651.828	-9.155	0.303	0.204
-650.814	-200.000	0.003	-0.105
-649.799	-127.566	-0.034	0.005
-648.784	-73.263	-0.470	-0.173
-647.770	800.000	0.125	0.422
-646.755	-116.716	-0.102	-0.019
-645.741	-85.343	0.123	0.039
-644.726	694.733	0.047	0.126
-643.711	-200.000	0.030	0.261
-642.697	123.030	0.090	-0.114
-641.682	60.729	-0.050	0.050
-640.668	532.385	0.159	-0.379
-639.653	-10.930	-0.275	-0.183
-638.638	800.000	0.062	-0.258
-637.624	800.000	-0.046	-0.149
-636.609	-87.832	0.027	-0.008
-635.595	-200.000	-0.038	0.172
-634.580	270.209	-0.046	-0.082
-633.565	-70.106	-0.252	-0.097
-632.551	800.000	0.065	-0.217
-631.536	233.603	-0.053	-0.088
-630.522	58.977	0.016	-0.016
-629.507	-144.059	-0.261	-0.025
-628.492	-80.733	0.219	-0.073
-627.478	472.023	0.072	-0.164
-626.463	-200.000	-0.004	0.151
-625.449	-91.578	0.082	0.023
-624.434	800.000	-0.007	0.024
-623.419	122.706	0.142	0.179
-622.405	131.972	-0.240	-0.312
-621.390	-157.791	-0.201	0.012
-620.376	-49.934	-0.284	-0.136
-619.361	-118.039	-0.236	-0.042
-618.346	690.774	-0.024	0.064
-617.332	384.494	-0.203	-0.421
-616.317	-98.371	-0.221	0.057
-615.303	29.465	0.179	0.153
-614.288	173.615	0.141	0.205
-613.273	-117.305	0.345	-0.063
-612.259	-73.904	-0.078	-0.028
-611.244	-127.601	0.058	-0.008
-610.230	339.332	-0.132	-0.259
-609.215	79.195	0.206	-0.222
-608.201	169.195	0.258	-0.371
-607.186	-200.000	-0.010	-0.153
-606.171	800.000	0.110	-0.330
-605.157	575.877	-0.076	0.187
-604.142	437.402	0.113	0.249
-603.128	-163.288	-0.450	-0.022
-602.113	-121.212	0.043	-0.007
-601.098	-200.000	-0.010	0.217
-600.084	-170.277	0.355	-0.013
-599.069	-166.177	0.128	0.005
-598.055	-11.746	-0.158	-0.105
-597.040	119.381	-0.048	-0.059
-596.025	800.000	0.029	0.090
-595.011	-44.209	0.180	0.091
-593.996	-69.646	0.130	0.050
-592.982	146.205	-0.050	0.067
-591.967	36.476	0.399	-0.354
-590.952	-141.859	0.221	0.022
-589.938	-155.103	-0.167	0.011
-588.923	-96.373	0.105	-0.028
-587.909	-200.000	-0.022	0.107
-586.894	-113.111	0.195	-0.039
-585.879	25.690	-0.091	-0.076
-584.865	102.575	-0.168	0.197
-583.850	-200.000	0.008	0.092
-582.836	800.000	0.092	-0.304
-581.821	-44.163	-0.232	-0.117
-580.806	-114.305	0.152	0.030
-579.792	-62.964	-0.081	-0.034
-578.777	80.323	0.192	-0.208
-577.763	-200.000	0.010	0.198
-576.748	-200.000	0.009	-0.309
-575.733	-43.940	-0.193	0.098
-574.719	-54.075	0.245	0.112
-573.704	335.946	0.045	-0.087
-572.690	-5.024	-0.055	0.038
-571.675	-200.000	-0.006	-0.068
-570.661	-200.000	-0.043	-0.282
-569.646	800.000	-0.043	0.169
-568.631	3.903	0.035	0.026
-567.617	-161.409	0.245	-0.013
-566.602	34.067	-0.035	-0.030
-565.588	-45.877	-0.182	0.090
-564.573	108.413	-0.107	0.129
-563.558	-20.531	0.179	-0.110
-562.544	-59.473	0.186	0.081
-561.529	99.354	0.169	0.197
-560.515	-63.727	0.324	-0.134
-559.500	-103.507	-0.463	-0.109
-558.485	-96.475	0.273	-0.072
-557.471	334.138	0.078	-0.152
-556.456	-81.644	0.192	-0.063
-555.442	-6.278	-0.283	-0.194
-554.427	66.050	-0.127	-0.130
-553.412	31.612	-0.104	-0.090
-552.398	-9.607	-0.188	0.126
-551.383	-64.698	-0.200	0.081
-550.369	-200.000	-0.032	0.191
-549.354	-95.239	0.155	-0.042
-548.339	-38.424	0.253	-0.135
-547.325	-200.000	-0.039	0.246
-546.310	-56.133	-0.108	-0.049
-545.296	-14.296	-0.095	0.061
-544.281	-109.250	0.145	0.031
-543.266	-200.000	0.020	0.138
-542.252	-119.671	-0.088	0.015
-541.237	-6.812	0.045	-0.031
-540.223	699.953	0.133	0.352
-539.208	800.000	-0.105	0.290
-538.193	-200.000	-0.026	0.153
-537.179	-35.806	-0.257	0.140
-536.164	372.392	-0.073	-0.150
-535.150	-200.000	0.034	0.179
-534.135	-200.000	0.024	-0.127
-533.121	371.710	0.094	-0.192
-532.106	-94.084	-0.213	0.059
-531.091	-86.948	-0.294	-0.090
-530.077	-58.789	0.034	0.015
-529.062	-200.000	0.023	-0.116
-528.048	-200.000	-0.025	0.184
-527.033	-200.000	-0.004	-0.144
-526.018	-155.882	-0.156	-0.010
-525.004	800.000	-0.095	0.374
-523.989	800.000	0.061	0.261
-522.975	-57.452	-0.064	0.028
-521.960	-99.923	-0.185	0.046
-520.945	800.000	0.106	-0.301
-519.931	72.741	0.109	0.114
-518.916	-84.959	-0.347	0.109
-517.902	366.700	-0.059	-0.120
-516.887	-149.193	-0.223	-0.018
-515.872	747.117	-0.108	-0.291
-514.858	-200.000	-0.041	-0.210
-513.843	-136.142	0.262	0.031
-512.829	234.502	0.065	-0.108
-511.814	664.594	-0.029	0.076
-510.799	376.642	0.109	0.224
-509.785	-200.000	-0.037	0.187
-508.770	-133.835	-0.182	-0.023
-507.756	195.945	-0.259	-0.395
-506.741	-10.641	0.120	0.080
-505.726	-200.000	0.015	0.193
-504.712	-200.000	0.000	-0.136
-503.697	-73.268	-0.209	0.077
-502.683	-76.906	0.179	-0.063
-501.668	211.160	-0.174	0.274
-500.653	305.039	0.171	0.319
-499.639	95.640	-0.100	-0.114
-498.624	-130.502	-0.136	0.018
-497.610	800.000	-0.078	0.292
-496.595	-14.777	-0.261	-0.168
-495.581	-15.509	0.020	-0.013
-494.566	-41.333	-0.251	-0.129
-493.551	132.836	0.112	0.146
-492.537	35.018	0.089	-0.078
-491.522	216.832	0.058	-0.093
-490.508	-12.155	-0.341	0.224
-489.493	-35.346	-0.128	0.070
-488.478	800.000	-0.040	0.127
-487.464	-130.191	0.226	0.031
-486.449	239.331	0.082	0.137
-485.435	-39.818	0.022	-0.012
-484.420	-159.171	0.181	-0.010
-483.405	77.143	0.096	0.102
-482.391	-42.914	-0.026	0.013
-481.376	800.000	0.075	0.259
-480.362	-137.823	0.034	-0.004
-479.347	800.000	0.061	0.240
-478.332	-130.679	0.380	-0.051
-477.318	674.848	-0.098	-0.255
-476.303	79.193	0.159	-0.171
-475.289	35.346	-0.148	-0.130
-474.274	248.531	0.136	0.230
-473.259	52.927	0.125	-0.119
-472.245	-200.000	0.022	-0.180
-471.230	-69.248	-0.294	-0.113
-470.216	30.070	0.156	0.134
-469.201	-147.718	-0.325	-0.027
-468.186	800.000	-0.036	0.130
-467.172	-200.000	0.040	0.190
-466.157	437.758	-0.119	0.260
-465.143	-23.687	-0.112	0.067
-464.128	-136.818	0.241	0.028
-463.113	186.398	0.243	0.363
-462.099	-200.000	-0.028	0.133
-461.084	150.700	0.088	0.120
-460.070	-70.679	-0.369	-0.140
-459.055	-18.243	0.093	-0.058
-458.040	199.888	-0.098	-0.151
-457.026	73.874	0.252	0.265
-456.011	12.939	-0.010	-0.007
-454.997	66.119	0.157	-0.160
-453.982	-70.922	-0.500	-0.189
-452.968	378.123	-0.068	0.140
-451.953	34.780	0.066	0.058
-450.938	-165.096	-0.327	-0.015
-449.924	37.521	-0.077	-0.069
-448.909	-101.920	-0.122	-0.029
-447.895	81.433	0.117	0.126
-446.880	43.305	-0.263	0.240
-445.865	-106.851	-0.268	0.060
-444.851	500.241	0.020	0.046
-443.836	800.000	-0.041	-0.147
-442.822	107.510	-0.021	0.025
-441.807	463.034	0.138	-0.309
-440.792	-102.014	-0.186	0.045
-439.778	40.497	0.086	0.078
-438.763	337.655	-0.120	0.234
-437.749	-200.000	0.013	0.261
-436.734	124.327	-0.063	0.080
-435.719	164.105	-0.045	0.064
-434.705	119.848	-0.198	-0.246
-433.690	800.000	-0.067	0.197
-432.676	-200.000	-0.315	-0.000
-431.661	-169.377	-0.368	0.014
-430.646	-146.843	-0.248	-0.021
-429.632	46.240	0.350	0.324
-428.617	800.000	0.034	0.126
-427.603	-129.738	0.294	-0.040
-426.588	575.906	0.051	-0.125
-425.573	-18.530	-0.134	-0.084
-424.559	73.915	-0.127	0.134
-423.544	27.127	0.337	0.283
-422.530	800.000	-0.028	-0.090
-421.515	-77.592	0.208	0.072
-420.500	107.450	-0.106	0.126
-419.486	-133.003	-0.064	-0.008
-418.471	-149.756	0.236	0.019
-417.457	-22.771	-0.121	-0.073
-416.442	-88.958	-0.318	-0.094
-415.428	-34.448	0.367	-0.201
-414.413	225.448	-0.102	0.165
-413.398	-30.173	-0.110	0.062
-412.384	30.032	0.112	-0.096
-411.369	-200.000	0.074	0.444
-410.355	35.168	-0.439	-0.384
-409.340	-200.000	0.037	0.252
-408.325	122.518	0.065	0.081
-407.311	597.675	-0.121	-0.299
-406.296	96.732	0.190	-0.217
-405.282	-125.244	0.095	-0.015
-404.267	-139.728	-0.210	0.022
-403.252	-183.056	0.458	-0.008
-402.238	-200.000	0.028	-0.260
-401.223	45.076	0.226	-0.208
-400.209	206.540	0.219	0.341
-399.194	245.117	0.105	0.177
-398.179	137.386	-0.207	0.270
-397.165	-200.000	-0.009	0.110
-396.150	-200.000	-0.000	0.075
-395.136	-200.000	-0.042	-0.237
-394.121	15.001	0.088	0.069
-393.106	-200.000	-0.010	0.134
-392.092	-73.264	-0.254	0.093
-391.077	-146.988	0.215	0.018
-390.063	-2.964	-0.199	-0.138
-389.048	-200.000	-0.021	-0.121
-388.033	-88.873	0.056	-0.016
-387.019	-92.866	-0.076	0.021
-386.004	737.619	-0.060	0.161
-384.990	323.273	-0.173	-0.329
-383.975	-98.940	-0.292	-0.074
-382.960	-17.487	0.110	0.069
-381.946	800.000	-0.057	0.237
-380.931	219.257	0.099	-0.158
-379.917	46.463	0.168	-0.156
-378.902	-86.024	0.147	0.045
-377.888	-15.175	-0.162	-0.104
-376.873	-118.459	-0.102	0.018
-375.858	-200.000	0.017	0.181
-374.844	-140.674	-0.207	0.021
-373.829	-200.000	0.022	0.281
-372.815	219.106	0.055	-0.087
-371.800	112.092	-0.208	-0.251
-370.785	-93.071	-0.066	-0.018
-369.771	-200.000	0.010	-0.181
-368.756	-61.364	-0.111	-0.047
-367.742	-43.134	0.079	0.040
-366.727	-41.620	-0.287	0.147
-365.712	18.287	-0.550	-0.438
-364.698	-200.000	-0.013	0.153
-363.683	800.000	-0.028	0.083
-362.669	7.232	0.175	-0.130
-361.654	-200.000	-0.039	0.223
-360.639	-195.903	-0.381	0.003
-359.625	-200.000	0.045	-0.214
-358.610	-7.072	-0.080	-0.054
-357.596	-200.000	0.011	0.187
-356.581	-18.612	-0.128	-0.079
-355.566	800.000	-0.043	-0.169
-354.552	34.740	-0.048	-0.042
-353.537	-200.000	-0.033	-0.165
-352.523	746.856	-0.094	0.254
-351.508	505.467	0.029	-0.066
-350.493	-66.690	-0.347	-0.137
-349.479	79.214	0.238	0.255
-348.464	-24.637	-0.130	-0.077
-347.450	74.426	0.112	-0.117
-346.435	-59.326	-0.233	0.100
-345.420	-24.281	0.081	0.048
-344.406	155.489	-0.186	-0.255
-343.391	133.564	0.240	0.309
-342.377	-21.248	0.071	0.043
-341.362	-43.423	0.084	-0.042
-340.348	85.620	0.234	-0.256
-339.333	800.000	-0.039	0.143
-338.318	-200.000	0.021	-0.219
-337.304	108.624	-0.128	0.152
-336.289	-48.241	0.248	0.119
-335.275	800.000	0.056	0.165
-334.260	25.749	-0.205	0.170
-333.245	-141.856	0.268	-0.027
-332.231	800.000	0.087	0.306
-331.216	218.563	-0.145	-0.231
-330.202	262.407	-0.048	-0.083
-329.187	254.177	0.110	0.188
-328.172	77.095	-0.109	0.115
-327.158	-37.515	-0.069	-0.037
-326.143	-11.305	0.220	-0.144
-325.129	-19.347	0.140	0.086
-324.114	-187.669	-0.178	-0.002
-323.099	-200.000	-0.019	0.138
-322.085	120.800	0.117	0.145
-321.070	-35.441	-0.279	0.151
-320.056	167.533	0.039	0.055
-319.041	-11.649	0.345	-0.226
-318.026	-200.000	-0.050	0.284
-317.012	208.614	0.031	0.048
-315.997	61.394	-0.208	0.206
-314.983	-110.465	0.150	-0.031
-313.968	28.317	-0.104	-0.088
-312.953	800.000	0.117	-0.342
-311.939	14.189	-0.196	-0.152
-310.924	-154.855	-0.307	-0.020
-309.910	110.670	-0.133	-0.159
-308.895	398.733	-0.171	0.356
-307.880	-200.000	0.031	-0.241
-306.866	-200.000	-0.005	-0.076
-305.851	55.799	0.148	-0.143
-304.837	-107.425	0.277	0.061
-303.822	222.402	-0.048	-0.078
-302.807	78.299	0.254	-0.270
-301.793	-200.000	0.297	0.000
-300.778	-200.000	0.056	0.308
-299.764	-138.588	-0.279	0.030
-298.749	-61.249	0.265	-0.111
-297.735	47.436	-0.160	0.148
-296.720	291.303	0.225	-0.407
-295.705	-200.000	-0.000	-0.140
-294.691	340.554	-0.159	-0.309
-293.676	650.599	0.056	-0.143
-292.662	-153.604	0.272	-0.019
-291.647	349.726	0.073	0.144
-290.632	-100.186	0.060	0.015
-289.618	320.489	-0.129	-0.243
-288.603	-46.111	0.242	-0.119
-287.589	-49.238	-0.137	-0.065
-286.574	-200.000	0.023	-0.169
-285.559	-56.803	0.337	-0.148
-284.545	728.662	0.053	0.139
-283.530	-51.142	0.130	0.061
-282.516	288.849	-0.129	-0.232
-281.501	469.074	0.029	0.065
-280.486	-179.713	-0.180	-0.004
-279.472	342.295	0.069	0.133
-278.457	538.829	-0.105	0.249
-277.443	-200.000	0.032	0.205
-276.428	-95.182	0.280	-0.075
-275.413	-200.000	0.029	0.167
-274.399	800.000	-0.099	-0.282
-273.384	800.000	0.110	-0.303
-272.370	800.000	0.083	-0.338
-271.355	9.968	-0.201	-0.152
-270.340	543.954	-0.091	-0.216
-269.326	35.482	0.202	-0.177
-268.311	146.643	0.125	-0.167
-267.297	-173.540	0.264	0.008
-266.282	-140.879	0.345	0.035
-265.267	-138.027	0.216	-0.024
-264.253	-69.815	0.172	-0.065
-263.238	708.488	-0.125	0.328
-262.224	-13.118	0.075	-0.049
-261.209	-200.000	-0.004	-0.528
-260.195	374.476	0.101	0.205
-259.180	-134.017	0.167	0.021
-258.165	337.587	-0.059	-0.114
-257.151	800.000	-0.159	0.651
-256.136	-98.574	0.178	0.045
-255.122	-81.689	0.439	-0.143
-254.107	233.077	0.131	0.215
-253.092	-155.535	0.403	-0.026
-252.078	-70.042	0.227	0.086
-251.063	86.582	0.181	0.198
-250.049	-118.979	-0.383	-0.067
-249.034	-200.000	-0.046	0.231
-248.019	-52.970	0.234	-0.107
-247.005	427.673	-0.202	-0.433
-245.990	462.879	-0.150	0.333
-244.976	95.545	0.203	0.230
-243.961	-200.000	-0.025	0.195
-242.946	200.615	-0.151	-0.230
-241.932	323.585	-0.018	0.035
-240.917	-200.000	0.049	0.263
-239.903	564.005	-0.116	-0.279
-238.888	397.886	-0.085	0.176
-237.873	247.723	0.122	-0.205
-236.859	126.718	0.076	0.095
-235.844	-113.830	-0.255	0.049
-234.830	-37.131	0.329	-0.175
-233.815	90.800	0.049	-0.054
-232.800	800.000	-0.029	-0.106
-231.786	-200.000	-0.021	0.261
-230.771	26.618	0.387	0.321
-229.757	397.761	-0.110	0.228
-228.742	-200.000	-0.038	-0.198
-227.727	259.920	-0.195	-0.334
-226.713	-153.425	-0.086	-0.006
-225.698	-168.959	0.128	0.005
-224.684	-56.548	0.093	0.041
-223.669	-54.999	-0.129	-0.058
-222.655	-19.044	-0.379	-0.234
-221.640	-172.290	0.440	-0.014
-220.625	-54.187	0.183	-0.082
-219.611	73.997	0.055	-0.057
-218.596	800.000	0.114	0.315
-217.582	-33.850	0.370	0.202
-216.567	210.403	-0.366	-0.570
-215.552	-62.050	-0.124	-0.051
-214.538	-152.198	0.006	-0.000
-213.523	-144.119	-0.396	-0.037
-212.509	-102.595	-0.171	0.040
-211.494	27.567	-0.147	0.123
-210.479	-200.000	-0.010	0.332
-209.465	-96.718	-0.228	-0.060
-208.450	63.127	-0.168	-0.167
-207.436	-165.877	-0.094	0.004
-206.421	-10.034	0.069	0.046
-205.406	-58.788	-0.057	0.024
-204.392	105.012	0.109	-0.127
-203.377	74.708	0.172	-0.180
-202.363	-97.898	0.038	0.010
-201.348	800.000	0.053	-0.180
-200.333	315.717	-0.088	-0.164
-199.319	102.371	0.199	0.231
-198.304	222.614	-0.138	-0.221
-197.290	800.000	0.101	-0.284
-196.275	-134.112	0.268	-0.033
-195.260	-200.000	0.011	-0.185
-194.246	-136.891	-0.513	-0.058
-193.231	-20.997	0.108	0.066
-192.217	199.085	0.042	0.064
-191.202	368.566	-0.038	-0.077
-190.187	800.000	-0.033	0.139
-189.173	-200.000	-0.014	0.284
-188.158	-200.000	0.011	0.257
-187.144	-29.536	0.213	0.120
-186.129	-131.817	0.257	-0.033
-185.114	477.189	-0.072	-0.160
-184.100	-35.785	0.103	-0.055
-183.085	-37.497	0.271	-0.143
-182.071	349.430	0.061	0.120
-181.056	-200.000	0.010	0.101
-180.042	794.229	0.147	0.402
-179.027	201.128	0.138	-0.210
-178.012	-12.810	0.108	-0.070
-176.998	-23.614	-0.121	0.072
-175.983	258.070	-0.071	0.121
-174.969	550.977	-0.220	-0.522
-173.954	-162.730	0.322	0.016
-172.939	-129.262	0.144	-0.020
-171.925	-97.133	0.266	0.069
-170.910	-200.000	-0.038	0.184
-169.896	-58.281	0.114	0.049
-168.881	-55.379	-0.235	0.104
-167.866	800.000	-0.030	-0.105
-166.852	104.319	-0.227	-0.265
-165.837	-5.594	0.060	-0.041
-164.823	-56.539	0.314	0.138
-163.808	140.134	-0.175	0.228
-162.793	215.484	0.049	-0.078
-161.779	-33.903	0.176	-0.096
-160.764	-200.000	-0.019	0.255
-159.750	49.927	0.166	0.155
-158.735	-131.262	0.287	0.038
-157.720	-156.339	0.302	0.019
-156.706	-200.000	-0.001	-0.053
-155.691	-49.655	-0.195	0.092
-154.677	142.871	-0.016	-0.022
-153.662	-75.765	-0.310	0.109
-152.647	800.000	-0.059	-0.205
-151.633	-200.000	0.023	0.361
-150.618	-200.000	0.005	-0.057
-149.604	-200.000	-0.041	0.225
-148.589	800.000	0.077	0.286
-147.574	800.000	0.037	0.145
-146.560	500.832	0.095	0.217
-145.545	-104.489	0.291	0.067
-144.531	94.994	-0.230	0.259
-143.516	800.000	0.122	-0.335
-142.502	182.679	-0.051	-0.074
-141.487	-157.316	0.038	0.002
-140.472	302.733	0.157	-0.287
-139.458	-69.789	0.071	-0.027
-138.443	-32.286	0.225	0.124
-137.429	219.569	0.175	0.277
-136.414	-72.898	0.038	-0.014
-135.399	46.327	0.173	0.159
-134.385	-200.000	-0.030	0.273
-133.370	57.864	-0.270	0.261
-132.356	-193.299	-0.241	-0.002
-131.341	-166.281	0.202	-0.008
-130.326	-200.000	0.009	-0.087
-129.312	-200.000	-0.043	0.271
-128.297	329.393	0.111	-0.210
-127.283	206.564	-0.218	0.335
-126.268	162.293	0.123	-0.171
-125.253	-200.000	0.019	-0.097
-124.239	-200.000	-0.015	-0.118
-123.224	-200.000	0.025	-0.432
-122.210	-44.656	0.148	-0.073
-121.195	-111.159	0.254	-0.051
-120.180	82.800	0.328	0.353
-119.166	-138.792	0.433	0.047
-118.151	-133.800	-0.154	-0.019
-117.137	-200.000	0.037	0.173
-116.122	219.093	0.132	0.209
-115.107	678.282	-0.166	-0.427
-114.093	32.562	0.121	0.103
-113.078	-8.707	-0.180	0.119
-112.064	-54.312	0.255	0.115
-111.049	-200.000	0.017	0.074
-110.034	-200.000	0.016	-0.152
-109.020	-200.000	0.014	0.125
-108.005	-17.402	0.150	0.093
-106.991	5.058	-0.198	-0.144
-105.976	48.726	0.305	-0.283
-104.962	800.000	-0.027	-0.084
-103.947	-50.468	0.072	0.034
-102.932	103.500	-0.185	0.214
-101.918	-102.990	0.232	-0.054
-100.903	-55.617	0.095	0.042
-99.889	800.000	-0.041	0.132
-98.874	525.111	-0.057	0.133
-97.859	-47.976	-0.066	-0.031
-96.845	-150.310	-0.286	-0.022
-95.830	226.933	0.073	0.117
-94.816	-200.000	0.014	-0.443
-93.801	-78.375	0.227	0.077
-92.786	171.238	-0.154	-0.218
-91.772	800.000	0.012	0.037
-90.757	-200.000	0.030	-0.350
-89.743	-200.000	0.000	-0.008
-88.728	-51.385	0.245	-0.113
-87.713	33.599	0.231	0.198
-86.699	51.763	0.364	-0.342
-85.684	223.388	0.226	0.359
-84.670	514.169	-0.077	0.177
-83.655	30.517	-0.166	0.140
-82.640	-200.000	0.022	0.272
-81.626	-200.000	0.061	0.320
-80.611	795.640	0.141	0.384
-79.597	-41.847	-0.174	0.088
-78.582	-63.330	-0.190	-0.077
-77.567	-129.243	0.072	0.010
-76.553	221.183	0.053	0.084
-75.538	-149.340	-0.157	0.012
-74.524	324.028	0.052	0.098
-73.509	-81.069	0.044	0.014
-72.494	26.994	-0.040	-0.033
-71.480	227.435	0.143	0.229
-70.465	-37.233	0.216	0.114
-69.451	-168.214	-0.303	0.012
-68.436	800.000	-0.057	0.229
-67.422	-184.032	-0.035	0.001
-66.407	-164.854	-0.242	0.011
-65.392	-68.347	-0.403	-0.154
-64.378	-200.000	-0.027	0.187
-63.363	-42.242	0.197	0.099
-62.349	110.308	-0.148	-0.175
-61.334	27.335	-1.220	-1.010
-60.319	158.894	0.351	0.481
-59.305	800.000	-0.340	-0.978
-58.290	93.484	0.392	0.438
-57.276	305.172	0.695	1.272
-56.261	-200.000	95.487	543.599
-55.246	475.791	1435.689	3196.534
-54.232	146.954	2645.032	3505.893
-53.217	108.604	2235.827	2631.819
-52.203	43.220	1759.568	1583.211
-51.188	35.940	1566.612	1358.416
-50.173	33.528	1539.401	1318.018
-49.159	52.593	1586.815	1493.509
-48.144	54.182	1604.836	1521.621
-47.130	36.131	1564.704	1357.891
-46.115	33.144	1549.175	1323.495
-45.100	32.877	1546.327	1319.143
-44.086	32.915	1544.531	1317.824
-43.071	32.847	1542.577	1315.625
-42.057	32.676	1541.497	1313.463
-41.042	32.786	1539.648	1312.601
-40.027	32.767	1538.292	1311.259
-39.013	32.801	1536.500	1309.915
-37.998	32.782	1535.037	1308.485
-36.984	32.826	1533.949	1307.814
-35.969	32.732	1532.905	1306.215
-34.954	32.793	1531.237	1305.164
-33.940	32.817	1530.005	1304.235
-32.925	32.877	1528.026	1302.907
-31.911	32.861	1527.070	1301.927
-30.896	32.860	1525.495	1300.526
-29.881	32.857	1524.069	1299.244
-28.867	32.846	1522.582	1297.848
-27.852	32.817	1521.200	1296.420
-26.838	32.847	1520.006	1295.555
-25.823	32.780	1518.742	1293.964
-24.809	32.797	1516.553	1292.162
-23.794	32.861	1514.912	1291.152
-22.779	32.714	1514.254	1289.536
-21.765	32.726	1513.209	1288.677
-20.750	32.733	1512.178	1287.795
-19.736	32.800	1510.729	1286.970
-18.721	32.834	1509.750	1286.316
-17.706	32.677	1508.726	1284.323
-16.692	32.693	1507.560	1283.387
-15.677	32.734	1506.470	1282.687
-14.663	32.670	1505.888	1281.705
-13.648	32.619	1504.850	1280.428
-12.633	32.774	1503.684	1280.432
-11.619	32.656	1503.093	1279.076
-10.604	32.692	1501.974	1278.321
-9.590	32.726	1500.838	1277.532
-8.575	32.761	1499.865	1276.891
-7.560	32.819	1498.620	1276.174
-6.546	32.777	1498.341	1275.601
-5.531	32.710	1497.382	1274.283
-4.517	32.655	1496.556	1273.158
-3.502	32.780	1495.013	1272.637
-2.487	32.690	1494.289	1271.360
-1.473	32.706	1492.744	1270.103
-0.458	32.748	1491.701	1269.453
0.556	32.473	1482.319	1260.929
1.571	29.763	1456.735	1221.182
2.586	26.015	1392.989	1143.922
3.600	23.370	1306.256	1056.850
4.615	20.921	1258.801	1004.275
5.629	17.490	1200.673	938.924
6.644	9.111	1112.783	827.112
7.659	2.409	1070.761	762.499
8.673	1.220	1064.679	752.210
9.688	1.096	1062.210	749.785
10.702	1.092	1060.718	748.644
11.717	0.972	1058.690	746.558
12.731	3.348	1061.169	759.969
13.746	10.840	1071.211	804.284
14.761	16.365	1078.226	836.926
15.775	17.655	1078.484	843.441
16.790	17.309	1076.824	840.357
17.804	16.227	1075.375	833.810
18.819	15.330	1073.666	827.983
19.834	14.976	1071.667	824.626
20.848	14.535	1071.246	822.055
21.863	14.416	1069.748	820.249
22.877	14.066	1069.648	818.373
23.892	13.926	1068.267	816.556
24.907	13.720	1067.568	814.942
25.921	13.694	1067.221	814.475
26.936	13.858	1066.254	814.470
27.950	13.841	1065.661	813.860
28.965	13.860	1064.890	813.292
29.980	13.938	1063.803	812.775
30.994	14.101	1063.116	812.975
32.009	14.115	1062.074	812.174
33.023	14.067	1061.446	811.385
34.038	13.935	1060.954	810.293
35.053	14.172	1059.185	810.024
36.067	14.060	1058.693	809.035
37.082	13.953	1058.036	807.941
38.096	13.994	1056.842	807.157
39.111	14.104	1055.926	806.916
40.126	13.999	1055.548	806.048
41.140	13.982	1054.443	805.053
42.155	13.821	1053.524	803.497
43.169	13.735	1052.673	802.360
44.184	13.869	1051.706	802.199
45.199	13.791	1050.353	800.721
46.213	13.775	1049.289	799.761
47.228	13.848	1048.629	799.543
48.242	13.906	1046.965	798.479
49.257	13.977	1046.312	798.254
50.271	13.901	1044.993	796.812
51.286	13.904	1044.156	796.119
52.301	14.013	1043.393	795.986
53.315	13.871	1043.035	794.966
54.330	13.932	1042.232	794.571
55.344	13.808	1041.496	793.350
56.359	13.758	1040.222	792.068
57.374	13.786	1039.150	791.317
58.388	13.908	1038.400	791.254
59.403	13.855	1037.432	790.197
60.417	13.760	1036.992	789.340
61.432	13.850	1036.086	789.008
62.447	13.738	1035.518	787.974
63.461	13.855	1034.732	787.862
64.476	13.799	1033.463	786.560
65.490	13.654	1032.963	785.422
66.505	13.761	1031.656	784.868
67.520	13.844	1030.984	784.675
68.534	13.727	1030.256	783.503
69.549	13.682	1029.691	782.788
70.563	13.790	1029.037	782.735
71.578	13.644	1028.520	781.582
72.593	13.808	1027.281	781.344
73.607	13.778	1026.331	780.409
74.622	13.824	1025.123	779.640
75.636	13.842	1024.553	779.222
76.651	13.642	1023.754	777.607
77.666	13.668	1023.154	777.203
78.680	13.678	1022.216	776.467
79.695	13.772	1021.519	776.311
80.709	13.758	1021.083	775.845
81.724	13.774	1020.000	775.030
82.739	13.729	1019.462	774.340
83.753	13.805	1018.593	773.966
84.768	13.915	1017.866	773.857
85.782	13.996	1016.812	773.366
86.797	13.955	1016.266	772.692
87.812	13.948	1015.448	771.969
88.826	13.985	1014.321	771.215
89.841	13.938	1013.794	770.531
90.855	13.862	1013.034	769.532
91.870	13.948	1012.161	769.199
92.884	14.066	1011.415	769.107
93.899	14.016	1010.703	768.267
94.914	14.042	1009.816	767.647
95.928	14.090	1009.106	767.261
96.943	14.029	1008.612	766.537
97.957	14.131	1007.471	766.071
98.972	13.998	1007.313	765.271
99.987	14.003	1006.253	764.419
101.001	14.079	1005.418	764.066
102.016	14.073	1004.548	763.309
103.030	14.081	1003.638	762.586
104.045	14.110	1002.668	761.915
105.060	14.081	1001.558	760.873
106.074	14.012	1000.871	759.970
107.089	14.018	1000.087	759.332
108.103	13.885	999.715	758.378
109.118	13.834	998.673	757.287
110.133	13.841	997.714	756.526
111.147	14.031	996.592	756.470
112.162	14.019	995.503	755.522
113.176	13.907	994.866	754.465
114.191	13.936	994.188	754.012
115.206	13.931	993.324	753.269
116.220	13.891	992.633	752.497
117.235	14.018	991.051	751.805
118.249	13.906	990.723	750.983
119.264	13.915	989.804	750.264
120.279	13.981	988.827	749.752
121.293	13.999	987.922	749.081
122.308	13.915	987.562	748.366
123.322	13.919	986.508	747.519
124.337	13.860	985.472	746.399
125.352	13.902	984.486	745.776
126.366	13.983	983.057	744.989
127.381	13.921	981.967	743.823
128.395	13.857	980.902	742.661
129.410	13.982	979.987	742.462
130.424	13.892	979.386	741.538
131.439	13.866	978.500	740.688
132.454	14.025	977.244	740.379
133.468	13.991	976.943	739.936
134.483	14.119	975.537	739.373
135.497	13.976	975.441	738.598
136.512	13.967	974.653	737.898
137.527	13.981	973.957	737.369
138.541	13.970	973.114	736.615
139.556	13.945	972.171	735.724
140.570	13.925	971.515	735.074
141.585	14.027	970.384	734.608
142.600	14.039	969.491	733.916
143.614	14.086	968.793	733.530
144.629	14.108	968.167	733.091
145.643	14.153	967.331	732.590
146.658	14.087	966.693	731.751
147.673	13.956	965.999	730.585
148.687	14.173	964.941	730.675
149.702	14.028	964.218	729.425
150.716	13.973	963.653	728.693
151.731	13.936	962.720	727.761
152.746	14.015	961.886	727.410
153.760	13.971	961.236	726.664
154.775	13.995	960.564	726.194
155.789	14.158	959.481	726.023
156.804	14.068	958.645	724.935
157.819	14.263	957.711	725.015
158.833	14.215	957.144	724.312
159.848	14.267	956.363	723.883
160.862	14.187	955.851	723.083
161.877	14.263	955.311	722.940
162.892	14.182	954.082	721.595
163.906	14.204	953.348	721.071
164.921	14.236	952.446	720.466
165.935	14.154	951.723	719.499
166.950	14.203	950.582	718.782
167.964	14.213	949.504	717.950
168.979	14.216	948.842	717.397
169.994	14.086	948.112	716.221
171.008	14.235	946.933	715.909
172.023	14.362	946.080	715.747
173.037	14.267	945.335	714.711
174.052	14.271	944.541	714.065
175.067	14.308	943.861	713.646
176.081	14.324	943.158	713.122
177.096	14.210	942.390	711.987
178.110	14.285	941.664	711.697
179.125	14.331	940.959	711.297
180.140	14.285	940.429	710.639
181.154	14.349	939.492	710.143
182.169	14.256	938.743	709.115
183.183	14.359	938.176	709.064
184.198	14.371	937.558	708.585
185.213	14.500	936.535	708.295
186.227	14.554	935.670	707.808
187.242	14.542	935.731	707.743
188.256	14.412	935.352	706.843
189.271	14.504	934.143	706.253
190.286	14.470	933.441	705.518
191.300	14.484	932.353	704.690
192.315	14.443	931.901	704.114
193.329	14.335	931.064	702.963
194.344	14.305	930.746	702.534
195.359	14.384	930.046	702.279
196.373	14.474	929.459	702.153
197.388	14.531	928.796	701.829
198.402	14.542	928.137	701.313
199.417	14.501	927.774	700.808
200.432	14.607	927.433	700.929
201.446	14.679	926.863	700.741
202.461	14.698	926.223	700.275
203.475	14.681	926.054	700.015
204.490	14.706	925.707	699.796
205.504	14.775	923.999	698.729
206.519	14.723	923.156	697.813
207.534	14.746	922.537	697.379
208.548	14.799	921.584	696.818
209.563	14.707	921.445	696.269
210.577	14.695	920.886	695.733
211.592	14.727	920.336	695.388
212.607	14.647	919.910	694.675
213.621	14.822	919.069	694.707
214.636	14.749	918.207	693.688
215.650	14.750	917.922	693.417
216.665	14.896	917.435	693.592
217.680	14.867	916.757	692.900
218.694	14.961	915.707	692.431
219.709	14.955	915.445	692.149
220.723	14.914	914.817	691.445
221.738	15.008	913.749	690.964
222.753	14.981	913.054	690.262
223.767	14.952	912.933	689.991
224.782	15.011	911.700	689.240
225.796	14.928	910.718	688.095
226.811	15.025	910.115	687.982
227.826	15.127	909.542	687.904
228.840	15.066	908.697	686.954
229.855	14.985	908.345	686.297
230.869	15.098	907.849	686.324
231.884	15.110	906.876	685.575
232.899	15.108	906.155	684.962
233.913	14.999	905.785	684.175
234.928	15.044	904.710	683.489
235.942	15.074	904.339	683.269
236.957	15.116	903.472	682.725
237.972	15.085	902.750	681.991
238.986	15.047	902.183	681.349
240.001	15.210	901.443	681.393
241.015	15.201	900.638	680.688
242.030	15.240	899.760	680.124
243.045	15.188	899.076	679.334
244.059	15.178	898.763	678.997
245.074	15.224	898.309	678.780
246.088	15.282	897.367	678.244
247.103	15.251	896.912	677.712
248.117	15.195	896.331	676.988
249.132	15.242	895.777	676.700
250.147	15.317	895.165	676.479
251.161	15.475	894.276	676.386
252.176	15.429	893.623	675.647
253.190	15.418	893.142	675.179
254.205	15.511	892.392	674.927
255.220	15.370	892.065	674.053
256.234	15.520	891.298	674.015
257.249	15.530	890.705	673.548
258.263	15.506	890.350	673.122
259.278	15.496	889.560	672.427
260.293	15.589	889.123	672.407
261.307	15.743	888.160	672.236
262.322	15.667	887.768	671.577
263.336	15.598	887.067	670.713
264.351	15.721	886.628	670.810
265.366	15.627	885.823	669.766
266.380	15.738	885.467	669.883
267.395	15.686	884.647	668.996
268.409	15.550	884.115	667.991
269.424	15.791	882.960	668.017
270.439	15.771	882.244	667.337
271.453	15.663	881.937	666.616
272.468	15.809	880.714	666.211
273.482	15.659	880.595	665.470
274.497	15.700	879.553	664.784
275.512	15.780	879.135	664.726
276.526	15.685	878.495	663.810
277.541	15.861	877.843	663.952
278.555	15.745	877.482	663.162
279.570	15.821	876.453	662.627
280.585	15.920	876.169	662.741
281.599	15.956	875.338	662.196
282.614	15.947	874.981	661.834
283.628	15.974	874.252	661.330
284.643	16.088	873.558	661.192
285.657	15.979	873.191	660.427
286.672	15.934	872.715	659.832
287.687	15.985	872.096	659.506
288.701	16.028	871.332	659.037
289.716	16.010	871.029	658.680
290.730	15.996	870.443	658.126
291.745	16.122	869.832	658.096
292.760	15.993	869.231	657.079
293.774	15.977	868.717	656.573
294.789	16.188	867.760	656.614
295.803	16.155	867.042	655.882
296.818	16.075	866.603	655.182
297.833	16.110	865.794	654.646
298.847	16.300	864.888	654.643
299.862	16.003	864.845	653.397
300.876	16.191	863.996	653.430
301.891	16.030	863.526	652.393
302.906	16.102	862.404	651.765
303.920	16.194	861.769	651.580
304.935	16.369	861.264	651.818
305.949	16.421	860.358	651.274
306.964	16.438	860.042	651.043
307.979	16.374	859.568	650.380
308.993	16.286	859.349	649.819
310.008	16.455	858.257	649.587
311.022	16.427	857.719	649.012
312.037	16.339	857.536	648.481
313.052	16.418	857.151	648.433
314.066	16.487	856.077	647.827
315.081	16.471	855.434	647.225
316.095	16.457	855.064	646.832
317.110	16.445	854.611	646.387
318.125	16.524	853.754	645.982
319.139	16.444	853.586	645.494
320.154	16.441	852.893	644.899
321.168	16.465	852.554	644.677
322.183	16.521	851.873	644.319
323.197	16.540	851.263	643.876
324.212	16.411	851.043	643.161
325.227	16.546	850.012	642.837
326.241	16.460	849.776	642.276
327.256	16.601	849.071	642.221
328.270	16.512	848.532	641.417
329.285	16.630	847.604	641.106
330.300	16.648	847.149	640.775
331.314	16.596	846.452	639.995
332.329	16.622	846.113	639.778
333.343	16.675	845.403	639.385
334.358	16.636	845.079	638.938
335.373	16.693	844.772	638.862
336.387	16.739	843.979	638.381
337.402	16.693	843.703	637.941
338.416	16.886	842.679	637.837
339.431	16.860	842.429	637.494
340.446	17.010	841.294	637.141
341.460	16.817	841.622	636.607
342.475	16.796	840.428	635.571
343.489	16.821	840.019	635.297
344.504	16.896	839.896	635.431
345.519	16.860	838.991	634.554
346.533	16.903	838.561	634.336
347.548	16.968	837.833	633.972
348.562	16.923	837.301	633.343
349.577	16.944	836.997	633.138
350.592	16.901	836.659	632.665
351.606	16.900	835.827	631.976
352.621	17.107	835.357	632.334
353.635	16.990	834.972	631.554
354.650	17.030	834.652	631.403
355.665	17.136	833.831	631.119
356.679	17.204	833.464	631.041
357.694	17.101	832.954	630.215
358.708	17.100	832.079	629.494
359.723	17.113	831.469	629.025
360.738	16.917	831.259	628.083
361.752	16.997	831.251	628.320
362.767	17.117	830.415	628.075
363.781	17.110	829.886	627.594
364.796	17.159	829.670	627.555
365.810	17.336	828.505	627.272
366.825	17.341	828.420	627.171
367.840	17.280	828.364	626.849
368.854	17.151	828.009	626.049
369.869	17.271	827.526	626.071
370.883	17.369	826.687	625.739
371.898	17.307	826.184	625.077
372.913	17.289	825.616	624.524
373.927	17.388	824.901	624.292
374.942	17.441	824.306	623.982
375.956	17.387	823.582	623.178
376.971	17.432	823.114	622.936
377.986	17.433	822.443	622.377
379.000	17.636	821.906	622.657
380.015	17.564	821.976	622.391
381.029	17.616	821.091	621.857
382.044	17.560	820.634	621.249
383.059	17.523	820.167	620.707
384.073	17.589	819.375	620.292
385.088	17.569	818.847	619.767
386.102	17.531	818.179	619.068
387.117	17.687	817.801	619.294
388.132	17.703	817.116	618.777
389.146	17.525	816.821	617.854
390.161	17.633	816.463	617.919
391.175	17.661	816.083	617.677
392.190	17.667	815.716	617.367
393.205	17.626	815.402	616.929
394.219	17.574	815.134	616.483
395.234	17.730	814.425	616.456
396.248	17.647	813.984	615.768
397.263	17.550	813.653	615.113
398.278	17.644	812.871	614.806
399.292	17.589	812.598	614.346
400.307	17.736	812.215	614.533
401.321	17.553	812.087	613.722
402.336	17.693	811.259	613.545
403.350	17.757	811.012	613.535
404.365	17.869	810.423	613.436
405.380	17.778	809.658	612.477
406.394	17.749	809.513	612.210
407.409	17.841	808.944	612.057
408.423	17.825	808.442	611.562
409.438	18.072	807.781	611.892
410.453	17.961	807.319	611.093
411.467	17.864	807.122	610.542
412.482	17.913	807.052	610.611
413.496	17.972	806.193	610.116
414.511	18.017	805.851	609.966
415.526	17.891	805.875	609.480
416.540	17.925	805.140	608.992
417.555	18.043	804.909	609.183
418.569	17.960	804.232	608.321
419.584	18.007	803.664	608.006
420.599	18.047	803.323	607.835
421.613	108.256	1287.754	1457.904
422.628	93.278	1358.315	1458.014
