DTS Sentinel unit serial number:	SN413079Multiplexer serial number:	ORYXHardware model number:	OX4-SRSoftware version number:	ORYX F/W v4.00 Oryx Data Collector v3.7.2.0data status	okinstallation	princeton_trtdifferential loss correction	single-endedforward channel	channel 3reverse channel	N/Adate	2019/09/17time	08:04:35forward acquisition time	60.00reverse acquisition time	0.00gamma	496.2192k internal	0.2334k external	0.2334temperature offset calibration	0.9941default loss term (dB/km)	0.3790temperature slope calibration	1.0000multiplexer offset coefficient	1.0000multiplexer slope coefficient	1.0000fibre end	0.00T internal ref (°C)	27.28T ext. ref 1 (°C)	0.12T ext. ref 2 (°C)	22.38length (m)	temperature (°C)	Stokes	anti-Stokes-747.200	125.864	-0.098	-0.124
-746.185	44.945	0.225	0.209
-745.171	-200.000	0.010	0.216
-744.156	-95.416	-0.065	-0.018
-743.142	-104.018	0.073	0.017
-742.127	-200.000	-0.081	0.370
-741.112	-130.557	-0.198	0.027
-740.098	-200.000	0.043	0.248
-739.083	-64.306	0.063	-0.026
-738.069	-119.779	-0.174	0.030
-737.054	-163.463	0.168	0.008
-736.039	218.237	-0.076	0.123
-735.025	-200.000	0.028	0.370
-734.010	399.300	-0.176	0.371
-732.996	-159.667	-0.237	-0.013
-731.981	-146.605	-0.124	0.011
-730.966	-21.456	0.154	-0.094
-729.952	-115.638	-0.279	-0.053
-728.937	28.962	0.371	-0.316
-727.923	-129.741	-0.220	0.030
-726.908	69.217	0.099	-0.102
-725.894	-82.140	-0.287	0.094
-724.879	-42.990	-0.139	0.071
-723.864	-45.157	-0.088	0.044
-722.850	800.000	0.055	0.206
-721.835	-161.047	-0.197	0.010
-720.821	-122.827	-0.343	-0.056
-719.806	44.382	-0.146	0.135
-718.791	0.628	-0.319	-0.229
-717.777	-200.000	-0.009	-0.344
-716.762	-23.332	0.111	0.067
-715.748	-29.781	0.275	0.158
-714.733	-200.000	-0.026	-0.140
-713.718	84.117	-0.260	0.286
-712.704	-83.135	0.242	-0.078
-711.689	-157.304	-0.145	-0.009
-710.675	251.245	0.084	0.144
-709.660	-200.000	0.003	0.081
-708.645	56.048	-0.269	-0.262
-707.631	-156.820	0.209	-0.013
-706.616	53.379	0.345	0.332
-705.602	-70.141	0.129	0.049
-704.587	800.000	-0.010	0.039
-703.572	27.936	-0.198	0.168
-702.558	141.056	0.034	0.045
-701.543	-13.873	-0.111	0.072
-700.529	13.810	-0.222	-0.174
-699.514	-17.659	-0.109	0.069
-698.499	-187.353	-0.254	0.003
-697.485	-115.222	-0.113	0.021
-696.470	109.431	0.013	-0.016
-695.456	418.458	-0.131	-0.281
-694.441	-34.868	-0.033	-0.018
-693.426	-200.000	-0.068	0.329
-692.412	151.991	0.048	-0.065
-691.397	-68.282	-0.334	0.130
-690.383	760.644	0.048	0.131
-689.368	-146.395	0.401	-0.035
-688.354	800.000	-0.062	-0.217
-687.339	800.000	0.065	-0.268
-686.324	172.449	0.137	-0.197
-685.310	-97.375	-0.217	-0.057
-684.295	34.690	0.037	-0.033
-683.281	62.501	-0.059	-0.059
-682.266	-200.000	0.012	0.237
-681.251	-200.000	-0.007	-0.214
-680.237	122.315	0.092	0.116
-679.222	42.802	0.195	0.179
-678.208	382.646	-0.070	-0.145
-677.193	-52.774	0.163	0.075
-676.178	-159.952	0.217	0.012
-675.164	8.998	0.055	-0.041
-674.149	-200.000	-0.021	-0.148
-673.135	-200.000	0.030	0.206
-672.120	477.837	-0.092	-0.209
-671.105	-200.000	-0.104	-0.518
-670.091	78.496	-0.091	-0.097
-669.076	38.911	-0.089	0.080
-668.062	359.074	-0.067	0.134
-667.047	-200.000	-0.030	0.133
-666.032	800.000	-0.104	0.327
-665.018	-152.243	-0.105	-0.008
-664.003	-55.042	-0.506	0.229
-662.989	-187.151	0.240	-0.003
-661.974	-89.629	-0.154	-0.045
-660.959	-59.725	-0.172	-0.074
-659.945	-169.932	-0.257	0.009
-658.930	-113.899	0.425	0.083
-657.916	321.421	-0.090	0.172
-656.901	170.881	-0.197	-0.282
-655.886	-96.316	0.226	-0.060
-654.872	-195.689	-0.352	-0.003
-653.857	96.849	-0.341	-0.392
-652.843	85.321	-0.050	0.055
-651.828	81.528	0.369	0.400
-650.814	65.087	0.216	-0.218
-649.799	89.799	0.241	-0.269
-648.784	88.811	0.168	0.187
-647.770	230.386	0.042	-0.068
-646.755	-200.000	0.019	0.124
-645.741	-39.515	-0.106	0.055
-644.726	-132.381	0.157	0.020
-643.711	800.000	0.033	-0.139
-642.697	-72.316	0.170	-0.063
-641.682	357.763	0.131	-0.262
-640.668	72.318	0.081	-0.084
-639.653	-33.306	0.225	0.125
-638.638	-95.641	0.162	0.043
-637.624	14.835	0.165	-0.129
-636.609	-62.512	0.396	-0.165
-635.595	-37.016	0.167	-0.090
-634.580	800.000	0.026	0.086
-633.565	-200.000	-0.010	0.109
-632.551	-200.000	0.040	0.391
-631.536	89.525	-0.089	0.099
-630.522	-137.022	-0.163	0.019
-629.507	242.701	-0.075	-0.125
-628.492	-106.969	-0.101	-0.022
-627.478	-183.501	0.036	0.001
-626.463	-57.354	-0.369	-0.162
-625.449	-67.424	0.278	0.109
-624.434	413.534	-0.025	-0.053
-623.419	-200.000	0.019	0.118
-622.405	-200.000	0.005	-0.331
-621.390	-85.976	0.335	0.104
-620.376	800.000	-0.090	0.391
-619.361	387.793	-0.039	-0.081
-618.346	-133.677	0.564	-0.071
-617.332	290.553	-0.161	0.292
-616.317	255.571	-0.092	0.158
-615.303	18.718	-0.092	0.073
-614.288	355.380	-0.090	0.179
-613.273	-200.000	0.030	0.200
-612.259	344.017	-0.121	-0.237
-611.244	-140.474	0.237	0.025
-610.230	-200.000	-0.048	0.309
-609.215	63.488	-0.168	0.168
-608.201	-10.835	0.168	0.111
-607.186	-137.558	0.011	0.001
-606.171	609.852	-0.147	0.366
-605.157	800.000	0.041	-0.135
-604.142	-102.800	-0.150	-0.036
-603.128	-200.000	-0.028	0.135
-602.113	800.000	-0.033	-0.099
-601.098	30.046	-0.188	-0.160
-600.084	-10.727	0.159	0.105
-599.069	611.562	0.027	0.067
-598.055	800.000	-0.065	0.277
-597.040	-55.314	0.144	0.065
-596.025	-22.995	-0.176	-0.106
-595.011	-200.000	0.033	0.211
-593.996	297.004	0.051	-0.093
-592.982	224.233	0.129	0.209
-591.967	-7.547	-0.098	0.066
-590.952	4.425	-0.024	0.018
-589.938	-93.309	0.316	-0.088
-588.923	44.361	-0.098	-0.090
-587.909	-8.120	-0.149	-0.100
-586.894	-48.413	-0.169	-0.081
-585.879	800.000	-0.035	-0.100
-584.865	-53.395	0.291	-0.133
-583.850	-39.998	-0.134	-0.070
-582.836	417.272	0.072	0.154
-581.821	61.219	0.222	-0.221
-580.806	800.000	-0.115	0.370
-579.792	-200.000	0.069	-0.473
-578.777	-190.959	0.281	-0.003
-577.763	-31.824	-0.267	-0.150
-576.748	119.641	0.044	-0.055
-575.733	-181.937	0.233	0.004
-574.719	800.000	0.091	-0.262
-573.704	30.987	-0.151	-0.129
-572.690	-48.224	-0.077	0.037
-571.675	800.000	-0.042	0.175
-570.661	-97.494	0.150	-0.039
-569.646	49.500	0.187	0.176
-568.631	-83.535	-0.174	0.056
-567.617	228.451	-0.044	0.072
-566.602	12.926	0.089	0.069
-565.588	-80.095	-0.257	0.086
-564.573	-200.000	-0.012	0.176
-563.558	10.517	0.110	0.083
-562.544	-200.000	-0.007	-0.188
-561.529	800.000	-0.178	0.491
-560.515	231.906	-0.142	-0.232
-559.500	13.304	-0.278	-0.215
-558.485	148.124	0.092	-0.123
-557.471	-8.974	-0.284	-0.190
-556.456	8.569	0.177	-0.133
-555.442	290.571	0.031	0.055
-554.427	164.161	0.067	0.094
-553.412	-47.557	0.209	-0.101
-552.398	-43.988	0.375	0.188
-551.383	-200.000	-0.035	-0.222
-550.369	800.000	-0.061	0.231
-549.354	-57.963	0.140	0.061
-548.339	-133.225	0.139	-0.017
-547.325	-200.000	-0.017	0.087
-546.310	-200.000	0.009	0.065
-545.296	800.000	0.054	0.209
-544.281	780.619	0.036	0.097
-543.266	129.412	-0.132	-0.168
-542.252	109.477	0.115	0.138
-541.237	-107.231	-0.360	-0.079
-540.223	118.043	0.326	-0.400
-539.208	428.033	-0.312	-0.671
-538.193	800.000	0.093	0.295
-537.179	159.707	0.068	0.094
-536.164	-44.149	-0.383	-0.192
-535.150	-83.180	0.194	-0.062
-534.135	-200.000	-0.001	0.218
-533.121	-142.844	0.260	-0.025
-532.106	23.853	-0.252	-0.207
-531.091	-114.603	0.018	0.004
-530.077	514.328	0.106	0.247
-529.062	-128.491	-0.149	-0.021
-528.048	152.188	0.133	-0.182
-527.033	-129.995	-0.302	0.041
-526.018	6.341	0.103	-0.076
-525.004	82.088	-0.062	-0.067
-523.989	-200.000	-0.065	-0.401
-522.975	212.951	0.225	-0.354
-521.960	262.060	-0.186	-0.322
-520.945	-200.000	0.063	-0.296
-519.931	161.594	0.125	-0.174
-518.916	198.853	0.159	-0.242
-517.902	-137.490	-0.448	0.050
-516.887	-52.481	0.241	-0.111
-515.872	476.426	0.017	-0.039
-514.858	-200.000	-0.083	0.449
-513.843	-200.000	-0.020	-0.169
-512.829	-189.145	0.260	0.003
-511.814	-200.000	0.001	0.157
-510.799	367.944	-0.114	0.230
-509.785	68.281	0.149	0.152
-508.770	-166.818	-0.408	0.017
-507.756	171.337	0.152	-0.218
-506.741	225.177	0.087	-0.140
-505.726	-200.000	-0.009	-0.072
-504.712	-200.000	0.011	0.244
-503.697	243.481	-0.132	0.220
-502.683	13.941	-0.156	-0.121
-501.668	-40.448	-0.066	-0.034
-500.653	-31.111	0.090	0.051
-499.639	65.753	-0.113	0.114
-498.624	-70.446	0.139	-0.052
-497.610	587.653	0.165	0.404
-496.595	-28.067	-0.068	-0.039
-495.581	-96.822	-0.275	0.072
-494.566	-76.264	-0.172	0.060
-493.551	162.538	-0.079	0.111
-492.537	-200.000	0.000	-0.345
-491.522	138.370	-0.150	-0.197
-490.508	234.694	-0.082	0.135
-489.493	-102.775	-0.120	-0.028
-488.478	-1.352	0.061	-0.043
-487.464	-200.000	-0.000	0.130
-486.449	-178.114	-0.203	-0.005
-485.435	-61.563	0.328	0.137
-484.420	-12.217	0.329	0.215
-483.405	800.000	0.095	0.324
-482.391	100.748	-0.225	-0.260
-481.376	52.066	-0.233	-0.221
-480.362	189.931	0.110	0.165
-479.347	-75.361	-0.102	-0.036
-478.332	1.577	0.291	0.208
-477.318	800.000	0.056	0.197
-476.303	-82.722	0.251	-0.081
-475.289	-200.000	-0.078	0.425
-474.274	-200.000	0.018	0.467
-473.259	800.000	0.037	-0.148
-472.245	-86.907	-0.171	0.052
-471.230	-200.000	-0.000	0.135
-470.216	-123.484	0.197	0.031
-469.201	-20.392	0.404	-0.247
-468.186	199.680	-0.070	-0.106
-467.172	9.639	-0.262	0.198
-466.157	-96.635	0.173	-0.045
-465.143	3.794	0.283	0.205
-464.128	279.685	0.124	0.220
-463.113	-195.169	0.142	0.001
-462.099	-200.000	-0.068	0.354
-461.084	117.296	-0.170	0.208
-460.070	800.000	0.052	0.144
-459.055	-132.802	-0.050	0.006
-458.040	529.901	0.091	-0.214
-457.026	-200.000	0.006	-0.152
-456.011	79.366	-0.204	-0.218
-454.997	92.231	0.239	-0.267
-453.982	39.111	0.108	0.096
-452.968	40.598	0.069	0.062
-451.953	-57.524	-0.114	-0.050
-450.938	-200.000	-0.023	0.109
-449.924	-69.032	0.246	-0.094
-448.909	-104.992	0.155	0.035
-447.895	800.000	-0.073	0.301
-446.880	800.000	-0.009	0.033
-445.865	-84.946	-0.224	-0.070
-444.851	389.505	-0.204	-0.420
-443.836	-138.578	-0.232	-0.025
-442.822	-200.000	0.024	-0.161
-441.807	234.372	-0.120	0.196
-440.792	-17.694	0.278	0.173
-439.778	-73.612	-0.109	0.039
-438.763	-95.165	0.357	0.096
-437.749	11.844	-0.289	0.221
-436.734	-31.055	0.322	0.181
-435.719	-175.772	0.318	-0.008
-434.705	30.793	-0.198	-0.168
-433.690	-200.000	0.012	-0.052
-432.676	-74.344	0.115	0.041
-431.661	-200.000	-0.019	-0.104
-430.646	-73.059	-0.097	-0.035
-429.632	800.000	0.020	0.088
-428.617	-200.000	-0.006	-0.262
-427.603	-200.000	0.001	-0.233
-426.588	219.900	0.136	-0.216
-425.573	312.617	-0.158	-0.294
-424.559	-43.318	0.092	0.046
-423.544	1.202	-0.157	-0.112
-422.530	-117.949	0.227	-0.040
-421.515	4.421	0.200	-0.145
-420.500	-83.174	-0.146	0.047
-419.486	548.228	0.093	0.220
-418.471	185.433	0.110	-0.162
-417.457	540.684	-0.087	-0.207
-416.442	-190.031	0.550	0.006
-415.428	-200.000	0.003	-0.046
-414.413	120.548	0.206	-0.254
-413.398	215.772	0.060	0.095
-412.384	-188.641	-0.325	-0.004
-411.369	-200.000	-0.050	-0.258
-410.355	-14.998	-0.286	0.182
-409.340	-15.557	0.094	-0.060
-408.325	77.018	0.121	-0.128
-407.311	116.613	0.166	-0.202
-406.296	134.826	-0.238	-0.306
-405.282	-200.000	0.035	-0.250
-404.267	455.089	0.091	0.201
-403.252	800.000	-0.059	0.163
-402.238	193.431	0.164	0.246
-401.223	800.000	-0.085	0.329
-400.209	-200.000	0.033	-0.242
-399.194	278.669	-0.156	-0.276
-398.179	288.101	-0.078	-0.140
-397.165	-164.752	0.282	0.013
-396.150	-84.970	0.209	-0.065
-395.136	21.923	-0.246	-0.199
-394.121	-74.634	-0.226	-0.081
-393.106	800.000	-0.052	0.200
-392.092	800.000	-0.030	0.086
-391.077	215.403	-0.034	0.053
-390.063	-200.000	0.018	-0.308
-389.048	-54.920	0.344	-0.154
-388.033	104.413	-0.242	-0.282
-387.019	175.958	0.003	-0.004
-386.004	150.852	-0.282	-0.380
-384.990	-200.000	-0.039	0.263
-383.975	339.882	-0.154	0.298
-382.960	172.463	-0.050	0.071
-381.946	-102.405	0.344	0.082
-380.931	135.919	-0.086	-0.110
-379.917	-112.868	-0.211	0.041
-378.902	146.647	-0.089	-0.118
-377.888	6.360	-0.176	-0.129
-376.873	-200.000	-0.017	0.093
-375.858	50.843	-0.423	-0.397
-374.844	40.015	-0.225	0.201
-373.829	-200.000	0.022	-0.102
-372.815	-126.628	-0.294	0.043
-371.800	21.466	-0.183	0.147
-370.785	440.999	-0.053	0.116
-369.771	800.000	-0.030	0.106
-368.756	366.275	-0.133	0.267
-367.742	-103.655	-0.099	-0.023
-366.727	148.887	-0.212	-0.284
-365.712	-102.083	-0.209	-0.050
-364.698	-1.544	0.161	0.113
-363.683	-141.648	0.035	0.003
-362.669	-94.355	-0.060	-0.016
-361.654	153.370	-0.250	0.339
-360.639	125.221	0.082	0.102
-359.625	542.453	0.121	0.285
-358.610	-200.000	-0.007	-0.153
-357.596	-200.000	0.012	0.276
-356.581	477.811	0.051	-0.113
-355.566	-128.038	0.276	0.039
-354.552	-145.634	0.172	0.015
-353.537	800.000	0.108	0.464
-352.523	-143.780	0.333	-0.031
-351.508	-139.862	-0.261	0.027
-350.493	-79.398	-0.249	-0.083
-349.479	-55.076	0.093	0.042
-348.464	36.382	0.189	-0.165
-347.450	-182.626	-0.048	-0.001
-346.435	39.492	0.123	0.109
-345.420	32.440	0.214	-0.183
-344.406	201.397	0.131	0.200
-343.391	-140.620	-0.142	0.015
-342.377	-147.201	0.195	0.016
-341.362	132.794	0.133	0.170
-340.348	-104.891	0.082	-0.019
-339.333	427.727	0.070	-0.150
-338.318	800.000	0.066	-0.267
-337.304	-173.213	-0.055	0.002
-336.289	18.429	-0.093	-0.073
-335.275	-200.000	0.002	-0.240
-334.260	681.398	-0.018	-0.045
-333.245	507.332	-0.199	-0.457
-332.231	-152.587	0.212	0.015
-331.216	115.252	0.154	-0.186
-330.202	99.872	0.044	-0.051
-329.187	-200.000	-0.032	0.339
-328.172	-200.000	-0.035	0.208
-327.158	716.567	0.118	-0.309
-326.143	87.461	-0.192	0.210
-325.129	-73.949	-0.118	-0.042
-324.114	-200.000	0.023	0.158
-323.099	-200.000	0.027	0.121
-322.085	169.901	-0.175	-0.248
-321.070	342.671	0.082	-0.159
-320.056	-200.000	-0.013	0.404
-319.041	49.718	0.158	-0.147
-318.026	-82.432	0.313	-0.101
-317.012	-163.561	0.462	-0.022
-315.997	60.570	-0.016	-0.015
-314.983	-200.000	0.002	0.179
-313.968	81.072	-0.064	-0.068
-312.953	-200.000	-0.042	-0.595
-311.939	311.747	0.090	-0.166
-310.924	-115.158	-0.352	-0.066
-309.910	-101.580	-0.504	-0.121
-308.895	99.447	-0.142	-0.163
-307.880	-200.000	-0.000	0.094
-306.866	-181.142	-0.273	0.005
-305.851	800.000	-0.088	0.376
-304.837	-43.431	-0.310	0.155
-303.822	-200.000	-0.039	0.228
-302.807	-164.407	-0.487	0.022
-301.793	-200.000	-0.002	-0.116
-300.778	-200.000	0.007	0.279
-299.764	29.945	0.120	0.101
-298.749	-116.961	-0.294	0.053
-297.735	-106.337	-0.070	-0.015
-296.720	-115.852	-0.041	0.008
-295.705	24.968	0.165	-0.135
-294.691	-142.189	0.125	0.012
-293.676	142.513	0.086	-0.113
-292.662	-200.000	-0.092	-0.444
-291.647	-8.757	-0.111	0.074
-290.632	-115.776	0.123	0.023
-289.618	-36.705	-0.206	-0.109
-288.603	389.495	0.127	0.260
-287.589	-200.000	-0.007	0.033
-286.574	-200.000	-0.008	-0.169
-285.559	-200.000	0.021	0.093
-284.545	528.890	-0.030	-0.070
-283.530	-107.773	0.164	0.035
-282.516	800.000	-0.035	-0.130
-281.501	-42.171	-0.112	0.057
-280.486	-39.129	0.166	0.086
-279.472	76.372	0.241	-0.252
-278.457	-200.000	-0.029	-0.130
-277.443	-4.303	-0.154	-0.105
-276.428	-79.595	0.068	-0.023
-275.413	-80.419	-0.241	-0.079
-274.399	-200.000	-0.015	-0.105
-273.384	-52.277	0.344	0.158
-272.370	-200.000	0.015	0.240
-271.355	-126.563	-0.171	0.025
-270.340	-83.927	-0.433	0.136
-269.326	800.000	0.018	-0.061
-268.311	11.398	-0.068	0.051
-267.297	-24.001	0.283	0.167
-266.282	-162.388	0.257	-0.013
-265.267	42.241	-0.148	0.133
-264.253	78.741	-0.139	0.147
-263.238	-93.468	0.063	0.017
-262.224	50.223	-0.087	0.081
-261.209	-200.000	0.000	0.077
-260.195	14.605	0.441	0.340
-259.180	222.755	0.078	0.124
-258.165	800.000	0.039	-0.112
-257.151	242.991	-0.114	0.188
-256.136	-28.193	-0.209	0.119
-255.122	-141.598	-0.241	-0.024
-254.107	336.027	-0.043	-0.082
-253.092	-10.591	0.203	-0.132
-252.078	-62.810	-0.413	-0.169
-251.063	659.379	0.149	-0.379
-250.049	-105.865	-0.161	-0.036
-249.034	-200.000	-0.040	0.187
-248.019	111.876	-0.124	-0.148
-247.005	57.657	0.072	-0.069
-245.990	-78.762	-0.211	-0.071
-244.976	104.063	0.078	0.090
-243.961	-200.000	0.009	0.212
-242.946	-47.340	-0.154	0.074
-241.932	99.896	-0.117	-0.134
-240.917	-156.773	0.215	-0.013
-239.903	-7.034	-0.193	0.129
-238.888	55.674	0.176	-0.168
-237.873	-200.000	-0.016	0.242
-236.859	-27.683	0.045	0.026
-235.844	800.000	0.097	0.292
-234.830	7.946	-0.193	-0.143
-233.815	295.854	-0.165	0.298
-232.800	33.166	-0.154	-0.132
-231.786	-200.000	-0.004	-0.100
-230.771	75.239	0.043	0.044
-229.757	-96.016	-0.236	0.062
-228.742	749.788	-0.132	-0.350
-227.727	50.747	0.191	0.178
-226.713	-83.233	-0.129	-0.041
-225.698	-162.145	-0.091	0.004
-224.684	800.000	0.056	0.235
-223.669	78.640	0.107	0.113
-222.655	93.684	0.098	0.109
-221.640	135.497	0.103	-0.132
-220.625	222.325	0.145	-0.230
-219.611	800.000	0.036	-0.127
-218.596	-200.000	0.047	-0.287
-217.582	-128.999	-0.140	-0.019
-216.567	528.891	-0.045	-0.105
-215.552	-200.000	0.054	0.282
-214.538	309.333	0.197	-0.363
-213.523	-75.033	0.071	-0.025
-212.509	-200.000	-0.022	0.142
-211.494	632.083	0.080	-0.200
-210.479	12.235	-0.085	-0.064
-209.465	167.778	-0.092	0.128
-208.450	800.000	-0.119	-0.412
-207.436	-35.259	0.230	0.123
-206.421	768.431	0.048	0.129
-205.406	-145.720	0.052	-0.005
-204.392	-29.188	0.386	0.218
-203.377	-200.000	-0.015	0.391
-202.363	-128.635	-0.211	0.029
-201.348	24.184	0.206	-0.167
-200.333	800.000	0.116	0.335
-199.319	-131.216	0.214	0.028
-198.304	800.000	-0.047	0.155
-197.290	-109.079	-0.390	0.082
-196.275	-32.105	-0.364	-0.200
-195.260	-93.679	0.300	-0.082
-194.246	246.293	-0.071	0.117
-193.231	-58.271	0.217	-0.093
-192.217	-141.173	-0.062	0.006
-191.202	-54.198	0.065	0.029
-190.187	800.000	-0.022	0.067
-189.173	62.700	0.217	-0.214
-188.158	800.000	0.094	0.281
-187.144	116.230	-0.047	-0.057
-186.129	-136.972	-0.184	0.021
-185.114	312.078	-0.044	-0.081
-184.100	-27.498	-0.064	-0.037
-183.085	-83.393	-0.299	-0.094
-182.071	558.369	-0.135	0.321
-181.056	-200.000	-0.058	0.290
-180.042	-200.000	-0.042	0.247
-179.027	-95.812	-0.316	0.083
-178.012	-41.314	0.174	-0.088
-176.998	-200.000	0.079	-0.345
-175.983	-78.285	0.021	0.007
-174.969	-146.861	-0.310	0.026
-173.954	35.821	0.054	-0.047
-172.939	304.761	-0.140	0.255
-171.925	183.318	0.088	-0.128
-170.910	-11.886	0.248	-0.160
-169.896	5.513	-0.041	0.030
-168.881	-70.782	-0.137	0.051
-167.866	724.731	-0.065	-0.172
-166.852	106.599	0.176	0.205
-165.837	117.341	-0.180	0.218
-164.823	-200.000	-0.011	-0.481
-163.808	273.327	-0.221	-0.384
-162.793	99.511	-0.150	0.171
-161.779	-4.399	0.255	0.174
-160.764	94.711	-0.083	0.093
-159.750	45.300	0.107	-0.097
-158.735	43.022	-0.232	-0.208
-157.720	-200.000	0.018	0.101
-156.706	705.246	-0.059	-0.152
-155.691	23.627	0.053	-0.043
-154.677	192.944	0.089	0.133
-153.662	-176.455	0.205	-0.005
-152.647	-83.022	0.157	-0.050
-151.633	-40.983	0.124	0.063
-150.618	-19.562	0.068	-0.042
-149.604	45.860	0.145	-0.132
-148.589	-106.313	-0.142	-0.031
-147.574	-200.000	-0.024	0.165
-146.560	-111.056	0.164	0.033
-145.545	-96.658	-0.096	-0.025
-144.531	-142.037	0.274	-0.027
-143.516	-28.441	-0.093	-0.053
-142.502	12.415	-0.101	0.076
-141.487	-116.641	-0.478	-0.086
-140.472	-36.519	-0.379	0.200
-139.458	49.857	-0.075	0.070
-138.443	-1.260	-0.278	0.193
-137.429	-200.000	0.028	-0.238
-136.414	-200.000	-0.004	-0.206
-135.399	39.782	0.101	0.089
-134.385	-200.000	-0.072	-0.618
-133.370	170.826	0.044	-0.062
-132.356	40.823	0.306	-0.271
-131.341	-200.000	0.072	0.464
-130.326	-200.000	-0.053	-0.229
-129.312	-91.295	-0.289	-0.081
-128.297	-120.737	-0.348	-0.058
-127.283	219.152	-0.019	0.029
-126.268	-200.000	0.156	-0.001
-125.253	800.000	-0.114	-0.344
-124.239	-129.874	0.071	0.010
-123.224	800.000	0.049	-0.151
-122.210	-40.519	-0.104	0.053
-121.195	-200.000	0.048	0.474
-120.180	207.558	0.203	0.310
-119.166	800.000	0.011	-0.044
-118.151	-128.037	-0.126	0.018
-117.137	-167.728	0.320	0.012
-116.122	57.195	-0.263	0.251
-115.107	800.000	0.076	-0.276
-114.093	76.113	-0.070	0.072
-113.078	-177.637	-0.080	0.002
-112.064	-114.829	0.050	-0.009
-111.049	800.000	-0.064	0.206
-110.034	1.051	-0.205	-0.144
-109.020	-160.424	-0.352	0.019
-108.005	-33.107	0.502	0.273
-106.991	-27.333	-0.153	0.088
-105.976	-35.652	-0.122	0.065
-104.962	-200.000	-0.027	-0.381
-103.947	354.040	-0.076	-0.147
-102.932	400.017	0.104	-0.214
-101.918	-108.867	-0.043	0.009
-100.903	104.412	0.307	-0.354
-99.889	11.637	0.329	0.247
-98.874	-200.000	-0.038	0.390
-97.859	80.007	0.147	-0.154
-96.845	-159.292	-0.186	0.010
-95.830	800.000	-0.060	-0.220
-94.816	-48.404	-0.394	-0.186
-93.801	51.148	-0.153	-0.142
-92.786	-43.777	-0.311	-0.154
-91.772	58.651	-0.034	-0.032
-90.757	-104.976	-0.218	0.049
-89.743	-106.698	0.159	-0.035
-88.728	-200.000	0.013	0.249
-87.713	-200.000	0.056	0.488
-86.699	-200.000	0.062	0.300
-85.684	194.614	0.020	0.029
-84.670	-118.263	0.201	0.035
-83.655	-68.202	0.123	-0.047
-82.640	-64.656	0.035	0.014
-81.626	2.944	-0.195	0.139
-80.611	345.841	-0.056	0.107
-79.597	-157.403	0.150	-0.009
-78.582	730.867	-0.081	-0.213
-77.567	67.647	-0.214	0.214
-76.553	800.000	-0.085	0.303
-75.538	140.245	0.081	0.104
-74.524	-16.605	-0.102	-0.064
-73.509	-0.442	0.139	-0.097
-72.494	-23.028	0.498	-0.294
-71.480	-28.084	-0.253	-0.143
-70.465	47.711	-0.135	-0.123
-69.451	85.701	-0.190	-0.204
-68.436	800.000	0.073	0.239
-67.422	-155.743	-0.242	0.015
-66.407	536.591	0.009	-0.020
-65.392	207.695	0.195	-0.297
-64.378	-33.074	-0.290	-0.158
-63.363	560.370	-0.168	0.397
-62.349	167.156	-0.135	0.188
-61.334	78.700	-0.896	-0.938
-60.319	73.465	0.722	0.740
-59.305	625.014	-0.478	-1.179
-58.290	174.878	0.611	0.866
-57.276	547.867	0.590	1.382
-56.261	-200.000	114.363	646.658
-55.246	469.557	1507.461	3313.834
-54.232	148.490	2668.673	3527.055
-53.217	102.691	2171.954	2486.950
-52.203	37.800	1699.186	1477.001
-51.188	30.364	1516.974	1268.005
-50.173	28.187	1492.638	1232.968
-49.159	52.320	1550.276	1446.823
-48.144	50.762	1566.136	1450.887
-47.130	30.665	1522.447	1274.443
-46.115	27.556	1507.225	1240.524
-45.100	27.364	1503.854	1236.393
-44.086	27.413	1501.901	1235.072
-43.071	27.307	1499.992	1232.736
-42.057	27.291	1498.705	1231.523
-41.042	27.287	1497.312	1230.302
-40.027	27.229	1495.631	1228.480
-39.013	27.261	1493.872	1227.201
-37.998	27.248	1492.910	1226.271
-36.984	27.291	1491.646	1225.476
-35.969	27.293	1490.195	1224.249
-34.954	27.292	1488.847	1223.087
-33.940	27.260	1487.554	1221.764
-32.925	27.343	1485.991	1220.984
-31.911	27.224	1484.553	1218.961
-30.896	27.302	1483.269	1218.379
-29.881	27.332	1482.438	1217.846
-28.867	27.313	1481.067	1216.549
-27.852	27.262	1479.902	1215.201
-26.838	27.436	1478.239	1214.946
-25.823	27.311	1476.837	1212.912
-24.809	27.354	1474.985	1211.633
-23.794	27.343	1474.075	1210.759
-22.779	27.295	1472.910	1209.438
-21.765	27.364	1471.647	1208.813
-20.750	27.346	1470.554	1207.747
-19.736	27.313	1469.440	1206.566
-18.721	27.278	1468.466	1205.485
-17.706	27.253	1466.986	1204.053
-16.692	27.216	1466.726	1203.553
-15.677	27.364	1465.268	1203.285
-14.663	27.286	1464.534	1202.118
-13.648	27.265	1463.667	1201.223
-12.633	27.194	1462.919	1200.092
-11.619	27.306	1461.847	1199.903
-10.604	27.230	1460.886	1198.562
-9.590	27.175	1460.341	1197.705
-8.575	27.295	1458.998	1197.345
-7.560	27.221	1458.231	1196.187
-6.546	27.309	1457.436	1196.067
-5.531	27.215	1456.755	1194.838
-4.517	27.223	1455.365	1193.704
-3.502	27.295	1454.612	1193.513
-2.487	27.285	1453.369	1192.377
-1.473	27.163	1452.688	1190.976
-0.458	27.223	1451.098	1190.018
0.556	25.519	1441.330	1179.610
1.571	22.534	1416.976	1140.291
2.586	19.231	1355.106	1069.925
3.600	17.615	1271.830	994.662
4.615	16.396	1227.576	953.093
5.629	14.244	1171.232	897.674
6.644	7.191	1087.684	798.129
7.659	1.164	1048.899	740.249
8.673	0.262	1043.544	732.022
9.688	0.095	1040.377	728.925
10.702	0.087	1039.084	727.919
11.717	0.046	1036.570	725.893
12.731	2.424	1038.922	738.970
13.746	9.875	1048.819	782.158
14.761	16.079	1056.450	817.966
15.775	17.109	1057.097	823.393
16.790	16.488	1055.055	818.725
17.804	15.439	1052.990	811.974
18.819	14.558	1051.127	806.213
19.834	14.121	1049.741	802.967
20.848	13.930	1049.079	801.469
21.863	13.801	1047.647	799.682
22.877	13.470	1047.021	797.540
23.892	13.242	1046.437	795.926
24.907	13.060	1045.857	794.537
25.921	13.182	1045.022	794.418
26.936	13.079	1044.511	793.469
27.950	13.073	1043.877	792.887
28.965	13.222	1043.097	792.937
29.980	13.332	1041.902	792.488
30.994	13.413	1041.230	792.295
32.009	13.354	1040.546	791.420
33.023	13.341	1039.546	790.530
34.038	13.406	1038.634	790.077
35.053	13.388	1038.085	789.504
36.067	13.413	1036.651	788.461
37.082	13.315	1036.054	787.471
38.096	13.357	1035.377	787.086
39.111	13.409	1034.595	786.668
40.126	13.368	1034.095	786.022
41.140	13.255	1032.664	784.331
42.155	13.269	1031.292	783.286
43.169	13.251	1030.747	782.716
44.184	13.178	1029.893	781.656
45.199	13.173	1028.795	780.727
46.213	13.077	1028.153	779.717
47.228	13.159	1027.253	779.352
48.242	13.168	1025.957	778.343
49.257	13.153	1025.128	777.574
50.271	13.270	1023.521	776.835
51.286	13.212	1023.167	776.227
52.301	13.353	1022.102	776.011
53.315	13.183	1021.392	774.610
54.330	13.130	1020.587	773.682
55.344	13.184	1019.838	773.296
56.359	13.280	1018.336	772.539
57.374	13.146	1017.554	771.253
58.388	13.215	1016.517	770.718
59.403	13.098	1016.131	769.814
60.417	13.158	1014.984	769.155
61.432	13.098	1014.644	768.549
62.447	13.086	1013.929	767.882
63.461	13.080	1013.025	767.103
64.476	13.118	1012.346	766.700
65.490	13.078	1011.196	765.573
66.505	13.131	1010.489	765.218
67.520	13.097	1010.284	764.836
68.534	13.075	1009.453	764.038
69.549	13.016	1008.417	762.912
70.563	13.166	1007.458	762.813
71.578	13.012	1007.155	761.804
72.593	13.073	1006.286	761.361
73.607	12.936	1005.466	760.042
74.622	13.145	1003.940	759.783
75.636	13.143	1003.101	759.074
76.651	12.944	1002.355	757.524
77.666	13.043	1002.194	757.792
78.680	13.039	1000.901	756.731
79.695	13.107	1000.251	756.484
80.709	12.988	1000.451	756.020
81.724	13.069	999.045	755.262
82.739	13.135	998.325	754.952
83.753	13.199	997.887	754.847
84.768	13.232	997.036	754.288
85.782	13.396	995.805	754.038
86.797	13.395	995.168	753.483
87.812	13.399	994.813	753.166
88.826	13.178	993.890	751.398
89.841	13.221	993.298	751.078
90.855	13.310	992.304	750.661
91.870	13.346	991.215	749.938
92.884	13.354	990.745	749.549
93.899	13.334	990.203	748.984
94.914	13.367	989.483	748.521
95.928	13.478	988.398	748.136
96.943	13.424	988.108	747.607
97.957	13.463	986.735	746.678
98.972	13.331	986.280	745.674
99.987	13.351	985.640	745.212
101.001	13.420	984.875	744.880
102.016	13.370	984.224	744.094
103.030	13.402	983.215	743.411
104.045	13.384	982.424	742.667
105.060	13.384	981.302	741.754
106.074	13.336	980.586	740.930
107.089	13.204	979.725	739.625
108.103	13.155	978.749	738.604
109.118	13.164	977.891	737.931
110.133	13.158	977.239	737.347
111.147	13.252	976.203	736.920
112.162	13.139	975.205	735.595
113.176	13.255	974.898	735.814
114.191	13.228	973.949	734.914
115.206	13.357	972.926	734.650
116.220	13.276	972.089	733.595
117.235	13.364	970.934	733.049
118.249	13.305	970.453	732.358
119.264	13.255	969.510	731.361
120.279	13.331	968.384	730.784
121.293	13.222	967.925	729.892
122.308	13.219	967.698	729.639
123.322	13.170	966.632	728.557
124.337	13.193	965.604	727.819
125.352	13.116	964.141	726.312
126.366	13.125	963.094	725.500
127.381	13.060	962.281	724.538
128.395	13.299	960.855	724.448
129.410	13.190	960.322	723.506
130.424	13.199	959.418	722.800
131.439	13.264	958.403	722.253
132.454	13.342	957.363	721.748
133.468	13.449	956.778	721.710
134.483	13.289	956.551	720.778
135.497	13.360	955.301	720.080
136.512	13.268	954.882	719.298
137.527	13.162	954.553	718.525
138.541	13.332	953.419	718.348
139.556	13.447	952.185	717.855
140.570	13.232	952.168	716.846
141.585	13.333	950.969	716.317
142.600	13.450	950.330	716.280
143.614	13.308	949.760	715.172
144.629	13.457	948.595	714.873
145.643	13.432	948.224	714.421
146.658	13.465	947.300	713.804
147.673	13.422	946.560	712.997
148.687	13.449	945.570	712.307
149.702	13.387	944.596	711.243
150.716	13.362	944.028	710.645
151.731	13.449	942.624	709.899
152.746	13.330	942.319	709.096
153.760	13.508	941.136	708.905
154.775	13.380	940.956	708.162
155.789	13.418	939.469	707.140
156.804	13.500	939.289	707.292
157.819	13.540	938.518	706.821
158.833	13.559	937.921	706.387
159.848	13.615	936.900	705.797
160.862	13.576	936.327	705.135
161.877	13.507	935.705	704.312
162.892	13.471	935.049	703.601
163.906	13.558	934.143	703.229
164.921	13.586	932.696	702.193
165.935	13.458	931.854	700.959
166.950	13.485	930.513	700.002
167.964	13.430	930.675	699.826
168.979	13.624	929.315	699.563
169.994	13.440	928.672	698.242
171.008	13.553	927.402	697.701
172.023	13.672	926.619	697.550
173.037	13.609	925.801	696.607
174.052	13.601	925.396	696.206
175.067	13.659	924.738	695.893
176.081	13.667	923.740	695.113
177.096	13.571	923.131	694.195
178.110	13.594	922.502	693.755
179.125	13.605	921.476	692.966
180.140	13.539	920.845	692.157
181.154	13.611	919.996	691.756
182.169	13.590	919.447	691.196
183.183	13.792	918.432	691.212
184.198	13.668	918.232	690.485
185.213	13.749	917.379	690.119
186.227	13.671	916.748	689.261
187.242	13.855	916.146	689.510
188.256	13.832	915.657	688.988
189.271	13.884	915.117	688.732
190.286	13.778	914.455	687.737
191.300	13.833	913.263	687.005
192.315	13.700	912.712	685.981
193.329	13.682	912.275	685.518
194.344	13.805	911.215	685.168
195.359	13.648	910.989	684.288
196.373	13.731	910.284	684.041
197.388	13.884	909.995	684.394
198.402	13.919	909.623	684.198
199.417	13.967	908.850	683.754
200.432	14.109	908.307	683.867
201.446	14.001	907.987	683.125
202.461	14.130	907.715	683.386
203.475	14.080	906.995	682.578
204.490	14.075	906.281	681.963
205.504	14.118	905.468	681.466
206.519	14.092	904.885	680.861
207.534	14.055	903.918	679.920
208.548	14.101	903.120	679.450
209.563	14.143	902.308	678.950
210.577	14.141	901.651	678.386
211.592	14.057	901.088	677.561
212.607	14.027	900.963	677.283
213.621	14.125	900.358	677.167
214.636	14.060	899.798	676.424
215.650	14.163	898.495	675.802
216.665	14.200	898.225	675.689
217.680	14.248	897.686	675.420
218.694	14.337	897.092	675.272
219.709	14.294	896.548	674.629
220.723	14.313	895.959	674.204
221.738	14.338	895.544	673.933
222.753	14.356	894.196	672.930
223.767	14.223	893.866	672.086
224.782	14.424	892.707	671.966
225.796	14.459	892.243	671.700
226.811	14.457	891.863	671.343
227.826	14.530	890.920	670.871
228.840	14.313	890.515	669.631
229.855	14.483	889.902	669.796
230.869	14.374	889.038	668.649
231.884	14.339	888.858	668.316
232.899	14.357	887.900	667.607
233.913	14.391	887.020	667.021
234.928	14.392	886.136	666.304
235.942	14.199	885.862	665.264
236.957	14.215	885.329	664.870
237.972	14.276	884.641	664.540
238.986	14.352	884.112	664.386
240.001	14.304	883.108	663.381
241.015	14.222	882.482	662.524
242.030	14.437	881.723	662.753
243.045	14.490	881.043	662.395
244.059	14.426	880.365	661.572
245.074	14.552	879.756	661.554
246.088	14.384	879.247	660.446
247.103	14.594	878.818	660.896
248.117	14.601	878.289	660.468
249.132	14.704	877.767	660.427
250.147	14.717	877.009	659.847
251.161	14.800	876.041	659.389
252.176	14.783	875.615	658.944
253.190	14.737	874.945	658.198
254.205	14.963	873.940	658.276
255.220	14.896	873.662	657.742
256.234	14.991	873.173	657.692
257.249	14.946	872.370	656.852
258.263	14.984	872.005	656.668
259.278	14.884	871.328	655.706
260.293	14.919	870.777	655.372
261.307	15.027	870.510	655.536
262.322	15.031	869.750	654.921
263.336	15.035	869.053	654.355
264.351	15.240	868.130	654.402
265.366	15.102	867.605	653.409
266.380	15.173	867.114	653.258
267.395	15.027	866.342	652.050
268.409	14.997	866.056	651.661
269.424	15.078	865.051	651.161
270.439	15.033	864.440	650.471
271.453	15.134	863.912	650.408
272.468	15.157	862.770	649.580
273.482	15.182	862.394	649.335
274.497	15.173	861.882	648.856
275.512	15.171	861.185	648.265
276.526	15.027	860.574	647.192
277.541	15.154	859.596	646.890
278.555	15.125	859.420	646.591
279.570	15.282	858.850	646.707
280.585	15.304	858.353	646.360
281.599	15.305	857.838	645.923
282.614	15.243	857.356	645.261
283.628	15.365	856.563	645.080
284.643	15.337	855.952	644.453
285.657	15.322	855.520	644.012
286.672	15.357	854.906	643.627
287.687	15.380	854.620	643.443
288.701	15.156	854.207	642.218
289.716	15.397	853.255	642.368
290.730	15.354	852.843	641.834
291.745	15.334	852.423	641.386
292.760	15.605	851.061	641.341
293.774	15.457	850.585	640.360
294.789	15.537	850.094	640.239
295.803	15.595	849.661	640.078
296.818	15.358	849.335	638.870
297.833	15.482	848.441	638.615
298.847	15.445	847.791	637.929
299.862	15.539	846.787	637.475
300.876	15.465	846.297	636.768
301.891	15.588	845.602	636.656
302.906	15.657	844.914	636.340
303.920	15.597	844.216	635.530
304.935	15.707	843.762	635.548
305.949	15.793	843.126	635.340
306.964	15.647	842.696	634.408
307.979	15.642	842.202	633.960
308.993	15.817	841.692	634.182
310.008	15.764	840.768	633.228
311.022	15.719	840.749	632.989
312.037	15.755	840.270	632.708
313.052	15.651	839.683	631.818
314.066	15.791	838.671	631.528
315.081	15.829	837.909	631.039
316.095	15.907	837.327	630.836
317.110	15.597	837.422	629.691
318.125	15.853	836.477	629.884
319.139	15.755	836.094	629.172
320.154	15.740	835.468	628.592
321.168	16.015	834.615	628.919
322.183	15.828	834.305	627.931
323.197	15.846	833.811	627.574
324.212	15.897	833.354	627.363
325.227	15.788	833.035	626.660
326.241	15.887	832.403	626.498
327.256	15.928	831.535	625.944
328.270	15.925	831.161	625.594
329.285	15.762	830.941	624.770
330.300	15.982	830.165	624.945
331.314	15.851	829.592	623.973
332.329	15.892	828.995	623.621
333.343	15.881	828.223	622.945
334.358	15.945	827.775	622.789
335.373	15.977	827.452	622.608
336.387	15.958	826.666	621.893
337.402	16.070	826.538	622.153
338.416	16.022	825.940	621.472
339.431	16.030	825.301	620.966
340.446	16.004	824.836	620.464
341.460	16.095	823.806	619.971
342.475	16.136	823.590	619.905
343.489	16.243	822.794	619.643
344.504	16.262	822.197	619.210
345.519	16.295	821.790	618.969
346.533	16.243	821.364	618.403
347.548	16.361	820.915	618.442
348.562	16.287	820.434	617.753
349.577	16.307	819.931	617.392
350.592	16.341	819.037	616.791
351.606	16.294	818.417	616.097
352.621	16.285	818.351	615.959
353.635	16.219	818.136	615.501
354.650	16.158	817.649	614.860
355.665	16.257	817.040	614.709
356.679	16.351	816.565	614.639
357.694	16.375	816.219	614.409
358.708	16.394	815.587	613.948
359.723	16.476	815.021	613.766
360.738	16.461	814.382	613.175
361.752	16.403	814.058	612.669
362.767	16.382	813.838	612.373
363.781	16.438	813.598	612.340
364.796	16.459	812.965	611.886
365.810	16.643	812.203	611.922
366.825	16.683	811.710	611.643
367.840	16.575	811.531	611.063
368.854	16.619	811.185	610.908
369.869	16.685	810.569	610.626
370.883	16.593	810.246	609.998
371.898	16.529	809.706	609.306
372.913	16.727	808.301	608.907
373.927	16.779	808.003	608.817
374.942	16.813	807.249	608.316
375.956	16.638	807.209	607.604
376.971	16.731	806.499	607.349
377.986	16.727	806.166	607.031
379.000	16.939	805.479	607.220
380.015	16.867	805.305	606.775
381.029	16.923	804.677	606.451
382.044	16.988	803.853	606.007
383.059	16.945	803.263	605.357
384.073	16.800	802.922	604.527
385.088	16.761	802.479	604.000
386.102	16.906	801.828	603.975
387.117	16.820	801.250	603.180
388.132	16.810	801.111	602.986
389.146	16.927	800.412	602.821
390.161	16.901	800.161	602.487
391.175	16.976	799.672	602.332
392.190	17.175	799.054	602.520
393.205	16.950	798.874	601.534
394.219	17.096	798.582	601.776
395.234	16.886	798.183	600.680
396.248	16.931	797.395	600.193
397.263	17.020	797.119	600.246
398.278	17.028	796.260	599.575
399.292	17.009	795.826	599.129
400.307	17.004	795.634	598.914
401.321	16.948	795.457	598.527
402.336	16.888	794.927	597.865
403.350	16.963	794.795	597.977
404.365	17.047	794.175	597.752
405.380	17.162	793.208	597.378
406.394	17.130	793.168	597.183
407.409	17.275	792.594	597.208
408.423	17.319	792.260	597.058
409.438	17.333	791.544	596.513
410.453	17.106	791.638	595.734
411.467	17.336	791.089	596.074
412.482	17.372	790.530	595.727
413.496	17.435	789.875	595.401
414.511	17.368	789.607	594.911
415.526	17.258	789.687	594.536
416.540	17.382	789.103	594.476
417.555	17.452	788.824	594.457
418.569	17.420	787.871	593.577
419.584	17.288	787.854	593.050
420.599	17.436	787.105	592.948
421.613	111.640	1292.909	1479.377
422.628	95.828	1366.583	1479.476
