DTS Sentinel unit serial number:	SN413079Multiplexer serial number:	ORYXHardware model number:	OX4-SRSoftware version number:	ORYX F/W v4.00 Oryx Data Collector v3.7.2.0data status	okinstallation	princeton_trtdifferential loss correction	single-endedforward channel	channel 3reverse channel	N/Adate	2019/09/16time	06:08:34forward acquisition time	60.00reverse acquisition time	0.00gamma	496.2192k internal	0.2334k external	0.2334temperature offset calibration	0.9960default loss term (dB/km)	0.3790temperature slope calibration	1.0000multiplexer offset coefficient	1.0000multiplexer slope coefficient	1.0000fibre end	0.00T internal ref (°C)	27.44T ext. ref 1 (°C)	11.29T ext. ref 2 (°C)	21.86length (m)	temperature (°C)	Stokes	anti-Stokes-747.200	-200.000	-0.030	-0.324
-746.185	-143.581	-0.239	-0.023
-745.171	-15.351	0.230	-0.148
-744.156	355.057	-0.063	0.126
-743.142	-200.000	-0.019	0.555
-742.127	-170.828	-0.157	0.005
-741.112	800.000	-0.124	-0.407
-740.098	109.460	-0.213	0.256
-739.083	20.007	-0.093	-0.075
-738.069	303.629	-0.208	0.388
-737.054	-200.000	-0.020	-0.283
-736.039	-36.475	-0.117	0.063
-735.025	-46.889	0.064	-0.031
-734.010	74.029	0.343	-0.361
-732.996	-133.613	-0.285	-0.036
-731.981	-155.447	-0.247	-0.016
-730.966	-7.389	-0.122	0.083
-729.952	294.190	-0.041	0.075
-728.937	-22.116	-0.292	-0.178
-727.923	800.000	0.081	0.279
-726.908	-133.664	0.162	0.020
-725.894	-9.006	-0.139	-0.093
-724.879	313.315	0.120	0.226
-723.864	-200.000	-0.033	-0.155
-722.850	-28.224	0.192	-0.111
-721.835	3.015	-0.075	-0.054
-720.821	-200.000	0.003	0.160
-719.806	-76.693	-0.207	-0.073
-718.791	121.627	0.236	-0.296
-717.777	-129.724	0.056	0.008
-716.762	-92.661	-0.093	-0.026
-715.748	-200.000	0.229	0.001
-714.733	-173.326	-0.252	0.008
-713.718	-200.000	-0.024	-0.152
-712.704	-117.880	-0.383	0.069
-711.689	-200.000	-0.075	-0.343
-710.675	-200.000	0.015	-0.137
-709.660	526.220	-0.035	0.083
-708.645	-130.140	-0.362	0.049
-707.631	-36.125	0.070	-0.038
-706.616	-70.725	0.331	0.125
-705.602	-21.615	-0.221	0.135
-704.587	-200.000	-0.050	-0.245
-703.572	109.376	-0.068	-0.082
-702.558	-153.474	0.254	-0.018
-701.543	591.561	0.067	-0.166
-700.529	43.918	0.209	-0.192
-699.514	-200.000	-0.068	-0.323
-698.499	397.029	0.075	-0.158
-697.485	84.591	-0.142	-0.156
-696.470	74.869	-0.156	0.164
-695.456	-135.619	-0.121	-0.014
-694.441	126.275	-0.080	-0.102
-693.426	168.997	0.075	0.107
-692.412	-97.435	-0.181	0.047
-691.397	563.440	-0.047	0.115
-690.383	-127.189	0.190	-0.028
-689.368	800.000	0.043	-0.152
-688.354	-90.136	-0.213	0.062
-687.339	213.076	0.061	0.097
-686.324	64.579	0.083	-0.084
-685.310	-200.000	-0.043	0.191
-684.295	150.960	-0.333	0.455
-683.281	800.000	-0.079	-0.313
-682.266	-200.000	0.024	-0.304
-681.251	-3.173	-0.271	-0.189
-680.237	787.691	-0.071	-0.196
-679.222	800.000	-0.111	-0.414
-678.208	-200.000	-0.001	0.076
-677.193	4.060	-0.053	-0.039
-676.178	-200.000	0.061	-0.346
-675.164	517.513	-0.038	0.090
-674.149	250.554	-0.141	-0.241
-673.135	-200.000	-0.020	0.121
-672.120	372.600	0.084	0.170
-671.105	-83.923	-0.380	0.121
-670.091	81.322	-0.079	-0.086
-669.076	800.000	-0.095	-0.304
-668.062	88.314	0.042	-0.047
-667.047	758.337	0.033	-0.088
-666.032	-200.000	-0.012	0.403
-665.018	-113.087	-0.399	-0.079
-664.003	-200.000	-0.008	0.145
-662.989	117.377	0.066	-0.082
-661.974	-173.785	-0.283	0.008
-660.959	-66.078	-0.167	0.067
-659.945	-200.000	0.000	0.067
-658.930	-144.323	-0.413	-0.038
-657.916	43.286	0.132	-0.121
-656.901	-50.481	-0.267	-0.126
-655.886	236.911	0.146	0.243
-654.872	122.800	0.244	-0.305
-653.857	227.272	-0.032	-0.053
-652.843	-200.000	0.002	-0.084
-651.828	247.207	-0.167	0.282
-650.814	321.225	-0.147	0.281
-649.799	14.993	0.150	-0.118
-648.784	689.162	-0.092	-0.240
-647.770	800.000	-0.149	-0.422
-646.755	800.000	0.058	-0.180
-645.741	-89.340	0.224	-0.066
-644.726	-9.979	0.030	-0.020
-643.711	-3.171	-0.075	0.052
-642.697	800.000	-0.113	-0.360
-641.682	209.315	-0.093	-0.145
-640.668	-200.000	-0.033	-0.279
-639.653	254.493	-0.061	0.104
-638.638	134.449	-0.093	0.121
-637.624	33.255	-0.098	0.085
-636.609	-200.000	-0.008	0.108
-635.595	42.049	-0.118	0.107
-634.580	102.440	0.136	0.160
-633.565	114.147	0.185	0.225
-632.551	83.103	-0.120	0.131
-631.536	-5.009	-0.052	0.036
-630.522	-200.000	0.005	-0.080
-629.507	800.000	0.075	0.271
-628.492	740.709	0.073	-0.196
-627.478	-99.120	-0.118	0.030
-626.463	630.144	0.072	-0.183
-625.449	-93.854	-0.183	-0.050
-624.434	-124.366	-0.308	-0.048
-623.419	-12.527	0.180	0.117
-622.405	-136.604	0.165	-0.019
-621.390	397.526	0.136	0.284
-620.376	-200.000	-0.047	-0.251
-619.361	59.419	0.168	0.165
-618.346	-116.194	0.059	-0.011
-617.332	25.681	0.080	0.067
-616.317	449.761	-0.171	0.376
-615.303	70.917	0.249	-0.258
-614.288	698.351	-0.116	0.305
-613.273	-200.000	0.060	0.281
-612.259	-200.000	0.031	0.463
-611.244	-74.155	0.063	0.023
-610.230	-12.640	-0.341	-0.222
-609.215	89.506	-0.132	0.147
-608.201	-83.069	-0.222	-0.072
-607.186	-200.000	0.017	0.182
-606.171	-7.490	0.179	-0.121
-605.157	43.695	-0.111	0.102
-604.142	-3.673	0.227	0.158
-603.128	800.000	0.064	0.212
-602.113	9.810	0.229	-0.173
-601.098	29.990	0.110	0.093
-600.084	-48.043	-0.021	-0.010
-599.069	-117.934	0.139	-0.025
-598.055	-100.167	-0.057	0.014
-597.040	800.000	0.056	-0.188
-596.025	-77.033	0.083	-0.029
-595.011	236.093	0.089	-0.147
-593.996	-129.074	0.077	0.011
-592.982	198.715	0.152	-0.232
-591.967	-200.000	0.028	-0.152
-590.952	219.441	0.101	0.161
-589.938	-200.000	-0.015	0.163
-588.923	-200.000	-0.008	-0.218
-587.909	-200.000	-0.010	0.108
-586.894	-200.000	-0.033	-0.193
-585.879	800.000	0.038	0.118
-584.865	-107.014	0.081	-0.018
-583.850	254.474	-0.272	-0.465
-582.836	-24.818	0.287	-0.170
-581.821	28.095	0.028	0.024
-580.806	223.174	-0.150	0.241
-579.792	800.000	-0.049	0.183
-578.777	21.229	0.197	-0.159
-577.763	68.207	0.067	0.069
-576.748	800.000	0.036	-0.111
-575.733	610.515	-0.025	0.062
-574.719	800.000	-0.087	-0.275
-573.704	800.000	-0.022	-0.065
-572.690	-64.030	0.161	-0.066
-571.675	317.541	0.071	0.133
-570.661	-25.216	0.273	-0.161
-569.646	-147.508	0.334	0.028
-568.631	-162.047	0.126	0.006
-567.617	-54.449	-0.270	-0.122
-566.602	-61.588	-0.454	-0.190
-565.588	239.840	-0.084	-0.139
-564.573	-86.741	0.110	-0.034
-563.558	-200.000	0.010	0.452
-562.544	1.427	-0.147	-0.105
-561.529	-200.000	0.010	0.356
-560.515	-82.603	-0.184	-0.060
-559.500	-124.636	0.211	-0.033
-558.485	-21.119	0.300	0.183
-557.471	297.760	0.118	-0.215
-556.456	72.183	-0.223	-0.232
-555.442	-135.197	0.255	0.030
-554.427	800.000	-0.061	-0.179
-553.412	-200.000	0.003	-0.072
-552.398	75.765	0.114	0.120
-551.383	-22.102	0.151	-0.091
-550.369	-115.824	-0.319	0.059
-549.354	-200.000	0.005	-0.289
-548.339	-200.000	-0.029	0.249
-547.325	-4.260	-0.212	-0.146
-546.310	800.000	-0.027	-0.077
-545.296	-200.000	-0.006	-0.082
-544.281	-200.000	0.131	-0.001
-543.266	-26.928	-0.230	0.134
-542.252	25.129	0.341	0.282
-541.237	45.040	0.138	0.127
-540.223	25.990	-0.205	0.171
-539.208	-85.327	-0.082	0.025
-538.193	109.737	0.178	-0.213
-537.179	27.044	0.019	-0.016
-536.164	-41.772	0.157	-0.080
-535.150	10.506	-0.211	0.160
-534.135	-19.068	-0.267	0.165
-533.121	385.974	-0.045	0.093
-532.106	-82.458	0.293	-0.095
-531.091	-76.632	0.264	-0.092
-530.077	800.000	0.121	-0.339
-529.062	558.619	0.053	0.127
-528.048	-21.679	-0.138	0.084
-527.033	-72.260	-0.456	0.168
-526.018	-114.078	0.129	-0.025
-525.004	-182.836	0.177	-0.003
-523.989	-158.268	-0.130	0.008
-522.975	5.127	0.071	0.052
-521.960	-135.891	0.070	-0.008
-520.945	159.790	-0.239	-0.332
-519.931	800.000	-0.103	-0.292
-518.916	-200.000	-0.006	0.101
-517.902	32.746	-0.253	0.218
-516.887	-97.238	0.262	-0.068
-515.872	208.458	0.031	0.048
-514.858	67.778	0.246	-0.251
-513.843	-42.439	0.360	-0.183
-512.829	310.443	-0.044	0.083
-511.814	-108.011	-0.026	-0.006
-510.799	393.751	-0.041	-0.085
-509.785	800.000	0.048	-0.198
-508.770	-200.000	-0.023	-0.233
-507.756	-33.748	-0.278	0.153
-506.741	-12.513	0.208	0.135
-505.726	800.000	-0.024	-0.097
-504.712	-200.000	-0.023	-0.109
-503.697	285.327	-0.068	0.121
-502.683	105.901	0.285	-0.336
-501.668	261.258	0.066	0.113
-500.653	-138.033	-0.245	-0.027
-499.639	675.847	0.120	-0.311
-498.624	800.000	0.076	0.238
-497.610	-200.000	0.024	-0.238
-496.595	-200.000	0.043	0.339
-495.581	-31.399	-0.116	0.065
-494.566	-63.647	-0.285	0.116
-493.551	-133.347	0.212	-0.027
-492.537	-200.000	-0.027	0.237
-491.522	-200.000	0.026	0.158
-490.508	-73.840	-0.070	0.025
-489.493	-107.503	0.079	-0.017
-488.478	19.074	-0.107	-0.085
-487.464	0.159	-0.034	0.024
-486.449	800.000	-0.093	0.318
-485.435	-200.000	0.056	-0.311
-484.420	101.685	0.177	0.206
-483.405	28.456	-0.135	-0.113
-482.391	-70.915	0.163	0.061
-481.376	198.790	0.026	-0.039
-480.362	-200.000	0.003	-0.637
-479.347	-200.000	-0.011	0.238
-478.332	-178.095	0.111	0.003
-477.318	13.415	-0.297	-0.229
-476.303	611.455	0.046	-0.114
-475.289	-81.000	-0.337	-0.111
-474.274	-127.866	0.056	0.008
-473.259	-200.000	-0.012	0.151
-472.245	-89.825	0.338	0.098
-471.230	149.260	0.064	-0.086
-470.216	-24.358	-0.102	-0.061
-469.201	56.748	-0.188	-0.182
-468.186	346.354	0.047	0.092
-467.172	43.208	-0.122	0.111
-466.157	238.896	-0.071	0.118
-465.143	-200.000	-0.007	0.434
-464.128	3.343	-0.194	-0.140
-463.113	9.298	-0.234	-0.176
-462.099	-166.642	-0.311	0.013
-461.084	-200.000	0.011	0.158
-460.070	-37.157	0.448	-0.238
-459.055	-27.211	0.240	0.139
-458.040	295.588	-0.102	-0.185
-457.026	-200.000	0.084	0.397
-456.011	222.839	-0.097	-0.155
-454.997	-12.261	0.081	-0.053
-453.982	510.618	0.036	-0.082
-452.968	-84.293	-0.254	0.080
-451.953	52.294	0.198	0.187
-450.938	-75.264	0.254	-0.090
-449.924	800.000	-0.025	0.080
-448.909	-200.000	0.049	-0.310
-447.895	-146.760	0.091	-0.008
-446.880	-55.249	0.095	0.042
-445.865	-128.792	-0.233	0.033
-444.851	-200.000	0.036	-0.194
-443.836	483.632	0.028	-0.064
-442.822	144.496	-0.270	0.358
-441.807	90.035	-0.085	0.094
-440.792	-35.692	-0.102	-0.055
-439.778	-133.822	0.145	-0.018
-438.763	-53.179	-0.246	0.112
-437.749	149.719	-0.055	-0.074
-436.734	-46.047	-0.260	-0.127
-435.719	-89.315	-0.216	0.063
-434.705	350.752	0.039	0.077
-433.690	72.128	0.380	0.393
-432.676	-108.101	-0.093	-0.020
-431.661	231.140	0.117	0.190
-430.646	-26.070	-0.120	0.070
-429.632	-200.000	0.013	-0.171
-428.617	-109.719	-0.317	-0.066
-427.603	-200.000	0.045	-0.283
-426.588	-143.560	0.261	-0.025
-425.573	79.804	-0.159	0.170
-424.559	405.738	-0.063	0.133
-423.544	-165.443	0.040	0.002
-422.530	-200.000	-0.004	-0.178
-421.515	-176.572	0.252	-0.006
-420.500	573.180	0.117	0.282
-419.486	-84.208	0.194	0.061
-418.471	800.000	0.015	0.050
-417.457	-200.000	0.016	0.224
-416.442	-200.000	-0.009	-0.070
-415.428	-200.000	-0.046	0.249
-414.413	416.321	0.116	0.246
-413.398	-127.661	0.091	0.013
-412.384	-148.016	-0.094	-0.008
-411.369	-81.630	-0.449	0.146
-410.355	118.221	-0.329	-0.402
-409.340	-200.000	0.018	0.116
-408.325	800.000	0.034	-0.114
-407.311	-130.848	0.221	-0.029
-406.296	-109.044	0.082	-0.017
-405.282	32.984	0.183	-0.157
-404.267	695.098	0.076	-0.198
-403.252	-7.390	-0.252	-0.170
-402.238	-52.711	0.045	0.020
-401.223	-149.539	-0.222	-0.017
-400.209	-120.885	0.020	-0.003
-399.194	743.399	-0.095	-0.253
-398.179	-74.760	-0.245	-0.087
-397.165	724.549	0.079	-0.210
-396.150	-45.739	0.205	0.101
-395.136	-50.031	-0.222	0.104
-394.121	95.259	0.052	-0.058
-393.106	-63.389	0.012	0.005
-392.092	-106.228	0.302	0.067
-391.077	70.905	0.235	0.241
-390.063	-72.995	0.229	0.083
-389.048	-200.000	-0.014	-0.336
-388.033	-76.980	-0.246	0.085
-387.019	-48.327	-0.410	0.196
-386.004	-18.006	-0.243	0.151
-384.990	-200.000	-0.042	0.209
-383.975	-10.575	-0.192	0.126
-382.960	299.492	-0.136	0.249
-381.946	33.795	-0.170	0.146
-380.931	43.411	0.127	-0.115
-379.917	34.820	0.142	-0.123
-378.902	800.000	0.096	0.390
-377.888	-155.240	-0.276	-0.018
-376.873	-166.490	0.188	-0.008
-375.858	505.120	-0.080	0.184
-374.844	-164.368	-0.185	0.008
-373.829	225.383	-0.126	0.202
-372.815	135.994	-0.133	0.172
-371.800	242.434	-0.070	0.116
-370.785	-31.721	0.212	0.118
-369.771	230.229	0.077	0.124
-368.756	-30.574	0.019	0.011
-367.742	158.823	0.042	0.057
-366.727	-48.195	0.357	0.171
-365.712	-200.000	-0.009	-0.209
-364.698	-133.683	0.315	-0.039
-363.683	-87.604	-0.421	0.126
-362.669	-32.241	-0.290	-0.160
-361.654	347.601	0.114	-0.222
-360.639	-19.781	0.355	-0.217
-359.625	312.658	0.041	0.076
-358.610	552.211	-0.078	0.185
-357.596	-80.002	0.158	-0.052
-356.581	582.319	-0.097	0.235
-355.566	-200.000	0.014	0.158
-354.552	-200.000	-0.008	-0.326
-353.537	34.050	0.039	0.034
-352.523	310.948	-0.136	0.252
-351.508	-53.862	-0.204	0.092
-350.493	-200.000	-0.050	-0.411
-349.479	-50.594	0.319	-0.149
-348.464	-36.039	0.086	-0.046
-347.450	-71.561	-0.274	0.101
-346.435	-127.401	0.061	-0.009
-345.420	-93.579	-0.166	-0.045
-344.406	-200.000	0.078	0.425
-343.391	121.970	0.162	-0.200
-342.377	-154.602	-0.208	0.014
-341.362	800.000	0.059	-0.198
-340.348	250.592	-0.071	0.119
-339.333	-200.000	-0.040	0.312
-338.318	-200.000	0.075	-0.347
-337.304	800.000	0.031	-0.086
-336.289	-200.000	-0.014	0.283
-335.275	-89.111	-0.564	-0.165
-334.260	800.000	0.081	0.256
-333.245	282.823	-0.077	-0.137
-332.231	158.022	-0.218	0.299
-331.216	-200.000	0.087	0.382
-330.202	-164.079	0.229	0.010
-329.187	114.504	-0.150	0.181
-328.172	28.402	-0.118	-0.099
-327.158	-109.875	-0.282	-0.058
-326.143	-124.414	-0.222	0.034
-325.129	-200.000	-0.009	-0.099
-324.114	-7.163	-0.153	-0.102
-323.099	-200.000	0.014	0.319
-322.085	-110.058	0.252	-0.052
-321.070	-107.325	0.024	-0.005
-320.056	-72.932	-0.181	-0.066
-319.041	-200.000	0.061	-0.294
-318.026	271.420	-0.246	-0.428
-317.012	416.857	-0.064	-0.136
-315.997	104.679	-0.132	-0.154
-314.983	-104.935	-0.198	0.045
-313.968	393.196	-0.123	0.252
-312.953	539.912	0.087	-0.205
-311.939	61.267	-0.301	0.296
-310.924	-157.697	0.219	0.013
-309.910	186.978	-0.051	-0.075
-308.895	702.913	-0.023	0.060
-307.880	-200.000	-0.006	0.066
-306.866	-200.000	0.040	0.257
-305.851	-85.828	-0.131	-0.040
-304.837	478.007	-0.100	-0.224
-303.822	-200.000	-0.042	-0.204
-302.807	-117.746	0.258	0.046
-301.793	309.324	0.052	-0.095
-300.778	-41.514	-0.394	-0.200
-299.764	289.132	-0.020	-0.035
-298.749	216.690	-0.159	0.250
-297.735	-200.000	-0.107	-0.563
-296.720	-31.485	0.374	-0.208
-295.705	800.000	-0.035	0.124
-294.691	-200.000	-0.003	-0.041
-293.676	-159.931	-0.172	0.009
-292.662	-19.252	0.041	-0.025
-291.647	-53.941	-0.260	0.117
-290.632	-69.937	-0.105	0.040
-289.618	-134.552	0.147	-0.018
-288.603	-39.893	0.252	-0.130
-287.589	786.986	0.093	-0.252
-286.574	-37.572	0.196	0.103
-285.559	17.317	-0.161	0.126
-284.545	168.081	0.168	-0.236
-283.530	315.319	-0.141	0.263
-282.516	96.717	-0.200	0.226
-281.501	-200.000	-0.046	0.223
-280.486	-85.638	0.115	0.035
-279.472	-200.000	-0.028	-0.390
-278.457	-91.449	-0.214	0.060
-277.443	608.694	0.259	-0.639
-276.428	-200.000	-0.084	-0.377
-275.413	-200.000	0.040	-0.305
-274.399	-126.084	-0.191	-0.028
-273.384	800.000	0.102	0.352
-272.370	-149.031	-0.166	0.013
-271.355	-25.880	-0.302	0.175
-270.340	30.722	-0.276	0.233
-269.326	-78.937	-0.092	-0.031
-268.311	-100.475	-0.133	-0.032
-267.297	214.811	0.085	-0.133
-266.282	-107.714	0.072	-0.015
-265.267	372.272	0.161	-0.322
-264.253	-38.080	0.159	0.083
-263.238	-67.842	0.226	-0.087
-262.224	800.000	-0.077	-0.252
-261.209	-165.318	0.077	0.003
-260.195	800.000	-0.087	0.299
-259.180	245.124	0.145	-0.241
-258.165	-77.027	0.113	-0.039
-257.151	211.381	-0.071	0.111
-256.136	-103.163	0.040	-0.009
-255.122	-58.028	-0.096	0.041
-254.107	-40.325	0.084	-0.043
-253.092	235.584	-0.037	0.060
-252.078	19.622	-0.220	-0.175
-251.063	-25.349	0.030	0.018
-250.049	-17.876	-0.088	0.055
-249.034	-51.686	-0.059	0.027
-248.019	-105.250	-0.359	-0.081
-247.005	-37.153	0.031	-0.016
-245.990	-200.000	0.061	-0.306
-244.976	-120.665	0.089	0.015
-243.961	-178.529	0.311	0.007
-242.946	39.666	-0.268	-0.237
-241.932	108.075	0.267	-0.313
-240.917	191.123	0.096	-0.143
-239.903	209.835	0.223	0.344
-238.888	-108.119	0.206	0.044
-237.873	83.505	0.182	0.195
-236.859	-80.080	0.152	-0.050
-235.844	800.000	0.118	-0.324
-234.830	-121.774	-0.201	0.033
-233.815	-200.000	0.029	-0.167
-232.800	9.117	-0.140	0.104
-231.786	-71.178	0.157	0.058
-230.771	800.000	-0.097	-0.293
-229.757	-162.318	-0.175	0.009
-228.742	-35.583	0.071	0.038
-227.727	-200.000	0.030	-0.233
-226.713	800.000	-0.009	0.038
-225.698	-5.655	0.230	0.155
-224.684	-56.833	-0.461	0.200
-223.669	260.932	-0.173	-0.296
-222.655	-32.908	0.056	-0.031
-221.640	-113.501	-0.072	-0.014
-220.625	-19.884	-0.275	-0.167
-219.611	-200.000	-0.057	0.273
-218.596	-13.618	-0.206	0.131
-217.582	-200.000	0.008	-0.110
-216.567	-200.000	-0.023	-0.311
-215.552	-104.252	0.302	0.069
-214.538	326.016	0.060	0.114
-213.523	122.636	0.068	-0.084
-212.509	157.658	0.111	-0.151
-211.494	141.499	0.181	0.236
-210.479	-40.122	0.371	0.190
-209.465	-10.968	-0.334	0.217
-208.450	-31.355	0.201	0.111
-207.436	11.703	-0.150	-0.113
-206.421	266.093	0.166	0.285
-205.406	278.958	0.116	-0.203
-204.392	44.135	-0.129	0.117
-203.377	800.000	0.034	-0.118
-202.363	-200.000	0.023	0.110
-201.348	6.991	0.379	-0.278
-200.333	-200.000	0.023	0.260
-199.319	757.793	-0.040	0.108
-198.304	257.388	0.019	0.033
-197.290	800.000	0.057	0.187
-196.275	595.674	0.069	-0.169
-195.260	-110.452	0.171	0.035
-194.246	-91.784	-0.032	-0.009
-193.231	433.887	0.106	-0.226
-192.217	554.208	-0.121	-0.287
-191.202	-64.063	0.253	-0.102
-190.187	800.000	-0.085	0.305
-189.173	635.300	0.052	0.129
-188.158	93.865	-0.132	0.147
-187.144	65.527	0.238	0.237
-186.129	198.060	0.014	-0.021
-185.114	242.808	-0.032	0.052
-184.100	14.271	0.091	0.069
-183.085	-70.719	-0.535	0.199
-182.071	21.352	-0.112	0.090
-181.056	33.477	-0.037	0.031
-180.042	-200.000	-0.041	0.368
-179.027	-200.000	-0.025	-0.209
-178.012	-130.131	0.138	0.018
-176.998	-43.590	0.228	-0.113
-175.983	-149.687	0.212	0.016
-174.969	-200.000	-0.031	-0.233
-173.954	-90.418	0.137	-0.039
-172.939	46.229	0.072	0.066
-171.925	-200.000	0.016	-0.112
-170.910	-47.837	0.227	0.108
-169.896	100.655	0.108	-0.123
-168.881	-37.585	-0.061	0.032
-167.866	800.000	0.081	-0.229
-166.852	186.869	-0.137	0.201
-165.837	156.509	0.226	0.306
-164.823	194.175	-0.157	0.233
-163.808	612.504	-0.071	-0.174
-162.793	-200.000	0.033	0.423
-161.779	800.000	0.010	0.036
-160.764	188.577	-0.121	0.178
-159.750	-22.129	0.277	-0.165
-158.735	-184.286	0.360	-0.006
-157.720	-103.629	-0.271	0.063
-156.706	329.088	0.088	0.166
-155.691	-45.279	0.377	0.184
-154.677	-200.000	-0.038	-0.238
-153.662	87.446	0.258	-0.281
-152.647	800.000	0.091	0.249
-151.633	481.208	-0.038	0.084
-150.618	-33.631	-0.371	0.201
-149.604	-152.683	0.092	0.006
-148.589	-2.488	-0.220	-0.151
-147.574	-200.000	0.062	0.407
-146.560	-66.033	0.081	-0.032
-145.545	191.082	0.084	0.124
-144.531	-72.125	-0.094	-0.034
-143.516	800.000	0.042	-0.154
-142.502	-200.000	-0.005	-0.103
-141.487	-63.555	0.060	-0.024
-140.472	-200.000	0.022	-0.343
-139.458	34.792	0.347	-0.298
-138.443	23.006	-0.158	-0.127
-137.429	-188.237	0.040	-0.001
-136.414	423.897	-0.046	0.097
-135.399	-200.000	0.007	0.156
-134.385	-79.989	0.334	-0.110
-133.370	-200.000	-0.050	-0.234
-132.356	1.710	-0.124	-0.088
-131.341	486.831	0.175	-0.392
-130.326	-182.495	-0.195	0.004
-129.312	-62.781	0.290	-0.118
-128.297	46.182	-0.077	-0.070
-127.283	-200.000	-0.011	-0.373
-126.268	-26.951	0.256	0.147
-125.253	-118.178	-0.308	0.054
-124.239	-6.404	-0.247	-0.165
-123.224	236.669	0.062	-0.101
-122.210	41.652	0.275	-0.244
-121.195	800.000	0.119	0.333
-120.180	-90.220	-0.157	-0.045
-119.166	95.567	-0.129	-0.144
-118.151	-200.000	0.009	0.054
-117.137	800.000	0.121	-0.486
-116.122	656.299	0.100	-0.251
-115.107	207.092	-0.071	0.108
-114.093	-183.259	0.188	0.003
-113.078	-159.198	0.165	-0.009
-112.064	551.121	0.105	-0.248
-111.049	-113.745	0.143	0.027
-110.034	167.288	-0.309	0.430
-109.020	-149.316	0.295	-0.023
-108.005	-116.481	0.202	0.037
-106.991	-98.891	-0.192	-0.048
-105.976	14.762	0.133	0.102
-104.962	800.000	-0.099	-0.302
-103.947	-21.154	0.257	-0.154
-102.932	-162.715	0.137	-0.007
-101.918	582.056	-0.114	-0.273
-100.903	440.464	0.044	-0.095
-99.889	-200.000	0.004	-0.108
-98.874	-200.000	0.004	0.270
-97.859	800.000	0.098	0.282
-96.845	16.402	0.249	-0.193
-95.830	244.802	0.049	0.081
-94.816	-50.946	-0.601	-0.276
-93.801	-109.680	0.174	0.036
-92.786	-21.591	-0.099	0.059
-91.772	15.266	-0.141	-0.108
-90.757	229.197	-0.142	-0.227
-89.743	-68.267	0.162	0.062
-88.728	-145.320	0.326	-0.029
-87.713	-98.779	0.277	-0.069
-86.699	-112.182	0.417	0.082
-85.684	-31.480	0.176	-0.097
-84.670	267.857	0.066	-0.113
-83.655	179.081	-0.069	0.099
-82.640	38.299	-0.098	-0.085
-81.626	-15.277	0.152	-0.095
-80.611	-93.636	-0.076	0.021
-79.597	-106.360	-0.110	-0.024
-78.582	-200.000	0.030	-0.178
-77.567	14.435	-0.430	-0.329
-76.553	800.000	-0.022	0.095
-75.538	800.000	-0.078	-0.258
-74.524	40.489	-0.450	-0.397
-73.509	64.072	0.106	-0.105
-72.494	477.982	0.155	-0.342
-71.480	336.010	0.120	0.228
-70.465	-37.185	0.268	-0.140
-69.451	-17.754	-0.249	0.153
-68.436	-143.061	0.115	0.011
-67.422	261.581	0.088	-0.149
-66.407	-92.173	0.146	0.040
-65.392	-107.811	-0.072	-0.015
-64.378	-200.000	-0.034	-0.301
-63.363	-150.305	0.129	0.010
-62.349	-200.000	0.001	-0.034
-61.334	51.430	-1.141	-1.060
-60.319	-76.344	0.810	0.279
-59.305	352.900	-0.649	-1.260
-58.290	203.656	0.706	1.068
-57.276	800.000	0.540	1.633
-56.261	-200.000	114.240	646.068
-55.246	465.738	1511.378	3309.670
-54.232	147.105	2677.172	3523.192
-53.217	102.946	2178.469	2495.652
-52.203	37.800	1706.206	1482.515
-51.188	30.488	1524.488	1274.631
-50.173	28.321	1499.529	1239.071
-49.159	52.616	1557.070	1454.601
-48.144	51.160	1573.000	1459.413
-47.130	30.741	1529.235	1280.137
-46.115	27.766	1514.315	1247.297
-45.100	27.544	1510.741	1242.792
-44.086	27.495	1508.623	1240.666
-43.071	27.491	1506.624	1238.942
-42.057	27.437	1505.297	1237.435
-41.042	27.334	1504.118	1235.719
-40.027	27.351	1502.707	1234.626
-39.013	27.477	1500.887	1233.936
-37.998	27.296	1500.190	1232.085
-36.984	27.379	1498.919	1231.556
-35.969	27.436	1496.916	1230.247
-34.954	27.375	1495.562	1228.677
-33.940	27.321	1494.629	1227.495
-32.925	27.448	1493.075	1227.025
-31.911	27.435	1491.702	1225.761
-30.896	27.405	1490.594	1224.600
-29.881	27.414	1489.278	1223.533
-28.867	27.450	1487.979	1222.653
-27.852	27.521	1486.536	1221.897
-26.838	27.474	1485.425	1220.619
-25.823	27.418	1483.867	1218.917
-24.809	27.458	1481.878	1217.503
-23.794	27.551	1480.774	1217.167
-22.779	27.422	1479.966	1215.593
-21.765	27.473	1478.460	1214.652
-20.750	27.561	1477.141	1214.109
-19.736	27.498	1476.253	1212.906
-18.721	27.539	1474.761	1211.904
-17.706	27.488	1473.764	1210.698
-16.692	27.429	1473.299	1209.877
-15.677	27.507	1472.034	1209.311
-14.663	27.449	1471.198	1208.193
-13.648	27.542	1469.835	1207.641
-12.633	27.395	1469.342	1206.214
-11.619	27.507	1468.474	1206.195
-10.604	27.358	1467.728	1204.544
-9.590	27.372	1466.992	1203.989
-8.575	27.504	1465.506	1203.590
-7.560	27.448	1464.740	1202.546
-6.546	27.418	1463.826	1201.546
-5.531	27.334	1463.398	1200.596
-4.517	27.371	1462.603	1200.137
-3.502	27.533	1461.238	1200.037
-2.487	27.515	1460.046	1198.893
-1.473	27.452	1459.002	1197.575
-0.458	27.563	1457.490	1197.013
0.556	25.834	1448.319	1184.728
1.571	22.946	1423.053	1145.267
2.586	19.704	1362.849	1076.560
3.600	18.078	1280.897	1002.208
4.615	17.128	1235.733	961.409
5.629	16.356	1183.239	916.299
6.644	14.024	1107.165	845.459
7.659	11.726	1073.384	808.247
8.673	11.413	1068.065	802.633
9.688	11.243	1065.033	799.447
10.702	11.218	1063.826	798.349
11.717	11.287	1061.476	796.851
12.731	12.165	1061.131	800.809
13.746	14.787	1063.841	815.603
14.761	17.243	1066.447	829.531
15.775	17.806	1066.942	832.588
16.790	17.179	1064.675	827.692
17.804	16.141	1062.756	821.079
18.819	15.193	1060.985	815.027
19.834	14.582	1059.025	810.482
20.848	14.206	1058.408	808.113
21.863	14.052	1057.487	806.593
22.877	13.856	1056.894	805.116
23.892	13.592	1055.920	803.025
24.907	13.603	1054.903	802.231
25.921	13.469	1054.594	801.279
26.936	13.620	1053.750	801.296
27.950	13.762	1052.230	800.755
28.965	13.810	1050.786	799.816
29.980	13.682	1050.487	798.901
30.994	13.827	1049.025	798.417
32.009	13.799	1048.732	797.986
33.023	13.864	1047.517	797.305
34.038	13.924	1046.659	796.869
35.053	13.872	1045.360	795.561
36.067	13.822	1044.640	794.701
37.082	13.814	1044.128	794.206
38.096	13.820	1042.932	793.255
39.111	13.742	1042.405	792.409
40.126	13.725	1041.863	791.849
41.140	13.728	1040.324	790.621
42.155	13.509	1039.463	788.856
43.169	13.573	1038.494	788.352
44.184	13.500	1037.438	787.133
45.199	13.583	1036.364	786.647
46.213	13.477	1035.656	785.535
47.228	13.594	1034.664	785.265
48.242	13.648	1033.623	784.664
49.257	13.785	1032.489	784.380
50.271	13.718	1031.432	783.194
51.286	13.703	1030.422	782.284
52.301	13.746	1029.930	782.046
53.315	13.806	1028.964	781.526
54.330	13.667	1027.931	780.017
55.344	13.570	1027.280	779.000
56.359	13.608	1026.330	778.390
57.374	13.692	1025.288	777.922
58.388	13.702	1024.535	777.328
59.403	13.461	1024.099	775.801
60.417	13.520	1022.840	775.055
61.432	13.555	1022.579	774.949
62.447	13.562	1021.482	774.086
63.461	13.626	1020.642	773.678
64.476	13.450	1019.728	772.098
65.490	13.466	1018.901	771.475
66.505	13.406	1018.187	770.588
67.520	13.525	1016.770	770.001
68.534	13.487	1016.293	769.396
69.549	13.587	1015.478	769.175
70.563	13.506	1014.966	768.343
71.578	13.568	1014.246	768.017
72.593	13.471	1013.066	766.605
73.607	13.453	1012.116	765.737
74.622	13.450	1011.344	765.069
75.636	13.468	1010.465	764.422
76.651	13.321	1009.739	763.124
77.666	13.512	1008.566	763.054
78.680	13.419	1008.138	762.233
79.695	13.503	1007.644	762.176
80.709	13.487	1007.058	761.592
81.724	13.386	1006.313	760.499
82.739	13.679	1004.960	760.753
83.753	13.611	1004.569	760.080
84.768	13.660	1003.917	759.744
85.782	13.837	1002.858	759.683
86.797	13.815	1002.272	759.071
87.812	13.737	1001.929	758.389
88.826	13.776	1000.703	757.572
89.841	13.638	999.884	756.257
90.855	13.726	999.136	756.025
91.870	13.695	998.409	755.263
92.884	13.803	997.145	754.731
93.899	13.851	996.954	754.741
94.914	13.870	995.889	753.954
95.928	13.956	995.257	753.798
96.943	13.951	994.455	753.101
97.957	13.822	993.851	751.993
98.972	13.836	992.793	751.188
99.987	13.792	992.218	750.487
101.001	13.893	991.465	750.310
102.016	13.809	990.569	749.187
103.030	13.729	989.529	747.972
104.045	13.802	988.926	747.780
105.060	13.753	987.440	746.370
106.074	13.788	986.594	745.821
107.089	13.704	985.949	744.888
108.103	13.618	984.879	743.628
109.118	13.585	984.333	743.003
110.133	13.576	983.720	742.434
111.147	13.451	982.286	740.727
112.162	13.571	981.582	740.668
113.176	13.605	980.728	740.111
114.191	13.577	980.114	739.457
115.206	13.773	978.931	739.373
116.220	13.702	978.219	738.452
117.235	13.824	976.708	737.789
118.249	13.672	976.041	736.546
119.264	13.674	975.422	736.019
120.279	13.611	974.653	735.096
121.293	13.570	974.019	734.373
122.308	13.581	973.474	733.945
123.322	13.703	972.148	733.419
124.337	13.497	971.516	731.968
125.352	13.587	969.992	731.149
126.366	13.500	969.046	729.991
127.381	13.473	968.339	729.272
128.395	13.559	967.032	728.604
129.410	13.629	966.378	728.351
130.424	13.488	965.437	726.959
131.439	13.573	964.208	726.342
132.454	13.639	963.594	726.104
133.468	13.604	963.234	725.619
134.483	13.667	962.335	725.152
135.497	13.660	961.514	724.437
136.512	13.711	960.764	724.029
137.527	13.685	959.916	723.215
138.541	13.660	959.227	722.525
139.556	13.612	958.743	721.885
140.570	13.584	957.928	721.085
141.585	13.682	957.381	721.036
142.600	13.746	956.832	720.839
143.614	13.790	955.609	720.043
144.629	13.898	955.290	720.209
145.643	13.909	954.266	719.418
146.658	13.889	953.664	718.816
147.673	13.874	952.739	717.989
148.687	13.736	951.759	716.593
149.702	13.830	950.601	716.062
150.716	13.765	949.829	715.136
151.731	13.741	949.203	714.499
152.746	13.748	948.686	714.078
153.760	13.864	947.563	713.669
154.775	13.763	946.732	712.543
155.789	13.845	946.001	712.284
156.804	13.855	945.190	711.652
157.819	13.803	944.513	710.857
158.833	13.748	943.976	710.153
159.848	13.958	943.656	710.750
160.862	14.099	942.545	710.452
161.877	13.989	941.921	709.448
162.892	13.965	940.612	708.300
163.906	13.828	940.084	707.255
164.921	13.911	939.298	706.955
165.935	13.964	938.191	706.282
166.950	13.958	937.175	705.431
167.964	13.964	936.132	704.607
168.979	13.938	935.585	704.024
169.994	13.846	934.607	702.834
171.008	13.913	933.790	702.443
172.023	13.923	933.101	701.904
173.037	13.987	931.958	701.253
174.052	14.158	931.293	701.413
175.067	14.037	930.982	700.607
176.081	13.924	929.938	699.281
177.096	13.885	929.316	698.590
178.110	13.935	928.870	698.402
179.125	14.080	927.368	697.822
180.140	14.117	926.729	697.433
181.154	13.953	926.413	696.444
182.169	14.072	925.203	695.971
183.183	14.166	925.029	696.173
184.198	14.228	924.081	695.655
185.213	14.218	923.549	695.153
186.227	14.148	922.887	694.300
187.242	14.224	922.530	694.289
188.256	14.316	921.707	693.989
189.271	14.310	920.939	693.326
190.286	14.311	920.285	692.775
191.300	14.324	919.054	691.843
192.315	13.996	918.894	690.299
193.329	14.074	917.643	689.623
194.344	14.055	917.197	689.146
195.359	14.179	916.611	689.158
196.373	14.056	916.126	688.224
197.388	14.213	915.882	688.629
198.402	14.173	915.364	688.014
199.417	14.339	914.923	688.308
200.432	14.413	914.364	688.133
201.446	14.499	913.626	687.870
202.461	14.410	913.556	687.391
203.475	14.529	913.122	687.492
204.490	14.425	912.485	686.522
205.504	14.456	911.193	685.617
206.519	14.404	910.847	685.084
207.534	14.508	909.729	684.610
208.548	14.391	908.928	683.466
209.563	14.468	908.152	683.135
210.577	14.325	908.063	682.423
211.592	14.514	906.674	682.092
212.607	14.610	906.625	682.390
213.621	14.677	906.041	682.163
214.636	14.531	905.638	681.202
215.650	14.630	904.669	680.816
216.665	14.619	904.033	680.233
217.680	14.522	903.621	679.465
218.694	14.731	903.024	679.808
219.709	14.759	902.146	679.202
220.723	14.775	901.799	678.947
221.738	14.560	901.264	677.610
222.753	14.637	900.199	677.062
223.767	14.729	899.645	676.958
224.782	14.623	898.948	675.945
225.796	14.714	898.144	675.650
226.811	14.755	897.688	675.411
227.826	14.902	896.652	675.167
228.840	14.712	895.916	673.784
229.855	14.860	895.051	673.670
230.869	14.850	894.626	673.253
231.884	14.647	894.587	672.344
232.899	14.541	893.643	671.151
233.913	14.763	892.714	671.285
234.928	14.733	891.721	670.360
235.942	14.829	890.838	670.018
236.957	14.740	890.311	669.207
237.972	14.698	889.875	668.653
238.986	14.664	889.426	668.119
240.001	14.869	888.466	668.158
241.015	14.736	887.787	667.057
242.030	14.841	887.221	666.992
243.045	14.736	886.873	666.254
244.059	14.769	886.334	665.921
245.074	14.936	885.062	665.572
246.088	14.974	884.491	665.235
247.103	14.966	884.236	664.951
248.117	14.917	883.625	664.238
249.132	14.976	883.138	664.048
250.147	15.107	882.301	663.880
251.161	15.203	881.486	663.587
252.176	15.152	881.045	662.996
253.190	15.341	880.382	663.184
254.205	15.248	880.082	662.534
255.220	15.319	879.186	662.078
256.234	15.360	878.545	661.698
257.249	15.277	877.713	660.687
258.263	15.377	877.694	661.011
259.278	15.412	876.811	660.422
260.293	15.284	876.545	659.660
261.307	15.374	875.958	659.516
262.322	15.497	874.880	659.129
263.336	15.537	874.407	658.868
264.351	15.514	874.012	658.423
265.366	15.693	872.716	658.089
266.380	15.550	872.790	657.528
267.395	15.602	871.838	656.955
268.409	15.484	871.051	655.843
269.424	15.563	870.284	655.518
270.439	15.569	869.551	654.928
271.453	15.575	869.124	654.574
272.468	15.545	868.227	653.721
273.482	15.443	867.808	652.952
274.497	15.522	867.136	652.697
275.512	15.497	866.463	652.035
276.526	15.376	865.318	650.645
277.541	15.427	864.907	650.478
278.555	15.582	864.205	650.491
279.570	15.535	863.999	650.098
280.585	15.702	863.509	650.317
281.599	15.773	862.753	649.967
282.614	15.680	862.234	649.157
283.628	15.645	861.611	648.495
284.643	15.752	860.906	648.321
285.657	15.781	860.358	647.961
286.672	15.713	860.196	647.523
287.687	15.771	859.594	647.232
288.701	15.735	859.070	646.643
289.716	15.724	858.574	646.172
290.730	15.731	857.908	645.637
291.745	15.723	857.423	645.188
292.760	15.911	856.511	645.162
293.774	15.896	855.832	644.537
294.789	15.888	855.409	644.132
295.803	15.862	854.769	643.491
296.818	15.819	854.270	642.894
297.833	15.810	853.691	642.370
298.847	15.800	853.065	641.804
299.862	15.858	851.914	641.103
300.876	15.932	851.536	641.041
301.891	15.866	850.656	640.071
302.906	15.888	850.355	639.872
303.920	16.016	849.600	639.734
304.935	16.060	848.618	639.103
305.949	16.100	848.583	639.171
306.964	16.050	847.713	638.272
307.979	16.037	847.152	637.743
308.993	16.032	846.605	637.256
310.008	16.157	846.189	637.359
311.022	16.244	845.713	637.271
312.037	16.135	845.478	636.626
313.052	16.098	844.650	635.809
314.066	16.095	843.773	635.080
315.081	16.135	843.764	635.167
316.095	16.018	842.894	634.017
317.110	16.090	842.329	633.807
318.125	16.186	841.625	633.583
319.139	16.098	841.232	632.899
320.154	16.040	841.224	632.618
321.168	16.061	840.697	632.246
322.183	16.084	840.208	631.908
323.197	16.189	839.566	631.764
324.212	16.244	838.497	631.109
325.227	16.307	837.869	630.815
326.241	16.232	837.540	630.233
327.256	16.220	837.205	629.879
328.270	16.144	836.636	629.113
329.285	16.342	835.865	629.213
330.300	16.353	835.279	628.759
331.314	16.388	834.387	628.160
332.329	16.178	834.608	627.490
333.343	16.271	833.653	627.063
334.358	16.248	833.258	626.625
335.373	16.434	832.543	626.722
336.387	16.334	832.178	626.022
337.402	16.499	831.639	626.171
338.416	16.481	830.567	625.243
339.431	16.510	830.413	625.178
340.446	16.523	830.441	625.193
341.460	16.582	829.359	624.539
342.475	16.613	828.965	624.302
343.489	16.662	828.327	623.946
344.504	16.605	827.843	623.318
345.519	16.736	827.445	623.444
346.533	16.909	826.474	623.294
347.548	16.690	826.430	622.402
348.562	16.604	825.914	621.641
349.577	16.728	824.612	621.061
350.592	16.678	824.618	620.827
351.606	16.536	824.019	619.802
352.621	16.617	823.633	619.752
353.635	16.511	823.691	619.352
354.650	16.571	823.382	619.287
355.665	16.630	822.715	618.946
356.679	16.667	822.053	618.528
357.694	16.663	821.231	617.838
358.708	16.729	820.978	617.837
359.723	16.470	820.951	616.813
360.738	16.664	820.023	616.771
361.752	16.832	819.194	616.704
362.767	16.827	818.882	616.394
363.781	16.798	818.658	616.068
364.796	16.892	817.989	615.852
365.810	16.859	817.546	615.342
366.825	16.978	817.353	615.577
367.840	17.034	816.966	615.433
368.854	17.007	816.662	615.052
369.869	17.028	816.006	614.578
370.883	17.017	815.377	614.009
371.898	16.953	814.866	613.340
372.913	16.965	814.091	612.747
373.927	17.075	813.488	612.633
374.942	17.010	812.829	611.851
375.956	17.092	812.419	611.784
376.971	17.141	811.916	611.527
377.986	17.267	811.088	611.302
379.000	17.236	810.960	611.040
380.015	17.272	810.333	610.643
381.029	17.370	809.506	610.317
382.044	17.335	809.280	609.966
383.059	17.214	808.602	608.969
384.073	17.296	807.629	608.475
385.088	17.341	807.593	608.555
386.102	17.341	806.885	607.968
387.117	17.268	806.173	607.115
388.132	17.252	806.110	606.958
389.146	17.217	805.873	606.601
390.161	17.260	805.027	606.063
391.175	17.357	804.785	606.176
392.190	17.320	804.654	605.891
393.205	17.362	803.879	605.402
394.219	17.298	803.658	604.953
395.234	17.287	803.028	604.386
396.248	17.289	802.552	603.983
397.263	17.321	802.043	603.662
398.278	17.249	801.572	602.996
399.292	17.255	801.242	602.717
400.307	17.258	800.784	602.331
401.321	17.383	800.567	602.554
402.336	17.382	800.177	602.206
403.350	17.318	799.926	601.738
404.365	17.332	799.020	601.051
405.380	17.426	798.638	601.044
406.394	17.547	797.955	600.904
407.409	17.617	797.466	600.729
408.423	17.791	797.296	601.161
409.438	17.607	796.619	599.948
410.453	17.605	796.880	600.083
411.467	17.587	796.431	599.629
412.482	17.605	795.678	599.074
413.496	17.689	795.059	598.850
414.511	17.709	794.986	598.813
415.526	17.723	794.371	598.344
416.540	17.720	793.855	597.891
417.555	17.625	793.288	597.079
418.569	17.848	792.791	597.433
419.584	17.708	792.708	596.829
420.599	17.936	791.862	596.937
421.613	111.494	1293.047	1475.473
422.628	95.829	1366.051	1475.568
