DTS Sentinel unit serial number:	SN413079Multiplexer serial number:	ORYXHardware model number:	OX4-SRSoftware version number:	ORYX F/W v4.00 Oryx Data Collector v3.7.2.0data status	okinstallation	princeton_trtdifferential loss correction	single-endedforward channel	channel 3reverse channel	N/Adate	2019/09/14time	07:24:35forward acquisition time	60.00reverse acquisition time	0.00gamma	496.2192k internal	0.2340k external	0.2340temperature offset calibration	1.0055default loss term (dB/km)	0.3790temperature slope calibration	1.0000multiplexer offset coefficient	1.0000multiplexer slope coefficient	1.0000fibre end	0.00T internal ref (°C)	26.19T ext. ref 1 (°C)	3.47T ext. ref 2 (°C)	21.00length (m)	temperature (°C)	Stokes	anti-Stokes-747.200	-0.135	0.203	0.145
-746.185	-200.000	0.055	0.298
-745.171	-108.827	0.055	0.012
-744.156	800.000	0.072	0.210
-743.142	726.808	-0.111	0.298
-742.127	-118.567	-0.432	0.077
-741.112	-11.700	0.040	-0.027
-740.098	149.514	-0.210	0.286
-739.083	34.915	0.103	-0.090
-738.069	232.837	0.322	0.530
-737.054	245.978	0.123	0.208
-736.039	-163.885	-0.289	0.014
-735.025	-200.000	-0.024	0.424
-734.010	-12.936	0.207	0.135
-732.996	153.152	-0.090	-0.124
-731.981	105.215	0.064	-0.075
-730.966	-60.086	0.171	-0.073
-729.952	-155.414	-0.045	-0.003
-728.937	-31.003	0.210	-0.119
-727.923	94.828	-0.152	-0.173
-726.908	46.761	-0.342	-0.319
-725.894	-101.530	-0.150	-0.037
-724.879	-1.160	-0.126	0.089
-723.864	149.296	0.037	-0.050
-722.850	142.333	-0.167	-0.222
-721.835	-200.000	-0.020	-0.101
-720.821	279.085	0.132	-0.236
-719.806	-200.000	0.030	0.263
-718.791	-16.276	-0.257	0.163
-717.777	143.094	0.029	0.039
-716.762	-200.000	-0.007	-0.122
-715.748	9.138	0.215	0.163
-714.733	-65.496	-0.325	0.131
-713.718	-63.257	0.273	0.113
-712.704	102.141	-0.194	-0.226
-711.689	142.531	0.146	-0.195
-710.675	800.000	-0.042	-0.153
-709.660	168.793	0.268	-0.382
-708.645	5.697	0.249	0.185
-707.631	101.425	-0.191	-0.222
-706.616	-200.000	-0.018	0.219
-705.602	325.006	-0.091	-0.173
-704.587	-200.000	0.042	-0.251
-703.572	563.362	-0.122	-0.295
-702.558	74.187	-0.275	0.289
-701.543	73.677	-0.135	0.142
-700.529	319.500	0.067	-0.126
-699.514	765.741	-0.052	0.143
-698.499	174.062	-0.162	0.234
-697.485	-19.927	-0.084	0.052
-696.470	-124.501	-0.278	0.043
-695.456	-11.624	0.105	-0.069
-694.441	-110.220	-0.153	0.032
-693.426	-200.000	0.032	-0.154
-692.412	35.247	-0.139	0.122
-691.397	-142.880	0.138	0.013
-690.383	-14.394	0.136	-0.088
-689.368	115.703	0.262	0.321
-688.354	202.817	-0.150	0.231
-687.339	800.000	-0.041	0.173
-686.324	118.769	0.031	-0.038
-685.310	-114.216	-0.206	0.040
-684.295	800.000	0.060	-0.261
-683.281	800.000	0.069	-0.225
-682.266	-93.164	0.160	-0.044
-681.251	71.933	-0.201	-0.210
-680.237	800.000	0.127	-0.366
-679.222	97.005	0.126	0.145
-678.208	-56.817	0.155	-0.068
-677.193	800.000	0.064	0.187
-676.178	44.273	0.162	-0.149
-675.164	165.518	-0.153	0.216
-674.149	-200.000	-0.031	0.139
-673.135	-200.000	0.002	0.192
-672.120	-67.492	-0.045	-0.017
-671.105	-200.000	-0.024	-0.274
-670.091	77.335	0.134	0.143
-669.076	-12.144	-0.175	-0.114
-668.062	11.488	-0.094	0.072
-667.047	-200.000	0.026	-0.230
-666.032	-74.524	0.114	0.041
-665.018	-88.459	0.141	-0.042
-664.003	-181.064	-0.542	0.011
-662.989	-29.966	-0.253	-0.144
-661.974	-200.000	-0.001	-0.167
-660.959	-145.504	0.199	0.018
-659.945	-200.000	0.079	0.349
-658.930	72.370	-0.257	-0.268
-657.916	-11.290	-0.171	-0.113
-656.901	-140.280	-0.410	0.043
-655.886	-200.000	0.009	0.148
-654.872	-200.000	0.027	-0.232
-653.857	800.000	0.018	0.057
-652.843	66.656	-0.140	0.142
-651.828	-82.031	-0.226	0.074
-650.814	-200.000	0.115	0.599
-649.799	-71.075	0.402	-0.151
-648.784	-26.206	0.051	0.030
-647.770	-200.000	-0.048	-0.460
-646.755	-50.036	-0.269	-0.127
-645.741	173.907	0.225	-0.324
-644.726	12.478	-0.141	-0.108
-643.711	-171.922	0.119	0.004
-642.697	21.498	-0.171	-0.139
-641.682	-90.408	0.211	0.061
-640.668	208.977	-0.200	0.313
-639.653	287.343	-0.107	0.193
-638.638	-16.329	-0.136	0.086
-637.624	-119.453	0.049	0.008
-636.609	-141.636	0.108	0.011
-635.595	-62.624	0.137	-0.057
-634.580	34.581	-0.125	0.109
-633.565	-200.000	0.002	0.055
-632.551	48.788	-0.169	0.159
-631.536	-146.102	-0.164	0.014
-630.522	800.000	0.099	-0.283
-629.507	-200.000	-0.009	-0.251
-628.492	-84.485	0.385	-0.121
-627.478	15.583	-0.134	0.105
-626.463	800.000	0.033	-0.122
-625.449	191.003	-0.082	-0.123
-624.434	-120.507	-0.134	-0.023
-623.419	-125.076	-0.342	0.052
-622.405	-200.000	0.006	0.172
-621.390	364.643	0.103	0.206
-620.376	-28.252	0.150	0.086
-619.361	-86.244	-0.324	-0.099
-618.346	15.544	0.188	-0.147
-617.332	78.432	-0.355	0.378
-616.317	437.621	-0.110	0.239
-615.303	258.544	0.070	0.120
-614.288	-200.000	0.033	-0.329
-613.273	800.000	-0.074	0.241
-612.259	800.000	-0.071	0.199
-611.244	-200.000	0.005	-0.195
-610.230	372.535	-0.102	-0.206
-609.215	-41.059	0.285	0.147
-608.201	131.557	-0.154	-0.197
-607.186	-101.844	-0.254	-0.061
-606.171	244.688	-0.089	0.149
-605.157	91.282	-0.118	-0.132
-604.142	246.971	0.186	0.314
-603.128	-200.000	0.035	-0.236
-602.113	57.836	-0.189	-0.184
-601.098	389.482	0.067	0.138
-600.084	477.803	-0.121	-0.272
-599.069	110.041	0.246	-0.294
-598.055	163.789	0.055	0.077
-597.040	-200.000	0.009	-0.300
-596.025	-46.701	-0.210	0.103
-595.011	481.386	-0.049	0.112
-593.996	-118.491	0.251	-0.044
-592.982	-200.000	0.014	0.210
-591.967	-200.000	-0.028	0.173
-590.952	800.000	-0.025	0.105
-589.938	-200.000	0.019	0.140
-588.923	-200.000	0.042	0.280
-587.909	-172.180	-0.249	-0.008
-586.894	109.274	0.053	-0.063
-585.879	-54.059	0.243	-0.110
-584.865	176.492	-0.041	0.060
-583.850	800.000	0.064	-0.207
-582.836	612.282	0.026	-0.065
-581.821	87.699	-0.127	-0.141
-580.806	0.537	0.424	0.302
-579.792	-103.714	-0.270	0.063
-578.777	-200.000	0.008	-0.160
-577.763	136.738	-0.272	-0.354
-576.748	-22.746	0.148	-0.089
-575.733	-97.306	-0.162	0.042
-574.719	42.626	0.185	0.168
-573.704	279.526	0.097	0.172
-572.690	-31.783	0.143	0.080
-571.675	-119.341	-0.267	0.046
-570.661	202.614	-0.087	0.133
-569.646	-157.835	0.284	0.017
-568.631	-0.192	0.180	-0.128
-567.617	-162.469	-0.085	0.004
-566.602	-200.000	-0.065	-0.336
-565.588	800.000	-0.038	0.144
-564.573	800.000	0.049	0.201
-563.558	528.772	-0.053	0.125
-562.544	157.766	-0.205	-0.282
-561.529	-200.000	0.010	-0.181
-560.515	-62.076	0.119	-0.050
-559.500	132.474	-0.164	-0.211
-558.485	-15.707	-0.214	-0.136
-557.471	-149.591	0.207	-0.016
-556.456	-200.000	0.003	0.231
-555.442	-141.657	0.532	0.053
-554.427	195.892	0.075	0.114
-553.412	22.793	-0.152	0.124
-552.398	84.051	-0.095	-0.103
-551.383	-74.019	-0.229	-0.083
-550.369	-2.948	0.159	-0.111
-549.354	-200.000	-0.045	0.298
-548.339	-93.922	0.180	-0.049
-547.325	-12.995	-0.234	0.152
-546.310	-112.305	-0.263	0.053
-545.296	-34.832	-0.271	-0.147
-544.281	-84.488	-0.219	0.069
-543.266	57.800	0.089	0.087
-542.252	800.000	-0.094	-0.367
-541.237	-40.227	-0.136	0.071
-540.223	-200.000	-0.012	-0.057
-539.208	183.389	0.083	0.121
-538.193	-138.576	-0.359	0.039
-537.179	-89.959	0.233	0.068
-536.164	-112.446	0.093	0.019
-535.150	-200.000	0.008	0.127
-534.135	-54.887	-0.362	-0.162
-533.121	800.000	-0.070	-0.304
-532.106	-104.694	-0.265	-0.061
-531.091	800.000	0.080	-0.239
-530.077	-19.948	-0.186	-0.114
-529.062	-200.000	-0.020	-0.126
-528.048	20.322	0.259	0.208
-527.033	144.334	0.037	0.049
-526.018	408.138	-0.051	0.107
-525.004	800.000	0.061	0.217
-523.989	-45.266	-0.246	0.121
-522.975	199.145	0.221	0.337
-521.960	5.455	-0.214	-0.157
-520.945	30.685	0.103	-0.087
-519.931	19.975	-0.311	0.249
-518.916	193.609	-0.042	0.063
-517.902	-3.969	0.136	0.094
-516.887	126.194	-0.019	-0.024
-515.872	800.000	0.074	-0.229
-514.858	392.108	0.098	-0.202
-513.843	800.000	-0.103	0.368
-512.829	800.000	-0.036	0.132
-511.814	550.284	0.027	0.063
-510.799	217.350	0.203	-0.321
-509.785	-110.531	0.101	0.021
-508.770	-107.729	-0.272	-0.059
-507.756	-200.000	-0.010	0.413
-506.741	305.128	0.065	-0.120
-505.726	37.188	0.166	0.146
-504.712	-67.749	0.074	0.029
-503.697	251.616	0.081	-0.137
-502.683	128.340	0.315	-0.399
-501.668	-200.000	-0.022	-0.193
-500.653	-200.000	-0.056	-0.386
-499.639	285.417	-0.169	0.302
-498.624	48.880	-0.202	0.188
-497.610	-85.877	0.200	0.061
-496.595	206.386	0.119	-0.183
-495.581	289.341	0.063	0.114
-494.566	242.404	0.043	-0.071
-493.551	-141.617	0.375	-0.037
-492.537	556.451	-0.191	0.456
-491.522	-125.616	-0.223	-0.034
-490.508	97.067	-0.237	-0.270
-489.493	-200.000	0.024	-0.179
-488.478	-200.000	0.003	0.174
-487.464	-28.102	0.228	0.131
-486.449	-200.000	0.040	-0.208
-485.435	725.931	-0.141	-0.373
-484.420	-115.511	-0.036	-0.007
-483.405	554.471	-0.049	-0.117
-482.391	-144.209	-0.172	-0.016
-481.376	-168.598	0.330	0.012
-480.362	-168.050	-0.231	0.009
-479.347	-90.964	0.222	0.063
-478.332	-200.000	0.031	0.277
-477.318	211.234	0.112	-0.174
-476.303	-200.000	-0.007	-0.174
-475.289	10.502	-0.257	0.194
-474.274	87.467	0.301	0.330
-473.259	-200.000	-0.007	-0.118
-472.245	533.801	-0.103	0.243
-471.230	-51.662	0.196	-0.091
-470.216	-88.528	-0.516	-0.153
-469.201	-77.623	-0.079	-0.027
-468.186	68.824	0.316	-0.322
-467.172	28.352	0.313	-0.263
-466.157	38.324	0.100	-0.088
-465.143	-48.824	-0.190	0.090
-464.128	-151.419	0.242	0.018
-463.113	-170.798	-0.260	-0.009
-462.099	-79.315	-0.374	-0.126
-461.084	5.802	-0.067	-0.049
-460.070	-163.980	-0.173	-0.008
-459.055	-200.000	-0.026	-0.466
-458.040	306.410	0.105	0.194
-457.026	-81.274	-0.216	-0.071
-456.011	-200.000	0.024	-0.272
-454.997	-20.885	-0.044	-0.027
-453.982	711.643	0.064	-0.167
-452.968	650.785	0.081	-0.206
-451.953	-31.184	0.157	0.088
-450.938	548.908	0.060	-0.143
-449.924	49.849	-0.074	0.069
-448.909	-2.051	-0.171	-0.119
-447.895	287.316	0.064	0.114
-446.880	-65.536	0.269	-0.107
-445.865	-81.505	0.190	-0.062
-444.851	-54.169	-0.122	-0.055
-443.836	-158.990	0.119	0.007
-442.822	-60.705	-0.207	0.087
-441.807	358.443	-0.126	-0.249
-440.792	530.776	-0.027	0.064
-439.778	-148.677	0.527	0.042
-438.763	95.486	0.061	-0.069
-437.749	197.109	0.141	0.213
-436.734	-191.323	-0.252	0.003
-435.719	-6.344	0.057	-0.039
-434.705	800.000	-0.067	0.210
-433.690	71.178	0.128	-0.131
-432.676	2.043	0.108	0.077
-431.661	357.010	-0.045	-0.089
-430.646	575.031	0.194	-0.468
-429.632	-76.457	0.186	-0.065
-428.617	-35.832	0.087	0.047
-427.603	105.496	-0.119	-0.140
-426.588	82.548	0.115	0.124
-425.573	2.602	0.201	-0.145
-424.559	544.516	-0.058	-0.137
-423.544	146.306	-0.075	0.099
-422.530	-51.056	0.209	-0.097
-421.515	-200.000	-0.003	0.315
-420.500	-179.300	-0.488	0.011
-419.486	-69.933	0.260	-0.098
-418.471	-106.334	0.321	-0.071
-417.457	2.846	0.312	-0.224
-416.442	189.646	0.234	0.348
-415.428	405.368	0.082	0.172
-414.413	-200.000	0.002	-0.009
-413.398	95.684	0.153	0.173
-412.384	-200.000	-0.037	-0.211
-411.369	492.030	-0.105	0.239
-410.355	-79.694	0.158	0.053
-409.340	-200.000	0.030	-0.216
-408.325	-200.000	0.018	-0.102
-407.311	2.896	0.115	-0.083
-406.296	-23.946	-0.268	0.159
-405.282	-69.547	0.108	-0.041
-404.267	-162.249	-0.045	0.002
-403.252	26.488	-0.178	0.147
-402.238	-27.517	-0.245	-0.141
-401.223	-107.072	-0.441	0.096
-400.209	800.000	-0.074	0.229
-399.194	-43.124	-0.213	0.107
-398.179	30.110	-0.158	0.133
-397.165	-164.013	-0.112	-0.005
-396.150	625.707	0.116	0.290
-395.136	-114.641	-0.268	-0.051
-394.121	-162.093	0.123	0.006
-393.106	-101.139	-0.131	0.032
-392.092	183.669	-0.224	-0.328
-391.077	-200.000	-0.033	0.241
-390.063	-86.721	0.060	0.018
-389.048	-18.058	-0.021	-0.013
-388.033	-200.000	-0.023	-0.241
-387.019	800.000	-0.030	0.106
-386.004	-200.000	-0.055	0.248
-384.990	184.405	-0.108	-0.158
-383.975	-146.952	-0.297	0.025
-382.960	-115.987	-0.198	-0.036
-381.946	35.277	-0.298	0.258
-380.931	-200.000	-0.057	0.307
-379.917	346.292	0.110	-0.214
-378.902	22.070	0.269	-0.217
-377.888	-112.140	-0.195	0.039
-376.873	604.586	0.070	0.172
-375.858	-64.690	-0.088	0.035
-374.844	-200.000	-0.003	-0.017
-373.829	-200.000	-0.060	0.278
-372.815	-200.000	-0.069	0.363
-371.800	36.095	-0.201	-0.175
-370.785	43.776	-0.127	-0.115
-369.771	105.409	-0.122	0.143
-368.756	-25.674	0.063	-0.037
-367.742	-8.285	0.165	-0.110
-366.727	-120.208	-0.182	0.031
-365.712	61.668	-0.119	0.117
-364.698	0.910	-0.244	-0.173
-363.683	-96.050	0.218	-0.057
-362.669	800.000	-0.162	0.457
-361.654	-148.115	-0.321	0.026
-360.639	82.246	0.319	-0.342
-359.625	-68.895	-0.073	-0.028
-358.610	5.785	-0.121	0.088
-357.596	366.118	0.071	0.142
-356.581	800.000	-0.120	-0.386
-355.566	176.080	0.086	0.123
-354.552	800.000	0.012	0.050
-353.537	-200.000	0.001	-0.094
-352.523	-63.106	0.331	-0.135
-351.508	59.109	0.102	0.100
-350.493	-59.920	-0.055	0.023
-349.479	11.759	0.290	-0.220
-348.464	-200.000	-0.045	-0.333
-347.450	-200.000	0.045	0.281
-346.435	-63.789	0.045	0.018
-345.420	800.000	0.115	-0.316
-344.406	191.690	-0.133	0.198
-343.391	800.000	-0.094	-0.279
-342.377	36.241	-0.256	-0.223
-341.362	-200.000	0.001	0.055
-340.348	-152.961	0.209	0.015
-339.333	3.882	-0.065	-0.047
-338.318	40.801	0.164	-0.146
-337.304	-73.739	-0.342	0.123
-336.289	-200.000	-0.036	0.420
-335.275	376.429	0.071	0.143
-334.260	48.343	0.112	-0.103
-333.245	-127.050	-0.148	0.021
-332.231	383.771	0.083	0.169
-331.216	-200.000	0.019	0.171
-330.202	800.000	-0.064	0.195
-329.187	12.221	0.244	-0.186
-328.172	29.857	0.165	0.138
-327.158	-77.441	-0.130	0.045
-326.143	-3.237	0.362	0.249
-325.129	-123.057	-0.633	-0.100
-324.114	62.820	-0.180	-0.177
-323.099	-42.272	0.188	0.094
-322.085	-200.000	0.010	-0.110
-321.070	246.791	0.185	0.309
-320.056	-96.918	0.370	-0.096
-319.041	-104.325	0.409	0.094
-318.026	296.701	-0.108	-0.196
-317.012	-81.813	0.376	0.121
-315.997	149.892	0.042	-0.056
-314.983	123.602	0.133	-0.165
-313.968	-200.000	0.090	0.457
-312.953	56.102	-0.167	0.160
-311.939	74.239	0.263	0.272
-310.924	-146.775	-0.150	-0.013
-309.910	800.000	-0.039	-0.163
-308.895	-200.000	-0.017	0.424
-307.880	464.125	0.065	0.144
-306.866	800.000	-0.054	-0.167
-305.851	92.830	-0.148	0.164
-304.837	-200.000	0.006	0.186
-303.822	64.586	0.083	-0.083
-302.807	7.101	0.275	0.202
-301.793	235.613	-0.152	-0.248
-300.778	-200.000	0.006	0.111
-299.764	48.955	0.072	-0.067
-298.749	-200.000	0.007	0.100
-297.735	-200.000	-0.033	0.170
-296.720	172.350	0.090	-0.128
-295.705	-0.991	0.431	-0.301
-294.691	57.403	-0.283	0.272
-293.676	65.617	0.035	-0.035
-292.662	86.695	-0.220	-0.240
-291.647	100.156	-0.121	0.139
-290.632	211.327	0.014	0.022
-289.618	263.915	0.138	0.236
-288.603	783.045	0.070	0.188
-287.589	249.980	0.220	-0.367
-286.574	-200.000	0.022	-0.106
-285.559	311.191	0.140	0.259
-284.545	-31.281	-0.249	0.138
-283.530	125.877	-0.134	0.167
-282.516	-114.078	0.349	0.066
-281.501	-2.343	0.327	-0.226
-280.486	-130.449	-0.156	-0.021
-279.472	332.680	0.072	-0.138
-278.457	-82.565	0.021	-0.007
-277.443	-114.427	-0.160	-0.030
-276.428	141.516	-0.060	-0.078
-275.413	272.621	0.061	-0.106
-274.399	294.939	-0.065	-0.117
-273.384	-200.000	0.050	0.241
-272.370	800.000	0.055	-0.195
-271.355	-53.014	-0.134	-0.060
-270.340	-200.000	0.009	0.212
-269.326	-200.000	-0.014	0.198
-268.311	-36.707	0.285	0.151
-267.297	-84.789	0.108	-0.033
-266.282	-64.253	0.170	0.068
-265.267	800.000	-0.039	-0.157
-264.253	2.738	0.049	0.035
-263.238	-117.855	0.469	0.083
-262.224	-200.000	-0.217	-0.001
-261.209	238.096	-0.097	-0.158
-260.195	-168.259	-0.116	-0.004
-259.180	-78.022	0.123	-0.042
-258.165	22.999	0.214	-0.173
-257.151	207.223	-0.205	0.315
-256.136	-4.198	-0.047	-0.032
-255.122	18.772	-0.088	0.069
-254.107	86.500	-0.101	0.110
-253.092	4.394	-0.139	-0.100
-252.078	-111.365	-0.200	0.040
-251.063	-84.671	-0.393	0.122
-250.049	-158.198	-0.111	-0.006
-249.034	-200.000	0.020	0.141
-248.019	-53.078	0.121	0.055
-247.005	-9.607	-0.144	-0.094
-245.990	-7.936	0.258	0.171
-244.976	-55.534	-0.094	-0.041
-243.961	-200.000	0.034	0.375
-242.946	29.588	0.110	-0.092
-241.932	-121.398	-0.123	0.020
-240.917	-200.000	-0.011	0.164
-239.903	45.015	0.134	0.122
-238.888	272.016	0.208	0.361
-237.873	800.000	-0.115	0.352
-236.859	-200.000	-0.049	0.254
-235.844	125.002	0.126	0.156
-234.830	61.826	0.139	-0.136
-233.815	800.000	-0.047	0.159
-232.800	-107.565	0.221	0.048
-231.786	-200.000	0.024	0.132
-230.771	-200.000	0.017	-0.137
-229.757	-142.026	0.299	0.029
-228.742	35.336	0.091	0.079
-227.727	340.911	-0.096	0.185
-226.713	-180.055	0.126	-0.003
-225.698	-200.000	0.032	0.146
-224.684	47.787	0.140	0.128
-223.669	451.236	0.180	0.391
-222.655	13.407	0.236	-0.180
-221.640	-89.173	0.388	-0.113
-220.625	-200.000	0.009	0.082
-219.611	-200.000	-0.008	0.093
-218.596	253.900	-0.121	-0.203
-217.582	-200.000	0.013	-0.144
-216.567	247.259	-0.075	-0.125
-215.552	493.117	0.144	-0.324
-214.538	38.724	-0.159	-0.139
-213.523	-200.000	-0.010	-0.058
-212.509	-200.000	-0.398	-0.002
-211.494	-55.104	-0.157	0.070
-210.479	-200.000	0.040	0.329
-209.465	-84.646	-0.066	-0.020
-208.450	-92.414	0.241	-0.067
-207.436	-38.227	0.176	0.092
-206.421	15.172	-0.100	-0.077
-205.406	113.519	0.161	-0.192
-204.392	177.290	0.109	0.156
-203.377	-200.000	0.017	-0.099
-202.363	800.000	-0.177	0.514
-201.348	-200.000	-0.027	-0.262
-200.333	800.000	-0.072	0.200
-199.319	-135.951	-0.042	-0.005
-198.304	-200.000	0.045	0.264
-197.290	24.828	0.069	0.056
-196.275	-83.988	-0.113	-0.035
-195.260	-200.000	0.027	0.206
-194.246	90.652	0.056	-0.062
-193.231	-200.000	0.072	0.380
-192.217	-97.512	0.087	0.022
-191.202	-45.132	-0.202	0.099
-190.187	-136.894	0.155	-0.017
-189.173	800.000	-0.058	-0.209
-188.158	-1.810	0.118	-0.081
-187.144	-200.000	0.027	-0.235
-186.129	-200.000	0.007	-0.394
-185.114	-74.219	0.156	-0.055
-184.100	4.314	-0.201	0.145
-183.085	71.778	-0.281	-0.286
-182.071	356.622	-0.135	0.264
-181.056	-200.000	0.051	0.285
-180.042	800.000	-0.097	0.375
-179.027	94.626	-0.135	0.151
-178.012	363.422	-0.161	-0.318
-176.998	175.866	0.142	-0.202
-175.983	-16.913	-0.103	0.064
-174.969	214.123	-0.225	-0.349
-173.954	118.972	0.176	-0.213
-172.939	-200.000	0.038	-0.240
-171.925	-143.799	-0.112	-0.010
-170.910	-83.345	0.224	-0.070
-169.896	-200.000	0.039	0.188
-168.881	-200.000	0.004	0.035
-167.866	-92.763	-0.304	0.084
-166.852	260.599	0.021	0.036
-165.837	-138.209	-0.158	-0.017
-164.823	76.347	0.159	-0.165
-163.808	69.234	-0.037	-0.038
-162.793	60.892	0.331	-0.322
-161.779	226.369	-0.232	-0.368
-160.764	-65.738	-0.072	0.028
-159.750	59.015	0.304	-0.293
-158.735	800.000	0.076	-0.277
-157.720	-200.000	0.039	-0.182
-156.706	-88.866	-0.252	-0.073
-155.691	-200.000	0.019	-0.284
-154.677	-200.000	0.067	-0.592
-153.662	-36.005	0.310	0.164
-152.647	-18.510	0.040	0.025
-151.633	165.094	-0.203	-0.281
-150.618	97.417	0.388	0.437
-149.604	-33.922	-0.299	-0.161
-148.589	-48.449	-0.376	-0.177
-147.574	699.510	0.026	-0.067
-146.560	-54.315	0.243	-0.108
-145.545	-200.000	-0.025	-0.359
-144.531	-60.721	0.365	-0.152
-143.516	25.465	0.038	0.031
-142.502	-38.218	-0.036	-0.019
-141.487	-200.000	-0.067	-0.458
-140.472	638.070	0.166	0.413
-139.458	174.729	-0.117	0.166
-138.443	-200.000	-0.027	-0.150
-137.429	117.710	0.331	0.399
-136.414	-200.000	-0.016	-0.268
-135.399	800.000	-0.079	0.252
-134.385	800.000	0.070	0.203
-133.370	40.429	0.357	0.314
-132.356	-54.179	-0.353	0.157
-131.341	133.134	0.138	-0.174
-130.326	655.820	-0.034	0.084
-129.312	-200.000	-0.037	0.339
-128.297	212.616	0.109	0.169
-127.283	88.567	0.106	0.116
-126.268	-200.000	0.020	0.270
-125.253	-11.662	-0.194	-0.125
-124.239	33.877	-0.106	-0.090
-123.224	-200.000	0.083	0.382
-122.210	175.747	0.089	0.127
-121.195	54.508	-0.105	0.099
-120.180	526.571	-0.030	0.070
-119.166	-43.737	-0.045	0.022
-118.151	-84.398	-0.188	0.058
-117.137	-55.947	-0.068	0.030
-116.122	169.332	0.011	-0.015
-115.107	540.609	0.132	0.308
-114.093	-200.000	-0.038	0.419
-113.078	-200.000	0.006	-0.136
-112.064	-100.845	-0.087	-0.021
-111.049	-80.555	-0.407	0.133
-110.034	-44.409	0.035	-0.017
-109.020	284.726	0.202	0.357
-108.005	416.600	-0.074	0.154
-106.991	-200.000	0.011	-0.155
-105.976	-10.782	-0.165	0.107
-104.962	23.199	0.302	-0.243
-103.947	-200.000	0.025	0.131
-102.932	732.672	-0.093	0.244
-101.918	-84.027	-0.269	0.084
-100.903	-66.290	-0.324	-0.126
-99.889	-102.922	0.109	0.025
-98.874	16.993	-0.143	-0.111
-97.859	43.684	0.079	-0.070
-96.845	800.000	-0.081	-0.234
-95.830	-200.000	0.021	-0.109
-94.816	343.606	0.132	-0.253
-93.801	95.205	-0.293	0.327
-92.786	-38.055	-0.168	-0.087
-91.772	230.647	0.051	-0.081
-90.757	185.300	0.197	0.286
-89.743	800.000	0.029	0.118
-88.728	-133.151	0.073	-0.009
-87.713	80.057	0.203	0.213
-86.699	33.400	-0.117	0.099
-85.684	-125.264	-0.177	-0.026
-84.670	140.313	0.145	-0.187
-83.655	-200.000	-0.023	0.151
-82.640	-200.000	-0.043	-0.350
-81.626	-200.000	0.058	-0.347
-80.611	-200.000	0.021	0.093
-79.597	91.500	0.033	0.036
-78.582	181.718	0.132	0.190
-77.567	-101.402	0.088	-0.021
-76.553	-66.067	0.118	-0.046
-75.538	-75.323	0.140	0.049
-74.524	-186.884	-0.155	0.002
-73.509	101.906	0.184	0.210
-72.494	800.000	-0.014	0.053
-71.480	-70.828	0.169	0.062
-70.465	-37.752	0.195	0.101
-69.451	-200.000	0.017	0.188
-68.436	-200.000	-0.009	0.118
-67.422	-92.132	-0.400	-0.110
-66.407	-200.000	0.007	-0.232
-65.392	170.733	-0.136	0.190
-64.378	-200.000	-0.013	0.258
-63.363	35.216	-0.069	0.059
-62.349	51.572	0.156	-0.145
-61.334	0.021	-1.374	-0.956
-60.319	218.694	0.544	0.849
-59.305	800.000	-0.386	-1.065
-58.290	328.153	0.802	1.504
-57.276	500.259	0.631	1.420
-56.261	-200.000	117.312	639.074
-55.246	483.563	1552.036	3445.400
-54.232	174.364	2722.957	3842.302
-53.217	104.686	2181.840	2509.284
-52.203	36.964	1695.190	1463.431
-51.188	29.463	1509.262	1252.208
-50.173	27.170	1484.828	1216.557
-49.159	49.541	1545.861	1420.230
-48.144	48.033	1560.346	1423.169
-47.130	29.504	1515.160	1257.182
-46.115	26.315	1500.545	1223.454
-45.100	26.196	1496.787	1219.542
-44.086	26.166	1494.697	1217.590
-43.071	26.134	1493.023	1215.962
-42.057	26.128	1491.424	1214.570
-41.042	26.191	1489.826	1213.644
-40.027	26.171	1488.457	1212.347
-39.013	26.195	1486.978	1211.250
-37.998	26.084	1486.262	1209.878
-36.984	26.303	1484.690	1210.018
-35.969	26.110	1483.751	1207.911
-34.954	26.121	1482.394	1206.829
-33.940	26.103	1481.241	1205.726
-32.925	26.176	1479.282	1204.572
-31.911	26.122	1478.043	1203.153
-30.896	26.225	1476.957	1202.907
-29.881	26.277	1475.580	1202.084
-28.867	26.259	1474.236	1200.824
-27.852	26.157	1473.393	1199.411
-26.838	26.207	1471.768	1198.374
-25.823	26.258	1469.940	1197.172
-24.809	26.217	1468.435	1195.629
-23.794	26.147	1467.711	1194.528
-22.779	26.300	1465.929	1194.045
-21.765	26.200	1465.219	1192.755
-20.750	26.338	1463.490	1192.211
-19.736	26.256	1462.623	1190.920
-18.721	26.297	1461.466	1190.200
-17.706	26.204	1460.708	1188.923
-16.692	26.157	1459.360	1187.471
-15.677	26.208	1457.992	1186.644
-14.663	26.194	1457.486	1186.090
-13.648	26.118	1456.708	1184.912
-12.633	26.153	1455.207	1183.877
-11.619	26.218	1454.542	1183.715
-10.604	26.215	1453.946	1183.158
-9.590	26.081	1453.135	1181.577
-8.575	26.148	1451.675	1180.781
-7.560	26.183	1451.077	1180.478
-6.546	26.234	1450.200	1180.052
-5.531	26.129	1449.298	1178.581
-4.517	26.128	1448.906	1178.212
-3.502	26.223	1447.533	1177.666
-2.487	26.157	1446.332	1176.214
-1.473	26.084	1445.687	1175.164
-0.458	26.126	1443.632	1173.722
0.556	26.418	1434.080	1163.156
1.571	23.455	1409.387	1124.268
2.586	20.094	1350.169	1056.482
3.600	18.483	1268.874	983.546
4.615	17.333	1223.962	942.282
5.629	14.894	1168.001	886.208
6.644	8.667	1087.040	793.901
7.659	4.008	1051.165	745.248
8.673	3.466	1045.531	738.593
9.688	3.488	1042.827	736.723
10.702	3.456	1041.402	735.495
11.717	3.479	1039.532	734.221
12.731	5.126	1040.678	742.810
13.746	11.459	1049.070	779.037
14.761	17.591	1057.033	814.279
15.775	19.386	1058.332	823.791
16.790	19.131	1057.202	821.621
17.804	18.032	1055.397	814.909
18.819	17.243	1053.228	809.406
19.834	16.719	1051.920	805.836
20.848	16.614	1050.770	804.387
21.863	16.431	1050.443	803.195
22.877	16.168	1049.676	801.286
23.892	16.031	1048.931	799.995
24.907	16.014	1048.216	799.299
25.921	15.993	1047.209	798.363
26.936	16.041	1046.712	798.141
27.950	16.080	1045.289	797.170
28.965	16.027	1044.251	796.058
29.980	16.183	1042.993	795.763
30.994	16.157	1042.167	794.940
32.009	16.347	1041.055	794.917
33.023	16.262	1040.860	794.296
34.038	16.224	1040.110	793.476
35.053	16.178	1039.072	792.396
36.067	16.113	1037.978	791.186
37.082	16.130	1036.701	790.223
38.096	16.176	1035.950	789.798
39.111	16.236	1035.091	789.352
40.126	16.391	1034.181	789.312
41.140	16.250	1032.811	787.538
42.155	16.022	1032.014	785.799
43.169	15.842	1030.818	783.981
44.184	15.859	1029.956	783.337
45.199	15.817	1028.895	782.262
46.213	15.903	1027.896	781.832
47.228	16.069	1026.495	781.468
48.242	16.059	1026.104	781.053
49.257	16.176	1025.185	780.827
50.271	16.112	1024.433	779.891
51.286	16.201	1023.396	779.446
52.301	16.114	1023.072	778.728
53.315	16.239	1021.816	778.278
54.330	16.048	1020.864	776.606
55.344	16.070	1020.282	776.195
56.359	15.936	1019.143	774.642
57.374	15.981	1018.318	774.155
58.388	16.028	1017.318	773.542
59.403	15.876	1016.484	772.141
60.417	15.956	1015.785	771.910
61.432	15.893	1015.070	771.009
62.447	15.771	1014.316	769.809
63.461	15.759	1013.772	769.273
64.476	15.809	1012.598	768.540
65.490	15.679	1012.079	767.487
66.505	15.804	1010.715	766.954
67.520	15.578	1010.142	765.420
68.534	15.823	1009.397	765.904
69.549	15.826	1008.527	765.191
70.563	15.802	1007.883	764.525
71.578	15.763	1007.048	763.650
72.593	15.600	1006.374	762.327
73.607	15.528	1005.415	761.210
74.622	15.577	1004.173	760.424
75.636	15.656	1003.267	760.025
76.651	15.637	1002.506	759.296
77.666	15.647	1001.953	758.857
78.680	15.632	1001.434	758.328
79.695	15.587	1000.979	757.714
80.709	15.839	999.925	757.985
81.724	15.769	999.736	757.459
82.739	15.781	998.861	756.783
83.753	15.949	997.818	756.681
84.768	16.041	997.197	756.558
85.782	16.185	996.512	756.615
86.797	16.260	996.207	756.652
87.812	16.262	995.258	755.872
88.826	16.146	994.239	754.515
89.841	16.187	992.963	753.663
90.855	16.124	992.861	753.238
91.870	16.284	992.231	753.407
92.884	16.374	991.181	752.943
93.899	16.417	990.415	752.487
94.914	16.325	989.984	751.685
95.928	16.493	988.972	751.595
96.943	16.294	988.722	750.455
97.957	16.266	987.836	749.593
98.972	16.039	986.952	747.845
99.987	16.326	985.829	748.203
101.001	16.403	985.176	747.981
102.016	16.277	984.438	746.795
103.030	16.288	983.368	745.968
104.045	16.292	982.355	745.150
105.060	16.230	981.558	744.209
106.074	16.123	980.564	742.917
107.089	16.064	979.553	741.827
108.103	15.904	978.569	740.310
109.118	15.883	977.576	739.403
110.133	15.821	976.938	738.582
111.147	15.903	975.979	738.151
112.162	15.702	975.272	736.669
113.176	15.795	974.202	736.205
114.191	16.036	973.472	736.641
115.206	15.975	972.704	735.728
116.220	15.992	971.806	735.058
117.235	15.965	970.975	734.248
118.249	15.924	970.405	733.571
119.264	15.950	969.082	732.619
120.279	15.925	968.419	731.943
121.293	15.893	967.243	730.854
122.308	15.809	966.786	730.079
123.322	15.749	966.176	729.291
124.337	15.734	964.909	728.208
125.352	15.756	963.382	727.084
126.366	15.701	962.405	726.045
127.381	15.666	961.351	725.034
128.395	15.760	960.509	724.740
129.410	15.725	959.700	723.917
130.424	15.748	958.994	723.420
131.439	15.718	958.264	722.676
132.454	15.904	957.171	722.587
133.468	15.815	956.618	721.721
134.483	15.829	956.280	721.462
135.497	15.866	955.415	720.905
136.512	15.802	955.048	720.292
137.527	15.999	953.774	720.106
138.541	15.892	953.224	719.170
139.556	16.026	952.615	719.220
140.570	16.021	951.825	718.539
141.585	16.063	951.093	718.101
142.600	16.198	950.752	718.356
143.614	16.124	950.124	717.502
144.629	16.241	949.377	717.371
145.643	16.318	948.627	717.071
146.658	16.381	947.407	716.352
147.673	16.281	946.693	715.325
148.687	16.129	945.405	713.643
149.702	16.060	944.927	712.929
150.716	16.022	943.789	711.846
151.731	15.826	943.244	710.543
152.746	16.104	942.056	710.759
153.760	16.046	941.779	710.244
154.775	16.124	940.791	709.762
155.789	16.190	940.005	709.387
156.804	16.233	939.297	708.970
157.819	16.291	938.519	708.563
158.833	16.210	938.068	707.821
159.848	16.271	937.601	707.659
160.862	16.380	937.005	707.606
161.877	16.491	936.345	707.509
162.892	16.263	935.400	705.780
163.906	16.177	934.005	704.303
164.921	16.113	933.313	703.452
165.935	16.069	932.242	702.400
166.950	16.095	931.642	701.994
167.964	16.385	930.277	702.110
168.979	16.317	929.498	701.175
169.994	16.289	928.439	700.200
171.008	16.207	927.701	699.240
172.023	16.186	927.348	698.827
173.037	16.295	926.465	698.549
174.052	16.504	925.484	698.612
175.067	16.443	924.889	697.849
176.081	16.310	923.919	696.508
177.096	16.138	923.220	695.210
178.110	16.296	922.368	695.156
179.125	16.297	921.446	694.404
180.140	16.238	920.741	693.569
181.154	16.208	920.217	692.991
182.169	16.180	920.465	693.000
183.183	16.523	919.373	693.524
184.198	16.336	918.875	692.319
185.213	16.317	918.407	691.829
186.227	16.563	917.118	691.802
187.242	16.647	916.578	691.678
188.256	16.522	916.421	690.988
189.271	16.632	915.415	690.615
190.286	16.738	914.464	690.272
191.300	16.627	913.593	689.101
192.315	16.217	912.967	686.898
193.329	16.118	911.951	685.672
194.344	16.121	911.402	685.209
195.359	16.234	910.919	685.244
196.373	16.480	910.302	685.718
197.388	16.435	910.071	685.300
198.402	16.513	909.664	685.248
199.417	16.703	909.314	685.694
200.432	16.710	908.963	685.399
201.446	16.801	908.297	685.205
202.461	16.918	907.746	685.198
203.475	16.883	907.921	685.128
204.490	16.980	906.636	684.491
205.504	16.735	906.081	683.024
206.519	16.864	904.638	682.394
207.534	16.607	904.518	681.209
208.548	16.617	903.401	680.346
209.563	16.806	902.534	680.394
210.577	16.811	901.875	679.856
211.592	16.684	901.660	679.126
212.607	16.785	901.128	679.068
213.621	16.873	900.698	679.035
214.636	16.993	899.674	678.683
215.650	16.823	899.247	677.622
216.665	16.855	898.759	677.321
217.680	17.011	898.126	677.407
218.694	17.012	897.734	677.058
219.709	17.024	897.223	676.660
220.723	17.007	896.676	676.118
221.738	17.004	895.959	675.509
222.753	17.073	895.279	675.209
223.767	16.946	894.895	674.357
224.782	17.103	893.534	673.894
225.796	17.071	892.929	673.252
226.811	17.200	892.470	673.355
227.826	17.068	891.904	672.348
228.840	17.085	891.103	671.751
229.855	16.829	890.901	670.527
230.869	17.090	889.671	670.573
231.884	16.817	889.224	669.098
232.899	17.048	888.132	669.128
233.913	16.967	887.412	668.207
234.928	16.841	886.801	667.190
235.942	16.885	886.313	666.940
236.957	16.892	885.317	666.157
237.972	16.904	884.658	665.648
238.986	16.951	884.226	665.450
240.001	16.927	883.445	664.711
241.015	16.936	883.206	664.507
242.030	17.041	882.306	664.183
243.045	17.022	881.682	663.577
244.059	17.144	881.055	663.526
245.074	16.950	880.766	662.493
246.088	17.031	880.053	662.211
247.103	17.172	879.267	662.110
248.117	17.241	879.113	662.205
249.132	17.334	878.418	661.985
250.147	17.485	877.799	662.048
251.161	17.587	877.288	662.002
252.176	17.680	876.843	661.968
253.190	17.531	876.280	660.906
254.205	17.725	875.483	660.998
255.220	17.833	874.730	660.790
256.234	17.844	874.140	660.328
257.249	17.736	873.604	659.448
258.263	17.774	873.286	659.295
259.278	17.760	872.527	658.611
260.293	17.828	871.687	658.179
261.307	17.944	871.099	658.125
262.322	17.835	871.035	657.598
263.336	17.998	869.989	657.376
264.351	18.017	869.217	656.807
265.366	18.033	868.988	656.637
266.380	17.902	868.215	655.494
267.395	17.881	867.834	655.067
268.409	17.905	866.883	654.385
269.424	17.781	866.056	653.229
270.439	17.878	865.526	653.139
271.453	17.880	864.921	652.636
272.468	17.774	863.624	651.195
273.482	17.720	863.074	650.513
274.497	17.786	862.686	650.417
275.512	17.824	861.796	649.831
276.526	17.762	861.166	649.065
277.541	17.857	860.676	648.998
278.555	17.688	860.531	648.190
279.570	17.835	859.981	648.277
280.585	17.988	859.315	648.299
281.599	18.046	858.976	648.206
282.614	18.043	858.035	647.426
283.628	17.907	857.364	646.349
284.643	17.833	857.087	645.799
285.657	18.017	856.413	645.933
286.672	17.973	855.759	645.214
287.687	18.016	855.341	645.004
288.701	18.069	855.108	644.972
289.716	17.978	854.442	644.069
290.730	17.977	853.724	643.466
291.745	18.003	853.493	643.333
292.760	18.010	852.653	642.671
293.774	18.123	852.041	642.577
294.789	18.191	851.168	642.118
295.803	18.296	850.728	642.125
296.818	18.080	849.843	640.589
297.833	18.190	848.990	640.300
298.847	18.171	848.777	640.011
299.862	18.139	847.746	639.060
300.876	18.136	847.270	638.632
301.891	18.240	846.925	638.704
302.906	18.386	846.015	638.504
303.920	18.336	845.641	637.983
304.935	18.512	845.011	638.106
305.949	18.559	844.336	637.712
306.964	18.432	843.504	636.555
307.979	18.446	843.048	636.209
308.993	18.480	842.262	635.684
310.008	18.372	842.220	635.196
311.022	18.471	841.945	635.300
312.037	18.489	841.362	634.869
313.052	18.376	840.771	633.948
314.066	18.296	839.973	632.996
315.081	18.155	839.103	631.762
316.095	18.259	838.550	631.675
317.110	18.464	837.931	631.909
318.125	18.372	837.631	631.289
319.139	18.270	837.144	630.490
320.154	18.171	836.654	629.699
321.168	18.305	836.306	629.875
322.183	18.320	835.734	629.443
323.197	18.380	835.156	629.172
324.212	18.403	834.432	628.657
325.227	18.585	833.772	628.770
326.241	18.557	833.163	628.155
327.256	18.465	832.621	627.351
328.270	18.433	832.197	626.861
329.285	18.341	831.963	626.290
330.300	18.454	830.961	625.894
331.314	18.315	830.798	625.209
332.329	18.362	830.304	624.953
333.343	18.402	829.484	624.426
334.358	18.587	828.835	624.556
335.373	18.806	828.011	624.677
336.387	18.671	827.905	624.050
337.402	18.664	827.838	623.921
338.416	18.760	826.851	623.471
339.431	18.786	826.186	623.007
340.446	18.891	825.674	622.948
341.460	18.879	825.545	622.750
342.475	18.872	824.790	622.100
343.489	19.193	823.867	622.510
344.504	18.992	823.775	621.660
345.519	19.164	823.236	621.819
346.533	19.163	822.868	621.480
347.548	19.167	822.066	620.836
348.562	19.106	821.506	620.139
349.577	18.909	821.154	619.106
350.592	18.748	820.595	618.054
351.606	18.800	819.832	617.611
352.621	18.799	819.544	617.335
353.635	18.817	819.352	617.201
354.650	18.681	819.223	616.560
355.665	18.893	818.301	616.573
356.679	18.887	817.723	616.059
357.694	19.028	817.116	616.054
358.708	19.036	816.813	615.797
359.723	19.091	816.230	615.503
360.738	18.961	815.642	614.538
361.752	18.942	815.214	614.093
362.767	19.067	815.028	614.346
363.781	19.068	814.501	613.899
364.796	19.145	814.188	613.883
365.810	19.296	813.817	614.088
366.825	19.366	813.731	614.215
367.840	19.445	813.282	614.104
368.854	19.481	812.576	613.646
369.869	19.274	812.210	612.579
370.883	19.452	811.101	612.319
371.898	19.270	810.829	611.416
372.913	19.293	810.476	611.177
373.927	19.330	810.185	611.035
374.942	19.311	809.254	610.211
375.956	19.374	808.531	609.832
376.971	19.528	807.857	609.815
377.986	19.472	807.716	609.458
379.000	19.551	807.213	609.305
380.015	19.666	806.421	609.057
381.029	19.679	805.865	608.627
382.044	19.634	805.052	607.803
383.059	19.615	804.804	607.492
384.073	19.643	804.273	607.139
385.088	19.539	803.734	606.313
386.102	19.399	803.277	605.422
387.117	19.307	802.425	604.405
388.132	19.410	801.904	604.319
389.146	19.460	801.759	604.330
390.161	19.272	801.704	603.579
391.175	19.553	801.079	604.039
392.190	19.534	800.792	603.699
393.205	19.763	799.963	603.822
394.219	19.522	799.927	602.900
395.234	19.483	799.134	602.114
396.248	19.374	798.701	601.353
397.263	19.417	797.713	600.707
398.278	19.181	798.001	600.048
399.292	19.326	797.132	599.844
400.307	19.250	796.794	599.274
401.321	19.427	796.103	599.318
402.336	19.419	795.901	599.084
403.350	19.423	795.926	599.064
404.365	19.530	795.204	598.840
405.380	19.643	794.787	598.861
406.394	19.787	794.173	598.846
407.409	19.863	793.668	598.673
408.423	19.806	793.688	598.438
409.438	19.824	793.019	597.945
410.453	19.942	792.870	598.188
411.467	20.032	792.452	598.130
412.482	19.916	792.144	597.442
413.496	19.971	791.499	597.095
414.511	19.960	791.120	596.716
415.526	19.887	791.069	596.375
416.540	20.112	790.092	596.360
417.555	20.038	789.648	595.717
418.569	20.085	789.701	595.867
419.584	19.985	788.795	594.788
420.599	19.936	788.476	594.326
421.613	162.368	1370.622	1797.159
422.628	140.617	1455.418	1797.241
