DTS Sentinel unit serial number:	SN413079Multiplexer serial number:	ORYXHardware model number:	OX4-SRSoftware version number:	ORYX F/W v4.00 Oryx Data Collector v3.7.2.0data status	okinstallation	princeton_trtdifferential loss correction	single-endedforward channel	channel 3reverse channel	N/Adate	2019/09/12time	19:33:04forward acquisition time	15.00reverse acquisition time	0.00gamma	496.2192k internal	0.2323k external	0.2323temperature offset calibration	1.0106default loss term (dB/km)	0.3790temperature slope calibration	1.0000multiplexer offset coefficient	1.0000multiplexer slope coefficient	1.0000fibre end	0.00T internal ref (°C)	32.25T ext. ref 1 (°C)	3.34T ext. ref 2 (°C)	26.76length (m)	temperature (°C)	Stokes	anti-Stokes-747.200	49.614	0.437	0.416
-746.185	131.535	-0.371	-0.482
-745.171	-132.367	0.418	-0.055
-744.156	454.361	-0.282	-0.630
-743.142	59.842	0.187	-0.186
-742.127	64.335	-0.067	-0.068
-741.112	-48.441	-0.817	0.397
-740.098	-72.592	-0.190	0.071
-739.083	9.539	-0.176	0.135
-738.069	136.080	-0.102	-0.135
-737.054	259.662	0.344	0.600
-736.039	773.092	0.074	-0.204
-735.025	-142.755	-0.435	0.043
-734.010	462.805	-0.161	-0.362
-732.996	210.274	-0.284	-0.451
-731.981	264.599	0.087	0.153
-730.966	-83.114	-0.334	-0.109
-729.952	71.713	0.457	-0.480
-728.937	-78.984	0.297	-0.102
-727.923	-62.093	0.758	-0.319
-726.908	800.000	-0.242	0.890
-725.894	-46.668	0.332	-0.164
-724.879	-105.422	-0.224	0.051
-723.864	-200.000	0.054	-0.460
-722.850	800.000	0.124	0.518
-721.835	-164.714	-0.119	-0.005
-720.821	386.273	0.196	-0.408
-719.806	-31.742	-1.141	-0.646
-718.791	-0.349	-0.453	0.325
-717.777	-90.750	0.837	0.244
-716.762	106.780	0.212	0.254
-715.748	-77.020	-0.563	-0.198
-714.733	-200.000	-0.097	-0.469
-713.718	-61.427	0.724	-0.307
-712.704	-154.551	-0.210	0.014
-711.689	-6.483	-0.518	-0.356
-710.675	-200.000	0.010	0.311
-709.660	-16.319	-0.060	-0.038
-708.645	32.910	-0.433	0.378
-707.631	-18.592	0.971	0.611
-706.616	-200.000	-0.040	0.236
-705.602	800.000	0.201	0.621
-704.587	332.191	0.313	0.608
-703.572	-26.433	-0.398	-0.235
-702.558	227.405	0.170	-0.278
-701.543	-79.621	-0.222	-0.075
-700.529	491.095	-0.511	1.180
-699.514	216.260	0.348	-0.558
-698.499	-118.894	0.069	-0.012
-697.485	161.938	-0.188	0.266
-696.470	37.973	-0.447	0.400
-695.456	210.463	0.569	-0.901
-694.441	800.000	-0.087	-0.367
-693.426	-200.000	-0.011	0.297
-692.412	97.516	0.413	-0.479
-691.397	-6.347	0.224	0.154
-690.383	261.866	-0.240	0.420
-689.368	-200.000	-0.044	-0.401
-688.354	800.000	-0.268	-0.800
-687.339	350.770	-0.123	-0.245
-686.324	27.492	-1.421	-1.205
-685.310	800.000	0.076	-0.311
-684.295	7.858	1.115	0.842
-683.281	800.000	-0.253	-0.780
-682.266	800.000	0.041	0.153
-681.251	800.000	-0.169	-0.553
-680.237	-117.357	0.367	-0.067
-679.222	43.289	-0.856	-0.788
-678.208	-119.610	0.570	-0.099
-677.193	143.336	-0.287	-0.385
-676.178	65.085	-0.431	0.439
-675.164	-23.563	-1.277	-0.772
-674.149	-103.761	0.708	0.167
-673.135	574.889	0.244	0.601
-672.120	-163.513	0.528	0.025
-671.105	171.107	0.289	-0.417
-670.091	-200.000	-0.195	0.960
-669.076	-200.000	0.091	-1.174
-668.062	-25.414	-0.741	0.441
-667.047	800.000	-0.035	0.147
-666.032	-200.000	-0.152	0.683
-665.018	-200.000	0.074	0.671
-664.003	-49.283	0.606	-0.291
-662.989	-176.995	-0.217	0.005
-661.974	-98.533	-0.374	0.096
-660.959	346.966	0.271	0.538
-659.945	73.429	-0.407	-0.428
-658.930	133.806	-0.527	-0.687
-657.916	-116.003	0.495	0.093
-656.901	-28.908	0.437	0.253
-655.886	-38.315	-0.454	-0.242
-654.872	-88.993	0.230	-0.068
-653.857	-200.000	-0.129	0.672
-652.843	36.880	-0.221	0.197
-651.828	-30.359	0.475	0.271
-650.814	102.832	-0.488	0.575
-649.799	-200.000	0.094	0.619
-648.784	-148.403	0.450	0.037
-647.770	119.271	0.088	-0.109
-646.755	433.658	-0.302	0.660
-645.741	-163.587	0.968	-0.046
-644.726	800.000	-0.201	-0.830
-643.711	-146.609	-0.947	0.083
-642.697	-123.211	-0.781	-0.126
-641.682	800.000	-0.025	0.090
-640.668	-200.000	0.002	0.207
-639.653	800.000	0.129	-0.446
-638.638	172.474	-0.246	0.355
-637.624	-200.000	-0.038	0.357
-636.609	-45.197	-0.408	0.204
-635.595	-123.789	0.533	0.085
-634.580	-44.322	0.620	0.313
-633.565	-75.621	0.316	0.113
-632.551	196.201	0.223	-0.341
-631.536	212.749	0.097	-0.154
-630.522	112.741	0.523	-0.637
-629.507	225.445	0.567	-0.923
-628.492	-100.905	-0.560	-0.138
-627.478	-133.797	0.037	-0.005
-626.463	-19.566	-0.302	-0.188
-625.449	-7.278	-0.300	0.204
-624.434	5.107	0.033	-0.025
-623.419	-200.000	-0.032	-0.367
-622.405	-200.000	-0.233	1.030
-621.390	-44.114	0.258	-0.130
-620.376	169.211	0.063	-0.090
-619.361	-140.127	0.238	0.025
-618.346	36.645	0.531	-0.472
-617.332	312.804	-0.178	0.336
-616.317	-131.693	0.485	0.064
-615.303	-24.590	0.180	0.108
-614.288	393.497	0.181	-0.379
-613.273	247.523	0.204	0.347
-612.259	77.617	0.547	0.585
-611.244	-116.314	-0.202	0.038
-610.230	-152.898	-1.239	0.088
-609.215	141.714	-0.147	0.196
-608.201	-21.875	-0.173	0.106
-607.186	376.092	-0.313	0.641
-606.171	-200.000	-0.153	0.878
-605.157	800.000	-0.068	-0.289
-604.142	-200.000	0.040	-0.308
-603.128	800.000	-0.174	-0.594
-602.113	-113.020	-0.308	-0.061
-601.098	-152.671	1.033	0.074
-600.084	366.204	-0.215	0.434
-599.069	121.329	0.169	0.211
-598.055	63.926	-0.323	0.326
-597.040	-99.935	0.399	-0.100
-596.025	-20.557	0.100	-0.062
-595.011	-39.823	-0.814	0.427
-593.996	-200.000	0.094	0.487
-592.982	-161.551	0.264	-0.014
-591.967	-200.000	0.026	0.409
-590.952	-200.000	0.141	-0.880
-589.938	-109.567	-1.117	-0.237
-588.923	-126.439	-0.393	-0.059
-587.909	-104.119	-0.589	-0.137
-586.894	79.569	-0.312	-0.336
-585.879	-200.000	-0.141	-0.679
-584.865	-15.949	-0.696	0.444
-583.850	49.353	0.372	-0.352
-582.836	703.356	0.315	-0.833
-581.821	-120.033	-1.150	0.198
-580.806	6.750	0.065	-0.048
-579.792	-200.000	0.092	-0.525
-578.777	-34.852	-0.388	-0.212
-577.763	800.000	-0.141	-0.507
-576.748	-107.397	0.203	0.045
-575.733	-127.971	0.184	0.026
-574.719	23.677	-0.446	-0.368
-573.704	-200.000	0.152	0.896
-572.690	-20.590	-0.434	0.267
-571.675	-175.774	1.043	-0.028
-570.661	-200.000	-0.096	0.867
-569.646	-117.073	-0.298	0.054
-568.631	800.000	0.082	0.252
-567.617	-64.994	0.782	-0.317
-566.602	272.307	0.169	0.299
-565.588	-200.000	-0.099	-0.676
-564.573	-89.756	0.430	-0.126
-563.558	82.386	0.636	0.692
-562.544	800.000	-0.232	0.685
-561.529	447.726	0.220	-0.486
-560.515	800.000	-0.139	0.455
-559.500	219.343	0.353	0.567
-558.485	-46.811	-0.708	0.347
-557.471	-93.130	-0.291	0.081
-556.456	-10.947	0.565	0.374
-555.442	-74.032	-0.287	-0.104
-554.427	141.467	-0.245	0.326
-553.412	711.369	0.074	0.196
-552.398	40.938	-0.280	-0.254
-551.383	348.835	0.274	-0.541
-550.369	29.959	0.371	0.317
-549.354	44.333	0.405	-0.372
-548.339	-97.589	-0.249	-0.065
-547.325	-16.168	-0.575	-0.366
-546.310	12.482	0.402	0.310
-545.296	-97.413	-0.306	-0.080
-544.281	3.027	-0.474	0.345
-543.266	-34.125	-0.864	-0.476
-542.252	800.000	-0.126	-0.378
-541.237	325.585	0.404	-0.774
-540.223	-200.000	0.026	-0.643
-539.208	494.933	0.282	-0.650
-538.193	307.736	0.179	0.335
-537.179	648.995	0.175	0.447
-536.164	127.268	0.248	-0.316
-535.150	32.132	0.262	0.227
-534.135	-59.381	-0.112	-0.048
-533.121	223.751	0.355	-0.575
-532.106	517.996	-0.260	-0.610
-531.091	-72.998	0.332	0.122
-530.077	81.611	-0.315	-0.341
-529.062	-200.000	0.115	-1.103
-528.048	-141.774	-0.817	0.082
-527.033	181.442	-0.279	0.411
-526.018	82.273	0.374	-0.406
-525.004	-106.996	0.147	0.032
-523.989	153.728	0.352	0.483
-522.975	-200.000	0.117	-0.727
-521.960	469.080	-0.042	-0.094
-520.945	-144.180	-0.298	-0.028
-519.931	84.455	0.231	-0.253
-518.916	356.921	0.252	0.503
-517.902	-107.543	-0.286	-0.063
-516.887	-150.083	0.491	0.038
-515.872	-200.000	-0.012	0.330
-514.858	-64.294	-0.513	-0.209
-513.843	163.707	0.226	0.318
-512.829	19.738	0.520	0.419
-511.814	-200.000	0.297	0.000
-510.799	654.891	0.079	-0.203
-509.785	304.073	-0.356	0.660
-508.770	189.038	0.395	0.592
-507.756	-32.670	-0.983	-0.548
-506.741	-17.187	0.742	0.468
-505.726	-200.000	-0.017	0.333
-504.712	195.377	0.176	0.268
-503.697	147.320	-0.143	0.192
-502.683	32.551	-0.409	0.354
-501.668	-60.459	0.766	0.326
-500.653	-119.193	0.457	-0.080
-499.639	-200.000	0.079	-0.755
-498.624	800.000	0.196	0.762
-497.610	751.832	-0.121	0.326
-496.595	-103.629	0.968	-0.227
-495.581	-18.212	-0.527	0.330
-494.566	-103.150	-0.520	0.123
-493.551	-42.011	0.772	-0.395
-492.537	800.000	-0.057	0.247
-491.522	-200.000	0.045	-0.281
-490.508	-69.871	-0.213	-0.081
-489.493	-47.351	0.617	-0.300
-488.478	-200.000	0.003	0.701
-487.464	-200.000	-0.012	-0.432
-486.449	-49.656	0.229	-0.109
-485.435	800.000	-0.359	-1.107
-484.420	369.913	-0.220	0.445
-483.405	-110.907	0.428	-0.088
-482.391	800.000	0.053	0.179
-481.376	-200.000	0.004	0.084
-480.362	45.876	0.364	-0.336
-479.347	86.574	-0.393	0.433
-478.332	800.000	0.121	-0.370
-477.318	18.776	0.316	-0.253
-476.303	108.149	0.425	0.507
-475.289	198.037	-0.162	-0.248
-474.274	-4.627	-0.250	0.173
-473.259	44.835	0.413	-0.380
-472.245	-159.804	0.637	-0.035
-471.230	113.787	0.483	0.586
-470.216	-3.795	0.611	0.424
-469.201	-14.363	-0.305	0.197
-468.186	181.426	0.330	0.484
-467.172	98.093	-0.593	0.682
-466.157	663.152	-0.297	0.766
-465.143	685.365	0.102	-0.267
-464.128	173.046	0.399	0.575
-463.113	261.519	0.259	-0.449
-462.099	-200.000	0.057	-0.309
-461.084	-89.457	1.204	-0.354
-460.070	667.962	0.130	-0.336
-459.055	-200.000	-0.034	-0.875
-458.040	-176.326	0.331	0.009
-457.026	-132.182	0.460	0.060
-456.011	-67.087	-0.600	0.236
-454.997	48.916	-0.348	0.326
-453.982	-35.333	-0.711	0.386
-452.968	347.463	-0.300	-0.591
-451.953	-43.805	-0.571	-0.287
-450.938	-25.300	-0.277	0.164
-449.924	800.000	0.119	-0.342
-448.909	-126.355	-0.157	0.023
-447.895	160.940	0.598	0.834
-446.880	800.000	-0.108	-0.340
-445.865	-90.283	-0.345	0.100
-444.851	800.000	-0.193	0.765
-443.836	-200.000	-0.010	0.052
-442.822	111.326	-0.692	0.832
-441.807	-135.515	-0.030	0.004
-440.792	-63.282	0.187	0.077
-439.778	-200.000	-0.041	0.367
-438.763	-200.000	-0.133	0.652
-437.749	-82.987	0.094	-0.030
-436.734	-200.000	0.011	-0.874
-435.719	81.521	-0.570	0.615
-434.705	800.000	0.144	-0.497
-433.690	-88.246	0.160	-0.048
-432.676	110.010	0.317	-0.380
-431.661	-85.642	0.752	-0.233
-430.646	-78.012	0.094	-0.032
-429.632	-200.000	0.121	-1.187
-428.617	-200.000	0.073	-0.381
-427.603	8.681	-0.350	0.263
-426.588	-117.142	-0.309	0.056
-425.573	-41.635	-0.080	-0.041
-424.559	-115.339	-0.349	0.066
-423.544	-186.850	0.443	0.006
-422.530	-71.367	-0.328	-0.123
-421.515	800.000	0.266	0.796
-420.500	115.950	-0.393	-0.479
-419.486	-34.140	0.371	-0.203
-418.471	452.635	-0.203	0.448
-417.457	2.424	-0.642	-0.463
-416.442	-200.000	-0.047	-0.461
-415.428	668.085	0.085	0.219
-414.413	8.435	-0.208	-0.156
-413.398	800.000	0.105	0.305
-412.384	-2.587	0.568	-0.396
-411.369	-200.000	-0.023	-0.145
-410.355	800.000	-0.142	-0.528
-409.340	48.834	-0.469	-0.438
-408.325	-26.938	-0.204	-0.119
-407.311	285.123	0.207	-0.372
-406.296	800.000	0.129	-0.491
-405.282	-73.699	-0.152	-0.055
-404.267	800.000	0.396	1.096
-403.252	247.194	-0.632	1.063
-402.238	800.000	-0.110	-0.435
-401.223	-200.000	0.064	-0.348
-400.209	69.838	0.345	-0.355
-399.194	-21.614	-0.102	-0.062
-398.179	104.465	-0.251	0.294
-397.165	111.211	-0.231	-0.277
-396.150	-46.306	0.202	0.099
-395.136	49.394	0.249	-0.233
-394.121	-78.922	0.336	0.114
-393.106	394.373	-0.227	-0.470
-392.092	16.426	0.404	0.318
-391.077	-180.819	-0.236	-0.005
-390.063	33.982	0.412	0.358
-389.048	162.677	-0.172	-0.241
-388.033	165.449	-0.386	-0.543
-387.019	-4.534	-0.285	0.196
-386.004	-200.000	0.014	-0.199
-384.990	6.049	0.556	-0.410
-383.975	442.529	-0.384	-0.838
-382.960	800.000	-0.096	-0.295
-381.946	800.000	0.149	0.460
-380.931	-200.000	-0.027	-0.192
-379.917	800.000	-0.241	-0.845
-378.902	-200.000	0.039	-0.393
-377.888	-25.555	-0.608	-0.357
-376.873	800.000	-0.050	0.181
-375.858	-96.951	-0.248	0.065
-374.844	-88.531	-0.616	0.183
-373.829	252.010	-0.152	-0.258
-372.815	-168.013	0.778	0.030
-371.800	32.263	0.228	0.196
-370.785	-104.079	0.198	-0.046
-369.771	89.389	0.136	-0.150
-368.756	49.845	-0.445	0.418
-367.742	-200.000	-0.015	0.122
-366.727	-200.000	0.027	-0.339
-365.712	-61.064	-0.047	0.020
-364.698	800.000	-0.119	-0.513
-363.683	-200.000	0.118	0.560
-362.669	-75.297	-0.528	0.188
-361.654	19.340	0.395	-0.316
-360.639	800.000	0.150	0.643
-359.625	-93.419	-0.365	-0.101
-358.610	-2.631	0.394	-0.274
-357.596	-200.000	0.092	-0.811
-356.581	226.526	0.115	-0.186
-355.566	-108.548	0.543	-0.116
-354.552	-40.083	-0.484	0.251
-353.537	-165.950	0.857	-0.036
-352.523	-89.628	0.588	-0.171
-351.508	-7.074	1.016	-0.686
-350.493	129.305	-1.009	-1.281
-349.479	-20.003	-0.338	0.207
-348.464	25.358	-0.527	-0.436
-347.450	15.212	0.249	-0.194
-346.435	-107.071	0.616	-0.135
-345.420	332.011	0.440	-0.844
-344.406	6.832	0.341	-0.252
-343.391	-200.000	-0.011	-0.406
-342.377	-57.411	0.306	-0.134
-341.362	-52.795	-0.734	-0.336
-340.348	-200.000	0.057	-0.464
-339.333	800.000	-0.403	-1.147
-338.318	-120.511	0.062	-0.010
-337.304	149.482	-0.270	0.364
-336.289	24.289	-0.434	-0.356
-335.275	-200.000	-0.022	-0.369
-334.260	-200.000	0.065	0.664
-333.245	-54.531	-0.499	0.224
-332.231	136.915	-0.258	-0.334
-331.216	-200.000	-0.051	0.633
-330.202	-200.000	0.043	0.276
-329.187	261.665	-0.078	0.135
-328.172	-200.000	-0.049	0.767
-327.158	35.421	-0.208	-0.182
-326.143	19.282	-0.182	0.145
-325.129	-17.031	-0.185	-0.116
-324.114	-65.537	0.224	0.089
-323.099	148.760	0.430	0.578
-322.085	-103.808	0.338	-0.078
-321.070	65.133	-0.558	0.560
-320.056	292.589	-0.394	-0.713
-319.041	384.656	-0.310	0.634
-318.026	335.792	0.342	0.659
-317.012	169.940	0.504	-0.715
-315.997	-125.117	-0.589	-0.090
-314.983	180.317	0.163	-0.238
-313.968	8.267	-0.931	-0.695
-312.953	-200.000	-0.043	0.352
-311.939	800.000	-0.168	0.629
-310.924	-36.350	-0.759	-0.406
-309.910	800.000	-0.142	-0.584
-308.895	-200.000	-0.045	-0.608
-307.880	-61.046	-0.401	0.168
-306.866	123.035	-0.495	0.616
-305.851	308.771	0.380	0.705
-304.837	800.000	0.218	0.600
-303.822	37.707	-0.391	0.344
-302.807	800.000	-0.085	-0.272
-301.793	-25.779	0.796	-0.466
-300.778	-59.201	0.077	-0.033
-299.764	-107.125	1.124	0.246
-298.749	88.018	0.272	0.300
-297.735	129.803	0.082	-0.104
-296.720	24.902	0.536	0.441
-295.705	42.249	0.401	-0.362
-294.691	800.000	0.169	-0.552
-293.676	57.916	0.030	-0.029
-292.662	-56.698	-0.152	-0.067
-291.647	-200.000	0.093	-0.653
-290.632	5.338	-0.275	-0.202
-289.618	-29.561	-0.799	-0.453
-288.603	64.346	0.559	-0.558
-287.589	238.485	0.482	-0.794
-286.574	118.933	-0.473	0.580
-285.559	128.677	-0.319	0.403
-284.545	800.000	-0.235	-0.987
-283.530	-131.656	-0.283	-0.037
-282.516	-200.000	0.092	0.591
-281.501	-80.773	1.134	0.374
-280.486	-110.371	0.401	-0.083
-279.472	22.400	-0.777	-0.630
-278.457	-58.931	0.433	0.186
-277.443	-200.000	0.015	-0.132
-276.428	-200.000	-0.143	0.637
-275.413	-200.000	-0.035	0.152
-274.399	362.182	-0.370	0.737
-273.384	-200.000	0.035	0.679
-272.370	258.333	-0.211	0.360
-271.355	-136.995	-0.609	-0.069
-270.340	46.527	-0.220	-0.203
-269.326	124.878	-0.542	0.677
-268.311	-5.278	-0.278	-0.189
-267.297	-136.025	0.272	0.032
-266.282	-125.010	0.780	0.119
-265.267	-176.576	-0.353	-0.009
-264.253	-122.013	0.821	-0.134
-263.238	-8.371	-0.162	0.108
-262.224	-187.957	-0.461	-0.006
-261.209	-65.186	0.267	-0.107
-260.195	10.950	-0.103	0.078
-259.180	48.839	-0.637	-0.593
-258.165	-20.560	0.485	0.295
-257.151	-65.034	0.142	-0.057
-256.136	-28.227	-0.178	0.102
-255.122	-178.613	0.397	0.009
-254.107	-200.000	0.097	0.500
-253.092	-200.000	-0.069	-0.403
-252.078	-200.000	-0.042	0.827
-251.063	-200.000	-0.065	-0.855
-250.049	-178.590	-0.396	-0.009
-249.034	51.604	-0.521	0.491
-248.019	-49.679	1.222	0.576
-247.005	-200.000	-0.111	-0.816
-245.990	183.241	-0.066	-0.096
-244.976	664.634	0.094	0.239
-243.961	264.080	-0.264	0.455
-242.946	426.736	-0.103	-0.219
-241.932	362.321	0.076	-0.151
-240.917	-200.000	-0.048	-0.478
-239.903	-5.194	0.477	-0.325
-238.888	-200.000	0.050	1.133
-237.873	44.160	-0.494	-0.448
-236.859	131.801	0.205	-0.261
-235.844	-200.000	-0.021	0.804
-234.830	-119.224	-0.485	-0.084
-233.815	33.554	0.186	-0.160
-232.800	24.315	-0.059	-0.048
-231.786	-33.121	-0.425	0.233
-230.771	800.000	-0.129	-0.423
-229.757	170.421	-0.193	0.274
-228.742	129.781	-0.220	0.279
-227.727	-91.065	-0.584	-0.166
-226.713	-66.925	-0.158	0.062
-225.698	-167.606	-0.476	0.019
-224.684	-8.125	0.428	-0.285
-223.669	-200.000	0.093	0.464
-222.655	-200.000	0.019	0.382
-221.640	-7.480	0.210	0.141
-220.625	-88.249	-0.713	0.211
-219.611	146.654	0.256	0.341
-218.596	-200.000	-0.053	0.314
-217.582	178.801	-0.202	-0.292
-216.567	32.946	0.375	0.321
-215.552	-96.128	0.707	0.186
-214.538	800.000	-0.222	0.828
-213.523	-103.768	-0.671	-0.155
-212.509	730.486	-0.311	-0.822
-211.494	-200.000	-0.076	0.705
-210.479	73.994	0.109	0.113
-209.465	208.123	-0.259	-0.400
-208.450	151.091	-0.149	0.201
-207.436	-200.000	0.055	-0.470
-206.421	702.603	-0.249	0.648
-205.406	-12.730	-0.477	0.307
-204.392	-83.964	-0.192	-0.061
-203.377	800.000	0.181	0.551
-202.363	576.549	0.168	-0.406
-201.348	96.234	0.369	0.417
-200.333	-45.215	-0.398	0.196
-199.319	-11.404	-0.566	0.368
-198.304	256.040	-0.206	-0.349
-197.290	174.600	-0.190	0.271
-196.275	769.322	-0.205	0.553
-195.260	-44.549	0.277	-0.137
-194.246	-34.467	0.698	0.378
-193.231	66.603	-0.397	-0.399
-192.217	-77.382	0.633	-0.217
-191.202	55.007	0.189	-0.180
-190.187	-10.477	0.662	0.433
-189.173	800.000	-0.070	-0.231
-188.158	-200.000	0.238	-1.126
-187.144	-200.000	-0.015	-0.276
-186.129	180.604	-0.046	0.067
-185.114	-15.354	-0.390	-0.247
-184.100	-182.467	0.492	0.009
-183.085	-78.773	0.222	-0.075
-182.071	150.037	-0.667	0.894
-181.056	-130.526	-0.445	0.059
-180.042	7.034	0.171	-0.126
-179.027	44.705	0.751	0.682
-178.012	-136.570	0.191	0.022
-176.998	430.398	0.169	-0.362
-175.983	45.476	-0.246	0.224
-174.969	-51.685	0.767	-0.353
-173.954	104.222	0.131	-0.152
-172.939	-71.366	0.412	0.153
-171.925	-41.065	-0.650	-0.332
-170.910	-39.415	-0.655	0.339
-169.896	-155.281	0.472	-0.030
-168.881	57.981	-0.519	0.502
-167.866	167.637	0.155	-0.218
-166.852	161.053	-0.129	0.178
-165.837	38.386	0.135	-0.119
-164.823	-59.843	0.421	-0.178
-163.808	-110.590	-0.814	-0.166
-162.793	-200.000	0.002	0.915
-161.779	-22.780	-0.102	-0.061
-160.764	72.262	0.453	0.466
-159.750	-21.119	0.438	-0.265
-158.735	234.903	-0.296	-0.482
-157.720	-200.000	0.032	0.350
-156.706	-200.000	0.054	0.422
-155.691	161.800	0.288	0.397
-154.677	800.000	-0.071	-0.261
-153.662	110.592	0.329	0.390
-152.647	-56.201	0.446	0.196
-151.633	38.112	0.685	0.602
-150.618	-17.977	-0.255	0.158
-149.604	131.007	0.659	0.834
-148.589	800.000	0.092	0.302
-147.574	-92.841	-0.340	-0.094
-146.560	645.771	0.373	-0.940
-145.545	-28.176	-0.177	-0.101
-144.531	12.037	0.438	0.332
-143.516	68.615	-0.258	0.261
-142.502	570.305	0.385	-0.923
-141.487	60.663	-0.302	-0.295
-140.472	-88.787	-0.158	-0.046
-139.458	-44.385	-0.622	0.307
-138.443	265.190	0.711	1.223
-137.429	91.917	0.308	-0.342
-136.414	-200.000	-0.056	0.406
-135.399	-200.000	0.202	-1.086
-134.385	800.000	-0.343	1.042
-133.370	-29.517	-0.637	-0.359
-132.356	-164.530	0.642	0.029
-131.341	26.278	0.715	0.589
-130.326	11.417	0.483	-0.365
-129.312	-135.114	0.588	-0.070
-128.297	-200.000	0.058	0.411
-127.283	-106.019	0.304	-0.067
-126.268	48.481	0.448	-0.414
-125.253	-4.083	-0.314	-0.215
-124.239	34.953	0.290	0.250
-123.224	66.321	0.525	-0.525
-122.210	-200.000	0.063	-0.292
-121.195	-101.751	0.469	0.112
-120.180	99.764	0.262	-0.299
-119.166	800.000	-0.259	-0.896
-118.151	-190.840	0.837	-0.009
-117.137	214.604	-0.404	0.631
-116.122	29.597	0.480	0.403
-115.107	379.292	0.217	0.437
-114.093	256.829	0.349	0.591
-113.078	55.953	-0.482	-0.461
-112.064	-165.660	0.622	-0.027
-111.049	-200.000	-0.024	-0.495
-110.034	84.714	0.544	0.587
-109.020	146.689	-0.276	-0.365
-108.005	177.801	0.183	-0.263
-106.991	13.298	-0.372	0.284
-105.976	-166.873	-0.661	-0.027
-104.962	-156.929	0.400	0.024
-103.947	800.000	0.095	-0.368
-102.932	15.778	0.157	0.122
-101.918	-23.684	1.149	0.678
-100.903	251.467	-0.314	-0.526
-99.889	588.112	0.297	0.720
-98.874	-166.143	-0.845	-0.035
-97.859	84.951	0.775	-0.836
-96.845	-65.947	0.352	-0.138
-95.830	-200.000	-0.141	1.157
-94.816	800.000	-0.164	-0.637
-93.801	-200.000	-0.217	1.038
-92.786	400.324	-0.458	0.945
-91.772	277.600	-0.306	-0.536
-90.757	-84.166	-0.143	-0.045
-89.743	44.691	0.470	0.425
-88.728	-178.299	-0.088	0.002
-87.713	255.211	-0.169	0.284
-86.699	-80.944	-0.140	0.046
-85.684	-156.062	0.686	0.043
-84.670	616.833	-0.170	-0.420
-83.655	11.356	0.758	0.572
-82.640	-131.364	0.902	0.117
-81.626	61.736	0.365	0.358
-80.611	800.000	0.156	-0.562
-79.597	-24.198	-0.499	0.293
-78.582	-17.824	0.479	0.296
-77.567	227.534	0.737	1.180
-76.553	-200.000	0.036	-0.687
-75.538	728.473	-0.150	-0.394
-74.524	-200.000	0.041	-0.188
-73.509	-200.000	-0.030	-0.153
-72.494	521.524	0.127	-0.293
-71.480	-44.197	-0.489	0.241
-70.465	-90.714	-0.505	-0.143
-69.451	-188.679	0.267	-0.003
-68.436	-59.911	1.242	-0.522
-67.422	156.378	0.180	-0.244
-66.407	224.136	-0.510	-0.810
-65.392	-51.858	0.502	0.230
-64.378	-46.282	-0.337	0.163
-63.363	29.036	0.417	0.348
-62.349	-33.965	-0.560	-0.303
-61.334	-111.326	-1.017	0.204
-60.319	-200.000	0.027	1.348
-59.305	800.000	-0.286	-1.017
-58.290	-179.130	0.108	0.002
-57.276	249.173	0.748	1.246
-56.261	-200.000	96.868	598.798
-55.246	668.589	1356.709	3450.617
-54.232	204.586	2517.902	3838.600
-53.217	118.500	2138.221	2594.276
-52.203	42.686	1691.559	1514.088
-51.188	35.207	1506.879	1298.300
-50.173	33.332	1478.519	1261.335
-49.159	53.196	1531.329	1441.632
-48.144	53.779	1548.416	1461.618
-47.130	35.644	1506.800	1300.986
-46.115	32.641	1491.536	1267.591
-45.100	32.217	1489.108	1262.626
-44.086	32.588	1486.810	1263.121
-43.071	32.456	1484.374	1260.117
-42.057	32.184	1484.483	1258.335
-41.042	32.230	1482.514	1256.923
-40.027	32.305	1481.760	1256.738
-39.013	32.477	1479.790	1256.163
-37.998	32.241	1478.386	1253.347
-36.984	32.157	1477.712	1252.172
-35.969	32.414	1475.599	1252.040
-34.954	32.268	1474.710	1250.262
-33.940	32.260	1473.251	1248.921
-32.925	32.307	1472.009	1248.133
-31.911	32.168	1470.935	1246.250
-30.896	32.426	1468.941	1246.223
-29.881	32.268	1468.273	1244.563
-28.867	32.373	1466.145	1243.402
-27.852	32.252	1464.956	1241.546
-26.838	32.383	1463.654	1241.256
-25.823	32.294	1462.977	1240.045
-24.809	32.412	1460.028	1238.270
-23.794	32.351	1458.870	1236.841
-22.779	32.463	1457.613	1236.460
-21.765	32.169	1457.359	1234.265
-20.750	32.171	1455.045	1232.271
-19.736	32.276	1454.403	1232.363
-18.721	32.215	1454.177	1231.729
-17.706	32.253	1452.186	1230.236
-16.692	32.146	1452.281	1229.571
-15.677	32.147	1449.369	1227.063
-14.663	32.220	1449.245	1227.385
-13.648	32.306	1447.933	1226.790
-12.633	32.347	1447.090	1226.293
-11.619	32.410	1445.814	1225.569
-10.604	32.241	1446.727	1225.193
-9.590	32.224	1444.874	1223.464
-8.575	32.149	1444.024	1222.208
-7.560	32.064	1443.045	1220.781
-6.546	31.978	1443.104	1220.226
-5.531	31.909	1442.045	1218.833
-4.517	32.190	1440.160	1219.010
-3.502	32.005	1440.122	1217.733
-2.487	32.394	1438.102	1218.492
-1.473	32.232	1436.602	1216.125
-0.458	32.206	1436.601	1215.910
0.556	33.551	1425.732	1204.398
1.571	30.313	1400.646	1162.852
2.586	26.263	1344.477	1091.706
3.600	24.912	1262.217	1017.153
4.615	23.250	1216.598	971.197
5.629	20.210	1159.613	909.703
6.644	11.404	1075.576	800.671
7.659	4.380	1034.971	737.117
8.673	3.641	1029.409	729.598
9.688	3.145	1026.579	725.193
10.702	3.138	1025.157	724.091
11.717	3.437	1022.604	723.626
12.731	6.261	1027.155	740.083
13.746	15.161	1038.899	790.655
14.761	22.821	1047.964	833.810
15.775	24.371	1049.702	842.444
16.790	24.296	1048.819	841.310
17.804	23.808	1047.654	838.000
18.819	23.630	1046.451	836.123
19.834	23.414	1045.696	834.428
20.848	23.496	1044.686	833.937
21.863	23.655	1044.594	834.534
22.877	23.676	1044.017	834.099
23.892	23.276	1044.199	832.290
24.907	23.388	1042.644	831.505
25.921	23.174	1042.048	829.954
26.936	23.285	1041.317	829.817
27.950	23.237	1040.607	828.954
28.965	23.105	1039.319	827.235
29.980	23.263	1036.592	825.731
30.994	23.192	1036.628	825.352
32.009	23.368	1036.035	825.629
33.023	23.537	1034.862	825.407
34.038	23.468	1034.581	824.789
35.053	23.217	1033.510	822.697
36.067	23.383	1031.901	822.114
37.082	22.878	1031.929	819.718
38.096	22.957	1031.403	819.596
39.111	23.201	1030.303	819.778
40.126	23.221	1029.947	819.515
41.140	23.163	1028.782	818.246
42.155	23.126	1027.115	816.678
43.169	22.693	1025.986	813.712
44.184	22.548	1024.870	812.084
45.199	22.525	1024.954	811.977
46.213	22.572	1022.936	810.520
47.228	22.522	1023.774	810.882
48.242	23.155	1021.334	811.786
49.257	23.511	1021.227	813.258
50.271	23.243	1021.131	811.882
51.286	23.477	1019.347	811.463
52.301	23.696	1018.832	811.982
53.315	23.507	1018.563	810.834
54.330	23.427	1017.887	809.858
55.344	23.280	1017.179	808.550
56.359	23.363	1014.974	807.104
57.374	23.144	1014.949	806.015
58.388	23.224	1013.664	805.290
59.403	22.970	1013.476	803.914
60.417	22.736	1012.518	802.018
61.432	22.655	1013.236	802.149
62.447	22.873	1011.168	801.426
63.461	22.653	1011.310	800.471
64.476	22.756	1010.080	799.896
65.490	22.868	1009.042	799.510
66.505	22.912	1007.500	798.416
67.520	22.830	1007.108	797.665
68.534	22.964	1007.023	798.128
69.549	22.479	1006.078	795.121
70.563	22.205	1005.172	793.098
71.578	22.213	1004.764	792.746
72.593	22.269	1002.902	791.457
73.607	22.191	1001.369	789.827
74.622	22.191	1000.049	788.716
75.636	22.431	1000.032	789.709
76.651	21.977	999.874	787.478
77.666	22.093	998.287	786.678
78.680	22.575	998.282	788.760
79.695	22.133	997.651	786.218
80.709	22.128	997.277	785.829
81.724	22.412	996.804	786.658
82.739	22.787	995.215	787.004
83.753	22.625	994.848	785.924
84.768	22.913	996.118	788.144
85.782	23.461	994.606	789.319
86.797	23.706	994.685	790.400
87.812	23.960	992.821	789.978
88.826	23.566	992.720	788.078
89.841	23.346	991.032	785.692
90.855	23.767	989.599	786.351
91.870	23.721	989.515	786.011
92.884	23.805	988.952	785.867
93.899	23.977	988.629	786.297
94.914	23.457	987.497	783.035
95.928	23.677	986.776	783.363
96.943	23.635	986.003	782.492
97.957	23.459	984.877	780.759
98.972	23.347	984.441	779.848
99.987	23.401	982.949	778.837
101.001	23.016	984.005	777.910
102.016	23.173	982.446	777.299
103.030	23.628	979.656	777.015
104.045	23.594	979.962	777.038
105.060	23.898	978.840	777.409
106.074	23.710	977.208	775.225
107.089	23.432	976.643	773.497
108.103	23.228	976.366	772.316
109.118	23.129	975.362	771.023
110.133	22.599	974.583	768.030
111.147	22.646	974.044	767.744
112.162	22.796	971.356	766.207
113.176	22.542	971.018	764.772
114.191	22.670	970.169	764.590
115.206	22.752	969.720	764.524
116.220	22.975	968.441	764.413
117.235	22.327	968.738	761.773
118.249	22.537	968.097	762.112
119.264	22.645	966.495	761.251
120.279	22.630	965.707	760.495
121.293	21.960	965.275	757.197
122.308	21.741	964.590	755.651
123.322	22.089	963.526	756.249
124.337	22.133	962.179	755.311
125.352	21.909	961.040	753.390
126.366	22.067	960.331	753.448
127.381	22.130	958.526	752.233
128.395	22.008	958.843	751.891
129.410	22.648	957.267	753.328
130.424	22.373	957.427	752.208
131.439	22.699	955.427	751.962
132.454	22.840	954.653	751.885
133.468	23.275	954.159	753.284
134.483	22.893	953.011	750.685
135.497	23.490	952.873	753.048
136.512	23.097	952.397	750.937
137.527	22.904	951.588	749.414
138.541	23.095	951.085	749.760
139.556	23.060	950.588	749.155
140.570	23.108	948.983	748.025
141.585	23.277	949.115	748.777
142.600	23.219	949.153	748.498
143.614	23.495	948.348	748.964
144.629	23.472	948.469	748.892
145.643	23.857	945.759	748.310
146.658	23.948	945.453	748.382
147.673	23.403	944.865	745.558
148.687	23.070	943.543	743.052
149.702	22.987	942.932	742.155
150.716	22.753	941.993	740.372
151.731	22.899	939.920	739.286
152.746	23.181	939.588	740.138
153.760	23.277	938.909	739.941
154.775	23.217	938.373	739.201
155.789	23.222	938.041	738.897
156.804	23.603	936.289	739.035
157.819	23.218	935.828	737.003
158.833	23.363	935.535	737.311
159.848	23.602	934.830	737.684
160.862	23.759	934.794	738.242
161.877	23.452	934.748	736.868
162.892	23.354	932.376	734.526
163.906	23.011	929.970	731.147
164.921	22.794	930.272	730.422
165.935	22.681	929.345	729.162
166.950	23.060	928.344	729.877
167.964	23.204	927.523	729.760
168.979	23.286	926.101	728.913
169.994	22.985	924.935	726.693
171.008	22.983	923.768	725.706
172.023	23.080	923.660	725.954
173.037	23.202	923.513	726.275
174.052	23.369	923.584	726.951
175.067	23.490	922.144	726.250
176.081	22.968	920.812	723.003
177.096	22.911	919.007	721.286
178.110	22.963	918.227	720.823
179.125	22.699	917.467	719.089
180.140	22.685	917.011	718.609
181.154	22.599	917.064	718.239
182.169	23.267	916.000	720.059
183.183	23.295	916.293	720.337
184.198	23.503	914.885	720.013
185.213	23.608	914.082	719.743
186.227	23.342	913.899	718.454
187.242	23.194	914.228	718.050
188.256	23.388	913.757	718.405
189.271	23.347	912.976	717.558
190.286	23.725	911.440	717.816
191.300	23.482	911.107	716.510
192.315	23.275	908.575	713.620
193.329	22.520	907.701	709.830
194.344	22.426	908.015	709.635
195.359	22.242	908.147	708.932
196.373	22.816	907.779	710.894
197.388	23.245	906.514	711.565
198.402	23.284	907.286	712.266
199.417	23.220	907.189	711.869
200.432	23.984	905.083	713.218
201.446	23.777	906.080	713.112
202.461	24.087	905.581	713.899
203.475	23.686	905.234	711.954
204.490	23.838	903.676	711.275
205.504	23.170	902.627	707.712
206.519	23.218	901.621	707.054
207.534	23.383	901.816	707.803
208.548	23.413	900.242	706.627
209.563	23.447	899.845	706.386
210.577	23.649	899.435	706.808
211.592	23.435	898.343	705.033
212.607	23.757	898.374	706.278
213.621	23.657	898.493	705.911
214.636	23.638	898.020	705.399
215.650	23.536	897.271	704.347
216.665	23.484	896.553	703.513
217.680	23.727	896.093	704.053
218.694	23.763	894.958	703.242
219.709	23.821	894.722	703.224
220.723	23.477	893.604	700.925
221.738	23.826	892.337	701.244
222.753	23.361	893.086	699.935
223.767	23.399	891.673	698.915
224.782	23.361	891.185	698.319
225.796	23.650	890.884	699.163
226.811	23.993	889.694	699.515
227.826	23.521	890.242	698.026
228.840	23.243	888.096	695.193
229.855	23.242	888.044	695.086
230.869	23.265	887.304	694.534
231.884	23.095	885.977	692.768
232.899	22.870	886.064	691.892
233.913	23.206	885.173	692.450
234.928	23.292	884.926	692.533
235.942	23.106	883.270	690.449
236.957	22.957	882.380	689.110
237.972	22.696	881.673	687.480
238.986	22.617	881.512	686.988
240.001	22.816	881.163	687.429
241.015	22.502	880.892	685.935
242.030	22.941	879.643	686.610
243.045	23.132	879.647	687.291
244.059	23.076	879.140	686.618
245.074	23.083	878.921	686.414
246.088	23.349	877.785	686.498
247.103	23.504	877.907	687.131
248.117	23.559	877.062	686.624
249.132	23.698	877.709	687.608
250.147	24.606	876.928	690.446
251.161	24.645	876.609	690.283
252.176	24.753	876.001	690.160
253.190	24.617	875.873	689.473
254.205	25.002	874.484	689.802
255.220	24.772	874.569	688.924
256.234	24.760	873.219	687.753
257.249	24.435	873.146	686.383
258.263	24.465	872.289	685.764
259.278	24.233	871.839	684.458
260.293	24.529	870.626	684.580
261.307	24.584	870.916	684.961
262.322	24.800	869.453	684.575
263.336	24.765	869.991	684.804
264.351	23.985	870.348	682.036
265.366	24.346	867.267	680.940
266.380	24.304	867.172	680.645
267.395	24.257	867.543	680.693
268.409	24.601	866.493	681.123
269.424	24.433	865.915	679.968
270.439	24.271	865.015	678.585
271.453	24.671	863.806	679.098
272.468	24.841	862.191	678.411
273.482	24.328	862.496	676.647
274.497	24.359	863.086	677.165
275.512	24.552	860.748	676.003
276.526	24.347	860.242	674.768
277.541	24.162	860.227	673.997
278.555	24.008	859.888	673.092
279.570	24.488	860.348	675.205
280.585	24.508	859.893	674.867
281.599	25.249	857.620	675.815
282.614	24.536	857.810	673.217
283.628	24.180	857.105	671.262
284.643	24.069	856.136	670.026
285.657	24.053	856.036	669.830
286.672	24.132	855.294	669.486
287.687	23.917	854.659	668.123
288.701	24.165	854.903	669.185
289.716	24.268	854.453	669.162
290.730	24.336	853.616	668.702
291.745	24.324	853.140	668.225
292.760	24.282	851.791	666.950
293.774	24.518	851.495	667.543
294.789	24.789	851.232	668.292
295.803	25.080	851.423	669.469
296.818	24.636	850.250	666.830
297.833	24.381	849.760	665.436
298.847	24.359	848.946	664.659
299.862	24.575	848.112	664.750
300.876	24.306	847.330	663.078
301.891	24.349	847.596	663.389
302.906	24.626	846.740	663.689
303.920	24.970	846.010	664.333
304.935	25.506	845.444	665.815
305.949	24.920	846.031	664.045
306.964	25.161	844.537	663.709
307.979	24.848	843.729	661.855
308.993	24.620	842.804	660.230
310.008	24.529	843.375	660.281
311.022	24.816	842.611	660.685
312.037	24.802	842.042	660.129
313.052	24.550	840.418	657.871
314.066	24.510	839.349	656.827
315.081	24.220	838.190	654.796
316.095	23.921	838.818	654.131
317.110	24.179	838.278	654.599
318.125	24.265	838.101	654.721
319.139	24.055	837.632	653.525
320.154	23.778	836.862	651.848
321.168	23.581	835.732	650.191
322.183	23.680	835.799	650.548
323.197	24.114	834.974	651.434
324.212	23.837	834.564	650.045
325.227	23.882	834.600	650.179
326.241	23.964	833.605	649.645
327.256	23.933	833.037	649.034
328.270	24.094	831.824	648.617
329.285	23.888	832.526	648.356
330.300	23.807	831.798	647.439
331.314	23.595	830.358	645.487
332.329	23.810	829.676	645.681
333.343	23.970	829.911	646.388
334.358	24.457	830.170	648.303
335.373	24.521	828.294	647.011
336.387	24.477	827.847	646.446
337.402	24.466	828.041	646.502
338.416	24.528	827.683	646.388
339.431	25.099	826.562	647.519
340.446	25.114	826.681	647.609
341.460	25.452	826.181	648.381
342.475	25.312	825.973	647.653
343.489	25.436	825.201	647.438
344.504	25.529	825.100	647.638
345.519	25.575	824.978	647.652
346.533	25.692	823.664	646.981
347.548	25.134	824.664	645.700
348.562	25.365	822.486	644.768
349.577	25.245	821.690	643.656
350.592	24.842	821.170	641.749
351.606	24.528	820.916	640.367
352.621	24.605	820.353	640.146
353.635	24.666	819.397	639.564
354.650	24.933	818.575	639.817
355.665	24.916	818.634	639.748
356.679	24.538	818.731	638.414
357.694	24.814	817.329	638.252
358.708	25.047	817.357	639.046
359.723	24.558	817.086	637.035
360.738	24.468	816.923	636.532
361.752	24.224	816.322	635.136
362.767	24.353	815.699	635.054
363.781	24.867	815.164	636.411
364.796	24.833	815.458	636.462
365.810	25.170	814.927	637.188
366.825	25.383	814.683	637.700
367.840	25.380	814.065	637.146
368.854	25.373	813.624	636.721
369.869	25.500	811.489	635.444
370.883	24.782	812.227	633.423
371.898	25.163	811.352	634.032
372.913	25.508	810.034	634.163
373.927	25.671	809.816	634.512
374.942	25.173	810.145	632.956
375.956	24.986	809.004	631.349
376.971	25.496	808.276	632.519
377.986	25.396	808.100	631.976
379.000	25.545	807.538	632.002
380.015	25.709	807.221	632.275
381.029	25.465	806.228	630.584
382.044	25.508	805.549	630.149
383.059	25.865	804.063	630.180
384.073	26.040	803.854	630.572
385.088	25.749	804.063	629.662
386.102	25.094	804.497	627.654
387.117	25.228	801.845	625.999
388.132	24.874	801.745	624.629
389.146	24.919	801.213	624.316
390.161	24.896	801.746	624.595
391.175	25.064	802.347	625.595
392.190	25.508	801.234	626.219
393.205	25.561	800.533	625.801
394.219	25.329	799.130	623.842
395.234	24.789	798.403	621.345
396.248	24.295	797.856	619.148
397.263	24.561	797.426	619.684
398.278	24.757	797.443	620.321
399.292	24.936	796.671	620.285
400.307	24.455	795.882	617.954
401.321	24.339	796.181	617.729
402.336	24.649	795.080	617.892
403.350	24.792	795.763	618.863
404.365	24.958	795.305	619.025
405.380	25.629	794.590	620.729
406.394	25.523	795.313	620.874
407.409	25.726	795.325	621.528
408.423	26.015	793.984	621.421
409.438	26.152	793.469	621.435
410.453	26.209	792.782	621.037
411.467	26.509	792.445	621.751
412.482	26.185	792.138	620.341
413.496	25.967	791.784	619.259
414.511	25.852	792.129	619.081
415.526	26.212	790.090	618.667
416.540	25.870	790.125	617.467
417.555	26.012	789.304	617.258
418.569	25.917	789.328	616.897
419.584	25.970	788.925	616.707
420.599	26.091	788.745	616.927
421.613	160.763	1369.716	1792.281
422.628	139.179	1454.336	1792.272
