DTS Sentinel unit serial number:	SN413079Multiplexer serial number:	ORYXHardware model number:	OX4-SRSoftware version number:	ORYX F/W v4.00 Oryx Data Collector v3.7.2.0data status	okinstallation	princeton_trtdifferential loss correction	single-endedforward channel	channel 3reverse channel	N/Adate	2019/09/11time	18:50:11forward acquisition time	60.00reverse acquisition time	0.00gamma	496.2192k internal	0.2290k external	0.2290temperature offset calibration	1.0001default loss term (dB/km)	0.3790temperature slope calibration	1.0000multiplexer offset coefficient	1.0000multiplexer slope coefficient	1.0000fibre end	0.00T internal ref (°C)	42.94T ext. ref 1 (°C)	1.23T ext. ref 2 (°C)	35.03length (m)	temperature (°C)	Stokes	anti-Stokes-747.200	-67.762	-0.255	0.102
-746.185	-52.197	0.119	-0.057
-745.171	35.945	0.159	0.143
-744.156	-200.000	-0.005	0.284
-743.142	800.000	0.106	0.383
-742.127	239.949	-0.221	0.378
-741.112	31.103	0.080	0.070
-740.098	800.000	0.102	0.380
-739.083	-47.814	0.252	-0.125
-738.069	-127.652	0.161	0.024
-737.054	-36.225	0.057	-0.031
-736.039	-200.000	0.034	-0.293
-735.025	260.757	-0.093	0.165
-734.010	-43.074	0.444	0.231
-732.996	43.473	-0.166	-0.155
-731.981	800.000	-0.035	-0.156
-730.966	-46.595	0.398	0.200
-729.952	-75.444	-0.271	0.099
-728.937	-50.795	-0.061	0.029
-727.923	-200.000	0.008	-0.155
-726.908	-112.612	-0.381	-0.078
-725.894	-61.924	-0.013	0.006
-724.879	-200.000	-0.000	-0.255
-723.864	-200.000	0.147	0.001
-722.850	66.377	0.302	0.314
-721.835	742.870	0.055	0.151
-720.821	-97.238	-0.448	-0.120
-719.806	-200.000	0.001	-0.581
-718.791	-83.343	-0.095	-0.031
-717.777	-200.000	0.036	0.229
-716.762	-102.820	0.296	-0.072
-715.748	-200.000	0.019	0.094
-714.733	162.412	0.227	-0.326
-713.718	37.684	-0.165	-0.150
-712.704	433.405	-0.078	-0.173
-711.689	159.348	-0.106	-0.151
-710.675	442.726	0.014	-0.031
-709.660	-87.356	-0.193	0.060
-708.645	-155.309	-0.214	-0.014
-707.631	74.842	-0.243	-0.262
-706.616	800.000	-0.090	0.376
-705.602	603.870	0.090	-0.229
-704.587	310.789	0.050	0.095
-703.572	513.737	-0.046	-0.110
-702.558	-26.603	-0.197	-0.118
-701.543	-52.589	-0.234	0.111
-700.529	182.732	-0.168	0.253
-699.514	-80.650	-0.253	0.086
-698.499	-139.785	0.043	0.005
-697.485	-200.000	0.040	0.201
-696.470	-11.864	-0.258	-0.173
-695.456	-145.017	0.297	-0.028
-694.441	-139.766	0.287	0.031
-693.426	209.427	0.167	0.268
-692.412	800.000	-0.051	-0.204
-691.397	-117.133	0.038	0.007
-690.383	79.284	0.053	0.059
-689.368	-41.412	0.030	0.016
-688.354	800.000	-0.076	0.254
-687.339	172.572	0.196	0.288
-686.324	-99.331	0.156	0.040
-685.310	-25.134	-0.103	0.062
-684.295	-4.111	0.317	0.224
-683.281	-183.490	-0.308	0.005
-682.266	-200.000	-0.018	-0.241
-681.251	175.625	-0.156	-0.232
-680.237	-32.910	0.283	0.161
-679.222	512.485	-0.029	-0.069
-678.208	51.072	-0.102	0.099
-677.193	-200.000	0.027	0.298
-676.178	-199.900	0.177	0.001
-675.164	-200.000	0.028	-0.174
-674.149	61.147	-0.230	-0.233
-673.135	147.474	0.227	0.312
-672.120	217.271	0.365	0.593
-671.105	800.000	0.046	-0.203
-670.091	100.303	-0.104	-0.123
-669.076	503.851	-0.125	-0.297
-668.062	-16.174	-0.244	0.158
-667.047	98.151	-0.051	0.060
-666.032	-126.110	0.370	0.057
-665.018	245.530	0.071	0.122
-664.003	-91.169	-0.389	-0.114
-662.989	800.000	-0.121	-0.366
-661.974	19.534	-0.149	-0.122
-660.959	-60.492	0.044	0.019
-659.945	32.316	-0.270	-0.238
-658.930	95.769	0.135	-0.157
-657.916	-89.228	0.142	0.043
-656.901	55.551	-0.034	0.033
-655.886	800.000	-0.075	0.250
-654.872	283.344	-0.155	-0.283
-653.857	20.889	0.185	-0.153
-652.843	41.108	-0.236	-0.218
-651.828	745.888	-0.030	-0.081
-650.814	-76.311	0.102	0.037
-649.799	-119.986	0.212	0.037
-648.784	-49.166	0.197	-0.096
-647.770	-140.659	-0.180	0.019
-646.755	368.930	-0.138	-0.285
-645.741	-21.413	0.327	-0.204
-644.726	-117.699	0.404	0.074
-643.711	-43.427	-0.169	-0.087
-642.697	800.000	-0.071	-0.205
-641.682	800.000	0.072	-0.228
-640.668	800.000	-0.069	-0.197
-639.653	-123.462	0.304	0.049
-638.638	-83.061	-0.284	0.093
-637.624	706.019	-0.024	-0.065
-636.609	-200.000	0.030	-0.140
-635.595	76.299	0.061	-0.066
-634.580	-200.000	0.009	-0.334
-633.565	-162.002	-0.055	-0.003
-632.551	79.568	-0.104	0.114
-631.536	2.589	-0.245	-0.181
-630.522	83.697	0.254	-0.283
-629.507	-114.229	-0.431	-0.085
-628.492	800.000	0.060	-0.191
-627.478	491.656	-0.101	-0.235
-626.463	-124.750	-0.172	-0.027
-625.449	800.000	0.088	0.298
-624.434	-162.004	-0.091	-0.005
-623.419	308.228	0.137	-0.260
-622.405	-61.776	-0.118	0.050
-621.390	800.000	0.013	-0.039
-620.376	50.110	0.239	-0.230
-619.361	420.827	0.142	-0.311
-618.346	-38.276	0.031	-0.017
-617.332	-200.000	-0.182	-0.001
-616.317	-84.787	-0.032	0.010
-615.303	-125.576	-0.293	-0.045
-614.288	-22.068	-0.213	-0.132
-613.273	-18.579	-0.148	-0.094
-612.259	123.448	0.251	-0.321
-611.244	176.491	-0.160	0.238
-610.230	12.370	0.365	-0.287
-609.215	291.037	0.044	0.081
-608.201	590.617	0.075	-0.188
-607.186	85.091	-0.160	-0.179
-606.171	115.360	0.130	-0.162
-605.157	800.000	0.034	0.146
-604.142	-159.570	-0.072	-0.004
-603.128	-75.500	-0.436	-0.158
-602.113	771.776	0.048	-0.133
-601.098	-200.000	-0.006	-0.088
-600.084	-107.250	-0.165	-0.037
-599.069	-200.000	-0.014	-0.134
-598.055	507.995	0.025	-0.059
-597.040	35.122	0.169	0.151
-596.025	-200.000	-0.004	-0.178
-595.011	17.000	0.085	0.069
-593.996	-15.283	-0.046	-0.030
-592.982	-165.188	0.280	-0.013
-591.967	-155.984	-0.017	-0.001
-590.952	-116.962	-0.168	0.031
-589.938	1.983	0.182	0.133
-588.923	-35.564	-0.151	0.083
-587.909	-75.679	-0.301	0.109
-586.894	509.748	0.209	-0.496
-585.879	-200.000	-0.000	0.134
-584.865	132.959	-0.149	-0.196
-583.850	-200.000	0.019	-0.085
-582.836	-154.783	0.317	0.021
-581.821	-69.793	-0.306	-0.119
-580.806	221.709	-0.043	0.071
-579.792	531.099	0.040	0.097
-578.777	-95.595	0.289	-0.079
-577.763	173.368	0.262	-0.384
-576.748	800.000	-0.035	0.117
-575.733	-49.057	-0.267	-0.130
-574.719	800.000	-0.026	-0.114
-573.704	-200.000	0.017	-0.262
-572.690	800.000	0.039	-0.168
-571.675	-4.207	-0.236	0.166
-570.661	107.697	0.051	-0.061
-569.646	207.727	0.084	-0.134
-568.631	189.886	-0.080	-0.122
-567.617	12.687	-0.115	0.090
-566.602	-44.001	-0.137	0.070
-565.588	68.753	0.114	0.119
-564.573	800.000	-0.043	0.170
-563.558	-67.900	-0.245	-0.097
-562.544	-149.311	-0.210	-0.017
-561.529	167.580	-0.109	-0.158
-560.515	-58.426	0.148	-0.065
-559.500	217.368	-0.122	0.198
-558.485	216.887	0.091	-0.147
-557.471	-200.000	0.029	-0.201
-556.456	481.812	0.056	0.129
-555.442	92.872	0.154	0.177
-554.427	104.837	-0.118	0.141
-553.412	-140.241	-0.434	-0.046
-552.398	-9.316	-0.208	-0.141
-551.383	15.161	0.235	0.188
-550.369	94.938	0.096	-0.111
-549.354	-200.000	0.016	-0.390
-548.339	362.777	-0.177	-0.361
-547.325	-200.000	-0.022	-0.309
-546.310	-165.162	-0.198	-0.009
-545.296	-200.000	-0.001	-0.132
-544.281	-200.000	0.004	0.042
-543.266	360.001	0.157	-0.319
-542.252	65.090	0.294	0.302
-541.237	-200.000	-0.008	0.112
-540.223	430.774	-0.110	0.242
-539.208	-47.933	0.036	-0.018
-538.193	-17.558	-0.202	0.129
-537.179	426.272	-0.135	-0.296
-536.164	-49.993	-0.145	-0.070
-535.150	243.351	-0.136	0.231
-534.135	-47.636	0.106	-0.052
-533.121	-75.735	0.066	0.024
-532.106	-74.117	-0.024	0.009
-531.091	-42.590	-0.113	-0.059
-530.077	-31.146	0.160	0.091
-529.062	15.011	-0.149	-0.119
-528.048	-200.000	-0.023	-0.128
-527.033	243.082	-0.098	0.166
-526.018	-93.767	0.079	0.022
-525.004	-22.262	0.302	-0.186
-523.989	-200.000	0.009	0.120
-522.975	-200.000	-0.013	0.067
-521.960	-119.829	0.053	-0.009
-520.945	-39.048	0.179	0.095
-519.931	-74.588	-0.387	0.141
-518.916	-120.925	-0.293	0.050
-517.902	-21.127	-0.244	0.151
-516.887	-140.007	-0.088	0.009
-515.872	-200.000	0.011	-0.061
-514.858	7.620	0.156	0.119
-513.843	800.000	0.059	0.240
-512.829	-69.225	0.341	0.133
-511.814	183.112	0.101	-0.151
-510.799	-153.566	0.283	0.020
-509.785	-58.122	0.098	-0.043
-508.770	-104.823	-0.203	0.047
-507.756	-200.000	-0.016	-0.099
-506.741	-37.940	0.073	0.039
-505.726	-117.884	0.042	-0.008
-504.712	-200.000	-0.013	0.274
-503.697	-200.000	-0.005	-0.124
-502.683	-81.795	-0.082	0.027
-501.668	800.000	-0.021	-0.068
-500.653	123.504	-0.172	0.219
-499.639	50.579	-0.176	-0.169
-498.624	-81.782	-0.492	-0.164
-497.610	512.934	0.025	-0.060
-496.595	-127.737	0.467	0.068
-495.581	70.183	-0.118	0.123
-494.566	-184.423	-0.425	-0.007
-493.551	202.808	0.191	0.299
-492.537	74.438	0.136	0.145
-491.522	-173.826	0.312	0.009
-490.508	95.938	0.181	-0.210
-489.493	113.522	-0.141	-0.174
-488.478	-115.889	0.080	0.015
-487.464	-40.704	-0.048	-0.025
-486.449	-156.865	0.085	0.005
-485.435	16.071	-0.294	0.235
-484.420	-90.433	-0.132	-0.039
-483.405	-162.642	0.307	-0.015
-482.391	-25.414	0.071	0.043
-481.376	-200.000	0.059	0.351
-480.362	-135.663	-0.252	-0.030
-479.347	-90.140	0.218	-0.064
-478.332	-200.000	-0.041	-0.449
-477.318	-28.605	-0.060	0.035
-476.303	-45.767	0.152	-0.076
-475.289	-200.000	0.038	0.173
-474.274	171.789	0.255	0.372
-473.259	180.863	-0.099	0.147
-472.245	348.070	-0.134	0.268
-471.230	175.030	0.165	0.242
-470.216	403.968	-0.040	-0.085
-469.201	58.362	0.241	-0.239
-468.186	326.792	-0.041	-0.080
-467.172	-171.895	-0.090	0.003
-466.157	-113.947	-0.280	-0.055
-465.143	-64.530	-0.379	-0.156
-464.128	1.503	0.312	0.228
-463.113	-200.000	-0.021	0.447
-462.099	-200.000	-0.032	0.190
-461.084	375.953	0.084	0.174
-460.070	-47.922	0.226	0.111
-459.055	-200.000	-0.005	-0.173
-458.040	170.647	-0.158	0.229
-457.026	-179.082	0.287	-0.007
-456.011	800.000	-0.095	-0.310
-454.997	-9.484	-0.048	-0.033
-453.982	-130.799	-0.275	0.037
-452.968	-31.659	-0.164	-0.093
-451.953	-38.796	0.234	0.125
-450.938	129.024	-0.234	-0.302
-449.924	-153.426	-0.047	-0.003
-448.909	101.752	-0.031	-0.036
-447.895	-175.930	0.223	-0.006
-446.880	-132.537	-0.315	0.041
-445.865	547.079	-0.015	-0.036
-444.851	9.398	0.104	0.080
-443.836	38.351	-0.157	-0.142
-442.822	-159.035	0.047	0.003
-441.807	586.142	-0.025	-0.061
-440.792	-25.091	-0.180	-0.108
-439.778	-129.701	0.206	0.029
-438.763	-200.000	-0.045	0.226
-437.749	800.000	-0.090	-0.374
-436.734	800.000	0.082	-0.272
-435.719	336.606	0.035	-0.069
-434.705	12.486	-0.136	-0.106
-433.690	800.000	0.111	-0.318
-432.676	-101.635	-0.291	0.071
-431.661	-200.000	0.014	-0.164
-430.646	715.493	-0.052	0.140
-429.632	-109.613	0.152	-0.032
-428.617	104.573	0.096	-0.115
-427.603	800.000	-0.054	-0.178
-426.588	-26.228	-0.152	-0.091
-425.573	-60.711	0.170	0.073
-424.559	737.680	0.084	-0.229
-423.544	-136.105	0.430	0.051
-422.530	-60.811	0.249	0.107
-421.515	-98.513	-0.317	-0.082
-420.500	-94.771	0.327	0.090
-419.486	-2.659	-0.288	0.204
-418.471	73.333	0.156	-0.165
-417.457	-7.443	0.352	0.241
-416.442	-200.000	-0.068	-0.313
-415.428	4.329	0.158	-0.117
-414.413	-200.000	-0.013	0.606
-413.398	297.158	-0.010	0.019
-412.384	1.485	0.425	-0.309
-411.369	65.790	0.123	-0.126
-410.355	43.268	-0.136	-0.126
-409.340	336.107	0.066	0.130
-408.325	667.218	-0.087	-0.227
-407.311	-135.720	-0.195	0.023
-406.296	-200.000	0.281	-0.001
-405.282	308.866	0.128	-0.242
-404.267	301.347	-0.080	-0.150
-403.252	374.702	-0.058	0.120
-402.238	-4.802	-0.250	-0.174
-401.223	-163.430	-0.319	-0.015
-400.209	227.640	0.182	0.300
-399.194	-78.850	-0.270	0.093
-398.179	134.201	-0.161	-0.211
-397.165	71.486	0.288	0.303
-396.150	-61.809	0.218	-0.092
-395.136	510.046	0.083	-0.195
-394.121	-200.000	-0.001	0.151
-393.106	-7.213	-0.279	0.191
-392.092	-19.741	0.111	0.069
-391.077	354.549	0.106	-0.213
-390.063	87.433	0.058	0.065
-389.048	470.013	0.148	-0.336
-388.033	5.977	0.393	-0.294
-387.019	800.000	-0.042	0.125
-386.004	-0.259	-0.081	-0.058
-384.990	32.904	-0.105	-0.092
-383.975	-1.251	-0.169	0.120
-382.960	145.474	-0.080	-0.108
-381.946	179.592	0.162	0.239
-380.931	34.658	0.160	-0.141
-379.917	339.713	0.073	0.144
-378.902	-59.457	-0.338	0.147
-377.888	60.051	0.114	0.114
-376.873	800.000	-0.041	0.162
-375.858	349.794	-0.052	-0.105
-374.844	-150.905	-0.128	0.010
-373.829	-154.840	0.143	0.010
-372.815	800.000	-0.106	0.310
-371.800	-200.000	-0.024	0.120
-370.785	-114.844	-0.393	0.076
-369.771	163.210	-0.114	-0.162
-368.756	-140.284	-0.210	-0.022
-367.742	-135.791	0.131	0.016
-366.727	-25.678	0.194	-0.116
-365.712	-100.162	0.221	0.056
-364.698	119.863	0.079	-0.099
-363.683	-155.662	-0.385	0.025
-362.669	617.349	0.033	-0.085
-361.654	-200.000	0.176	-0.001
-360.639	254.410	-0.207	0.357
-359.625	54.300	-0.060	-0.058
-358.610	-93.474	-0.093	-0.026
-357.596	214.770	0.087	-0.139
-356.581	-128.777	-0.175	-0.025
-355.566	-200.000	-0.011	0.094
-354.552	-200.000	-0.000	0.115
-353.537	466.885	-0.052	0.118
-352.523	54.609	0.127	-0.124
-351.508	453.333	-0.057	0.127
-350.493	-166.715	0.240	-0.010
-349.479	-182.384	0.088	0.002
-348.464	-141.746	-0.352	-0.036
-347.450	800.000	-0.092	-0.333
-346.435	-122.357	0.167	-0.028
-345.420	-118.768	0.170	0.030
-344.406	148.506	0.176	0.240
-343.391	-58.969	0.265	-0.115
-342.377	522.006	0.027	0.063
-341.362	426.490	-0.108	-0.234
-340.348	-200.000	0.018	-0.176
-339.333	93.831	0.074	-0.085
-338.318	591.548	-0.105	0.262
-337.304	-6.604	0.107	0.073
-336.289	800.000	0.026	-0.094
-335.275	-200.000	0.021	-0.229
-334.260	13.711	0.172	0.135
-333.245	37.129	-0.154	-0.137
-332.231	468.447	-0.035	0.080
-331.216	242.218	-0.072	0.121
-330.202	-200.000	-0.041	0.271
-329.187	-200.000	0.017	0.330
-328.172	-23.176	0.150	-0.091
-327.158	-123.309	0.340	0.055
-326.143	-81.743	0.132	-0.044
-325.129	-111.241	0.078	-0.016
-324.114	72.969	-0.153	0.161
-323.099	-54.872	-0.192	0.087
-322.085	-200.000	-0.020	-0.094
-321.070	754.623	-0.120	-0.327
-320.056	29.755	-0.163	0.140
-319.041	305.849	0.119	-0.223
-318.026	-2.763	-0.166	0.117
-317.012	-200.000	-0.023	-0.107
-315.997	24.363	0.125	0.104
-314.983	800.000	-0.058	0.183
-313.968	800.000	-0.070	0.250
-312.953	539.636	0.031	-0.075
-311.939	-21.775	-0.138	0.085
-310.924	-85.088	0.208	0.065
-309.910	-24.110	0.302	-0.182
-308.895	-112.978	0.152	-0.030
-307.880	13.305	0.198	0.155
-306.866	-200.000	-0.009	-0.255
-305.851	537.029	0.033	0.078
-304.837	800.000	-0.006	-0.018
-303.822	-200.000	-0.007	-0.125
-302.807	-74.887	0.321	-0.116
-301.793	-81.836	-0.248	-0.082
-300.778	233.612	0.141	-0.234
-299.764	32.799	0.170	0.148
-298.749	800.000	-0.081	-0.233
-297.735	-66.014	0.164	0.066
-296.720	-77.848	0.106	0.037
-295.705	-35.920	0.282	0.154
-294.691	-157.288	-0.027	0.002
-293.676	-72.876	0.263	0.097
-292.662	-200.000	0.019	0.093
-291.647	-200.000	-0.004	-0.036
-290.632	23.992	-0.189	-0.157
-289.618	-142.235	-0.037	0.004
-288.603	-66.056	0.080	0.032
-287.589	-87.557	-0.062	0.019
-286.574	-59.375	0.169	-0.073
-285.559	800.000	-0.069	-0.229
-284.545	542.651	-0.063	-0.151
-283.530	-122.961	-0.045	0.007
-282.516	61.481	0.350	0.350
-281.501	800.000	-0.079	0.303
-280.486	-106.106	-0.241	-0.054
-279.472	122.475	0.132	-0.166
-278.457	47.803	0.082	0.077
-277.443	-200.000	0.012	0.283
-276.428	-200.000	0.004	-0.443
-275.413	-2.280	0.055	0.039
-274.399	-98.092	0.589	-0.153
-273.384	-86.995	0.098	0.030
-272.370	83.449	-0.115	-0.126
-271.355	14.659	0.011	0.008
-270.340	576.993	0.112	-0.275
-269.326	-200.000	0.023	0.240
-268.311	62.947	-0.153	0.154
-267.297	441.046	0.098	0.216
-266.282	11.442	-0.200	0.154
-265.267	89.289	-0.130	0.146
-264.253	-147.318	0.179	0.015
-263.238	8.279	-0.170	0.128
-262.224	800.000	0.147	0.496
-261.209	184.438	-0.078	0.117
-260.195	-43.686	0.229	0.116
-259.180	-200.000	0.010	0.201
-258.165	800.000	0.100	0.341
-257.151	-200.000	-0.019	0.143
-256.136	12.407	-0.197	0.153
-255.122	-200.000	0.025	-0.242
-254.107	251.706	0.273	0.466
-253.092	33.154	-0.131	0.114
-252.078	-56.216	-0.156	0.070
-251.063	-7.126	0.194	0.132
-250.049	-28.800	-0.284	0.164
-249.034	449.288	0.066	0.145
-248.019	224.877	-0.150	-0.244
-247.005	800.000	-0.077	-0.295
-245.990	168.355	-0.108	-0.155
-244.976	108.704	0.164	0.197
-243.961	-200.000	-0.055	0.385
-242.946	-99.606	0.227	0.057
-241.932	-132.416	-0.246	-0.032
-240.917	738.529	-0.084	0.227
-239.903	800.000	-0.019	-0.054
-238.888	-82.176	0.289	-0.095
-237.873	-60.224	0.147	0.063
-236.859	9.750	0.154	-0.117
-235.844	-200.000	0.003	-0.325
-234.830	-82.263	-0.049	0.016
-233.815	-106.809	-0.094	0.021
-232.800	-65.703	-0.123	0.050
-231.786	-200.000	0.009	-0.184
-230.771	242.589	0.177	0.298
-229.757	430.078	-0.166	0.360
-228.742	328.268	-0.096	0.185
-227.727	86.752	-0.142	-0.158
-226.713	111.582	0.356	0.432
-225.698	-87.030	-0.113	-0.034
-224.684	287.679	-0.150	-0.272
-223.669	-111.299	-0.315	-0.065
-222.655	-200.000	0.011	-0.161
-221.640	-46.857	-0.300	0.147
-220.625	-200.000	-0.027	0.159
-219.611	43.332	0.117	0.107
-218.596	-66.134	-0.436	0.175
-217.582	133.993	-0.158	0.205
-216.567	-200.000	0.003	0.021
-215.552	554.695	0.131	0.316
-214.538	-200.000	0.024	0.228
-213.523	32.765	0.164	0.142
-212.509	800.000	-0.084	0.357
-211.494	243.842	0.195	-0.328
-210.479	-113.554	-0.244	0.048
-209.465	-171.304	0.220	-0.007
-208.450	-200.000	0.023	0.145
-207.436	281.761	-0.223	0.401
-206.421	331.074	-0.015	0.029
-205.406	6.273	-0.267	-0.199
-204.392	-171.231	-0.223	0.008
-203.377	-84.454	0.214	0.068
-202.363	-7.252	-0.155	0.106
-201.348	-155.053	-0.411	-0.027
-200.333	394.664	0.140	-0.292
-199.319	53.954	0.134	0.129
-198.304	-134.845	0.122	0.015
-197.290	-139.209	0.208	0.022
-196.275	-20.060	-0.253	-0.156
-195.260	800.000	-0.082	-0.235
-194.246	212.305	-0.055	0.087
-193.231	-41.619	0.218	0.112
-192.217	74.581	-0.183	-0.193
-191.202	-200.000	-0.051	0.398
-190.187	800.000	-0.039	0.162
-189.173	211.239	0.202	0.319
-188.158	-151.351	0.266	0.020
-187.144	-7.546	-0.208	-0.141
-186.129	120.651	-0.192	0.240
-185.114	712.313	-0.050	0.132
-184.100	54.091	0.117	-0.113
-183.085	38.565	-0.320	0.286
-182.071	62.937	-0.008	-0.008
-181.056	-128.940	-0.087	-0.012
-180.042	-150.955	0.380	0.029
-179.027	56.481	-0.210	0.205
-178.012	-119.047	0.122	0.021
-176.998	259.582	0.089	-0.154
-175.983	-200.000	-0.065	-0.304
-174.969	-184.143	0.269	0.004
-173.954	-33.698	-0.217	0.120
-172.939	800.000	-0.110	0.373
-171.925	-73.941	-0.219	0.080
-170.910	76.190	-0.083	0.088
-169.896	-200.000	0.020	-0.311
-168.881	-143.984	0.076	-0.007
-167.866	210.229	0.174	-0.274
-166.852	-106.142	-0.419	0.094
-165.837	-200.000	-0.037	-0.205
-164.823	-0.832	0.248	-0.176
-163.808	57.694	0.244	0.239
-162.793	-200.000	0.011	0.174
-161.779	800.000	0.058	-0.185
-160.764	-48.089	-0.099	-0.048
-159.750	-200.000	0.006	0.148
-158.735	-108.341	0.285	0.061
-157.720	629.559	0.066	0.168
-156.706	-49.702	-0.227	0.108
-155.691	-11.079	0.084	0.056
-154.677	800.000	-0.105	0.306
-153.662	167.157	-0.099	-0.140
-152.647	382.146	0.130	-0.266
-151.633	384.684	0.104	-0.214
-150.618	115.038	0.172	-0.211
-149.604	-92.196	-0.234	0.066
-148.589	155.571	0.120	-0.166
-147.574	239.595	0.084	0.139
-146.560	279.076	0.292	0.521
-145.545	-115.605	-0.008	-0.002
-144.531	-129.775	-0.166	0.023
-143.516	-200.000	-0.064	0.312
-142.502	-200.000	-0.014	-0.428
-141.487	800.000	0.042	-0.181
-140.472	-62.930	-0.361	0.149
-139.458	800.000	0.060	0.258
-138.443	800.000	0.015	0.057
-137.429	-173.661	0.137	0.004
-136.414	-76.492	-0.227	-0.080
-135.399	47.442	0.426	0.397
-134.385	800.000	-0.083	0.237
-133.370	-85.340	-0.250	0.078
-132.356	80.098	0.129	0.138
-131.341	131.837	-0.177	-0.228
-130.326	-81.617	0.368	-0.121
-129.312	-152.842	0.307	-0.022
-128.297	-128.905	0.289	-0.041
-127.283	132.936	0.128	0.165
-126.268	271.062	-0.156	0.275
-125.253	-200.000	0.263	0.000
-124.239	-50.314	-0.244	0.115
-123.224	4.191	-0.294	-0.215
-122.210	-104.022	-0.279	0.065
-121.195	-76.598	-0.232	-0.081
-120.180	-116.432	0.064	-0.012
-119.166	800.000	-0.133	-0.515
-118.151	-84.498	0.159	-0.050
-117.137	-111.248	0.199	-0.041
-116.122	14.420	0.220	-0.172
-115.107	116.215	-0.140	0.172
-114.093	25.192	-0.112	0.093
-113.078	-90.558	-0.063	-0.018
-112.064	247.435	0.159	0.269
-111.049	-115.346	-0.089	0.017
-110.034	-200.000	0.043	0.324
-109.020	800.000	0.053	0.223
-108.005	-72.420	0.192	0.071
-106.991	-200.000	-0.003	0.123
-105.976	691.748	-0.112	0.293
-104.962	649.460	-0.051	-0.130
-103.947	800.000	0.092	0.378
-102.932	-115.437	0.247	0.047
-101.918	-84.770	-0.297	-0.093
-100.903	-169.513	-0.316	0.012
-99.889	205.229	0.065	-0.101
-98.874	-200.000	0.010	-0.050
-97.859	-200.000	0.073	-0.352
-96.845	-142.738	0.264	-0.026
-95.830	-182.440	0.492	0.009
-94.816	-96.977	-0.445	0.116
-93.801	800.000	0.065	0.234
-92.786	-52.488	0.069	0.032
-91.772	432.438	-0.059	-0.128
-90.757	-200.000	0.011	-0.230
-89.743	-140.892	0.403	-0.041
-88.728	-118.824	0.101	-0.018
-87.713	-123.787	0.174	-0.027
-86.699	-200.000	-0.004	-0.085
-85.684	-147.914	-0.295	0.025
-84.670	87.691	-0.145	0.160
-83.655	-85.378	-0.395	-0.123
-82.640	800.000	-0.050	-0.174
-81.626	800.000	-0.039	0.149
-80.611	583.247	-0.068	0.167
-79.597	98.248	-0.025	0.028
-78.582	-43.313	0.168	-0.085
-77.567	800.000	0.016	0.055
-76.553	-96.645	0.166	0.044
-75.538	-31.135	-0.182	0.102
-74.524	-169.725	0.299	0.011
-73.509	-200.000	0.020	0.351
-72.494	394.349	-0.062	0.130
-71.480	68.077	0.072	-0.073
-70.465	123.120	-0.104	0.130
-69.451	6.532	-0.147	0.109
-68.436	-102.922	0.092	0.022
-67.422	226.027	-0.164	-0.265
-66.407	-200.000	0.005	0.354
-65.392	-102.290	-0.218	-0.052
-64.378	404.029	0.037	-0.077
-63.363	357.796	-0.092	-0.183
-62.349	-166.609	0.055	-0.002
-61.334	85.070	-0.474	-0.519
-60.319	-200.000	-0.002	0.247
-59.305	-200.000	-0.012	-0.616
-58.290	175.460	0.436	0.631
-57.276	537.823	0.676	1.601
-56.261	-200.000	75.911	540.789
-55.246	566.620	1305.078	3158.097
-54.232	146.540	2530.964	3389.959
-53.217	122.250	2232.628	2780.759
-52.203	54.666	1750.656	1683.315
-51.188	46.614	1545.802	1430.698
-50.173	43.569	1516.149	1382.411
-49.159	60.343	1552.116	1531.185
-48.144	67.270	1571.097	1597.489
-47.130	47.001	1534.607	1422.774
-46.115	43.214	1520.287	1383.532
-45.100	42.911	1517.020	1378.427
-44.086	42.917	1514.999	1376.581
-43.071	42.875	1513.168	1374.578
-42.057	42.816	1511.474	1372.581
-41.042	42.841	1509.598	1370.994
-40.027	42.860	1508.597	1370.159
-39.013	42.914	1506.676	1368.722
-37.998	42.896	1505.690	1367.656
-36.984	42.837	1504.699	1366.295
-35.969	42.942	1502.983	1365.396
-34.954	42.941	1501.884	1364.338
-33.940	42.938	1499.995	1362.545
-32.925	43.002	1498.469	1361.541
-31.911	43.045	1496.984	1360.427
-30.896	43.050	1495.867	1359.392
-29.881	43.086	1494.470	1358.310
-28.867	43.067	1493.444	1357.196
-27.852	43.064	1492.048	1355.853
-26.838	43.074	1490.426	1354.393
-25.823	42.976	1488.988	1352.374
-24.809	42.909	1487.069	1350.132
-23.794	42.907	1485.600	1348.725
-22.779	42.990	1484.344	1348.093
-21.765	42.905	1483.656	1346.841
-20.750	43.060	1482.459	1346.738
-19.736	42.959	1481.333	1344.991
-18.721	42.914	1479.987	1343.415
-17.706	42.908	1478.863	1342.300
-16.692	42.790	1478.076	1340.748
-15.677	42.935	1476.565	1340.284
-14.663	42.917	1475.521	1339.164
-13.648	42.904	1474.870	1338.438
-12.633	42.855	1474.249	1337.495
-11.619	42.958	1473.586	1337.524
-10.604	42.878	1472.491	1335.946
-9.590	42.902	1471.459	1335.117
-8.575	42.840	1470.916	1334.161
-7.560	42.903	1470.014	1333.702
-6.546	42.942	1468.781	1332.794
-5.531	42.909	1468.049	1331.857
-4.517	42.957	1466.976	1331.144
-3.502	42.848	1466.174	1329.644
-2.487	42.942	1464.485	1328.683
-1.473	42.928	1463.247	1327.413
-0.458	43.015	1462.298	1327.075
0.556	42.007	1452.699	1313.548
1.571	38.264	1424.171	1263.504
2.586	33.588	1360.805	1178.209
3.600	31.121	1278.685	1092.584
4.615	29.251	1230.332	1040.625
5.629	24.349	1172.769	965.394
6.644	12.296	1081.803	829.877
7.659	2.998	1034.725	748.568
8.673	1.480	1028.844	736.893
9.688	1.313	1025.949	733.947
10.702	1.004	1024.529	731.373
11.717	1.124	1023.070	730.847
12.731	4.832	1027.963	752.215
13.746	15.418	1042.737	814.591
14.761	22.838	1052.048	857.994
15.775	23.888	1052.053	863.020
16.790	23.998	1051.717	863.201
17.804	23.817	1050.900	861.576
18.819	23.620	1050.300	860.052
19.834	23.598	1049.640	859.331
20.848	23.765	1048.808	859.380
21.863	23.730	1048.802	859.131
22.877	23.768	1048.337	858.860
23.892	23.704	1047.682	857.936
24.907	23.576	1046.828	856.542
25.921	23.625	1045.897	855.944
26.936	23.719	1045.455	855.960
27.950	23.635	1044.286	854.521
28.965	23.530	1043.338	853.165
29.980	23.570	1041.496	851.774
30.994	23.560	1040.163	850.562
32.009	23.690	1039.243	850.358
33.023	23.717	1038.966	850.185
34.038	23.700	1037.890	849.147
35.053	23.553	1036.840	847.510
36.067	23.686	1036.336	847.658
37.082	23.650	1035.576	846.791
38.096	23.690	1034.927	846.374
39.111	23.883	1034.443	846.824
40.126	24.023	1033.673	846.784
41.140	23.912	1032.163	844.943
42.155	23.825	1030.424	843.036
43.169	23.310	1029.799	840.006
44.184	23.331	1028.703	839.136
45.199	23.430	1027.303	838.389
46.213	23.322	1026.971	837.535
47.228	23.280	1025.819	836.320
48.242	23.537	1025.049	836.833
49.257	23.612	1024.648	836.784
50.271	23.706	1023.263	836.021
51.286	23.711	1023.397	836.079
52.301	23.766	1022.768	835.753
53.315	23.787	1021.661	834.874
54.330	23.800	1021.047	834.357
55.344	23.658	1020.304	833.011
56.359	23.674	1019.639	832.468
57.374	23.634	1018.915	831.616
58.388	23.551	1017.528	830.025
59.403	23.478	1017.067	829.233
60.417	23.500	1016.129	828.495
61.432	23.353	1015.266	827.035
62.447	23.328	1014.795	826.461
63.461	23.458	1014.228	826.529
64.476	23.450	1013.646	825.946
65.490	23.447	1012.589	825.000
66.505	23.361	1011.460	823.606
67.520	23.384	1010.859	823.148
68.534	23.565	1009.694	822.969
69.549	23.260	1009.157	821.042
70.563	23.080	1007.952	819.160
71.578	22.825	1007.155	817.258
72.593	23.055	1006.158	817.438
73.607	22.832	1005.148	815.518
74.622	22.963	1004.413	815.451
75.636	23.164	1003.601	815.649
76.651	23.252	1002.795	815.326
77.666	23.280	1001.547	814.366
78.680	23.019	1001.264	812.866
79.695	23.052	1000.734	812.516
80.709	23.168	999.712	812.144
81.724	23.240	999.093	811.901
82.739	23.337	998.445	811.747
83.753	23.241	997.584	810.538
84.768	23.696	997.166	812.205
85.782	23.858	996.745	812.533
86.797	24.010	996.102	812.632
87.812	24.010	994.982	811.644
88.826	23.972	993.534	810.220
89.841	23.803	993.283	809.174
90.855	23.871	992.416	808.706
91.870	23.913	991.967	808.456
92.884	23.936	990.819	807.553
93.899	23.921	990.209	806.919
94.914	23.842	988.756	805.306
95.928	23.805	988.484	804.844
96.943	23.975	987.182	804.480
97.957	23.580	986.162	801.792
98.972	23.420	985.601	800.544
99.987	23.294	984.319	798.866
101.001	23.331	983.419	798.231
102.016	23.580	983.012	798.949
103.030	23.645	982.175	798.494
104.045	23.553	981.342	797.329
105.060	23.433	979.870	795.524
106.074	23.232	979.242	794.043
107.089	23.373	978.023	793.619
108.103	23.648	977.807	794.604
109.118	23.669	976.916	793.901
110.133	23.444	975.866	791.973
111.147	23.401	975.096	791.086
112.162	23.484	973.293	789.926
113.176	23.268	971.879	787.748
114.191	23.246	972.238	787.870
115.206	23.410	971.336	787.799
116.220	23.025	969.886	784.845
117.235	22.932	969.320	783.904
118.249	23.070	968.398	783.701
119.264	23.199	967.471	783.450
120.279	23.032	966.829	782.124
121.293	22.974	966.362	781.421
122.308	23.096	965.902	781.516
123.322	23.059	965.040	780.589
124.337	23.185	963.383	779.733
125.352	23.103	962.259	778.394
126.366	22.759	961.315	776.050
127.381	22.347	959.420	772.641
128.395	22.823	959.299	774.565
129.410	23.341	959.427	776.873
130.424	23.571	958.812	777.312
131.439	23.439	957.847	775.885
132.454	23.510	956.485	775.023
133.468	23.643	955.465	774.707
134.483	23.606	954.955	774.066
135.497	23.580	954.483	773.499
136.512	23.774	953.858	773.770
137.527	23.807	952.907	773.072
138.541	23.931	952.039	772.840
139.556	23.795	951.858	772.033
140.570	23.724	950.840	770.834
141.585	23.927	949.679	770.703
142.600	23.995	949.024	770.396
143.614	23.891	948.496	769.450
144.629	23.836	948.061	768.789
145.643	24.170	947.102	769.389
146.658	24.103	946.171	768.273
147.673	23.842	944.860	766.018
148.687	23.832	943.710	764.975
149.702	23.810	942.520	763.850
150.716	23.623	941.885	762.464
151.731	23.673	940.673	761.630
152.746	23.674	939.965	760.992
153.760	23.939	939.103	761.363
154.775	23.907	938.682	760.815
155.789	24.044	937.909	760.710
156.804	23.912	937.049	759.379
157.819	23.933	935.987	758.540
158.833	23.971	935.096	757.914
159.848	24.041	934.526	757.682
160.862	24.038	933.550	756.810
161.877	23.937	932.784	755.695
162.892	23.878	931.656	754.465
163.906	23.943	931.055	754.188
164.921	23.931	930.091	753.286
165.935	23.805	929.433	752.154
166.950	23.912	927.891	751.291
167.964	24.033	927.131	751.123
168.979	23.897	926.092	749.639
169.994	23.929	924.874	748.724
171.008	23.769	924.075	747.336
172.023	23.901	923.306	747.202
173.037	24.138	922.783	747.708
174.052	23.766	921.791	745.280
175.067	23.642	920.544	743.683
176.081	23.617	920.159	743.205
177.096	23.810	918.858	742.893
178.110	23.627	918.577	741.838
179.125	23.493	917.203	740.102
180.140	23.336	916.184	738.559
181.154	23.370	915.649	738.205
182.169	23.379	915.353	737.939
183.183	23.653	914.789	738.556
184.198	24.008	914.611	739.825
185.213	23.834	913.993	738.537
186.227	23.821	913.054	737.660
187.242	23.748	913.203	737.409
188.256	23.892	912.025	736.992
189.271	23.896	911.210	736.284
190.286	24.011	910.375	736.018
191.300	23.878	909.720	734.876
192.315	23.431	908.173	731.715
193.329	22.590	906.836	727.108
194.344	22.096	905.984	724.322
195.359	22.698	906.013	726.762
196.373	23.665	906.117	730.764
197.388	23.925	905.987	731.663
198.402	23.795	905.155	730.393
199.417	23.741	904.482	729.565
200.432	23.884	904.289	729.930
201.446	23.590	903.582	728.090
202.461	23.461	902.497	726.621
203.475	23.514	902.168	726.513
204.490	23.123	900.790	723.735
205.504	21.997	898.607	717.323
206.519	22.270	898.449	718.246
207.534	23.319	898.794	722.742
208.548	23.442	898.490	722.933
209.563	23.716	898.640	724.108
210.577	23.884	897.316	723.661
211.592	23.526	896.641	721.596
212.607	23.856	896.730	722.949
213.621	23.993	896.214	723.024
214.636	23.933	895.555	722.183
215.650	24.073	894.727	722.022
216.665	24.099	894.290	721.709
217.680	23.886	893.799	720.387
218.694	23.965	893.451	720.361
219.709	23.700	892.492	718.452
220.723	23.406	891.420	716.341
221.738	23.517	891.076	716.448
222.753	23.728	890.642	716.885
223.767	23.824	889.746	716.490
224.782	23.874	889.014	716.039
225.796	24.129	888.278	716.406
226.811	24.157	888.146	716.351
227.826	23.781	886.809	713.699
228.840	22.885	885.665	709.118
229.855	22.818	884.951	708.217
230.869	23.029	884.465	708.611
231.884	22.767	883.588	706.795
232.899	22.730	883.253	706.318
233.913	23.557	883.321	709.618
234.928	23.804	882.854	710.169
235.942	23.752	881.991	709.204
236.957	23.778	881.217	708.620
237.972	23.487	880.414	706.752
238.986	23.242	879.844	705.257
240.001	23.458	879.355	705.661
241.015	23.467	878.914	705.282
242.030	23.401	878.339	704.498
243.045	23.803	877.702	705.520
244.059	23.717	877.349	704.832
245.074	24.066	876.620	705.569
246.088	23.955	875.597	704.240
247.103	23.661	874.725	702.314
248.117	23.474	874.521	701.350
249.132	24.002	874.684	703.505
250.147	24.376	874.549	704.812
251.161	24.481	873.763	704.532
252.176	24.673	873.294	704.850
253.190	24.565	872.775	703.942
254.205	24.637	871.999	703.535
255.220	25.007	871.666	704.661
256.234	24.986	871.019	703.996
257.249	24.840	870.146	702.654
258.263	24.495	870.066	701.171
259.278	24.669	869.025	700.951
260.293	24.795	868.726	701.143
261.307	24.881	868.222	701.010
262.322	24.594	867.466	699.217
263.336	24.611	866.787	698.675
264.351	24.193	865.221	695.716
265.366	23.195	863.061	690.032
266.380	22.534	862.362	686.837
267.395	23.371	863.087	690.616
268.409	24.157	863.247	693.745
269.424	24.103	862.698	693.034
270.439	24.270	862.454	693.424
271.453	24.387	861.607	693.135
272.468	24.403	860.914	692.581
273.482	24.620	860.231	692.813
274.497	24.842	859.843	693.297
275.512	24.607	858.800	691.487
276.526	24.009	857.491	688.058
277.541	24.117	857.483	688.410
278.555	24.612	857.080	689.934
279.570	24.409	856.383	688.530
280.585	24.152	855.844	687.045
281.599	24.297	855.166	687.000
282.614	24.370	854.828	686.947
283.628	23.864	853.860	684.164
284.643	23.635	852.866	682.425
285.657	23.992	852.901	683.763
286.672	23.961	852.247	683.061
287.687	23.453	851.327	680.313
288.701	23.746	851.326	681.379
289.716	24.251	850.763	682.801
290.730	23.921	850.077	680.926
291.745	23.750	848.946	679.309
292.760	23.738	848.170	678.580
293.774	23.467	848.149	677.470
294.789	24.212	848.262	680.343
295.803	24.954	848.499	683.305
296.818	25.068	847.810	683.124
297.833	25.113	847.361	682.875
298.847	24.794	846.484	680.894
299.862	24.576	845.286	679.042
300.876	24.648	844.935	678.973
301.891	24.900	844.763	679.730
302.906	25.109	843.977	679.833
303.920	24.634	843.297	677.425
304.935	24.497	842.351	676.084
305.949	24.916	842.050	677.369
306.964	24.995	841.245	676.960
307.979	24.986	840.278	676.089
308.993	24.746	840.209	675.069
310.008	25.137	840.092	676.386
311.022	25.247	839.718	676.443
312.037	25.124	839.114	675.434
313.052	24.830	838.501	673.772
314.066	24.757	837.799	672.875
315.081	24.127	836.639	669.516
316.095	23.218	834.885	664.642
317.110	23.686	835.019	666.445
318.125	24.600	835.317	670.053
319.139	24.382	834.431	668.469
320.154	23.252	832.805	662.877
321.168	22.817	831.731	660.336
322.183	23.268	831.910	662.108
323.197	24.199	832.065	665.652
324.212	24.667	832.102	667.371
325.227	24.692	831.584	666.991
326.241	24.763	831.436	667.076
327.256	24.636	830.935	666.141
328.270	24.674	830.008	665.481
329.285	24.697	829.051	664.742
330.300	24.485	828.560	663.501
331.314	24.169	827.769	661.637
332.329	24.198	827.236	661.259
333.343	24.655	826.621	662.402
334.358	24.837	826.826	663.184
335.373	24.805	826.097	662.419
336.387	24.928	825.734	662.527
337.402	25.246	825.429	663.397
338.416	25.275	825.031	663.129
339.431	25.256	824.117	662.264
340.446	25.257	823.632	661.820
341.460	25.560	823.296	662.608
342.475	25.543	822.552	661.886
343.489	25.332	821.984	660.597
344.504	25.287	821.351	659.863
345.519	25.341	821.537	660.153
346.533	25.761	820.920	661.142
347.548	25.852	820.132	660.782
348.562	25.873	819.866	660.584
349.577	25.863	819.249	659.993
350.592	25.812	818.563	659.197
351.606	25.779	818.004	658.568
352.621	25.717	817.682	658.023
353.635	25.593	817.364	657.256
354.650	25.323	817.001	655.920
355.665	25.193	815.778	654.404
356.679	24.102	814.091	649.020
357.694	23.974	813.759	648.229
358.708	24.703	813.437	650.572
359.723	24.622	813.110	649.957
360.738	24.860	812.692	650.429
361.752	25.243	812.802	651.852
362.767	25.307	812.487	651.775
363.781	25.706	812.006	652.778
364.796	25.894	812.204	653.563
365.810	26.133	811.373	653.702
366.825	26.102	811.285	653.461
367.840	26.004	810.886	652.725
368.854	25.900	810.274	651.801
369.869	25.330	809.460	649.027
370.883	25.242	808.805	648.128
371.898	25.431	808.503	648.509
372.913	25.420	807.302	647.452
373.927	25.307	806.989	646.733
374.942	25.345	806.679	646.567
375.956	25.601	805.725	646.663
376.971	25.793	805.370	647.013
377.986	25.729	805.148	646.547
379.000	25.917	804.684	646.793
380.015	26.100	804.162	646.970
381.029	25.940	803.656	645.933
382.044	25.772	802.991	644.742
383.059	25.991	802.547	645.110
384.073	26.032	802.074	644.820
385.088	26.128	801.224	644.423
386.102	26.073	800.867	643.880
387.117	25.896	800.160	642.624
388.132	25.684	799.811	641.531
389.146	25.541	799.370	640.611
390.161	24.987	798.354	637.770
391.175	25.025	797.922	637.504
392.190	25.537	797.661	639.059
393.205	25.584	797.409	638.967
394.219	24.668	795.805	634.377
395.234	23.106	793.712	627.118
396.248	22.358	792.146	623.178
397.263	23.215	793.140	626.942
398.278	25.143	794.289	634.626
399.292	25.649	794.442	636.481
400.307	25.363	793.770	634.876
401.321	25.283	793.214	634.092
402.336	25.458	792.900	634.403
403.350	25.670	792.949	635.135
404.365	26.156	792.713	636.602
405.380	26.412	792.515	637.289
406.394	26.658	792.300	637.929
407.409	26.890	791.620	638.141
408.423	26.748	791.719	637.662
409.438	26.506	791.062	636.227
410.453	26.798	790.299	636.581
411.467	26.665	790.478	636.204
412.482	26.655	789.340	635.196
413.496	26.465	789.373	634.499
414.511	26.848	788.529	635.107
415.526	26.722	788.527	634.608
416.540	26.684	788.236	634.186
417.555	26.559	787.413	633.029
418.569	26.482	786.509	631.979
419.584	26.320	785.917	630.880
420.599	26.454	785.768	631.173
421.613	90.105	1249.875	1341.902
422.628	76.653	1317.516	1342.016
