DTS Sentinel unit serial number:	SN413079Multiplexer serial number:	ORYXHardware model number:	OX4-SRSoftware version number:	ORYX F/W v4.00 Oryx Data Collector v3.7.2.0data status	okinstallation	princeton_trtdifferential loss correction	single-endedforward channel	channel 3reverse channel	N/Adate	2019/09/18time	07:44:35forward acquisition time	60.00reverse acquisition time	0.00gamma	496.2192k internal	0.2343k external	0.2343temperature offset calibration	0.9949default loss term (dB/km)	0.3790temperature slope calibration	1.0000multiplexer offset coefficient	1.0000multiplexer slope coefficient	1.0000fibre end	0.00T internal ref (°C)	23.28T ext. ref 1 (°C)	0.20T ext. ref 2 (°C)	18.36length (m)	temperature (°C)	Stokes	anti-Stokes-747.200	44.319	0.169	-0.155
-746.185	335.869	0.042	0.081
-745.171	15.132	-0.060	-0.047
-744.156	-27.962	0.049	0.028
-743.142	-200.000	0.004	-0.104
-742.127	-122.203	-0.366	0.060
-741.112	-164.063	0.469	0.022
-740.098	140.267	-0.222	0.293
-739.083	-147.126	-0.200	-0.017
-738.069	-200.000	0.016	0.175
-737.054	-200.000	0.074	-0.384
-736.039	134.187	-0.040	-0.052
-735.025	625.589	0.211	0.533
-734.010	221.782	0.095	0.152
-732.996	108.951	-0.149	-0.178
-731.981	139.628	-0.174	0.230
-730.966	-200.000	-0.005	0.144
-729.952	340.144	0.145	-0.283
-728.937	-61.081	-0.371	-0.157
-727.923	65.517	0.203	-0.205
-726.908	-41.685	-0.258	0.133
-725.894	-100.872	-0.328	0.081
-724.879	83.061	-0.230	-0.250
-723.864	318.074	0.210	-0.398
-722.850	-39.961	-0.322	-0.168
-721.835	-200.000	-0.062	-0.611
-720.821	-25.783	0.171	-0.101
-719.806	11.545	-0.298	-0.228
-718.791	-200.000	-0.007	-0.248
-717.777	244.207	-0.099	0.166
-716.762	-122.826	-0.207	-0.033
-715.748	620.029	0.171	0.431
-714.733	-137.163	-0.293	-0.033
-713.718	800.000	0.101	0.315
-712.704	800.000	-0.119	-0.339
-711.689	-200.000	0.033	-0.206
-710.675	-9.105	-0.218	-0.146
-709.660	152.017	0.028	-0.038
-708.645	72.244	-0.033	0.035
-707.631	-200.000	0.038	-0.181
-706.616	-124.276	-0.178	-0.028
-705.602	-77.323	0.348	-0.121
-704.587	800.000	0.037	-0.150
-703.572	241.729	0.312	-0.521
-702.558	-123.278	0.243	-0.039
-701.543	-149.427	0.195	0.015
-700.529	-136.591	0.165	0.019
-699.514	668.953	0.049	0.126
-698.499	234.753	0.225	0.371
-697.485	-54.617	0.157	0.071
-696.470	-200.000	-0.029	0.285
-695.456	-38.776	-0.332	-0.175
-694.441	-123.172	0.232	-0.037
-693.426	-58.605	-0.125	-0.054
-692.412	800.000	-0.032	-0.139
-691.397	-149.673	-0.472	0.037
-690.383	-61.207	0.283	0.119
-689.368	-19.196	0.325	-0.201
-688.354	-200.000	-0.012	-0.187
-687.339	-101.640	-0.235	-0.057
-686.324	101.363	0.249	0.290
-685.310	92.441	-0.229	0.258
-684.295	129.616	-0.010	-0.012
-683.281	800.000	0.024	-0.070
-682.266	800.000	0.036	-0.099
-681.251	-121.551	-0.412	0.068
-680.237	159.147	-0.248	-0.344
-679.222	-67.898	0.196	0.076
-678.208	35.363	0.278	0.244
-677.193	800.000	-0.057	0.190
-676.178	-93.010	0.081	0.023
-675.164	-200.000	-0.012	-0.178
-674.149	337.746	0.136	0.263
-673.135	322.128	0.076	-0.144
-672.120	222.099	0.075	0.121
-671.105	800.000	-0.055	-0.162
-670.091	800.000	0.087	-0.281
-669.076	-70.553	0.158	-0.060
-668.062	-83.028	-0.229	0.074
-667.047	-200.000	-0.001	-0.415
-666.032	-200.000	-0.002	-0.111
-665.018	51.846	0.123	-0.117
-664.003	-109.911	0.129	0.027
-662.989	754.627	-0.091	0.247
-661.974	-44.925	-0.202	-0.101
-660.959	-52.741	0.063	-0.029
-659.945	-113.880	0.161	-0.031
-658.930	-109.597	0.367	-0.077
-657.916	-200.000	-0.007	0.312
-656.901	689.714	-0.065	-0.169
-655.886	215.645	0.101	-0.160
-654.872	94.367	-0.109	0.123
-653.857	482.410	-0.033	0.074
-652.843	94.454	-0.110	0.124
-651.828	-200.000	-0.055	-0.330
-650.814	-146.116	-0.320	-0.028
-649.799	800.000	-0.086	-0.337
-648.784	-97.529	-0.291	-0.075
-647.770	-200.000	0.018	0.369
-646.755	-200.000	-0.017	0.123
-645.741	-200.000	0.049	-0.317
-644.726	-75.942	0.283	-0.100
-643.711	800.000	0.007	0.019
-642.697	-32.970	0.232	0.128
-641.682	677.940	0.106	-0.275
-640.668	-200.000	-0.402	0.001
-639.653	800.000	-0.070	-0.266
-638.638	-200.000	0.005	0.116
-637.624	-200.000	-0.001	-0.150
-636.609	388.258	-0.069	-0.143
-635.595	800.000	-0.077	0.320
-634.580	58.292	0.223	0.218
-633.565	411.010	-0.179	-0.379
-632.551	774.366	0.129	-0.351
-631.536	-175.050	0.079	0.002
-630.522	800.000	0.078	0.309
-629.507	-200.000	0.003	0.055
-628.492	-137.947	-0.096	-0.011
-627.478	256.032	0.232	0.397
-626.463	92.873	0.199	-0.224
-625.449	798.377	-0.049	-0.136
-624.434	14.743	-0.104	0.081
-623.419	800.000	0.028	-0.095
-622.405	324.992	-0.115	0.219
-621.390	-115.803	-0.044	0.008
-620.376	350.130	-0.039	0.077
-619.361	-200.000	0.015	0.166
-618.346	124.412	0.173	-0.217
-617.332	-83.512	-0.316	-0.101
-616.317	-147.884	-0.112	-0.009
-615.303	-174.175	-0.290	0.008
-614.288	-200.000	0.060	-0.478
-613.273	-66.298	-0.263	-0.104
-612.259	800.000	-0.113	-0.354
-611.244	-38.035	-0.029	-0.015
-610.230	23.154	-0.106	-0.086
-609.215	-200.000	-0.022	0.117
-608.201	-126.023	-0.248	-0.037
-607.186	110.586	-0.058	-0.069
-606.171	-10.414	-0.182	0.120
-605.157	-145.662	0.326	-0.029
-604.142	50.565	-0.194	-0.183
-603.128	83.777	-0.027	-0.030
-602.113	492.548	-0.150	-0.343
-601.098	15.305	0.285	0.223
-600.084	42.939	-0.267	0.243
-599.069	1.150	-0.183	-0.131
-598.055	165.448	0.237	-0.334
-597.040	90.517	-0.117	-0.130
-596.025	-16.341	0.209	-0.132
-595.011	-127.852	-0.105	0.015
-593.996	-32.756	-0.397	0.220
-592.982	-78.545	-0.271	-0.092
-591.967	148.084	0.129	-0.174
-590.952	365.677	0.092	-0.184
-589.938	-200.000	0.014	0.245
-588.923	-12.143	-0.110	-0.072
-587.909	-42.967	-0.071	-0.036
-586.894	-200.000	0.029	-0.132
-585.879	657.044	0.055	-0.140
-584.865	352.046	-0.053	0.104
-583.850	-113.752	0.254	0.049
-582.836	-200.000	-0.020	-0.153
-581.821	90.247	0.100	0.111
-580.806	2.176	0.373	-0.268
-579.792	171.990	0.072	-0.103
-578.777	-68.550	-0.152	-0.059
-577.763	-95.292	-0.290	-0.078
-576.748	800.000	0.088	0.308
-575.733	-169.191	-0.124	-0.005
-574.719	122.262	-0.205	0.254
-573.704	800.000	-0.094	0.330
-572.690	532.740	0.063	-0.148
-571.675	-118.387	0.072	0.013
-570.661	88.216	0.183	-0.202
-569.646	800.000	-0.061	-0.202
-568.631	-200.000	0.028	0.297
-567.617	71.944	0.139	0.143
-566.602	800.000	-0.111	-0.398
-565.588	-200.000	-0.033	0.296
-564.573	-200.000	0.004	-0.094
-563.558	-200.000	-0.021	0.541
-562.544	-170.864	0.134	0.005
-561.529	135.976	-0.111	-0.143
-560.515	571.420	0.117	-0.283
-559.500	-46.729	-0.200	0.098
-558.485	376.368	-0.080	-0.162
-557.471	78.078	-0.117	0.124
-556.456	198.994	-0.081	-0.123
-555.442	-200.000	0.367	-0.001
-554.427	128.221	-0.149	-0.189
-553.412	264.513	0.076	-0.132
-552.398	-90.624	0.230	-0.066
-551.383	162.745	0.035	-0.048
-550.369	-94.447	0.403	-0.109
-549.354	427.708	0.052	-0.111
-548.339	-200.000	0.012	0.148
-547.325	-27.696	0.474	0.273
-546.310	198.348	0.171	0.260
-545.296	396.158	0.083	-0.172
-544.281	-27.089	-0.251	0.145
-543.266	-8.645	0.233	0.155
-542.252	-57.065	-0.210	0.092
-541.237	137.653	-0.093	0.121
-540.223	-200.000	-0.026	-0.181
-539.208	-200.000	-0.020	0.184
-538.193	-174.947	-0.409	0.011
-537.179	90.462	-0.125	-0.139
-536.164	-118.567	0.634	0.111
-535.150	-83.715	0.152	0.048
-534.135	-16.363	-0.322	-0.203
-533.121	35.412	0.144	0.125
-532.106	177.381	-0.121	-0.175
-531.091	-18.572	0.304	-0.188
-530.077	114.944	-0.143	-0.174
-529.062	-103.258	0.229	0.054
-528.048	374.377	0.127	-0.257
-527.033	-120.893	-0.165	0.027
-526.018	295.202	0.050	-0.091
-525.004	11.559	0.150	-0.114
-523.989	183.782	-0.130	0.191
-522.975	189.018	0.093	-0.139
-521.960	800.000	0.100	-0.432
-520.945	33.581	0.141	0.122
-519.931	115.585	-0.118	0.144
-518.916	146.543	0.148	0.197
-517.902	-120.548	-0.224	0.038
-516.887	-107.826	-0.171	-0.037
-515.872	102.478	0.121	-0.141
-514.858	-141.302	-0.209	0.021
-513.843	53.974	-0.140	0.134
-512.829	152.584	-0.052	0.071
-511.814	-106.158	0.046	0.010
-510.799	-200.000	-0.062	-0.366
-509.785	-141.443	0.084	0.008
-508.770	-36.405	0.024	-0.013
-507.756	-200.000	0.017	-0.213
-506.741	-200.000	0.047	-0.222
-505.726	-200.000	-0.054	0.239
-504.712	-200.000	0.007	-0.365
-503.697	-86.850	0.069	-0.021
-502.683	-169.960	-0.152	0.005
-501.668	0.532	0.245	-0.174
-500.653	-96.948	-0.458	-0.119
-499.639	113.816	-0.170	0.205
-498.624	-53.176	-0.344	-0.157
-497.610	-26.439	0.184	-0.107
-496.595	-200.000	-0.008	0.261
-495.581	-146.981	-0.120	0.010
-494.566	-91.227	0.092	0.026
-493.551	-86.295	0.041	-0.013
-492.537	109.372	-0.242	-0.287
-491.522	-200.000	-0.043	0.455
-490.508	-32.485	-0.082	0.045
-489.493	33.692	-0.122	-0.105
-488.478	281.448	-0.154	-0.274
-487.464	-8.690	-0.150	0.100
-486.449	292.576	0.099	-0.178
-485.435	-200.000	0.034	-0.187
-484.420	-52.168	-0.094	-0.043
-483.405	84.290	-0.260	-0.281
-482.391	118.915	0.134	-0.164
-481.376	-88.256	-0.075	-0.022
-480.362	-176.656	0.195	0.005
-479.347	-136.052	-0.165	-0.019
-478.332	-62.606	0.162	-0.067
-477.318	-200.000	-0.012	-0.292
-476.303	370.195	-0.120	0.242
-475.289	94.132	0.263	-0.295
-474.274	800.000	0.067	-0.198
-473.259	-10.624	0.258	0.169
-472.245	800.000	0.079	0.291
-471.230	-4.697	-0.283	-0.193
-470.216	-93.656	-0.577	-0.158
-469.201	219.653	0.158	0.250
-468.186	800.000	-0.091	0.353
-467.172	27.199	0.012	-0.010
-466.157	-200.000	-0.081	0.409
-465.143	46.054	-0.289	-0.265
-464.128	92.595	-0.214	-0.239
-463.113	61.072	0.182	0.178
-462.099	-19.482	-0.345	0.212
-461.084	83.819	-0.135	0.146
-460.070	-200.000	0.024	-0.293
-459.055	-49.585	0.197	0.093
-458.040	-200.000	0.062	0.577
-457.026	-41.270	0.215	0.109
-456.011	219.769	-0.127	0.201
-454.997	-124.913	-0.351	0.054
-453.982	-129.342	-0.128	-0.018
-452.968	-200.000	-0.069	-0.350
-451.953	25.735	-0.207	0.170
-450.938	800.000	0.044	-0.138
-449.924	800.000	-0.054	-0.231
-448.909	174.300	0.155	0.222
-447.895	800.000	0.085	0.330
-446.880	-110.879	-0.072	-0.015
-445.865	161.853	-0.189	-0.261
-444.851	-139.505	0.075	0.008
-443.836	16.641	0.307	0.240
-442.822	3.923	-0.031	-0.022
-441.807	-22.943	-0.084	-0.050
-440.792	-154.668	0.367	0.024
-439.778	-200.000	0.011	-0.087
-438.763	461.770	0.082	0.180
-437.749	463.213	0.117	0.258
-436.734	-137.292	-0.103	0.012
-435.719	-200.000	-0.030	0.152
-434.705	-114.850	-0.184	-0.035
-433.690	800.000	0.068	0.207
-432.676	-200.000	-0.025	0.132
-431.661	-177.858	0.148	-0.004
-430.646	374.478	0.099	-0.199
-429.632	627.311	-0.083	-0.208
-428.617	101.849	-0.165	0.191
-427.603	444.179	0.059	0.129
-426.588	-200.000	-0.006	-0.179
-425.573	506.672	0.029	0.067
-424.559	0.753	0.276	0.195
-423.544	800.000	0.107	-0.463
-422.530	41.220	0.272	-0.243
-421.515	262.081	-0.222	-0.381
-420.500	-25.829	0.239	-0.139
-419.486	-62.133	-0.122	-0.050
-418.471	-20.573	-0.382	-0.232
-417.457	-17.085	0.421	0.262
-416.442	50.628	0.232	-0.217
-415.428	441.349	-0.108	-0.234
-414.413	477.154	0.079	0.177
-413.398	218.765	0.089	0.140
-412.384	46.053	0.198	0.181
-411.369	-65.435	-0.207	-0.082
-410.355	236.933	0.189	-0.309
-409.340	13.048	-0.122	0.093
-408.325	188.920	0.186	0.275
-407.311	-114.980	0.139	0.026
-406.296	27.021	0.048	-0.040
-405.282	489.332	-0.159	-0.360
-404.267	-200.000	0.003	0.136
-403.252	-200.000	0.035	-0.294
-402.238	249.886	-0.295	0.495
-401.223	52.702	-0.170	0.161
-400.209	-29.288	0.166	0.094
-399.194	26.408	-0.213	-0.176
-398.179	-132.041	-0.225	-0.029
-397.165	317.212	0.185	-0.346
-396.150	-200.000	0.017	-0.154
-395.136	-38.424	-0.095	0.050
-394.121	403.178	-0.072	-0.149
-393.106	-200.000	-0.005	-0.111
-392.092	-200.000	-0.015	0.186
-391.077	8.839	0.357	0.266
-390.063	-47.915	-0.081	0.039
-389.048	597.952	-0.038	0.093
-388.033	311.330	-0.054	0.100
-387.019	-15.151	-0.163	-0.103
-386.004	47.125	-0.227	-0.208
-384.990	286.938	-0.032	0.058
-383.975	364.952	0.098	0.194
-382.960	316.463	-0.105	0.196
-381.946	234.941	0.071	0.115
-380.931	-160.938	-0.292	0.015
-379.917	47.421	-0.222	-0.204
-378.902	292.611	-0.026	-0.046
-377.888	165.305	-0.200	0.278
-376.873	206.004	0.044	-0.067
-375.858	90.797	0.146	0.161
-374.844	-100.696	0.240	0.058
-373.829	153.028	-0.154	-0.207
-372.815	521.271	0.117	-0.272
-371.800	176.418	-0.203	0.292
-370.785	34.463	-0.223	0.192
-369.771	800.000	0.092	0.337
-368.756	-112.137	-0.144	0.029
-367.742	387.723	0.158	0.323
-366.727	66.122	-0.072	0.072
-365.712	170.690	-0.042	-0.059
-364.698	-200.000	0.009	-0.344
-363.683	727.898	-0.115	0.304
-362.669	12.964	0.044	0.034
-361.654	-33.355	0.109	0.059
-360.639	40.132	-0.200	-0.177
-359.625	189.401	0.051	-0.075
-358.610	295.150	-0.191	0.345
-357.596	-125.285	-0.134	-0.020
-356.581	-93.533	-0.099	0.027
-355.566	-32.020	0.087	-0.048
-354.552	-95.794	-0.213	-0.056
-353.537	-141.198	0.296	0.030
-352.523	-200.000	0.014	0.206
-351.508	-113.367	-0.320	-0.062
-350.493	326.928	0.159	-0.301
-349.479	446.225	-0.124	0.269
-348.464	76.732	0.058	0.061
-347.450	-102.660	0.353	-0.083
-346.435	-68.982	0.171	0.065
-345.420	216.348	-0.025	-0.038
-344.406	-156.583	0.349	-0.021
-343.391	-200.000	0.047	0.238
-342.377	-51.581	0.072	-0.033
-341.362	182.599	0.091	-0.132
-340.348	-40.539	0.099	0.051
-339.333	-65.504	-0.301	0.119
-338.318	183.062	0.126	-0.183
-337.304	-57.399	0.245	-0.106
-336.289	800.000	0.055	-0.222
-335.275	-200.000	-0.033	0.179
-334.260	221.132	0.159	0.252
-333.245	-88.609	-0.276	-0.081
-332.231	0.619	-0.087	0.061
-331.216	-150.334	0.166	0.013
-330.202	-34.228	0.196	-0.106
-329.187	251.542	0.044	0.073
-328.172	-200.000	-0.029	0.205
-327.158	-154.216	-0.224	-0.015
-326.143	-5.330	0.215	0.146
-325.129	-155.621	0.120	-0.008
-324.114	-200.000	0.001	-0.169
-323.099	179.608	-0.153	-0.221
-322.085	19.656	0.202	0.160
-321.070	-158.079	0.065	-0.004
-320.056	-200.000	-0.009	-0.221
-319.041	-146.651	0.378	-0.032
-318.026	800.000	-0.106	0.371
-317.012	-21.506	-0.142	-0.085
-315.997	-200.000	0.080	0.351
-314.983	101.802	0.285	0.328
-313.968	657.668	-0.055	0.139
-312.953	87.461	0.093	0.102
-311.939	16.604	0.258	-0.201
-310.924	-9.870	-0.135	0.088
-309.910	28.083	-0.042	0.035
-308.895	-200.000	-0.049	-0.251
-307.880	-200.000	0.002	0.213
-306.866	800.000	0.160	0.466
-305.851	223.567	0.138	-0.219
-304.837	-106.689	-0.044	-0.010
-303.822	-200.000	0.034	-0.199
-302.807	230.959	-0.069	-0.111
-301.793	277.051	0.055	0.097
-300.778	-42.251	-0.088	-0.044
-299.764	-192.148	-0.115	0.001
-298.749	-200.000	-0.035	0.238
-297.735	-5.981	0.246	-0.165
-296.720	-89.523	0.353	0.102
-295.705	-190.413	-0.135	-0.001
-294.691	-200.000	-0.024	0.223
-293.676	36.024	-0.102	-0.088
-292.662	-200.000	0.030	-0.165
-291.647	-200.000	-0.008	-0.230
-290.632	-200.000	-0.018	-0.221
-289.618	-94.422	-0.150	-0.040
-288.603	249.079	-0.116	0.193
-287.589	-85.176	-0.084	0.026
-286.574	486.173	-0.058	0.131
-285.559	-22.990	0.103	0.061
-284.545	115.244	0.179	-0.215
-283.530	800.000	0.089	0.249
-282.516	-130.628	-0.052	0.007
-281.501	32.284	0.305	-0.259
-280.486	554.872	-0.051	-0.121
-279.472	120.820	0.163	0.199
-278.457	-28.837	0.190	-0.108
-277.443	33.872	-0.262	0.225
-276.428	-200.000	0.028	-0.177
-275.413	11.052	-0.026	0.019
-274.399	716.643	0.089	0.231
-273.384	800.000	0.144	0.465
-272.370	-95.753	0.348	0.092
-271.355	800.000	-0.040	0.139
-270.340	-200.000	-0.066	-0.394
-269.326	22.692	0.234	-0.188
-268.311	53.441	0.103	-0.097
-267.297	-153.306	-0.272	-0.019
-266.282	-200.000	-0.031	0.400
-265.267	505.445	-0.144	0.329
-264.253	217.475	-0.183	0.286
-263.238	115.951	-0.215	-0.259
-262.224	-76.341	0.117	0.040
-261.209	-32.157	0.061	0.033
-260.195	800.000	0.024	0.069
-259.180	657.851	0.052	-0.131
-258.165	-58.007	0.219	-0.094
-257.151	-62.873	-0.255	-0.104
-256.136	-20.047	-0.163	-0.099
-255.122	-200.000	-0.004	-0.107
-254.107	-200.000	-0.000	0.089
-253.092	800.000	-0.025	-0.104
-252.078	32.245	0.149	0.126
-251.063	800.000	0.019	-0.055
-250.049	-104.964	-0.303	-0.068
-249.034	373.552	0.104	-0.208
-248.019	-200.000	-0.029	-0.276
-247.005	72.099	-0.128	-0.131
-245.990	213.930	0.106	-0.165
-244.976	800.000	-0.073	0.263
-243.961	-74.188	0.155	-0.055
-242.946	-40.176	0.121	0.062
-241.932	170.325	-0.093	0.130
-240.917	-52.830	-0.182	0.082
-239.903	-93.904	0.207	0.056
-238.888	-187.978	-0.102	-0.001
-237.873	113.291	0.086	-0.103
-236.859	545.752	0.083	-0.194
-235.844	42.268	-0.092	-0.082
-234.830	16.402	-0.147	0.114
-233.815	-14.046	0.088	0.056
-232.800	404.798	-0.031	-0.064
-231.786	-40.956	-0.172	0.087
-230.771	719.308	-0.043	0.111
-229.757	240.401	0.070	0.114
-228.742	-4.343	0.195	0.133
-227.727	48.923	0.113	-0.104
-226.713	-120.154	-0.410	-0.069
-225.698	508.869	-0.095	-0.216
-224.684	-2.788	0.203	-0.139
-223.669	322.465	-0.068	0.127
-222.655	-200.000	-0.007	-0.097
-221.640	534.706	-0.099	0.231
-220.625	-66.089	0.159	0.062
-219.611	-22.947	0.162	-0.096
-218.596	800.000	0.025	-0.077
-217.582	742.517	-0.039	-0.102
-216.567	800.000	0.088	0.293
-215.552	800.000	-0.087	0.359
-214.538	791.985	0.063	-0.170
-213.523	-32.825	-0.098	-0.053
-212.509	-200.000	-0.047	-0.204
-211.494	119.759	-0.181	-0.220
-210.479	508.303	-0.121	0.276
-209.465	-91.341	-0.194	0.054
-208.450	-9.466	-0.169	0.111
-207.436	104.999	0.222	0.257
-206.421	-104.834	0.362	-0.081
-205.406	-200.000	-0.007	0.224
-204.392	546.413	-0.101	-0.236
-203.377	-40.486	0.156	0.080
-202.363	800.000	0.153	0.430
-201.348	-89.034	-0.134	-0.039
-200.333	-180.683	0.165	0.003
-199.319	-37.246	-0.213	0.112
-198.304	-200.000	-0.001	-0.016
-197.290	364.246	-0.044	-0.088
-196.275	-155.619	0.220	0.014
-195.260	125.352	0.149	-0.184
-194.246	-39.388	0.221	0.113
-193.231	-50.216	0.073	-0.034
-192.217	-35.849	-0.112	0.059
-191.202	-27.999	0.250	0.142
-190.187	-200.000	-0.022	-0.172
-189.173	-112.182	-0.408	-0.080
-188.158	-200.000	0.030	-0.184
-187.144	-44.674	-0.170	-0.083
-186.129	541.107	-0.189	0.440
-185.114	-200.000	0.021	0.124
-184.100	-75.148	0.374	-0.131
-183.085	-83.509	-0.419	0.131
-182.071	-140.738	0.135	0.014
-181.056	127.340	0.343	-0.426
-180.042	-76.134	0.292	-0.101
-179.027	5.324	-0.066	0.048
-178.012	-150.792	0.356	0.026
-176.998	248.655	0.161	0.267
-175.983	-31.355	-0.151	-0.083
-174.969	-200.000	-0.017	-0.271
-173.954	-200.000	0.003	-0.112
-172.939	282.969	0.171	-0.301
-171.925	-21.572	0.167	0.099
-170.910	-44.308	0.314	0.154
-169.896	-200.000	-0.009	0.317
-168.881	-173.736	0.177	0.005
-167.866	-122.716	0.148	0.023
-166.852	800.000	0.035	0.140
-165.837	-25.519	0.193	0.112
-164.823	111.620	-0.246	0.291
-163.808	62.210	-0.091	0.089
-162.793	-53.988	0.149	0.066
-161.779	800.000	-0.092	-0.291
-160.764	59.563	-0.253	0.244
-159.750	-200.000	-0.012	0.157
-158.735	-53.547	-0.178	0.080
-157.720	-67.619	-0.260	-0.100
-156.706	-133.538	-0.046	0.006
-155.691	-200.000	-0.013	0.308
-154.677	55.938	0.148	0.140
-153.662	628.908	0.059	0.147
-152.647	43.264	-0.102	-0.091
-151.633	-200.000	-0.041	-0.433
-150.618	-158.656	-0.088	-0.005
-149.604	-63.794	-0.055	0.022
-148.589	344.424	-0.077	0.148
-147.574	2.845	-0.036	-0.026
-146.560	-137.200	-0.140	-0.016
-145.545	800.000	-0.025	-0.078
-144.531	800.000	-0.082	0.222
-143.516	-200.000	-0.034	0.190
-142.502	-46.036	0.201	-0.097
-141.487	290.420	0.230	0.409
-140.472	42.391	-0.210	-0.187
-139.458	147.742	0.031	-0.042
-138.443	-45.602	-0.208	0.100
-137.429	25.014	0.049	0.040
-136.414	-103.384	0.092	0.021
-135.399	-46.778	-0.128	-0.061
-134.385	9.848	0.109	-0.081
-133.370	425.603	0.076	-0.161
-132.356	144.779	0.128	0.168
-131.341	-186.918	0.084	-0.001
-130.326	78.745	0.264	-0.276
-129.312	-87.726	0.180	-0.053
-128.297	-6.953	0.140	0.093
-127.283	139.737	-0.059	-0.076
-126.268	107.563	-0.107	0.124
-125.253	696.364	-0.025	-0.065
-124.239	-200.000	-0.011	-0.208
-123.224	800.000	-0.048	0.161
-122.210	-42.631	0.116	0.058
-121.195	-68.322	0.209	0.079
-120.180	-105.776	0.293	0.065
-119.166	800.000	0.080	0.235
-118.151	-200.000	-0.013	0.212
-117.137	-104.021	0.073	0.017
-116.122	-24.252	0.243	0.142
-115.107	78.787	-0.026	-0.028
-114.093	-200.000	-0.039	0.177
-113.078	57.791	-0.087	-0.083
-112.064	173.112	0.255	-0.359
-111.049	10.277	0.154	-0.114
-110.034	800.000	0.065	0.217
-109.020	-46.080	0.223	0.107
-108.005	-106.668	0.214	-0.046
-106.991	-200.000	0.011	-0.091
-105.976	-105.606	0.123	0.027
-104.962	18.359	0.252	0.197
-103.947	-82.406	0.355	0.113
-102.932	185.105	-0.135	-0.196
-101.918	-93.045	0.058	0.016
-100.903	140.121	0.156	0.201
-99.889	589.913	0.086	-0.207
-98.874	-33.020	-0.308	-0.167
-97.859	-68.342	0.188	-0.071
-96.845	98.769	0.288	0.324
-95.830	-200.000	-0.051	0.321
-94.816	7.978	0.319	-0.234
-93.801	-88.795	0.250	-0.072
-92.786	-172.386	-0.257	-0.008
-91.772	-97.209	0.189	0.048
-90.757	-200.000	-0.133	-0.000
-89.743	-51.545	-0.265	0.121
-88.728	-38.341	0.166	0.086
-87.713	-13.753	-0.326	-0.206
-86.699	-44.572	-0.103	0.050
-85.684	47.792	-0.035	-0.032
-84.670	-103.741	-0.108	-0.025
-83.655	71.528	-0.105	0.106
-82.640	-87.652	-0.028	0.008
-81.626	-78.883	-0.161	0.054
-80.611	8.249	-0.221	-0.162
-79.597	430.076	0.206	0.436
-78.582	-165.788	0.234	0.010
-77.567	16.037	-0.275	0.212
-76.553	-99.108	0.161	-0.040
-75.538	-200.000	-0.022	-0.155
-74.524	-200.000	-0.007	0.128
-73.509	800.000	0.008	0.028
-72.494	175.547	0.177	-0.250
-71.480	-81.101	-0.139	0.045
-70.465	-61.248	0.252	0.103
-69.451	-200.000	0.013	-0.098
-68.436	249.631	0.227	0.375
-67.422	-200.000	-0.034	0.209
-66.407	-139.443	0.150	-0.016
-65.392	800.000	-0.068	-0.219
-64.378	-124.825	-0.440	0.066
-63.363	-2.226	0.227	-0.155
-62.349	709.443	0.087	-0.225
-61.334	12.376	-1.533	-1.151
-60.319	137.138	0.489	0.623
-59.305	388.774	-0.641	-1.294
-58.290	415.112	0.598	1.243
-57.276	358.284	0.732	1.425
-56.261	-200.000	124.186	632.814
-55.246	399.563	1568.646	3203.156
-54.232	142.377	2731.570	3533.209
-53.217	93.713	2188.925	2416.436
-52.203	33.792	1705.696	1445.945
-51.188	26.311	1523.331	1240.186
-50.173	24.323	1499.742	1207.487
-49.159	47.600	1570.795	1427.392
-48.144	45.320	1583.892	1423.378
-47.130	26.449	1532.529	1248.426
-46.115	23.522	1516.443	1215.258
-45.100	23.404	1512.826	1211.501
-44.086	23.317	1511.241	1209.590
-43.071	23.221	1509.645	1207.609
-42.057	23.250	1507.386	1205.951
-41.042	23.255	1505.826	1204.690
-40.027	23.231	1504.471	1203.392
-39.013	23.286	1502.931	1202.487
-37.998	23.205	1501.808	1200.991
-36.984	23.307	1500.401	1200.513
-35.969	23.297	1499.044	1199.313
-34.954	23.338	1497.453	1198.267
-33.940	23.259	1495.936	1196.475
-32.925	23.187	1495.260	1195.400
-31.911	23.269	1493.633	1194.603
-30.896	23.261	1492.848	1193.871
-29.881	23.449	1490.885	1193.522
-28.867	23.395	1489.662	1192.132
-27.852	23.399	1487.879	1190.687
-26.838	23.310	1487.002	1189.341
-25.823	23.303	1485.190	1187.799
-24.809	23.356	1483.761	1186.960
-23.794	23.254	1482.156	1184.950
-22.779	23.260	1480.954	1183.980
-21.765	23.345	1480.330	1184.001
-20.750	23.321	1478.920	1182.666
-19.736	23.388	1477.696	1182.087
-18.721	23.216	1477.030	1180.364
-17.706	23.355	1475.517	1180.033
-16.692	23.283	1475.049	1179.129
-15.677	23.247	1474.036	1178.038
-14.663	23.267	1472.878	1177.192
-13.648	23.254	1472.128	1176.466
-12.633	23.241	1471.025	1175.446
-11.619	23.330	1470.031	1175.201
-10.604	23.236	1469.123	1173.802
-9.590	23.209	1468.454	1173.041
-8.575	23.287	1467.014	1172.364
-7.560	23.226	1466.716	1171.674
-6.546	23.236	1465.784	1170.946
-5.531	23.206	1465.049	1170.119
-4.517	23.229	1463.738	1169.175
-3.502	23.244	1462.751	1168.436
-2.487	23.376	1461.787	1168.493
-1.473	23.236	1461.161	1167.026
-0.458	23.326	1459.555	1166.284
0.556	21.701	1449.739	1155.476
1.571	18.797	1426.011	1117.599
2.586	15.533	1365.166	1049.452
3.600	14.174	1281.833	977.330
4.615	13.362	1238.006	939.218
5.629	11.526	1181.827	886.563
6.644	5.722	1099.588	795.412
7.659	0.986	1063.687	746.080
8.673	0.311	1058.184	738.848
9.688	0.197	1055.199	736.141
10.702	0.113	1054.127	734.916
11.717	0.169	1051.436	733.249
12.731	2.058	1052.726	743.290
13.746	8.447	1061.282	780.552
14.761	14.399	1068.859	815.254
15.775	16.555	1071.226	827.545
16.790	16.391	1069.842	825.601
17.804	15.470	1067.927	819.560
18.819	14.735	1065.773	814.252
19.834	14.079	1064.762	810.211
20.848	13.994	1063.479	808.747
21.863	13.644	1063.353	806.877
22.877	13.527	1062.144	805.323
23.892	13.143	1061.608	802.978
24.907	13.117	1060.610	802.024
25.921	13.156	1059.764	801.503
26.936	13.242	1059.232	801.445
27.950	13.143	1058.820	800.587
28.965	13.298	1057.592	800.335
29.980	13.250	1056.938	799.538
30.994	13.295	1055.663	798.718
32.009	13.369	1055.195	798.652
33.023	13.410	1054.590	798.320
34.038	13.499	1053.952	798.196
35.053	13.435	1052.950	797.061
36.067	13.381	1051.990	796.001
37.082	13.334	1051.442	795.289
38.096	13.351	1050.281	794.423
39.111	13.314	1049.591	793.652
40.126	13.402	1048.573	793.236
41.140	13.386	1047.982	792.644
42.155	13.238	1047.142	791.229
43.169	13.257	1045.957	790.355
44.184	13.288	1044.800	789.556
45.199	13.153	1043.325	787.727
46.213	13.123	1042.788	787.110
47.228	13.127	1042.099	786.540
48.242	13.181	1040.864	785.797
49.257	13.201	1039.981	785.155
50.271	13.219	1038.995	784.429
51.286	13.283	1037.580	783.591
52.301	13.231	1037.242	783.021
53.315	13.392	1036.106	782.858
54.330	13.330	1035.475	782.015
55.344	13.170	1034.731	780.628
56.359	13.308	1033.261	780.102
57.374	13.210	1032.308	778.851
58.388	13.255	1031.951	778.727
59.403	13.040	1031.447	777.262
60.417	13.109	1030.087	776.495
61.432	13.170	1029.439	776.223
62.447	13.079	1028.608	775.101
63.461	13.226	1027.784	775.103
64.476	13.154	1027.449	774.442
65.490	13.025	1026.103	772.756
66.505	13.128	1025.275	772.544
67.520	13.163	1024.363	771.955
68.534	13.189	1023.326	771.225
69.549	13.257	1022.404	770.782
70.563	13.225	1022.138	770.364
71.578	13.207	1021.193	769.496
72.593	13.157	1020.486	768.665
73.607	13.126	1019.319	767.572
74.622	13.120	1018.393	766.782
75.636	13.121	1017.693	766.189
76.651	13.051	1017.175	765.407
77.666	13.075	1016.305	764.798
78.680	13.017	1015.452	763.817
79.695	13.153	1014.681	763.801
80.709	13.149	1014.323	763.446
81.724	13.279	1013.629	763.453
82.739	13.235	1012.360	762.229
83.753	13.184	1011.873	761.559
84.768	13.286	1010.940	761.259
85.782	13.354	1010.165	760.919
86.797	13.366	1009.580	760.467
87.812	13.306	1008.915	759.623
88.826	13.330	1007.947	758.936
89.841	13.360	1006.788	758.135
90.855	13.408	1006.106	757.777
91.870	13.380	1005.568	757.175
92.884	13.354	1004.481	756.170
93.899	13.428	1003.987	756.069
94.914	13.438	1003.049	755.343
95.928	13.458	1002.161	754.700
96.943	13.501	1001.806	754.560
97.957	13.402	1000.937	753.386
98.972	13.307	1000.343	752.444
99.987	13.359	999.642	752.085
101.001	13.332	998.726	751.207
102.016	13.420	997.792	750.835
103.030	13.482	996.666	750.203
104.045	13.403	996.355	749.547
105.060	13.392	995.070	748.464
106.074	13.355	993.931	747.371
107.089	13.243	993.331	746.350
108.103	13.175	992.729	745.526
109.118	13.228	991.960	745.117
110.133	13.134	991.168	744.034
111.147	13.314	989.843	743.786
112.162	13.386	988.676	743.167
113.176	13.260	988.020	742.042
114.191	13.372	986.969	741.691
115.206	13.258	986.331	740.631
116.220	13.327	985.731	740.426
117.235	13.361	984.580	739.648
118.249	13.335	983.954	738.995
119.264	13.309	982.838	737.974
120.279	13.319	981.843	737.209
121.293	13.244	981.589	736.618
122.308	13.392	980.194	736.162
123.322	13.254	979.557	735.007
124.337	13.236	978.431	734.016
125.352	13.294	977.564	733.561
126.366	13.205	976.528	732.321
127.381	13.253	975.171	731.453
128.395	13.239	974.136	730.549
129.410	13.205	973.303	729.712
130.424	13.272	972.441	729.294
131.439	13.313	971.306	728.558
132.454	13.268	970.711	727.852
133.468	13.283	969.902	727.248
134.483	13.233	969.223	726.452
135.497	13.446	968.402	726.710
136.512	13.341	968.024	725.901
137.527	13.339	966.931	725.008
138.541	13.316	966.303	724.373
139.556	13.226	965.715	723.475
140.570	13.260	964.815	722.884
141.585	13.322	964.119	722.566
142.600	13.410	963.652	722.538
143.614	13.474	962.802	722.116
144.629	13.481	962.167	721.606
145.643	13.486	961.026	720.710
146.658	13.556	960.092	720.248
147.673	13.439	959.242	719.039
148.687	13.485	958.363	718.517
149.702	13.449	957.592	717.720
150.716	13.538	956.800	717.446
151.731	13.509	955.677	716.415
152.746	13.378	955.333	715.530
153.760	13.473	954.355	715.142
154.775	13.476	954.199	714.978
155.789	13.633	952.975	714.674
156.804	13.553	952.162	713.654
157.819	13.524	951.288	712.810
158.833	13.517	951.144	712.612
159.848	13.678	950.329	712.629
160.862	13.650	949.472	711.806
161.877	13.639	948.554	711.004
162.892	13.684	947.749	710.533
163.906	13.498	946.995	709.107
164.921	13.546	946.298	708.729
165.935	13.612	945.066	708.025
166.950	13.555	944.372	707.199
167.964	13.610	943.529	706.739
168.979	13.710	942.112	706.040
169.994	13.645	941.065	704.916
171.008	13.548	940.988	704.384
172.023	13.703	939.617	703.955
173.037	13.726	939.010	703.535
174.052	13.758	937.926	702.796
175.067	13.795	937.144	702.305
176.081	13.731	936.598	701.564
177.096	13.773	935.564	700.906
178.110	13.489	935.439	699.549
179.125	13.700	934.272	699.503
180.140	13.726	933.356	698.867
181.154	13.721	932.980	698.502
182.169	13.718	932.471	698.045
183.183	13.745	931.696	697.517
184.198	13.837	931.112	697.407
185.213	13.838	930.196	696.660
186.227	13.826	929.428	695.973
187.242	13.737	929.641	695.701
188.256	13.847	928.462	695.215
189.271	13.864	927.562	694.553
190.286	13.934	926.620	694.078
191.300	13.862	925.875	693.157
192.315	13.663	925.686	692.124
193.329	13.710	924.957	691.714
194.344	13.765	924.395	691.461
195.359	13.856	923.852	691.374
196.373	14.012	922.987	691.311
197.388	14.036	922.097	690.685
198.402	14.103	921.824	690.699
199.417	14.059	921.533	690.236
200.432	14.094	921.386	690.212
201.446	14.015	920.673	689.287
202.461	14.189	920.094	689.512
203.475	14.104	919.963	689.005
204.490	14.234	918.892	688.676
205.504	14.084	918.684	687.842
206.519	14.104	917.380	686.884
207.534	14.238	916.841	686.974
208.548	13.982	916.051	685.264
209.563	14.093	915.287	685.091
210.577	14.076	914.807	684.602
211.592	14.222	914.012	684.547
212.607	14.232	913.157	683.885
213.621	14.181	912.677	683.256
214.636	14.237	911.931	682.870
215.650	14.302	911.488	682.741
216.665	14.333	910.819	682.309
217.680	14.445	909.949	682.054
218.694	14.306	909.817	681.328
219.709	14.268	909.639	680.978
220.723	14.369	908.699	680.626
221.738	14.441	907.651	680.076
222.753	14.377	906.754	679.080
223.767	14.551	906.636	679.640
224.782	14.324	905.556	677.848
225.796	14.516	904.976	678.135
226.811	14.471	904.109	677.244
227.826	14.366	903.813	676.533
228.840	14.453	902.757	676.038
229.855	14.440	901.947	675.317
230.869	14.419	901.732	675.014
231.884	14.432	901.162	674.577
232.899	14.535	899.942	674.022
233.913	14.499	899.483	673.474
234.928	14.453	898.950	672.830
235.942	14.458	898.017	672.090
236.957	14.551	897.672	672.149
237.972	14.512	896.569	671.106
238.986	14.518	896.116	670.730
240.001	14.450	895.764	670.133
241.015	14.561	895.021	669.965
242.030	14.536	894.400	669.342
243.045	14.605	893.460	668.856
244.059	14.595	893.059	668.458
245.074	14.513	892.609	667.730
246.088	14.655	891.852	667.673
247.103	14.664	891.267	667.215
248.117	14.673	890.741	666.798
249.132	14.690	890.083	666.313
250.147	14.732	889.710	666.141
251.161	14.731	889.345	665.805
252.176	14.849	888.206	665.365
253.190	14.916	887.091	664.735
254.205	14.851	886.914	664.285
255.220	15.082	885.944	664.418
256.234	14.943	885.640	663.579
257.249	14.912	885.057	662.960
258.263	14.953	884.519	662.661
259.278	15.014	883.838	662.333
260.293	15.035	883.222	661.896
261.307	14.930	882.841	661.138
262.322	15.196	881.695	661.270
263.336	15.055	881.607	660.591
264.351	15.162	880.776	660.331
265.366	15.178	880.251	659.942
266.380	15.050	879.904	659.120
267.395	15.207	879.196	659.150
268.409	15.167	877.933	657.984
269.424	15.104	877.509	657.363
270.439	15.241	876.537	657.115
271.453	15.121	876.150	656.296
272.468	15.184	874.947	655.582
273.482	15.270	874.349	655.413
274.497	15.121	874.366	654.784
275.512	15.181	873.264	654.136
276.526	15.152	872.914	653.701
277.541	15.142	872.368	653.196
278.555	15.223	871.582	652.868
279.570	15.364	870.473	652.528
280.585	15.261	870.472	652.069
281.599	15.437	869.607	652.045
282.614	15.404	869.057	651.449
283.628	15.420	868.247	650.844
284.643	15.290	867.802	649.951
285.657	15.368	867.400	649.892
286.672	15.521	866.623	649.846
287.687	15.365	866.397	649.014
288.701	15.513	865.788	649.072
289.716	15.462	865.423	648.545
290.730	15.403	864.874	647.851
291.745	15.524	864.409	647.909
292.760	15.458	863.250	646.729
293.774	15.525	862.721	646.536
294.789	15.592	862.080	646.255
295.803	15.595	861.244	645.582
296.818	15.444	860.882	644.676
297.833	15.515	860.287	644.444
298.847	15.463	859.749	643.785
299.862	15.475	859.188	643.352
300.876	15.606	858.254	643.098
301.891	15.552	857.857	642.539
302.906	15.610	857.251	642.247
303.920	15.901	856.166	642.490
304.935	15.700	855.796	641.390
305.949	15.819	855.279	641.396
306.964	15.839	854.345	640.717
307.979	15.861	853.586	640.176
308.993	15.893	853.453	640.140
310.008	15.790	852.889	639.268
311.022	15.989	852.200	639.450
312.037	15.843	852.064	638.737
313.052	15.948	850.795	638.126
314.066	15.858	850.530	637.531
315.081	15.820	849.877	636.845
316.095	15.869	849.564	636.738
317.110	15.923	848.799	636.311
318.125	16.060	848.245	636.359
319.139	15.908	847.627	635.263
320.154	15.783	847.304	634.494
321.168	15.957	846.693	634.634
322.183	15.920	846.140	634.024
323.197	15.990	845.682	633.888
324.212	15.965	845.220	633.395
325.227	16.046	844.305	632.955
326.241	16.042	843.984	632.646
327.256	16.008	843.422	632.038
328.270	15.993	843.113	631.697
329.285	16.021	842.707	631.442
330.300	16.090	841.518	630.754
331.314	15.997	841.302	630.184
332.329	15.940	840.813	629.552
333.343	16.049	839.934	629.243
334.358	16.029	839.596	628.862
335.373	16.172	838.873	628.796
336.387	16.073	838.496	628.091
337.402	16.165	837.926	627.948
338.416	16.171	837.682	627.735
339.431	16.244	836.888	627.356
340.446	16.274	835.988	626.737
341.460	16.318	835.457	626.447
342.475	16.430	834.751	626.277
343.489	16.343	834.556	625.752
344.504	16.417	833.879	625.464
345.519	16.421	833.435	625.089
346.533	16.457	832.817	624.702
347.548	16.523	832.426	624.599
348.562	16.519	831.554	623.873
349.577	16.534	831.132	623.557
350.592	16.321	830.880	622.528
351.606	16.283	830.888	622.338
352.621	16.543	829.837	622.453
353.635	16.395	829.203	621.380
354.650	16.546	828.934	621.678
355.665	16.436	828.441	620.850
356.679	16.337	828.230	620.271
357.694	16.428	827.572	620.060
358.708	16.489	826.971	619.778
359.723	16.477	826.284	619.164
360.738	16.453	825.658	618.551
361.752	16.525	825.332	618.515
362.767	16.400	825.269	617.957
363.781	16.612	824.499	618.099
364.796	16.615	824.100	617.758
365.810	16.762	823.671	617.916
366.825	16.719	823.243	617.385
367.840	16.817	823.231	617.676
368.854	16.693	822.629	616.722
369.869	16.669	822.139	616.212
370.883	16.812	821.753	616.386
371.898	16.747	820.963	615.505
372.913	16.619	820.550	614.676
373.927	16.787	819.369	614.346
374.942	16.815	818.849	614.003
375.956	16.790	818.694	613.740
376.971	16.866	817.827	613.311
377.986	16.910	817.432	613.122
379.000	16.800	817.110	612.426
380.015	17.031	816.219	612.541
381.029	17.053	815.592	612.094
382.044	17.052	815.023	611.609
383.059	16.971	814.669	610.997
384.073	17.053	814.144	610.844
385.088	17.026	813.695	610.358
386.102	16.963	813.350	609.818
387.117	16.956	812.594	609.173
388.132	16.995	812.238	608.991
389.146	16.985	811.836	608.599
390.161	17.060	811.563	608.609
391.175	17.100	810.913	608.213
392.190	17.026	810.624	607.675
393.205	17.081	810.396	607.651
394.219	17.145	809.783	607.365
395.234	16.985	809.231	606.323
396.248	17.037	808.723	606.076
397.263	16.992	808.040	605.348
398.278	17.090	807.351	605.130
399.292	17.027	807.307	604.817
400.307	17.103	807.016	604.819
401.321	17.000	806.482	603.996
402.336	17.039	806.241	603.903
403.350	17.188	805.565	603.871
404.365	17.244	805.135	603.695
405.380	17.284	804.489	603.298
406.394	17.319	804.087	603.069
407.409	17.275	803.841	602.674
408.423	17.478	803.211	602.866
409.438	17.494	802.559	602.381
410.453	17.419	802.137	601.747
411.467	17.480	801.686	601.570
412.482	17.460	801.363	601.204
413.496	17.509	800.944	601.011
414.511	17.601	800.749	601.135
415.526	17.425	800.114	599.985
416.540	17.498	800.106	600.185
417.555	17.499	799.585	599.741
418.569	17.489	799.111	599.298
419.584	17.516	798.468	598.858
420.599	17.530	798.124	598.598
421.613	113.485	1297.465	1486.338
422.628	97.771	1370.154	1486.411
