DTS Sentinel unit serial number:	SN413079Multiplexer serial number:	ORYXHardware model number:	OX4-SRSoftware version number:	ORYX F/W v4.00 Oryx Data Collector v3.7.2.0data status	okinstallation	princeton_trtdifferential loss correction	single-endedforward channel	channel 3reverse channel	N/Adate	2019/09/12time	19:30:03forward acquisition time	15.00reverse acquisition time	0.00gamma	496.2192k internal	0.2322k external	0.2322temperature offset calibration	1.0106default loss term (dB/km)	0.3790temperature slope calibration	1.0000multiplexer offset coefficient	1.0000multiplexer slope coefficient	1.0000fibre end	0.00T internal ref (°C)	32.25T ext. ref 1 (°C)	3.30T ext. ref 2 (°C)	26.76length (m)	temperature (°C)	Stokes	anti-Stokes-747.200	232.727	-0.126	0.209
-746.185	800.000	0.038	-0.136
-745.171	311.299	0.424	-0.802
-744.156	-25.124	-0.310	-0.185
-743.142	-200.000	0.003	-0.363
-742.127	-200.000	0.016	0.362
-741.112	-200.000	0.040	0.321
-740.098	381.763	-0.301	0.625
-739.083	-200.000	-0.085	-0.507
-738.069	268.622	0.270	-0.477
-737.054	11.414	0.493	-0.382
-736.039	19.959	0.697	0.568
-735.025	-92.036	0.648	0.185
-734.010	-115.653	-0.450	-0.085
-732.996	-200.000	0.253	-1.158
-731.981	-111.463	0.992	0.204
-730.966	95.349	-0.044	0.051
-729.952	220.643	0.486	-0.788
-728.937	25.108	-0.565	-0.474
-727.923	201.101	-0.284	0.441
-726.908	128.704	-0.164	0.212
-725.894	-68.154	-0.692	0.272
-724.879	800.000	0.106	0.424
-723.864	800.000	-0.084	-0.292
-722.850	-8.390	-1.241	-0.843
-721.835	-59.793	-0.118	-0.051
-720.821	201.280	-0.237	-0.368
-719.806	49.938	-0.600	0.571
-718.791	-74.954	-1.088	-0.394
-717.777	-200.000	0.061	-0.401
-716.762	-200.000	0.095	-0.423
-715.748	66.866	-0.368	0.378
-714.733	-200.000	-0.036	-0.206
-713.718	173.814	0.294	0.429
-712.704	-101.623	0.702	-0.172
-711.689	800.000	0.042	-0.143
-710.675	-166.321	-0.710	0.030
-709.660	208.650	-0.136	-0.215
-708.645	164.006	-0.555	0.788
-707.631	-200.000	-0.069	-1.272
-706.616	-122.768	0.065	0.011
-705.602	26.041	-0.486	-0.409
-704.587	-54.563	0.385	0.176
-703.572	-104.983	0.936	-0.216
-702.558	-105.184	-0.819	0.189
-701.543	800.000	-0.066	0.258
-700.529	-200.000	-0.053	0.381
-699.514	79.493	-0.095	0.102
-698.499	-30.462	0.377	-0.216
-697.485	-125.851	0.276	-0.042
-696.470	-75.395	0.624	0.224
-695.456	-63.815	-0.718	0.297
-694.441	-200.000	0.022	0.117
-693.426	110.607	-0.254	0.308
-692.412	-200.000	-0.074	-0.361
-691.397	5.289	0.591	0.440
-690.383	21.441	0.382	0.313
-689.368	746.815	-0.138	0.375
-688.354	118.920	0.204	0.254
-687.339	-155.688	1.205	-0.078
-686.324	-144.483	-0.448	0.042
-685.310	-127.773	0.175	0.025
-684.295	132.087	-0.070	0.092
-683.281	130.373	0.399	0.515
-682.266	63.840	0.234	0.237
-681.251	100.498	-0.142	0.166
-680.237	-69.941	0.293	0.113
-679.222	40.483	-0.344	0.312
-678.208	-200.000	-0.005	-0.053
-677.193	-39.778	0.638	-0.336
-676.178	-200.000	0.056	-0.299
-675.164	-200.000	-0.019	-0.197
-674.149	329.972	0.324	0.629
-673.135	98.152	-0.643	0.746
-672.120	640.969	-0.291	0.746
-671.105	-200.000	0.044	-0.497
-670.091	-16.353	-0.398	0.254
-669.076	72.509	0.079	-0.083
-668.062	178.807	-0.279	-0.410
-667.047	-61.457	0.136	-0.058
-666.032	-200.000	-0.125	0.888
-665.018	484.178	-0.469	-1.075
-664.003	-162.356	1.038	0.052
-662.989	180.717	0.299	0.442
-661.974	206.324	-0.059	0.092
-660.959	-67.041	1.199	0.477
-659.945	79.779	-0.287	0.310
-658.930	-200.000	0.002	-0.165
-657.916	-21.883	-0.285	-0.174
-656.901	-57.771	0.202	0.089
-655.886	170.465	0.485	0.699
-654.872	41.087	0.181	-0.165
-653.857	-61.329	0.203	-0.086
-652.843	158.693	-0.149	0.208
-651.828	800.000	0.211	-0.899
-650.814	-108.592	0.056	0.012
-649.799	105.125	0.433	-0.514
-648.784	-200.000	-0.004	-0.139
-647.770	164.012	0.525	-0.745
-646.755	-103.989	-0.630	-0.148
-645.741	800.000	-0.188	-0.737
-644.726	-27.378	0.225	0.132
-643.711	-200.000	0.131	-1.124
-642.697	-73.684	-0.490	0.179
-641.682	201.194	-0.299	-0.463
-640.668	-200.000	-0.037	-0.440
-639.653	-196.967	-0.395	0.003
-638.638	-82.147	-0.269	0.088
-637.624	800.000	-0.105	0.448
-636.609	-163.007	-1.043	-0.051
-635.595	242.550	0.410	0.691
-634.580	71.962	0.506	-0.530
-633.565	33.991	0.367	-0.322
-632.551	-53.418	0.473	0.218
-631.536	-200.000	-0.033	0.415
-630.522	430.550	0.192	0.417
-629.507	-95.890	-0.625	0.168
-628.492	-99.053	0.618	-0.157
-627.478	800.000	-0.089	0.287
-626.463	-140.605	0.388	0.040
-625.449	604.693	0.193	-0.484
-624.434	-75.242	-0.419	0.151
-623.419	352.390	0.446	-0.889
-622.405	82.189	0.308	0.336
-621.390	630.979	0.131	0.333
-620.376	165.451	-0.522	0.741
-619.361	-200.000	-0.040	0.210
-618.346	-200.000	-0.014	-0.501
-617.332	-41.510	-0.204	-0.106
-616.317	-4.550	-1.025	0.712
-615.303	61.780	0.376	0.377
-614.288	-132.940	0.533	0.068
-613.273	155.990	-0.716	-0.993
-612.259	800.000	-0.109	-0.449
-611.244	-120.477	-0.254	0.043
-610.230	-36.655	-0.320	-0.173
-609.215	-128.050	0.505	-0.073
-608.201	-36.130	0.365	0.198
-607.186	-200.000	0.001	-1.385
-606.171	8.509	-0.199	-0.150
-605.157	571.046	0.263	-0.642
-604.142	-91.175	0.724	0.209
-603.128	-152.611	-0.108	-0.008
-602.113	-200.000	-0.025	0.294
-601.098	-128.952	1.296	0.183
-600.084	-200.000	0.109	-0.669
-599.069	-12.118	0.105	0.069
-598.055	99.862	0.151	-0.176
-597.040	-200.000	0.023	0.120
-596.025	-93.699	0.273	-0.076
-595.011	-145.515	-0.524	-0.047
-593.996	-200.000	-0.028	0.309
-592.982	-97.795	-0.031	-0.008
-591.967	22.864	-0.297	0.245
-590.952	54.791	-0.221	0.215
-589.938	466.426	0.160	-0.361
-588.923	-200.000	0.019	-0.118
-587.909	182.067	0.445	-0.659
-586.894	28.194	-0.210	0.178
-585.879	124.598	-0.244	0.308
-584.865	167.373	-0.114	-0.162
-583.850	420.669	0.136	-0.294
-582.836	-4.762	-0.529	-0.366
-581.821	-160.862	0.499	-0.026
-580.806	200.507	0.528	0.814
-579.792	-200.000	-0.064	0.373
-578.777	-134.402	0.503	-0.062
-577.763	-76.198	0.183	0.065
-576.748	-102.668	-0.250	0.060
-575.733	-39.086	-0.142	0.075
-574.719	-136.828	0.614	-0.071
-573.704	113.101	-0.445	-0.542
-572.690	-89.966	0.370	0.108
-571.675	-200.000	-0.096	-0.439
-570.661	800.000	0.054	-0.225
-569.646	188.767	-0.299	-0.449
-568.631	-72.933	-0.578	0.213
-567.617	-25.317	-0.812	-0.482
-566.602	623.519	0.155	-0.392
-565.588	22.285	-0.239	-0.196
-564.573	25.717	0.562	-0.470
-563.558	511.585	-0.223	0.521
-562.544	800.000	0.109	0.423
-561.529	-117.939	-0.335	0.060
-560.515	-25.997	0.438	-0.258
-559.500	-200.000	0.002	-0.445
-558.485	-92.033	0.475	-0.135
-557.471	800.000	0.159	0.593
-556.456	444.017	-0.137	0.301
-555.442	253.479	-0.137	0.234
-554.427	800.000	0.099	-0.291
-553.412	213.227	0.430	-0.681
-552.398	205.098	0.438	-0.682
-551.383	-69.712	-0.502	0.192
-550.369	-200.000	0.182	-0.857
-549.354	493.955	0.282	0.649
-548.339	368.897	0.375	0.761
-547.325	-162.467	-0.374	-0.019
-546.310	273.604	-0.410	-0.726
-545.296	-22.964	-0.222	0.134
-544.281	99.584	0.321	-0.372
-543.266	-168.428	0.201	0.008
-542.252	-200.000	-0.038	0.621
-541.237	-119.771	-0.969	0.168
-540.223	84.048	-0.377	-0.412
-539.208	86.205	0.386	-0.426
-538.193	-157.845	0.239	-0.014
-537.179	-200.000	0.018	-0.509
-536.164	-50.798	-0.821	-0.387
-535.150	649.827	0.226	-0.579
-534.135	-200.000	-0.016	0.603
-533.121	557.639	0.297	0.719
-532.106	-200.000	-0.122	0.542
-531.091	-200.000	-0.071	-0.374
-530.077	800.000	-0.209	-0.695
-529.062	-90.304	-0.434	-0.126
-528.048	227.040	-0.128	-0.208
-527.033	447.062	0.395	-0.871
-526.018	-200.000	-0.057	-0.254
-525.004	-100.100	0.242	-0.060
-523.989	42.632	0.653	-0.595
-522.975	-80.123	-0.273	0.092
-521.960	98.666	0.196	0.227
-520.945	214.390	0.320	0.507
-519.931	643.103	0.122	-0.312
-518.916	800.000	0.149	-0.473
-517.902	-116.404	0.766	0.142
-516.887	129.741	-0.487	-0.623
-515.872	-116.913	0.411	0.075
-514.858	-90.122	-0.321	-0.094
-513.843	100.500	-0.765	0.889
-512.829	-3.829	-0.233	0.162
-511.814	0.927	-0.555	-0.398
-510.799	-200.000	-0.073	-0.588
-509.785	224.980	-0.327	0.530
-508.770	-135.923	-0.308	0.036
-507.756	40.109	0.599	-0.539
-506.741	-183.673	-0.446	-0.008
-505.726	-200.000	0.100	0.467
-504.712	-200.000	0.037	0.334
-503.697	-200.000	-0.009	0.289
-502.683	-200.000	-0.103	1.153
-501.668	-46.785	0.543	-0.266
-500.653	-48.320	-0.281	-0.136
-499.639	-200.000	0.013	0.320
-498.624	-200.000	0.176	1.002
-497.610	-200.000	0.012	0.512
-496.595	598.203	-0.152	0.378
-495.581	-30.001	0.274	-0.156
-494.566	800.000	0.226	-0.736
-493.551	-169.544	-0.305	-0.011
-492.537	-200.000	0.008	-0.829
-491.522	-89.384	-0.722	-0.213
-490.508	-90.819	1.016	-0.293
-489.493	-200.000	-0.068	-1.113
-488.478	-26.127	0.403	-0.237
-487.464	9.827	0.329	-0.250
-486.449	64.112	0.562	-0.565
-485.435	223.408	-0.148	0.239
-484.420	103.191	0.312	0.366
-483.405	176.269	0.087	-0.126
-482.391	355.675	-0.176	0.350
-481.376	161.047	-0.163	-0.228
-480.362	162.042	0.572	0.801
-479.347	29.915	-0.365	-0.311
-478.332	649.232	0.197	0.505
-477.318	-144.793	0.476	0.044
-476.303	672.548	0.135	-0.349
-475.289	-200.000	-0.008	-0.210
-474.274	-44.316	-0.668	0.335
-473.259	74.450	0.202	0.212
-472.245	635.447	-0.140	-0.356
-471.230	-86.888	-0.324	-0.099
-470.216	-200.000	0.094	-0.833
-469.201	-147.126	0.988	-0.084
-468.186	-200.000	-0.009	-0.592
-467.172	101.618	0.292	0.340
-466.157	800.000	-0.041	0.130
-465.143	-75.272	-0.491	-0.175
-464.128	-121.782	0.488	0.081
-463.113	-37.212	-0.563	0.301
-462.099	-97.135	0.468	-0.122
-461.084	78.075	-0.410	-0.437
-460.070	185.101	-0.629	-0.933
-459.055	-200.000	0.008	-0.064
-458.040	800.000	-0.051	0.146
-457.026	-43.521	0.285	-0.144
-456.011	-200.000	0.144	0.915
-454.997	-200.000	0.103	0.519
-453.982	141.811	-0.305	0.403
-452.968	-78.327	-0.882	-0.302
-451.953	-114.485	-0.936	-0.180
-450.938	-32.155	-0.387	0.216
-449.924	-59.251	0.749	0.322
-448.909	136.105	0.309	0.402
-447.895	-200.000	0.124	-0.852
-446.880	39.839	0.298	-0.267
-445.865	-103.975	-0.938	-0.219
-444.851	800.000	-0.067	0.272
-443.836	-101.205	0.562	-0.137
-442.822	-57.439	-0.446	0.196
-441.807	-49.252	0.392	0.187
-440.792	117.571	-0.183	0.225
-439.778	-132.708	-0.404	0.052
-438.763	-64.002	0.250	-0.102
-437.749	65.446	0.341	-0.344
-436.734	49.484	0.905	-0.851
-435.719	800.000	-0.080	-0.280
-434.705	800.000	0.127	-0.522
-433.690	-114.203	0.451	0.087
-432.676	-9.487	-0.132	0.088
-431.661	-160.755	-0.693	0.037
-430.646	-64.680	0.961	0.389
-429.632	-157.638	0.089	-0.005
-428.617	-200.000	-0.065	-0.321
-427.603	-124.751	-0.215	-0.033
-426.588	-30.740	0.854	-0.482
-425.573	623.718	-0.404	-1.016
-424.559	556.553	-0.268	0.645
-423.544	43.353	-0.212	0.193
-422.530	-53.038	0.040	0.018
-421.515	187.267	0.269	0.400
-420.500	-200.000	-0.145	0.720
-419.486	161.741	-0.138	-0.192
-418.471	-200.000	-0.014	-0.237
-417.457	77.256	0.529	0.561
-416.442	451.014	0.086	-0.190
-415.428	623.301	0.139	0.348
-414.413	-71.032	-0.216	-0.081
-413.398	19.586	-0.295	0.237
-412.384	800.000	0.166	-0.574
-411.369	637.499	0.098	0.248
-410.355	800.000	-0.169	-0.719
-409.340	471.107	0.279	-0.626
-408.325	780.725	-0.250	0.681
-407.311	-140.715	0.234	0.024
-406.296	336.358	-0.159	-0.309
-405.282	800.000	-0.055	0.179
-404.267	634.040	0.070	-0.178
-403.252	-28.747	0.452	-0.260
-402.238	800.000	-0.194	0.584
-401.223	-200.000	0.071	0.604
-400.209	-200.000	-0.032	-0.917
-399.194	162.874	0.325	-0.455
-398.179	-124.560	-0.467	0.072
-397.165	492.431	0.129	-0.294
-396.150	800.000	-0.183	-0.514
-395.136	-200.000	0.022	0.314
-394.121	-70.475	0.521	0.197
-393.106	-200.000	0.011	-0.056
-392.092	104.720	0.249	-0.292
-391.077	800.000	0.131	0.451
-390.063	589.704	0.306	-0.752
-389.048	-200.000	0.073	-0.531
-388.033	115.824	-0.399	0.487
-387.019	128.076	0.286	-0.362
-386.004	-130.662	-1.130	-0.152
-384.990	800.000	-0.031	-0.119
-383.975	-112.821	-0.499	-0.099
-382.960	21.535	0.304	0.246
-381.946	24.643	0.444	0.366
-380.931	-106.605	0.307	-0.068
-379.917	800.000	0.116	-0.442
-378.902	124.030	0.442	-0.553
-377.888	-157.852	-0.857	0.051
-376.873	-200.000	-0.189	-1.421
-375.858	-128.715	0.758	-0.107
-374.844	-21.697	-0.313	0.190
-373.829	-200.000	0.094	-0.446
-372.815	-97.554	-0.973	-0.252
-371.800	-200.000	-0.002	0.159
-370.785	-169.333	-0.624	0.023
-369.771	800.000	0.150	0.436
-368.756	-200.000	0.029	-0.501
-367.742	292.064	0.409	-0.742
-366.727	-142.566	0.614	0.060
-365.712	-80.006	0.546	-0.183
-364.698	342.139	0.263	0.512
-363.683	-146.219	-0.363	0.032
-362.669	-120.047	-0.193	-0.033
-361.654	17.359	0.163	0.129
-360.639	800.000	0.199	0.777
-359.625	610.368	0.226	0.562
-358.610	82.894	0.405	0.438
-357.596	227.653	0.286	0.463
-356.581	101.052	-0.690	0.799
-355.566	-80.347	-0.311	0.103
-354.552	300.936	-0.335	-0.616
-353.537	158.418	0.222	-0.307
-352.523	63.703	0.279	0.279
-351.508	19.836	-0.309	-0.248
-350.493	29.892	0.405	-0.343
-349.479	-114.299	-0.462	-0.089
-348.464	-125.496	-0.315	-0.048
-347.450	800.000	-0.161	-0.466
-346.435	-12.502	-0.191	-0.124
-345.420	154.235	-0.062	-0.085
-344.406	29.096	-0.158	-0.134
-343.391	800.000	-0.158	0.458
-342.377	-99.378	1.018	0.255
-341.362	-200.000	-0.032	0.247
-340.348	730.568	0.194	-0.515
-339.333	365.007	0.097	-0.193
-338.318	184.082	0.219	-0.323
-337.304	323.882	0.394	0.747
-336.289	-200.000	-0.099	0.493
-335.275	221.462	0.112	0.178
-334.260	8.585	-0.573	-0.429
-333.245	-105.686	0.543	0.122
-332.231	447.246	0.184	0.402
-331.216	-105.371	0.470	-0.106
-330.202	479.803	-0.181	-0.409
-329.187	202.218	-0.045	0.069
-328.172	800.000	-0.024	0.106
-327.158	281.241	-0.120	0.214
-326.143	126.178	0.198	-0.249
-325.129	750.932	0.228	0.611
-324.114	-200.000	0.076	-0.398
-323.099	363.444	0.574	1.146
-322.085	800.000	-0.129	-0.434
-321.070	-200.000	-0.168	0.854
-320.056	28.836	-0.414	-0.349
-319.041	-72.272	0.362	0.133
-318.026	-200.000	0.139	0.617
-317.012	-93.401	-0.963	0.265
-315.997	651.318	-0.302	-0.769
-314.983	-151.533	0.363	-0.027
-313.968	800.000	-0.210	0.826
-312.953	-32.828	1.053	0.582
-311.939	88.723	0.265	0.293
-310.924	-124.197	0.393	-0.061
-309.910	800.000	0.185	0.548
-308.895	-200.000	0.304	1.649
-307.880	-126.620	0.593	-0.087
-306.866	26.735	0.312	-0.260
-305.851	12.501	0.146	0.112
-304.837	-66.470	-0.536	-0.211
-303.822	48.340	-0.470	-0.437
-302.807	-80.874	0.257	-0.085
-301.793	-76.005	0.306	-0.107
-300.778	-52.959	-0.790	0.361
-299.764	-105.305	0.578	-0.131
-298.749	-106.671	-0.896	0.198
-297.735	253.317	0.342	0.580
-296.720	-56.429	0.150	-0.066
-295.705	11.002	-0.437	0.332
-294.691	44.733	-0.282	-0.257
-293.676	23.382	-0.526	-0.429
-292.662	-181.744	-0.479	0.009
-291.647	-200.000	0.053	0.286
-290.632	800.000	0.164	-0.536
-289.618	-89.531	-0.228	-0.067
-288.603	8.737	-0.290	0.217
-287.589	-200.000	0.209	1.292
-286.574	800.000	0.163	0.631
-285.559	59.447	-0.308	0.301
-284.545	55.026	-0.284	0.272
-283.530	-200.000	0.044	0.687
-282.516	299.081	-0.279	-0.509
-281.501	-114.446	-0.743	-0.142
-280.486	100.144	0.303	-0.348
-279.472	-37.690	0.625	0.330
-278.457	-122.824	0.363	0.058
-277.443	-87.756	0.600	0.180
-276.428	93.853	0.057	-0.064
-275.413	-24.516	0.170	0.101
-274.399	800.000	-0.073	-0.234
-273.384	135.398	0.642	0.828
-272.370	32.649	0.226	-0.194
-271.355	-84.581	-0.584	-0.183
-270.340	-46.912	-0.127	-0.062
-269.326	-176.447	-0.379	0.010
-268.311	-28.678	-0.155	0.088
-267.297	34.995	0.526	0.456
-266.282	-200.000	-0.090	0.428
-265.267	-38.431	0.453	0.238
-264.253	-200.000	0.150	-0.943
-263.238	-188.770	-1.031	0.013
-262.224	-102.401	-0.471	0.112
-261.209	-35.235	0.431	-0.233
-260.195	272.510	-0.143	0.250
-259.180	120.985	0.561	0.692
-258.165	98.157	-0.213	0.243
-257.151	-200.000	0.004	-0.254
-256.136	-139.540	-0.615	0.065
-255.122	-200.000	0.155	0.866
-254.107	-153.236	-1.171	0.081
-253.092	-200.000	-0.069	1.019
-252.078	320.622	-0.356	0.670
-251.063	15.319	0.090	-0.070
-250.049	-200.000	0.027	-0.697
-249.034	800.000	-0.137	-0.523
-248.019	78.761	0.176	-0.186
-247.005	800.000	0.144	-0.525
-245.990	-126.463	-0.839	-0.124
-244.976	206.095	0.247	0.381
-243.961	41.091	-0.356	-0.319
-242.946	-200.000	-0.148	-0.739
-241.932	399.576	-0.366	0.761
-240.917	800.000	0.045	-0.128
-239.903	-16.423	-0.678	-0.426
-238.888	-111.971	0.500	0.100
-237.873	-108.596	0.491	-0.104
-236.859	250.795	0.135	-0.227
-235.844	-137.904	0.434	-0.048
-234.830	7.703	0.312	0.232
-233.815	-16.579	-0.396	-0.248
-232.800	-77.323	0.485	-0.167
-231.786	-76.246	-1.131	0.395
-230.771	294.716	0.351	-0.635
-229.757	-149.506	0.597	-0.047
-228.742	22.714	-0.775	-0.629
-227.727	292.306	-0.225	-0.406
-226.713	-10.744	-0.950	0.622
-225.698	-200.000	-0.072	0.605
-224.684	134.270	0.489	0.628
-223.669	-89.833	-0.584	-0.169
-222.655	78.314	-0.232	-0.245
-221.640	-200.000	-0.042	-0.518
-220.625	-200.000	-0.092	-0.629
-219.611	-59.060	-0.673	0.288
-218.596	-124.901	0.665	0.101
-217.582	51.960	-0.318	-0.299
-216.567	-42.757	-0.483	-0.243
-215.552	800.000	0.061	-0.199
-214.538	-52.797	-0.213	0.097
-213.523	800.000	0.143	0.412
-212.509	46.840	0.200	-0.184
-211.494	395.523	0.340	0.702
-210.479	-14.735	0.540	-0.343
-209.465	110.051	0.364	0.433
-208.450	-48.360	-0.592	-0.282
-207.436	150.628	0.350	0.470
-206.421	98.864	0.703	-0.803
-205.406	111.170	0.320	0.382
-204.392	-200.000	0.001	-0.128
-203.377	73.029	-0.364	0.376
-202.363	36.633	0.601	0.525
-201.348	800.000	0.034	0.111
-200.333	-23.657	-0.367	0.218
-199.319	-57.229	-0.431	0.188
-198.304	800.000	0.163	0.560
-197.290	-200.000	0.109	-0.937
-196.275	87.648	0.259	0.283
-195.260	-74.303	-0.815	0.291
-194.246	-200.000	0.020	0.106
-193.231	-99.358	0.543	-0.135
-192.217	-19.064	0.537	-0.330
-191.202	-106.885	-1.156	0.253
-190.187	-143.580	-0.241	-0.023
-189.173	129.960	0.303	-0.383
-188.158	-102.122	-0.580	-0.138
-187.144	274.190	-0.212	0.372
-186.129	-46.292	0.180	0.088
-185.114	-74.109	-0.657	0.235
-184.100	-103.715	-0.518	0.120
-183.085	-34.402	0.491	-0.266
-182.071	71.784	-0.534	0.549
-181.056	7.650	0.793	0.586
-180.042	-89.349	-0.444	0.129
-179.027	-52.746	-0.512	0.233
-178.012	-53.181	-0.836	0.379
-176.998	204.491	-0.490	0.752
-175.983	-200.000	-0.030	0.358
-174.969	-88.727	0.548	-0.161
-173.954	-200.000	0.124	-0.553
-172.939	180.721	0.362	0.525
-171.925	-200.000	0.035	-0.534
-170.910	-51.727	0.224	0.103
-169.896	504.288	-0.111	0.253
-168.881	-3.951	0.074	-0.050
-167.866	800.000	-0.132	-0.420
-166.852	53.412	0.691	0.655
-165.837	69.386	-0.333	-0.339
-164.823	135.300	0.091	0.116
-163.808	-7.199	0.571	0.382
-162.793	666.031	-0.200	-0.510
-161.779	35.133	-0.304	0.263
-160.764	-200.000	0.056	-0.425
-159.750	800.000	-0.220	0.717
-158.735	-200.000	0.129	0.814
-157.720	239.281	-0.260	0.428
-156.706	-200.000	0.085	0.816
-155.691	19.979	-0.241	-0.192
-154.677	-15.537	0.606	0.382
-153.662	800.000	-0.021	0.071
-152.647	800.000	-0.064	0.220
-151.633	-200.000	0.072	0.832
-150.618	-55.448	-1.057	0.468
-149.604	-200.000	-0.010	-0.456
-148.589	-200.000	-0.125	-0.613
-147.574	36.833	-0.134	-0.117
-146.560	-200.000	-0.379	0.000
-145.545	59.338	-0.379	-0.368
-144.531	15.479	0.623	0.483
-143.516	488.322	0.088	0.198
-142.502	138.148	-0.080	0.104
-141.487	-188.626	-0.094	0.001
-140.472	-90.369	-0.196	0.056
-139.458	-92.034	0.546	0.153
-138.443	-140.755	-0.080	-0.008
-137.429	-89.780	-0.177	0.051
-136.414	-158.551	0.680	-0.039
-135.399	166.718	0.415	0.580
-134.385	379.725	0.187	0.379
-133.370	526.374	0.180	0.417
-132.356	-200.000	0.044	0.301
-131.341	-53.597	-0.295	0.133
-130.326	53.513	0.364	0.345
-129.312	270.344	-0.334	0.580
-128.297	-66.026	-0.611	0.241
-127.283	-30.336	-0.334	-0.187
-126.268	430.919	-0.079	0.169
-125.253	800.000	0.210	-0.704
-124.239	-200.000	-0.086	0.565
-123.224	-200.000	-0.019	-0.312
-122.210	24.452	0.459	0.374
-121.195	94.691	-0.373	-0.418
-120.180	-63.730	0.696	0.281
-119.166	439.924	-0.172	-0.371
-118.151	102.772	-0.635	-0.733
-117.137	756.804	-0.139	-0.371
-116.122	-50.594	0.725	0.337
-115.107	800.000	-0.266	0.789
-114.093	-47.806	0.854	0.408
-113.078	260.326	-0.245	0.418
-112.064	35.796	-0.444	0.385
-111.049	-137.519	0.328	-0.036
-110.034	50.400	0.194	-0.181
-109.020	-87.457	-0.441	-0.132
-108.005	-75.615	-0.931	-0.326
-106.991	-76.782	-1.329	0.459
-105.976	800.000	0.371	-1.128
-104.962	22.842	0.108	0.087
-103.947	69.103	-0.786	-0.796
-102.932	56.487	0.412	0.395
-101.918	77.298	-0.431	-0.451
-100.903	236.611	0.082	-0.133
-99.889	-200.000	0.101	0.794
-98.874	-200.000	0.004	0.129
-97.859	-200.000	-0.070	-0.750
-96.845	-57.315	0.896	-0.388
-95.830	309.098	-0.393	-0.724
-94.816	109.270	0.523	0.617
-93.801	-45.193	0.941	0.461
-92.786	32.627	0.161	-0.138
-91.772	-191.575	-0.834	-0.008
-90.757	-89.901	-0.028	0.008
-89.743	-184.789	0.951	0.015
-88.728	-128.413	-1.078	0.151
-87.713	-32.914	-0.358	0.196
-86.699	84.459	0.426	0.460
-85.684	-200.000	0.011	-0.405
-84.670	52.255	-0.224	-0.211
-83.655	-200.000	-0.055	0.274
-82.640	-200.000	0.618	-0.002
-81.626	87.694	-0.759	0.828
-80.611	-67.000	-0.762	0.296
-79.597	-143.567	-0.667	-0.063
-78.582	378.848	-0.382	-0.771
-77.567	36.549	-0.420	0.365
-76.553	46.810	-0.832	-0.761
-75.538	115.943	-0.212	-0.256
-74.524	-200.000	-0.199	0.982
-73.509	-190.925	-0.353	-0.004
-72.494	407.385	0.078	-0.163
-71.480	-200.000	0.108	-0.528
-70.465	25.512	0.776	-0.636
-69.451	800.000	0.167	-0.455
-68.436	-109.212	-0.512	0.107
-67.422	-159.329	0.365	-0.020
-66.407	-127.516	-0.215	0.031
-65.392	11.736	-0.312	0.236
-64.378	23.177	0.355	-0.287
-63.363	315.924	-0.085	0.158
-62.349	-159.465	0.451	0.025
-61.334	-28.646	-1.162	-0.658
-60.319	800.000	0.335	1.222
-59.305	643.495	-0.382	-0.960
-58.290	397.942	0.435	0.895
-57.276	235.057	0.880	1.429
-56.261	-200.000	94.876	591.223
-55.246	672.656	1352.706	3450.168
-54.232	204.271	2519.139	3839.994
-53.217	118.936	2141.062	2602.838
-52.203	43.013	1691.455	1517.302
-51.188	35.639	1506.304	1301.453
-50.173	33.236	1479.553	1262.283
-49.159	52.787	1531.257	1439.620
-48.144	53.943	1548.403	1463.534
-47.130	35.593	1507.596	1302.052
-46.115	32.671	1492.872	1269.638
-45.100	32.170	1490.465	1264.173
-44.086	32.115	1487.652	1261.365
-43.071	32.423	1485.597	1261.637
-42.057	32.382	1484.559	1260.429
-41.042	32.464	1482.372	1259.076
-40.027	32.079	1481.623	1255.810
-39.013	32.220	1480.268	1255.557
-37.998	32.227	1479.038	1254.511
-36.984	32.298	1476.744	1252.986
-35.969	32.119	1476.560	1251.592
-34.954	32.129	1475.357	1250.585
-33.940	32.213	1473.527	1249.542
-32.925	32.333	1472.237	1249.196
-31.911	32.137	1470.109	1246.041
-30.896	32.706	1468.378	1248.295
-29.881	32.296	1467.909	1245.129
-28.867	32.331	1467.456	1244.928
-27.852	32.286	1465.193	1242.665
-26.838	32.121	1464.813	1241.204
-25.823	32.437	1462.071	1240.910
-24.809	32.174	1461.741	1238.852
-23.794	32.041	1460.711	1237.049
-22.779	32.385	1457.367	1236.432
-21.765	32.182	1457.536	1235.190
-20.750	32.215	1456.696	1234.650
-19.736	32.008	1455.902	1232.565
-18.721	32.354	1454.113	1233.269
-17.706	32.395	1452.996	1232.544
-16.692	32.342	1450.512	1230.039
-15.677	32.305	1450.481	1229.725
-14.663	32.412	1448.852	1228.994
-13.648	32.229	1448.947	1227.833
-12.633	32.257	1446.927	1226.252
-11.619	32.217	1447.031	1226.028
-10.604	32.195	1446.539	1225.419
-9.590	32.101	1445.170	1223.601
-8.575	32.225	1444.806	1224.051
-7.560	32.212	1443.802	1223.067
-6.546	32.423	1442.398	1223.202
-5.531	32.224	1440.943	1220.628
-4.517	32.189	1441.403	1220.742
-3.502	32.179	1439.345	1218.885
-2.487	32.183	1437.917	1217.654
-1.473	32.186	1437.278	1217.084
-0.458	32.181	1436.435	1216.288
0.556	33.472	1426.806	1205.480
1.571	30.393	1400.546	1163.925
2.586	26.538	1342.351	1092.252
3.600	24.936	1262.560	1018.134
4.615	23.540	1216.468	973.227
5.629	20.292	1161.301	911.969
6.644	11.556	1076.584	802.617
7.659	4.260	1036.822	738.279
8.673	3.705	1030.004	730.734
9.688	3.370	1027.198	727.098
10.702	3.104	1025.378	724.491
11.717	3.023	1023.937	723.026
12.731	6.050	1027.695	739.889
13.746	15.167	1039.239	791.386
14.761	22.425	1048.565	832.881
15.775	24.302	1050.299	843.072
16.790	24.026	1049.701	841.210
17.804	23.964	1047.806	839.325
18.819	23.497	1047.515	836.816
19.834	23.395	1046.168	835.183
20.848	23.641	1045.238	835.525
21.863	23.784	1046.301	836.976
22.877	23.738	1044.479	835.228
23.892	23.563	1043.365	833.443
24.907	23.121	1044.190	831.949
25.921	23.225	1043.259	831.619
26.936	23.194	1041.942	830.354
27.950	22.966	1040.947	828.417
28.965	22.804	1040.659	827.355
29.980	22.972	1038.472	826.331
30.994	23.178	1037.629	826.547
32.009	23.613	1035.816	827.056
33.023	23.888	1035.749	828.211
34.038	23.507	1034.251	825.170
35.053	23.545	1034.012	825.081
36.067	23.325	1032.667	822.916
37.082	22.947	1031.628	820.261
38.096	23.112	1030.979	820.437
39.111	23.241	1031.107	821.064
40.126	23.424	1029.815	820.809
41.140	23.318	1028.145	818.914
42.155	22.874	1028.537	817.101
43.169	22.751	1026.648	814.960
44.184	22.631	1025.896	813.739
45.199	22.460	1025.957	812.926
46.213	22.605	1023.653	811.696
47.228	22.442	1023.742	810.945
48.242	23.291	1022.724	813.971
49.257	23.515	1021.919	814.285
50.271	23.225	1021.926	812.886
51.286	23.205	1021.237	812.175
52.301	23.446	1020.565	812.673
53.315	23.761	1018.805	812.640
54.330	23.354	1018.765	810.676
55.344	23.420	1018.042	810.331
56.359	23.216	1016.270	807.918
57.374	22.978	1016.496	806.939
58.388	23.221	1014.484	806.376
59.403	23.098	1013.587	805.034
60.417	22.783	1013.529	803.481
61.432	22.726	1012.976	802.712
62.447	23.057	1011.257	802.782
63.461	22.745	1011.269	801.305
64.476	22.955	1009.497	800.779
65.490	22.658	1009.417	799.303
66.505	23.063	1007.502	799.546
67.520	22.942	1007.588	798.998
68.534	22.754	1007.975	798.384
69.549	22.890	1006.540	797.788
70.563	22.393	1005.253	794.454
71.578	22.316	1004.174	793.186
72.593	22.128	1003.643	791.848
73.607	21.710	1001.922	788.539
74.622	22.170	1001.091	789.887
75.636	22.020	1000.815	788.921
76.651	21.973	1000.724	788.571
77.666	21.953	999.404	787.368
78.680	22.018	999.767	787.877
79.695	21.860	999.491	786.882
80.709	22.052	997.815	786.353
81.724	22.386	997.674	787.668
82.739	22.587	995.666	786.909
83.753	22.632	994.841	786.389
84.768	22.982	994.878	787.908
85.782	23.690	994.922	791.027
86.797	23.986	994.470	791.918
87.812	23.918	994.066	791.223
88.826	23.745	992.650	789.259
89.841	23.403	992.678	787.689
90.855	23.639	991.773	787.949
91.870	23.512	991.351	786.981
92.884	23.696	989.821	786.513
93.899	23.912	989.142	786.858
94.914	23.820	987.817	785.329
95.928	23.731	986.643	783.934
96.943	23.724	986.861	784.005
97.957	23.514	985.365	781.821
98.972	23.167	984.753	779.741
99.987	23.355	983.285	779.336
101.001	23.524	983.430	780.125
102.016	23.236	982.899	778.370
103.030	23.253	981.578	777.327
104.045	23.586	980.287	777.696
105.060	23.322	979.995	776.239
106.074	23.584	978.360	776.021
107.089	23.278	978.141	774.442
108.103	23.259	977.136	773.496
109.118	23.365	975.653	772.716
110.133	22.977	974.618	770.135
111.147	22.429	973.660	766.924
112.162	22.579	972.536	766.625
113.176	22.715	971.382	766.236
114.191	22.658	971.068	765.674
115.206	22.851	969.885	765.509
116.220	22.673	970.034	764.789
117.235	22.448	968.523	762.555
118.249	22.404	968.591	762.353
119.264	22.461	967.581	761.737
120.279	22.384	966.220	760.262
121.293	22.076	965.757	758.502
122.308	22.100	963.872	757.056
123.322	22.329	963.502	757.688
124.337	22.108	963.444	756.621
125.352	21.797	961.729	753.871
126.366	22.206	960.007	754.211
127.381	22.159	959.795	753.776
128.395	22.299	958.187	753.046
129.410	22.750	957.851	754.643
130.424	22.245	958.091	752.607
131.439	22.372	957.031	752.248
132.454	22.874	955.793	753.350
133.468	23.125	955.205	753.890
134.483	22.910	954.408	752.281
135.497	23.139	953.497	752.469
136.512	22.946	953.024	751.210
137.527	22.836	952.679	750.403
138.541	22.506	952.724	748.970
139.556	22.412	951.653	747.663
140.570	22.796	950.738	748.504
141.585	23.205	949.904	749.515
142.600	23.238	949.932	749.611
143.614	23.723	948.687	750.612
144.629	23.660	947.964	749.707
145.643	24.157	946.603	750.659
146.658	23.820	946.325	748.955
147.673	23.700	944.725	747.116
148.687	23.426	943.755	745.131
149.702	23.279	942.782	743.681
150.716	22.975	941.713	741.493
151.731	23.128	940.297	740.956
152.746	23.026	939.790	740.064
153.760	23.119	940.093	740.628
154.775	23.304	938.505	740.084
155.789	23.361	937.995	739.853
156.804	23.370	937.928	739.773
157.819	22.969	937.293	737.531
158.833	23.499	936.302	738.896
159.848	23.976	934.996	739.784
160.862	23.925	934.735	739.299
161.877	23.768	933.361	737.495
162.892	23.553	932.192	735.617
163.906	23.310	931.310	733.849
164.921	23.051	931.386	732.770
165.935	23.165	928.528	730.927
166.950	22.931	928.856	730.156
167.964	23.159	928.009	730.365
168.979	23.270	927.138	730.071
169.994	23.160	925.861	728.549
171.008	22.771	925.525	726.620
172.023	23.310	924.701	728.125
173.037	23.449	923.868	727.974
174.052	23.500	923.783	728.052
175.067	23.499	923.155	727.488
176.081	23.399	921.084	725.383
177.096	22.935	919.612	722.265
178.110	22.281	920.244	720.021
179.125	22.724	917.680	719.759
180.140	22.734	917.555	719.638
181.154	22.655	917.572	719.263
182.169	22.736	917.486	719.464
183.183	23.687	916.183	722.250
184.198	23.347	916.454	721.017
185.213	23.446	915.483	720.589
186.227	23.652	914.265	720.402
187.242	23.587	913.467	719.449
188.256	23.150	913.815	717.885
189.271	23.304	913.733	718.382
190.286	23.656	912.633	718.879
191.300	23.559	911.684	717.677
192.315	22.747	911.113	713.878
193.329	22.390	909.488	711.099
194.344	22.465	908.239	710.363
195.359	22.506	907.516	709.902
196.373	23.068	907.869	712.379
197.388	23.299	907.846	713.230
198.402	23.509	908.075	714.191
199.417	23.599	906.849	713.527
200.432	23.864	907.222	714.820
201.446	23.814	906.889	714.295
202.461	23.980	905.598	713.879
203.475	24.203	905.190	714.390
204.490	23.762	904.880	712.315
205.504	23.295	902.636	708.615
206.519	23.141	902.899	708.143
207.534	23.286	902.842	708.616
208.548	23.225	901.937	707.599
209.563	23.892	899.879	708.582
210.577	23.476	900.556	707.393
211.592	23.439	899.069	706.014
212.607	23.600	899.970	707.302
213.621	23.651	899.518	707.088
214.636	24.029	898.146	707.449
215.650	23.720	898.183	706.187
216.665	23.763	896.765	705.180
217.680	23.664	895.964	704.095
218.694	23.759	895.647	704.161
219.709	23.940	896.632	705.590
220.723	23.508	894.798	702.373
221.738	23.635	894.372	702.479
222.753	23.665	892.562	701.115
223.767	23.736	891.792	700.728
224.782	23.362	891.539	698.993
225.796	23.767	891.880	700.795
226.811	23.891	890.805	700.376
227.826	23.702	889.304	698.392
228.840	23.419	889.756	697.573
229.855	23.295	888.988	696.422
230.869	23.135	888.987	695.731
231.884	22.862	887.725	693.608
232.899	23.153	887.176	694.261
233.913	23.315	886.521	694.322
234.928	23.252	885.582	693.279
235.942	23.039	884.403	691.460
236.957	22.773	883.956	690.009
237.972	22.958	882.690	689.681
238.986	22.814	882.246	688.714
240.001	22.997	882.075	689.231
241.015	23.205	880.770	688.960
242.030	22.846	880.374	687.194
243.045	23.281	879.338	688.014
244.059	23.144	880.051	687.980
245.074	23.245	879.617	687.971
246.088	23.278	878.285	686.997
247.103	23.445	877.490	686.960
248.117	24.010	877.123	688.800
249.132	23.847	878.151	688.916
250.147	24.148	878.029	689.927
251.161	24.693	877.320	691.415
252.176	25.004	876.453	691.871
253.190	24.689	875.710	690.011
254.205	24.515	876.431	689.845
255.220	24.670	875.566	689.700
256.234	24.647	874.351	688.592
257.249	24.437	873.628	687.155
258.263	24.543	873.174	687.143
259.278	24.087	872.799	685.035
260.293	24.427	871.796	685.490
261.307	24.392	871.246	684.866
262.322	24.516	870.620	684.787
263.336	24.692	870.451	685.270
264.351	24.668	869.169	684.106
265.366	24.437	868.534	682.663
266.380	24.179	868.210	681.360
267.395	24.259	869.403	682.543
268.409	24.474	867.379	681.717
269.424	24.777	864.868	680.835
270.439	24.300	866.409	680.169
271.453	24.213	864.501	678.280
272.468	24.036	863.963	677.126
273.482	24.474	864.169	678.892
274.497	24.053	863.366	676.603
275.512	24.302	862.567	676.860
276.526	24.197	861.324	675.427
277.541	23.915	862.088	674.897
278.555	24.201	861.128	675.168
279.570	24.631	860.336	676.117
280.585	24.594	860.175	675.792
281.599	24.748	859.860	676.064
282.614	24.293	858.881	673.518
283.628	24.063	857.901	671.821
284.643	24.068	857.703	671.626
285.657	24.154	856.892	671.257
286.672	23.811	856.403	669.520
287.687	24.130	855.504	669.960
288.701	24.267	854.388	669.539
289.716	24.151	854.128	668.843
290.730	24.127	855.178	669.514
291.745	24.626	853.847	670.286
292.760	24.211	853.398	668.319
293.774	24.526	852.287	668.569
294.789	24.956	851.548	669.537
295.803	25.139	851.160	669.855
296.818	24.608	850.701	667.452
297.833	24.660	850.311	667.281
298.847	24.054	850.067	664.770
299.862	24.430	848.717	665.055
300.876	24.347	847.974	664.106
301.891	24.373	848.528	664.578
302.906	24.982	847.527	665.999
303.920	25.300	846.627	666.415
304.935	24.960	846.488	664.983
305.949	25.464	846.148	666.528
306.964	25.057	845.004	664.060
307.979	24.610	845.459	662.700
308.993	25.023	842.377	661.755
310.008	24.663	843.263	661.058
311.022	24.887	842.517	661.242
312.037	24.811	842.545	660.926
313.052	24.646	841.254	659.248
314.066	24.394	841.036	658.090
315.081	24.104	839.924	656.091
316.095	23.599	839.924	654.171
317.110	24.100	839.944	655.974
318.125	24.185	839.548	655.922
319.139	24.087	838.697	654.839
320.154	23.901	837.129	652.875
321.168	23.495	837.385	651.524
322.183	24.006	835.880	652.169
323.197	24.211	835.808	652.805
324.212	24.329	835.249	652.743
325.227	24.048	835.172	651.598
326.241	23.893	833.879	649.966
327.256	24.069	833.692	650.405
328.270	24.104	833.279	650.153
329.285	24.449	831.845	650.232
330.300	23.920	831.820	648.228
331.314	23.789	830.945	647.012
332.329	24.126	830.164	647.573
333.343	24.237	830.520	648.196
334.358	24.422	830.248	648.598
335.373	24.777	829.651	649.365
336.387	24.548	829.003	647.967
337.402	24.472	829.633	648.127
338.416	24.630	827.863	647.262
339.431	24.841	828.163	648.204
340.446	24.932	827.563	648.003
341.460	25.212	827.508	648.919
342.475	25.116	826.649	647.838
343.489	25.692	825.207	648.728
344.504	25.354	825.921	648.011
345.519	25.090	825.550	646.711
346.533	25.647	824.540	647.869
347.548	25.395	824.061	646.530
348.562	25.308	823.695	645.870
349.577	25.044	823.502	644.713
350.592	24.938	822.310	643.343
351.606	24.797	821.229	641.935
352.621	24.410	821.581	640.764
353.635	24.612	821.096	641.054
354.650	24.997	819.369	641.025
355.665	24.878	819.459	640.614
356.679	24.515	818.998	638.897
357.694	24.769	819.242	639.942
358.708	24.870	818.752	639.864
359.723	24.891	818.001	639.295
360.738	24.543	817.188	637.359
361.752	24.711	816.470	637.342
362.767	25.067	816.188	638.334
363.781	25.204	815.750	638.422
364.796	25.561	815.654	639.560
365.810	25.477	815.261	638.898
366.825	25.532	815.323	639.084
367.840	25.524	814.720	638.529
368.854	25.099	815.294	637.410
369.869	25.389	813.926	637.314
370.883	24.822	813.183	634.664
371.898	25.182	811.836	634.831
372.913	25.071	812.286	634.733
373.927	25.342	810.973	634.611
374.942	25.096	810.640	633.424
375.956	25.291	809.458	633.134
376.971	25.059	810.139	632.790
377.986	25.130	809.380	632.391
379.000	25.425	808.604	632.770
380.015	25.646	808.062	633.068
381.029	25.402	808.313	632.348
382.044	25.318	807.361	631.252
383.059	25.510	807.297	631.820
384.073	26.112	805.389	632.384
385.088	25.771	804.231	630.223
386.102	25.547	803.474	628.793
387.117	24.618	804.660	626.409
388.132	24.750	803.866	626.198
389.146	24.900	802.251	625.408
390.161	24.934	801.763	625.092
391.175	25.471	801.405	626.629
392.190	25.754	801.542	627.667
393.205	25.543	802.256	627.437
394.219	24.616	801.056	623.210
395.234	24.807	799.260	622.423
396.248	24.820	798.157	621.554
397.263	24.604	798.399	620.938
398.278	24.938	798.246	621.923
399.292	24.346	798.413	619.940
400.307	24.326	797.480	619.091
401.321	24.635	795.485	618.560
402.336	24.440	796.015	618.241
403.350	24.785	796.756	619.958
404.365	24.998	796.870	620.730
405.380	25.343	796.799	621.815
406.394	25.682	796.060	622.355
407.409	25.968	796.046	623.279
408.423	25.919	794.966	622.207
409.438	26.150	794.108	622.278
410.453	26.172	793.394	621.738
411.467	26.121	793.914	621.915
412.482	25.707	792.866	619.615
413.496	25.638	793.148	619.543
414.511	26.170	792.217	620.589
415.526	26.031	791.864	619.780
416.540	25.814	791.899	619.006
417.555	25.688	790.857	617.705
418.569	25.710	790.361	617.338
419.584	25.786	789.928	617.206
420.599	26.263	788.283	617.497
421.613	160.706	1369.958	1793.332
422.628	139.103	1454.747	1793.381
