DTS Sentinel unit serial number:	SN413079Multiplexer serial number:	ORYXHardware model number:	OX4-SRSoftware version number:	ORYX F/W v4.00 Oryx Data Collector v3.7.2.0data status	okinstallation	princeton_trtdifferential loss correction	single-endedforward channel	channel 3reverse channel	N/Adate	2019/09/17time	23:20:34forward acquisition time	60.00reverse acquisition time	0.00gamma	496.2192k internal	0.2345k external	0.2345temperature offset calibration	0.9951default loss term (dB/km)	0.3790temperature slope calibration	1.0000multiplexer offset coefficient	1.0000multiplexer slope coefficient	1.0000fibre end	0.00T internal ref (°C)	24.44T ext. ref 1 (°C)	0.17T ext. ref 2 (°C)	17.66length (m)	temperature (°C)	Stokes	anti-Stokes-747.200	-40.738	-0.408	0.212
-746.185	-119.703	0.089	-0.015
-745.171	12.978	-0.218	0.169
-744.156	800.000	0.060	0.234
-743.142	-27.417	-0.364	-0.212
-742.127	-200.000	-0.005	0.135
-741.112	356.682	-0.074	0.147
-740.098	-125.281	-0.058	0.009
-739.083	800.000	-0.021	-0.068
-738.069	-88.701	-0.350	0.104
-737.054	800.000	0.078	0.222
-736.039	131.444	-0.199	-0.255
-735.025	47.496	0.164	-0.153
-734.010	-197.733	-0.447	0.003
-732.996	-152.357	-0.460	-0.033
-731.981	-110.623	0.247	-0.051
-730.966	479.844	-0.110	-0.250
-729.952	50.384	-0.108	0.102
-728.937	-89.596	0.081	-0.024
-727.923	-13.079	0.140	0.091
-726.908	208.844	0.182	-0.284
-725.894	800.000	0.079	-0.321
-724.879	14.136	0.042	-0.033
-723.864	-75.104	-0.120	0.043
-722.850	-200.000	-0.007	-0.283
-721.835	205.917	-0.109	-0.170
-720.821	-200.000	-0.043	-0.344
-719.806	-73.764	-0.290	-0.106
-718.791	71.962	0.149	-0.155
-717.777	703.020	-0.104	0.275
-716.762	-144.910	-0.331	-0.030
-715.748	483.267	0.060	0.135
-714.733	34.380	0.339	0.296
-713.718	800.000	0.062	-0.246
-712.704	-37.848	-0.213	0.113
-711.689	718.865	0.071	-0.187
-710.675	-95.444	0.093	0.025
-709.660	81.059	0.246	-0.266
-708.645	-200.000	0.045	-0.219
-707.631	-200.000	-0.003	0.318
-706.616	339.580	0.031	-0.061
-705.602	-57.732	-0.244	-0.107
-704.587	-107.212	0.363	-0.080
-703.572	-152.760	-0.387	0.027
-702.558	800.000	-0.080	0.250
-701.543	-10.215	-0.142	-0.094
-700.529	58.197	0.253	-0.248
-699.514	260.173	-0.027	0.047
-698.499	-200.000	-0.106	-0.615
-697.485	-200.000	0.042	-0.346
-696.470	175.885	0.020	-0.029
-695.456	141.662	-0.059	0.079
-694.441	800.000	0.064	-0.191
-693.426	-105.028	0.169	0.039
-692.412	30.229	-0.097	-0.083
-691.397	207.525	-0.159	-0.247
-690.383	75.128	0.128	-0.134
-689.368	77.412	-0.101	-0.108
-688.354	114.107	0.122	-0.149
-687.339	-54.282	0.078	0.035
-686.324	800.000	-0.088	-0.329
-685.310	-64.483	-0.353	-0.143
-684.295	800.000	0.061	0.172
-683.281	121.465	-0.312	-0.388
-682.266	-200.000	0.008	-0.043
-681.251	-178.002	-0.198	-0.005
-680.237	131.266	-0.138	-0.177
-679.222	-179.643	-0.358	0.008
-678.208	54.592	-0.093	-0.089
-677.193	-112.504	-0.384	0.077
-676.178	800.000	0.058	-0.240
-675.164	154.721	0.114	0.157
-674.149	-200.000	0.002	-0.213
-673.135	-58.161	0.220	-0.096
-672.120	114.673	0.227	0.276
-671.105	-18.195	0.100	0.062
-670.091	321.460	-0.128	-0.243
-669.076	276.569	-0.136	0.240
-668.062	90.204	0.114	-0.128
-667.047	7.124	-0.211	0.157
-666.032	3.601	-0.082	-0.060
-665.018	-200.000	-0.072	-0.511
-664.003	185.651	-0.058	0.087
-662.989	51.919	-0.190	-0.180
-661.974	9.059	-0.041	-0.031
-660.959	-200.000	0.001	0.055
-659.945	15.530	0.114	-0.089
-658.930	-103.628	-0.361	0.084
-657.916	-2.207	-0.103	-0.072
-656.901	-126.628	-0.122	0.018
-655.886	800.000	0.049	-0.181
-654.872	-32.584	0.291	-0.162
-653.857	800.000	0.041	-0.169
-652.843	-200.000	0.002	-0.329
-651.828	58.382	0.086	-0.084
-650.814	563.107	0.089	0.214
-649.799	55.115	-0.262	-0.252
-648.784	-183.697	0.119	-0.002
-647.770	-77.950	0.335	-0.115
-646.755	-21.034	-0.058	-0.035
-645.741	800.000	-0.062	-0.239
-644.726	-62.303	-0.130	-0.054
-643.711	800.000	-0.093	0.349
-642.697	-200.000	-0.043	0.212
-641.682	6.684	0.242	-0.180
-640.668	-200.000	0.028	0.151
-639.653	-200.000	0.043	-0.251
-638.638	289.371	0.134	0.243
-637.624	-200.000	-0.012	-0.238
-636.609	-39.047	-0.363	0.190
-635.595	343.738	0.093	0.182
-634.580	-6.251	-0.168	-0.114
-633.565	-200.000	-0.003	-0.372
-632.551	-200.000	0.004	-0.227
-631.536	9.795	-0.146	-0.110
-630.522	-154.407	0.376	-0.025
-629.507	41.010	-0.106	0.096
-628.492	361.165	0.122	-0.243
-627.478	800.000	-0.083	-0.255
-626.463	66.317	0.081	0.082
-625.449	-200.000	0.049	-0.273
-624.434	32.955	-0.126	-0.109
-623.419	370.663	0.133	-0.269
-622.405	71.619	0.012	-0.012
-621.390	800.000	0.076	-0.224
-620.376	-100.774	0.072	-0.018
-619.361	83.597	-0.079	0.086
-618.346	384.588	-0.162	-0.332
-617.332	789.879	0.049	-0.134
-616.317	684.591	0.066	-0.172
-615.303	-200.000	0.001	-0.316
-614.288	387.078	0.087	0.179
-613.273	-19.029	0.105	-0.065
-612.259	800.000	0.100	0.338
-611.244	800.000	-0.064	-0.198
-610.230	-83.803	-0.102	0.032
-609.215	60.149	-0.309	0.304
-608.201	14.276	0.173	-0.134
-607.186	47.937	-0.094	-0.088
-606.171	-60.188	-0.382	-0.162
-605.157	-62.607	-0.380	0.157
-604.142	2.999	-0.136	0.098
-603.128	-1.478	-0.028	-0.020
-602.113	-8.252	-0.090	-0.060
-601.098	-85.972	0.084	-0.026
-600.084	-1.699	-0.191	0.134
-599.069	-155.247	0.218	-0.014
-598.055	57.149	0.197	-0.191
-597.040	18.002	0.017	-0.014
-596.025	-200.000	0.001	-0.366
-595.011	302.894	-0.066	-0.122
-593.996	-5.211	0.078	-0.053
-592.982	800.000	0.074	0.264
-591.967	800.000	-0.071	-0.203
-590.952	96.444	-0.051	-0.058
-589.938	20.217	-0.113	0.091
-588.923	800.000	0.027	-0.100
-587.909	-14.499	0.175	-0.112
-586.894	800.000	-0.063	-0.242
-585.879	-200.000	0.007	0.172
-584.865	210.849	0.220	0.344
-583.850	-200.000	-0.007	0.082
-582.836	-77.891	-0.030	-0.010
-581.821	-12.621	0.213	-0.138
-580.806	-57.000	0.432	-0.190
-579.792	35.912	-0.028	-0.024
-578.777	-53.820	0.082	0.037
-577.763	-81.356	0.131	-0.043
-576.748	-91.391	-0.265	0.075
-575.733	-116.613	0.325	-0.059
-574.719	-81.568	-0.262	-0.085
-573.704	88.638	0.086	-0.095
-572.690	443.875	0.149	0.324
-571.675	453.713	-0.087	-0.191
-570.661	-162.603	-0.140	-0.007
-569.646	-43.228	0.331	0.166
-568.631	-82.551	0.230	-0.074
-567.617	89.985	0.064	-0.071
-566.602	800.000	-0.048	-0.141
-565.588	234.327	0.178	0.291
-564.573	-200.000	-0.211	-0.000
-563.558	-173.880	0.185	-0.005
-562.544	93.236	-0.218	-0.244
-561.529	-181.848	0.232	-0.004
-560.515	-133.879	-0.331	0.041
-559.500	161.683	-0.051	-0.072
-558.485	205.439	-0.090	0.139
-557.471	449.945	0.168	0.368
-556.456	-52.980	0.515	0.235
-555.442	61.651	0.328	-0.325
-554.427	-200.000	0.041	0.229
-553.412	-167.076	-0.197	-0.008
-552.398	-82.209	0.274	0.089
-551.383	1.383	0.230	0.165
-550.369	129.802	0.038	0.048
-549.354	-40.349	-0.219	-0.113
-548.339	-119.095	0.256	-0.045
-547.325	424.093	0.211	0.450
-546.310	-96.437	0.101	-0.027
-545.296	-107.962	0.361	-0.078
-544.281	-74.465	-0.211	0.076
-543.266	-38.192	0.098	0.052
-542.252	-200.000	0.024	0.223
-541.237	258.034	0.127	0.216
-540.223	-118.388	0.180	0.032
-539.208	800.000	0.069	0.207
-538.193	-9.870	-0.189	0.125
-537.179	83.554	-0.163	0.177
-536.164	45.412	0.070	-0.064
-535.150	800.000	-0.097	0.369
-534.135	38.359	-0.103	-0.091
-533.121	10.604	-0.091	0.069
-532.106	661.367	0.076	-0.193
-531.091	-200.000	0.034	-0.367
-530.077	-200.000	-0.016	-0.161
-529.062	800.000	-0.105	0.297
-528.048	717.452	0.016	0.043
-527.033	800.000	-0.066	-0.212
-526.018	184.790	0.173	-0.255
-525.004	-200.000	-0.023	-0.225
-523.989	-45.969	0.150	0.073
-522.975	-57.276	-0.077	-0.033
-521.960	90.864	-0.102	-0.114
-520.945	570.346	-0.073	-0.176
-519.931	800.000	0.037	0.130
-518.916	-166.048	0.285	0.012
-517.902	91.535	0.175	-0.195
-516.887	18.770	0.303	-0.240
-515.872	-67.306	-0.280	0.109
-514.858	-179.847	-0.197	0.004
-513.843	-82.111	0.057	-0.018
-512.829	74.974	0.189	-0.197
-511.814	452.562	-0.100	0.219
-510.799	800.000	-0.012	-0.033
-509.785	-51.320	-0.054	-0.025
-508.770	-200.000	-0.060	-0.297
-507.756	-8.666	-0.153	-0.102
-506.741	800.000	0.035	-0.097
-505.726	-37.628	0.127	0.067
-504.712	201.064	-0.211	0.322
-503.697	290.669	-0.231	0.417
-502.683	-200.000	0.008	0.103
-501.668	-115.441	-0.259	-0.048
-500.653	580.840	0.068	0.164
-499.639	800.000	0.057	0.206
-498.624	-96.755	-0.148	-0.039
-497.610	167.606	-0.123	0.173
-496.595	-41.470	0.073	0.037
-495.581	392.976	-0.014	0.030
-494.566	-75.256	0.226	0.080
-493.551	-200.000	-0.012	-0.222
-492.537	-167.201	-0.095	-0.004
-491.522	-127.692	-0.290	0.041
-490.508	-200.000	-0.021	0.259
-489.493	394.805	0.132	-0.273
-488.478	136.666	0.174	0.225
-487.464	800.000	0.046	0.155
-486.449	-91.218	-0.185	0.052
-485.435	66.462	-0.030	-0.030
-484.420	19.094	-0.262	0.208
-483.405	18.785	0.161	0.127
-482.391	-200.000	0.045	-0.415
-481.376	-199.477	0.165	0.001
-480.362	0.543	-0.267	0.189
-479.347	-63.445	0.059	-0.024
-478.332	178.214	-0.298	-0.431
-477.318	-200.000	0.014	-0.083
-476.303	17.723	-0.228	-0.180
-475.289	27.007	0.242	0.201
-474.274	800.000	0.054	0.191
-473.259	-200.000	0.003	-0.159
-472.245	-47.006	-0.261	0.126
-471.230	-76.458	-0.191	-0.067
-470.216	32.606	-0.211	0.180
-469.201	430.191	0.076	-0.163
-468.186	-20.128	-0.258	-0.157
-467.172	112.730	0.120	0.144
-466.157	263.532	-0.166	0.286
-465.143	79.735	-0.118	0.125
-464.128	-2.323	-0.264	-0.184
-463.113	218.641	-0.098	-0.155
-462.099	323.347	-0.122	-0.230
-461.084	-83.281	-0.079	-0.025
-460.070	320.772	0.033	0.062
-459.055	31.425	-0.196	-0.166
-458.040	156.400	0.085	-0.116
-457.026	-40.316	-0.151	-0.078
-456.011	-200.000	0.014	0.221
-454.997	25.020	-0.284	-0.233
-453.982	-13.573	0.270	-0.173
-452.968	-200.000	-0.044	-0.220
-451.953	-200.000	0.011	-0.375
-450.938	24.819	0.137	0.112
-449.924	-200.000	0.017	0.087
-448.909	800.000	-0.036	0.117
-447.895	-66.311	0.101	0.040
-446.880	337.611	0.092	0.176
-445.865	-142.058	0.067	-0.007
-444.851	113.304	0.168	0.202
-443.836	-141.640	-0.087	-0.009
-442.822	-105.126	0.152	-0.034
-441.807	-76.996	0.125	0.043
-440.792	712.743	-0.052	-0.137
-439.778	3.117	0.239	-0.172
-438.763	9.474	0.081	-0.061
-437.749	800.000	-0.011	0.035
-436.734	800.000	-0.032	0.117
-435.719	-200.000	0.001	0.053
-434.705	-67.790	-0.076	-0.029
-433.690	46.131	-0.237	0.217
-432.676	-89.790	0.111	-0.032
-431.661	93.425	-0.167	-0.187
-430.646	405.995	-0.140	0.292
-429.632	51.760	0.225	0.212
-428.617	-130.522	0.046	-0.006
-427.603	-79.613	0.033	-0.011
-426.588	530.874	-0.018	0.041
-425.573	2.504	0.173	-0.124
-424.559	-200.000	-0.018	-0.126
-423.544	-65.693	-0.269	0.107
-422.530	800.000	0.106	0.457
-421.515	512.615	-0.038	0.087
-420.500	50.568	0.212	0.198
-419.486	-90.913	-0.087	-0.025
-418.471	-9.261	-0.183	0.121
-417.457	-81.873	0.173	-0.056
-416.442	57.839	0.046	0.045
-415.428	551.347	0.133	0.316
-414.413	116.562	-0.031	-0.038
-413.398	64.884	-0.233	-0.232
-412.384	732.258	-0.047	-0.123
-411.369	31.434	-0.140	0.119
-410.355	386.071	-0.215	0.438
-409.340	223.328	-0.060	-0.095
-408.325	-61.711	0.304	-0.126
-407.311	189.499	-0.167	-0.247
-406.296	-120.637	0.211	0.035
-405.282	26.599	-0.156	-0.129
-404.267	-200.000	-0.002	-0.106
-403.252	800.000	0.068	0.278
-402.238	-49.759	0.151	-0.071
-401.223	-189.801	-0.216	0.002
-400.209	-200.000	-0.024	-0.337
-399.194	-115.612	-0.320	-0.059
-398.179	438.279	-0.145	0.312
-397.165	566.487	-0.047	0.113
-396.150	303.147	-0.128	-0.234
-395.136	278.051	-0.316	-0.556
-394.121	-155.617	-0.095	0.006
-393.106	-51.866	0.099	-0.046
-392.092	-200.000	0.027	-0.139
-391.077	-200.000	-0.032	-0.266
-390.063	-76.409	-0.179	-0.062
-389.048	800.000	-0.051	0.217
-388.033	387.966	0.070	0.143
-387.019	-124.629	-0.483	-0.074
-386.004	-200.000	-0.005	0.146
-384.990	-93.402	0.066	-0.018
-383.975	23.180	0.112	0.091
-382.960	-89.621	0.250	-0.072
-381.946	174.409	-0.096	0.137
-380.931	-200.000	-0.002	-0.053
-379.917	800.000	0.039	-0.163
-378.902	262.021	0.036	-0.061
-377.888	-200.000	-0.038	-0.268
-376.873	605.784	0.080	-0.197
-375.858	236.860	0.056	0.091
-374.844	-200.000	-0.047	0.255
-373.829	-77.571	-0.328	-0.112
-372.815	-136.875	0.130	0.015
-371.800	-109.935	-0.182	0.038
-370.785	109.597	0.115	0.135
-369.771	800.000	0.065	0.199
-368.756	-82.796	0.131	0.042
-367.742	-189.975	-0.411	0.005
-366.727	-200.000	-0.448	-0.001
-365.712	-33.233	-0.310	0.169
-364.698	180.377	-0.089	-0.128
-363.683	-200.000	-0.010	0.286
-362.669	-200.000	0.003	-0.144
-361.654	336.771	-0.072	-0.138
-360.639	-30.246	0.347	0.194
-359.625	366.036	-0.173	0.344
-358.610	138.513	0.172	0.222
-357.596	-19.219	-0.067	0.041
-356.581	-31.726	-0.131	-0.072
-355.566	-13.819	0.219	-0.140
-354.552	33.505	0.183	0.157
-353.537	3.964	0.353	0.254
-352.523	-200.000	0.049	-0.221
-351.508	-94.950	-0.359	0.096
-350.493	365.772	-0.144	0.287
-349.479	-160.031	-0.331	0.018
-348.464	-36.203	-0.071	0.038
-347.450	-162.908	0.143	-0.007
-346.435	-12.600	0.016	0.010
-345.420	-92.780	-0.094	0.026
-344.406	5.056	-0.185	-0.134
-343.391	-200.000	-0.011	0.293
-342.377	125.322	0.087	-0.108
-341.362	-200.000	0.032	0.152
-340.348	212.834	0.076	-0.118
-339.333	800.000	-0.035	-0.109
-338.318	71.734	0.172	0.176
-337.304	800.000	-0.024	0.071
-336.289	-170.942	-0.235	0.008
-335.275	-164.017	0.067	0.003
-334.260	-12.793	-0.089	0.057
-333.245	-12.649	0.112	-0.072
-332.231	45.347	-0.241	0.219
-331.216	-59.569	-0.273	0.115
-330.202	-6.121	0.288	0.194
-329.187	-29.000	0.341	-0.193
-328.172	800.000	0.067	0.237
-327.158	303.544	0.077	-0.140
-326.143	-200.000	0.023	-0.122
-325.129	800.000	-0.054	0.156
-324.114	-48.479	-0.039	-0.018
-323.099	-36.091	-0.451	-0.240
-322.085	256.014	0.115	0.194
-321.070	43.892	-0.205	0.185
-320.056	-121.233	-0.127	-0.021
-319.041	-119.801	0.158	-0.027
-318.026	-67.419	-0.138	-0.053
-317.012	701.217	0.019	0.050
-315.997	-151.933	0.153	0.011
-314.983	-200.000	0.020	0.244
-313.968	-80.758	0.216	-0.071
-312.953	347.422	0.341	-0.661
-311.939	-14.863	0.170	0.107
-310.924	323.240	0.098	-0.184
-309.910	11.816	-0.201	-0.152
-308.895	-116.032	0.204	0.037
-307.880	-200.000	0.047	0.312
-306.866	-39.942	-0.526	0.270
-305.851	-105.722	-0.289	-0.064
-304.837	-200.000	-0.022	0.103
-303.822	800.000	0.096	-0.400
-302.807	215.111	-0.164	-0.256
-301.793	-86.929	-0.181	0.054
-300.778	800.000	0.063	-0.207
-299.764	-200.000	-0.018	-0.095
-298.749	160.362	0.122	0.168
-297.735	25.201	0.168	-0.137
-296.720	110.069	-0.087	-0.102
-295.705	-124.143	-0.079	0.012
-294.691	201.367	0.128	0.194
-293.676	310.705	0.129	-0.238
-292.662	-200.000	-0.017	0.285
-291.647	-200.000	-0.074	0.372
-290.632	187.823	-0.155	-0.228
-289.618	187.495	-0.056	-0.082
-288.603	-16.105	0.096	0.060
-287.589	185.457	-0.134	-0.196
-286.574	-100.228	-0.355	-0.087
-285.559	-74.712	0.119	0.042
-284.545	-117.136	0.342	0.061
-283.530	-200.000	0.042	-0.219
-282.516	800.000	-0.073	0.245
-281.501	-73.449	0.239	0.086
-280.486	-200.000	-0.027	-0.416
-279.472	800.000	0.118	-0.393
-278.457	72.629	-0.340	-0.348
-277.443	99.833	0.017	0.019
-276.428	-64.015	0.070	-0.028
-275.413	0.949	0.089	0.062
-274.399	-200.000	-0.031	-0.269
-273.384	194.272	0.062	-0.093
-272.370	-200.000	-0.249	0.000
-271.355	-96.721	-0.138	-0.036
-270.340	-97.259	0.260	0.067
-269.326	-159.451	0.296	0.016
-268.311	-200.000	-0.031	0.143
-267.297	165.160	0.251	0.348
-266.282	0.338	0.196	-0.137
-265.267	-0.964	-0.318	-0.221
-264.253	-200.000	-0.017	0.242
-263.238	83.904	0.133	0.142
-262.224	-55.438	-0.078	0.034
-261.209	-141.275	0.191	-0.019
-260.195	96.385	0.098	-0.110
-259.180	19.107	-0.291	-0.230
-258.165	212.965	0.062	0.097
-257.151	-200.000	-0.035	-0.200
-256.136	153.674	-0.231	-0.310
-255.122	-112.791	0.234	-0.046
-254.107	-99.959	0.240	-0.059
-253.092	-200.000	-0.026	-0.177
-252.078	-27.404	0.384	-0.219
-251.063	724.617	0.056	0.147
-250.049	-46.716	0.155	-0.074
-249.034	-200.000	0.052	0.244
-248.019	66.624	0.069	-0.069
-247.005	134.159	0.103	-0.131
-245.990	-128.525	-0.050	0.007
-244.976	112.756	0.005	-0.006
-243.961	-64.163	-0.171	0.068
-242.946	800.000	-0.058	-0.206
-241.932	-156.433	0.048	0.003
-240.917	-32.000	-0.269	0.148
-239.903	186.478	0.088	0.128
-238.888	-200.000	0.130	-0.000
-237.873	61.026	0.199	0.194
-236.859	-28.948	0.090	0.051
-235.844	51.153	0.192	-0.179
-234.830	94.600	0.207	-0.231
-233.815	185.002	-0.027	-0.039
-232.800	541.863	-0.181	-0.422
-231.786	-137.765	0.114	-0.012
-230.771	97.424	-0.362	0.408
-229.757	27.530	-0.379	0.313
-228.742	181.048	-0.118	0.170
-227.727	-200.000	-0.006	-0.167
-226.713	-200.000	0.012	-0.191
-225.698	69.492	-0.253	-0.256
-224.684	67.422	0.160	-0.160
-223.669	11.208	0.086	0.064
-222.655	-170.043	-0.239	0.008
-221.640	180.622	0.050	0.072
-220.625	-189.148	0.453	-0.005
-219.611	246.055	-0.080	0.132
-218.596	4.254	-0.269	0.193
-217.582	-104.019	0.308	0.070
-216.567	95.125	0.438	0.489
-215.552	8.564	-0.115	0.085
-214.538	117.472	0.181	0.219
-213.523	183.928	0.125	-0.181
-212.509	151.945	0.056	-0.075
-211.494	-41.266	-0.123	-0.062
-210.479	239.736	-0.089	0.144
-209.465	49.131	0.228	-0.210
-208.450	128.223	-0.128	0.160
-207.436	-29.151	0.122	0.068
-206.421	19.724	0.139	0.110
-205.406	-200.000	0.006	-0.207
-204.392	171.896	0.168	0.236
-203.377	427.999	0.057	0.121
-202.363	630.763	-0.054	-0.134
-201.348	-16.233	0.182	-0.113
-200.333	660.679	0.036	0.092
-199.319	-71.292	0.288	-0.106
-198.304	35.148	0.251	-0.216
-197.290	-151.879	-0.228	-0.016
-196.275	3.612	-0.007	-0.005
-195.260	-200.000	-0.004	0.063
-194.246	-115.169	0.219	-0.041
-193.231	-102.784	0.145	0.034
-192.217	-200.000	-0.000	0.049
-191.202	800.000	-0.065	0.254
-190.187	-70.123	0.197	-0.074
-189.173	-200.000	-0.018	0.259
-188.158	-86.040	-0.103	-0.031
-187.144	116.436	-0.142	0.171
-186.129	-200.000	0.053	-0.331
-185.114	154.773	0.190	0.255
-184.100	-55.917	0.214	0.093
-183.085	-200.000	-0.000	0.054
-182.071	-44.451	-0.268	-0.131
-181.056	-141.515	0.329	-0.033
-180.042	364.701	0.075	-0.147
-179.027	411.319	0.102	-0.212
-178.012	-47.228	-0.269	-0.128
-176.998	23.312	0.108	0.087
-175.983	302.591	0.255	0.463
-174.969	231.749	-0.058	-0.093
-173.954	-60.381	-0.290	-0.121
-172.939	-98.152	0.202	0.051
-171.925	-37.874	-0.258	0.134
-170.910	356.434	0.060	0.117
-169.896	-157.396	-0.306	-0.018
-168.881	17.057	0.107	0.083
-167.866	-200.000	-0.019	0.124
-166.852	-68.395	0.144	0.055
-165.837	-59.231	0.130	-0.055
-164.823	179.017	0.092	0.131
-163.808	33.838	0.078	-0.066
-162.793	-41.363	0.240	0.121
-161.779	118.496	-0.129	0.156
-160.764	-200.000	0.013	0.324
-159.750	402.974	-0.073	0.150
-158.735	-134.053	0.153	0.018
-157.720	-72.866	-0.255	-0.092
-156.706	-50.212	-0.112	0.052
-155.691	230.117	-0.041	0.065
-154.677	-1.191	-0.142	-0.098
-153.662	401.262	-0.116	0.237
-152.647	-165.475	-0.525	-0.022
-151.633	649.197	0.063	0.159
-150.618	-99.531	-0.298	-0.073
-149.604	-200.000	0.019	0.150
-148.589	82.219	0.174	0.185
-147.574	-200.000	0.040	0.212
-146.560	13.020	0.187	-0.142
-145.545	-71.682	-0.154	0.056
-144.531	183.125	0.084	-0.121
-143.516	800.000	-0.098	0.301
-142.502	-92.617	-0.080	-0.022
-141.487	407.257	0.090	0.186
-140.472	17.344	0.384	-0.298
-139.458	344.254	0.107	-0.205
-138.443	-119.891	0.276	-0.046
-137.429	-200.000	-0.017	0.109
-136.414	10.898	0.044	0.033
-135.399	181.401	0.112	0.161
-134.385	77.931	-0.324	0.337
-133.370	-134.199	0.087	-0.010
-132.356	800.000	-0.073	0.210
-131.341	-200.000	0.023	0.371
-130.326	-190.324	0.495	0.005
-129.312	-5.758	-0.197	0.132
-128.297	-79.615	0.091	0.030
-127.283	606.435	-0.006	0.013
-126.268	-10.704	-0.229	0.148
-125.253	-1.938	-0.241	-0.165
-124.239	-109.083	0.216	0.045
-123.224	97.830	-0.079	-0.089
-122.210	800.000	-0.054	-0.178
-121.195	-154.550	-0.042	-0.003
-120.180	-77.961	0.217	-0.073
-119.166	93.804	0.220	0.244
-118.151	-74.978	0.219	0.077
-117.137	-141.981	0.287	0.028
-116.122	-157.914	0.142	-0.008
-115.107	-143.927	0.338	0.031
-114.093	447.618	-0.063	0.135
-113.078	-63.283	0.050	-0.020
-112.064	-165.275	0.439	-0.019
-111.049	-117.579	0.154	-0.027
-110.034	-3.816	-0.340	0.230
-109.020	-27.406	0.115	-0.065
-108.005	151.016	-0.107	-0.143
-106.991	-17.374	0.256	0.157
-105.976	-43.177	-0.056	-0.028
-104.962	-200.000	-0.078	-0.407
-103.947	-105.121	0.138	-0.031
-102.932	-170.981	0.070	-0.002
-101.918	-104.814	0.211	0.047
-100.903	22.883	0.052	-0.042
-99.889	-200.000	-0.037	0.273
-98.874	322.880	-0.065	0.121
-97.859	-171.641	-0.291	-0.009
-96.845	-68.216	0.164	-0.062
-95.830	-2.366	-0.375	0.257
-94.816	-9.847	-0.103	0.067
-93.801	-2.268	0.292	-0.200
-92.786	-44.913	-0.082	0.040
-91.772	-113.377	0.345	-0.066
-90.757	-118.119	0.137	0.024
-89.743	-200.000	0.003	-0.148
-88.728	-200.000	-0.094	-0.640
-87.713	351.274	0.108	-0.209
-86.699	-68.091	-0.218	-0.083
-85.684	-200.000	0.072	0.346
-84.670	559.035	0.082	-0.193
-83.655	-200.000	0.023	-0.181
-82.640	-29.210	-0.110	0.062
-81.626	468.002	0.069	-0.151
-80.611	800.000	-0.038	0.153
-79.597	364.215	0.046	-0.089
-78.582	-126.455	0.412	-0.060
-77.567	-200.000	0.042	0.381
-76.553	-13.032	-0.043	-0.027
-75.538	-75.338	-0.326	0.113
-74.524	341.214	-0.120	-0.229
-73.509	142.629	0.121	-0.157
-72.494	-9.178	-0.174	-0.113
-71.480	54.902	0.108	-0.101
-70.465	-118.743	-0.260	0.045
-69.451	-147.407	0.282	0.023
-68.436	375.132	-0.148	0.294
-67.422	-57.579	0.202	0.086
-66.407	-12.996	0.401	0.254
-65.392	-200.000	-0.011	0.160
-64.378	-160.395	-0.165	0.009
-63.363	-200.000	0.065	-0.288
-62.349	800.000	0.047	-0.130
-61.334	139.816	-1.053	-1.352
-60.319	155.713	0.584	0.783
-59.305	800.000	-0.394	-1.370
-58.290	452.023	0.638	1.373
-57.276	135.878	1.223	1.551
-56.261	-200.000	121.245	635.042
-55.246	434.670	1526.509	3231.752
-54.232	150.607	2669.804	3532.688
-53.217	97.799	2149.786	2407.716
-52.203	34.650	1679.156	1429.207
-51.188	27.597	1498.292	1227.897
-50.173	25.523	1475.115	1195.088
-49.159	48.151	1543.231	1405.410
-48.144	46.026	1557.658	1403.980
-47.130	27.500	1507.864	1234.888
-46.115	24.705	1492.103	1203.157
-45.100	24.476	1488.756	1198.872
-44.086	24.475	1486.917	1197.332
-43.071	24.427	1484.983	1195.410
-42.057	24.453	1482.863	1193.825
-41.042	24.428	1481.796	1192.754
-40.027	24.425	1480.028	1191.266
-39.013	24.340	1478.767	1189.633
-37.998	24.326	1477.563	1188.525
-36.984	24.371	1476.215	1187.695
-35.969	24.440	1474.679	1186.871
-34.954	24.419	1473.531	1185.762
-33.940	24.417	1471.760	1184.276
-32.925	24.446	1470.669	1183.539
-31.911	24.481	1469.266	1182.597
-30.896	24.479	1468.062	1181.569
-29.881	24.459	1467.209	1180.703
-28.867	24.491	1465.320	1179.349
-27.852	24.510	1463.913	1178.293
-26.838	24.395	1463.246	1176.952
-25.823	24.569	1461.397	1176.566
-24.809	24.372	1459.884	1174.003
-23.794	24.472	1458.365	1173.394
-22.779	24.514	1457.473	1172.904
-21.765	24.507	1456.176	1171.769
-20.750	24.528	1455.238	1171.104
-19.736	24.527	1454.234	1170.246
-18.721	24.449	1453.256	1168.899
-17.706	24.408	1452.547	1168.014
-16.692	24.439	1451.186	1167.077
-15.677	24.416	1450.246	1166.124
-14.663	24.446	1449.126	1165.370
-13.648	24.424	1448.227	1164.457
-12.633	24.481	1446.991	1163.788
-11.619	24.324	1447.068	1162.785
-10.604	24.463	1445.555	1162.424
-9.590	24.446	1445.021	1161.840
-8.575	24.448	1444.151	1161.106
-7.560	24.421	1443.119	1160.056
-6.546	24.469	1442.509	1159.833
-5.531	24.395	1441.554	1158.536
-4.517	24.500	1440.257	1158.126
-3.502	24.388	1439.631	1156.852
-2.487	24.363	1439.033	1156.168
-1.473	24.435	1437.471	1155.331
-0.458	24.401	1435.859	1153.768
0.556	22.678	1426.503	1142.432
1.571	19.446	1402.220	1102.269
2.586	15.769	1341.493	1031.924
3.600	14.097	1259.765	959.333
4.615	13.080	1215.939	920.208
5.629	11.313	1160.490	868.763
6.644	5.628	1080.072	780.235
7.659	0.869	1044.712	731.650
8.673	0.167	1039.587	724.618
9.688	0.172	1035.884	722.000
10.702	0.204	1034.392	721.050
11.717	0.147	1032.389	719.316
12.731	1.971	1033.292	728.599
13.746	8.261	1041.712	764.687
14.761	14.535	1049.821	800.781
15.775	16.828	1051.882	813.301
16.790	16.543	1050.279	810.624
17.804	15.439	1048.747	804.082
18.819	14.693	1046.333	798.593
19.834	14.347	1044.867	795.751
20.848	13.999	1044.556	793.779
21.863	13.754	1043.524	791.759
22.877	13.489	1042.333	789.520
23.892	13.296	1041.730	788.074
24.907	13.250	1041.282	787.447
25.921	13.277	1040.007	786.541
26.936	13.237	1039.718	786.061
27.950	13.268	1039.371	785.878
28.965	13.254	1038.499	785.084
29.980	13.296	1037.750	784.645
30.994	13.408	1036.414	784.096
32.009	13.381	1036.124	783.684
33.023	13.566	1035.080	783.699
34.038	13.588	1034.274	783.120
35.053	13.441	1033.878	782.057
36.067	13.379	1033.022	781.050
37.082	13.400	1032.046	780.342
38.096	13.387	1031.662	779.919
39.111	13.379	1031.053	779.354
40.126	13.440	1029.967	778.748
41.140	13.383	1028.696	777.452
42.155	13.285	1027.644	776.130
43.169	13.224	1027.149	775.401
44.184	13.133	1026.255	774.231
45.199	13.177	1025.489	773.790
46.213	13.107	1023.881	772.181
47.228	13.208	1022.746	771.727
48.242	13.255	1021.885	771.231
49.257	13.318	1021.189	770.931
50.271	13.333	1020.091	770.103
51.286	13.290	1019.113	769.095
52.301	13.331	1018.637	768.859
53.315	13.362	1017.755	768.267
54.330	13.351	1016.943	767.538
55.344	13.268	1015.612	766.080
56.359	13.275	1014.408	765.135
57.374	13.328	1014.132	765.106
58.388	13.238	1013.106	763.847
59.403	13.275	1012.522	763.510
60.417	13.242	1011.876	762.806
61.432	13.304	1010.541	762.018
62.447	13.332	1009.745	761.479
63.461	13.306	1009.118	760.817
64.476	13.156	1008.204	759.371
65.490	13.107	1007.835	758.800
66.505	13.177	1006.996	758.423
67.520	13.174	1006.277	757.800
68.534	13.227	1005.218	757.178
69.549	13.193	1004.832	756.666
70.563	13.243	1003.791	756.043
71.578	13.261	1003.225	755.633
72.593	13.194	1002.112	754.422
73.607	13.095	1001.691	753.585
74.622	13.207	1000.323	753.000
75.636	13.104	999.716	752.007
76.651	13.138	998.905	751.487
77.666	13.083	998.271	750.692
78.680	13.071	997.411	749.926
79.695	13.125	996.881	749.704
80.709	13.107	996.845	749.529
81.724	13.196	995.700	749.007
82.739	13.295	994.396	748.410
83.753	13.312	993.575	747.800
84.768	13.320	993.388	747.630
85.782	13.391	992.558	747.262
86.797	13.422	992.067	746.962
87.812	13.370	990.782	745.696
88.826	13.306	990.057	744.795
89.841	13.287	989.382	744.135
90.855	13.358	988.515	743.739
91.870	13.343	987.621	742.931
92.884	13.512	986.354	742.673
93.899	13.402	986.429	742.170
94.914	13.390	985.470	741.329
95.928	13.439	984.569	740.805
96.943	13.526	983.778	740.533
97.957	13.433	983.109	739.547
98.972	13.525	982.122	739.150
99.987	13.499	981.583	738.565
101.001	13.507	981.080	738.155
102.016	13.478	980.226	737.317
103.030	13.584	978.858	736.695
104.045	13.608	977.887	736.005
105.060	13.618	976.565	734.992
106.074	13.615	975.858	734.379
107.089	13.285	975.855	732.849
108.103	13.320	974.955	732.266
109.118	13.306	974.184	731.558
110.133	13.330	973.068	730.761
111.147	13.301	972.054	729.807
112.162	13.180	971.600	728.869
113.176	13.285	970.373	728.347
114.191	13.420	969.356	728.114
115.206	13.328	968.711	727.161
116.220	13.406	968.037	726.930
117.235	13.370	966.738	725.734
118.249	13.406	965.864	725.170
119.264	13.256	965.219	723.968
120.279	13.388	964.299	723.789
121.293	13.373	963.817	723.296
122.308	13.189	963.670	722.318
123.322	13.328	961.892	721.528
124.337	13.433	960.679	721.012
125.352	13.271	960.105	719.812
126.366	13.381	958.766	719.222
127.381	13.318	957.638	718.041
128.395	13.238	956.756	716.969
129.410	13.331	955.745	716.551
130.424	13.371	954.925	716.045
131.439	13.353	953.878	715.120
132.454	13.345	953.397	714.662
133.468	13.259	953.023	713.944
134.483	13.340	951.965	713.438
135.497	13.319	951.151	712.675
136.512	13.415	950.043	712.195
137.527	13.360	949.639	711.592
138.541	13.611	948.300	711.604
139.556	13.474	948.107	710.811
140.570	13.395	947.435	709.904
141.585	13.369	946.892	709.321
142.600	13.477	946.069	709.105
143.614	13.429	945.641	708.515
144.629	13.549	945.155	708.602
145.643	13.642	944.163	708.194
146.658	13.623	942.962	707.150
147.673	13.506	942.139	705.971
148.687	13.400	941.541	705.008
149.702	13.617	940.300	704.941
150.716	13.423	939.836	703.707
151.731	13.579	938.681	703.442
152.746	13.441	938.396	702.579
153.760	13.393	937.858	701.912
154.775	13.588	936.967	702.008
155.789	13.540	936.500	701.394
156.804	13.600	935.353	700.726
157.819	13.508	934.900	699.933
158.833	13.603	933.911	699.532
159.848	13.754	933.012	699.437
160.862	13.620	932.881	698.708
161.877	13.539	932.414	697.958
162.892	13.648	931.046	697.328
163.906	13.546	930.289	696.273
164.921	13.643	929.286	695.869
165.935	13.548	928.589	694.885
166.950	13.591	927.848	694.449
167.964	13.659	926.616	693.750
168.979	13.674	925.503	692.917
169.994	13.742	924.556	692.431
171.008	13.674	923.828	691.542
172.023	13.712	923.038	691.049
173.037	13.732	922.304	690.522
174.052	13.765	921.702	690.148
175.067	13.726	921.252	689.585
176.081	13.691	920.105	688.520
177.096	13.609	919.547	687.702
178.110	13.593	919.020	687.183
179.125	13.860	917.637	687.192
180.140	13.705	917.344	686.270
181.154	13.744	916.792	685.956
182.169	13.785	916.085	685.537
183.183	13.835	915.206	685.025
184.198	13.834	914.671	684.562
185.213	13.918	913.872	684.248
186.227	13.932	913.095	683.663
187.242	13.959	912.677	683.401
188.256	13.939	912.045	682.785
189.271	13.817	911.021	681.457
190.286	14.084	910.286	681.943
191.300	13.867	909.403	680.333
192.315	13.720	908.977	679.352
193.329	13.842	908.197	679.204
194.344	13.768	907.751	678.508
195.359	13.854	907.184	678.379
196.373	13.776	907.119	677.952
197.388	14.128	905.634	678.215
198.402	13.915	905.740	677.366
199.417	13.996	905.415	677.394
200.432	14.005	904.771	676.889
201.446	14.149	904.362	677.110
202.461	14.141	903.619	676.459
203.475	14.156	903.084	676.062
204.490	14.199	902.749	675.925
205.504	14.171	901.414	674.751
206.519	14.193	900.802	674.323
207.534	14.083	900.449	673.554
208.548	14.137	899.328	672.873
209.563	14.183	898.614	672.465
210.577	14.136	898.221	671.921
211.592	14.219	897.259	671.480
212.607	14.307	896.809	671.440
213.621	14.211	896.257	670.578
214.636	14.253	895.633	670.221
215.650	14.284	895.028	669.835
216.665	14.331	894.580	669.629
217.680	14.358	893.849	669.132
218.694	14.306	893.442	668.558
219.709	14.375	892.956	668.412
220.723	14.533	892.289	668.487
221.738	14.399	891.829	667.545
222.753	14.371	891.108	666.834
223.767	14.443	890.241	666.414
224.782	14.445	889.524	665.829
225.796	14.579	888.687	665.677
226.811	14.395	888.358	664.637
227.826	14.457	887.443	664.142
228.840	14.434	886.710	663.444
229.855	14.531	886.316	663.473
230.869	14.447	885.588	662.536
231.884	14.460	884.672	661.846
232.899	14.363	884.474	661.252
233.913	14.467	883.541	660.908
234.928	14.382	882.891	660.029
235.942	14.462	882.065	659.670
236.957	14.502	881.306	659.201
237.972	14.546	881.041	659.119
238.986	14.496	880.303	658.310
240.001	14.621	879.437	658.098
241.015	14.649	878.744	657.630
242.030	14.528	878.657	657.030
243.045	14.602	877.612	656.481
244.059	14.720	877.111	656.514
245.074	14.691	875.834	655.387
246.088	14.648	875.571	654.961
247.103	14.778	875.272	655.193
248.117	14.658	875.010	654.466
249.132	14.690	874.166	653.903
250.147	14.950	873.207	654.143
251.161	14.888	872.494	653.311
252.176	14.814	872.537	652.996
253.190	14.962	871.358	652.630
254.205	14.868	871.258	652.133
255.220	14.918	870.387	651.617
256.234	14.924	869.892	651.213
257.249	15.135	868.972	651.288
258.263	14.968	868.589	650.295
259.278	15.056	867.754	649.951
260.293	14.993	867.695	649.608
261.307	15.152	867.022	649.661
262.322	15.150	865.940	648.784
263.336	15.185	865.234	648.334
264.351	15.236	864.973	648.280
265.366	15.118	864.101	647.111
266.380	15.093	863.741	646.691
267.395	15.237	863.075	646.690
268.409	15.115	862.320	645.594
269.424	15.218	861.137	645.049
270.439	15.275	860.540	644.763
271.453	15.187	859.853	643.853
272.468	15.169	859.240	643.270
273.482	15.120	859.014	642.855
274.497	15.230	858.258	642.656
275.512	15.265	857.499	642.163
276.526	15.254	856.641	641.424
277.541	15.375	856.102	641.426
278.555	15.279	856.098	640.997
279.570	15.280	855.127	640.216
280.585	15.421	854.696	640.376
281.599	15.425	854.011	639.821
282.614	15.469	853.348	639.438
283.628	15.427	852.569	638.636
284.643	15.408	851.769	637.908
285.657	15.382	851.775	637.755
286.672	15.439	850.886	637.251
287.687	15.433	850.483	636.869
288.701	15.458	850.110	636.630
289.716	15.519	849.132	636.071
290.730	15.480	849.231	635.944
291.745	15.490	848.443	635.335
292.760	15.578	847.874	635.183
293.774	15.481	847.229	634.278
294.789	15.620	846.760	634.395
295.803	15.554	845.927	633.468
296.818	15.538	845.286	632.869
297.833	15.611	844.634	632.602
298.847	15.615	843.651	631.823
299.862	15.605	843.029	631.264
300.876	15.562	842.381	630.560
301.891	15.814	841.486	630.781
302.906	15.671	841.560	630.243
303.920	15.651	840.893	629.614
304.935	15.774	840.015	629.362
305.949	15.765	839.741	629.066
306.964	15.820	838.691	628.429
307.979	15.895	838.158	628.255
308.993	15.957	837.795	628.158
310.008	15.975	837.240	627.755
311.022	15.963	836.581	627.161
312.037	15.864	836.344	626.559
313.052	15.795	835.774	625.821
314.066	15.851	835.018	625.405
315.081	16.088	833.858	625.362
316.095	15.759	834.062	624.237
317.110	15.782	833.308	623.703
318.125	15.857	832.999	623.694
319.139	15.927	832.245	623.335
320.154	15.892	832.172	623.093
321.168	16.006	831.164	622.705
322.183	15.920	830.607	621.915
323.197	16.041	830.297	622.077
324.212	15.941	829.822	621.297
325.227	15.983	828.943	620.738
326.241	16.004	828.826	620.671
327.256	16.005	828.403	620.304
328.270	15.912	827.724	619.400
329.285	15.976	826.887	618.952
330.300	15.981	826.594	618.697
331.314	15.983	825.924	618.149
332.329	16.059	824.915	617.618
333.343	16.083	824.432	617.288
334.358	16.053	824.121	616.890
335.373	16.139	823.620	616.776
336.387	16.108	822.838	616.024
337.402	16.191	822.298	615.866
338.416	16.193	821.863	615.494
339.431	16.351	821.300	615.595
340.446	16.263	820.754	614.808
341.460	16.378	820.312	614.841
342.475	16.369	819.734	614.322
343.489	16.457	818.903	613.965
344.504	16.396	818.791	613.605
345.519	16.441	818.345	613.378
346.533	16.412	817.825	612.829
347.548	16.478	817.277	612.604
348.562	16.416	816.912	612.051
349.577	16.409	816.377	611.572
350.592	16.290	816.098	610.877
351.606	16.344	815.216	610.357
352.621	16.414	814.644	610.131
353.635	16.428	814.224	609.812
354.650	16.452	813.771	609.503
355.665	16.551	813.135	609.330
356.679	16.445	813.288	609.011
357.694	16.550	812.868	609.019
358.708	16.664	811.695	608.498
359.723	16.369	811.766	607.436
360.738	16.564	811.142	607.616
361.752	16.509	810.301	606.733
362.767	16.675	809.845	606.936
363.781	16.504	809.645	606.117
364.796	16.588	809.210	606.039
365.810	16.730	808.573	606.018
366.825	16.800	808.342	606.039
367.840	16.714	807.918	605.362
368.854	16.771	807.483	605.185
369.869	16.887	806.902	605.110
370.883	16.709	806.562	604.168
371.898	16.764	805.848	603.777
372.913	16.813	805.291	603.478
373.927	16.910	804.467	603.155
374.942	16.971	804.320	603.206
375.956	16.833	803.450	602.011
376.971	16.826	802.899	601.521
377.986	17.006	802.363	601.704
379.000	17.074	801.918	601.556
380.015	16.979	801.666	600.980
381.029	16.860	801.269	600.207
382.044	17.040	800.302	600.064
383.059	17.033	799.950	599.725
384.073	16.907	799.513	598.896
385.088	17.052	798.980	598.958
386.102	16.965	798.361	598.132
387.117	16.906	798.095	597.674
388.132	16.985	797.455	597.420
389.146	16.915	796.973	596.760
390.161	16.966	796.672	596.659
391.175	17.130	796.152	596.795
392.190	17.234	795.952	596.956
393.205	17.038	795.811	596.110
394.219	17.023	795.113	595.482
395.234	17.128	794.548	595.374
396.248	17.030	793.963	594.539
397.263	17.130	793.199	594.265
398.278	17.110	792.828	593.866
399.292	17.222	792.363	593.855
400.307	17.251	792.116	593.720
401.321	17.237	791.450	593.117
402.336	17.002	791.404	592.212
403.350	17.285	790.813	592.704
404.365	17.320	790.398	592.463
405.380	17.455	789.427	592.151
406.394	17.314	789.402	591.590
407.409	17.341	789.064	591.380
408.423	17.268	788.954	590.990
409.438	17.420	788.174	590.879
410.453	17.422	787.926	590.650
411.467	17.430	787.581	590.367
412.482	17.468	787.026	590.029
413.496	17.427	786.670	589.568
414.511	17.468	786.070	589.208
415.526	17.512	785.844	589.140
416.540	17.446	785.801	588.826
417.555	17.521	784.985	588.423
418.569	17.449	784.461	587.729
419.584	17.579	784.100	587.857
420.599	17.616	783.565	587.529
421.613	113.955	1295.729	1485.538
422.628	97.805	1370.308	1485.639
