DTS Sentinel unit serial number:	SN413079Multiplexer serial number:	ORYXHardware model number:	OX4-SRSoftware version number:	ORYX F/W v4.00 Oryx Data Collector v3.7.2.0data status	okinstallation	princeton_trtdifferential loss correction	single-endedforward channel	channel 3reverse channel	N/Adate	2019/09/16time	02:00:35forward acquisition time	60.00reverse acquisition time	0.00gamma	496.2192k internal	0.2336k external	0.2336temperature offset calibration	0.9950default loss term (dB/km)	0.3790temperature slope calibration	1.0000multiplexer offset coefficient	1.0000multiplexer slope coefficient	1.0000fibre end	0.00T internal ref (°C)	27.44T ext. ref 1 (°C)	10.10T ext. ref 2 (°C)	22.41length (m)	temperature (°C)	Stokes	anti-Stokes-747.200	85.140	0.091	0.100
-746.185	359.841	-0.044	-0.089
-745.171	-158.029	0.159	0.009
-744.156	-92.536	-0.616	0.174
-743.142	167.480	-0.075	0.107
-742.127	429.655	-0.080	0.174
-741.112	800.000	0.073	0.212
-740.098	-144.823	0.247	0.023
-739.083	-200.000	0.015	-0.244
-738.069	-66.187	-0.259	0.104
-737.054	-200.000	-0.008	-0.046
-736.039	-37.163	-0.202	0.109
-735.025	405.053	0.055	0.117
-734.010	325.172	-0.054	0.103
-732.996	359.915	0.177	0.355
-731.981	-140.987	-0.255	0.026
-730.966	-35.112	0.151	-0.083
-729.952	43.938	-0.032	-0.030
-728.937	800.000	0.072	0.229
-727.923	-6.380	-0.126	0.087
-726.908	380.417	-0.069	0.143
-725.894	-136.167	-0.205	0.024
-724.879	48.795	0.277	-0.261
-723.864	68.117	0.041	0.042
-722.850	-119.927	-0.335	0.058
-721.835	98.526	0.168	0.194
-720.821	514.552	-0.074	0.173
-719.806	785.238	-0.049	0.134
-718.791	88.709	-0.046	-0.051
-717.777	11.035	-0.286	0.219
-716.762	-78.906	0.224	0.077
-715.748	-200.000	0.022	0.148
-714.733	-74.132	0.334	0.121
-713.718	-191.466	-0.264	0.003
-712.704	-19.561	-0.206	0.128
-711.689	800.000	0.059	0.227
-710.675	-80.835	-0.411	0.137
-709.660	-152.003	0.258	-0.019
-708.645	77.629	0.157	-0.168
-707.631	34.625	0.143	-0.126
-706.616	800.000	-0.015	-0.062
-705.602	-11.083	0.073	-0.049
-704.587	52.332	0.180	0.173
-703.572	44.225	-0.070	-0.064
-702.558	-36.501	-0.377	0.203
-701.543	800.000	0.083	0.244
-700.529	-200.000	-0.001	-0.121
-699.514	-200.000	0.037	0.272
-698.499	199.882	-0.066	0.101
-697.485	587.544	0.116	0.286
-696.470	447.576	-0.133	0.294
-695.456	-200.000	0.024	-0.145
-694.441	-169.992	-0.291	0.010
-693.426	-200.000	-0.060	-0.442
-692.412	-0.445	-0.154	-0.109
-691.397	-200.000	0.049	-0.331
-690.383	52.641	-0.113	-0.108
-689.368	-200.000	0.001	0.294
-688.354	-45.994	-0.071	0.035
-687.339	63.854	-0.114	-0.115
-686.324	68.254	0.083	-0.086
-685.310	2.980	-0.149	0.109
-684.295	-176.441	-0.348	-0.009
-683.281	-96.493	-0.403	-0.107
-682.266	56.654	-0.165	0.161
-681.251	127.796	-0.259	-0.330
-680.237	800.000	0.097	0.330
-679.222	28.521	-0.069	0.058
-678.208	591.100	-0.049	0.122
-677.193	115.776	-0.161	-0.197
-676.178	-89.341	-0.081	0.024
-675.164	-200.000	0.084	0.422
-674.149	137.062	0.078	0.102
-673.135	-94.321	-0.170	0.046
-672.120	-200.000	0.013	-0.317
-671.105	-46.559	-0.264	-0.129
-670.091	67.387	0.232	0.237
-669.076	220.062	-0.158	0.254
-668.062	480.624	-0.103	-0.234
-667.047	401.345	0.073	0.153
-666.032	-37.261	0.155	0.083
-665.018	-190.141	0.240	0.003
-664.003	-200.000	-0.061	0.273
-662.989	-67.155	-0.144	-0.057
-661.974	-18.898	0.189	0.117
-660.959	-80.166	-0.013	-0.004
-659.945	-200.000	-0.008	-0.155
-658.930	625.371	-0.030	-0.076
-657.916	504.388	0.082	-0.190
-656.901	-160.444	-0.041	0.002
-655.886	-81.612	0.256	-0.084
-654.872	41.249	-0.267	-0.242
-653.857	95.723	-0.121	0.139
-652.843	28.441	-0.117	-0.099
-651.828	-170.213	0.240	0.008
-650.814	7.720	-0.085	-0.064
-649.799	74.073	0.106	-0.111
-648.784	-133.726	0.250	0.031
-647.770	-200.000	0.058	0.434
-646.755	-200.000	0.019	-0.571
-645.741	365.742	-0.075	0.151
-644.726	-168.793	-0.350	-0.013
-643.711	-51.893	0.209	0.097
-642.697	-186.214	-0.132	0.002
-641.682	767.240	0.056	-0.152
-640.668	-103.322	-0.236	-0.056
-639.653	-129.559	0.382	-0.053
-638.638	597.960	-0.157	-0.390
-637.624	26.231	-0.287	0.239
-636.609	-93.982	-0.066	0.018
-635.595	345.008	0.082	-0.161
-634.580	-46.173	0.100	0.049
-633.565	-200.000	-0.014	-0.128
-632.551	-200.000	0.017	0.272
-631.536	-135.805	0.199	0.023
-630.522	294.103	0.077	0.141
-629.507	-17.262	-0.388	0.245
-628.492	-83.784	0.158	0.050
-627.478	44.789	-0.139	0.127
-626.463	-40.579	0.277	-0.144
-625.449	-31.181	0.232	0.131
-624.434	800.000	0.121	0.336
-623.419	-51.608	0.067	-0.031
-622.405	249.089	0.190	-0.322
-621.390	800.000	0.014	-0.059
-620.376	-200.000	-0.014	-0.280
-619.361	-95.484	-0.194	-0.052
-618.346	-33.206	0.211	-0.117
-617.332	61.305	0.112	-0.111
-616.317	311.118	-0.258	-0.483
-615.303	314.182	0.093	0.175
-614.288	503.012	0.016	-0.038
-613.273	112.922	-0.125	-0.152
-612.259	343.258	-0.043	0.083
-611.244	149.414	-0.105	0.142
-610.230	-59.170	-0.092	0.039
-609.215	467.532	-0.046	-0.102
-608.201	80.389	-0.183	0.197
-607.186	-200.000	-0.013	0.121
-606.171	800.000	-0.093	-0.403
-605.157	-44.855	-0.128	0.064
-604.142	-200.000	0.022	0.178
-603.128	48.794	-0.242	0.227
-602.113	47.699	0.204	0.190
-601.098	-69.210	-0.337	-0.129
-600.084	-200.000	0.035	0.295
-599.069	218.740	0.160	0.255
-598.055	800.000	0.037	-0.130
-597.040	-200.000	0.097	-0.546
-596.025	119.452	-0.091	-0.112
-595.011	-53.829	-0.184	0.084
-593.996	52.047	-0.309	-0.294
-592.982	-188.453	0.188	-0.002
-591.967	-200.000	-0.031	-0.173
-590.952	127.397	-0.107	0.135
-589.938	259.951	0.024	-0.042
-588.923	-28.060	-0.341	-0.197
-587.909	800.000	-0.055	0.211
-586.894	640.890	-0.047	-0.120
-585.879	-4.649	-0.157	0.108
-584.865	157.149	0.173	-0.239
-583.850	-60.752	-0.170	0.072
-582.836	41.931	0.108	0.098
-581.821	156.913	0.127	0.176
-580.806	106.259	0.053	0.063
-579.792	511.424	-0.073	0.170
-578.777	-200.000	0.013	-0.224
-577.763	-54.637	0.205	-0.092
-576.748	-166.726	-0.150	-0.006
-575.733	-139.144	-0.046	-0.005
-574.719	-200.000	-0.008	0.098
-573.704	-26.251	-0.404	0.237
-572.690	-155.765	0.249	-0.016
-571.675	37.035	-0.092	-0.081
-570.661	50.690	0.151	0.143
-569.646	-26.702	-0.369	0.215
-568.631	-78.845	0.182	-0.062
-567.617	-200.000	0.001	-0.298
-566.602	-200.000	0.029	0.189
-565.588	800.000	-0.052	-0.172
-564.573	-195.713	0.181	-0.001
-563.558	-200.000	-0.013	0.151
-562.544	-159.915	-0.278	0.015
-561.529	800.000	0.081	-0.240
-560.515	-36.472	0.146	-0.079
-559.500	-42.166	-0.093	0.048
-558.485	252.539	-0.110	0.187
-557.471	-154.025	0.287	0.019
-556.456	261.874	0.107	-0.185
-555.442	637.778	-0.029	0.072
-554.427	324.470	0.099	0.188
-553.412	-200.000	-0.074	-0.325
-552.398	20.940	0.320	0.259
-551.383	-106.312	0.085	-0.019
-550.369	31.514	0.235	0.201
-549.354	800.000	-0.036	0.141
-548.339	212.885	0.164	-0.258
-547.325	-68.858	-0.128	0.049
-546.310	314.886	-0.061	0.114
-545.296	58.107	0.247	0.241
-544.281	-38.330	-0.071	-0.038
-543.266	-103.679	-0.201	0.047
-542.252	-134.884	0.064	0.008
-541.237	304.228	0.158	0.291
-540.223	513.748	0.098	0.227
-539.208	224.581	-0.123	0.199
-538.193	-83.503	-0.373	-0.119
-537.179	-200.000	-0.012	0.312
-536.164	10.077	-0.213	-0.161
-535.150	-104.631	-0.193	-0.044
-534.135	533.736	0.074	-0.175
-533.121	365.066	0.191	-0.382
-532.106	-64.249	-0.170	0.069
-531.091	-141.953	0.214	-0.021
-530.077	-166.493	0.350	0.015
-529.062	-131.363	0.216	0.028
-528.048	276.336	0.221	0.391
-527.033	55.158	-0.327	0.315
-526.018	-71.072	-0.168	0.063
-525.004	126.976	-0.177	-0.224
-523.989	500.818	0.101	-0.232
-522.975	-131.522	0.321	0.042
-521.960	-7.101	-0.230	0.155
-520.945	800.000	0.026	0.103
-519.931	800.000	0.066	-0.262
-518.916	-87.806	0.455	0.136
-517.902	-107.324	0.140	-0.031
-516.887	571.855	-0.080	0.193
-515.872	30.930	-0.119	0.101
-514.858	698.396	0.080	0.209
-513.843	-7.824	-0.077	-0.051
-512.829	-14.459	0.032	-0.020
-511.814	-11.713	0.042	0.028
-510.799	793.785	0.077	-0.210
-509.785	529.530	-0.060	-0.141
-508.770	-200.000	0.048	0.537
-507.756	-8.020	0.063	-0.042
-506.741	-200.000	-0.009	-0.129
-505.726	68.922	0.059	-0.061
-504.712	-200.000	-0.063	0.303
-503.697	669.729	0.099	-0.255
-502.683	152.438	-0.216	0.293
-501.668	71.378	-0.312	0.322
-500.653	133.494	0.100	-0.128
-499.639	-103.161	-0.235	0.055
-498.624	214.123	-0.073	-0.115
-497.610	-200.000	-0.011	0.065
-496.595	23.323	0.161	0.132
-495.581	-86.424	-0.285	-0.087
-494.566	680.024	-0.119	0.308
-493.551	20.766	0.193	0.155
-492.537	27.990	-0.288	-0.241
-491.522	60.571	-0.181	-0.178
-490.508	-200.000	0.072	-0.354
-489.493	800.000	0.076	0.329
-488.478	-200.000	-0.043	-0.313
-487.464	244.584	0.109	0.181
-486.449	-104.269	-0.055	0.013
-485.435	-200.000	-0.014	-0.071
-484.420	29.188	-0.184	0.155
-483.405	-200.000	-0.046	-0.214
-482.391	-88.486	0.292	0.087
-481.376	61.391	0.110	0.109
-480.362	-120.196	0.228	0.039
-479.347	184.615	0.170	0.250
-478.332	-200.000	0.069	0.572
-477.318	800.000	0.108	0.366
-476.303	-200.000	0.017	0.171
-475.289	-200.000	-0.014	-0.124
-474.274	-139.347	0.252	0.027
-473.259	-200.000	-0.026	0.329
-472.245	-122.191	-0.101	-0.016
-471.230	-200.000	-0.030	-0.160
-470.216	-200.000	0.021	-0.140
-469.201	53.638	0.161	-0.153
-468.186	-56.356	0.328	0.145
-467.172	-93.504	-0.429	-0.118
-466.157	35.626	0.160	0.140
-465.143	-150.151	-0.201	0.015
-464.128	-12.767	0.181	0.117
-463.113	-159.734	-0.308	-0.017
-462.099	800.000	-0.128	-0.492
-461.084	-18.814	0.019	-0.012
-460.070	800.000	0.058	0.249
-459.055	79.649	0.246	-0.263
-458.040	-110.464	0.323	-0.067
-457.026	800.000	0.088	-0.328
-456.011	76.196	0.196	-0.206
-454.997	800.000	0.012	0.048
-453.982	-9.665	0.349	0.231
-452.968	-123.234	-0.313	0.050
-451.953	443.269	-0.084	0.183
-450.938	527.659	0.108	0.253
-449.924	-125.895	0.169	-0.025
-448.909	35.990	-0.123	0.108
-447.895	535.113	0.071	0.168
-446.880	715.049	0.080	0.210
-445.865	32.234	-0.246	0.211
-444.851	301.330	-0.033	-0.061
-443.836	24.667	0.103	-0.084
-442.822	-200.000	-0.010	-0.189
-441.807	-200.000	0.336	0.000
-440.792	134.076	-0.174	-0.224
-439.778	-17.308	-0.251	-0.157
-438.763	-200.000	-0.039	0.328
-437.749	-25.994	0.264	-0.154
-436.734	68.034	-0.050	0.051
-435.719	176.695	0.266	-0.384
-434.705	800.000	0.007	0.028
-433.690	110.692	-0.137	-0.163
-432.676	43.019	-0.083	-0.075
-431.661	743.637	-0.038	-0.100
-430.646	3.569	0.208	-0.150
-429.632	-200.000	-0.028	0.266
-428.617	-14.889	0.312	0.199
-427.603	652.770	-0.062	0.157
-426.588	30.268	0.223	0.189
-425.573	800.000	-0.080	0.231
-424.559	-78.385	0.076	-0.026
-423.544	23.375	0.042	-0.034
-422.530	307.065	-0.040	-0.074
-421.515	-56.694	-0.354	-0.156
-420.500	-139.589	-0.165	0.017
-419.486	-82.395	-0.182	0.059
-418.471	44.427	0.173	-0.158
-417.457	6.144	-0.223	-0.164
-416.442	82.835	-0.214	0.231
-415.428	350.014	-0.070	-0.137
-414.413	-62.340	0.360	-0.149
-413.398	-81.870	-0.048	-0.015
-412.384	-77.840	-0.311	0.106
-411.369	-200.000	-0.036	0.349
-410.355	6.818	-0.252	0.186
-409.340	370.397	-0.080	0.160
-408.325	-95.526	0.242	0.064
-407.311	-110.102	0.196	0.041
-406.296	800.000	0.041	0.126
-405.282	-102.047	-0.396	-0.095
-404.267	105.933	0.316	-0.371
-403.252	-35.215	0.097	-0.052
-402.238	201.042	-0.100	0.152
-401.223	10.724	-0.256	-0.193
-400.209	273.911	0.148	0.260
-399.194	130.207	-0.088	-0.111
-398.179	204.948	0.066	0.102
-397.165	-200.000	-0.066	0.434
-396.150	-30.679	-0.103	-0.058
-395.136	800.000	-0.067	-0.255
-394.121	-200.000	0.002	-0.072
-393.106	-33.046	0.182	-0.100
-392.092	274.943	-0.098	-0.173
-391.077	-94.618	-0.152	0.041
-390.063	569.433	-0.109	0.263
-389.048	-200.000	-0.020	0.335
-388.033	-150.796	0.262	-0.020
-387.019	-140.621	-0.140	0.014
-386.004	800.000	0.022	-0.091
-384.990	-200.000	0.066	-0.349
-383.975	-15.404	-0.120	0.076
-382.960	800.000	-0.017	-0.070
-381.946	-104.481	-0.271	-0.062
-380.931	276.339	-0.022	-0.038
-379.917	101.814	-0.282	0.325
-378.902	-200.000	-0.034	-0.148
-377.888	-97.870	0.252	0.064
-376.873	-28.938	0.378	-0.215
-375.858	20.659	-0.072	0.058
-374.844	74.872	0.198	0.207
-373.829	-44.163	-0.193	0.096
-372.815	-200.000	-0.027	-0.226
-371.800	32.103	-0.166	-0.142
-370.785	74.270	-0.283	0.294
-369.771	716.018	0.051	0.134
-368.756	800.000	0.072	-0.301
-367.742	-109.428	0.216	-0.045
-366.727	265.602	-0.098	-0.170
-365.712	-61.675	0.099	-0.041
-364.698	-200.000	-0.008	0.000
-363.683	-200.000	0.036	0.183
-362.669	95.973	-0.169	0.191
-361.654	133.216	0.106	-0.136
-360.639	-134.384	-0.121	0.015
-359.625	800.000	0.069	-0.264
-358.610	-127.913	-0.194	-0.028
-357.596	-21.262	-0.231	-0.139
-356.581	-40.203	-0.131	-0.068
-355.566	800.000	0.088	-0.306
-354.552	-83.477	-0.080	0.025
-353.537	433.919	0.063	0.136
-352.523	-146.131	-0.315	0.027
-351.508	-200.000	-0.128	0.000
-350.493	20.576	0.295	-0.236
-349.479	45.676	0.205	0.187
-348.464	470.308	0.119	0.264
-347.450	42.404	-0.249	-0.224
-346.435	-4.830	0.403	-0.275
-345.420	170.377	-0.087	0.124
-344.406	-4.649	-0.215	0.147
-343.391	-74.504	0.255	-0.091
-342.377	331.014	0.127	-0.241
-341.362	46.652	-0.479	0.439
-340.348	228.915	0.085	0.136
-339.333	-200.000	0.058	-0.279
-338.318	-97.783	0.292	-0.075
-337.304	375.125	0.070	-0.141
-336.289	-200.000	0.008	0.000
-335.275	-22.278	0.280	-0.168
-334.260	-200.000	-0.037	-0.177
-333.245	279.041	0.132	-0.233
-332.231	173.539	-0.044	-0.062
-331.216	-147.020	-0.201	-0.017
-330.202	800.000	0.114	0.343
-329.187	172.001	-0.075	0.106
-328.172	-200.000	0.021	-0.125
-327.158	130.539	-0.216	0.274
-326.143	246.340	0.141	0.234
-325.129	-27.536	-0.236	0.135
-324.114	170.061	-0.053	-0.074
-323.099	-156.411	-0.051	0.003
-322.085	-28.575	-0.125	0.071
-321.070	800.000	0.033	-0.115
-320.056	25.484	-0.091	0.075
-319.041	-0.157	0.086	0.060
-318.026	118.094	0.121	-0.147
-317.012	-200.000	-0.042	-0.383
-315.997	-113.025	0.132	0.026
-314.983	800.000	-0.082	-0.271
-313.968	228.898	-0.051	0.082
-312.953	74.450	0.189	0.196
-311.939	800.000	-0.024	-0.086
-310.924	12.608	0.191	0.145
-309.910	371.230	-0.139	-0.278
-308.895	-103.644	-0.123	-0.028
-307.880	-109.241	-0.293	0.061
-306.866	-61.039	0.289	-0.121
-305.851	130.339	-0.148	-0.187
-304.837	800.000	0.043	-0.123
-303.822	-26.712	0.244	-0.141
-302.807	-122.492	0.120	0.019
-301.793	800.000	-0.013	-0.056
-300.778	38.155	-0.184	-0.161
-299.764	269.076	-0.153	-0.266
-298.749	-50.231	0.138	-0.064
-297.735	800.000	0.053	-0.148
-296.720	712.029	-0.105	-0.275
-295.705	-68.392	-0.131	0.050
-294.691	-200.000	0.042	-0.194
-293.676	227.930	-0.122	0.196
-292.662	-89.776	0.141	0.041
-291.647	25.183	-0.107	-0.088
-290.632	93.326	0.237	0.264
-289.618	19.460	0.283	-0.224
-288.603	-200.000	0.001	-0.263
-287.589	393.897	-0.051	-0.106
-286.574	-121.062	-0.306	0.051
-285.559	-49.486	0.296	-0.139
-284.545	-175.708	-0.222	-0.006
-283.530	-2.871	0.165	0.114
-282.516	372.785	-0.087	-0.175
-281.501	-200.000	-0.033	0.286
-280.486	-122.315	0.247	-0.040
-279.472	94.359	0.163	0.182
-278.457	260.436	0.095	0.163
-277.443	-200.000	-0.091	0.424
-276.428	467.240	0.273	0.604
-275.413	-22.651	-0.318	0.190
-274.399	-200.000	0.030	-0.379
-273.384	213.417	0.199	-0.310
-272.370	67.674	0.126	0.127
-271.355	-86.112	-0.287	0.087
-270.340	-26.330	-0.126	-0.073
-269.326	800.000	-0.051	0.193
-268.311	14.252	-0.262	0.201
-267.297	256.669	0.202	-0.341
-266.282	290.791	-0.101	-0.180
-265.267	-73.545	-0.523	-0.188
-264.253	-134.194	-0.252	-0.031
-263.238	-131.388	-0.239	0.031
-262.224	800.000	0.065	0.219
-261.209	205.360	-0.205	0.314
-260.195	-33.759	-0.131	-0.071
-259.180	60.589	0.184	0.179
-258.165	33.119	-0.309	0.264
-257.151	-200.000	-0.010	0.225
-256.136	-22.497	-0.423	-0.252
-255.122	47.109	-0.149	0.137
-254.107	401.543	-0.036	-0.074
-253.092	-61.665	0.077	0.032
-252.078	-28.319	0.336	-0.191
-251.063	181.214	-0.130	-0.188
-250.049	-200.000	-0.032	-0.155
-249.034	-62.096	0.273	-0.112
-248.019	-200.000	0.039	-0.251
-247.005	71.249	-0.133	-0.136
-245.990	119.677	-0.085	0.104
-244.976	12.220	-0.082	-0.062
-243.961	51.841	0.049	0.046
-242.946	-200.000	0.009	0.208
-241.932	484.730	-0.158	0.354
-240.917	412.003	-0.125	0.261
-239.903	180.541	0.243	-0.351
-238.888	-120.944	0.165	-0.027
-237.873	284.699	0.114	-0.203
-236.859	99.171	-0.126	0.144
-235.844	491.073	0.087	-0.195
-234.830	214.588	0.200	-0.313
-233.815	-131.975	0.102	-0.013
-232.800	75.193	0.151	-0.157
-231.786	-63.697	-0.015	-0.006
-230.771	-113.501	0.239	0.046
-229.757	-200.000	-0.005	-0.166
-228.742	14.845	-0.285	0.219
-227.727	391.223	-0.180	-0.368
-226.713	-53.379	-0.069	0.031
-225.698	163.600	-0.208	0.288
-224.684	68.061	0.282	0.284
-223.669	64.754	-0.204	0.203
-222.655	-57.496	0.068	0.029
-221.640	800.000	-0.036	-0.098
-220.625	-200.000	-0.054	0.243
-219.611	161.721	-0.079	-0.109
-218.596	-200.000	0.016	-0.158
-217.582	6.286	0.214	0.156
-216.567	-200.000	0.010	0.089
-215.552	-164.502	0.099	-0.004
-214.538	108.562	0.043	0.050
-213.523	800.000	0.071	0.293
-212.509	-58.796	0.232	0.099
-211.494	143.844	0.277	0.363
-210.479	13.576	0.093	-0.071
-209.465	-6.620	-0.257	0.172
-208.450	-200.000	0.017	-0.311
-207.436	-81.818	0.290	-0.094
-206.421	-86.546	-0.268	-0.081
-205.406	135.196	-0.143	0.183
-204.392	800.000	0.071	-0.253
-203.377	258.196	0.159	-0.269
-202.363	-200.000	0.011	-0.099
-201.348	141.225	0.189	-0.246
-200.333	172.800	0.184	-0.261
-199.319	800.000	-0.123	-0.335
-198.304	153.557	0.081	-0.109
-197.290	-90.496	-0.215	0.061
-196.275	624.815	-0.077	0.190
-195.260	13.297	-0.116	0.088
-194.246	-107.744	0.255	-0.055
-193.231	-1.713	0.348	-0.241
-192.217	-30.673	0.130	-0.072
-191.202	-64.392	0.128	-0.051
-190.187	-200.000	-0.016	0.130
-189.173	-38.182	0.121	0.063
-188.158	90.447	0.145	-0.160
-187.144	-34.861	-0.125	0.067
-186.129	101.294	0.163	-0.187
-185.114	25.836	0.151	-0.124
-184.100	800.000	0.024	0.069
-183.085	199.379	-0.099	0.149
-182.071	268.523	-0.092	0.158
-181.056	-51.410	-0.161	0.074
-180.042	-200.000	-0.050	-0.294
-179.027	800.000	-0.029	-0.080
-178.012	14.933	-0.069	0.053
-176.998	160.328	-0.198	0.271
-175.983	-127.347	-0.008	0.001
-174.969	-23.580	-0.148	-0.087
-173.954	800.000	0.062	0.198
-172.939	85.337	0.095	-0.102
-171.925	44.103	0.136	-0.123
-170.910	43.700	0.039	0.035
-169.896	78.288	-0.210	0.220
-168.881	-13.293	0.481	-0.307
-167.866	-200.000	0.002	0.166
-166.852	-200.000	0.053	-0.260
-165.837	416.626	0.053	0.111
-164.823	631.386	0.022	0.056
-163.808	2.375	-0.188	-0.133
-162.793	800.000	-0.017	-0.066
-161.779	-25.011	-0.311	-0.181
-160.764	-59.556	-0.054	0.023
-159.750	428.869	0.037	-0.079
-158.735	-200.000	-0.022	0.187
-157.720	56.406	-0.164	-0.156
-156.706	-115.185	0.194	-0.036
-155.691	-200.000	0.275	0.000
-154.677	-114.628	-0.096	0.018
-153.662	-110.129	-0.180	-0.037
-152.647	175.111	0.015	-0.022
-151.633	-170.118	0.175	0.006
-150.618	150.382	0.148	0.197
-149.604	608.920	-0.231	0.566
-148.589	-37.105	0.237	-0.124
-147.574	20.134	-0.072	-0.057
-146.560	124.832	0.236	0.291
-145.545	102.412	-0.132	0.151
-144.531	63.733	-0.130	0.128
-143.516	573.660	-0.019	-0.046
-142.502	32.390	0.119	0.101
-141.487	1.488	0.189	0.134
-140.472	-52.368	0.099	0.045
-139.458	-90.288	0.200	-0.057
-138.443	-200.000	-0.036	-0.387
-137.429	274.933	-0.164	-0.286
-136.414	-200.000	0.007	-0.056
-135.399	-200.000	0.014	-0.115
-134.385	16.135	-0.250	0.193
-133.370	-131.017	-0.230	0.030
-132.356	-200.000	-0.001	0.299
-131.341	-38.643	0.119	0.062
-130.326	656.032	-0.085	0.215
-129.312	182.062	0.228	-0.329
-128.297	800.000	-0.065	0.254
-127.283	-200.000	-0.016	0.164
-126.268	-6.668	-0.267	-0.178
-125.253	86.802	0.173	0.187
-124.239	205.612	0.093	0.142
-123.224	-200.000	-0.008	-0.117
-122.210	288.790	-0.122	0.218
-121.195	93.322	0.156	-0.173
-120.180	-128.219	0.338	0.047
-119.166	119.308	-0.266	0.323
-118.151	-35.399	0.345	-0.184
-117.137	-200.000	0.002	0.476
-116.122	-200.000	-0.007	-0.046
-115.107	-72.326	0.374	-0.136
-114.093	-141.480	-0.121	-0.012
-113.078	225.743	0.049	-0.078
-112.064	770.925	0.095	-0.254
-111.049	-107.471	0.260	0.056
-110.034	-97.553	0.273	-0.069
-109.020	-166.974	-0.026	0.001
-108.005	267.912	0.120	0.207
-106.991	151.077	0.234	0.312
-105.976	-200.000	0.007	0.195
-104.962	-45.664	0.342	-0.166
-103.947	-32.411	-0.036	-0.020
-102.932	-0.399	-0.134	-0.093
-101.918	347.552	0.040	-0.078
-100.903	-200.000	-0.008	-0.216
-99.889	149.248	0.280	-0.371
-98.874	-200.000	-0.052	-0.335
-97.859	772.314	0.056	0.151
-96.845	216.099	0.160	-0.249
-95.830	-200.000	-0.056	0.248
-94.816	-200.000	0.013	0.223
-93.801	44.101	-0.020	0.018
-92.786	-89.208	0.045	0.013
-91.772	207.307	-0.157	0.240
-90.757	144.087	-0.086	0.112
-89.743	-92.362	0.146	0.040
-88.728	130.551	0.054	0.068
-87.713	-76.925	-0.361	0.124
-86.699	202.134	-0.154	-0.233
-85.684	5.591	0.142	0.103
-84.670	195.966	-0.189	0.282
-83.655	-164.595	0.397	-0.018
-82.640	-200.000	-0.024	0.130
-81.626	73.309	0.236	-0.241
-80.611	-180.297	-0.188	0.004
-79.597	-83.990	0.143	0.045
-78.582	-17.886	-0.117	0.072
-77.567	425.565	0.068	0.144
-76.553	30.231	-0.352	-0.294
-75.538	145.050	0.101	-0.133
-74.524	13.179	-0.082	0.062
-73.509	90.628	-0.051	-0.056
-72.494	800.000	-0.045	0.152
-71.480	-186.519	-0.194	0.003
-70.465	-83.307	-0.237	0.074
-69.451	203.340	0.132	-0.200
-68.436	-200.000	-0.026	0.198
-67.422	-101.117	0.120	0.029
-66.407	107.385	-0.111	0.129
-65.392	-7.192	0.264	0.175
-64.378	100.425	-0.200	0.227
-63.363	3.591	-0.147	0.105
-62.349	147.681	-0.211	0.278
-61.334	206.591	-0.968	-1.474
-60.319	11.573	0.698	0.524
-59.305	388.554	-0.334	-0.676
-58.290	187.550	0.829	1.210
-57.276	509.709	0.622	1.413
-56.261	-200.000	112.742	641.113
-55.246	475.178	1501.395	3313.679
-54.232	149.179	2664.167	3524.229
-53.217	103.096	2168.460	2483.916
-52.203	37.650	1698.621	1473.850
-51.188	30.598	1516.740	1268.097
-50.173	28.337	1492.775	1232.816
-49.159	52.358	1549.436	1444.805
-48.144	51.270	1565.401	1452.196
-47.130	30.838	1522.388	1274.260
-46.115	27.675	1507.496	1240.274
-45.100	27.570	1504.291	1236.876
-44.086	27.537	1501.763	1234.529
-43.071	27.476	1499.905	1232.537
-42.057	27.503	1498.104	1231.192
-41.042	27.447	1496.775	1229.669
-40.027	27.438	1495.495	1228.510
-39.013	27.428	1493.709	1226.925
-37.998	27.304	1492.971	1225.439
-36.984	27.505	1491.089	1225.193
-35.969	27.383	1489.806	1223.273
-34.954	27.377	1488.645	1222.227
-33.940	27.330	1487.610	1221.017
-32.925	27.536	1485.574	1220.674
-31.911	27.451	1484.401	1219.098
-30.896	27.441	1483.657	1218.370
-29.881	27.513	1482.420	1217.791
-28.867	27.490	1480.939	1216.370
-27.852	27.424	1479.875	1215.003
-26.838	27.517	1478.076	1214.098
-25.823	27.537	1475.969	1212.456
-24.809	27.470	1475.092	1211.244
-23.794	27.477	1473.627	1210.038
-22.779	27.453	1472.659	1209.033
-21.765	27.594	1471.647	1209.089
-20.750	27.539	1470.579	1207.802
-19.736	27.454	1469.489	1206.296
-18.721	27.506	1468.570	1205.835
-17.706	27.390	1467.290	1203.970
-16.692	27.401	1466.383	1203.253
-15.677	27.424	1465.540	1202.660
-14.663	27.401	1464.640	1201.728
-13.648	27.363	1463.445	1200.448
-12.633	27.481	1462.362	1200.290
-11.619	27.361	1462.372	1199.455
-10.604	27.411	1461.103	1198.700
-9.590	27.420	1460.173	1197.948
-8.575	27.515	1458.931	1197.507
-7.560	27.441	1458.623	1196.720
-6.546	27.385	1457.231	1195.159
-5.531	27.375	1456.451	1194.405
-4.517	27.380	1455.530	1193.638
-3.502	27.379	1454.724	1192.925
-2.487	27.500	1453.243	1192.455
-1.473	27.474	1451.746	1191.008
-0.458	27.414	1451.302	1190.207
0.556	25.851	1441.144	1179.355
1.571	22.960	1417.659	1141.384
2.586	19.930	1357.361	1073.976
3.600	18.478	1274.932	1000.200
4.615	17.342	1230.420	958.789
5.629	16.537	1176.829	912.608
6.644	13.433	1100.843	837.915
7.659	10.563	1066.252	797.425
8.673	10.282	1061.018	792.066
9.688	10.123	1057.835	788.843
10.702	9.968	1056.418	786.961
11.717	10.017	1054.159	785.447
12.731	11.351	1054.346	791.995
13.746	14.524	1058.367	810.390
14.761	17.197	1061.712	825.891
15.775	17.920	1061.042	828.806
16.790	16.904	1059.799	822.833
17.804	15.939	1056.795	815.755
18.819	15.057	1054.894	809.950
19.834	14.481	1053.559	806.070
20.848	14.338	1052.412	804.430
21.863	13.944	1052.328	802.394
22.877	13.738	1051.169	800.443
23.892	13.575	1050.472	799.055
24.907	13.434	1049.524	797.587
25.921	13.439	1048.788	796.978
26.936	13.551	1048.203	797.005
27.950	13.444	1047.504	795.887
28.965	13.667	1045.715	795.530
29.980	13.638	1044.782	794.609
30.994	13.738	1043.523	794.061
32.009	13.662	1042.508	792.853
33.023	13.830	1041.701	792.974
34.038	13.695	1041.206	791.881
35.053	13.818	1040.184	791.620
36.067	13.646	1039.087	789.894
37.082	13.633	1038.408	789.245
38.096	13.626	1037.757	788.648
39.111	13.577	1037.141	787.881
40.126	13.717	1035.712	787.387
41.140	13.549	1034.962	785.952
42.155	13.587	1033.777	785.164
43.169	13.451	1032.889	783.772
44.184	13.469	1031.794	782.958
45.199	13.462	1031.019	782.267
46.213	13.458	1030.167	781.535
47.228	13.496	1029.241	780.941
48.242	13.615	1027.842	780.371
49.257	13.530	1027.407	779.570
50.271	13.589	1026.342	778.971
51.286	13.538	1025.899	778.330
52.301	13.625	1024.535	777.632
53.315	13.790	1023.140	777.279
54.330	13.651	1022.664	776.195
55.344	13.557	1021.856	775.074
56.359	13.529	1020.632	773.947
57.374	13.435	1020.407	773.267
58.388	13.426	1019.108	772.174
59.403	13.500	1018.430	771.935
60.417	13.501	1017.462	771.139
61.432	13.378	1017.463	770.501
62.447	13.409	1016.513	769.854
63.461	13.329	1015.200	768.420
64.476	13.328	1014.837	768.076
65.490	13.364	1013.330	767.032
66.505	13.325	1012.590	766.222
67.520	13.298	1012.000	765.586
68.534	13.500	1010.750	765.507
69.549	13.486	1010.241	764.986
70.563	13.457	1009.396	764.147
71.578	13.397	1008.974	763.481
72.593	13.280	1008.211	762.300
73.607	13.419	1006.867	761.853
74.622	13.265	1006.121	760.513
75.636	13.245	1005.315	759.746
76.651	13.343	1004.274	759.341
77.666	13.251	1003.769	758.469
78.680	13.308	1002.881	757.994
79.695	13.274	1002.851	757.748
80.709	13.363	1001.679	757.203
81.724	13.429	1001.034	756.950
82.739	13.385	1000.309	756.133
83.753	13.414	999.541	755.618
84.768	13.462	999.054	755.402
85.782	13.591	998.003	755.128
86.797	13.636	997.267	754.710
87.812	13.516	996.562	753.563
88.826	13.497	995.714	752.770
89.841	13.621	994.555	752.392
90.855	13.651	993.948	752.001
91.870	13.621	993.133	751.183
92.884	13.556	992.270	750.167
93.899	13.654	991.541	749.992
94.914	13.647	990.650	749.224
95.928	13.754	990.475	749.507
96.943	13.811	989.449	748.920
97.957	13.701	988.582	747.701
98.972	13.654	987.392	746.526
99.987	13.677	987.342	746.525
101.001	13.697	986.278	745.744
102.016	13.750	985.290	745.169
103.030	13.727	984.566	744.450
104.045	13.767	983.397	743.682
105.060	13.738	982.507	742.813
106.074	13.760	981.053	741.748
107.089	13.751	980.131	740.945
108.103	13.535	979.458	739.407
109.118	13.417	979.104	738.544
110.133	13.391	978.137	737.636
111.147	13.511	977.302	737.473
112.162	13.503	976.686	736.910
113.176	13.583	975.491	736.299
114.191	13.525	974.947	735.564
115.206	13.446	974.155	734.549
116.220	13.548	973.354	734.334
117.235	13.486	972.437	733.301
118.249	13.578	971.386	732.852
119.264	13.521	970.803	732.095
120.279	13.546	969.574	731.214
121.293	13.456	969.036	730.348
122.308	13.492	968.050	729.699
123.322	13.438	967.589	729.050
124.337	13.411	966.381	727.954
125.352	13.510	965.047	727.321
126.366	13.404	964.022	726.019
127.381	13.377	962.836	724.944
128.395	13.428	962.031	724.494
129.410	13.543	960.835	724.035
130.424	13.393	960.141	722.790
131.439	13.414	959.584	722.401
132.454	13.471	958.865	722.044
133.468	13.520	957.900	721.464
134.483	13.375	957.749	720.657
135.497	13.552	956.650	720.539
136.512	13.620	955.625	719.998
137.527	13.586	954.937	719.268
138.541	13.487	954.399	718.369
139.556	13.371	953.875	717.408
140.570	13.549	953.105	717.536
141.585	13.680	952.209	717.364
142.600	13.620	951.504	716.508
143.614	13.652	951.259	716.401
144.629	13.657	950.396	715.709
145.643	13.827	949.167	715.453
146.658	13.746	948.550	714.576
147.673	13.734	947.783	713.885
148.687	13.616	946.701	712.499
149.702	13.658	946.000	712.089
150.716	13.670	945.011	711.332
151.731	13.673	944.248	710.706
152.746	13.490	943.760	709.493
153.760	13.653	942.706	709.335
154.775	13.686	941.848	708.771
155.789	13.860	941.374	709.091
156.804	13.878	940.584	708.512
157.819	13.779	939.648	707.323
158.833	13.816	939.274	707.135
159.848	13.941	938.392	706.941
160.862	13.909	937.623	706.165
161.877	13.846	936.980	705.346
162.892	13.797	936.021	704.356
163.906	13.736	935.179	703.400
164.921	13.696	934.668	702.786
165.935	13.745	933.422	701.995
166.950	13.719	932.607	701.208
167.964	13.798	931.416	700.583
168.979	13.798	930.469	699.812
169.994	13.771	929.725	699.077
171.008	13.885	928.965	698.920
172.023	13.789	928.124	697.825
173.037	13.940	927.527	697.947
174.052	13.959	926.727	697.363
175.067	13.913	926.118	696.652
176.081	13.784	925.513	695.593
177.096	13.921	924.452	695.306
178.110	13.717	923.651	693.790
179.125	13.938	922.693	693.934
180.140	13.880	921.806	692.961
181.154	13.916	921.294	692.666
182.169	14.011	920.799	692.628
183.183	13.935	920.090	691.718
184.198	14.006	919.555	691.548
185.213	14.151	918.390	691.214
186.227	14.026	918.156	690.457
187.242	13.977	917.975	690.057
188.256	14.140	916.877	689.849
189.271	14.176	916.115	689.360
190.286	14.275	915.054	688.912
191.300	14.087	914.780	687.869
192.315	13.848	913.871	686.136
193.329	13.743	913.382	685.272
194.344	13.950	912.216	685.194
195.359	13.952	911.962	684.947
196.373	13.973	911.039	684.283
197.388	14.017	911.211	684.532
198.402	14.199	910.529	684.707
199.417	14.252	910.340	684.721
200.432	14.224	909.735	684.093
201.446	14.423	908.806	684.152
202.461	14.315	908.558	683.460
203.475	14.389	908.022	683.297
204.490	14.279	907.502	682.395
205.504	14.288	906.818	681.857
206.519	14.226	905.742	680.736
207.534	14.264	904.824	680.139
208.548	14.218	904.296	679.495
209.563	14.361	903.752	679.611
210.577	14.371	902.893	678.944
211.592	14.382	902.403	678.560
212.607	14.520	901.899	678.684
213.621	14.473	901.446	678.091
214.636	14.483	900.427	677.306
215.650	14.324	899.973	676.260
216.665	14.448	899.537	676.374
217.680	14.425	898.917	675.756
218.694	14.425	898.315	675.245
219.709	14.662	897.635	675.632
220.723	14.586	897.398	675.088
221.738	14.681	895.617	674.069
222.753	14.424	895.777	673.095
223.767	14.555	895.058	673.020
224.782	14.570	894.259	672.420
225.796	14.757	892.972	672.145
226.811	14.631	892.895	671.524
227.826	14.686	892.178	671.145
228.840	14.632	891.505	670.362
229.855	14.654	890.729	669.806
230.869	14.643	890.278	669.366
231.884	14.639	889.667	668.833
232.899	14.730	888.265	668.082
233.913	14.648	888.105	667.572
234.928	14.597	887.248	666.667
235.942	14.628	886.789	666.389
236.957	14.584	885.883	665.471
237.972	14.465	885.364	664.549
238.986	14.539	884.940	664.465
240.001	14.660	884.047	664.220
241.015	14.540	883.091	662.965
242.030	14.764	882.892	663.649
243.045	14.684	882.040	662.629
244.059	14.779	881.303	662.394
245.074	14.690	880.935	661.705
246.088	14.783	880.042	661.345
247.103	14.780	879.579	660.929
248.117	14.745	879.137	660.397
249.132	14.786	878.287	659.863
250.147	15.068	877.997	660.701
251.161	15.051	876.954	659.791
252.176	15.102	876.337	659.466
253.190	15.225	875.727	659.435
254.205	15.299	875.035	659.147
255.220	15.236	875.089	658.880
256.234	15.149	874.217	657.823
257.249	15.272	873.394	657.630
258.263	15.336	872.751	657.336
259.278	15.228	872.459	656.636
260.293	15.220	871.862	656.097
261.307	15.255	871.037	655.555
262.322	15.288	870.514	655.232
263.336	15.400	869.483	654.837
264.351	15.300	869.418	654.339
265.366	15.299	868.693	653.731
266.380	15.327	868.415	653.575
267.395	15.463	867.668	653.482
268.409	15.254	866.897	652.031
269.424	15.375	866.173	651.901
270.439	15.312	865.645	651.200
271.453	15.249	864.556	650.078
272.468	15.394	864.052	650.204
273.482	15.251	863.530	649.201
274.497	15.303	862.681	648.706
275.512	15.429	861.991	648.615
276.526	15.321	861.132	647.498
277.541	15.429	860.719	647.546
278.555	15.377	860.274	646.953
279.570	15.554	859.671	647.125
280.585	15.592	859.019	646.721
281.599	15.725	858.199	646.559
282.614	15.586	857.821	645.682
283.628	15.459	857.382	644.808
284.643	15.575	856.617	644.619
285.657	15.515	856.248	644.055
286.672	15.534	855.974	643.866
287.687	15.524	855.445	643.372
288.701	15.582	854.817	643.063
289.716	15.570	854.044	642.379
290.730	15.863	852.863	642.553
291.745	15.693	853.055	641.991
292.760	15.676	852.210	641.236
293.774	15.771	851.467	640.980
294.789	15.804	850.892	640.618
295.803	15.778	850.413	640.101
296.818	15.672	849.978	639.312
297.833	15.680	849.368	638.829
298.847	15.663	848.588	638.120
299.862	15.637	848.198	637.671
300.876	15.834	847.015	637.471
301.891	15.808	846.810	637.166
302.906	15.951	845.922	636.979
303.920	15.972	844.948	636.270
304.935	15.933	844.717	635.890
305.949	16.005	844.196	635.716
306.964	15.964	843.801	635.206
307.979	15.921	843.110	634.469
308.993	16.022	842.527	634.353
310.008	16.152	841.789	634.231
311.022	16.027	841.359	633.381
312.037	15.975	840.927	632.806
313.052	16.084	840.370	632.738
314.066	15.946	839.780	631.721
315.081	16.035	838.998	631.410
316.095	15.869	838.988	630.723
317.110	15.814	838.357	629.988
318.125	16.068	837.672	630.370
319.139	15.914	837.288	629.450
320.154	15.979	836.775	629.249
321.168	16.012	835.983	628.721
322.183	15.990	835.780	628.430
323.197	15.970	835.321	627.954
324.212	16.119	834.204	627.613
325.227	16.091	833.431	626.876
326.241	16.025	833.287	626.464
327.256	16.150	832.811	626.515
328.270	16.047	832.504	625.847
329.285	15.995	832.042	625.250
330.300	15.944	831.336	624.478
331.314	16.134	830.254	624.310
332.329	16.119	829.912	623.943
333.343	16.176	829.369	623.692
334.358	16.273	828.564	623.389
335.373	16.181	828.405	622.874
336.387	16.273	828.151	622.969
337.402	16.283	827.544	622.493
338.416	16.324	826.959	622.150
339.431	16.253	826.312	621.345
340.446	16.519	825.631	621.756
341.460	16.488	825.304	621.342
342.475	16.554	824.721	621.089
343.489	16.621	823.769	620.563
344.504	16.477	823.633	619.878
345.519	16.632	822.893	619.836
346.533	16.549	822.988	619.547
347.548	16.552	822.075	618.817
348.562	16.632	821.837	618.875
349.577	16.501	821.095	617.782
350.592	16.459	820.399	617.050
351.606	16.401	819.803	616.338
352.621	16.513	819.477	616.444
353.635	16.384	819.171	615.689
354.650	16.486	818.987	615.868
355.665	16.429	818.535	615.266
356.679	16.481	818.212	615.160
357.694	16.616	817.178	614.819
358.708	16.667	816.647	614.549
359.723	16.528	816.367	613.780
360.738	16.537	815.889	613.398
361.752	16.680	815.233	613.368
362.767	16.751	814.535	613.048
363.781	16.717	814.432	612.790
364.796	16.855	813.567	612.586
365.810	16.800	813.602	612.360
366.825	16.786	813.379	612.087
367.840	16.967	813.162	612.523
368.854	16.876	812.400	611.565
369.869	16.825	811.896	610.949
370.883	16.923	811.429	610.897
371.898	16.918	810.746	610.311
372.913	16.869	810.193	609.663
373.927	17.042	809.690	609.854
374.942	16.969	808.970	608.995
375.956	16.870	808.180	607.993
376.971	16.873	808.078	607.873
377.986	17.247	806.992	608.338
379.000	17.108	806.716	607.578
380.015	17.189	806.351	607.541
381.029	17.086	805.765	606.677
382.044	17.081	805.233	606.205
383.059	17.145	804.438	605.781
384.073	17.155	803.959	605.403
385.088	17.184	803.640	605.214
386.102	17.128	803.233	604.655
387.117	17.064	802.399	603.744
388.132	17.088	802.138	603.580
389.146	16.999	801.798	602.956
390.161	17.044	801.431	602.784
391.175	17.129	801.064	602.758
392.190	17.294	800.340	602.743
393.205	17.255	800.142	602.405
394.219	17.188	799.545	601.664
395.234	17.099	799.423	601.204
396.248	17.276	798.414	601.017
397.263	17.185	798.030	600.354
398.278	17.175	797.636	599.967
399.292	17.152	797.175	599.488
400.307	17.281	796.748	599.570
401.321	17.095	796.254	598.487
402.336	17.153	796.208	598.604
403.350	17.114	795.809	598.116
404.365	17.081	795.305	597.566
405.380	17.281	794.764	597.809
406.394	17.501	794.138	598.060
407.409	17.332	793.991	597.302
408.423	17.475	793.418	597.319
409.438	17.360	793.262	596.746
410.453	17.341	792.690	596.196
411.467	17.515	792.161	596.357
412.482	17.541	791.479	595.882
413.496	17.744	790.919	596.116
414.511	17.627	790.679	595.473
415.526	17.683	790.373	595.386
416.540	17.757	790.218	595.476
417.555	17.515	789.820	594.277
418.569	17.661	788.985	594.108
419.584	17.650	788.832	593.902
420.599	17.682	788.132	593.430
421.613	111.640	1292.947	1476.560
422.628	95.862	1366.442	1476.645
