DTS Sentinel unit serial number:	SN413079Multiplexer serial number:	ORYXHardware model number:	OX4-SRSoftware version number:	ORYX F/W v4.00 Oryx Data Collector v3.7.2.0data status	okinstallation	princeton_trtdifferential loss correction	single-endedforward channel	channel 3reverse channel	N/Adate	2019/09/13time	06:24:35forward acquisition time	60.00reverse acquisition time	0.00gamma	496.2192k internal	0.2339k external	0.2339temperature offset calibration	1.0134default loss term (dB/km)	0.3790temperature slope calibration	1.0000multiplexer offset coefficient	1.0000multiplexer slope coefficient	1.0000fibre end	0.00T internal ref (°C)	26.09T ext. ref 1 (°C)	4.09T ext. ref 2 (°C)	20.73length (m)	temperature (°C)	Stokes	anti-Stokes-747.200	-51.641	-0.173	0.081
-746.185	472.561	-0.120	-0.272
-745.171	187.037	-0.130	-0.194
-744.156	490.715	0.036	-0.083
-743.142	102.458	0.110	-0.129
-742.127	159.944	-0.165	0.231
-741.112	-149.419	0.456	0.036
-740.098	512.807	-0.097	0.228
-739.083	-200.000	0.015	0.092
-738.069	40.994	0.078	0.071
-737.054	590.029	-0.054	0.133
-736.039	-61.959	-0.200	0.084
-735.025	-200.000	-0.032	0.366
-734.010	21.238	-0.321	-0.261
-732.996	295.570	-0.103	-0.190
-731.981	667.172	-0.098	0.254
-730.966	-92.352	0.393	0.111
-729.952	195.640	-0.145	-0.221
-728.937	-200.000	0.015	0.205
-727.923	116.080	-0.112	-0.138
-726.908	627.407	0.087	-0.219
-725.894	171.466	-0.163	-0.234
-724.879	-85.577	0.428	-0.134
-723.864	235.186	0.126	-0.208
-722.850	-156.963	-0.192	-0.012
-721.835	70.293	0.029	-0.030
-720.821	-3.737	-0.232	-0.162
-719.806	-165.568	0.359	0.016
-718.791	-101.937	-0.260	-0.063
-717.777	115.691	0.186	0.227
-716.762	-61.500	0.054	0.023
-715.748	800.000	-0.089	0.257
-714.733	-200.000	0.032	-0.202
-713.718	-12.057	0.102	-0.067
-712.704	-200.000	0.021	0.164
-711.689	-104.415	0.301	0.070
-710.675	-200.000	-0.008	0.254
-709.660	-61.541	0.130	0.055
-708.645	800.000	0.034	-0.143
-707.631	-200.000	-0.024	-0.251
-706.616	-200.000	0.016	-0.212
-705.602	217.103	-0.150	0.239
-704.587	-200.000	-0.010	0.096
-703.572	245.397	-0.102	-0.172
-702.558	800.000	0.078	-0.298
-701.543	-200.000	0.008	-0.294
-700.529	-90.070	0.265	0.077
-699.514	-65.510	0.232	-0.093
-698.499	189.705	-0.194	-0.291
-697.485	-98.024	-0.219	-0.057
-696.470	-9.994	0.244	-0.163
-695.456	317.210	-0.044	0.083
-694.441	-116.668	-0.375	-0.069
-693.426	-48.607	0.298	0.143
-692.412	-175.573	0.135	0.004
-691.397	-200.000	0.011	-0.123
-690.383	131.851	-0.124	-0.160
-689.368	148.290	0.141	-0.191
-688.354	63.072	0.126	0.126
-687.339	244.313	-0.057	-0.097
-686.324	69.424	0.148	0.152
-685.310	-200.000	-0.003	0.183
-684.295	-190.721	0.186	-0.002
-683.281	-111.376	-0.438	0.089
-682.266	-89.507	0.013	-0.004
-681.251	177.056	-0.115	-0.167
-680.237	-20.444	-0.237	-0.146
-679.222	800.000	0.108	-0.321
-678.208	-108.115	0.095	0.021
-677.193	-57.702	-0.076	0.033
-676.178	-137.985	0.213	-0.024
-675.164	569.716	-0.067	-0.164
-674.149	-26.499	0.301	-0.177
-673.135	233.356	0.034	-0.057
-672.120	-23.382	-0.099	-0.059
-671.105	93.462	0.192	-0.217
-670.091	-144.739	0.346	-0.032
-669.076	556.846	-0.129	0.310
-668.062	52.905	0.185	-0.177
-667.047	-90.288	-0.189	0.055
-666.032	-157.289	-0.257	0.016
-665.018	-82.319	0.118	-0.038
-664.003	-200.000	0.024	-0.237
-662.989	-8.651	0.207	0.139
-661.974	-43.450	-0.092	-0.046
-660.959	7.301	-0.188	-0.140
-659.945	800.000	-0.088	-0.339
-658.930	259.575	-0.159	-0.275
-657.916	-154.761	-0.156	0.010
-656.901	-154.462	0.271	0.018
-655.886	-99.692	0.045	-0.011
-654.872	-61.262	0.026	-0.011
-653.857	-83.251	-0.287	-0.092
-652.843	-175.333	0.246	0.007
-651.828	-142.265	0.128	-0.013
-650.814	23.888	0.107	0.088
-649.799	39.718	0.067	0.060
-648.784	-22.050	0.136	0.082
-647.770	-62.626	-0.031	0.013
-646.755	-108.578	-0.197	-0.042
-645.741	-41.406	0.229	0.118
-644.726	318.096	0.170	-0.321
-643.711	281.624	-0.196	0.350
-642.697	-121.266	-0.144	-0.024
-641.682	22.639	-0.204	-0.166
-640.668	-121.520	0.378	0.063
-639.653	24.435	-0.112	0.093
-638.638	-168.221	-0.240	0.009
-637.624	-78.208	0.087	-0.030
-636.609	-200.000	0.026	0.125
-635.595	371.049	0.145	-0.293
-634.580	197.719	-0.131	-0.200
-633.565	131.389	0.072	0.092
-632.551	-89.854	-0.324	0.095
-631.536	800.000	-0.074	-0.258
-630.522	-47.487	0.158	0.077
-629.507	-133.931	-0.405	0.050
-628.492	-122.450	0.313	0.051
-627.478	-93.946	-0.340	-0.093
-626.463	581.338	-0.022	0.055
-625.449	-33.791	0.153	-0.084
-624.434	-38.376	-0.230	-0.122
-623.419	136.537	-0.132	-0.172
-622.405	-52.151	-0.241	0.111
-621.390	65.314	-0.076	-0.077
-620.376	800.000	0.063	0.187
-619.361	-43.936	-0.073	0.037
-618.346	-13.455	-0.194	-0.126
-617.332	97.917	0.211	-0.242
-616.317	84.636	0.087	0.095
-615.303	-29.030	-0.185	-0.106
-614.288	-200.000	-0.043	0.364
-613.273	-101.518	-0.122	-0.030
-612.259	-104.542	0.231	-0.053
-611.244	152.226	0.015	-0.021
-610.230	-30.563	0.218	-0.123
-609.215	302.662	-0.171	-0.315
-608.201	654.010	-0.050	-0.127
-607.186	-101.749	-0.063	-0.015
-606.171	141.045	-0.062	0.081
-605.157	247.167	-0.132	0.222
-604.142	246.910	0.195	-0.328
-603.128	-162.636	-0.126	0.006
-602.113	348.637	0.153	0.301
-601.098	-200.000	-0.027	-0.176
-600.084	205.941	-0.054	-0.083
-599.069	-83.904	0.274	0.087
-598.055	311.293	-0.065	0.122
-597.040	69.046	-0.178	-0.183
-596.025	231.741	-0.070	-0.115
-595.011	800.000	-0.047	0.129
-593.996	-79.297	0.262	-0.089
-592.982	42.022	0.264	-0.239
-591.967	195.043	0.298	-0.450
-590.952	-13.169	0.247	0.160
-589.938	-29.842	0.127	-0.072
-588.923	130.445	0.134	-0.171
-587.909	-200.000	0.018	-0.299
-586.894	-117.030	0.242	0.044
-585.879	-20.656	0.110	0.067
-584.865	-49.287	0.160	-0.076
-583.850	241.785	-0.237	0.395
-582.836	-200.000	-0.005	-0.185
-581.821	800.000	-0.015	0.057
-580.806	-200.000	0.017	0.312
-579.792	52.930	-0.210	0.200
-578.777	-48.210	0.277	0.133
-577.763	77.535	0.164	-0.174
-576.748	-200.000	0.038	-0.178
-575.733	800.000	-0.047	0.182
-574.719	-200.000	0.056	-0.257
-573.704	18.517	0.140	-0.111
-572.690	355.049	0.133	0.263
-571.675	-52.661	0.121	-0.056
-570.661	51.520	0.082	-0.077
-569.646	-114.937	0.232	-0.044
-568.631	-156.805	-0.245	-0.015
-567.617	-56.078	-0.287	0.127
-566.602	-142.091	-0.352	0.035
-565.588	800.000	0.037	-0.110
-564.573	-106.569	-0.435	-0.096
-563.558	-200.000	-0.030	0.136
-562.544	89.540	0.106	0.117
-561.529	22.030	-0.068	0.055
-560.515	-91.487	-0.439	-0.125
-559.500	-54.062	-0.192	-0.087
-558.485	166.261	0.029	0.040
-557.471	-59.351	0.147	0.063
-556.456	-64.829	-0.164	0.066
-555.442	-179.633	0.387	-0.008
-554.427	-27.828	0.212	0.122
-553.412	-200.000	-0.025	-0.116
-552.398	-28.535	0.223	0.128
-551.383	-101.560	0.043	0.010
-550.369	175.257	-0.158	-0.227
-549.354	-71.220	-0.189	-0.071
-548.339	-145.964	0.155	-0.014
-547.325	-21.654	0.112	-0.068
-546.310	-102.658	-0.384	-0.091
-545.296	-111.283	-0.197	0.040
-544.281	-200.000	0.584	-0.002
-543.266	-100.395	0.284	-0.070
-542.252	-150.332	0.166	0.013
-541.237	67.064	-0.167	-0.170
-540.223	-200.000	0.078	0.430
-539.208	-200.000	-0.014	-0.110
-538.193	90.613	0.030	0.033
-537.179	-200.000	-0.008	-0.056
-536.164	-200.000	-0.072	-0.325
-535.150	-16.092	-0.279	-0.176
-534.135	-150.621	0.120	-0.009
-533.121	-44.581	0.141	0.070
-532.106	444.183	-0.083	0.181
-531.091	-200.000	-0.009	0.189
-530.077	800.000	-0.089	-0.333
-529.062	-177.300	0.087	-0.002
-528.048	-36.433	0.203	0.109
-527.033	-200.000	-0.006	0.210
-526.018	94.884	-0.190	0.215
-525.004	-9.627	0.069	0.045
-523.989	-200.000	-0.039	-0.212
-522.975	-200.000	0.017	0.147
-521.960	156.163	0.053	-0.072
-520.945	-74.872	0.195	0.070
-519.931	98.980	0.109	0.125
-518.916	65.198	-0.055	-0.055
-517.902	800.000	0.121	0.506
-516.887	81.489	-0.146	-0.157
-515.872	-78.460	-0.327	-0.111
-514.858	-103.962	0.341	0.079
-513.843	-92.243	0.035	-0.010
-512.829	64.106	0.036	-0.036
-511.814	4.262	-0.027	-0.019
-510.799	64.150	0.089	0.089
-509.785	-30.805	-0.222	0.125
-508.770	-200.000	-0.001	0.149
-507.756	153.568	0.188	-0.255
-506.741	685.294	0.096	-0.250
-505.726	79.580	-0.161	-0.171
-504.712	-0.557	-0.209	-0.148
-503.697	17.974	0.225	0.178
-502.683	753.020	0.017	0.046
-501.668	165.347	0.067	0.094
-500.653	202.836	-0.024	-0.037
-499.639	8.076	0.069	0.051
-498.624	573.168	-0.088	0.213
-497.610	55.175	-0.131	-0.126
-496.595	-153.392	-0.310	-0.021
-495.581	93.435	0.040	-0.045
-494.566	-200.000	0.031	-0.278
-493.551	800.000	-0.013	0.044
-492.537	39.440	0.222	-0.197
-491.522	-120.930	-0.272	0.045
-490.508	800.000	-0.051	-0.213
-489.493	8.613	0.227	-0.169
-488.478	431.140	0.019	0.042
-487.464	42.922	0.166	-0.151
-486.449	-43.986	-0.368	0.184
-485.435	-200.000	-0.041	-0.208
-484.420	-178.464	0.274	0.006
-483.405	-200.000	-0.041	0.285
-482.391	-149.554	-0.228	0.018
-481.376	10.886	-0.286	-0.217
-480.362	196.518	0.197	-0.298
-479.347	-200.000	-0.021	0.143
-478.332	35.930	-0.143	0.125
-477.318	-185.391	-0.133	0.002
-476.303	37.455	0.119	0.104
-475.289	182.823	0.110	0.162
-474.274	-68.505	-0.184	-0.071
-473.259	-130.398	-0.471	-0.063
-472.245	555.604	0.076	-0.182
-471.230	-32.736	-0.144	0.079
-470.216	210.555	-0.031	0.048
-469.201	38.766	0.037	-0.033
-468.186	-200.000	0.063	-0.291
-467.172	-28.741	-0.260	-0.148
-466.157	800.000	0.102	-0.303
-465.143	38.682	-0.119	0.105
-464.128	645.379	-0.107	-0.270
-463.113	-143.540	0.106	-0.010
-462.099	-103.905	-0.057	0.013
-461.084	-9.987	-0.360	0.238
-460.070	92.279	0.087	-0.097
-459.055	800.000	0.004	0.013
-458.040	800.000	-0.079	-0.280
-457.026	-129.928	-0.721	0.098
-456.011	159.667	0.088	-0.122
-454.997	-154.393	-0.146	-0.010
-453.982	-69.346	-0.255	0.097
-452.968	800.000	0.041	0.165
-451.953	-45.424	-0.308	-0.151
-450.938	-200.000	-0.011	-0.088
-449.924	-45.251	-0.289	0.142
-448.909	800.000	0.072	-0.202
-447.895	12.359	0.200	0.153
-446.880	-20.229	-0.141	0.086
-445.865	170.070	-0.121	-0.171
-444.851	609.662	0.109	-0.271
-443.836	212.375	0.130	0.203
-442.822	-44.610	-0.112	0.056
-441.807	-165.891	0.479	-0.020
-440.792	800.000	0.132	0.565
-439.778	-133.440	-0.196	-0.024
-438.763	-84.801	0.445	-0.139
-437.749	-200.000	-0.002	0.037
-436.734	-200.000	-0.021	0.286
-435.719	800.000	0.101	-0.311
-434.705	-200.000	0.018	0.149
-433.690	800.000	-0.007	-0.030
-432.676	800.000	-0.058	-0.183
-431.661	-200.000	0.003	0.274
-430.646	-104.998	-0.380	-0.086
-429.632	719.183	0.118	-0.309
-428.617	-99.413	0.169	0.042
-427.603	-41.240	0.148	0.075
-426.588	-200.000	-0.014	-0.156
-425.573	86.146	-0.121	-0.132
-424.559	-200.000	0.031	0.196
-423.544	-40.339	0.141	0.073
-422.530	37.326	0.258	-0.226
-421.515	-83.442	-0.046	0.015
-420.500	-87.568	0.197	0.059
-419.486	800.000	-0.101	-0.285
-418.471	-103.076	-0.156	-0.037
-417.457	227.305	-0.124	0.199
-416.442	800.000	0.059	-0.169
-415.428	104.563	0.170	-0.199
-414.413	650.423	-0.194	0.492
-413.398	-149.362	0.426	-0.034
-412.384	-182.074	-0.291	0.005
-411.369	-87.999	0.119	0.036
-410.355	16.456	0.099	-0.078
-409.340	-97.551	0.181	-0.046
-408.325	-62.167	0.141	0.058
-407.311	252.193	0.164	-0.276
-406.296	5.370	0.091	-0.066
-405.282	204.130	0.136	-0.209
-404.267	-200.000	-0.002	0.340
-403.252	505.491	0.140	0.321
-402.238	-159.467	-0.112	0.006
-401.223	-5.322	0.159	0.108
-400.209	-200.000	-0.022	-0.225
-399.194	244.628	-0.258	0.429
-398.179	130.595	0.137	0.174
-397.165	34.541	0.069	0.059
-396.150	-52.238	0.012	-0.006
-395.136	233.950	0.176	0.287
-394.121	150.236	-0.190	-0.256
-393.106	35.244	-0.183	0.159
-392.092	52.414	-0.055	0.052
-391.077	-200.000	-0.042	0.193
-390.063	-85.913	-0.287	0.088
-389.048	338.535	-0.083	0.160
-388.033	317.939	0.026	-0.050
-387.019	-75.571	0.048	-0.017
-386.004	-200.000	-0.035	-0.163
-384.990	-200.000	-0.075	-0.332
-383.975	-85.297	0.317	-0.098
-382.960	-43.721	-0.242	0.121
-381.946	-68.058	0.352	0.136
-380.931	-175.912	-0.526	-0.014
-379.917	-171.858	0.126	-0.004
-378.902	115.969	-0.155	0.188
-377.888	-200.000	-0.027	-0.196
-376.873	-200.000	-0.011	-0.053
-375.858	13.935	0.152	-0.117
-374.844	-108.122	0.320	0.069
-373.829	324.805	-0.134	0.253
-372.815	141.648	-0.089	-0.117
-371.800	-200.000	0.010	-0.047
-370.785	588.989	0.208	0.507
-369.771	-73.309	-0.451	0.163
-368.756	-105.032	-0.132	0.030
-367.742	-26.096	0.251	-0.146
-366.727	800.000	0.040	0.143
-365.712	-200.000	0.048	-0.297
-364.698	676.947	0.058	0.150
-363.683	-200.000	0.005	-0.112
-362.669	38.989	0.196	-0.173
-361.654	267.604	-0.113	-0.196
-360.639	-44.906	0.187	0.092
-359.625	-131.336	-0.242	-0.032
-358.610	-200.000	-0.004	-0.260
-357.596	798.096	-0.069	-0.187
-356.581	-88.076	-0.205	-0.061
-355.566	-70.230	0.138	-0.052
-354.552	244.312	0.071	-0.117
-353.537	800.000	0.080	0.231
-352.523	-142.746	0.024	0.002
-351.508	-52.271	0.102	0.047
-350.493	147.574	0.188	-0.250
-349.479	190.116	-0.148	-0.220
-348.464	527.624	-0.175	0.407
-347.450	-3.646	0.205	0.141
-346.435	720.317	0.113	-0.297
-345.420	448.531	0.126	-0.274
-344.406	60.661	-0.291	-0.285
-343.391	-200.000	-0.385	0.000
-342.377	-200.000	-0.018	0.139
-341.362	-41.815	-0.325	-0.165
-340.348	-3.977	0.356	0.244
-339.333	30.592	0.115	0.097
-338.318	-200.000	-0.065	0.282
-337.304	-200.000	-0.002	0.236
-336.289	472.806	-0.072	-0.159
-335.275	-76.705	-0.143	0.050
-334.260	-79.887	0.133	-0.044
-333.245	580.363	0.095	0.229
-332.231	717.027	-0.055	0.144
-331.216	28.420	-0.098	0.082
-330.202	-29.130	0.429	0.243
-329.187	143.128	0.211	0.277
-328.172	800.000	-0.042	0.173
-327.158	-200.000	-0.042	0.277
-326.143	77.937	-0.254	0.267
-325.129	67.071	-0.140	0.141
-324.114	-200.000	0.009	-0.097
-323.099	481.071	0.071	-0.160
-322.085	-29.398	0.018	0.010
-321.070	108.573	0.137	-0.162
-320.056	71.901	-0.216	0.221
-319.041	-140.462	-0.269	-0.028
-318.026	572.002	-0.092	0.221
-317.012	-27.165	0.200	-0.115
-315.997	-79.316	0.123	-0.041
-314.983	-29.952	-0.295	0.166
-313.968	334.772	-0.009	-0.018
-312.953	214.710	0.118	0.184
-311.939	11.830	-0.389	-0.295
-310.924	-156.056	0.269	-0.017
-309.910	7.827	0.396	-0.293
-308.895	-200.000	-0.042	0.324
-307.880	165.505	-0.075	0.105
-306.866	28.352	0.225	0.187
-305.851	4.411	-0.101	0.073
-304.837	86.549	0.198	-0.216
-303.822	-39.251	-0.006	-0.003
-302.807	-75.123	-0.367	0.129
-301.793	-200.000	0.006	-0.190
-300.778	-23.535	-0.099	0.059
-299.764	-87.227	-0.293	0.088
-298.749	70.518	0.115	0.118
-297.735	484.557	-0.043	-0.096
-296.720	-200.000	-0.001	-0.083
-295.705	-27.378	-0.322	0.184
-294.691	-86.027	0.358	-0.109
-293.676	-73.566	-0.036	-0.013
-292.662	-191.857	-0.271	0.003
-291.647	800.000	0.146	0.406
-290.632	-140.464	-0.351	0.036
-289.618	391.471	0.085	-0.174
-288.603	192.370	0.144	0.215
-287.589	70.005	-0.098	0.099
-286.574	199.169	0.052	-0.079
-285.559	-200.000	-0.042	-0.359
-284.545	438.409	0.145	0.311
-283.530	-59.418	0.363	-0.154
-282.516	-58.139	-0.195	-0.084
-281.501	565.495	0.061	0.145
-280.486	-200.000	0.004	0.198
-279.472	-112.911	0.109	-0.021
-278.457	-47.583	0.284	0.136
-277.443	800.000	-0.119	0.351
-276.428	-200.000	-0.007	0.189
-275.413	-200.000	-0.011	0.175
-274.399	32.675	-0.149	-0.127
-273.384	299.824	-0.266	-0.482
-272.370	-109.470	-0.286	-0.060
-271.355	222.862	0.171	0.272
-270.340	-200.000	0.019	-0.296
-269.326	141.003	0.240	0.312
-268.311	-105.941	0.175	-0.039
-267.297	5.648	0.156	-0.114
-266.282	-41.059	-0.020	-0.010
-265.267	-51.370	0.342	-0.157
-264.253	-39.294	0.216	0.111
-263.238	-181.396	0.066	0.001
-262.224	162.943	-0.146	-0.202
-261.209	-200.000	-0.040	0.325
-260.195	800.000	0.052	-0.154
-259.180	483.249	0.215	-0.481
-258.165	-133.364	0.197	-0.024
-257.151	800.000	-0.060	0.218
-256.136	194.354	-0.035	0.052
-255.122	-34.877	-0.021	-0.011
-254.107	-200.000	-0.035	0.183
-253.092	-200.000	-0.020	0.274
-252.078	-200.000	0.018	-0.333
-251.063	747.579	-0.087	-0.231
-250.049	-200.000	0.017	-0.301
-249.034	79.746	0.223	0.236
-248.019	-106.845	-0.151	-0.033
-247.005	156.720	0.160	0.218
-245.990	-200.000	-0.039	-0.202
-244.976	-130.390	0.127	-0.017
-243.961	-200.000	0.018	0.112
-242.946	456.938	-0.038	0.083
-241.932	54.583	0.163	0.154
-240.917	-109.614	0.352	-0.073
-239.903	174.397	-0.081	-0.115
-238.888	-82.247	-0.438	0.140
-237.873	-200.000	0.040	-0.249
-236.859	-51.275	0.412	0.189
-235.844	350.169	-0.142	0.276
-234.830	155.159	-0.142	-0.192
-233.815	-200.000	-0.023	0.153
-232.800	-71.084	0.158	0.059
-231.786	50.963	-0.258	0.241
-230.771	379.992	-0.062	-0.125
-229.757	-200.000	0.014	0.158
-228.742	-40.264	-0.125	-0.064
-227.727	-136.108	-0.050	0.006
-226.713	-13.359	0.158	-0.101
-225.698	250.811	0.051	0.085
-224.684	-139.601	-0.559	-0.059
-223.669	-200.000	-0.019	-0.389
-222.655	-19.582	0.183	-0.111
-221.640	-118.644	0.114	-0.020
-220.625	800.000	-0.047	-0.135
-219.611	-200.000	0.052	0.235
-218.596	-200.000	-0.017	0.189
-217.582	15.073	0.090	-0.069
-216.567	99.535	-0.098	-0.112
-215.552	-200.000	0.004	-0.063
-214.538	94.474	-0.156	0.174
-213.523	-96.018	0.295	-0.077
-212.509	-200.000	-0.032	-0.239
-211.494	184.751	-0.102	0.148
-210.479	-50.250	-0.110	-0.051
-209.465	-200.000	-0.010	-0.110
-208.450	-63.289	0.310	-0.125
-207.436	411.793	-0.098	-0.205
-206.421	-39.382	-0.090	-0.046
-205.406	522.104	-0.039	-0.090
-204.392	458.955	0.158	-0.345
-203.377	-166.192	0.138	0.006
-202.363	1.188	-0.108	0.076
-201.348	800.000	0.064	-0.181
-200.333	71.419	-0.138	0.141
-199.319	-124.170	0.127	-0.019
-198.304	44.681	-0.156	0.141
-197.290	-101.945	0.342	-0.081
-196.275	-42.487	0.077	-0.039
-195.260	-137.363	0.429	0.048
-194.246	-200.000	-0.032	-0.182
-193.231	-98.673	0.255	0.064
-192.217	-67.609	-0.214	0.082
-191.202	-200.000	-0.027	-0.263
-190.187	-129.807	-0.461	-0.062
-189.173	425.187	-0.075	0.157
-188.158	-120.189	0.168	-0.028
-187.144	800.000	-0.034	0.123
-186.129	-62.187	-0.166	0.068
-185.114	90.024	0.133	-0.146
-184.100	134.838	-0.224	-0.285
-183.085	-200.000	0.033	-0.145
-182.071	242.826	0.054	0.089
-181.056	-77.142	0.406	-0.139
-180.042	-200.000	-0.013	0.233
-179.027	785.075	-0.042	-0.114
-178.012	800.000	0.064	0.198
-176.998	-69.616	0.201	0.076
-175.983	-47.523	-0.164	-0.078
-174.969	-200.000	0.012	-0.330
-173.954	-200.000	0.009	-0.143
-172.939	-200.000	0.033	0.169
-171.925	-200.000	0.011	-0.187
-170.910	-200.000	-0.006	0.085
-169.896	-200.000	0.023	0.189
-168.881	354.802	0.017	-0.034
-167.866	-28.539	-0.143	0.081
-166.852	74.966	0.135	0.140
-165.837	800.000	0.080	0.277
-164.823	-68.176	-0.372	-0.142
-163.808	800.000	0.035	-0.116
-162.793	298.920	0.071	0.128
-161.779	-31.236	-0.165	0.091
-160.764	1.959	0.343	0.242
-159.750	782.487	0.047	0.127
-158.735	800.000	-0.047	0.164
-157.720	-91.208	-0.369	0.104
-156.706	-49.707	0.298	0.139
-155.691	72.294	-0.083	-0.085
-154.677	58.418	0.154	0.148
-153.662	43.113	-0.131	0.117
-152.647	350.472	0.042	0.081
-151.633	-68.504	-0.224	-0.085
-150.618	301.945	-0.036	0.066
-149.604	63.624	0.100	0.099
-148.589	144.731	0.045	0.058
-147.574	54.010	0.225	0.212
-146.560	339.923	0.048	-0.092
-145.545	-177.009	-0.286	0.007
-144.531	114.825	0.103	-0.123
-143.516	79.160	-0.072	0.075
-142.502	-52.277	-0.282	0.128
-141.487	-136.266	-0.375	-0.043
-140.472	104.223	0.088	0.101
-139.458	16.041	-0.208	-0.161
-138.443	-200.000	0.031	-0.214
-137.429	-158.375	-0.356	-0.020
-136.414	-64.036	0.248	0.099
-135.399	-8.346	-0.106	-0.070
-134.385	94.385	-0.146	-0.163
-133.370	-39.586	0.195	-0.100
-132.356	800.000	0.076	-0.302
-131.341	146.799	-0.154	-0.203
-130.326	115.846	-0.028	-0.033
-129.312	341.926	0.086	-0.165
-128.297	800.000	-0.086	-0.305
-127.283	800.000	-0.123	0.390
-126.268	-200.000	-0.041	0.410
-125.253	800.000	0.060	0.163
-124.239	-200.000	0.011	-0.166
-123.224	605.576	0.053	0.130
-122.210	89.639	0.043	-0.047
-121.195	-102.829	-0.252	-0.059
-120.180	12.705	-0.254	0.192
-119.166	63.826	-0.173	-0.170
-118.151	634.674	-0.057	-0.142
-117.137	-5.092	0.294	0.198
-116.122	161.846	-0.103	0.141
-115.107	-17.347	0.127	-0.078
-114.093	-58.527	-0.026	0.011
-113.078	-200.000	0.027	-0.274
-112.064	132.492	-0.185	-0.234
-111.049	99.092	0.198	0.224
-110.034	-106.721	0.189	-0.041
-109.020	800.000	0.110	0.358
-108.005	111.255	-0.204	0.240
-106.991	-144.810	0.166	-0.015
-105.976	160.260	0.182	-0.248
-104.962	-134.835	0.101	-0.012
-103.947	-109.097	-0.237	-0.049
-102.932	-4.896	-0.088	-0.060
-101.918	-61.788	0.231	-0.095
-100.903	80.191	-0.082	0.087
-99.889	223.335	0.187	-0.294
-98.874	111.001	-0.139	-0.164
-97.859	222.320	-0.177	0.279
-96.845	-200.000	-0.061	0.415
-95.830	164.812	-0.066	0.091
-94.816	-91.650	0.040	0.011
-93.801	161.806	0.165	0.226
-92.786	472.054	0.021	0.046
-91.772	309.180	0.087	-0.160
-90.757	-133.011	-0.389	0.048
-89.743	-200.000	0.033	-0.155
-88.728	-175.613	-0.199	-0.005
-87.713	30.814	0.205	0.172
-86.699	-200.000	-0.008	0.055
-85.684	-44.657	0.140	0.068
-84.670	-122.561	0.225	0.036
-83.655	800.000	0.050	0.179
-82.640	-200.000	0.018	-0.080
-81.626	-200.000	-0.015	-0.247
-80.611	-79.955	0.244	-0.080
-79.597	800.000	0.073	0.200
-78.582	4.571	-0.264	0.190
-77.567	-16.400	0.451	0.279
-76.553	-74.628	-0.211	0.074
-75.538	800.000	-0.094	0.301
-74.524	800.000	0.092	-0.306
-73.509	800.000	0.062	0.228
-72.494	-109.888	-0.337	-0.069
-71.480	37.866	0.241	-0.209
-70.465	-112.207	0.169	-0.033
-69.451	-2.343	0.008	-0.005
-68.436	-166.253	0.139	0.006
-67.422	-77.271	-0.378	-0.128
-66.407	-76.683	-0.075	-0.026
-65.392	-81.000	-0.178	0.058
-64.378	-124.774	0.168	-0.025
-63.363	-52.438	0.265	-0.120
-62.349	800.000	-0.048	0.138
-61.334	149.046	-0.770	-1.018
-60.319	60.855	0.674	0.653
-59.305	800.000	-0.407	-1.099
-58.290	291.255	0.743	1.321
-57.276	800.000	0.612	1.708
-56.261	-200.000	118.049	643.830
-55.246	483.421	1556.587	3456.061
-54.232	174.405	2722.631	3843.326
-53.217	103.127	2175.025	2488.580
-52.203	36.578	1690.628	1457.003
-51.188	29.252	1506.644	1248.964
-50.173	27.134	1481.890	1214.257
-49.159	49.219	1543.610	1416.385
-48.144	48.077	1558.101	1421.827
-47.130	29.246	1512.889	1253.900
-46.115	26.356	1497.395	1221.515
-45.100	26.195	1493.866	1217.503
-44.086	26.013	1492.954	1215.483
-43.071	25.974	1490.781	1213.400
-42.057	26.110	1488.477	1212.395
-41.042	26.059	1487.241	1210.995
-40.027	26.125	1485.678	1210.119
-39.013	26.086	1484.051	1208.486
-37.998	26.016	1483.540	1207.552
-36.984	26.071	1482.210	1206.788
-35.969	26.126	1480.894	1206.038
-34.954	26.058	1479.538	1204.428
-33.940	26.033	1478.387	1203.276
-32.925	26.064	1476.552	1201.944
-31.911	26.158	1475.096	1201.339
-30.896	26.248	1473.757	1200.796
-29.881	26.128	1472.854	1199.219
-28.867	26.148	1471.495	1198.196
-27.852	26.155	1470.199	1197.139
-26.838	26.140	1468.696	1195.768
-25.823	26.147	1467.240	1194.578
-24.809	26.111	1466.134	1193.396
-23.794	26.090	1464.928	1192.225
-22.779	26.142	1463.080	1191.018
-21.765	26.039	1462.200	1189.572
-20.750	26.138	1460.881	1189.106
-19.736	26.093	1460.147	1188.168
-18.721	26.153	1458.712	1187.346
-17.706	26.118	1457.913	1186.420
-16.692	26.159	1456.644	1185.609
-15.677	26.147	1455.390	1184.460
-14.663	26.006	1455.225	1183.355
-13.648	26.038	1453.964	1182.494
-12.633	26.081	1453.028	1181.968
-11.619	26.101	1452.095	1181.293
-10.604	26.064	1451.350	1180.394
-9.590	26.004	1450.167	1178.994
-8.575	26.001	1449.292	1178.220
-7.560	26.117	1448.492	1178.281
-6.546	26.147	1447.547	1177.656
-5.531	26.086	1446.511	1176.369
-4.517	26.045	1445.991	1175.634
-3.502	26.105	1444.618	1174.863
-2.487	26.035	1444.111	1173.950
-1.473	26.141	1442.675	1173.424
-0.458	26.126	1441.344	1172.196
0.556	27.706	1431.547	1160.631
1.571	24.631	1407.030	1121.390
2.586	21.112	1348.356	1053.333
3.600	19.432	1267.210	980.314
4.615	18.314	1222.549	939.552
5.629	16.067	1167.185	885.139
6.644	9.628	1086.104	792.018
7.659	4.868	1050.000	742.964
8.673	4.258	1044.698	736.250
9.688	4.045	1041.332	732.809
10.702	4.062	1039.579	731.589
11.717	4.005	1037.481	729.781
12.731	6.257	1039.234	741.570
13.746	13.161	1048.523	780.868
14.761	19.789	1057.442	818.935
15.775	22.142	1059.469	831.581
16.790	21.773	1058.453	828.964
17.804	20.888	1056.300	823.025
18.819	20.128	1054.654	818.085
19.834	19.639	1053.359	814.703
20.848	19.613	1052.765	814.048
21.863	19.699	1052.158	813.910
22.877	19.485	1051.698	812.475
23.892	19.274	1050.933	810.820
24.907	19.143	1049.807	809.268
25.921	19.224	1048.890	808.870
26.936	19.202	1048.412	808.325
27.950	18.992	1047.560	806.611
28.965	19.159	1046.141	806.227
29.980	19.212	1044.723	805.313
30.994	19.299	1043.878	804.998
32.009	19.508	1042.908	805.154
33.023	19.623	1042.754	805.500
34.038	19.503	1042.095	804.359
35.053	19.390	1041.118	803.007
36.067	19.331	1039.670	801.546
37.082	19.230	1038.966	800.464
38.096	19.302	1037.991	799.977
39.111	19.355	1037.337	799.643
40.126	19.416	1036.730	799.389
41.140	19.436	1035.123	798.173
42.155	19.086	1033.711	795.395
43.169	18.871	1032.634	793.502
44.184	18.738	1031.629	792.050
45.199	18.729	1030.791	791.295
46.213	18.814	1029.835	790.879
47.228	18.822	1029.044	790.242
48.242	19.258	1028.278	791.584
49.257	19.309	1027.636	791.256
50.271	19.333	1026.509	790.427
51.286	19.402	1025.540	789.926
52.301	19.375	1025.239	789.501
53.315	19.296	1024.324	788.366
54.330	19.308	1023.503	787.720
55.344	19.090	1022.018	785.513
56.359	18.937	1021.255	784.159
57.374	18.948	1020.248	783.368
58.388	19.004	1019.945	783.319
59.403	18.872	1019.232	782.104
60.417	18.836	1017.909	780.853
61.432	18.779	1017.280	780.042
62.447	18.762	1016.575	779.355
63.461	18.647	1015.858	778.215
64.476	18.583	1015.037	777.226
65.490	18.572	1013.891	776.234
66.505	18.613	1012.877	775.574
67.520	18.576	1012.520	775.061
68.534	18.653	1012.131	775.043
69.549	18.550	1011.238	773.826
70.563	18.632	1010.000	773.179
71.578	18.534	1009.565	772.341
72.593	18.263	1009.173	770.752
73.607	18.204	1007.567	769.192
74.622	18.365	1006.449	768.990
75.636	18.366	1005.772	768.413
76.651	18.356	1005.287	767.928
77.666	18.515	1004.259	767.786
78.680	18.502	1003.852	767.350
79.695	18.487	1003.450	766.905
80.709	18.713	1002.425	767.067
81.724	18.657	1002.233	766.601
82.739	18.877	1001.158	766.690
83.753	18.867	1000.573	766.131
84.768	19.184	999.890	766.955
85.782	19.433	999.732	767.872
86.797	19.594	999.306	768.193
87.812	19.804	997.837	767.927
88.826	19.447	997.278	765.846
89.841	19.417	996.531	765.073
90.855	19.491	995.749	764.732
91.870	19.628	994.882	764.605
92.884	19.669	994.236	764.223
93.899	19.590	993.493	763.235
94.914	19.479	992.734	762.092
95.928	19.643	992.018	762.200
96.943	19.641	991.163	761.469
97.957	19.496	989.782	759.701
98.972	19.473	989.059	758.977
99.987	19.413	988.812	758.455
101.001	19.544	987.819	758.204
102.016	19.523	986.929	757.361
103.030	19.482	986.059	756.444
104.045	19.493	985.111	755.701
105.060	19.528	984.386	755.230
106.074	19.476	983.221	754.043
107.089	19.197	982.346	752.087
108.103	18.814	981.058	749.365
109.118	18.745	979.758	748.005
110.133	18.635	979.146	746.990
111.147	18.617	978.328	746.222
112.162	18.625	977.465	745.534
113.176	18.615	976.872	744.972
114.191	18.751	975.981	744.817
115.206	18.810	975.638	744.742
116.220	18.929	974.236	744.124
117.235	18.872	973.492	743.241
118.249	18.753	972.892	742.204
119.264	18.725	972.052	741.377
120.279	18.757	970.874	740.550
121.293	18.583	970.017	739.084
122.308	18.439	969.710	738.164
123.322	18.583	968.152	737.532
124.337	18.348	967.381	735.869
125.352	18.423	965.990	735.068
126.366	18.334	965.340	734.127
127.381	18.307	964.409	733.238
128.395	18.362	963.499	732.717
129.410	18.445	962.494	732.239
130.424	18.457	961.527	731.491
131.439	18.477	961.381	731.400
132.454	18.736	960.336	731.644
133.468	18.791	960.120	731.653
134.483	18.874	958.938	731.039
135.497	18.762	958.328	730.032
136.512	18.954	957.686	730.294
137.527	18.922	956.739	729.373
138.541	18.784	956.252	728.350
139.556	18.924	955.405	728.235
140.570	18.940	954.685	727.690
141.585	18.944	954.260	727.317
142.600	19.258	953.643	728.108
143.614	19.389	952.874	728.010
144.629	19.471	952.322	727.870
145.643	19.660	951.716	728.139
146.658	19.458	950.772	726.503
147.673	19.369	949.500	725.091
148.687	19.161	948.562	723.439
149.702	18.981	947.838	722.067
150.716	19.019	946.451	721.104
151.731	18.883	945.955	720.096
152.746	18.907	944.979	719.388
153.760	19.034	944.508	719.497
154.775	18.945	943.544	718.328
155.789	19.163	942.826	718.627
156.804	19.211	942.286	718.352
157.819	19.159	941.603	717.549
158.833	19.145	941.150	717.085
159.848	19.355	940.357	717.288
160.862	19.469	940.202	717.580
161.877	19.559	938.889	716.888
162.892	19.174	937.692	714.316
163.906	18.941	936.885	712.673
164.921	18.886	935.762	711.527
165.935	18.948	934.566	710.811
166.950	18.988	934.084	710.549
167.964	19.126	933.345	710.491
168.979	19.065	932.426	709.478
169.994	19.040	930.756	708.043
171.008	18.931	930.403	707.260
172.023	18.931	929.697	706.663
173.037	19.297	928.727	707.365
174.052	19.482	928.204	707.661
175.067	19.300	927.499	706.316
176.081	19.080	926.256	704.407
177.096	18.831	925.227	702.545
178.110	18.806	924.611	701.912
179.125	18.880	923.867	701.587
180.140	18.932	923.357	701.351
181.154	18.990	922.388	700.788
182.169	19.139	922.268	701.242
183.183	19.340	921.842	701.675
184.198	19.312	921.403	701.166
185.213	19.493	920.135	700.874
186.227	19.382	919.840	700.136
187.242	19.540	919.354	700.344
188.256	19.542	918.898	699.945
189.271	19.624	917.821	699.392
190.286	19.683	917.670	699.454
191.300	19.474	916.553	697.698
192.315	18.931	915.488	694.632
193.329	18.620	914.174	692.319
194.344	18.698	913.678	692.197
195.359	18.957	913.142	692.771
196.373	19.194	912.605	693.256
197.388	19.214	912.644	693.306
198.402	19.415	912.121	693.657
199.417	19.608	912.092	694.349
200.432	19.726	911.695	694.457
201.446	19.814	911.367	694.502
202.461	20.175	910.563	695.276
203.475	19.984	910.337	694.275
204.490	20.095	909.352	693.908
205.504	19.627	908.808	691.556
206.519	19.581	907.308	690.173
207.534	19.560	906.507	689.418
208.548	19.545	905.649	688.642
209.563	19.553	905.453	688.466
210.577	19.506	904.961	687.843
211.592	19.546	904.420	687.531
212.607	19.621	904.092	687.517
213.621	19.825	903.562	687.865
214.636	19.825	902.840	687.257
215.650	19.674	902.331	686.207
216.665	19.908	901.397	686.366
217.680	19.844	900.891	685.663
218.694	20.058	900.652	686.268
219.709	20.102	900.102	685.964
220.723	19.962	899.370	684.794
221.738	19.965	898.568	684.132
222.753	19.939	897.993	683.530
223.767	19.768	897.132	682.140
224.782	20.051	896.399	682.637
225.796	20.121	895.846	682.434
226.811	20.153	895.569	682.290
227.826	20.044	894.610	681.067
228.840	19.820	893.640	679.389
229.855	19.833	892.839	678.773
230.869	19.755	892.483	678.134
231.884	19.833	891.777	677.844
232.899	19.705	891.176	676.826
233.913	19.646	890.375	675.929
234.928	19.638	889.435	675.122
235.942	19.382	888.815	673.594
236.957	19.390	888.054	672.987
237.972	19.425	887.424	672.588
238.986	19.490	886.765	672.280
240.001	19.528	885.903	671.716
241.015	19.594	885.673	671.739
242.030	19.653	884.926	671.344
243.045	19.790	884.328	671.360
244.059	19.660	884.148	670.659
245.074	19.805	883.249	670.483
246.088	19.757	882.985	670.037
247.103	20.020	881.981	670.231
248.117	19.888	882.193	669.822
249.132	20.428	881.122	671.037
250.147	20.569	880.943	671.388
251.161	20.859	880.613	672.196
252.176	20.693	880.503	671.411
253.190	20.992	879.263	671.559
254.205	21.022	878.590	671.099
255.220	21.055	878.089	670.786
256.234	20.977	877.506	669.980
257.249	20.865	877.060	669.151
258.263	20.689	876.860	668.263
259.278	20.764	875.870	667.736
260.293	20.754	875.484	667.343
261.307	20.926	874.591	667.263
262.322	21.004	874.091	667.123
263.336	21.052	873.718	666.963
264.351	20.950	873.351	666.233
265.366	21.098	872.379	665.998
266.380	21.053	871.808	665.330
267.395	21.007	871.278	664.690
268.409	20.894	870.213	663.388
269.424	20.866	869.196	662.448
270.439	20.884	868.717	662.093
271.453	20.763	867.967	661.005
272.468	20.623	867.351	659.946
273.482	20.592	866.594	659.194
274.497	20.702	866.120	659.193
275.512	20.537	865.609	658.121
276.526	20.614	864.711	657.669
277.541	20.649	864.020	657.220
278.555	20.682	864.082	657.332
279.570	20.708	863.652	657.046
280.585	21.085	862.966	657.886
281.599	21.189	862.441	657.821
282.614	21.021	861.636	656.517
283.628	20.751	860.642	654.685
284.643	20.797	860.343	654.574
285.657	20.768	859.852	654.032
286.672	20.824	859.598	653.993
287.687	20.722	859.314	653.334
288.701	20.879	858.212	653.028
289.716	20.820	857.851	652.472
290.730	20.772	857.330	651.842
291.745	21.014	856.254	651.870
292.760	20.987	855.691	651.283
293.774	20.958	855.645	651.080
294.789	21.163	855.156	651.416
295.803	21.061	854.643	650.586
296.818	20.959	853.758	649.478
297.833	20.809	852.953	648.249
298.847	21.024	852.102	648.345
299.862	20.920	851.716	647.605
300.876	20.894	851.300	647.136
301.891	20.961	850.569	646.772
302.906	21.170	850.167	647.182
303.920	21.172	849.672	646.758
304.935	21.457	849.161	647.366
305.949	21.556	848.550	647.208
306.964	21.499	848.046	646.557
307.979	21.286	847.440	645.249
308.993	21.118	847.293	644.463
310.008	21.472	846.041	644.758
311.022	21.407	846.041	644.460
312.037	21.457	845.210	643.954
313.052	21.193	844.449	642.345
314.066	21.191	843.509	641.567
315.081	20.967	842.694	640.068
316.095	20.848	842.354	639.316
317.110	20.966	841.695	639.194
318.125	20.925	841.183	638.597
319.139	20.733	841.068	637.751
320.154	20.879	840.034	637.444
321.168	20.840	840.085	637.283
322.183	21.044	839.569	637.580
323.197	20.942	838.866	636.618
324.212	21.168	838.148	636.841
325.227	21.080	837.806	636.206
326.241	21.119	837.240	635.861
327.256	21.000	836.721	634.978
328.270	20.995	836.013	634.366
329.285	21.039	835.096	633.773
330.300	20.979	834.709	633.206
331.314	20.920	834.088	632.465
332.329	20.991	833.841	632.479
333.343	21.136	833.147	632.422
334.358	21.251	832.901	632.594
335.373	21.475	832.281	632.879
336.387	21.392	832.025	632.327
337.402	21.468	831.388	632.064
338.416	21.403	830.981	631.462
339.431	21.516	831.044	631.861
340.446	21.643	829.902	631.396
341.460	21.902	829.369	631.869
342.475	22.043	828.819	631.900
343.489	21.968	828.452	631.295
344.504	21.998	828.288	631.222
345.519	21.983	827.959	630.860
346.533	22.060	826.871	630.254
347.548	21.979	826.732	629.801
348.562	22.010	825.314	628.776
349.577	21.583	824.935	626.902
350.592	21.457	824.557	626.110
351.606	21.263	823.774	624.766
352.621	21.374	823.177	624.655
353.635	21.435	822.898	624.604
354.650	21.511	822.336	624.394
355.665	21.657	822.431	624.930
356.679	21.439	822.339	624.029
357.694	21.662	821.569	624.184
358.708	21.763	820.890	623.972
359.723	21.572	820.533	622.968
360.738	21.623	819.419	622.247
361.752	21.722	818.967	622.199
362.767	21.620	818.886	621.721
363.781	21.845	818.807	622.406
364.796	22.042	818.015	622.448
365.810	22.151	817.834	622.639
366.825	22.328	817.541	622.987
367.840	22.379	817.274	622.911
368.854	22.205	817.033	622.058
369.869	22.341	815.864	621.591
370.883	22.113	815.530	620.476
371.898	21.942	814.793	619.258
372.913	22.257	814.144	619.818
373.927	22.243	813.590	619.295
374.942	22.155	812.728	618.274
375.956	22.050	812.320	617.539
376.971	22.246	811.788	617.767
377.986	22.288	811.831	617.894
379.000	22.513	810.856	617.887
380.015	22.550	810.541	617.722
381.029	22.344	810.126	616.628
382.044	22.524	809.409	616.659
383.059	22.446	808.821	615.885
384.073	22.543	807.927	615.487
385.088	22.322	807.840	614.593
386.102	22.164	806.943	613.306
387.117	22.180	806.024	612.611
388.132	21.951	805.934	611.690
389.146	21.894	805.574	611.164
390.161	21.902	805.299	610.929
391.175	22.277	804.948	611.914
392.190	22.544	804.398	612.368
393.205	22.244	804.236	611.148
394.219	22.149	803.623	610.299
395.234	22.105	802.715	609.404
396.248	21.969	802.355	608.605
397.263	21.910	801.558	607.739
398.278	21.796	801.063	606.916
399.292	21.876	800.228	606.509
400.307	21.757	800.166	605.995
401.321	21.904	799.441	605.902
402.336	21.915	799.244	605.735
403.350	21.998	798.876	605.689
404.365	22.055	798.727	605.718
405.380	22.252	798.394	606.091
406.394	22.492	798.312	606.802
407.409	22.483	797.852	606.370
408.423	22.663	797.300	606.515
409.438	22.759	796.774	606.391
410.453	22.792	796.301	606.090
411.467	22.779	796.187	605.905
412.482	22.916	795.392	605.719
413.496	23.008	794.931	605.628
414.511	23.052	795.063	605.824
415.526	22.920	794.475	604.871
416.540	23.045	793.812	604.741
417.555	22.870	793.253	603.662
418.569	22.884	792.577	603.145
419.584	22.787	792.489	602.693
420.599	22.813	792.072	602.411
421.613	165.777	1370.162	1798.986
422.628	143.826	1454.382	1799.079
