DTS Sentinel unit serial number:	SN413079Multiplexer serial number:	ORYXHardware model number:	OX4-SRSoftware version number:	ORYX F/W v4.00 Oryx Data Collector v3.7.2.0data status	okinstallation	princeton_trtdifferential loss correction	single-endedforward channel	channel 3reverse channel	N/Adate	2019/09/19time	03:24:35forward acquisition time	60.00reverse acquisition time	0.00gamma	496.2192k internal	0.2348k external	0.2348temperature offset calibration	0.9991default loss term (dB/km)	0.3790temperature slope calibration	1.0000multiplexer offset coefficient	1.0000multiplexer slope coefficient	1.0000fibre end	0.00T internal ref (°C)	20.69T ext. ref 1 (°C)	0.65T ext. ref 2 (°C)	14.22length (m)	temperature (°C)	Stokes	anti-Stokes-747.200	-87.375	0.128	0.039
-746.185	67.538	-0.291	0.297
-745.171	125.360	0.040	0.050
-744.156	-79.589	0.347	0.117
-743.142	-200.000	-0.003	0.042
-742.127	13.499	-0.265	0.206
-741.112	231.803	0.144	0.235
-740.098	-96.191	-0.285	0.075
-739.083	-8.033	0.228	-0.154
-738.069	800.000	-0.069	0.203
-737.054	-60.893	-0.203	0.086
-736.039	2.944	-0.220	-0.160
-735.025	550.259	-0.154	-0.370
-734.010	-200.000	-0.042	0.186
-732.996	-46.444	-0.176	0.086
-731.981	800.000	-0.022	-0.078
-730.966	-145.247	-0.243	0.022
-729.952	800.000	0.087	-0.297
-728.937	-80.625	-0.166	-0.055
-727.923	19.121	0.145	-0.116
-726.908	217.415	-0.099	-0.158
-725.894	-200.000	0.014	0.237
-724.879	-128.911	-0.288	-0.040
-723.864	-24.260	-0.081	-0.049
-722.850	800.000	-0.063	-0.198
-721.835	68.004	-0.282	-0.288
-720.821	28.599	-0.215	-0.182
-719.806	-200.000	-0.030	-0.184
-718.791	-4.795	-0.083	0.057
-717.777	-62.616	0.123	-0.051
-716.762	-46.394	-0.208	-0.102
-715.748	-61.084	-0.043	-0.018
-714.733	410.091	-0.032	0.067
-713.718	198.449	0.190	0.290
-712.704	-200.000	0.020	0.225
-711.689	-162.416	0.256	-0.013
-710.675	185.103	-0.189	-0.280
-709.660	-69.834	0.348	-0.133
-708.645	41.360	-0.038	0.034
-707.631	29.048	-0.138	-0.117
-706.616	513.760	0.051	0.119
-705.602	231.710	0.095	-0.156
-704.587	159.241	-0.089	0.123
-703.572	-200.000	-0.037	0.392
-702.558	-175.805	0.178	-0.005
-701.543	146.282	-0.290	-0.389
-700.529	-200.000	0.022	-0.183
-699.514	-200.000	-0.010	-0.157
-698.499	548.783	0.099	-0.236
-697.485	-200.000	-0.011	0.201
-696.470	-200.000	0.030	0.182
-695.456	612.160	0.222	-0.554
-694.441	-200.000	-0.005	0.337
-693.426	419.608	-0.149	0.318
-692.412	-38.793	-0.253	0.133
-691.397	31.151	-0.144	-0.123
-690.383	-55.799	0.424	0.189
-689.368	800.000	0.088	-0.267
-688.354	-147.576	0.033	0.003
-687.339	-112.219	-0.152	0.030
-686.324	-150.187	0.140	0.011
-685.310	89.824	-0.183	-0.204
-684.295	182.381	-0.225	-0.331
-683.281	39.002	0.139	0.123
-682.266	109.400	0.250	-0.299
-681.251	4.527	0.165	0.121
-680.237	126.435	-0.108	0.137
-679.222	79.831	0.235	0.252
-678.208	800.000	-0.096	-0.309
-677.193	80.995	0.181	0.195
-676.178	169.722	-0.153	-0.217
-675.164	583.752	0.096	-0.234
-674.149	349.832	0.117	-0.231
-673.135	-200.000	0.020	-0.102
-672.120	-200.000	-0.036	-0.246
-671.105	-24.698	0.226	-0.134
-670.091	-16.799	-0.206	0.130
-669.076	276.593	-0.123	-0.218
-668.062	13.330	-0.340	-0.263
-667.047	-109.192	-0.391	-0.083
-666.032	162.815	-0.098	-0.137
-665.018	-143.111	-0.249	0.024
-664.003	269.695	-0.118	-0.206
-662.989	78.499	0.136	0.145
-661.974	-2.921	-0.193	-0.134
-660.959	5.527	-0.005	-0.004
-659.945	147.273	-0.181	0.243
-658.930	332.246	-0.100	0.193
-657.916	800.000	0.194	0.540
-656.901	-29.235	-0.119	0.068
-655.886	21.358	0.342	-0.277
-654.872	-130.970	-0.152	0.020
-653.857	33.682	0.138	-0.120
-652.843	-3.135	0.239	-0.166
-651.828	88.013	-0.145	-0.160
-650.814	67.481	0.001	0.001
-649.799	181.281	0.039	-0.057
-648.784	-131.387	0.558	-0.073
-647.770	63.993	0.102	-0.102
-646.755	-0.708	0.078	-0.055
-645.741	-78.255	-0.203	0.069
-644.726	4.940	0.228	0.167
-643.711	117.526	0.091	0.112
-642.697	800.000	0.089	-0.264
-641.682	800.000	-0.064	0.255
-640.668	546.270	-0.143	-0.340
-639.653	-48.483	-0.170	-0.081
-638.638	238.400	-0.037	-0.062
-637.624	82.530	0.156	-0.169
-636.609	-70.309	-0.511	-0.193
-635.595	800.000	0.055	-0.156
-634.580	150.011	-0.169	-0.228
-633.565	34.769	-0.115	-0.100
-632.551	-111.308	-0.249	0.051
-631.536	-162.220	-0.211	0.011
-630.522	-200.000	-0.330	0.002
-629.507	800.000	0.077	-0.261
-628.492	-85.619	-0.279	0.086
-627.478	-105.849	0.115	0.026
-626.463	81.230	0.204	0.219
-625.449	-200.000	0.008	-0.515
-624.434	-148.691	-0.102	0.008
-623.419	60.688	-0.169	-0.167
-622.405	-111.746	0.417	0.084
-621.390	56.302	0.169	0.164
-620.376	-93.895	-0.205	-0.056
-619.361	-141.468	0.370	-0.037
-618.346	800.000	0.048	-0.175
-617.332	84.082	0.051	0.055
-616.317	-123.691	-0.420	0.066
-615.303	-80.335	-0.315	-0.105
-614.288	231.336	-0.024	-0.040
-613.273	-187.646	-0.235	0.003
-612.259	-82.956	0.208	0.067
-611.244	735.546	-0.041	-0.110
-610.230	-95.055	0.163	-0.044
-609.215	-200.000	-0.020	-0.112
-608.201	331.775	0.040	0.077
-607.186	800.000	-0.049	-0.159
-606.171	-75.023	-0.293	0.104
-605.157	454.467	-0.083	-0.183
-604.142	204.240	-0.062	0.096
-603.128	-113.012	-0.262	-0.051
-602.113	301.728	0.073	0.134
-601.098	30.793	-0.098	-0.083
-600.084	-200.000	0.035	-0.252
-599.069	800.000	0.102	0.289
-598.055	800.000	0.122	-0.355
-597.040	4.000	0.116	-0.084
-596.025	33.661	-0.396	0.342
-595.011	43.882	0.216	-0.197
-593.996	-7.910	0.265	-0.178
-592.982	-31.291	-0.216	0.121
-591.967	-28.775	0.228	0.130
-590.952	-59.161	0.271	-0.116
-589.938	71.760	-0.123	-0.127
-588.923	381.147	-0.088	0.179
-587.909	25.340	-0.383	-0.316
-586.894	-104.813	0.138	-0.031
-585.879	-82.063	-0.215	0.070
-584.865	-90.606	-0.306	0.088
-583.850	175.533	0.184	-0.265
-582.836	-101.627	0.335	-0.081
-581.821	-179.312	-0.200	0.004
-580.806	-18.049	-0.106	-0.066
-579.792	1.376	0.275	0.197
-578.777	225.731	0.110	0.177
-577.763	-22.184	-0.310	0.187
-576.748	-43.225	-0.209	0.105
-575.733	-51.201	-0.213	-0.099
-574.719	-108.162	0.240	-0.051
-573.704	13.798	-0.192	0.148
-572.690	-200.000	0.046	0.373
-571.675	113.816	-0.116	0.141
-570.661	30.952	0.121	0.103
-569.646	296.002	0.029	0.052
-568.631	-200.000	-0.009	0.214
-567.617	-200.000	-0.016	-0.140
-566.602	-200.000	0.030	-0.307
-565.588	56.567	-0.085	0.082
-564.573	-101.032	-0.084	0.020
-563.558	-185.813	-0.156	0.002
-562.544	75.737	0.161	0.168
-561.529	-105.405	-0.288	0.065
-560.515	-200.000	0.031	0.260
-559.500	-200.000	0.076	-0.333
-558.485	800.000	-0.123	-0.416
-557.471	9.548	0.094	-0.071
-556.456	-105.657	0.127	-0.028
-555.442	171.013	0.156	-0.222
-554.427	299.527	-0.099	-0.182
-553.412	261.870	0.086	0.147
-552.398	-200.000	0.005	0.186
-551.383	-138.450	-0.521	0.057
-550.369	296.705	-0.079	-0.144
-549.354	227.613	0.177	-0.285
-548.339	-60.919	0.051	0.021
-547.325	392.634	0.037	-0.077
-546.310	-174.576	-0.142	-0.004
-545.296	42.093	0.111	0.100
-544.281	800.000	-0.176	-0.535
-543.266	-107.313	0.148	-0.032
-542.252	-200.000	-0.030	-0.156
-541.237	-59.608	0.182	-0.077
-540.223	-37.893	0.020	0.011
-539.208	-40.427	-0.206	0.106
-538.193	350.474	-0.115	0.226
-537.179	29.786	-0.073	0.062
-536.164	332.544	0.055	-0.105
-535.150	-37.032	0.171	-0.091
-534.135	-107.226	0.180	-0.039
-533.121	800.000	-0.165	-0.461
-532.106	53.982	-0.183	-0.174
-531.091	-129.470	0.040	0.005
-530.077	800.000	-0.145	0.475
-529.062	-115.270	0.172	-0.032
-528.048	-61.760	0.059	-0.024
-527.033	-173.249	0.233	0.007
-526.018	800.000	-0.097	-0.303
-525.004	-200.000	0.023	-0.146
-523.989	264.518	-0.178	-0.308
-522.975	-192.428	-0.185	0.002
-521.960	-135.181	0.263	-0.031
-520.945	-150.848	-0.066	0.005
-519.931	87.020	0.246	0.269
-518.916	800.000	0.138	0.378
-517.902	553.374	0.146	0.349
-516.887	-200.000	-0.053	-0.302
-515.872	-24.338	-0.294	0.174
-514.858	30.024	0.228	0.192
-513.843	-73.430	-0.221	0.080
-512.829	-53.425	0.278	0.126
-511.814	-132.844	0.283	-0.036
-510.799	192.317	0.150	0.223
-509.785	-200.000	0.017	-0.103
-508.770	-103.100	-0.221	-0.052
-507.756	547.711	0.060	-0.142
-506.741	-91.066	-0.057	0.016
-505.726	800.000	-0.034	0.119
-504.712	-72.190	-0.277	-0.102
-503.697	-107.088	0.094	0.021
-502.683	-200.000	-0.005	-0.205
-501.668	13.652	-0.343	-0.263
-500.653	-92.248	-0.270	-0.075
-499.639	6.027	-0.144	0.105
-498.624	-123.644	0.276	-0.043
-497.610	-105.687	0.110	0.025
-496.595	-69.328	0.059	-0.022
-495.581	99.828	-0.229	0.263
-494.566	-200.000	0.008	0.258
-493.551	800.000	0.081	-0.279
-492.537	332.974	0.228	-0.436
-491.522	-184.942	-0.182	-0.003
-490.508	555.638	-0.070	-0.168
-489.493	174.974	0.192	0.274
-488.478	631.117	-0.009	0.022
-487.464	800.000	0.104	-0.363
-486.449	-88.609	-0.243	0.072
-485.435	292.297	0.111	-0.199
-484.420	543.766	-0.067	-0.158
-483.405	800.000	0.016	0.050
-482.391	372.777	0.025	0.050
-481.376	-116.909	-0.189	-0.034
-480.362	208.386	-0.039	-0.060
-479.347	23.343	-0.182	0.148
-478.332	103.739	0.162	0.188
-477.318	-200.000	0.085	0.428
-476.303	-76.495	0.192	-0.067
-475.289	-134.321	0.244	0.030
-474.274	-17.692	0.307	-0.191
-473.259	800.000	0.057	-0.210
-472.245	127.681	-0.060	-0.076
-471.230	323.716	0.107	-0.201
-470.216	-133.673	-0.130	0.016
-469.201	160.438	0.145	0.199
-468.186	301.382	0.045	0.083
-467.172	-66.540	-0.236	0.093
-466.157	80.167	0.049	-0.052
-465.143	-101.427	-0.245	-0.059
-464.128	-101.123	0.157	-0.038
-463.113	-42.535	0.215	0.108
-462.099	194.167	0.045	-0.067
-461.084	404.893	-0.130	0.271
-460.070	-40.717	0.331	0.170
-459.055	-113.392	0.424	-0.082
-458.040	-158.101	-0.234	-0.014
-457.026	-5.903	0.166	0.112
-456.011	-200.000	0.043	0.272
-454.997	-103.933	-0.415	0.096
-453.982	146.126	-0.220	-0.291
-452.968	158.322	0.234	-0.320
-451.953	-148.913	-0.298	-0.024
-450.938	189.766	-0.042	-0.062
-449.924	7.303	-0.313	-0.231
-448.909	330.890	0.091	0.172
-447.895	800.000	-0.058	0.186
-446.880	14.146	-0.333	0.256
-445.865	115.315	-0.149	0.180
-444.851	-71.274	-0.388	0.144
-443.836	-200.000	0.069	-0.333
-442.822	-200.000	-0.013	-0.165
-441.807	262.205	0.221	-0.379
-440.792	800.000	0.044	-0.121
-439.778	-180.671	-0.252	-0.005
-438.763	103.717	0.055	0.064
-437.749	93.930	0.137	-0.153
-436.734	57.703	0.048	-0.047
-435.719	-78.759	0.399	0.134
-434.705	89.302	-0.129	0.142
-433.690	-97.535	-0.163	-0.042
-432.676	103.915	0.257	-0.299
-431.661	728.878	0.088	0.232
-430.646	-110.461	-0.221	0.045
-429.632	-47.712	0.199	0.095
-428.617	-135.157	-0.285	0.034
-427.603	166.174	0.100	-0.139
-426.588	800.000	-0.046	-0.178
-425.573	258.230	-0.215	0.366
-424.559	45.308	-0.025	-0.023
-423.544	-200.000	0.353	0.001
-422.530	-200.000	0.001	0.031
-421.515	-168.052	0.245	0.009
-420.500	263.374	0.079	0.135
-419.486	37.410	-0.121	0.106
-418.471	168.543	-0.021	-0.029
-417.457	-26.480	-0.081	0.047
-416.442	-200.000	-0.034	0.346
-415.428	-200.000	0.004	0.229
-414.413	-71.193	0.325	0.120
-413.398	-100.170	-0.130	0.032
-412.384	101.063	0.133	0.153
-411.369	-200.000	-0.002	0.084
-410.355	-125.333	0.062	-0.009
-409.340	-200.000	0.002	0.252
-408.325	510.885	-0.064	-0.148
-407.311	800.000	-0.020	-0.073
-406.296	238.873	0.108	-0.177
-405.282	-12.307	-0.063	-0.040
-404.267	-151.213	0.042	0.003
-403.252	-1.000	0.140	0.098
-402.238	-200.000	0.028	0.383
-401.223	-96.250	0.167	-0.044
-400.209	16.919	-0.170	-0.133
-399.194	-136.957	0.150	-0.017
-398.179	85.370	0.045	-0.048
-397.165	59.631	-0.247	-0.240
-396.150	-172.620	0.115	-0.004
-395.136	145.003	0.164	0.216
-394.121	-200.000	0.014	-0.132
-393.106	-9.387	-0.334	-0.220
-392.092	-164.705	-0.084	-0.004
-391.077	-160.692	-0.080	-0.004
-390.063	207.531	-0.246	-0.378
-389.048	-200.000	0.034	-0.177
-388.033	-135.038	-0.190	-0.023
-387.019	7.816	0.283	-0.209
-386.004	-177.612	-0.166	0.004
-384.990	-41.992	-0.281	-0.142
-383.975	107.471	-0.168	0.197
-382.960	-200.000	-0.038	-0.258
-381.946	-101.400	-0.319	0.076
-380.931	79.511	0.037	0.039
-379.917	38.002	-0.119	-0.104
-378.902	201.656	0.070	0.107
-377.888	800.000	0.089	0.307
-376.873	371.014	-0.102	-0.204
-375.858	205.833	-0.056	-0.085
-374.844	-19.132	0.317	0.194
-373.829	-87.457	0.322	0.096
-372.815	-200.000	-0.022	0.196
-371.800	-50.755	-0.189	-0.088
-370.785	-43.316	0.140	-0.070
-369.771	756.139	-0.058	-0.155
-368.756	233.237	0.218	-0.354
-367.742	13.672	0.068	0.052
-366.727	-88.448	-0.081	0.024
-365.712	-200.000	-0.047	0.309
-364.698	-200.000	-0.040	0.347
-363.683	795.651	-0.084	-0.228
-362.669	2.021	-0.113	0.080
-361.654	-200.000	0.034	0.214
-360.639	-200.000	0.028	0.218
-359.625	-130.220	-0.213	0.029
-358.610	201.830	0.142	0.215
-357.596	-53.568	0.093	0.042
-356.581	0.511	-0.338	0.238
-355.566	-58.153	-0.021	0.009
-354.552	63.007	0.102	-0.100
-353.537	614.507	-0.049	0.122
-352.523	800.000	0.043	-0.181
-351.508	394.850	-0.058	-0.119
-350.493	88.484	-0.210	0.230
-349.479	47.470	0.219	0.201
-348.464	78.348	0.340	0.357
-347.450	-115.773	-0.192	0.035
-346.435	597.111	0.157	0.383
-345.420	779.416	-0.133	-0.357
-344.406	343.555	-0.083	0.160
-343.391	800.000	-0.088	-0.298
-342.377	-41.024	-0.141	0.072
-341.362	127.857	-0.086	-0.107
-340.348	-77.789	0.048	0.016
-339.333	14.416	0.308	-0.236
-338.318	107.791	-0.359	-0.421
-337.304	-115.544	0.180	0.033
-336.289	-120.234	-0.241	0.040
-335.275	104.031	0.247	0.286
-334.260	-61.455	0.185	-0.076
-333.245	351.274	0.129	-0.251
-332.231	313.717	0.148	0.274
-331.216	370.991	-0.170	-0.339
-330.202	285.683	0.153	-0.271
-329.187	800.000	0.067	-0.195
-328.172	228.241	-0.073	0.117
-327.158	79.772	-0.176	0.186
-326.143	-32.801	-0.259	-0.142
-325.129	-119.131	0.284	0.049
-324.114	-200.000	0.020	0.226
-323.099	144.282	-0.043	-0.057
-322.085	-200.000	0.019	0.231
-321.070	16.981	-0.155	0.121
-320.056	-91.586	0.288	0.081
-319.041	25.007	-0.134	-0.109
-318.026	800.000	-0.055	0.162
-317.012	20.234	-0.054	0.043
-315.997	-60.417	0.278	0.116
-314.983	182.497	0.073	-0.105
-313.968	-11.470	-0.116	-0.075
-312.953	-200.000	-0.015	-0.135
-311.939	106.115	-0.093	0.108
-310.924	41.217	-0.124	0.110
-309.910	35.475	0.311	-0.268
-308.895	-137.819	-0.154	-0.017
-307.880	-114.941	0.267	-0.050
-306.866	-71.178	0.157	-0.058
-305.851	25.644	-0.149	0.122
-304.837	800.000	0.145	0.449
-303.822	-200.000	-0.018	-0.132
-302.807	1.018	-0.106	0.074
-301.793	-200.000	0.009	0.143
-300.778	706.448	-0.168	0.435
-299.764	122.815	0.056	0.069
-298.749	44.605	0.240	-0.216
-297.735	-132.072	0.420	-0.054
-296.720	-177.445	0.424	0.010
-295.705	100.262	-0.081	-0.092
-294.691	-200.000	0.010	0.060
-293.676	66.435	0.123	0.122
-292.662	800.000	0.086	0.287
-291.647	-200.000	0.040	-0.264
-290.632	-141.443	-0.364	-0.036
-289.618	66.408	0.109	0.109
-288.603	145.631	0.163	0.214
-287.589	75.349	0.096	-0.099
-286.574	-47.106	0.056	-0.027
-285.559	800.000	0.063	0.248
-284.545	263.127	-0.155	-0.264
-283.530	-100.851	-0.309	-0.075
-282.516	-200.000	-0.053	-0.417
-281.501	-13.617	0.112	-0.071
-280.486	800.000	0.122	0.340
-279.472	46.600	0.287	0.262
-278.457	800.000	0.056	0.177
-277.443	84.777	-0.278	-0.299
-276.428	116.034	-0.200	0.240
-275.413	209.980	0.094	-0.144
-274.399	-5.280	-0.206	0.139
-273.384	230.295	-0.062	0.100
-272.370	-18.690	0.141	-0.086
-271.355	-69.767	-0.306	-0.115
-270.340	-101.213	-0.247	-0.059
-269.326	-63.722	-0.269	-0.108
-268.311	-23.432	0.156	0.092
-267.297	173.481	-0.149	-0.211
-266.282	553.637	-0.040	0.094
-265.267	-7.653	0.212	0.140
-264.253	171.362	-0.104	-0.146
-263.238	-110.729	0.067	0.014
-262.224	800.000	-0.059	-0.234
-261.209	674.608	0.148	0.376
-260.195	-160.814	0.131	0.007
-259.180	-97.123	-0.257	0.066
-258.165	-16.461	-0.177	0.110
-257.151	-35.223	0.142	-0.076
-256.136	348.881	0.120	0.232
-255.122	-61.328	0.075	-0.031
-254.107	-102.872	-0.124	-0.029
-253.092	66.576	0.085	0.085
-252.078	-40.636	0.268	-0.136
-251.063	15.701	-0.201	0.155
-250.049	-200.000	0.034	0.283
-249.034	-53.055	0.080	0.036
-248.019	159.664	-0.304	-0.415
-247.005	25.981	0.171	-0.140
-245.990	-45.581	0.329	-0.160
-244.976	-121.393	-0.279	-0.046
-243.961	434.230	0.173	-0.368
-242.946	87.847	-0.081	0.088
-241.932	283.523	0.189	0.332
-240.917	-42.507	-0.186	-0.093
-239.903	124.072	0.221	-0.273
-238.888	39.726	-0.175	-0.154
-237.873	-110.841	-0.241	0.049
-236.859	-199.686	-0.047	0.000
-235.844	-114.368	-0.176	-0.033
-234.830	-200.000	-0.016	-0.119
-233.815	136.559	-0.228	0.291
-232.800	800.000	0.080	0.255
-231.786	-200.000	0.042	0.223
-230.771	93.293	0.089	-0.099
-229.757	800.000	0.029	0.101
-228.742	102.760	-0.286	-0.328
-227.727	29.585	0.088	0.074
-226.713	5.739	0.105	-0.076
-225.698	-200.000	-0.031	-0.170
-224.684	-200.000	0.010	-0.070
-223.669	356.931	-0.084	0.163
-222.655	-13.966	-0.192	0.121
-221.640	93.562	0.179	-0.198
-220.625	-149.436	0.253	0.020
-219.611	-115.572	0.115	0.021
-218.596	12.890	0.247	0.187
-217.582	-63.913	0.384	-0.154
-216.567	277.254	-0.039	0.067
-215.552	-75.017	0.130	-0.046
-214.538	-10.112	0.057	0.037
-213.523	88.297	-0.296	-0.321
-212.509	322.154	0.134	-0.249
-211.494	-0.634	0.138	0.096
-210.479	85.995	-0.284	0.305
-209.465	167.175	-0.246	-0.342
-208.450	-200.000	0.014	0.317
-207.436	-93.879	0.273	-0.073
-206.421	-71.281	0.235	-0.086
-205.406	-83.414	-0.357	0.112
-204.392	-200.000	-0.013	0.196
-203.377	215.178	-0.068	0.105
-202.363	-124.020	-0.306	-0.047
-201.348	293.224	0.034	0.062
-200.333	332.388	0.086	-0.162
-199.319	-200.000	0.020	0.252
-198.304	-59.850	0.074	0.031
-197.290	-106.638	0.226	-0.049
-196.275	162.997	-0.098	0.134
-195.260	-75.516	0.183	0.064
-194.246	-17.954	0.111	0.068
-193.231	-98.420	0.098	0.024
-192.217	800.000	-0.069	-0.200
-191.202	-200.000	-0.030	-0.248
-190.187	-200.000	0.092	-0.446
-189.173	-98.320	0.201	0.050
-188.158	-153.631	-0.034	-0.002
-187.144	-200.000	0.006	-0.075
-186.129	-17.667	-0.160	-0.098
-185.114	-168.255	0.417	-0.016
-184.100	335.927	-0.221	0.420
-183.085	-67.775	0.140	0.054
-182.071	47.614	-0.096	0.087
-181.056	-116.732	0.179	-0.032
-180.042	102.922	0.279	-0.319
-179.027	-15.912	-0.162	-0.101
-178.012	-96.095	0.370	0.096
-176.998	309.955	0.069	0.126
-175.983	-104.847	-0.267	-0.060
-174.969	135.730	0.126	0.160
-173.954	46.618	0.292	0.265
-172.939	-10.765	0.207	0.134
-171.925	-8.854	0.053	-0.035
-170.910	46.138	-0.193	0.175
-169.896	357.951	-0.067	-0.131
-168.881	800.000	-0.075	0.232
-167.866	-46.887	0.183	0.087
-166.852	139.562	-0.089	-0.114
-165.837	353.824	0.156	0.302
-164.823	-200.000	-0.005	0.203
-163.808	800.000	-0.131	0.485
-162.793	247.215	-0.066	0.108
-161.779	130.344	0.345	-0.432
-160.764	-58.062	0.344	-0.147
-159.750	-167.567	0.208	0.008
-158.735	-200.000	0.024	-0.199
-157.720	800.000	0.040	0.119
-156.706	800.000	-0.147	0.534
-155.691	-54.776	-0.185	0.082
-154.677	-200.000	-0.053	-0.250
-153.662	-77.756	-0.161	-0.054
-152.647	-200.000	0.003	0.121
-151.633	0.069	-0.300	0.209
-150.618	-59.497	0.223	-0.093
-149.604	27.691	0.091	-0.075
-148.589	578.715	0.108	-0.258
-147.574	800.000	0.064	-0.175
-146.560	96.667	-0.072	-0.081
-145.545	-200.000	-0.024	-0.288
-144.531	-200.000	0.048	0.252
-143.516	-138.839	0.335	-0.036
-142.502	19.497	0.059	0.046
-141.487	-200.000	0.009	-0.308
-140.472	91.503	-0.133	-0.146
-139.458	-5.539	-0.215	-0.144
-138.443	8.800	-0.108	-0.080
-137.429	-99.727	0.353	0.086
-136.414	683.516	0.104	0.266
-135.399	-78.789	-0.386	-0.128
-134.385	218.142	-0.136	-0.212
-133.370	405.839	0.053	0.108
-132.356	-200.000	0.001	0.527
-131.341	-200.000	0.069	0.399
-130.326	-200.000	0.034	0.163
-129.312	-140.594	-0.030	0.003
-128.297	800.000	0.047	-0.138
-127.283	132.276	0.116	0.145
-126.268	415.046	-0.160	-0.332
-125.253	-112.656	0.374	0.073
-124.239	800.000	0.015	-0.062
-123.224	316.610	0.273	-0.503
-122.210	172.481	0.162	-0.228
-121.195	-200.000	-0.066	0.296
-120.180	-80.222	0.254	0.083
-119.166	-200.000	-0.054	0.251
-118.151	702.406	-0.175	-0.449
-117.137	-200.000	-0.017	0.137
-116.122	-40.146	-0.178	-0.090
-115.107	-132.464	0.096	-0.012
-114.093	330.842	0.083	0.156
-113.078	-93.165	0.170	-0.046
-112.064	800.000	-0.062	0.173
-111.049	-200.000	0.053	0.230
-110.034	197.339	0.129	0.192
-109.020	-24.549	0.070	-0.040
-108.005	-129.334	-0.279	0.038
-106.991	-200.000	-0.042	0.208
-105.976	-147.901	0.289	-0.023
-104.962	800.000	0.058	0.198
-103.947	-104.163	-0.150	-0.034
-102.932	-166.246	-0.120	-0.005
-101.918	-133.249	0.068	-0.008
-100.903	-8.786	0.231	0.151
-99.889	-23.045	0.185	-0.108
-98.874	10.823	0.177	-0.131
-97.859	-56.439	0.231	0.100
-96.845	800.000	0.133	-0.400
-95.830	-76.615	-0.193	0.066
-94.816	39.869	-0.226	-0.198
-93.801	183.097	-0.085	-0.122
-92.786	-7.114	0.381	0.252
-91.772	800.000	-0.021	0.069
-90.757	-189.688	-0.191	-0.002
-89.743	-30.602	0.257	-0.142
-88.728	-18.942	0.406	-0.246
-87.713	-88.156	-0.103	0.030
-86.699	56.909	-0.136	0.129
-85.684	-200.000	-0.017	-0.305
-84.670	-200.000	-0.047	-0.243
-83.655	-62.158	0.125	-0.051
-82.640	99.886	-0.246	0.277
-81.626	-200.000	0.042	-0.226
-80.611	800.000	-0.099	0.312
-79.597	177.533	0.182	0.258
-78.582	-151.877	-0.269	-0.019
-77.567	710.298	0.071	-0.183
-76.553	147.258	-0.064	-0.084
-75.538	68.452	0.110	0.109
-74.524	176.815	-0.053	0.075
-73.509	147.263	-0.148	0.194
-72.494	-71.756	0.269	-0.097
-71.480	29.256	0.188	-0.156
-70.465	-198.750	-0.093	-0.001
-69.451	17.799	-0.072	-0.056
-68.436	800.000	0.033	0.128
-67.422	-200.000	-0.021	0.123
-66.407	44.300	0.268	0.239
-65.392	-48.907	-0.456	0.213
-64.378	-200.000	-0.003	-0.031
-63.363	7.656	-0.158	-0.115
-62.349	-51.829	0.314	0.142
-61.334	27.233	-1.210	-0.988
-60.319	212.179	0.576	0.883
-59.305	560.193	-0.560	-1.316
-58.290	290.877	1.162	2.055
-57.276	800.000	0.499	1.537
-56.261	-200.000	136.280	673.087
-55.246	338.273	1677.140	3174.583
-54.232	134.686	2802.913	3538.041
-53.217	85.793	2195.257	2347.715
-52.203	30.635	1711.659	1424.125
-51.188	23.553	1535.145	1228.373
-50.173	21.958	1514.037	1200.533
-49.159	45.870	1589.751	1429.835
-48.144	42.605	1599.413	1415.513
-47.130	23.711	1548.752	1240.165
-46.115	20.954	1532.706	1208.188
-45.100	20.674	1529.539	1203.706
-44.086	20.707	1527.571	1202.337
-43.071	20.753	1525.454	1200.938
-42.057	20.635	1524.305	1199.177
-41.042	20.656	1522.450	1197.816
-40.027	20.586	1520.960	1196.110
-39.013	20.631	1518.871	1194.733
-37.998	20.599	1518.055	1193.824
-36.984	20.552	1517.933	1193.352
-35.969	20.678	1515.668	1192.392
-34.954	20.546	1514.730	1190.701
-33.940	20.574	1512.966	1189.462
-32.925	20.617	1511.855	1188.836
-31.911	20.701	1510.385	1188.201
-30.896	20.647	1509.175	1186.834
-29.881	20.696	1507.784	1186.032
-28.867	20.779	1506.298	1185.378
-27.852	20.687	1505.243	1183.875
-26.838	20.826	1502.859	1182.896
-25.823	20.790	1502.571	1182.379
-24.809	20.814	1500.437	1180.816
-23.794	20.845	1499.046	1179.885
-22.779	20.785	1497.719	1178.389
-21.765	20.756	1496.731	1177.367
-20.750	20.650	1495.874	1175.929
-19.736	20.677	1495.163	1175.503
-18.721	20.772	1493.876	1175.091
-17.706	20.636	1492.791	1173.268
-16.692	20.604	1492.211	1172.550
-15.677	20.733	1490.868	1172.321
-14.663	20.767	1489.706	1171.588
-13.648	20.673	1488.987	1170.343
-12.633	20.688	1487.945	1169.581
-11.619	20.696	1487.041	1168.877
-10.604	20.623	1486.416	1167.848
-9.590	20.690	1485.783	1167.753
-8.575	20.731	1484.060	1166.629
-7.560	20.635	1483.754	1165.701
-6.546	20.725	1482.183	1165.020
-5.531	20.768	1481.542	1164.755
-4.517	20.699	1480.204	1163.196
-3.502	20.710	1479.126	1162.376
-2.487	20.712	1478.147	1161.577
-1.473	20.732	1476.999	1160.761
-0.458	20.670	1475.914	1159.448
0.556	19.557	1466.306	1147.263
1.571	16.386	1442.003	1107.396
2.586	12.883	1379.791	1037.517
3.600	11.264	1294.163	963.484
4.615	10.423	1250.129	925.814
5.629	9.375	1193.328	877.953
6.644	4.862	1113.138	795.866
7.659	1.333	1079.302	754.101
8.673	0.774	1074.206	747.711
9.688	0.530	1071.009	744.216
10.702	0.621	1069.840	743.785
11.717	0.666	1067.137	742.061
12.731	2.274	1067.016	749.803
13.746	7.415	1074.342	780.222
14.761	13.731	1082.837	817.543
15.775	17.033	1086.282	836.374
16.790	16.902	1085.799	835.282
17.804	15.947	1083.463	828.713
18.819	15.237	1081.262	823.468
19.834	14.695	1079.837	819.652
20.848	14.448	1079.353	818.001
21.863	14.290	1078.357	816.398
22.877	13.996	1077.620	814.330
23.892	13.782	1076.828	812.610
24.907	13.632	1076.172	811.307
25.921	13.744	1075.033	810.927
26.936	13.705	1074.665	810.385
27.950	13.728	1073.795	809.770
28.965	13.884	1073.239	810.043
29.980	13.854	1071.810	808.743
30.994	13.947	1070.563	808.185
32.009	13.871	1070.329	807.568
33.023	13.895	1069.615	807.072
34.038	13.968	1068.497	806.514
35.053	13.828	1067.732	805.186
36.067	13.922	1066.906	804.945
37.082	13.777	1066.187	803.632
38.096	13.939	1064.958	803.415
39.111	13.916	1064.650	803.004
40.126	13.957	1063.421	802.200
41.140	13.708	1062.786	800.450
42.155	13.931	1061.061	800.153
43.169	13.791	1060.715	799.146
44.184	13.718	1059.475	797.793
45.199	13.755	1058.491	797.160
46.213	13.731	1057.376	796.131
47.228	13.703	1056.877	795.553
48.242	13.891	1055.044	795.003
49.257	13.833	1054.308	794.099
50.271	13.832	1053.529	793.440
51.286	13.947	1051.788	792.607
52.301	13.890	1051.169	791.796
53.315	13.843	1050.815	791.237
54.330	13.844	1049.705	790.336
55.344	13.840	1048.710	789.499
56.359	13.842	1048.003	788.907
57.374	13.857	1046.711	787.936
58.388	13.770	1046.261	787.111
59.403	13.758	1045.526	786.434
60.417	13.737	1044.738	785.671
61.432	13.709	1044.069	784.968
62.447	13.702	1043.294	784.279
63.461	13.598	1042.508	783.129
64.476	13.723	1041.483	782.882
65.490	13.653	1040.350	781.627
66.505	13.691	1039.894	781.397
67.520	13.771	1038.660	780.774
68.534	13.784	1037.943	780.229
69.549	13.777	1037.444	779.750
70.563	13.792	1036.721	779.212
71.578	13.672	1035.925	777.979
72.593	13.695	1035.284	777.539
73.607	13.632	1034.524	776.603
74.622	13.641	1032.978	775.416
75.636	13.698	1031.940	774.832
76.651	13.660	1031.460	774.227
77.666	13.591	1031.035	773.521
78.680	13.532	1030.076	772.456
79.695	13.613	1029.057	771.999
80.709	13.785	1028.003	771.940
81.724	13.760	1027.603	771.459
82.739	13.760	1027.027	770.957
83.753	13.761	1026.004	770.123
84.768	13.889	1024.839	769.774
85.782	13.822	1024.604	769.221
86.797	13.934	1023.431	768.789
87.812	13.868	1022.553	767.758
88.826	13.791	1022.290	767.138
89.841	13.925	1021.142	766.827
90.855	14.019	1019.704	766.109
91.870	13.896	1019.591	765.392
92.884	13.824	1019.217	764.709
93.899	13.982	1018.400	764.757
94.914	14.064	1017.473	764.371
95.928	14.048	1016.768	763.700
96.943	13.897	1016.014	762.374
97.957	13.989	1015.012	761.976
98.972	13.887	1014.721	761.223
99.987	13.951	1013.599	760.605
101.001	14.012	1012.582	760.056
102.016	14.043	1012.143	759.800
103.030	13.901	1011.188	758.368
104.045	14.055	1010.068	758.161
105.060	14.081	1009.315	757.651
106.074	13.994	1008.337	756.453
107.089	13.968	1007.521	755.656
108.103	13.822	1006.865	754.433
109.118	13.862	1005.846	753.781
110.133	13.806	1004.548	752.488
111.147	13.888	1004.086	752.449
112.162	13.869	1002.917	751.419
113.176	13.847	1002.519	750.954
114.191	13.854	1001.447	750.118
115.206	13.940	1000.456	749.698
116.220	13.842	999.595	748.542
117.235	13.884	998.570	747.898
118.249	13.933	997.700	747.401
119.264	13.893	996.664	746.381
120.279	13.830	995.846	745.420
121.293	13.727	995.240	744.438
122.308	13.772	994.403	743.947
123.322	13.827	993.791	743.671
124.337	13.793	992.396	742.406
125.352	13.845	991.310	741.761
126.366	13.811	989.944	740.522
127.381	13.829	988.808	739.686
128.395	13.734	988.257	738.788
129.410	13.913	986.638	738.307
130.424	13.937	985.832	737.746
131.439	13.756	985.260	736.446
132.454	13.756	984.564	735.864
133.468	13.855	983.452	735.407
134.483	13.818	982.802	734.692
135.497	13.989	981.573	734.464
136.512	13.960	980.891	733.758
137.527	13.706	980.835	732.533
138.541	13.949	979.574	732.596
139.556	13.938	978.784	731.890
140.570	13.920	978.034	731.187
141.585	13.870	977.646	730.611
142.600	13.899	977.103	730.269
143.614	14.088	976.335	730.462
144.629	14.054	975.220	729.413
145.643	14.097	974.326	728.868
146.658	14.082	973.891	728.415
147.673	14.071	972.891	727.553
148.687	14.100	971.727	726.744
149.702	13.945	971.429	725.778
150.716	14.124	970.086	725.494
151.731	14.114	969.222	724.739
152.746	14.068	968.761	724.131
153.760	14.065	967.597	723.183
154.775	14.095	966.819	722.668
155.789	14.091	966.138	722.077
156.804	14.140	965.270	721.579
157.819	14.130	964.599	720.968
158.833	14.127	964.198	720.593
159.848	14.201	963.254	720.142
160.862	14.309	962.054	719.650
161.877	14.198	961.979	719.050
162.892	14.167	961.325	718.362
163.906	14.055	960.364	717.100
164.921	14.131	959.232	716.519
165.935	14.218	958.416	716.218
166.950	14.093	957.387	714.850
167.964	14.233	956.314	714.586
168.979	14.317	955.126	713.995
169.994	14.138	954.673	712.824
171.008	14.269	953.471	712.426
172.023	14.192	952.713	711.467
173.037	14.252	951.870	711.033
174.052	14.289	951.321	710.718
175.067	14.262	950.643	710.030
176.081	14.265	949.515	709.139
177.096	14.125	949.167	708.222
178.110	14.206	948.093	707.702
179.125	14.181	947.493	707.083
180.140	14.203	946.292	706.221
181.154	14.332	945.712	706.273
182.169	14.402	944.962	705.945
183.183	14.496	944.191	705.704
184.198	14.385	944.147	705.139
185.213	14.382	943.283	704.421
186.227	14.569	942.332	704.434
187.242	14.464	941.867	703.582
188.256	14.520	941.221	703.272
189.271	14.558	940.397	702.757
190.286	14.475	939.911	701.982
191.300	14.486	938.843	701.170
192.315	14.268	938.617	700.020
193.329	14.367	937.385	699.456
194.344	14.459	936.825	699.360
195.359	14.319	936.439	698.424
196.373	14.551	935.931	698.956
197.388	14.645	934.946	698.554
198.402	14.551	934.536	697.791
199.417	14.490	934.596	697.519
200.432	14.536	933.901	697.130
201.446	14.626	933.604	697.225
202.461	14.707	932.745	696.859
203.475	14.793	932.208	696.755
204.490	14.717	931.129	695.567
205.504	14.640	930.630	694.816
206.519	14.639	929.621	693.994
207.534	14.712	929.005	693.778
208.548	14.657	928.219	692.902
209.563	14.657	927.742	692.484
210.577	14.702	927.077	692.113
211.592	14.829	925.898	691.694
212.607	14.751	925.716	691.178
213.621	14.807	924.854	690.702
214.636	14.881	923.915	690.245
215.650	14.807	923.368	689.472
216.665	14.690	923.174	688.781
217.680	14.883	922.594	689.083
218.694	15.003	921.993	689.069
219.709	14.895	921.728	688.364
220.723	14.955	920.510	687.643
221.738	15.022	919.798	687.324
222.753	14.854	919.128	686.074
223.767	15.012	918.426	686.137
224.782	14.922	917.703	685.166
225.796	15.120	916.760	685.210
226.811	15.033	916.199	684.375
227.826	15.054	915.422	683.821
228.840	14.835	915.264	682.747
229.855	15.053	914.132	682.733
230.869	15.081	913.161	682.061
231.884	15.023	912.945	681.605
232.899	15.156	911.999	681.378
233.913	15.005	911.524	680.349
234.928	14.959	911.060	679.756
235.942	14.964	910.202	679.075
236.957	14.989	909.397	678.514
237.972	15.062	908.754	678.274
238.986	15.131	907.822	677.795
240.001	15.084	907.581	677.366
241.015	15.091	906.867	676.802
242.030	15.145	906.394	676.608
243.045	15.338	905.474	676.637
244.059	15.235	905.199	675.957
245.074	15.176	904.088	674.830
246.088	15.119	904.117	674.563
247.103	15.289	902.893	674.274
248.117	15.200	902.629	673.660
249.132	15.296	901.960	673.485
250.147	15.412	901.351	673.436
251.161	15.373	900.342	672.466
252.176	15.513	899.759	672.532
253.190	15.585	898.910	672.126
254.205	15.596	898.234	671.607
255.220	15.420	898.226	670.835
256.234	15.582	897.329	670.755
257.249	15.669	896.609	670.506
258.263	15.571	896.280	669.806
259.278	15.501	895.348	668.773
260.293	15.540	895.031	668.634
261.307	15.576	894.413	668.254
262.322	15.686	893.293	667.798
263.336	15.691	892.977	667.520
264.351	15.557	892.551	666.612
265.366	15.711	891.708	666.532
266.380	15.668	891.408	666.079
267.395	15.706	890.611	665.575
268.409	15.736	889.793	665.024
269.424	15.722	888.745	664.125
270.439	15.525	888.679	663.241
271.453	15.751	887.605	663.272
272.468	15.791	886.875	662.826
273.482	15.743	886.297	662.147
274.497	15.843	885.435	661.836
275.512	15.794	884.823	661.126
276.526	15.796	883.881	660.372
277.541	15.870	883.507	660.325
278.555	15.926	882.622	659.827
279.570	15.816	882.435	659.195
280.585	15.948	881.968	659.305
281.599	15.978	881.296	658.864
282.614	15.943	880.517	658.085
283.628	16.051	879.730	657.861
284.643	15.965	879.296	657.144
285.657	15.865	879.330	656.720
286.672	15.993	878.444	656.498
287.687	16.027	877.628	655.964
288.701	16.106	877.123	655.836
289.716	15.906	876.966	654.880
290.730	16.040	876.247	654.806
291.745	16.020	875.424	654.058
292.760	16.156	874.530	653.858
293.774	16.150	873.890	653.299
294.789	16.260	873.385	653.289
295.803	16.314	872.683	652.914
296.818	16.255	871.963	652.090
297.833	16.198	871.478	651.448
298.847	16.023	871.028	650.382
299.862	16.129	869.947	649.926
300.876	16.213	869.215	649.645
301.891	16.328	868.424	649.438
302.906	16.265	867.831	648.693
303.920	16.294	867.337	648.380
304.935	16.339	866.652	647.984
305.949	16.317	866.235	647.528
306.964	16.426	865.391	647.258
307.979	16.387	864.914	646.695
308.993	16.392	864.893	646.639
310.008	16.347	863.976	645.724
311.022	16.279	863.494	645.050
312.037	16.442	863.134	645.344
313.052	16.539	862.049	644.846
314.066	16.476	861.727	644.307
315.081	16.471	861.136	643.792
316.095	16.481	860.326	643.166
317.110	16.371	859.756	642.264
318.125	16.400	859.307	641.983
319.139	16.469	859.079	642.016
320.154	16.399	858.419	641.203
321.168	16.513	858.086	641.329
322.183	16.547	857.411	640.897
323.197	16.480	856.547	639.942
324.212	16.523	855.995	639.634
325.227	16.607	855.438	639.479
326.241	16.456	855.269	638.725
327.256	16.477	854.245	637.984
328.270	16.536	853.814	637.828
329.285	16.562	853.119	637.351
330.300	16.458	852.814	636.673
331.314	16.455	852.041	636.029
332.329	16.492	851.752	635.895
333.343	16.581	850.740	635.419
334.358	16.705	849.899	635.200
335.373	16.620	849.570	634.580
336.387	16.776	848.830	634.555
337.402	16.690	848.769	634.131
338.416	16.682	847.968	633.447
339.431	16.884	847.414	633.729
340.446	16.860	846.626	632.998
341.460	16.960	845.983	632.831
342.475	16.976	845.232	632.275
343.489	16.952	844.727	631.752
344.504	16.921	844.447	631.369
345.519	16.991	843.816	631.104
346.533	17.094	843.388	631.111
347.548	16.981	843.125	630.437
348.562	16.897	842.613	629.688
349.577	16.958	842.225	629.568
350.592	16.922	841.447	628.799
351.606	16.832	841.268	628.273
352.621	17.036	840.256	628.218
353.635	16.990	840.097	627.874
354.650	16.966	840.074	627.711
355.665	16.906	839.588	627.073
356.679	16.933	839.101	626.753
357.694	17.051	838.182	626.445
358.708	17.119	837.147	625.867
359.723	17.125	836.635	625.449
360.738	17.166	836.159	625.191
361.752	17.169	835.931	624.978
362.767	17.214	835.199	624.540
363.781	17.063	835.280	623.989
364.796	17.301	834.431	624.173
365.810	17.263	834.188	623.798
366.825	17.376	833.950	623.978
367.840	17.327	833.444	623.365
368.854	17.342	832.983	623.021
369.869	17.397	832.342	622.687
370.883	17.369	831.662	622.019
371.898	17.174	831.420	621.072
372.913	17.444	830.342	621.197
373.927	17.405	829.960	620.716
374.942	17.474	829.223	620.361
375.956	17.506	828.747	620.064
376.971	17.458	828.258	619.472
377.986	17.370	828.060	618.948
379.000	17.598	827.078	618.986
380.015	17.568	826.706	618.545
381.029	17.574	826.372	618.260
382.044	17.502	825.762	617.491
383.059	17.639	825.303	617.590
384.073	17.745	824.015	616.953
385.088	17.635	824.063	616.535
386.102	17.606	823.229	615.752
387.117	17.595	822.996	615.485
388.132	17.683	822.295	615.222
389.146	17.648	822.123	614.914
390.161	17.560	821.680	614.212
391.175	17.676	821.447	614.401
392.190	17.740	820.717	614.031
393.205	17.864	820.436	614.213
394.219	17.781	819.869	613.435
395.234	17.720	819.377	612.792
396.248	17.596	819.137	612.113
397.263	17.646	818.488	611.756
398.278	17.593	818.088	611.210
399.292	17.669	817.481	610.975
400.307	17.592	817.206	610.440
401.321	17.611	817.001	610.302
402.336	17.632	816.416	609.886
403.350	17.833	815.833	610.115
404.365	17.741	815.431	609.433
405.380	17.671	815.255	608.996
406.394	17.692	815.022	608.843
407.409	17.847	814.118	608.666
408.423	17.862	813.463	608.176
409.438	18.057	812.698	608.247
410.453	17.868	812.750	607.557
411.467	18.091	811.630	607.460
412.482	18.082	811.258	607.096
413.496	18.015	811.203	606.763
414.511	18.150	810.716	606.822
415.526	18.148	810.430	606.547
416.540	18.075	810.129	606.011
417.555	18.100	809.793	605.795
418.569	18.120	809.199	605.365
419.584	18.173	808.702	605.128
420.599	18.024	808.075	604.080
421.613	115.918	1300.507	1492.589
422.628	100.245	1372.205	1492.654
