DTS Sentinel unit serial number:	SN413079Multiplexer serial number:	ORYXHardware model number:	OX4-SRSoftware version number:	ORYX F/W v4.00 Oryx Data Collector v3.7.2.0data status	okinstallation	princeton_trtdifferential loss correction	single-endedforward channel	channel 3reverse channel	N/Adate	2019/09/17time	04:24:35forward acquisition time	60.00reverse acquisition time	0.00gamma	496.2192k internal	0.2323k external	0.2323temperature offset calibration	0.9948default loss term (dB/km)	0.3790temperature slope calibration	1.0000multiplexer offset coefficient	1.0000multiplexer slope coefficient	1.0000fibre end	0.00T internal ref (°C)	29.75T ext. ref 1 (°C)	0.14T ext. ref 2 (°C)	24.20length (m)	temperature (°C)	Stokes	anti-Stokes-747.200	-25.678	-0.103	0.061
-746.185	-5.789	0.411	0.284
-745.171	56.498	0.133	-0.130
-744.156	-121.238	-0.188	0.032
-743.142	140.707	0.167	-0.223
-742.127	224.747	0.037	0.060
-741.112	365.429	-0.183	-0.373
-740.098	-87.130	-0.079	-0.024
-739.083	-117.599	-0.192	-0.035
-738.069	18.391	-0.371	0.299
-737.054	117.258	-0.162	0.202
-736.039	14.343	-0.276	0.217
-735.025	209.745	-0.068	0.107
-734.010	-200.000	-0.033	-0.152
-732.996	31.861	-0.077	0.067
-731.981	-161.228	-0.191	0.010
-730.966	-129.689	0.176	0.025
-729.952	108.071	0.156	-0.188
-728.937	800.000	0.040	-0.122
-727.923	-200.000	-0.028	0.243
-726.908	-36.634	0.155	0.084
-725.894	-200.000	-0.013	0.115
-724.879	-200.000	-0.038	-0.288
-723.864	22.365	-0.345	-0.285
-722.850	-89.062	-0.034	-0.010
-721.835	410.847	0.101	0.217
-720.821	10.740	0.063	-0.049
-719.806	-44.195	0.107	-0.054
-718.791	-95.712	-0.342	0.092
-717.777	800.000	0.025	-0.079
-716.762	60.118	0.160	-0.159
-715.748	800.000	-0.083	0.265
-714.733	-174.708	-0.053	0.002
-713.718	-200.000	-0.007	-0.097
-712.704	800.000	-0.061	0.196
-711.689	83.473	0.129	-0.142
-710.675	-17.987	-0.260	0.164
-709.660	-44.759	0.112	-0.056
-708.645	-43.506	0.127	-0.065
-707.631	31.537	0.056	0.048
-706.616	39.273	-0.111	0.100
-705.602	-200.000	0.029	-0.171
-704.587	-200.000	-0.002	-0.308
-703.572	29.248	-0.438	0.375
-702.558	-200.000	0.020	0.381
-701.543	-200.000	-0.028	0.184
-700.529	-89.815	0.317	-0.094
-699.514	-118.399	-0.378	-0.068
-698.499	-51.928	-0.346	-0.162
-697.485	-200.000	-0.011	-0.107
-696.470	-200.000	-0.010	0.189
-695.456	266.710	-0.126	-0.221
-694.441	59.204	0.154	-0.152
-693.426	203.864	0.165	-0.257
-692.412	-200.000	-0.019	0.160
-691.397	74.366	0.217	0.230
-690.383	-200.000	0.002	-0.079
-689.368	-200.000	0.014	-0.149
-688.354	702.346	-0.050	-0.134
-687.339	-200.000	0.005	0.223
-686.324	-33.129	0.038	0.021
-685.310	800.000	-0.075	-0.216
-684.295	-20.036	0.072	0.045
-683.281	-77.154	-0.153	0.054
-682.266	265.016	-0.081	0.143
-681.251	197.651	-0.098	0.150
-680.237	-143.002	0.195	0.019
-679.222	-200.000	-0.048	-0.256
-678.208	-88.154	-0.241	0.073
-677.193	254.414	0.031	-0.053
-676.178	-140.938	-0.193	-0.020
-675.164	-56.528	0.193	-0.086
-674.149	347.971	-0.092	0.182
-673.135	48.901	-0.282	-0.267
-672.120	-200.000	-0.038	0.209
-671.105	-34.386	-0.130	0.072
-670.091	65.222	0.198	-0.201
-669.076	611.972	-0.074	-0.185
-668.062	677.703	-0.018	0.046
-667.047	800.000	-0.097	-0.356
-666.032	73.468	-0.306	-0.323
-665.018	-100.006	-0.409	-0.103
-664.003	-200.000	-0.039	-0.244
-662.989	-77.438	0.188	-0.066
-661.974	-200.000	0.034	0.322
-660.959	-117.325	0.233	0.043
-659.945	-200.000	0.028	-0.124
-658.930	280.168	0.087	-0.156
-657.916	-144.065	-0.099	0.009
-656.901	800.000	0.062	0.190
-655.886	238.296	-0.149	-0.249
-654.872	100.304	-0.100	-0.116
-653.857	309.750	-0.243	-0.457
-652.843	-200.000	0.076	-0.395
-651.828	-200.000	-0.004	0.045
-650.814	-47.833	0.066	-0.032
-649.799	800.000	0.073	-0.221
-648.784	-128.688	0.120	-0.017
-647.770	-55.622	-0.611	0.275
-646.755	-72.123	-0.260	-0.097
-645.741	-55.780	-0.248	0.112
-644.726	-3.476	-0.383	-0.268
-643.711	-66.264	0.081	-0.033
-642.697	265.025	0.144	0.252
-641.682	800.000	0.055	0.194
-640.668	-200.000	0.014	-0.198
-639.653	-200.000	0.010	0.336
-638.638	-56.056	-0.187	0.084
-637.624	298.424	0.134	0.248
-636.609	317.099	-0.215	-0.410
-635.595	-200.000	-0.007	-0.182
-634.580	-200.000	0.020	-0.228
-633.565	83.612	0.134	-0.147
-632.551	-119.298	-0.232	0.041
-631.536	-200.000	-0.027	0.162
-630.522	-200.000	0.003	-0.125
-629.507	-72.317	-0.135	0.050
-628.492	339.129	0.212	-0.415
-627.478	-200.000	0.001	0.325
-626.463	84.731	0.219	0.241
-625.449	81.328	0.126	0.137
-624.434	-159.210	0.321	0.018
-623.419	532.468	0.040	-0.096
-622.405	-49.331	0.234	-0.112
-621.390	656.838	-0.043	-0.111
-620.376	-200.000	-0.005	-0.063
-619.361	-26.832	-0.061	-0.036
-618.346	-86.486	-0.212	0.065
-617.332	158.918	0.077	0.107
-616.317	-200.000	-0.010	0.071
-615.303	800.000	0.076	0.296
-614.288	-87.072	-0.170	0.052
-613.273	55.021	0.306	-0.297
-612.259	-131.224	-0.376	0.050
-611.244	54.297	-0.260	-0.251
-610.230	-67.524	0.149	-0.059
-609.215	-148.141	-0.089	-0.007
-608.201	269.368	0.202	-0.357
-607.186	133.421	-0.139	0.181
-606.171	800.000	0.050	-0.143
-605.157	-200.000	0.022	-0.226
-604.142	623.267	-0.070	-0.178
-603.128	61.264	0.209	-0.209
-602.113	-200.000	0.031	-0.299
-601.098	-7.262	-0.026	0.017
-600.084	-200.000	0.025	0.145
-599.069	36.416	-0.215	-0.190
-598.055	28.718	-0.297	-0.253
-597.040	76.878	0.113	-0.120
-596.025	266.300	-0.183	-0.321
-595.011	75.080	-0.061	0.065
-593.996	800.000	0.061	-0.259
-592.982	-200.000	-0.006	-0.303
-591.967	692.948	-0.183	-0.482
-590.952	392.888	0.017	0.035
-589.938	23.848	0.261	0.216
-588.923	-200.000	0.012	-0.493
-587.909	110.746	-0.142	0.171
-586.894	-166.836	-0.157	-0.006
-585.879	274.345	-0.139	-0.248
-584.865	-200.000	0.027	-0.177
-583.850	-122.040	0.450	0.074
-582.836	-181.737	0.210	0.004
-581.821	341.195	0.116	0.228
-580.806	800.000	0.041	0.169
-579.792	-24.002	0.107	-0.064
-578.777	-134.280	-0.276	0.034
-577.763	-78.083	0.186	-0.064
-576.748	800.000	-0.055	0.198
-575.733	48.198	-0.090	0.084
-574.719	387.330	-0.196	-0.406
-573.704	800.000	0.048	-0.201
-572.690	412.204	0.105	0.224
-571.675	-20.312	-0.109	0.067
-570.661	-117.902	0.332	-0.060
-569.646	68.292	0.153	-0.157
-568.631	-28.825	-0.196	0.113
-567.617	26.880	0.035	0.030
-566.602	71.799	0.261	-0.272
-565.588	-110.978	0.017	-0.003
-564.573	800.000	-0.105	-0.356
-563.558	-64.281	0.192	-0.078
-562.544	-11.856	0.134	-0.088
-561.529	-98.942	0.111	0.028
-560.515	22.540	0.132	0.109
-559.500	-200.000	-0.076	0.333
-558.485	800.000	0.104	-0.443
-557.471	-36.557	0.186	-0.100
-556.456	-200.000	-0.048	-0.240
-555.442	-200.000	0.012	0.184
-554.427	-200.000	-0.023	-0.145
-553.412	-40.709	-0.085	0.044
-552.398	-200.000	-0.006	0.296
-551.383	-200.000	0.033	-0.163
-550.369	-29.229	0.062	-0.035
-549.354	-115.349	0.180	-0.034
-548.339	-200.000	0.044	-0.378
-547.325	197.080	0.065	0.100
-546.310	96.647	-0.212	-0.243
-545.296	18.264	-0.234	-0.187
-544.281	-87.930	0.127	-0.038
-543.266	-144.257	0.463	0.043
-542.252	-34.688	0.204	-0.112
-541.237	37.726	0.146	0.130
-540.223	79.685	0.091	0.098
-539.208	-179.413	-0.232	0.005
-538.193	800.000	-0.004	0.013
-537.179	2.432	-0.134	0.097
-536.164	-121.193	-0.224	-0.037
-535.150	14.743	0.057	-0.044
-534.135	-156.967	-0.113	-0.007
-533.121	95.144	-0.158	-0.180
-532.106	-163.733	-0.212	0.010
-531.091	160.203	0.186	-0.259
-530.077	470.230	-0.062	0.139
-529.062	-6.489	-0.144	0.098
-528.048	-200.000	-0.045	-0.384
-527.033	-6.657	0.062	0.042
-526.018	-200.000	-0.060	0.349
-525.004	-59.482	-0.248	0.107
-523.989	800.000	-0.046	-0.169
-522.975	549.255	-0.151	-0.362
-521.960	13.636	-0.281	0.219
-520.945	9.047	-0.278	-0.210
-519.931	-137.422	-0.403	0.046
-518.916	-93.324	-0.176	0.049
-517.902	219.932	0.045	-0.072
-516.887	-148.582	-0.179	-0.015
-515.872	-200.000	-0.057	-0.319
-514.858	176.395	0.228	0.332
-513.843	48.461	-0.233	-0.219
-512.829	24.057	0.095	-0.079
-511.814	-99.753	0.405	0.102
-510.799	-151.878	0.422	0.031
-509.785	-97.542	-0.473	-0.123
-508.770	-106.310	0.259	0.058
-507.756	-37.319	-0.352	0.188
-506.741	2.695	-0.289	-0.209
-505.726	-69.952	-0.294	-0.112
-504.712	-180.165	-0.284	0.006
-503.697	169.984	0.249	-0.357
-502.683	24.109	-0.192	-0.159
-501.668	52.070	-0.199	0.190
-500.653	-25.516	-0.223	-0.132
-499.639	130.898	-0.099	0.128
-498.624	122.266	-0.103	-0.128
-497.610	-90.470	0.134	0.039
-496.595	84.025	0.216	0.236
-495.581	-89.391	0.165	0.049
-494.566	397.696	-0.034	-0.072
-493.551	49.062	-0.094	-0.088
-492.537	371.745	-0.005	0.010
-491.522	800.000	0.025	-0.094
-490.508	40.853	-0.069	0.062
-489.493	-116.531	0.180	0.033
-488.478	21.839	-0.030	-0.024
-487.464	217.951	0.139	-0.221
-486.449	191.855	-0.126	0.190
-485.435	800.000	0.106	-0.332
-484.420	57.577	-0.040	0.040
-483.405	-90.940	0.360	0.103
-482.391	-163.304	-0.209	0.010
-481.376	800.000	-0.080	0.268
-480.362	38.866	0.397	0.354
-479.347	800.000	-0.086	0.270
-478.332	-200.000	-0.022	-0.108
-477.318	481.619	0.073	-0.165
-476.303	-85.005	0.327	-0.102
-475.289	494.298	0.097	0.223
-474.274	-140.399	0.416	0.043
-473.259	-200.000	0.012	-0.093
-472.245	-161.532	-0.155	-0.008
-471.230	358.141	0.105	-0.209
-470.216	-74.766	-0.059	0.021
-469.201	-24.030	-0.092	0.055
-468.186	-66.337	-0.328	0.130
-467.172	48.417	-0.099	0.092
-466.157	-85.357	-0.239	-0.075
-465.143	-118.006	-0.192	0.034
-464.128	-22.646	0.131	0.079
-463.113	-200.000	-0.204	-0.000
-462.099	485.145	-0.060	0.138
-461.084	56.795	-0.076	0.074
-460.070	-97.910	-0.187	-0.048
-459.055	317.830	0.145	-0.274
-458.040	284.121	-0.052	-0.094
-457.026	-200.000	0.006	0.135
-456.011	-200.000	-0.007	0.130
-454.997	410.988	-0.173	0.366
-453.982	182.200	-0.073	-0.107
-452.968	351.846	-0.174	0.344
-451.953	638.717	0.088	0.222
-450.938	-116.706	0.056	0.010
-449.924	800.000	-0.016	0.053
-448.909	-200.000	0.014	0.405
-447.895	-153.857	-0.379	0.026
-446.880	31.676	0.194	-0.167
-445.865	173.150	0.173	-0.248
-444.851	800.000	-0.028	0.098
-443.836	-200.000	-0.021	0.325
-442.822	4.124	-0.151	0.110
-441.807	-105.562	-0.216	0.049
-440.792	-142.026	0.289	-0.029
-439.778	-19.639	-0.097	-0.060
-438.763	800.000	-0.040	0.132
-437.749	-0.980	-0.201	0.142
-436.734	800.000	0.019	0.053
-435.719	-51.043	0.341	0.159
-434.705	427.771	0.041	0.089
-433.690	183.789	0.192	0.283
-432.676	73.487	-0.220	0.230
-431.661	-200.000	0.007	0.126
-430.646	-5.471	-0.127	0.087
-429.632	-73.770	-0.293	-0.106
-428.617	-33.874	0.211	-0.116
-427.603	-7.775	-0.077	0.052
-426.588	-97.513	0.220	-0.057
-425.573	26.968	0.068	0.057
-424.559	-200.000	0.074	-0.380
-423.544	74.100	0.109	-0.114
-422.530	-57.502	-0.110	0.048
-421.515	800.000	-0.082	0.316
-420.500	-200.000	-0.032	-0.381
-419.486	-45.436	0.198	-0.098
-418.471	-92.270	-0.268	0.075
-417.457	-40.463	-0.101	-0.052
-416.442	30.047	-0.162	-0.138
-415.428	-91.666	-0.280	-0.079
-414.413	173.729	-0.235	-0.338
-413.398	126.532	0.122	-0.154
-412.384	79.452	0.286	0.306
-411.369	-200.000	-0.051	0.438
-410.355	263.686	-0.120	-0.208
-409.340	800.000	-0.029	0.096
-408.325	9.261	0.251	0.189
-407.311	156.441	-0.032	-0.044
-406.296	663.605	-0.098	-0.253
-405.282	374.379	-0.127	0.257
-404.267	-92.619	-0.118	-0.033
-403.252	-180.809	-0.230	0.005
-402.238	540.622	0.081	0.192
-401.223	-94.049	-0.174	0.048
-400.209	-200.000	0.007	-0.165
-399.194	266.413	0.065	0.113
-398.179	-200.000	0.011	-0.162
-397.165	22.409	0.239	0.194
-396.150	118.864	0.167	-0.205
-395.136	185.658	0.088	-0.130
-394.121	-179.358	0.342	-0.008
-393.106	-200.000	-0.021	0.244
-392.092	-106.412	-0.143	0.032
-391.077	800.000	-0.079	-0.298
-390.063	-8.585	-0.211	0.141
-389.048	-135.880	-0.060	-0.007
-388.033	800.000	0.046	0.200
-387.019	-200.000	-0.027	0.150
-386.004	101.839	0.099	-0.115
-384.990	-25.213	0.483	0.285
-383.975	800.000	0.147	0.484
-382.960	90.369	-0.322	0.359
-381.946	800.000	0.030	-0.094
-380.931	86.739	-0.130	0.143
-379.917	-59.627	0.219	0.093
-378.902	-35.320	0.218	0.118
-377.888	-65.308	-0.089	-0.036
-376.873	128.900	0.011	-0.014
-375.858	5.574	-0.284	0.209
-374.844	-164.873	0.388	-0.017
-373.829	22.068	0.114	-0.093
-372.815	274.549	-0.225	0.397
-371.800	383.904	-0.037	-0.075
-370.785	-98.298	-0.091	0.023
-369.771	-200.000	-0.007	0.102
-368.756	-70.371	-0.048	-0.018
-367.742	-200.000	-0.009	-0.352
-366.727	-135.723	-0.138	0.016
-365.712	-200.000	-0.023	0.117
-364.698	179.544	0.214	-0.312
-363.683	-200.000	0.005	-0.115
-362.669	-91.407	0.420	-0.119
-361.654	-200.000	0.046	-0.231
-360.639	-44.654	-0.252	-0.125
-359.625	-110.411	-0.509	-0.105
-358.610	-49.897	-0.201	-0.095
-357.596	-200.000	0.064	-0.288
-356.581	-85.258	-0.064	0.020
-355.566	-21.202	-0.116	0.071
-354.552	211.189	0.308	-0.482
-353.537	-130.017	0.164	0.022
-352.523	246.532	-0.079	0.132
-351.508	299.662	-0.215	-0.394
-350.493	182.559	-0.142	-0.209
-349.479	73.276	0.035	0.037
-348.464	800.000	-0.028	-0.086
-347.450	-7.121	-0.361	0.244
-346.435	800.000	-0.100	0.310
-345.420	56.161	0.058	0.056
-344.406	130.603	0.040	0.051
-343.391	267.924	0.149	-0.259
-342.377	660.313	-0.050	-0.128
-341.362	800.000	0.065	-0.212
-340.348	400.437	-0.068	-0.142
-339.333	-62.569	0.275	0.114
-338.318	23.638	0.178	0.145
-337.304	-200.000	0.003	0.119
-336.289	11.795	-0.130	0.100
-335.275	118.732	-0.123	-0.151
-334.260	462.659	0.110	0.244
-333.245	800.000	-0.062	0.220
-332.231	-151.345	-0.191	0.014
-331.216	42.592	-0.391	0.353
-330.202	-24.146	0.418	-0.248
-329.187	-117.302	0.203	0.037
-328.172	-41.275	0.054	-0.028
-327.158	-95.709	0.569	-0.151
-326.143	800.000	-0.078	-0.260
-325.129	800.000	0.069	-0.218
-324.114	47.277	0.099	0.091
-323.099	-168.785	-0.409	0.015
-322.085	28.557	0.094	0.079
-321.070	-21.804	-0.236	-0.143
-320.056	87.714	0.086	-0.095
-319.041	94.012	-0.128	-0.145
-318.026	430.883	-0.090	-0.193
-317.012	168.971	-0.212	0.300
-315.997	-17.054	0.097	0.061
-314.983	-119.678	0.104	-0.018
-313.968	-91.460	-0.240	-0.068
-312.953	5.489	-0.308	0.226
-311.939	30.766	0.134	-0.114
-310.924	42.233	0.337	0.304
-309.910	2.748	-0.302	0.218
-308.895	-105.681	-0.216	0.049
-307.880	-82.394	-0.164	0.053
-306.866	-200.000	0.006	-0.241
-305.851	-147.331	-0.249	0.021
-304.837	-105.831	-0.122	0.027
-303.822	-14.304	-0.166	0.106
-302.807	-23.252	0.383	0.228
-301.793	69.735	0.286	-0.292
-300.778	116.544	-0.093	-0.113
-299.764	5.824	0.119	-0.088
-298.749	-114.131	-0.224	0.043
-297.735	-70.780	0.187	-0.070
-296.720	4.907	-0.396	0.289
-295.705	24.674	0.174	0.143
-294.691	-86.682	0.152	0.046
-293.676	-78.418	0.353	0.120
-292.662	644.147	-0.091	0.231
-291.647	-200.000	0.016	-0.141
-290.632	-95.883	0.157	0.041
-289.618	526.246	-0.153	0.357
-288.603	0.487	0.097	-0.069
-287.589	351.989	-0.072	-0.142
-286.574	800.000	0.120	0.399
-285.559	-64.459	-0.168	0.068
-284.545	123.283	0.178	0.221
-283.530	338.209	0.119	-0.229
-282.516	-84.569	0.113	0.035
-281.501	-131.627	0.048	-0.006
-280.486	455.163	0.187	0.410
-279.472	-70.494	0.260	0.098
-278.457	45.910	0.433	-0.397
-277.443	-200.000	0.027	-0.192
-276.428	72.619	0.158	0.163
-275.413	-196.362	0.165	-0.001
-274.399	129.685	0.147	-0.186
-273.384	800.000	0.159	0.489
-272.370	-49.882	-0.098	-0.046
-271.355	-109.255	-0.251	0.053
-270.340	623.138	-0.047	-0.117
-269.326	-120.930	0.416	0.069
-268.311	-77.138	0.192	0.066
-267.297	800.000	-0.097	-0.278
-266.282	-56.295	-0.189	0.083
-265.267	83.176	0.298	-0.321
-264.253	-147.851	0.181	0.015
-263.238	-154.331	-0.290	-0.019
-262.224	103.563	0.144	0.168
-261.209	-167.275	-0.350	-0.014
-260.195	-200.000	-0.001	-0.220
-259.180	-120.683	0.450	0.075
-258.165	47.414	-0.087	0.080
-257.151	-200.000	0.021	0.097
-256.136	-200.000	0.026	0.175
-255.122	-200.000	-0.008	0.085
-254.107	106.476	-0.220	0.258
-253.092	-200.000	-0.018	0.364
-252.078	-72.873	0.137	0.050
-251.063	-90.435	-0.207	0.059
-250.049	222.963	0.081	-0.129
-249.034	-109.539	0.088	0.018
-248.019	31.026	0.040	-0.034
-247.005	455.898	0.114	-0.251
-245.990	21.353	0.135	-0.109
-244.976	531.357	0.044	0.104
-243.961	800.000	0.073	0.291
-242.946	-200.000	0.180	0.001
-241.932	800.000	-0.077	-0.241
-240.917	-31.087	0.230	0.128
-239.903	-200.000	-0.005	-0.232
-238.888	800.000	-0.074	-0.269
-237.873	697.118	0.030	-0.078
-236.859	-200.000	-0.033	-0.171
-235.844	-10.952	0.090	0.059
-234.830	45.928	-0.138	0.126
-233.815	-200.000	-0.041	-0.237
-232.800	-176.471	0.200	0.005
-231.786	-200.000	-0.004	0.062
-230.771	-49.841	0.075	-0.035
-229.757	69.409	-0.178	-0.181
-228.742	38.638	-0.128	-0.113
-227.727	-132.905	0.253	-0.032
-226.713	-39.204	-0.273	-0.142
-225.698	540.689	0.157	0.369
-224.684	800.000	-0.059	0.209
-223.669	270.473	-0.076	0.132
-222.655	-200.000	-0.020	0.248
-221.640	30.766	-0.265	0.224
-220.625	-81.341	0.039	-0.013
-219.611	-127.794	-0.146	-0.021
-218.596	224.270	-0.094	0.150
-217.582	-110.888	-0.206	0.042
-216.567	-98.884	0.409	-0.103
-215.552	372.138	-0.187	-0.376
-214.538	-134.758	0.248	-0.030
-213.523	-200.000	-0.049	0.313
-212.509	29.132	-0.204	-0.171
-211.494	800.000	-0.028	-0.114
-210.479	56.746	-0.197	-0.189
-209.465	87.834	0.228	0.250
-208.450	115.261	0.043	-0.052
-207.436	553.089	0.096	-0.229
-206.421	127.195	-0.079	-0.099
-205.406	-20.241	0.178	0.108
-204.392	178.102	-0.106	-0.153
-203.377	139.406	0.210	-0.274
-202.363	-56.514	-0.143	-0.063
-201.348	116.428	-0.207	0.251
-200.333	-40.989	0.207	0.106
-199.319	800.000	0.127	-0.434
-198.304	-158.258	-0.053	0.003
-197.290	-200.000	0.020	0.094
-196.275	-187.025	0.277	0.004
-195.260	133.517	0.084	-0.108
-194.246	800.000	-0.086	0.272
-193.231	65.955	0.286	0.286
-192.217	26.447	-0.200	0.165
-191.202	86.818	0.210	0.229
-190.187	-117.559	0.223	-0.040
-189.173	-200.000	-0.007	0.053
-188.158	111.852	-0.140	0.166
-187.144	-108.060	0.242	0.052
-186.129	-88.846	-0.212	0.062
-185.114	-87.391	-0.190	-0.057
-184.100	-200.000	0.010	0.536
-183.085	794.241	-0.057	0.155
-182.071	10.105	0.430	-0.323
-181.056	-200.000	0.042	0.260
-180.042	-77.258	0.159	-0.055
-179.027	-80.483	0.264	0.087
-178.012	-200.000	-0.041	0.209
-176.998	67.870	0.297	-0.300
-175.983	-200.000	-0.043	0.291
-174.969	392.097	-0.105	-0.216
-173.954	276.522	0.119	-0.209
-172.939	800.000	-0.026	-0.099
-171.925	-200.000	-0.070	-0.308
-170.910	202.908	0.111	0.169
-169.896	-143.259	0.092	-0.009
-168.881	-30.384	-0.038	0.022
-167.866	-73.149	-0.046	0.017
-166.852	46.158	-0.186	0.170
-165.837	800.000	-0.055	0.167
-164.823	-200.000	-0.055	0.312
-163.808	61.414	0.143	0.140
-162.793	-37.518	0.273	0.144
-161.779	-137.612	-0.362	0.040
-160.764	-43.181	0.126	0.063
-159.750	614.269	-0.058	-0.144
-158.735	-200.000	0.026	0.117
-157.720	163.575	0.117	-0.162
-156.706	-131.265	0.228	-0.030
-155.691	800.000	0.070	0.198
-154.677	153.505	-0.140	-0.189
-153.662	-200.000	-0.018	0.193
-152.647	-103.732	-0.122	-0.028
-151.633	-107.929	-0.181	0.039
-150.618	26.089	0.380	-0.313
-149.604	21.859	-0.071	-0.057
-148.589	62.906	0.035	-0.035
-147.574	-27.079	0.294	0.169
-146.560	630.142	0.069	-0.172
-145.545	800.000	-0.036	0.127
-144.531	571.290	-0.147	0.353
-143.516	73.296	0.187	0.193
-142.502	-31.018	-0.183	0.102
-141.487	-200.000	-0.035	0.181
-140.472	-200.000	0.001	-0.391
-139.458	-171.366	-0.101	0.003
-138.443	-200.000	-0.020	-0.195
-137.429	477.121	-0.072	-0.161
-136.414	326.919	-0.209	0.395
-135.399	-200.000	0.013	-0.149
-134.385	-94.735	0.059	0.016
-133.370	-200.000	0.050	0.301
-132.356	520.748	-0.039	-0.091
-131.341	-41.604	-0.258	-0.131
-130.326	800.000	-0.019	0.055
-129.312	-65.178	-0.299	0.119
-128.297	-92.477	-0.225	0.062
-127.283	50.770	0.073	0.068
-126.268	-97.838	0.112	0.029
-125.253	101.800	0.115	-0.132
-124.239	-200.000	0.020	-0.097
-123.224	138.783	-0.263	0.341
-122.210	355.607	0.137	-0.270
-121.195	126.316	0.085	-0.106
-120.180	-45.628	-0.082	0.040
-119.166	-89.003	0.209	-0.061
-118.151	-200.000	-0.054	-0.425
-117.137	240.819	0.116	0.191
-116.122	-43.715	0.238	0.118
-115.107	-34.826	0.264	-0.142
-114.093	-200.000	0.011	0.177
-113.078	800.000	0.053	0.156
-112.064	689.550	-0.126	0.326
-111.049	241.003	-0.074	0.121
-110.034	-200.000	-0.035	0.299
-109.020	800.000	0.102	0.304
-108.005	159.075	0.268	0.367
-106.991	220.496	-0.111	0.175
-105.976	72.505	-0.189	-0.194
-104.962	93.863	-0.054	0.061
-103.947	-71.557	-0.113	-0.042
-102.932	-200.000	0.030	0.367
-101.918	-146.720	-0.225	0.019
-100.903	48.273	0.181	-0.167
-99.889	146.798	0.172	-0.228
-98.874	-94.048	-0.177	-0.048
-97.859	-58.894	-0.088	0.037
-96.845	-200.000	-0.024	-0.149
-95.830	-110.265	0.292	0.060
-94.816	-153.604	0.270	-0.018
-93.801	-200.000	0.000	-0.209
-92.786	-106.199	-0.123	-0.027
-91.772	60.868	0.235	0.230
-90.757	42.010	0.283	-0.253
-89.743	-126.571	0.470	0.069
-88.728	-27.458	0.149	0.085
-87.713	499.052	0.073	0.165
-86.699	-165.150	-0.111	-0.005
-85.684	-137.116	0.281	-0.032
-84.670	-200.000	0.060	-0.318
-83.655	88.885	-0.180	-0.197
-82.640	13.204	-0.017	0.013
-81.626	800.000	-0.069	0.233
-80.611	424.613	-0.040	0.086
-79.597	-200.000	0.019	-0.168
-78.582	-11.708	0.226	0.146
-77.567	-53.504	0.344	0.155
-76.553	-200.000	0.070	-0.398
-75.538	-130.179	0.220	-0.029
-74.524	-160.901	-0.187	0.010
-73.509	-94.102	-0.253	-0.068
-72.494	765.590	0.127	-0.340
-71.480	-200.000	-0.033	-0.282
-70.465	-63.757	0.188	0.076
-69.451	800.000	0.106	0.323
-68.436	481.053	0.144	0.322
-67.422	-59.896	0.371	-0.156
-66.407	-200.000	0.032	0.185
-65.392	12.297	0.137	-0.104
-64.378	800.000	-0.082	-0.257
-63.363	-200.000	-0.026	-0.153
-62.349	130.539	-0.123	0.155
-61.334	71.543	-1.168	-1.192
-60.319	33.117	0.764	0.651
-59.305	763.575	-0.363	-0.970
-58.290	800.000	0.443	1.511
-57.276	800.000	0.493	1.566
-56.261	-200.000	108.005	590.308
-55.246	447.904	1475.520	3193.451
-54.232	147.283	2657.670	3516.375
-53.217	105.319	2180.708	2531.284
-52.203	39.969	1711.055	1510.598
-51.188	32.818	1524.861	1297.213
-50.173	30.467	1498.047	1258.450
-49.159	51.248	1552.774	1448.343
-48.144	51.553	1569.599	1466.080
-47.130	32.936	1526.983	1299.624
-46.115	29.976	1512.310	1266.871
-45.100	29.826	1508.760	1262.823
-44.086	29.869	1506.287	1260.998
-43.071	29.751	1504.166	1258.372
-42.057	29.592	1502.749	1256.051
-41.042	29.715	1500.987	1255.366
-40.027	29.680	1499.915	1254.182
-39.013	29.648	1497.998	1252.311
-37.998	29.630	1496.922	1251.242
-36.984	29.737	1495.687	1250.881
-35.969	29.755	1493.977	1249.524
-34.954	29.712	1493.064	1248.420
-33.940	29.728	1491.653	1247.302
-32.925	29.743	1490.166	1246.107
-31.911	29.795	1488.575	1245.078
-30.896	29.710	1487.779	1243.791
-29.881	29.897	1486.417	1243.863
-28.867	29.849	1484.828	1242.161
-27.852	29.779	1483.923	1240.885
-26.838	29.757	1482.470	1239.474
-25.823	29.810	1480.933	1238.494
-24.809	29.742	1479.577	1236.856
-23.794	29.780	1477.830	1235.600
-22.779	29.891	1476.315	1235.023
-21.765	29.693	1475.941	1233.342
-20.750	29.872	1474.329	1233.139
-19.736	29.817	1473.611	1232.120
-18.721	29.821	1472.032	1230.776
-17.706	29.854	1470.714	1229.851
-16.692	29.820	1470.074	1229.036
-15.677	29.755	1468.895	1227.573
-14.663	29.805	1467.440	1226.640
-13.648	29.763	1467.066	1226.001
-12.633	29.782	1466.206	1225.355
-11.619	29.778	1465.191	1224.433
-10.604	29.682	1464.294	1223.003
-9.590	29.661	1463.628	1222.260
-8.575	29.695	1462.734	1221.689
-7.560	29.705	1461.753	1220.887
-6.546	29.625	1460.856	1219.561
-5.531	29.649	1460.073	1219.018
-4.517	29.754	1459.013	1218.772
-3.502	29.773	1457.765	1217.809
-2.487	29.680	1456.982	1216.495
-1.473	29.682	1455.955	1215.599
-0.458	29.722	1454.704	1214.772
0.556	28.002	1444.935	1203.368
1.571	24.926	1418.900	1161.662
2.586	21.509	1357.109	1089.729
3.600	19.687	1274.047	1012.283
4.615	18.682	1228.940	970.672
5.629	16.239	1172.709	912.978
6.644	8.203	1087.770	806.304
7.659	1.476	1047.249	743.381
8.673	0.359	1041.480	733.785
9.688	0.110	1038.760	730.597
10.702	0.073	1037.161	729.225
11.717	0.039	1035.074	727.528
12.731	2.716	1037.612	742.218
13.746	10.906	1048.584	789.921
14.761	17.066	1055.806	825.336
15.775	17.601	1055.547	827.659
16.790	16.594	1053.317	820.954
17.804	15.466	1051.547	814.035
18.819	14.660	1049.236	808.271
19.834	14.337	1047.863	805.580
20.848	13.958	1047.286	803.236
21.863	13.763	1046.025	801.255
22.877	13.299	1045.941	798.876
23.892	13.301	1044.563	797.765
24.907	13.135	1044.095	796.538
25.921	13.037	1043.350	795.422
26.936	13.167	1042.921	795.655
27.950	13.172	1041.694	794.669
28.965	13.209	1041.343	794.512
29.980	13.232	1040.328	793.776
30.994	13.400	1039.371	793.784
32.009	13.350	1038.605	792.886
33.023	13.464	1038.104	792.979
34.038	13.458	1037.273	792.246
35.053	13.443	1036.039	791.164
36.067	13.398	1034.952	790.050
37.082	13.319	1034.440	789.209
38.096	13.293	1033.664	788.427
39.111	13.323	1033.213	788.155
40.126	13.288	1032.323	787.239
41.140	13.272	1030.897	786.003
42.155	13.260	1030.122	785.286
43.169	13.159	1029.178	784.021
44.184	13.071	1028.193	782.784
45.199	13.066	1027.302	782.011
46.213	13.163	1025.903	781.334
47.228	13.317	1025.252	781.497
48.242	13.208	1024.278	780.172
49.257	13.262	1023.060	779.430
50.271	13.373	1021.988	779.067
51.286	13.318	1021.163	778.110
52.301	13.259	1020.617	777.348
53.315	13.325	1019.801	776.967
54.330	13.256	1018.965	775.938
55.344	13.236	1018.135	775.145
56.359	13.232	1016.925	774.136
57.374	13.225	1016.208	773.487
58.388	13.214	1015.411	772.763
59.403	13.263	1014.404	772.156
60.417	13.196	1013.825	771.335
61.432	13.210	1012.995	770.701
62.447	13.169	1012.384	769.978
63.461	13.259	1011.271	769.479
64.476	13.144	1010.757	768.484
65.490	13.075	1009.892	767.440
66.505	13.058	1008.907	766.543
67.520	13.074	1008.528	766.262
68.534	13.164	1007.726	766.000
69.549	13.161	1006.972	765.349
70.563	13.157	1006.214	764.687
71.578	13.205	1005.464	764.272
72.593	12.980	1004.705	762.585
73.607	13.058	1003.558	762.010
74.622	13.006	1002.818	761.140
75.636	13.044	1001.120	759.956
76.651	13.040	1000.697	759.551
77.666	13.197	999.801	759.526
78.680	13.023	999.678	758.565
79.695	13.100	999.108	758.419
80.709	13.101	998.473	757.873
81.724	13.093	997.848	757.298
82.739	13.203	996.380	756.621
83.753	12.985	996.522	755.662
84.768	13.145	995.455	755.517
85.782	13.356	994.761	755.887
86.797	13.419	993.826	755.397
87.812	13.415	993.022	754.701
88.826	13.310	992.114	753.465
89.841	13.328	991.560	753.063
90.855	13.432	990.737	752.842
91.870	13.370	989.914	751.869
92.884	13.489	989.176	751.783
93.899	13.444	988.532	751.024
94.914	13.521	987.406	750.449
95.928	13.398	987.057	749.562
96.943	13.466	986.149	749.111
97.957	13.440	985.355	748.326
98.972	13.392	984.933	747.724
99.987	13.313	984.260	746.789
101.001	13.315	983.625	746.250
102.016	13.337	982.865	745.704
103.030	13.425	981.633	745.101
104.045	13.436	980.910	744.537
105.060	13.507	979.577	743.775
106.074	13.335	978.866	742.399
107.089	13.337	978.087	741.751
108.103	13.264	977.117	740.623
109.118	13.219	976.215	739.676
110.133	13.333	975.545	739.609
111.147	13.347	974.463	738.787
112.162	13.227	973.624	737.551
113.176	13.327	972.549	737.116
114.191	13.204	972.252	736.280
115.206	13.388	971.318	736.322
116.220	13.301	970.721	735.419
117.235	13.307	969.504	734.458
118.249	13.283	968.986	733.896
119.264	13.257	968.201	733.122
120.279	13.223	967.043	732.030
121.293	13.234	966.376	731.507
122.308	13.145	965.968	730.739
123.322	13.196	964.692	729.937
124.337	13.226	963.697	729.249
125.352	13.203	962.455	728.146
126.366	13.231	961.857	727.751
127.381	13.190	961.074	726.914
128.395	13.080	960.209	725.711
129.410	13.165	958.693	724.874
130.424	13.258	957.475	724.299
131.439	13.311	956.901	724.031
132.454	13.301	956.237	723.422
133.468	13.228	955.670	722.607
134.483	13.233	954.686	721.824
135.497	13.254	954.309	721.568
136.512	13.294	952.980	720.672
137.527	13.382	952.299	720.477
138.541	13.382	951.944	720.142
139.556	13.318	950.974	719.067
140.570	13.392	950.239	718.771
141.585	13.348	949.366	717.853
142.600	13.492	948.788	717.980
143.614	13.374	947.999	716.807
144.629	13.421	947.322	716.433
145.643	13.410	946.549	715.738
146.658	13.467	945.792	715.351
147.673	13.412	944.725	714.242
148.687	13.361	943.995	713.409
149.702	13.393	943.013	712.741
150.716	13.467	941.967	712.207
151.731	13.363	941.277	711.175
152.746	13.315	940.844	710.575
153.760	13.344	940.033	710.026
154.775	13.403	938.819	709.297
155.789	13.447	938.427	709.130
156.804	13.453	937.410	708.325
157.819	13.458	936.721	707.761
158.833	13.357	936.287	706.939
159.848	13.496	935.621	706.965
160.862	13.475	935.197	706.493
161.877	13.610	933.809	705.960
162.892	13.587	933.143	705.294
163.906	13.408	932.270	703.813
164.921	13.483	931.570	703.539
165.935	13.503	930.391	702.672
166.950	13.420	929.627	701.681
167.964	13.403	928.824	700.942
168.979	13.437	928.243	700.582
169.994	13.565	926.838	700.003
171.008	13.517	926.183	699.243
172.023	13.486	925.403	698.462
173.037	13.694	923.922	698.159
174.052	13.616	923.708	697.604
175.067	13.566	923.297	697.023
176.081	13.570	922.038	696.026
177.096	13.590	921.307	695.497
178.110	13.484	920.298	694.230
179.125	13.469	919.956	693.850
180.140	13.610	919.284	693.873
181.154	13.529	918.934	693.205
182.169	13.546	918.069	692.562
183.183	13.833	916.859	692.789
184.198	13.815	916.628	692.478
185.213	13.623	915.812	690.999
186.227	13.787	915.492	691.382
187.242	13.732	915.260	690.915
188.256	13.804	913.865	690.098
189.271	13.887	913.321	689.971
190.286	13.924	912.262	689.263
191.300	13.737	911.622	687.944
192.315	13.548	911.456	686.976
193.329	13.533	910.668	686.256
194.344	13.651	909.684	685.943
195.359	13.681	909.525	685.889
196.373	13.854	908.473	685.748
197.388	13.839	908.027	685.288
198.402	13.923	907.608	685.259
199.417	13.881	907.749	685.131
200.432	13.936	906.717	684.520
201.446	14.006	906.273	684.412
202.461	14.031	905.940	684.202
203.475	14.159	905.145	684.067
204.490	14.055	904.802	683.320
205.504	14.007	903.648	682.192
206.519	14.051	902.602	681.520
207.534	13.918	902.455	680.806
208.548	14.071	901.397	680.572
209.563	14.000	900.720	679.709
210.577	14.060	900.069	679.403
211.592	13.960	899.250	678.316
212.607	14.084	899.198	678.726
213.621	14.168	898.519	678.494
214.636	14.332	897.311	678.191
215.650	14.132	896.832	676.957
216.665	14.299	896.224	677.116
217.680	14.218	895.927	676.503
218.694	14.250	895.546	676.283
219.709	14.324	895.038	676.140
220.723	14.266	894.511	675.447
221.738	14.289	893.677	674.851
222.753	14.252	893.172	674.262
223.767	14.324	892.187	673.748
224.782	14.254	891.620	672.977
225.796	14.407	890.404	672.618
226.811	14.396	889.918	672.146
227.826	14.383	889.340	671.597
228.840	14.293	889.030	670.942
229.855	14.333	888.033	670.293
230.869	14.359	887.571	669.990
231.884	14.281	886.739	668.986
232.899	14.344	886.153	668.741
233.913	14.391	885.543	668.409
234.928	14.329	884.550	667.353
235.942	14.349	883.584	666.644
236.957	14.277	883.695	666.380
237.972	14.362	882.931	666.084
238.986	14.262	882.088	664.990
240.001	14.315	881.610	664.784
241.015	14.364	880.763	664.280
242.030	14.439	880.138	664.051
243.045	14.425	879.437	663.406
244.059	14.483	878.802	663.099
245.074	14.464	878.413	662.672
246.088	14.368	877.971	661.897
247.103	14.520	877.209	661.869
248.117	14.559	876.202	661.206
249.132	14.576	876.036	661.086
250.147	14.606	875.703	660.898
251.161	14.797	874.540	660.717
252.176	14.697	874.264	660.052
253.190	14.853	873.370	659.936
254.205	14.756	873.421	659.534
255.220	14.735	872.726	658.867
256.234	14.876	872.024	658.837
257.249	14.989	871.372	658.728
258.263	14.896	870.589	657.711
259.278	14.848	870.224	657.191
260.293	14.876	869.984	657.061
261.307	14.901	869.072	656.413
262.322	14.994	868.324	656.156
263.336	15.108	867.556	655.964
264.351	15.051	867.081	655.323
265.366	15.102	866.327	654.893
266.380	15.146	865.701	654.533
267.395	15.152	864.888	653.885
268.409	14.984	864.622	652.970
269.424	15.022	864.001	652.590
270.439	15.035	863.378	652.113
271.453	15.034	862.189	651.153
272.468	15.056	861.667	650.787
273.482	14.997	861.205	650.153
274.497	15.071	860.650	649.963
275.512	15.136	859.787	649.506
276.526	15.235	858.783	649.072
277.541	15.155	858.461	648.465
278.555	15.062	858.144	647.805
279.570	15.132	857.787	647.750
280.585	15.215	856.939	647.373
281.599	15.249	856.407	647.046
282.614	15.402	855.282	646.727
283.628	15.218	854.781	645.583
284.643	15.264	854.264	645.311
285.657	15.276	854.077	645.159
286.672	15.162	853.539	644.259
287.687	15.385	852.538	644.303
288.701	15.355	852.250	643.914
289.716	15.142	852.016	642.860
290.730	15.408	851.568	643.488
291.745	15.423	850.552	642.721
292.760	15.373	849.760	641.875
293.774	15.391	849.273	641.518
294.789	15.402	848.681	641.056
295.803	15.439	848.322	640.868
296.818	15.406	847.821	640.306
297.833	15.394	846.929	639.530
298.847	15.524	846.427	639.590
299.862	15.560	845.614	639.057
300.876	15.580	844.969	638.589
301.891	15.592	844.367	638.122
302.906	15.496	843.547	637.084
303.920	15.625	842.646	636.835
304.935	15.723	842.357	636.929
305.949	15.581	841.751	635.877
306.964	15.665	841.274	635.779
307.979	15.582	840.633	634.925
308.993	15.630	840.197	634.722
310.008	15.545	839.946	634.154
311.022	15.667	839.406	634.150
312.037	15.649	838.838	633.599
313.052	15.818	838.158	633.667
314.066	15.663	837.370	632.431
315.081	15.802	836.512	632.249
316.095	15.708	836.332	631.703
317.110	15.675	835.944	631.229
318.125	15.595	835.365	630.438
319.139	15.729	834.543	630.264
320.154	15.697	834.175	629.808
321.168	15.763	833.648	629.603
322.183	15.765	833.348	629.328
323.197	15.789	832.655	628.837
324.212	15.685	832.176	628.033
325.227	15.772	831.929	628.115
326.241	15.796	831.084	627.512
327.256	15.749	830.694	626.987
328.270	15.750	829.913	626.346
329.285	15.834	829.043	625.945
330.300	15.808	828.676	625.518
331.314	15.806	828.322	625.185
332.329	15.893	827.449	624.794
333.343	15.900	827.009	624.433
334.358	15.946	826.514	624.174
335.373	15.846	826.062	623.410
336.387	15.924	825.528	623.240
337.402	16.105	825.049	623.491
338.416	16.025	824.183	622.486
339.431	16.067	823.925	622.393
340.446	16.098	823.424	622.072
341.460	16.002	823.055	621.385
342.475	16.198	822.016	621.266
343.489	16.152	821.682	620.790
344.504	16.298	821.308	620.989
345.519	16.265	820.424	620.147
346.533	16.139	820.036	619.334
347.548	16.230	819.520	619.224
348.562	16.310	818.823	618.937
349.577	16.238	818.571	618.426
350.592	16.318	817.841	618.112
351.606	16.100	817.491	616.998
352.621	16.290	816.875	617.170
353.635	16.263	816.587	616.802
354.650	16.180	816.332	616.251
355.665	16.135	816.194	615.928
356.679	16.180	815.286	615.353
357.694	16.259	814.866	615.268
358.708	16.503	813.807	615.301
359.723	16.311	813.839	614.573
360.738	16.352	813.068	614.085
361.752	16.269	812.857	613.572
362.767	16.287	812.392	613.231
363.781	16.446	812.093	613.528
364.796	16.543	811.325	613.247
365.810	16.494	810.986	612.756
366.825	16.645	810.657	613.000
367.840	16.578	810.503	612.590
368.854	16.670	809.456	612.076
369.869	16.762	808.656	611.748
370.883	16.510	808.663	610.791
371.898	16.603	808.048	610.605
372.913	16.734	807.553	610.651
373.927	16.511	807.077	609.434
374.942	16.507	806.297	608.776
375.956	16.696	805.201	608.574
376.971	16.708	805.125	608.506
377.986	16.728	804.357	607.943
379.000	16.796	804.021	607.881
380.015	16.958	803.848	608.277
381.029	16.903	803.249	607.572
382.044	16.923	802.640	607.128
383.059	16.838	802.069	606.339
384.073	16.909	801.395	606.031
385.088	16.872	801.050	605.584
386.102	16.805	800.612	604.958
387.117	16.721	800.131	604.242
388.132	16.949	799.422	604.465
389.146	16.882	798.915	603.792
390.161	16.855	798.853	603.593
391.175	16.809	798.663	603.235
392.190	16.878	798.410	603.233
393.205	16.925	797.365	602.557
394.219	16.896	797.066	602.178
395.234	16.934	796.459	601.798
396.248	16.815	796.347	601.239
397.263	16.973	795.428	601.053
398.278	16.988	795.006	600.734
399.292	16.924	794.199	599.846
400.307	16.916	794.250	599.802
401.321	16.978	793.757	599.593
402.336	16.876	793.634	599.089
403.350	17.065	792.872	599.128
404.365	16.957	792.655	598.528
405.380	17.030	792.079	598.299
406.394	16.982	791.847	597.901
407.409	17.173	791.502	598.261
408.423	17.085	790.919	597.457
409.438	17.298	790.154	597.576
410.453	17.316	789.914	597.403
411.467	17.281	789.098	596.611
412.482	17.259	789.078	596.466
413.496	17.362	788.542	596.369
414.511	17.437	788.053	596.211
415.526	17.485	787.684	596.046
416.540	17.294	787.876	595.468
417.555	17.342	787.318	595.163
418.569	17.257	786.797	594.419
419.584	17.392	786.073	594.291
420.599	17.350	785.506	593.661
421.613	108.782	1291.027	1468.521
422.628	93.184	1364.693	1468.644
