DTS Sentinel unit serial number:	SN413079Multiplexer serial number:	ORYXHardware model number:	OX4-SRSoftware version number:	ORYX F/W v4.00 Oryx Data Collector v3.7.2.0data status	okinstallation	princeton_trtdifferential loss correction	single-endedforward channel	channel 3reverse channel	N/Adate	2019/09/12time	19:35:04forward acquisition time	15.00reverse acquisition time	0.00gamma	496.2192k internal	0.2322k external	0.2322temperature offset calibration	1.0113default loss term (dB/km)	0.3790temperature slope calibration	1.0000multiplexer offset coefficient	1.0000multiplexer slope coefficient	1.0000fibre end	0.00T internal ref (°C)	32.19T ext. ref 1 (°C)	3.37T ext. ref 2 (°C)	26.67length (m)	temperature (°C)	Stokes	anti-Stokes-747.200	-200.000	-0.001	1.507
-746.185	-147.376	-0.270	-0.023
-745.171	600.567	0.079	-0.199
-744.156	-52.276	-0.179	-0.084
-743.142	-200.000	-0.058	1.049
-742.127	-20.114	-0.673	0.419
-741.112	-158.529	0.598	0.035
-740.098	12.746	-0.200	-0.156
-739.083	-110.635	-0.576	0.120
-738.069	-1.749	-0.520	-0.370
-737.054	-200.000	0.036	0.663
-736.039	12.781	-0.113	0.088
-735.025	-122.225	-0.553	-0.091
-734.010	-42.911	-0.770	-0.395
-732.996	-136.674	-0.119	-0.014
-731.981	644.284	-0.315	-0.812
-730.966	-183.787	0.315	0.005
-729.952	82.448	-0.486	-0.532
-728.937	12.222	0.759	-0.590
-727.923	-200.000	-0.037	0.649
-726.908	-36.985	-0.315	0.170
-725.894	-155.458	0.182	0.012
-724.879	800.000	-0.111	0.340
-723.864	152.360	0.313	-0.431
-722.850	229.424	0.185	-0.305
-721.835	-69.815	-0.300	0.116
-720.821	-200.000	-0.203	-1.261
-719.806	407.172	-0.285	0.609
-718.791	-3.103	-0.387	-0.272
-717.777	209.173	0.408	0.645
-716.762	24.282	-0.799	0.666
-715.748	18.302	-0.684	0.551
-714.733	717.669	0.120	0.323
-713.718	-160.327	0.527	0.029
-712.704	400.477	0.361	0.764
-711.689	361.940	-0.447	-0.904
-710.675	-128.923	0.793	0.112
-709.660	23.685	0.705	-0.586
-708.645	-164.270	0.516	0.024
-707.631	-140.021	0.185	0.020
-706.616	252.625	0.351	0.605
-705.602	13.670	-0.398	0.312
-704.587	20.655	0.535	0.437
-703.572	-98.848	-0.128	-0.033
-702.558	495.149	-0.253	0.586
-701.543	72.095	-0.262	0.275
-700.529	-200.000	-0.033	-0.251
-699.514	237.314	0.370	-0.619
-698.499	-200.000	0.014	-0.270
-697.485	-70.096	0.687	-0.263
-696.470	-200.000	-0.025	0.321
-695.456	-200.000	0.087	-0.389
-694.441	14.289	-0.483	-0.380
-693.426	800.000	0.097	0.392
-692.412	286.818	-0.154	-0.281
-691.397	-176.803	0.784	-0.020
-690.383	285.454	0.224	-0.407
-689.368	-138.326	-0.571	-0.064
-688.354	800.000	-0.086	0.351
-687.339	-45.311	-0.944	-0.472
-686.324	297.657	-0.424	-0.785
-685.310	-70.990	-0.612	-0.232
-684.295	-139.306	-0.104	-0.011
-683.281	-104.694	-0.493	0.114
-682.266	800.000	0.077	0.307
-681.251	800.000	-0.180	-0.509
-680.237	-87.652	-0.669	-0.204
-679.222	-200.000	0.086	0.520
-678.208	19.198	0.631	0.510
-677.193	-27.627	0.464	0.272
-676.178	184.459	0.331	-0.494
-675.164	16.432	-0.233	0.185
-674.149	-200.000	-0.126	0.745
-673.135	90.710	-0.455	-0.513
-672.120	800.000	0.251	-0.707
-671.105	-47.627	-0.723	0.354
-670.091	-200.000	-0.125	0.924
-669.076	800.000	0.212	-0.689
-668.062	800.000	0.224	0.705
-667.047	-147.522	0.560	0.048
-666.032	292.569	-0.255	-0.468
-665.018	48.337	0.104	-0.098
-664.003	800.000	0.233	0.663
-662.989	176.523	-0.259	-0.380
-661.974	-98.507	0.306	0.079
-660.959	551.216	0.325	0.785
-659.945	-161.278	-0.582	0.030
-658.930	100.200	-0.322	-0.376
-657.916	565.407	0.116	0.282
-656.901	35.678	-0.187	-0.166
-655.886	-200.000	-0.056	-0.374
-654.872	590.980	-0.211	-0.523
-653.857	800.000	-0.312	-0.944
-652.843	414.520	0.276	-0.591
-651.828	800.000	-0.112	0.319
-650.814	-4.174	0.088	0.061
-649.799	432.625	-0.242	-0.527
-648.784	114.748	0.108	-0.133
-647.770	-200.000	0.028	0.852
-646.755	44.635	-0.429	-0.397
-645.741	-16.071	-0.495	0.317
-644.726	121.083	-0.264	0.331
-643.711	395.687	-0.085	-0.178
-642.697	800.000	-0.229	-0.839
-641.682	-200.000	0.119	-0.885
-640.668	275.924	-0.536	-0.957
-639.653	113.875	-0.514	-0.628
-638.638	2.852	-0.083	-0.061
-637.624	-189.881	-0.576	-0.007
-636.609	800.000	-0.159	0.491
-635.595	800.000	-0.227	0.696
-634.580	-200.000	-0.027	-0.321
-633.565	-92.371	0.332	-0.094
-632.551	-164.663	1.055	0.048
-631.536	627.241	-0.462	-1.173
-630.522	-200.000	0.047	-0.556
-629.507	-36.601	0.599	-0.324
-628.492	-200.000	0.082	-0.473
-627.478	-189.787	-0.715	0.008
-626.463	108.269	0.373	0.448
-625.449	-93.876	-0.394	0.109
-624.434	26.151	0.424	-0.356
-623.419	-24.367	-0.672	-0.403
-622.405	-20.079	-0.316	-0.196
-621.390	425.866	-0.157	-0.340
-620.376	800.000	0.103	0.418
-619.361	-154.596	-0.426	-0.029
-618.346	-200.000	-0.030	0.263
-617.332	79.834	0.116	0.125
-616.317	13.265	0.558	0.435
-615.303	-129.894	0.534	-0.074
-614.288	-165.466	0.605	-0.027
-613.273	-162.975	0.494	-0.024
-612.259	105.595	-0.476	-0.566
-611.244	800.000	-0.042	0.157
-610.230	102.779	0.630	0.741
-609.215	441.009	-0.137	0.301
-608.201	32.643	-0.272	0.236
-607.186	-180.755	0.718	-0.015
-606.171	9.524	-0.568	0.432
-605.157	800.000	0.019	0.067
-604.142	800.000	-0.054	-0.209
-603.128	-65.962	0.609	0.244
-602.113	-83.697	1.008	0.323
-601.098	765.271	-0.051	0.138
-600.084	745.143	0.355	-0.961
-599.069	176.667	0.390	-0.569
-598.055	-27.230	0.440	0.258
-597.040	-54.690	-0.629	0.286
-596.025	200.309	-0.228	-0.351
-595.011	-64.198	-0.940	-0.385
-593.996	-161.963	0.525	-0.027
-592.982	-144.117	-0.721	0.068
-591.967	-178.060	0.058	0.001
-590.952	-200.000	0.027	0.436
-589.938	497.221	0.098	-0.227
-588.923	-141.621	0.327	0.033
-587.909	200.509	-0.330	0.509
-586.894	-2.123	0.191	-0.135
-585.879	-187.897	0.294	0.004
-584.865	452.625	0.135	0.300
-583.850	800.000	0.235	-0.744
-582.836	-134.264	-0.229	-0.028
-581.821	-200.000	0.069	0.708
-580.806	492.544	-0.272	-0.626
-579.792	-97.978	-0.572	-0.148
-578.777	800.000	-0.177	0.642
-577.763	-80.117	-0.252	0.085
-576.748	-200.000	0.072	0.377
-575.733	18.766	0.369	0.297
-574.719	-89.538	-0.874	-0.258
-573.704	4.382	-0.796	-0.585
-572.690	1.753	-0.102	0.073
-571.675	-15.893	0.058	-0.037
-570.661	23.115	0.803	-0.662
-569.646	62.317	-0.168	-0.169
-568.631	-200.000	0.021	0.220
-567.617	2.895	-0.739	-0.538
-566.602	-30.751	-0.296	-0.168
-565.588	-200.000	0.027	0.362
-564.573	-200.000	0.028	0.196
-563.558	-6.015	0.674	-0.463
-562.544	194.913	-0.180	0.274
-561.529	27.780	-0.690	0.583
-560.515	-122.700	-0.261	-0.042
-559.500	74.246	-0.304	-0.320
-558.485	27.552	0.590	0.498
-557.471	79.228	-0.342	0.367
-556.456	-200.000	0.144	0.841
-555.442	403.654	0.468	-0.987
-554.427	-70.344	-0.550	0.209
-553.412	-114.065	0.540	0.105
-552.398	-10.345	-0.704	0.468
-551.383	-50.063	0.970	-0.461
-550.369	-66.396	-0.751	0.299
-549.354	143.860	0.348	-0.465
-548.339	800.000	0.117	-0.404
-547.325	800.000	-0.198	-0.746
-546.310	800.000	0.232	-0.712
-545.296	4.031	0.625	0.458
-544.281	-200.000	0.069	-0.361
-543.266	184.264	0.364	0.540
-542.252	-55.438	-0.090	0.040
-541.237	-137.683	-0.205	0.023
-540.223	-100.548	0.132	-0.033
-539.208	134.328	-0.199	0.259
-538.193	-42.938	-0.903	-0.459
-537.179	-15.920	0.336	0.215
-536.164	-123.939	0.671	0.106
-535.150	-62.704	0.161	0.067
-534.135	-40.490	0.669	0.348
-533.121	377.805	-0.127	-0.261
-532.106	800.000	0.124	0.478
-531.091	-144.819	-0.424	-0.039
-530.077	14.786	0.629	0.493
-529.062	-127.937	-0.762	0.110
-528.048	-109.942	0.400	0.084
-527.033	302.547	-0.449	-0.832
-526.018	64.340	-0.498	-0.502
-525.004	678.984	-0.065	0.169
-523.989	108.279	-0.564	-0.674
-522.975	-89.349	0.622	0.184
-521.960	-44.526	-0.624	0.312
-520.945	-92.940	0.422	0.118
-519.931	32.475	0.199	-0.172
-518.916	496.159	-0.213	-0.491
-517.902	-63.345	-0.294	-0.121
-516.887	20.364	0.689	-0.558
-515.872	-200.000	0.011	0.054
-514.858	-82.129	-1.305	0.426
-513.843	-150.485	0.712	-0.055
-512.829	281.706	0.457	-0.820
-511.814	-68.553	-0.476	0.185
-510.799	-200.000	-0.119	1.055
-509.785	507.330	-0.100	0.232
-508.770	410.705	0.377	-0.801
-507.756	21.258	0.754	0.613
-506.741	800.000	0.295	1.038
-505.726	80.821	-0.283	0.305
-504.712	482.775	0.134	-0.304
-503.697	311.380	-0.205	-0.384
-502.683	-200.000	-0.029	-0.430
-501.668	800.000	-0.226	0.813
-500.653	15.071	0.326	-0.255
-499.639	-122.091	0.556	-0.091
-498.624	503.197	-0.103	0.238
-497.610	-65.175	-0.202	-0.082
-496.595	800.000	0.148	-0.536
-495.581	-138.032	1.047	-0.117
-494.566	-200.000	0.031	-0.379
-493.551	86.460	0.192	-0.212
-492.537	-122.505	-0.308	0.050
-491.522	-13.803	0.874	-0.565
-490.508	116.392	0.610	-0.748
-489.493	-88.764	-0.642	-0.191
-488.478	-200.000	-0.156	-0.738
-487.464	447.844	0.371	-0.817
-486.449	186.370	-0.477	-0.711
-485.435	79.262	-0.188	0.202
-484.420	800.000	-0.121	0.375
-483.405	-200.000	0.019	0.304
-482.391	168.778	-0.496	0.707
-481.376	55.639	-0.163	0.158
-480.362	-104.612	0.592	0.136
-479.347	-5.185	0.525	0.361
-478.332	-62.695	-0.376	-0.156
-477.318	-66.390	0.342	-0.136
-476.303	-42.402	-0.346	-0.176
-475.289	800.000	-0.035	-0.135
-474.274	100.624	-0.473	-0.549
-473.259	-139.270	-0.307	-0.033
-472.245	-200.000	0.022	-0.215
-471.230	47.027	0.563	0.524
-470.216	-38.089	-0.708	-0.376
-469.201	-192.438	-0.294	-0.003
-468.186	-53.824	0.325	0.148
-467.172	225.940	0.343	-0.556
-466.157	-91.307	-0.734	-0.210
-465.143	146.587	-0.503	0.676
-464.128	38.497	0.277	0.247
-463.113	-86.424	0.316	0.097
-462.099	-83.542	0.552	-0.176
-461.084	-128.389	0.710	-0.101
-460.070	-86.849	0.468	0.143
-459.055	-127.558	0.079	0.011
-458.040	241.727	-0.178	0.297
-457.026	800.000	-0.135	-0.457
-456.011	261.844	-0.468	0.811
-454.997	3.434	0.360	0.262
-453.982	543.202	0.417	-0.994
-452.968	-59.298	0.380	-0.163
-451.953	545.231	0.103	0.246
-450.938	-200.000	-0.092	0.496
-449.924	57.323	0.369	0.360
-448.909	53.128	-0.301	0.288
-447.895	-103.589	0.298	-0.070
-446.880	779.095	0.215	-0.586
-445.865	-35.600	-0.418	-0.227
-444.851	-200.000	0.031	0.273
-443.836	166.561	0.644	-0.911
-442.822	172.207	-0.415	-0.595
-441.807	-200.000	0.491	0.000
-440.792	800.000	0.215	0.799
-439.778	-200.000	0.066	0.446
-438.763	-200.000	0.075	0.634
-437.749	2.395	0.466	0.337
-436.734	-120.286	0.937	0.159
-435.719	-200.000	-0.011	-0.187
-434.705	-148.641	0.734	0.060
-433.690	800.000	-0.093	0.400
-432.676	-128.523	0.093	0.013
-431.661	-200.000	0.116	-0.533
-430.646	-71.862	0.302	0.112
-429.632	-27.475	-0.058	0.034
-428.617	800.000	-0.070	-0.282
-427.603	15.605	-0.350	-0.275
-426.588	800.000	-0.264	-0.756
-425.573	-7.597	0.669	-0.452
-424.559	800.000	0.047	0.182
-423.544	-107.528	-0.513	0.112
-422.530	-126.754	0.534	0.079
-421.515	-138.850	0.723	0.079
-420.500	-200.000	-0.557	0.002
-419.486	-151.698	0.363	-0.027
-418.471	42.168	0.366	0.331
-417.457	-118.367	-0.298	-0.053
-416.442	-105.390	-0.690	-0.157
-415.428	-79.445	0.217	0.073
-414.413	-124.861	-0.225	0.035
-413.398	95.501	0.417	-0.474
-412.384	-127.245	0.433	0.063
-411.369	800.000	-0.368	-1.277
-410.355	251.624	-0.030	-0.051
-409.340	-44.916	0.398	-0.198
-408.325	-40.604	-0.712	0.368
-407.311	-34.680	-0.509	0.278
-406.296	-200.000	-0.076	-0.628
-405.282	-200.000	-0.011	-0.054
-404.267	-65.386	-0.916	0.367
-403.252	74.918	-0.576	-0.605
-402.238	683.919	0.399	1.037
-401.223	-200.000	0.057	0.350
-400.209	428.206	0.100	-0.216
-399.194	144.094	-0.499	0.663
-398.179	-200.000	0.030	0.667
-397.165	800.000	0.241	0.909
-396.150	-59.984	0.934	-0.398
-395.136	-109.280	0.070	0.015
-394.121	-200.000	-0.050	-0.321
-393.106	-80.959	-0.290	-0.096
-392.092	800.000	-0.086	0.249
-391.077	746.070	-0.133	0.356
-390.063	168.826	-0.531	-0.754
-389.048	174.976	0.602	-0.869
-388.033	800.000	0.321	-0.897
-387.019	-88.034	-0.499	0.149
-386.004	762.094	-0.370	0.999
-384.990	800.000	0.132	0.432
-383.975	-67.390	0.910	0.356
-382.960	281.976	-0.206	-0.368
-381.946	-134.175	-0.734	0.090
-380.931	800.000	-0.501	-1.392
-379.917	-56.427	0.319	-0.141
-378.902	-185.584	0.641	-0.010
-377.888	-200.000	-0.043	0.301
-376.873	-200.000	-0.065	0.298
-375.858	-60.429	0.238	-0.101
-374.844	311.770	-0.284	-0.531
-373.829	-39.666	-1.258	0.655
-372.815	-116.796	0.542	-0.099
-371.800	51.538	0.086	-0.082
-370.785	31.068	0.576	0.492
-369.771	-200.000	0.094	0.760
-368.756	-146.966	0.828	-0.071
-367.742	-8.258	-0.839	-0.562
-366.727	49.231	0.154	-0.144
-365.712	-200.000	0.037	-0.408
-364.698	-200.000	-0.002	-0.015
-363.683	-88.790	0.153	0.045
-362.669	123.417	-0.398	-0.496
-361.654	4.450	0.464	-0.339
-360.639	258.524	-0.205	0.351
-359.625	276.852	-0.377	-0.668
-358.610	448.923	-0.119	0.260
-357.596	-54.131	0.526	-0.238
-356.581	428.728	0.158	-0.340
-355.566	539.680	0.171	0.404
-354.552	7.686	0.790	0.588
-353.537	50.499	0.164	-0.154
-352.523	-85.254	-0.424	0.132
-351.508	-200.000	-0.003	-0.784
-350.493	800.000	-0.122	0.461
-349.479	-200.000	0.047	-0.429
-348.464	-87.605	0.582	-0.175
-347.450	-80.557	-0.471	0.156
-346.435	-46.730	-0.118	0.058
-345.420	23.471	0.543	0.444
-344.406	287.831	0.208	0.374
-343.391	-113.843	-0.106	0.021
-342.377	-200.000	0.079	0.805
-341.362	800.000	0.278	0.935
-340.348	800.000	0.111	0.416
-339.333	18.678	-0.068	0.054
-338.318	-104.870	0.039	-0.009
-337.304	800.000	0.304	-0.865
-336.289	800.000	-0.210	-0.702
-335.275	155.943	0.107	-0.147
-334.260	-79.741	-0.427	0.143
-333.245	-58.218	-0.503	-0.218
-332.231	153.357	0.479	0.652
-331.216	-126.962	1.069	-0.156
-330.202	-13.112	0.915	0.591
-329.187	-119.186	0.763	-0.132
-328.172	-33.311	-0.530	-0.292
-327.158	-119.967	-0.826	-0.141
-326.143	-110.179	-0.242	-0.050
-325.129	-200.000	-0.109	0.498
-324.114	-186.058	-0.441	-0.006
-323.099	-200.000	0.029	0.661
-322.085	-136.428	-0.600	0.069
-321.070	-200.000	-0.002	-0.438
-320.056	-40.428	-0.622	-0.321
-319.041	-7.405	0.226	-0.152
-318.026	186.680	0.087	-0.129
-317.012	-44.725	0.281	0.140
-315.997	-39.730	0.534	0.278
-314.983	800.000	-0.021	0.062
-313.968	501.238	-0.284	-0.652
-312.953	-51.069	0.382	0.178
-311.939	152.678	-0.552	0.749
-310.924	133.923	0.380	0.489
-309.910	-131.493	0.179	0.023
-308.895	-64.744	-0.324	0.130
-307.880	-43.980	-0.054	-0.027
-306.866	576.239	0.186	-0.450
-305.851	623.466	-0.181	-0.452
-304.837	706.457	-0.262	0.687
-303.822	-167.540	-0.270	-0.011
-302.807	91.876	-0.112	-0.125
-301.793	-200.000	-0.019	0.392
-300.778	-200.000	0.018	0.190
-299.764	13.225	-0.846	0.651
-298.749	486.988	-0.061	0.138
-297.735	-48.951	0.387	-0.184
-296.720	800.000	0.026	-0.102
-295.705	190.178	-0.226	-0.337
-294.691	-91.561	0.243	0.069
-293.676	297.582	-0.599	1.092
-292.662	-85.148	0.262	0.081
-291.647	-108.160	-0.617	0.133
-290.632	19.645	0.623	-0.498
-289.618	84.635	-0.638	-0.693
-288.603	-29.198	0.350	-0.199
-287.589	-110.071	-0.792	0.164
-286.574	800.000	0.106	-0.354
-285.559	615.085	-0.029	0.072
-284.545	-59.192	-0.846	0.362
-283.530	71.537	0.137	0.141
-282.516	4.381	0.299	0.218
-281.501	-200.000	0.058	-0.288
-280.486	52.855	0.294	0.279
-279.472	-134.977	-0.285	-0.034
-278.457	-68.785	-1.070	-0.410
-277.443	-82.709	-0.303	-0.097
-276.428	-119.970	0.197	0.034
-275.413	-200.000	0.141	0.738
-274.399	-200.000	0.016	-0.083
-273.384	-187.330	0.787	0.011
-272.370	479.028	0.198	-0.445
-271.355	28.821	-0.283	0.238
-270.340	23.344	-0.207	0.169
-269.326	-157.822	0.537	-0.032
-268.311	9.724	0.261	-0.197
-267.297	-25.509	0.419	0.245
-266.282	196.192	0.141	-0.212
-265.267	-200.000	0.007	-0.238
-264.253	382.352	0.312	0.635
-263.238	800.000	0.153	-0.476
-262.224	-57.752	0.827	-0.359
-261.209	-77.334	0.636	0.219
-260.195	26.491	0.304	-0.252
-259.180	-200.000	0.056	0.641
-258.165	-150.670	0.444	0.034
-257.151	-97.918	0.297	0.076
-256.136	153.055	0.324	-0.440
-255.122	233.538	-0.088	0.144
-254.107	-86.343	-0.929	-0.283
-253.092	-86.999	0.494	-0.149
-252.078	-68.212	-0.790	-0.305
-251.063	-34.328	-0.743	0.404
-250.049	79.036	-0.116	-0.124
-249.034	-127.065	0.910	-0.132
-248.019	-122.262	0.580	0.094
-247.005	506.125	-0.166	0.381
-245.990	167.633	0.279	0.393
-244.976	-74.872	-0.288	0.102
-243.961	-153.050	-0.464	0.032
-242.946	239.262	0.336	0.554
-241.932	5.987	-0.264	-0.194
-240.917	-50.763	0.662	0.309
-239.903	281.570	-0.278	0.493
-238.888	800.000	0.075	-0.254
-237.873	11.270	-0.506	0.384
-236.859	107.389	-0.370	-0.436
-235.844	357.963	0.465	-0.919
-234.830	629.879	-0.067	-0.168
-233.815	800.000	-0.046	-0.167
-232.800	-27.945	-0.282	0.161
-231.786	204.636	-0.569	0.875
-230.771	800.000	0.242	0.915
-229.757	-60.388	0.204	0.086
-228.742	28.087	0.485	0.405
-227.727	18.168	-0.193	-0.153
-226.713	-114.322	0.151	0.029
-225.698	-2.053	-0.996	-0.693
-224.684	-114.589	-0.408	0.077
-223.669	-200.000	-0.076	0.913
-222.655	33.234	-0.224	0.193
-221.640	-104.842	-0.710	0.162
-220.625	48.317	0.392	0.363
-219.611	-144.230	-0.487	-0.045
-218.596	-117.603	-0.605	0.108
-217.582	-146.227	-0.701	0.061
-216.567	63.604	0.394	0.392
-215.552	50.146	-0.294	0.275
-214.538	-99.230	-0.419	-0.105
-213.523	42.332	-0.377	0.340
-212.509	627.869	0.107	-0.269
-211.494	-25.625	-0.567	-0.331
-210.479	-9.309	-0.401	0.265
-209.465	-97.292	-0.458	-0.118
-208.450	244.519	0.341	-0.567
-207.436	-118.467	-0.654	-0.115
-206.421	-200.000	-0.006	0.593
-205.406	61.553	0.145	-0.143
-204.392	-132.854	-0.250	0.032
-203.377	-200.000	0.047	0.301
-202.363	538.262	-0.251	0.590
-201.348	-23.792	0.136	0.080
-200.333	131.796	0.524	0.667
-199.319	800.000	-0.051	-0.215
-198.304	-200.000	0.277	1.291
-197.290	-58.908	1.256	-0.537
-196.275	461.925	0.407	0.898
-195.260	54.853	-0.291	0.278
-194.246	-200.000	-0.197	-0.907
-193.231	-74.023	0.470	-0.169
-192.217	-200.000	0.076	0.565
-191.202	70.623	0.378	-0.387
-190.187	-86.793	0.233	-0.070
-189.173	195.079	0.342	0.513
-188.158	-200.000	0.121	0.829
-187.144	234.061	0.424	-0.691
-186.129	46.620	-0.347	-0.318
-185.114	-200.000	-0.109	-0.519
-184.100	172.915	-0.708	1.008
-183.085	800.000	-0.111	-0.377
-182.071	-105.330	-1.030	-0.232
-181.056	147.317	-0.414	0.551
-180.042	-193.528	-0.989	0.008
-179.027	190.959	-0.187	0.277
-178.012	237.028	-0.547	-0.895
-176.998	-10.748	0.899	-0.587
-175.983	53.576	0.860	-0.816
-174.969	-48.659	0.546	0.259
-173.954	-136.588	-0.633	0.072
-172.939	-111.442	0.434	-0.087
-171.925	116.704	-0.530	-0.643
-170.910	-138.327	-0.388	0.042
-169.896	-24.201	0.211	-0.125
-168.881	94.773	0.575	-0.646
-167.866	53.008	0.773	-0.731
-166.852	-200.000	0.000	0.363
-165.837	33.789	-0.317	-0.273
-164.823	-200.000	-0.012	-0.273
-163.808	-80.706	-0.576	-0.189
-162.793	149.973	0.241	-0.323
-161.779	596.263	-0.138	0.337
-160.764	-200.000	-0.131	0.993
-159.750	247.154	-0.108	0.180
-158.735	-37.158	0.331	-0.175
-157.720	121.849	-0.332	0.408
-156.706	-121.004	0.253	0.042
-155.691	25.578	0.243	0.200
-154.677	-82.124	-0.969	0.312
-153.662	160.084	0.329	0.453
-152.647	105.763	-0.090	0.105
-151.633	69.541	-0.336	0.342
-150.618	12.886	-0.254	0.194
-149.604	640.167	-0.271	0.681
-148.589	81.517	0.498	0.532
-147.574	152.945	0.195	-0.263
-146.560	-144.768	-0.589	-0.053
-145.545	-160.857	0.771	-0.040
-144.531	-111.196	0.401	-0.081
-143.516	-200.000	-0.112	0.581
-142.502	-85.057	-0.768	0.237
-141.487	272.876	-0.170	0.297
-140.472	-14.271	-0.269	0.171
-139.458	-23.284	0.439	0.260
-138.443	-200.000	-0.079	0.485
-137.429	-25.915	-0.657	-0.382
-136.414	-21.773	0.283	-0.170
-135.399	-12.635	-0.336	0.216
-134.385	-200.000	0.019	0.974
-133.370	740.071	-0.234	-0.621
-132.356	-200.000	0.029	-0.133
-131.341	99.149	-0.483	0.550
-130.326	164.596	0.143	-0.199
-129.312	-81.705	0.481	-0.156
-128.297	-10.070	-0.517	0.339
-127.283	-200.000	0.000	0.758
-126.268	-80.361	0.375	-0.124
-125.253	800.000	0.068	0.246
-124.239	407.806	0.251	-0.524
-123.224	-140.120	-0.337	0.035
-122.210	-99.184	0.143	-0.036
-121.195	142.359	-0.151	-0.197
-120.180	800.000	-0.163	0.566
-119.166	139.377	-0.073	0.095
-118.151	800.000	0.133	-0.537
-117.137	12.923	0.406	0.310
-116.122	44.643	0.131	0.119
-115.107	-200.000	-0.022	0.124
-114.093	-67.264	0.385	-0.149
-113.078	115.132	-0.171	0.206
-112.064	-82.510	-0.356	0.114
-111.049	47.603	-0.518	0.476
-110.034	-132.613	-0.856	0.108
-109.020	457.359	0.294	0.644
-108.005	218.132	-0.299	-0.471
-106.991	271.646	-0.195	-0.338
-105.976	17.972	-0.341	0.268
-104.962	497.243	0.310	0.702
-103.947	-200.000	0.082	-0.969
-102.932	-149.120	0.312	-0.025
-101.918	-148.996	-0.462	0.037
-100.903	377.583	0.173	0.349
-99.889	303.890	-0.200	0.366
-98.874	-83.343	0.116	-0.037
-97.859	175.841	0.195	-0.278
-96.845	491.008	0.142	-0.319
-95.830	-93.040	0.565	0.155
-94.816	-150.035	0.314	-0.024
-93.801	-64.806	-0.163	0.065
-92.786	-196.537	0.415	-0.003
-91.772	16.224	0.301	-0.233
-90.757	1.528	-0.370	0.262
-89.743	-34.800	-0.380	0.204
-88.728	-4.118	-0.578	0.394
-87.713	116.719	-0.273	0.330
-86.699	-171.631	1.104	0.036
-85.684	262.042	-0.211	-0.359
-84.670	388.320	-0.402	0.819
-83.655	-200.000	-0.025	-0.473
-82.640	-200.000	0.009	0.223
-81.626	800.000	-0.147	-0.459
-80.611	-200.000	-0.095	-0.701
-79.597	112.631	0.041	0.049
-78.582	82.736	0.559	-0.598
-77.567	-30.935	-0.368	-0.204
-76.553	-59.634	0.293	-0.124
-75.538	544.550	0.111	0.261
-74.524	-50.125	0.251	0.117
-73.509	518.650	0.233	0.536
-72.494	-62.521	0.313	0.128
-71.480	-82.084	-0.488	-0.157
-70.465	182.681	0.218	-0.317
-69.451	-135.049	0.400	-0.047
-68.436	-51.210	0.399	0.184
-67.422	-194.187	-0.463	0.004
-66.407	540.816	-0.058	0.135
-65.392	800.000	-0.180	0.611
-64.378	-115.386	0.270	0.050
-63.363	12.453	0.424	0.321
-62.349	-104.817	-0.647	-0.146
-61.334	127.627	-0.841	-1.051
-60.319	800.000	0.148	0.498
-59.305	-200.000	-0.039	-0.604
-58.290	407.794	0.610	1.268
-57.276	353.717	0.649	1.267
-56.261	-200.000	95.099	601.673
-55.246	673.904	1354.369	3456.189
-54.232	204.348	2518.974	3839.710
-53.217	119.377	2137.614	2601.885
-52.203	43.118	1689.450	1516.024
-51.188	35.281	1505.097	1297.761
-50.173	32.996	1478.688	1259.721
-49.159	53.787	1529.581	1444.505
-48.144	54.202	1547.960	1464.619
-47.130	35.524	1506.601	1300.495
-46.115	32.697	1491.706	1268.598
-45.100	32.432	1488.167	1263.759
-44.086	32.292	1486.661	1261.491
-43.071	32.283	1484.037	1259.154
-42.057	32.268	1482.592	1257.778
-41.042	32.306	1480.826	1256.481
-40.027	32.181	1480.443	1255.275
-39.013	32.087	1479.236	1253.576
-37.998	32.084	1478.045	1252.491
-36.984	31.900	1477.380	1250.652
-35.969	32.190	1474.953	1250.476
-34.954	32.252	1473.583	1249.678
-33.940	32.002	1472.313	1246.892
-32.925	32.242	1470.953	1247.283
-31.911	32.228	1469.089	1245.561
-30.896	32.317	1468.122	1245.281
-29.881	32.347	1466.784	1244.293
-28.867	32.385	1464.031	1242.161
-27.852	32.194	1464.436	1241.194
-26.838	32.347	1463.142	1241.060
-25.823	32.047	1462.604	1238.574
-24.809	32.129	1459.429	1236.375
-23.794	32.441	1456.674	1236.044
-22.779	31.976	1457.379	1233.535
-21.765	32.385	1455.681	1234.731
-20.750	32.434	1454.071	1233.641
-19.736	32.121	1453.690	1231.214
-18.721	32.231	1452.318	1230.730
-17.706	32.049	1452.070	1229.277
-16.692	32.330	1450.986	1230.150
-15.677	31.978	1449.829	1226.814
-14.663	32.354	1447.984	1227.660
-13.648	32.102	1447.730	1225.753
-12.633	32.136	1445.920	1224.394
-11.619	32.129	1446.379	1224.691
-10.604	32.233	1444.271	1223.533
-9.590	32.044	1443.862	1221.903
-8.575	32.275	1443.236	1222.831
-7.560	32.272	1442.314	1221.984
-6.546	32.144	1442.126	1220.943
-5.531	32.225	1440.258	1219.836
-4.517	32.434	1438.090	1219.307
-3.502	32.245	1437.358	1217.415
-2.487	32.151	1437.064	1216.511
-1.473	32.130	1437.129	1216.377
-0.458	32.090	1434.618	1213.946
0.556	33.561	1425.371	1203.788
1.571	30.062	1401.730	1161.824
2.586	26.592	1342.707	1091.921
3.600	24.985	1261.924	1017.018
4.615	23.412	1216.025	971.327
5.629	20.360	1159.134	909.836
6.644	11.288	1075.643	799.909
7.659	4.746	1034.604	738.365
8.673	3.759	1029.301	729.855
9.688	3.126	1026.594	724.890
10.702	3.331	1023.873	723.867
11.717	3.266	1022.242	722.345
12.731	6.256	1025.654	738.751
13.746	15.149	1038.724	790.224
14.761	22.720	1047.424	832.646
15.775	24.252	1049.425	841.402
16.790	23.924	1048.488	839.030
17.804	23.817	1045.485	836.050
18.819	23.746	1045.140	835.366
19.834	23.476	1043.872	833.010
20.848	23.492	1044.513	833.523
21.863	23.370	1045.263	833.475
22.877	23.665	1043.408	833.306
23.892	23.510	1043.382	832.486
24.907	23.251	1041.704	829.859
25.921	23.243	1040.180	828.532
26.936	23.336	1040.273	828.969
27.950	22.959	1040.126	827.015
28.965	23.326	1037.356	826.449
29.980	23.090	1036.810	824.844
30.994	23.272	1036.940	825.722
32.009	23.534	1034.853	825.205
33.023	23.459	1034.257	824.310
34.038	23.425	1033.929	823.818
35.053	23.325	1033.039	822.567
36.067	23.235	1032.033	821.280
37.082	23.293	1030.880	820.559
38.096	22.976	1030.691	818.867
39.111	23.259	1030.236	819.743
40.126	23.308	1028.508	818.523
41.140	23.247	1028.319	818.014
42.155	23.106	1025.866	815.340
43.169	22.760	1025.433	813.333
44.184	22.529	1024.894	811.768
45.199	22.695	1022.473	810.543
46.213	22.369	1022.568	809.046
47.228	22.684	1020.774	809.001
48.242	22.823	1021.676	810.282
49.257	23.337	1020.251	811.435
50.271	23.439	1019.288	811.063
51.286	23.288	1019.376	810.372
52.301	23.879	1018.647	812.422
53.315	23.569	1017.997	810.418
54.330	23.634	1015.633	808.759
55.344	23.545	1014.867	807.671
56.359	23.354	1014.152	806.164
57.374	22.888	1014.131	803.954
58.388	23.148	1012.626	803.872
59.403	22.869	1012.322	802.289
60.417	22.996	1011.773	802.361
61.432	22.596	1011.477	800.241
62.447	22.905	1009.649	800.124
63.461	22.403	1010.469	798.427
64.476	22.896	1009.396	799.739
65.490	22.563	1009.458	798.209
66.505	22.393	1007.609	795.910
67.520	22.837	1006.229	796.753
68.534	22.801	1005.992	796.332
69.549	22.548	1005.416	794.667
70.563	22.415	1004.338	793.147
71.578	22.640	1002.763	792.841
72.593	22.094	1002.087	789.782
73.607	22.378	1000.319	789.595
74.622	22.033	1000.186	787.870
75.636	21.917	999.744	786.935
76.651	22.144	998.796	787.135
77.666	22.157	997.998	786.497
78.680	22.707	996.683	787.847
79.695	22.498	996.284	786.527
80.709	22.312	995.978	785.384
81.724	22.324	995.396	784.911
82.739	22.721	994.052	785.549
83.753	22.749	993.743	785.361
84.768	23.173	992.533	786.219
85.782	23.394	993.334	787.765
86.797	23.693	992.830	788.627
87.812	24.081	991.009	788.827
88.826	23.885	990.659	787.613
89.841	23.459	990.386	785.441
90.855	23.571	990.465	785.928
91.870	23.491	988.678	784.088
92.884	24.058	987.957	785.949
93.899	23.496	987.451	782.999
94.914	23.377	987.325	782.303
95.928	23.771	985.488	782.515
96.943	23.739	984.821	781.774
97.957	23.433	984.413	780.033
98.972	23.383	982.912	778.559
99.987	23.399	981.787	777.666
101.001	23.405	981.817	777.646
102.016	23.801	979.728	777.660
103.030	23.239	980.422	775.678
104.045	23.175	978.979	774.189
105.060	23.808	977.470	775.689
106.074	23.585	977.054	774.319
107.089	23.586	976.096	773.495
108.103	23.154	975.809	771.315
109.118	22.821	975.247	769.352
110.133	22.939	973.225	768.202
111.147	22.724	971.195	765.600
112.162	22.428	971.021	764.113
113.176	22.570	969.980	763.840
114.191	22.891	968.789	764.223
115.206	23.075	968.486	764.713
116.220	22.822	967.366	762.668
117.235	22.155	967.060	759.476
118.249	22.450	966.741	760.432
119.264	22.494	965.617	759.672
120.279	22.458	963.752	757.981
121.293	22.243	964.148	757.301
122.308	22.159	962.354	755.464
123.322	21.957	962.535	754.670
124.337	21.961	960.978	753.402
125.352	22.339	958.835	753.271
126.366	21.668	959.098	750.540
127.381	22.110	958.024	751.523
128.395	22.172	957.936	751.652
129.410	22.381	956.342	751.225
130.424	22.680	955.647	751.890
131.439	22.657	954.936	751.167
132.454	22.956	954.161	751.762
133.468	23.178	952.807	751.572
134.483	22.685	953.308	749.805
135.497	22.644	952.067	748.590
136.512	22.716	951.360	748.270
137.527	22.994	950.717	748.877
138.541	22.876	950.533	748.169
139.556	22.917	949.409	747.392
140.570	22.588	949.843	746.274
141.585	23.012	948.663	747.072
142.600	23.618	947.011	748.259
143.614	23.557	947.469	748.297
144.629	23.663	946.525	747.934
145.643	23.383	946.617	746.759
146.658	23.720	944.431	746.386
147.673	23.366	944.094	744.565
148.687	23.254	942.784	742.996
149.702	23.010	940.458	740.075
150.716	23.128	940.127	740.247
151.731	22.854	939.934	738.883
152.746	22.826	938.991	737.959
153.760	22.925	938.202	737.684
154.775	22.825	938.115	737.136
155.789	23.299	935.931	737.327
156.804	23.542	935.169	737.672
157.819	23.332	934.264	736.020
158.833	23.496	934.817	737.074
159.848	23.586	933.483	736.329
160.862	23.746	932.846	736.425
161.877	23.609	932.790	735.746
162.892	23.301	931.286	733.222
163.906	23.168	929.849	731.477
164.921	23.075	929.307	730.599
165.935	22.621	928.592	728.098
166.950	22.742	926.420	726.829
167.964	23.104	925.793	727.765
168.979	23.001	925.708	727.209
169.994	22.952	923.879	725.505
171.008	23.232	921.937	725.065
172.023	23.132	922.651	725.151
173.037	23.416	921.963	725.708
174.052	23.434	921.137	725.068
175.067	23.438	920.507	724.527
176.081	23.444	919.232	723.481
177.096	23.028	918.496	721.144
178.110	22.741	918.185	719.664
179.125	22.518	916.618	717.463
180.140	22.665	916.276	717.730
181.154	22.376	915.303	715.731
182.169	22.914	915.157	717.739
183.183	23.079	915.497	718.613
184.198	23.453	914.040	718.922
185.213	23.303	913.335	717.697
186.227	23.466	913.240	718.218
187.242	23.171	912.621	716.474
188.256	23.540	911.143	716.744
189.271	23.526	910.557	716.161
190.286	23.680	909.679	716.027
191.300	23.436	909.931	715.180
192.315	22.721	909.360	711.785
193.329	22.632	907.134	709.620
194.344	22.670	905.612	708.518
195.359	22.365	906.717	708.094
196.373	23.074	906.094	710.394
197.388	23.203	906.387	711.079
198.402	23.482	906.172	711.969
199.417	23.798	904.873	712.151
200.432	23.691	905.552	712.195
201.446	23.951	904.670	712.480
202.461	24.088	904.328	712.692
203.475	23.643	904.614	711.075
204.490	23.516	904.067	710.072
205.504	23.238	901.921	707.213
206.519	22.745	901.752	705.050
207.534	23.310	900.519	706.277
208.548	23.323	899.402	705.391
209.563	23.368	898.707	704.963
210.577	23.434	898.186	704.753
211.592	23.354	897.556	703.879
212.607	23.890	897.134	705.615
213.621	24.033	896.969	705.990
214.636	23.791	896.490	704.588
215.650	23.576	896.095	703.364
216.665	23.603	895.118	702.641
217.680	23.542	895.231	702.429
218.694	23.799	894.050	702.453
219.709	24.202	892.683	702.908
220.723	24.060	892.379	702.046
221.738	23.687	892.449	700.567
222.753	23.518	890.676	698.449
223.767	23.658	889.770	698.227
224.782	23.242	890.015	696.722
225.796	23.509	890.390	698.003
226.811	23.967	888.944	698.606
227.826	23.877	887.845	697.331
228.840	23.608	886.927	695.494
229.855	22.825	886.881	692.325
230.869	23.219	886.281	693.341
231.884	23.333	884.910	692.652
232.899	22.908	885.326	691.254
233.913	23.340	884.418	692.171
234.928	22.997	883.929	690.389
235.942	23.247	883.244	690.769
236.957	23.228	882.247	689.854
237.972	22.691	881.750	687.309
238.986	22.582	881.162	686.366
240.001	22.948	879.995	686.820
241.015	22.667	879.935	685.622
242.030	22.918	878.736	685.601
243.045	22.919	878.439	685.311
244.059	23.190	878.672	686.483
245.074	23.353	877.741	686.327
246.088	23.421	876.274	685.381
247.103	23.274	876.895	685.240
248.117	23.455	877.448	686.312
249.132	23.929	876.241	687.136
250.147	24.215	876.555	688.430
251.161	24.500	875.947	688.988
252.176	24.736	874.714	688.868
253.190	24.804	874.331	688.768
254.205	24.652	874.016	687.875
255.220	24.882	873.910	688.615
256.234	24.507	873.233	686.579
257.249	24.416	872.240	685.386
258.263	24.420	872.440	685.501
259.278	24.314	871.143	684.011
260.293	24.331	870.342	683.389
261.307	24.498	869.777	683.524
262.322	24.892	868.779	684.185
263.336	24.654	868.463	682.967
264.351	24.549	868.306	682.381
265.366	23.997	866.812	679.040
266.380	24.374	866.024	679.800
267.395	24.597	866.402	680.888
268.409	24.603	865.723	680.316
269.424	24.239	865.556	678.739
270.439	24.161	863.866	677.059
271.453	24.468	863.687	678.024
272.468	24.393	862.030	676.377
273.482	24.587	861.217	676.416
274.497	24.375	862.166	676.295
275.512	24.101	861.141	674.394
276.526	24.206	859.787	673.673
277.541	24.164	860.067	673.673
278.555	24.457	858.749	673.687
279.570	24.404	859.551	674.055
280.585	24.480	859.547	674.282
281.599	24.632	858.576	674.032
282.614	24.847	856.808	673.394
283.628	24.160	856.136	670.223
284.643	24.057	854.926	668.829
285.657	24.021	855.655	669.206
286.672	23.684	856.211	668.311
287.687	24.201	853.511	668.085
288.701	24.264	853.604	668.335
289.716	24.120	853.256	667.465
290.730	24.636	852.458	668.713
291.745	24.411	851.745	667.252
292.760	24.435	850.823	666.560
293.774	24.397	850.392	666.023
294.789	24.745	851.280	667.959
295.803	25.053	849.936	667.991
296.818	24.698	849.803	666.507
297.833	24.420	848.440	664.343
298.847	23.844	848.821	662.436
299.862	23.712	848.107	661.330
300.876	24.212	847.339	662.532
301.891	24.823	846.334	663.955
302.906	24.950	846.153	664.227
303.920	24.819	846.389	663.865
304.935	24.882	844.908	662.879
305.949	25.294	844.524	664.044
306.964	25.108	843.655	662.616
307.979	24.876	842.929	661.128
308.993	24.620	842.326	659.652
310.008	24.269	843.194	658.975
311.022	24.993	841.819	660.515
312.037	24.878	841.640	659.891
313.052	24.387	840.106	656.822
314.066	24.300	839.554	656.013
315.081	24.154	838.909	654.915
316.095	23.949	837.997	653.391
317.110	23.976	838.145	653.547
318.125	24.298	837.035	653.807
319.139	24.089	836.552	652.606
320.154	23.701	835.777	650.520
321.168	23.647	835.442	650.007
322.183	23.953	834.071	649.998
323.197	24.250	834.300	651.206
324.212	24.446	833.615	651.330
325.227	24.272	832.578	649.826
326.241	24.212	833.391	650.187
327.256	24.155	833.425	649.947
328.270	24.127	831.577	648.345
329.285	24.381	830.142	648.090
330.300	24.095	829.449	646.457
331.314	23.980	829.029	645.653
332.329	23.990	828.847	645.491
333.343	24.201	829.215	646.485
334.358	24.255	829.296	646.687
335.373	24.551	828.552	647.122
336.387	24.508	827.890	646.395
337.402	24.902	826.737	646.859
338.416	24.876	826.251	646.329
339.431	24.720	826.731	646.082
340.446	24.969	826.191	646.503
341.460	25.356	825.756	647.503
342.475	25.131	825.568	646.486
343.489	25.119	825.142	646.050
344.504	25.148	824.955	645.953
345.519	25.415	823.716	645.885
346.533	25.394	823.494	645.578
347.548	25.874	822.579	646.526
348.562	25.283	821.751	643.699
349.577	24.795	821.832	641.957
350.592	25.170	820.149	641.926
351.606	24.903	819.857	640.685
352.621	24.726	818.834	639.195
353.635	24.794	819.032	639.539
354.650	24.324	819.530	638.187
355.665	24.362	819.181	637.996
356.679	24.262	818.150	636.779
357.694	24.591	817.352	637.275
358.708	24.909	817.244	638.270
359.723	24.377	816.079	635.409
360.738	24.784	814.721	635.742
361.752	25.021	815.066	636.799
362.767	24.653	814.755	635.190
363.781	25.253	814.410	636.997
364.796	25.146	814.911	636.952
365.810	25.511	814.041	637.508
366.825	25.257	814.689	637.060
367.840	25.684	813.325	637.450
368.854	25.683	812.830	637.000
369.869	25.247	812.358	635.033
370.883	25.166	811.610	634.106
371.898	24.935	811.780	633.365
372.913	25.499	809.998	633.906
373.927	25.391	809.955	633.438
374.942	25.096	809.404	631.910
375.956	24.978	808.213	630.511
376.971	25.114	808.231	630.946
377.986	25.576	807.940	632.289
379.000	25.624	807.933	632.397
380.015	25.724	806.815	631.817
381.029	25.670	806.032	630.957
382.044	25.790	804.854	630.399
383.059	25.409	805.755	629.715
384.073	25.619	804.674	629.549
385.088	25.748	803.588	629.093
386.102	25.504	802.777	627.552
387.117	25.147	801.684	625.396
388.132	24.639	802.181	623.956
389.146	24.724	801.829	623.922
390.161	24.897	800.403	623.363
391.175	25.168	800.736	624.511
392.190	25.701	800.159	625.860
393.205	25.459	799.706	624.608
394.219	24.983	798.944	622.304
395.234	24.704	798.015	620.556
396.248	24.433	797.083	618.836
397.263	24.522	797.459	619.382
398.278	24.643	797.522	619.798
399.292	25.119	794.948	619.386
400.307	24.615	795.298	617.863
401.321	24.757	794.456	617.645
402.336	24.116	795.129	615.898
403.350	24.720	795.027	617.850
404.365	25.271	794.575	619.346
405.380	25.790	794.180	620.774
406.394	25.609	794.380	620.249
407.409	25.806	793.881	620.487
408.423	26.317	793.557	621.935
409.438	26.062	792.991	620.562
410.453	26.219	792.413	620.595
411.467	26.071	791.726	619.492
412.482	25.956	791.393	618.781
413.496	25.889	791.277	618.406
414.511	26.206	790.989	619.215
415.526	25.770	791.015	617.684
416.540	25.990	790.046	617.627
417.555	25.858	789.611	616.779
418.569	25.741	789.131	615.951
419.584	25.988	787.975	615.836
420.599	26.081	786.922	615.275
421.613	161.425	1368.366	1793.083
422.628	139.755	1453.046	1793.140
