DTS Sentinel unit serial number:	SN413079Multiplexer serial number:	ORYXHardware model number:	OX4-SRSoftware version number:	ORYX F/W v4.00 Oryx Data Collector v3.7.2.0data status	okinstallation	princeton_trtdifferential loss correction	single-endedforward channel	channel 3reverse channel	N/Adate	2019/09/13time	02:32:34forward acquisition time	60.00reverse acquisition time	0.00gamma	496.2192k internal	0.2335k external	0.2335temperature offset calibration	1.0130default loss term (dB/km)	0.3790temperature slope calibration	1.0000multiplexer offset coefficient	1.0000multiplexer slope coefficient	1.0000fibre end	0.00T internal ref (°C)	27.50T ext. ref 1 (°C)	3.98T ext. ref 2 (°C)	22.25length (m)	temperature (°C)	Stokes	anti-Stokes-747.200	-98.725	-0.135	0.035
-746.185	-33.136	-0.218	0.121
-745.171	-200.000	0.001	-0.239
-744.156	-28.673	0.261	-0.151
-743.142	-138.031	-0.257	-0.029
-742.127	-35.794	-0.276	0.150
-741.112	77.036	0.120	-0.128
-740.098	800.000	0.055	0.233
-739.083	156.036	-0.164	0.227
-738.069	73.936	-0.101	0.106
-737.054	11.951	-0.078	0.060
-736.039	245.585	-0.201	-0.340
-735.025	800.000	0.026	0.073
-734.010	795.159	0.112	-0.309
-732.996	14.171	-0.109	0.086
-731.981	-200.000	0.033	-0.534
-730.966	-113.889	0.078	-0.015
-729.952	143.958	-0.122	0.164
-728.937	3.394	-0.174	-0.128
-727.923	36.439	0.114	0.101
-726.908	38.082	0.138	0.123
-725.894	800.000	-0.008	-0.024
-724.879	462.650	-0.114	-0.256
-723.864	-119.825	0.151	0.026
-722.850	-140.169	0.090	0.009
-721.835	-200.000	-0.016	-0.177
-720.821	255.263	-0.068	-0.117
-719.806	800.000	-0.124	-0.421
-718.791	317.387	-0.138	-0.263
-717.777	159.142	0.184	-0.257
-716.762	-81.110	-0.083	-0.028
-715.748	800.000	-0.028	-0.120
-714.733	-100.592	-0.199	-0.049
-713.718	-65.435	-0.251	0.101
-712.704	640.899	0.049	0.126
-711.689	-29.947	-0.325	-0.186
-710.675	388.155	-0.028	0.059
-709.660	53.396	-0.108	-0.104
-708.645	-16.972	0.149	0.095
-707.631	626.831	-0.053	0.135
-706.616	-65.877	-0.222	-0.089
-705.602	353.623	0.034	0.068
-704.587	226.608	-0.111	-0.181
-703.572	394.483	0.273	-0.572
-702.558	209.193	-0.196	-0.308
-701.543	33.206	0.175	-0.153
-700.529	-171.230	-0.093	-0.003
-699.514	19.267	0.053	0.043
-698.499	250.688	0.032	0.055
-697.485	-117.407	0.100	-0.018
-696.470	-31.262	-0.029	0.016
-695.456	203.410	0.341	-0.530
-694.441	173.697	0.101	0.146
-693.426	800.000	-0.053	0.219
-692.412	-35.724	-0.120	-0.065
-691.397	34.741	0.285	-0.250
-690.383	35.870	-0.181	-0.159
-689.368	-52.611	0.034	-0.016
-688.354	800.000	-0.118	-0.431
-687.339	611.946	-0.050	-0.127
-686.324	-29.054	-0.388	-0.223
-685.310	-82.846	0.157	0.051
-684.295	-200.000	0.025	-0.240
-683.281	117.246	0.115	-0.141
-682.266	235.234	0.051	-0.084
-681.251	-73.933	-0.251	-0.091
-680.237	142.927	-0.237	-0.316
-679.222	332.966	0.045	-0.087
-678.208	370.896	0.130	-0.264
-677.193	-200.000	0.049	0.248
-676.178	7.407	0.169	-0.127
-675.164	-136.917	-0.358	-0.041
-674.149	-200.000	0.002	0.157
-673.135	79.605	-0.068	-0.073
-672.120	-25.466	0.242	0.143
-671.105	-93.674	-0.050	-0.014
-670.091	167.074	0.095	-0.135
-669.076	800.000	0.032	0.090
-668.062	-200.000	0.035	-0.328
-667.047	-45.256	0.422	0.210
-666.032	-161.842	-0.208	-0.011
-665.018	800.000	0.059	-0.202
-664.003	-2.255	-0.132	-0.093
-662.989	-11.747	-0.176	-0.116
-661.974	-94.157	-0.249	-0.068
-660.959	116.624	0.286	-0.352
-659.945	212.609	0.044	0.070
-658.930	10.326	0.237	-0.181
-657.916	347.741	-0.049	-0.097
-656.901	141.999	-0.096	0.127
-655.886	-37.711	-0.142	-0.076
-654.872	-5.172	0.073	0.050
-653.857	-200.000	-0.008	-0.187
-652.843	-52.602	0.109	0.050
-651.828	659.942	0.112	0.288
-650.814	-64.775	0.205	0.083
-649.799	324.576	-0.051	-0.097
-648.784	-49.617	-0.198	-0.094
-647.770	397.339	0.166	0.348
-646.755	435.223	0.162	-0.354
-645.741	-100.123	-0.421	0.105
-644.726	-200.000	0.012	-0.105
-643.711	44.394	0.084	-0.077
-642.697	-46.328	-0.223	0.110
-641.682	-34.439	-0.343	-0.188
-640.668	800.000	-0.114	0.320
-639.653	124.657	-0.011	0.013
-638.638	196.093	0.141	0.215
-637.624	-82.493	-0.152	-0.049
-636.609	438.459	0.149	-0.325
-635.595	219.784	-0.136	-0.218
-634.580	133.599	0.154	-0.199
-633.565	-106.450	-0.010	0.002
-632.551	2.913	-0.085	-0.062
-631.536	389.815	0.059	-0.122
-630.522	-200.000	-0.004	-0.183
-629.507	433.350	-0.174	-0.378
-628.492	-130.198	-0.282	-0.038
-627.478	-200.000	-0.079	0.351
-626.463	22.234	-0.101	-0.082
-625.449	28.981	-0.114	0.097
-624.434	-101.910	0.053	0.013
-623.419	54.084	0.121	0.117
-622.405	-200.000	-0.043	-0.356
-621.390	-200.000	0.009	0.164
-620.376	-119.869	0.086	-0.015
-619.361	369.012	-0.120	0.242
-618.346	106.840	-0.188	0.224
-617.332	98.733	-0.230	-0.265
-616.317	66.480	-0.240	-0.244
-615.303	-188.781	-0.367	-0.004
-614.288	46.527	0.190	-0.176
-613.273	109.212	0.116	0.139
-612.259	-87.845	0.359	-0.108
-611.244	260.764	-0.047	-0.081
-610.230	-200.000	-0.059	0.384
-609.215	432.114	-0.047	-0.102
-608.201	-21.124	-0.018	0.011
-607.186	800.000	0.071	-0.199
-606.171	800.000	-0.052	0.145
-605.157	-200.000	-0.027	0.120
-604.142	164.458	-0.123	0.174
-603.128	-200.000	-0.007	-0.295
-602.113	155.429	-0.020	-0.027
-601.098	-200.000	0.025	-0.288
-600.084	800.000	-0.034	0.108
-599.069	68.601	0.103	-0.106
-598.055	-200.000	-0.069	0.335
-597.040	38.725	0.308	0.275
-596.025	64.837	0.225	0.226
-595.011	-50.450	-0.199	0.094
-593.996	111.577	0.153	-0.184
-592.982	-62.792	0.329	0.136
-591.967	-137.545	-0.212	-0.024
-590.952	121.674	0.175	-0.218
-589.938	-94.743	-0.363	0.098
-588.923	-57.403	-0.197	-0.086
-587.909	73.343	0.077	-0.081
-586.894	-51.039	0.121	0.057
-585.879	123.532	-0.164	0.205
-584.865	-168.553	0.303	0.012
-583.850	-200.000	-0.018	0.082
-582.836	-83.344	0.100	-0.032
-581.821	8.764	0.218	-0.164
-580.806	-8.556	0.055	0.037
-579.792	-121.885	-0.141	-0.023
-578.777	-18.825	0.243	0.151
-577.763	98.344	0.163	-0.188
-576.748	87.182	0.185	-0.204
-575.733	-82.188	0.236	0.077
-574.719	-158.933	-0.173	-0.010
-573.704	180.087	-0.094	0.137
-572.690	274.012	-0.069	0.122
-571.675	-3.974	-0.065	-0.045
-570.661	60.641	-0.231	0.229
-569.646	92.129	-0.130	0.146
-568.631	186.183	0.045	0.066
-567.617	68.096	-0.281	0.287
-566.602	-200.000	-0.009	0.060
-565.588	-200.000	-0.018	-0.119
-564.573	-54.336	-0.208	-0.094
-563.558	8.278	-0.419	0.314
-562.544	800.000	-0.043	-0.127
-561.529	241.084	-0.122	-0.203
-560.515	-51.112	-0.116	0.054
-559.500	-46.527	0.103	-0.050
-558.485	-83.736	0.280	-0.089
-557.471	-52.736	0.317	-0.146
-556.456	-78.810	0.017	0.006
-555.442	800.000	0.024	0.082
-554.427	254.618	-0.091	0.156
-553.412	-54.628	-0.032	0.015
-552.398	-46.735	0.249	-0.122
-551.383	459.497	0.136	-0.302
-550.369	-70.091	-0.174	-0.066
-549.354	45.038	0.221	0.203
-548.339	411.037	-0.112	-0.237
-547.325	-200.000	-0.013	-0.089
-546.310	136.935	0.120	0.157
-545.296	-107.958	-0.205	-0.044
-544.281	695.738	-0.051	0.132
-543.266	-118.571	0.109	0.019
-542.252	-116.842	-0.307	-0.056
-541.237	-200.000	-0.036	0.165
-540.223	-23.940	0.177	-0.105
-539.208	-200.000	-0.045	-0.234
-538.193	800.000	0.098	-0.322
-537.179	144.605	-0.283	-0.377
-536.164	371.301	-0.085	0.172
-535.150	123.444	0.114	0.142
-534.135	495.442	0.131	-0.300
-533.121	25.733	-0.069	-0.058
-532.106	-98.812	-0.136	-0.035
-531.091	800.000	0.067	-0.195
-530.077	351.010	0.071	-0.141
-529.062	800.000	0.129	-0.417
-528.048	62.327	0.242	-0.241
-527.033	-111.834	-0.064	0.013
-526.018	396.125	-0.064	0.134
-525.004	-116.661	-0.254	-0.047
-523.989	78.266	0.089	-0.095
-522.975	291.039	0.044	-0.080
-521.960	-200.000	-0.044	0.284
-520.945	-176.324	-0.206	0.005
-519.931	-18.202	0.193	0.120
-518.916	67.440	-0.102	-0.103
-517.902	45.141	-0.053	0.049
-516.887	250.205	-0.148	-0.250
-515.872	459.965	0.145	0.322
-514.858	-82.466	0.223	0.072
-513.843	-76.422	-0.144	0.050
-512.829	-127.434	0.218	0.032
-511.814	-56.963	0.367	-0.161
-510.799	-200.000	-0.019	-0.221
-509.785	-84.707	0.291	-0.091
-508.770	4.086	0.210	0.153
-507.756	-200.000	0.017	0.091
-506.741	-140.196	-0.063	0.007
-505.726	-200.000	-0.025	-0.226
-504.712	-200.000	-0.056	0.335
-503.697	-200.000	0.004	0.039
-502.683	-25.737	0.222	0.131
-501.668	-200.000	0.024	0.295
-500.653	800.000	-0.013	0.043
-499.639	800.000	-0.055	0.178
-498.624	-30.678	-0.138	-0.078
-497.610	-200.000	-0.002	-0.132
-496.595	-145.581	-0.091	-0.008
-495.581	-54.709	-0.283	0.127
-494.566	-143.481	0.037	-0.004
-493.551	-86.350	0.195	0.060
-492.537	461.078	-0.030	0.067
-491.522	-113.352	-0.101	-0.020
-490.508	-116.236	-0.079	-0.015
-489.493	-57.204	-0.230	0.101
-488.478	800.000	0.052	-0.221
-487.464	628.771	0.102	-0.256
-486.449	-200.000	-0.029	0.165
-485.435	100.575	0.133	-0.154
-484.420	164.429	-0.184	-0.258
-483.405	-200.000	-0.013	-0.181
-482.391	-75.130	0.166	0.059
-481.376	64.303	-0.219	-0.219
-480.362	158.161	0.065	-0.090
-479.347	113.169	0.311	0.375
-478.332	-95.863	0.255	-0.068
-477.318	59.792	-0.103	-0.101
-476.303	362.331	-0.070	-0.140
-475.289	111.093	0.129	-0.154
-474.274	181.916	0.203	0.297
-473.259	-15.969	0.122	0.077
-472.245	444.780	0.096	0.210
-471.230	-96.340	-0.194	-0.051
-470.216	-152.519	0.210	-0.015
-469.201	389.516	-0.024	0.049
-468.186	-167.265	0.358	-0.014
-467.172	-200.000	0.018	-0.292
-466.157	-200.000	0.024	-0.297
-465.143	-70.501	0.284	-0.107
-464.128	272.898	0.087	-0.152
-463.113	-93.728	-0.072	0.020
-462.099	-195.559	-0.410	0.003
-461.084	-0.311	0.090	0.064
-460.070	179.212	0.050	0.073
-459.055	800.000	0.120	-0.376
-458.040	44.089	-0.314	0.286
-457.026	73.906	-0.128	-0.133
-456.011	-200.000	0.010	-0.193
-454.997	-8.364	-0.333	-0.223
-453.982	-116.493	-0.034	-0.006
-452.968	-200.000	0.026	-0.195
-451.953	462.964	0.120	-0.267
-450.938	432.165	-0.071	-0.154
-449.924	-200.000	0.028	-0.196
-448.909	800.000	-0.080	0.250
-447.895	-114.059	0.190	-0.037
-446.880	314.836	-0.128	-0.239
-445.865	-200.000	0.031	0.281
-444.851	-101.730	-0.347	0.083
-443.836	612.420	0.144	-0.359
-442.822	-11.946	-0.313	-0.204
-441.807	347.930	-0.062	0.121
-440.792	-127.076	-0.318	-0.046
-439.778	-35.087	0.386	-0.209
-438.763	-200.000	-0.030	0.362
-437.749	225.828	0.062	-0.100
-436.734	-35.945	0.312	-0.167
-435.719	-160.536	-0.299	0.016
-434.705	-200.000	-0.066	0.315
-433.690	477.463	-0.103	0.232
-432.676	-200.000	0.026	-0.239
-431.661	114.179	-0.066	0.080
-430.646	55.425	0.119	-0.115
-429.632	-157.104	-0.003	0.000
-428.617	-3.278	0.116	0.080
-427.603	-200.000	0.023	0.214
-426.588	-200.000	0.053	0.371
-425.573	431.030	-0.104	0.225
-424.559	-26.332	0.400	0.233
-423.544	-82.368	-0.045	-0.015
-422.530	-139.910	-0.219	0.023
-421.515	800.000	-0.052	0.211
-420.500	-136.450	0.135	-0.016
-419.486	-200.000	-0.005	0.153
-418.471	-126.760	-0.149	0.022
-417.457	274.070	-0.070	-0.122
-416.442	-163.372	0.020	-0.001
-415.428	185.992	-0.091	-0.134
-414.413	-89.048	0.207	-0.061
-413.398	-56.571	0.068	-0.030
-412.384	-136.766	-0.373	0.043
-411.369	-4.740	-0.142	0.097
-410.355	-121.947	-0.184	-0.030
-409.340	-200.000	-0.033	0.163
-408.325	800.000	0.072	-0.281
-407.311	155.160	-0.144	-0.196
-406.296	-200.000	-0.030	-0.320
-405.282	-200.000	-0.001	0.172
-404.267	-138.263	-0.318	-0.035
-403.252	-68.736	-0.153	-0.059
-402.238	142.246	-0.042	0.055
-401.223	-200.000	-0.047	-0.264
-400.209	-200.000	0.083	-0.389
-399.194	491.631	-0.095	0.216
-398.179	-44.380	-0.176	0.087
-397.165	-200.000	0.025	0.212
-396.150	52.172	-0.197	0.186
-395.136	-15.912	-0.051	0.032
-394.121	84.071	-0.050	0.054
-393.106	-114.385	-0.194	0.037
-392.092	800.000	0.092	-0.260
-391.077	113.835	0.068	0.082
-390.063	285.970	-0.111	-0.198
-389.048	-51.353	0.188	0.087
-388.033	800.000	-0.063	0.227
-387.019	244.059	-0.133	-0.221
-386.004	55.950	-0.196	0.188
-384.990	-5.764	-0.126	-0.086
-383.975	-66.109	-0.081	0.032
-382.960	800.000	0.057	0.177
-381.946	-86.623	0.425	-0.129
-380.931	-200.000	-0.012	-0.051
-379.917	81.181	-0.146	0.156
-378.902	411.644	0.158	-0.333
-377.888	446.943	-0.050	0.110
-376.873	-130.949	0.343	0.045
-375.858	-54.026	0.364	-0.164
-374.844	273.244	-0.133	-0.233
-373.829	800.000	0.035	-0.099
-372.815	-96.622	0.145	0.038
-371.800	-41.104	0.135	0.069
-370.785	800.000	-0.113	0.372
-369.771	426.920	0.097	0.207
-368.756	279.584	0.106	-0.187
-367.742	84.868	0.161	-0.175
-366.727	-200.000	0.024	-0.182
-365.712	77.216	-0.036	0.038
-364.698	-134.844	-0.157	0.019
-363.683	-167.814	0.085	-0.003
-362.669	3.401	-0.099	-0.071
-361.654	177.400	0.167	0.241
-360.639	-125.055	0.388	-0.059
-359.625	380.955	0.042	0.086
-358.610	-200.000	0.327	-0.000
-357.596	664.618	0.130	0.331
-356.581	284.477	0.070	0.125
-355.566	-3.251	0.209	0.144
-354.552	300.173	0.056	-0.102
-353.537	-200.000	-0.050	0.310
-352.523	-87.344	0.303	0.091
-351.508	30.473	-0.198	0.168
-350.493	17.374	-0.180	-0.141
-349.479	800.000	0.087	-0.293
-348.464	-107.899	-0.238	0.051
-347.450	-200.000	0.043	-0.347
-346.435	-20.261	0.042	0.026
-345.420	-143.009	0.275	0.026
-344.406	-113.083	-0.144	-0.028
-343.391	703.614	0.090	-0.234
-342.377	-200.000	-0.102	0.587
-341.362	-51.938	0.267	0.123
-340.348	-67.031	0.132	0.051
-339.333	-120.316	0.162	-0.027
-338.318	-200.000	0.000	-0.192
-337.304	-82.335	-0.154	-0.050
-336.289	800.000	0.063	0.177
-335.275	-131.140	-0.202	-0.027
-334.260	12.947	0.171	-0.131
-333.245	68.147	-0.225	0.228
-332.231	-92.748	0.280	-0.077
-331.216	-200.000	-0.017	-0.127
-330.202	-200.000	-0.002	0.136
-329.187	-6.401	-0.385	-0.260
-328.172	152.189	-0.071	0.096
-327.158	465.414	-0.117	-0.258
-326.143	158.008	-0.232	0.318
-325.129	112.519	-0.068	0.081
-324.114	-200.000	0.072	0.563
-323.099	-200.000	-0.008	0.357
-322.085	-200.000	0.046	0.236
-321.070	-116.925	0.147	0.027
-320.056	121.906	0.203	0.250
-319.041	-18.579	0.331	-0.204
-318.026	-111.019	-0.093	0.019
-317.012	295.921	-0.065	-0.117
-315.997	-49.438	-0.243	-0.115
-314.983	-7.273	0.330	0.221
-313.968	24.285	-0.050	-0.041
-312.953	15.442	-0.050	0.039
-311.939	-6.271	0.028	0.019
-310.924	-200.000	-0.010	-0.049
-309.910	-10.250	-0.189	-0.124
-308.895	140.349	-0.158	0.206
-307.880	14.295	0.151	0.116
-306.866	185.121	0.107	0.156
-305.851	-200.000	-0.016	-0.317
-304.837	0.243	0.240	0.169
-303.822	-107.388	-0.074	-0.016
-302.807	-70.073	0.195	-0.073
-301.793	-200.000	0.002	0.262
-300.778	-200.000	-0.037	0.228
-299.764	-200.000	0.061	0.281
-298.749	488.365	-0.076	-0.172
-297.735	225.947	0.190	0.304
-296.720	67.029	0.118	0.118
-295.705	-115.075	0.177	0.033
-294.691	75.216	0.192	-0.200
-293.676	206.101	-0.205	0.315
-292.662	110.783	-0.144	-0.171
-291.647	-9.499	-0.047	0.031
-290.632	-158.335	0.286	0.016
-289.618	-104.983	0.305	-0.069
-288.603	121.410	-0.050	-0.061
-287.589	-120.383	-0.238	-0.040
-286.574	-200.000	0.007	-0.533
-285.559	-60.022	-0.184	0.078
-284.545	512.549	-0.173	0.397
-283.530	218.289	-0.138	-0.217
-282.516	-40.029	0.094	-0.049
-281.501	-200.000	0.007	-0.133
-280.486	362.610	-0.081	0.160
-279.472	116.577	-0.204	-0.247
-278.457	-200.000	-0.069	-0.318
-277.443	239.658	0.058	0.095
-276.428	800.000	-0.069	0.214
-275.413	183.521	0.079	0.115
-274.399	133.732	-0.130	0.166
-273.384	-200.000	0.010	-0.313
-272.370	15.920	-0.157	-0.122
-271.355	-158.461	-0.013	-0.001
-270.340	-200.000	-0.001	-0.098
-269.326	-28.764	0.089	0.050
-268.311	-55.125	0.225	-0.100
-267.297	800.000	0.046	-0.164
-266.282	51.343	0.090	-0.085
-265.267	-200.000	0.025	-0.235
-264.253	-107.835	0.013	-0.003
-263.238	-90.984	-0.259	0.073
-262.224	96.933	-0.367	0.415
-261.209	-26.544	0.177	0.102
-260.195	247.480	0.094	-0.157
-259.180	290.254	0.129	-0.231
-258.165	-200.000	0.013	-0.171
-257.151	-200.000	-0.007	-0.232
-256.136	157.583	-0.335	0.457
-255.122	-47.404	-0.012	0.006
-254.107	-42.230	0.132	0.067
-253.092	-30.458	0.242	0.135
-252.078	800.000	0.010	-0.036
-251.063	-141.456	-0.202	0.020
-250.049	152.868	0.180	-0.242
-249.034	-8.472	0.131	-0.087
-248.019	-173.606	-0.230	0.007
-247.005	200.495	0.111	0.167
-245.990	-200.000	0.024	-0.205
-244.976	265.509	0.166	0.286
-243.961	62.077	-0.360	0.354
-242.946	-200.000	-0.021	0.198
-241.932	-200.000	-0.004	-0.026
-240.917	71.851	0.112	0.115
-239.903	-43.018	-0.145	-0.073
-238.888	277.456	-0.065	-0.115
-237.873	-131.511	-0.166	0.022
-236.859	224.508	-0.096	0.153
-235.844	631.328	-0.171	0.427
-234.830	-176.667	-0.288	-0.007
-233.815	-200.000	0.048	0.240
-232.800	-87.017	-0.062	-0.019
-231.786	-139.714	0.074	-0.008
-230.771	-151.665	-0.223	0.016
-229.757	800.000	-0.043	-0.126
-228.742	179.678	-0.158	0.229
-227.727	-144.573	0.327	0.030
-226.713	182.840	-0.067	0.097
-225.698	227.482	-0.081	0.129
-224.684	-200.000	0.005	-0.055
-223.669	-27.191	-0.093	0.053
-222.655	-45.098	-0.077	-0.038
-221.640	-136.149	-0.239	0.028
-220.625	-80.159	0.167	0.055
-219.611	-86.727	0.224	0.067
-218.596	212.270	-0.154	0.239
-217.582	401.724	0.093	-0.192
-216.567	-156.480	-0.099	0.006
-215.552	335.875	0.035	-0.068
-214.538	256.354	-0.100	-0.169
-213.523	32.228	0.140	0.119
-212.509	66.598	-0.103	0.103
-211.494	7.755	-0.098	0.072
-210.479	-200.000	-0.036	0.170
-209.465	111.120	0.063	-0.075
-208.450	-80.654	0.124	-0.041
-207.436	10.854	-0.198	-0.149
-206.421	-54.900	-0.522	-0.232
-205.406	800.000	0.089	0.287
-204.392	-200.000	0.064	-0.296
-203.377	-121.596	0.389	-0.064
-202.363	798.457	-0.023	0.062
-201.348	287.040	-0.116	0.205
-200.333	-46.595	0.191	-0.092
-199.319	136.593	-0.215	-0.276
-198.304	214.814	-0.054	-0.085
-197.290	-119.776	0.440	0.075
-196.275	188.862	-0.229	-0.337
-195.260	66.143	0.060	-0.060
-194.246	597.218	0.069	0.169
-193.231	31.016	0.183	0.154
-192.217	-200.000	-0.027	-0.175
-191.202	497.697	-0.093	0.210
-190.187	-67.025	0.258	0.100
-189.173	-105.175	-0.181	0.041
-188.158	-126.495	0.403	-0.059
-187.144	487.154	0.076	0.171
-186.129	43.028	0.263	0.236
-185.114	-39.147	-0.206	-0.106
-184.100	275.605	0.096	0.167
-183.085	45.844	0.127	-0.115
-182.071	364.855	0.132	0.261
-181.056	221.223	0.049	-0.077
-180.042	-154.791	-0.474	0.031
-179.027	11.299	-0.042	-0.031
-178.012	-76.850	-0.152	-0.052
-176.998	-33.352	0.303	0.165
-175.983	-154.249	0.385	0.026
-174.969	152.732	0.194	0.261
-173.954	-144.689	0.054	-0.005
-172.939	789.846	0.101	-0.273
-171.925	68.856	-0.270	-0.273
-170.910	-75.975	-0.241	0.084
-169.896	-75.195	0.230	-0.081
-168.881	-104.084	-0.166	-0.038
-167.866	205.078	0.137	-0.208
-166.852	752.310	0.107	0.285
-165.837	364.630	-0.110	-0.218
-164.823	800.000	-0.045	0.160
-163.808	16.830	0.092	-0.071
-162.793	-99.067	-0.320	-0.080
-161.779	-141.454	-0.109	0.011
-160.764	-48.811	0.125	-0.059
-159.750	-56.404	0.345	-0.151
-158.735	-4.496	-0.204	0.138
-157.720	74.397	0.091	0.094
-156.706	-35.819	0.258	0.137
-155.691	103.095	-0.047	-0.054
-154.677	800.000	0.038	-0.157
-153.662	51.400	0.272	-0.254
-152.647	250.131	0.011	-0.019
-151.633	-200.000	-0.013	0.092
-150.618	136.823	-0.141	-0.181
-149.604	372.156	-0.097	-0.194
-148.589	800.000	0.108	0.372
-147.574	465.594	0.162	-0.355
-146.560	-128.432	-0.079	0.011
-145.545	254.582	0.043	-0.072
-144.531	239.261	-0.136	0.223
-143.516	190.678	-0.102	-0.150
-142.502	-22.972	0.286	0.169
-141.487	800.000	0.039	-0.154
-140.472	-200.000	0.048	-0.237
-139.458	104.601	0.121	-0.140
-138.443	308.969	-0.021	0.038
-137.429	-91.922	0.361	-0.100
-136.414	-162.285	0.151	0.007
-135.399	55.195	0.221	-0.209
-134.385	-46.047	-0.210	0.101
-133.370	52.271	0.213	-0.200
-132.356	-188.785	-0.232	0.003
-131.341	67.818	0.271	-0.272
-130.326	-200.000	-0.127	0.000
-129.312	35.281	0.225	0.194
-128.297	546.603	0.052	0.122
-127.283	458.777	0.163	-0.356
-126.268	8.550	0.391	-0.289
-125.253	391.156	0.176	-0.358
-124.239	202.360	-0.133	-0.202
-123.224	49.743	-0.119	-0.110
-122.210	-51.963	0.263	-0.120
-121.195	-37.295	0.279	0.146
-120.180	80.900	-0.150	0.159
-119.166	47.883	0.285	-0.261
-118.151	93.903	-0.234	-0.260
-117.137	-200.000	-0.376	0.001
-116.122	97.136	-0.041	-0.046
-115.107	142.945	-0.137	-0.178
-114.093	-200.000	-0.042	-0.206
-113.078	120.643	-0.157	0.191
-112.064	-47.379	0.204	0.097
-111.049	-13.998	0.312	0.198
-110.034	-93.389	-0.104	0.028
-109.020	26.784	-0.140	0.115
-108.005	373.046	-0.057	-0.114
-106.991	100.820	0.071	-0.081
-105.976	-85.723	0.132	0.040
-104.962	102.459	-0.394	-0.451
-103.947	597.250	0.097	-0.236
-102.932	-16.148	0.119	0.074
-101.918	-117.917	0.284	0.050
-100.903	-200.000	-0.080	-0.351
-99.889	-9.887	0.161	-0.105
-98.874	-200.000	-0.007	-0.322
-97.859	81.557	-0.246	-0.261
-96.845	287.735	-0.109	-0.193
-95.830	-104.649	-0.083	-0.019
-94.816	179.240	-0.054	0.077
-93.801	788.878	0.027	0.072
-92.786	-200.000	0.023	-0.263
-91.772	349.178	-0.130	0.252
-90.757	-161.890	-0.081	0.004
-89.743	433.896	0.074	-0.157
-88.728	800.000	-0.040	0.161
-87.713	800.000	-0.034	0.127
-86.699	-95.625	-0.094	-0.025
-85.684	-133.442	-0.197	0.024
-84.670	-200.000	0.023	0.223
-83.655	-32.292	0.053	-0.029
-82.640	130.380	-0.210	0.264
-81.626	32.681	0.102	0.086
-80.611	-85.907	0.178	0.054
-79.597	-200.000	-0.062	0.393
-78.582	-125.683	-0.056	0.008
-77.567	675.207	-0.096	0.244
-76.553	133.336	0.067	0.085
-75.538	-200.000	-0.041	-0.208
-74.524	-9.347	0.137	0.089
-73.509	-130.290	-0.225	0.030
-72.494	800.000	0.053	-0.195
-71.480	570.270	-0.130	-0.309
-70.465	-103.930	0.244	0.056
-69.451	-200.000	-0.011	-0.145
-68.436	-91.714	0.139	-0.039
-67.422	-200.000	-0.011	-0.107
-66.407	251.141	0.093	-0.154
-65.392	12.288	0.353	0.266
-64.378	611.120	-0.092	-0.224
-63.363	-200.000	-0.015	-0.123
-62.349	800.000	-0.120	-0.419
-61.334	77.869	-0.986	-1.028
-60.319	-69.394	1.008	0.378
-59.305	644.732	-0.484	-1.208
-58.290	261.118	0.719	1.217
-57.276	791.011	0.497	1.336
-56.261	-200.000	114.492	652.390
-55.246	538.155	1523.167	3541.135
-54.232	179.175	2687.172	3844.698
-53.217	108.312	2170.763	2533.113
-52.203	37.983	1697.875	1476.485
-51.188	30.553	1517.078	1268.734
-50.173	28.356	1492.601	1233.436
-49.159	52.197	1551.233	1446.138
-48.144	50.783	1566.030	1450.189
-47.130	30.737	1522.640	1274.438
-46.115	27.657	1507.231	1240.579
-45.100	27.613	1503.833	1237.433
-44.086	27.567	1501.527	1235.174
-43.071	27.470	1500.185	1233.362
-42.057	27.507	1498.435	1232.129
-41.042	27.493	1497.136	1230.916
-40.027	27.432	1496.092	1229.594
-39.013	27.504	1493.913	1228.241
-37.998	27.417	1493.130	1226.966
-36.984	27.516	1491.590	1226.316
-35.969	27.538	1490.128	1225.209
-34.954	27.536	1489.072	1224.283
-33.940	27.453	1487.819	1222.649
-32.925	27.575	1485.863	1221.810
-31.911	27.494	1484.946	1220.463
-30.896	27.549	1483.545	1219.634
-29.881	27.421	1482.573	1217.925
-28.867	27.513	1481.047	1217.239
-27.852	27.453	1480.469	1216.318
-26.838	27.722	1478.142	1216.151
-25.823	27.519	1477.053	1213.856
-24.809	27.526	1475.325	1212.431
-23.794	27.545	1474.022	1211.442
-22.779	27.512	1473.087	1210.402
-21.765	27.454	1472.420	1209.422
-20.750	27.592	1471.050	1209.165
-19.736	27.495	1469.923	1207.545
-18.721	27.494	1468.670	1206.460
-17.706	27.539	1467.472	1205.729
-16.692	27.549	1466.432	1204.894
-15.677	27.594	1465.763	1204.590
-14.663	27.479	1464.928	1203.097
-13.648	27.464	1463.789	1202.017
-12.633	27.488	1463.237	1201.673
-11.619	27.533	1462.327	1201.173
-10.604	27.447	1461.560	1199.930
-9.590	27.488	1460.489	1199.272
-8.575	27.460	1459.788	1198.467
-7.560	27.536	1458.682	1198.009
-6.546	27.511	1457.718	1197.010
-5.531	27.323	1457.249	1195.342
-4.517	27.463	1455.845	1195.061
-3.502	27.503	1454.820	1194.435
-2.487	27.515	1453.765	1193.595
-1.473	27.420	1453.065	1192.351
-0.458	27.520	1451.531	1191.699
0.556	29.111	1441.913	1180.558
1.571	26.080	1416.983	1140.909
2.586	22.590	1360.178	1073.851
3.600	20.979	1278.888	1000.350
4.615	19.771	1233.785	958.295
5.629	17.324	1176.799	901.001
6.644	10.091	1094.032	801.804
7.659	4.785	1056.541	748.792
8.673	4.235	1050.957	742.139
9.688	4.016	1047.756	738.765
10.702	3.790	1046.360	736.642
11.717	3.870	1043.951	735.258
12.731	6.267	1045.982	748.032
13.746	13.776	1056.713	791.587
14.761	20.564	1065.606	830.729
15.775	22.720	1067.392	842.351
16.790	22.231	1066.078	838.909
17.804	21.337	1064.490	833.325
18.819	20.772	1061.848	828.494
19.834	20.183	1061.336	825.220
20.848	20.246	1060.529	824.818
21.863	20.324	1060.225	824.879
22.877	20.270	1059.346	823.866
23.892	19.931	1058.447	821.487
24.907	19.862	1057.833	820.609
25.921	19.747	1057.101	819.424
26.936	19.860	1055.671	818.778
27.950	19.818	1054.801	817.830
28.965	19.783	1054.039	817.002
29.980	19.815	1053.066	816.329
30.994	20.066	1051.858	816.502
32.009	20.177	1051.099	816.363
33.023	20.165	1050.964	816.132
34.038	20.215	1049.715	815.324
35.053	20.026	1049.292	814.033
36.067	19.943	1047.514	812.195
37.082	19.820	1046.746	810.951
38.096	19.827	1046.206	810.494
39.111	19.852	1045.798	810.222
40.126	19.966	1044.880	809.973
41.140	19.964	1043.258	808.634
42.155	19.568	1042.123	805.836
43.169	19.395	1040.910	804.020
44.184	19.297	1039.754	802.597
45.199	19.253	1039.020	801.757
46.213	19.255	1038.101	800.987
47.228	19.409	1037.017	800.792
48.242	19.747	1036.608	801.976
49.257	19.855	1036.231	802.112
50.271	19.956	1034.706	801.329
51.286	19.938	1034.142	800.738
52.301	20.035	1033.597	800.694
53.315	20.139	1032.679	800.390
54.330	19.900	1031.647	798.417
55.344	19.631	1031.185	796.751
56.359	19.562	1029.668	795.187
57.374	19.489	1029.365	794.550
58.388	19.555	1028.269	793.938
59.403	19.377	1027.649	792.571
60.417	19.286	1026.657	791.318
61.432	19.378	1025.944	791.121
62.447	19.354	1025.244	790.397
63.461	19.289	1024.196	789.224
64.476	19.121	1023.617	787.938
65.490	19.024	1022.890	786.864
66.505	19.018	1021.924	786.024
67.520	19.046	1021.163	785.496
68.534	19.028	1020.495	784.831
69.549	19.168	1019.268	784.460
70.563	19.053	1018.501	783.274
71.578	18.999	1018.052	782.614
72.593	18.886	1016.653	780.956
73.607	18.829	1015.334	779.614
74.622	18.744	1014.500	778.518
75.636	18.753	1013.849	777.994
76.651	18.896	1012.958	777.890
77.666	18.899	1012.672	777.613
78.680	19.001	1011.943	777.445
79.695	19.000	1011.212	776.809
80.709	19.034	1010.546	776.385
81.724	19.178	1009.966	776.520
82.739	19.298	1009.529	776.656
83.753	19.487	1008.702	776.799
84.768	19.630	1008.113	776.920
85.782	20.130	1007.799	778.859
86.797	20.445	1007.381	779.882
87.812	20.314	1007.195	779.078
88.826	20.104	1005.636	776.864
89.841	20.088	1004.442	775.801
90.855	20.128	1004.038	775.597
91.870	20.241	1003.449	775.581
92.884	20.385	1002.618	775.513
93.899	20.269	1001.632	774.164
94.914	20.202	1000.680	773.059
95.928	20.124	1000.785	772.726
96.943	20.390	999.438	772.800
97.957	20.033	999.047	770.841
98.972	20.082	997.342	769.678
99.987	20.012	997.157	769.154
101.001	20.267	996.204	769.483
102.016	20.082	995.540	768.082
103.030	19.923	994.389	766.420
104.045	20.089	993.588	766.469
105.060	20.225	992.444	766.119
106.074	19.940	991.588	764.135
107.089	19.852	990.187	762.599
108.103	19.356	989.723	759.988
109.118	19.342	988.177	758.676
110.133	19.258	987.333	757.589
111.147	19.229	986.360	756.646
112.162	19.181	985.268	755.534
113.176	19.189	984.354	754.801
114.191	19.383	983.838	755.188
115.206	19.433	983.533	755.103
116.220	19.352	982.783	754.109
117.235	19.162	981.930	752.556
118.249	19.390	980.257	752.203
119.264	19.235	979.807	751.116
120.279	19.098	979.037	749.860
121.293	19.099	978.631	749.487
122.308	18.952	978.167	748.426
123.322	18.923	976.575	747.019
124.337	18.820	975.415	745.616
125.352	18.743	974.069	744.187
126.366	18.878	972.774	743.717
127.381	18.860	972.372	743.267
128.395	18.851	971.651	742.610
129.410	18.754	971.044	741.662
130.424	18.962	969.663	741.437
131.439	19.032	969.288	741.386
132.454	19.172	968.605	741.404
133.468	19.384	967.607	741.484
134.483	19.202	967.389	740.469
135.497	19.308	966.363	740.075
136.512	19.309	965.906	739.662
137.527	19.411	965.331	739.592
138.541	19.405	964.067	738.532
139.556	19.465	963.672	738.422
140.570	19.425	963.054	737.713
141.585	19.541	962.619	737.809
142.600	19.892	962.015	738.781
143.614	20.000	961.424	738.723
144.629	20.027	961.052	738.488
145.643	20.275	959.649	738.398
146.658	20.090	959.222	737.218
147.673	19.945	957.909	735.528
148.687	19.854	956.528	734.016
149.702	19.488	955.908	731.923
150.716	19.388	954.814	730.599
151.731	19.365	953.957	729.780
152.746	19.356	953.126	729.042
153.760	19.473	952.776	729.203
154.775	19.557	951.727	728.689
155.789	19.723	950.728	728.563
156.804	19.711	950.391	728.186
157.819	19.677	949.653	727.413
158.833	19.874	948.579	727.357
159.848	19.878	948.734	727.426
160.862	20.129	948.326	728.104
161.877	20.152	947.013	727.129
162.892	19.826	945.412	724.471
163.906	19.372	944.631	721.907
164.921	19.308	943.602	720.791
165.935	19.389	942.311	720.078
166.950	19.549	941.503	720.064
167.964	19.548	941.227	719.786
168.979	19.665	939.420	718.827
169.994	19.546	938.458	717.531
171.008	19.361	938.265	716.550
172.023	19.468	937.271	716.174
173.037	19.833	936.844	717.297
174.052	19.947	936.516	717.454
175.067	19.958	935.287	716.496
176.081	19.596	934.140	714.057
177.096	19.329	933.053	712.061
178.110	19.285	932.104	711.093
179.125	19.443	931.509	711.226
180.140	19.352	930.878	710.307
181.154	19.457	930.521	710.404
182.169	19.650	930.009	710.744
183.183	19.910	929.781	711.577
184.198	19.989	929.049	711.279
185.213	19.881	928.865	710.629
186.227	19.884	927.748	709.725
187.242	19.839	927.280	709.119
188.256	20.103	926.360	709.434
189.271	20.219	925.890	709.486
190.286	20.196	925.700	709.184
191.300	19.921	924.475	707.061
192.315	19.553	922.867	704.267
193.329	19.226	921.753	702.021
194.344	19.233	921.051	701.455
195.359	19.275	921.193	701.671
196.373	19.631	919.945	702.103
197.388	19.769	919.681	702.402
198.402	19.887	919.431	702.629
199.417	20.058	919.532	703.336
200.432	20.369	919.035	704.156
201.446	20.561	918.574	704.518
202.461	20.491	918.471	704.097
203.475	20.458	918.533	703.948
204.490	20.502	917.354	703.159
205.504	20.161	915.689	700.443
206.519	20.159	914.361	699.355
207.534	19.859	914.462	698.162
208.548	20.021	913.587	698.084
209.563	19.989	913.012	697.456
210.577	20.069	911.871	696.842
211.592	19.914	911.973	696.236
212.607	20.284	911.739	697.484
213.621	20.472	911.032	697.638
214.636	20.398	910.549	696.907
215.650	20.251	909.464	695.424
216.665	20.282	909.145	695.243
217.680	20.347	908.627	695.048
218.694	20.422	908.414	695.123
219.709	20.491	907.944	694.976
220.723	20.624	906.899	694.647
221.738	20.469	905.847	693.162
222.753	20.216	905.203	691.598
223.767	20.245	904.638	691.222
224.782	20.428	903.751	691.210
225.796	20.700	903.411	691.972
226.811	20.859	902.285	691.679
227.826	20.580	902.030	690.315
228.840	20.316	901.442	688.756
229.855	20.227	900.719	687.790
230.869	20.128	899.967	686.762
231.884	20.263	898.818	686.358
232.899	20.109	898.475	685.427
233.913	20.104	897.559	684.648
234.928	19.987	897.148	683.813
235.942	19.793	896.084	682.176
236.957	19.810	895.450	681.700
237.972	19.794	894.864	681.129
238.986	19.856	894.432	680.984
240.001	19.916	893.698	680.602
241.015	19.923	892.970	680.016
242.030	19.962	892.394	679.668
243.045	20.113	891.898	679.824
244.059	20.303	890.914	679.756
245.074	20.173	891.042	679.286
246.088	20.265	890.167	678.920
247.103	20.429	889.953	679.337
248.117	20.387	889.555	678.809
249.132	20.767	888.902	679.736
250.147	21.084	888.438	680.555
251.161	21.400	888.211	681.556
252.176	21.380	888.084	681.320
253.190	21.614	886.878	681.244
254.205	21.504	886.717	680.631
255.220	21.476	886.297	680.139
256.234	21.371	885.753	679.254
257.249	21.500	884.694	678.883
258.263	21.296	884.426	677.825
259.278	21.387	883.791	677.631
260.293	21.385	882.885	676.871
261.307	21.250	882.676	676.125
262.322	21.504	882.041	676.562
263.336	21.607	881.496	676.485
264.351	21.659	880.695	676.009
265.366	21.565	879.924	674.994
266.380	21.533	879.401	674.413
267.395	21.606	878.910	674.257
268.409	21.399	878.306	672.935
269.424	21.350	877.250	671.881
270.439	21.192	876.585	670.702
271.453	21.229	875.506	669.961
272.468	21.018	874.909	668.635
273.482	21.056	874.315	668.269
274.497	21.189	873.316	667.956
275.512	21.122	872.838	667.273
276.526	20.973	872.627	666.485
277.541	20.946	871.751	665.654
278.555	21.120	871.171	665.815
279.570	21.294	871.095	666.360
280.585	21.609	870.731	667.223
281.599	21.739	870.234	667.282
282.614	21.491	869.035	665.358
283.628	21.215	868.414	663.775
284.643	21.183	867.657	663.017
285.657	21.222	867.234	662.781
286.672	21.271	866.770	662.557
287.687	21.269	866.120	661.993
288.701	21.382	865.530	661.909
289.716	21.349	865.134	661.423
290.730	21.352	864.283	660.727
291.745	21.260	863.954	660.068
292.760	21.362	863.451	660.012
293.774	21.320	863.615	659.920
294.789	21.672	862.535	660.364
295.803	21.660	862.091	659.920
296.818	21.436	861.184	658.322
297.833	21.183	860.624	656.884
298.847	21.163	860.006	656.280
299.862	21.365	858.924	656.154
300.876	21.324	858.089	655.306
301.891	21.509	857.720	655.659
302.906	21.655	857.422	655.919
303.920	21.687	857.268	655.864
304.935	21.919	856.605	656.167
305.949	22.027	856.214	656.211
306.964	22.071	855.642	655.879
307.979	21.674	854.975	653.831
308.993	21.499	854.659	652.875
310.008	21.796	853.990	653.415
311.022	21.938	853.408	653.441
312.037	22.073	852.244	652.993
313.052	21.673	851.894	651.183
314.066	21.555	850.818	649.862
315.081	21.333	849.767	648.180
316.095	21.038	850.068	647.258
317.110	21.362	849.094	647.658
318.125	21.326	848.393	646.933
319.139	21.257	848.044	646.356
320.154	21.172	847.477	645.552
321.168	21.184	846.889	645.090
322.183	21.333	846.403	645.213
323.197	21.307	846.314	644.991
324.212	21.341	845.635	644.543
325.227	21.377	844.956	644.102
326.241	21.466	844.223	643.812
327.256	21.285	843.991	642.913
328.270	21.171	843.509	642.071
329.285	21.205	842.884	641.664
330.300	21.305	842.434	641.632
331.314	21.376	841.137	640.847
332.329	21.323	840.954	640.456
333.343	21.537	840.298	640.685
334.358	21.768	840.155	641.361
335.373	21.707	839.421	640.523
336.387	21.724	839.254	640.402
337.402	21.813	838.691	640.238
338.416	21.881	837.786	639.739
339.431	22.181	837.568	640.611
340.446	22.467	837.054	641.201
341.460	22.287	836.842	640.326
342.475	22.355	836.088	639.942
343.489	22.377	836.143	640.008
344.504	22.573	835.361	640.065
345.519	22.484	835.207	639.566
346.533	22.642	834.368	639.438
347.548	22.576	833.844	638.744
348.562	22.266	833.220	637.084
349.577	22.073	832.425	635.724
350.592	21.811	831.625	634.107
351.606	21.615	831.094	632.939
352.621	21.772	830.378	632.906
353.635	21.793	829.941	632.591
354.650	21.833	830.040	632.754
355.665	21.847	829.637	632.441
356.679	22.048	828.830	632.495
357.694	22.073	828.252	632.089
358.708	22.312	827.696	632.466
359.723	21.969	827.235	630.825
360.738	22.034	826.938	630.777
361.752	21.995	826.552	630.286
362.767	22.030	825.952	629.899
363.781	22.337	825.704	630.754
364.796	22.603	825.599	631.573
365.810	22.436	825.297	630.687
366.825	22.857	824.850	631.797
367.840	22.738	824.816	631.289
368.854	22.735	824.131	630.699
369.869	22.659	823.284	629.723
370.883	22.340	822.810	628.164
371.898	22.461	821.774	627.749
372.913	22.703	821.048	628.003
373.927	22.686	821.334	628.105
374.942	22.748	820.283	627.467
375.956	22.374	819.652	625.599
376.971	22.569	819.246	625.927
377.986	22.764	818.919	626.312
379.000	23.135	817.848	626.753
380.015	23.179	817.738	626.768
381.029	22.960	817.148	625.485
382.044	22.837	816.668	624.629
383.059	22.673	816.163	623.606
384.073	23.040	815.130	624.058
385.088	22.833	814.787	623.009
386.102	22.618	814.012	621.605
387.117	22.291	813.227	619.797
388.132	22.410	812.745	619.794
389.146	22.494	812.100	619.544
390.161	22.423	812.168	619.290
391.175	22.560	812.190	619.734
392.190	22.816	811.788	620.271
393.205	22.699	811.063	619.253
394.219	22.591	810.066	618.058
395.234	22.444	809.161	616.800
396.248	22.259	809.343	616.234
397.263	22.343	808.082	615.511
398.278	22.102	807.867	614.452
399.292	22.196	807.314	614.307
400.307	22.122	807.164	613.880
401.321	22.156	806.495	613.435
402.336	22.254	806.240	613.528
403.350	22.152	806.122	613.026
404.365	22.367	805.940	613.585
405.380	22.656	805.479	614.187
406.394	22.965	804.843	614.724
407.409	23.130	804.319	614.840
408.423	23.133	804.280	614.769
409.438	23.280	803.636	614.731
410.453	23.432	803.278	614.932
411.467	23.262	803.068	614.126
412.482	23.326	802.399	613.782
413.496	23.276	802.128	613.347
414.511	23.317	802.290	613.559
415.526	23.593	801.189	613.616
416.540	23.473	800.695	612.769
417.555	23.153	800.388	611.374
418.569	23.240	800.083	611.388
419.584	23.183	799.539	610.721
420.599	23.263	798.913	610.465
421.613	164.598	1371.195	1798.712
422.628	142.974	1454.588	1798.794
