DTS Sentinel unit serial number:	SN413079Multiplexer serial number:	ORYXHardware model number:	OX4-SRSoftware version number:	ORYX F/W v4.00 Oryx Data Collector v3.7.2.0data status	okinstallation	princeton_trtdifferential loss correction	single-endedforward channel	channel 3reverse channel	N/Adate	2019/09/14time	00:24:34forward acquisition time	60.00reverse acquisition time	0.00gamma	496.2192k internal	0.2341k external	0.2341temperature offset calibration	1.0056default loss term (dB/km)	0.3790temperature slope calibration	1.0000multiplexer offset coefficient	1.0000multiplexer slope coefficient	1.0000fibre end	0.00T internal ref (°C)	26.50T ext. ref 1 (°C)	3.17T ext. ref 2 (°C)	21.31length (m)	temperature (°C)	Stokes	anti-Stokes-747.200	-127.131	0.196	0.029
-746.185	60.035	-0.306	0.303
-745.171	15.141	-0.086	0.068
-744.156	-78.350	0.168	-0.058
-743.142	1.930	0.063	0.046
-742.127	-167.136	0.072	0.003
-741.112	273.845	0.111	-0.197
-740.098	-49.351	-0.302	0.144
-739.083	-200.000	0.053	-0.387
-738.069	-88.090	-0.479	0.144
-737.054	136.339	-0.056	0.073
-736.039	437.275	0.176	-0.384
-735.025	-200.000	0.107	0.607
-734.010	-56.210	0.219	0.098
-732.996	75.411	0.107	0.113
-731.981	34.250	-0.227	0.199
-730.966	-33.862	0.321	0.177
-729.952	-64.807	0.207	0.084
-728.937	56.396	-0.296	-0.288
-727.923	85.542	-0.261	-0.287
-726.908	49.083	-0.167	-0.157
-725.894	121.474	-0.251	0.314
-724.879	-14.553	-0.130	0.084
-723.864	310.578	0.115	-0.215
-722.850	-129.264	-0.182	-0.025
-721.835	8.230	0.121	-0.091
-720.821	-94.683	0.351	-0.095
-719.806	62.598	0.184	0.184
-718.791	60.245	-0.099	-0.098
-717.777	-154.426	-0.358	-0.024
-716.762	800.000	0.047	-0.174
-715.748	-12.879	-0.044	0.028
-714.733	-200.000	0.014	-0.137
-713.718	-46.188	-0.159	0.079
-712.704	-52.408	0.193	-0.089
-711.689	-200.000	-0.026	-0.416
-710.675	-96.077	-0.055	-0.015
-709.660	194.015	-0.117	-0.177
-708.645	-89.166	-0.179	0.053
-707.631	-51.257	0.053	-0.025
-706.616	800.000	-0.081	-0.282
-705.602	54.707	-0.124	-0.120
-704.587	-99.196	-0.122	-0.031
-703.572	-85.097	-0.202	0.063
-702.558	-185.289	-0.055	-0.001
-701.543	85.302	-0.084	0.092
-700.529	-45.426	0.103	0.051
-699.514	129.676	0.104	-0.133
-698.499	106.761	-0.035	-0.042
-697.485	-147.934	-0.296	-0.025
-696.470	-200.000	-0.015	-0.490
-695.456	79.564	0.110	-0.118
-694.441	-116.144	0.209	0.039
-693.426	-183.515	-0.222	0.004
-692.412	-200.000	-0.014	-0.116
-691.397	202.308	-0.071	-0.109
-690.383	-8.646	0.182	-0.122
-689.368	74.445	-0.422	-0.443
-688.354	800.000	-0.043	0.164
-687.339	-195.061	0.354	-0.003
-686.324	800.000	0.048	-0.177
-685.310	-180.293	0.332	0.007
-684.295	134.133	0.017	-0.023
-683.281	0.261	0.180	-0.129
-682.266	-84.809	-0.058	0.018
-681.251	-53.195	-0.235	-0.108
-680.237	-35.793	0.081	0.044
-679.222	-71.278	-0.283	0.106
-678.208	187.522	-0.199	-0.297
-677.193	162.077	-0.130	0.182
-676.178	-200.000	-0.011	0.072
-675.164	-200.000	-0.015	-0.145
-674.149	800.000	-0.087	-0.351
-673.135	-0.063	-0.136	0.097
-672.120	219.074	-0.208	-0.332
-671.105	723.664	0.123	-0.327
-670.091	492.620	0.118	-0.271
-669.076	81.242	-0.091	-0.098
-668.062	800.000	-0.044	-0.139
-667.047	-200.000	0.026	0.122
-666.032	800.000	0.047	0.131
-665.018	58.738	0.137	0.135
-664.003	-200.000	0.011	-0.093
-662.989	759.942	0.038	-0.102
-661.974	-138.791	0.105	0.011
-660.959	-4.364	-0.112	-0.077
-659.945	282.055	0.154	-0.276
-658.930	-38.717	-0.157	0.083
-657.916	81.362	0.080	-0.086
-656.901	170.592	-0.206	-0.294
-655.886	235.280	-0.117	-0.193
-654.872	-98.712	0.238	-0.061
-653.857	-99.538	0.209	0.052
-652.843	-200.000	-0.031	0.261
-651.828	-95.732	-0.120	0.032
-650.814	508.344	-0.039	0.091
-649.799	-200.000	-0.006	0.199
-648.784	-77.641	0.019	0.006
-647.770	-107.508	0.179	0.039
-646.755	-109.453	-0.178	-0.038
-645.741	792.785	-0.103	-0.282
-644.726	-97.374	-0.069	-0.018
-643.711	19.728	0.151	-0.122
-642.697	-119.285	0.120	0.021
-641.682	184.815	-0.067	0.099
-640.668	-200.000	-0.015	0.169
-639.653	619.209	0.161	-0.405
-638.638	74.470	0.125	-0.131
-637.624	37.761	0.151	-0.133
-636.609	-20.989	-0.111	-0.068
-635.595	152.693	-0.251	-0.343
-634.580	-200.000	-0.021	-0.229
-633.565	-200.000	-0.023	-0.198
-632.551	199.509	0.107	-0.164
-631.536	97.777	0.117	0.134
-630.522	600.599	-0.046	0.113
-629.507	-200.000	-0.012	0.129
-628.492	-168.152	0.219	-0.008
-627.478	728.149	0.068	0.180
-626.463	599.276	-0.068	0.169
-625.449	476.669	0.089	-0.200
-624.434	-200.000	0.028	-0.250
-623.419	538.786	0.098	0.233
-622.405	427.201	-0.074	-0.159
-621.390	-76.767	-0.231	0.081
-620.376	530.970	-0.095	0.225
-619.361	-200.000	0.020	0.118
-618.346	63.758	0.257	-0.257
-617.332	202.794	-0.128	-0.197
-616.317	-115.339	0.132	-0.025
-615.303	-59.412	0.198	-0.085
-614.288	-60.297	-0.337	0.143
-613.273	712.042	-0.065	-0.173
-612.259	-200.000	-0.041	0.211
-611.244	-200.000	0.036	-0.322
-610.230	135.165	0.188	0.244
-609.215	-200.000	0.016	0.388
-608.201	-69.149	-0.248	0.095
-607.186	-23.920	-0.121	0.072
-606.171	-124.289	-0.092	-0.014
-605.157	163.237	-0.098	0.137
-604.142	7.312	-0.132	0.098
-603.128	800.000	-0.060	-0.246
-602.113	22.345	-0.166	-0.136
-601.098	-200.000	-0.055	-0.450
-600.084	-111.495	0.067	0.014
-599.069	74.394	-0.132	0.138
-598.055	-166.373	0.139	-0.006
-597.040	206.696	-0.084	0.130
-596.025	-200.000	-0.030	0.190
-595.011	291.123	0.086	0.155
-593.996	-14.552	0.069	0.044
-592.982	-97.700	0.165	-0.043
-591.967	-200.000	-0.050	-0.263
-590.952	262.613	0.085	-0.148
-589.938	33.756	-0.014	0.012
-588.923	770.840	0.063	0.172
-587.909	15.645	0.161	0.126
-586.894	46.918	0.148	0.137
-585.879	105.772	0.119	-0.141
-584.865	-60.066	-0.120	-0.051
-583.850	800.000	0.056	-0.242
-582.836	386.395	-0.114	-0.234
-581.821	-110.321	-0.259	0.054
-580.806	-35.916	0.337	-0.182
-579.792	-143.449	0.176	-0.017
-578.777	40.659	0.262	0.235
-577.763	746.002	0.075	-0.202
-576.748	-56.732	-0.515	-0.227
-575.733	170.629	-0.101	-0.144
-574.719	166.088	-0.093	0.131
-573.704	-118.802	0.050	0.009
-572.690	-200.000	0.024	0.351
-571.675	-200.000	-0.005	0.021
-570.661	-200.000	0.036	-0.301
-569.646	-41.755	0.250	0.128
-568.631	70.887	0.320	-0.329
-567.617	179.177	-0.048	-0.070
-566.602	-162.761	-0.345	0.017
-565.588	97.640	0.072	0.083
-564.573	-84.224	-0.165	-0.052
-563.558	-165.398	0.266	-0.012
-562.544	93.533	-0.174	-0.196
-561.529	289.192	-0.121	0.218
-560.515	520.074	0.036	0.084
-559.500	800.000	0.041	0.150
-558.485	313.879	-0.172	-0.323
-557.471	800.000	-0.087	-0.291
-556.456	0.928	-0.430	-0.306
-555.442	28.242	-0.049	0.041
-554.427	194.754	0.092	-0.138
-553.412	20.083	-0.102	-0.082
-552.398	18.753	-0.325	-0.259
-551.383	346.123	0.147	0.288
-550.369	20.928	0.124	0.100
-549.354	-200.000	0.006	0.211
-548.339	800.000	0.017	-0.061
-547.325	298.720	0.039	-0.071
-546.310	-194.967	-0.180	0.001
-545.296	-150.066	0.263	-0.020
-544.281	-96.877	0.118	-0.031
-543.266	188.182	-0.175	-0.261
-542.252	-160.710	0.228	0.012
-541.237	173.514	-0.080	-0.115
-540.223	104.021	-0.103	0.120
-539.208	-79.774	-0.318	0.107
-538.193	110.264	0.211	0.252
-537.179	113.139	-0.282	0.340
-536.164	-162.240	0.041	-0.002
-535.150	-22.167	-0.217	0.131
-534.135	-166.730	-0.306	-0.013
-533.121	-78.435	0.262	0.089
-532.106	7.615	-0.153	0.114
-531.091	-30.908	0.355	0.199
-530.077	-11.559	-0.326	0.213
-529.062	-200.000	0.041	-0.286
-528.048	-200.000	-0.019	0.132
-527.033	193.024	-0.058	-0.087
-526.018	-80.897	-0.157	-0.052
-525.004	-166.263	0.130	0.005
-523.989	-200.000	-0.022	0.131
-522.975	43.941	-0.309	0.281
-521.960	216.341	0.095	0.151
-520.945	-63.231	0.189	0.078
-519.931	663.197	-0.096	-0.246
-518.916	104.512	-0.148	0.173
-517.902	387.464	-0.085	0.175
-516.887	10.325	0.074	0.056
-515.872	-189.626	-0.437	-0.005
-514.858	64.807	0.300	0.301
-513.843	-10.317	-0.051	-0.033
-512.829	66.369	-0.186	0.188
-511.814	-32.454	0.333	0.184
-510.799	69.953	-0.126	-0.129
-509.785	-200.000	-0.045	-0.270
-508.770	-118.369	0.333	0.059
-507.756	741.240	-0.050	-0.134
-506.741	-106.019	0.160	0.036
-505.726	-200.000	-0.038	0.261
-504.712	113.014	0.069	0.083
-503.697	800.000	-0.100	0.419
-502.683	-167.836	0.200	0.008
-501.668	-19.454	-0.226	-0.139
-500.653	537.985	-0.105	0.247
-499.639	90.139	0.071	-0.079
-498.624	-200.000	-0.040	-0.544
-497.610	-200.000	0.065	-0.340
-496.595	-122.458	-0.370	0.060
-495.581	-121.946	-0.087	-0.014
-494.566	123.274	-0.101	-0.125
-493.551	154.153	-0.180	0.246
-492.537	-37.824	0.360	0.190
-491.522	237.825	0.164	-0.270
-490.508	383.369	0.048	-0.098
-489.493	800.000	-0.062	-0.180
-488.478	-23.157	-0.386	-0.231
-487.464	54.996	-0.108	-0.104
-486.449	-200.000	0.002	-0.081
-485.435	-200.000	0.039	0.213
-484.420	-28.959	0.196	0.112
-483.405	117.114	-0.137	-0.167
-482.391	49.515	0.071	-0.066
-481.376	-41.214	0.042	0.021
-480.362	76.007	-0.197	0.206
-479.347	129.806	0.168	0.213
-478.332	-188.314	0.128	0.002
-477.318	-200.000	-0.024	-0.222
-476.303	-141.664	-0.361	0.036
-475.289	76.598	0.306	-0.322
-474.274	-113.898	0.230	-0.044
-473.259	103.058	-0.161	0.187
-472.245	-5.482	0.336	-0.229
-471.230	-137.118	-0.438	0.050
-470.216	419.267	-0.190	-0.404
-469.201	-200.000	0.001	-0.027
-468.186	129.455	-0.195	0.247
-467.172	-21.270	0.229	-0.139
-466.157	77.165	0.354	-0.373
-465.143	-39.277	0.446	-0.232
-464.128	-200.000	0.008	0.040
-463.113	-37.642	-0.064	0.034
-462.099	-121.957	-0.197	0.032
-461.084	-28.890	-0.297	0.169
-460.070	19.878	-0.158	0.126
-459.055	800.000	-0.085	0.265
-458.040	325.727	-0.070	0.132
-457.026	140.081	0.394	-0.515
-456.011	126.007	0.122	-0.153
-454.997	-200.000	0.035	0.448
-453.982	116.850	-0.033	-0.040
-452.968	319.130	0.109	0.206
-451.953	-74.658	-0.086	0.031
-450.938	800.000	-0.059	-0.176
-449.924	-183.861	0.630	-0.011
-448.909	-173.202	0.195	-0.006
-447.895	-47.042	0.287	-0.139
-446.880	800.000	-0.036	-0.101
-445.865	91.576	0.028	-0.031
-444.851	469.277	0.177	-0.393
-443.836	11.027	-0.283	-0.215
-442.822	157.032	-0.109	-0.149
-441.807	72.903	-0.161	0.167
-440.792	-161.744	-0.155	-0.008
-439.778	223.040	-0.075	0.120
-438.763	19.052	0.140	0.111
-437.749	800.000	-0.058	0.210
-436.734	-166.328	-0.257	0.011
-435.719	-200.000	0.007	0.035
-434.705	-200.000	0.067	0.530
-433.690	-200.000	0.007	0.170
-432.676	179.187	0.245	-0.355
-431.661	101.178	-0.104	-0.120
-430.646	-83.189	-0.039	-0.012
-429.632	7.659	-0.125	-0.093
-428.617	373.646	0.125	-0.252
-427.603	-102.477	-0.129	-0.031
-426.588	-95.513	0.258	-0.069
-425.573	-4.402	0.089	0.061
-424.559	-200.000	0.010	0.064
-423.544	792.410	0.048	0.132
-422.530	350.487	0.194	-0.380
-421.515	211.730	-0.026	0.041
-420.500	-137.172	-0.372	0.042
-419.486	-96.979	0.044	-0.011
-418.471	-87.195	0.173	0.052
-417.457	-19.024	-0.084	-0.051
-416.442	142.091	-0.273	-0.359
-415.428	-184.259	0.216	0.004
-414.413	-92.197	-0.293	0.082
-413.398	110.973	0.079	0.094
-412.384	-52.723	0.060	0.027
-411.369	-200.000	0.061	-0.429
-410.355	53.531	0.079	-0.075
-409.340	-51.897	-0.307	-0.141
-408.325	-76.311	0.261	0.091
-407.311	176.893	0.070	-0.101
-406.296	-200.000	-0.005	-0.060
-405.282	-61.531	0.078	-0.032
-404.267	-77.213	-0.350	-0.121
-403.252	-48.223	-0.094	-0.045
-402.238	-200.000	-0.005	-0.247
-401.223	168.936	0.045	-0.063
-400.209	139.271	0.149	0.194
-399.194	106.045	-0.164	0.192
-398.179	32.817	-0.189	0.162
-397.165	-17.137	-0.142	-0.088
-396.150	800.000	-0.111	0.389
-395.136	-18.464	-0.163	0.100
-394.121	27.391	0.121	0.100
-393.106	305.017	-0.117	0.214
-392.092	-200.000	-0.026	0.125
-391.077	800.000	-0.106	-0.318
-390.063	66.790	0.164	-0.165
-389.048	-150.942	-0.030	-0.002
-388.033	-61.387	0.293	0.122
-387.019	-99.251	-0.103	0.026
-386.004	-73.760	-0.296	-0.107
-384.990	486.107	0.075	0.170
-383.975	-31.975	0.240	-0.133
-382.960	800.000	0.108	-0.305
-381.946	-200.000	-0.023	0.198
-380.931	-82.100	0.274	0.088
-379.917	-55.901	-0.392	-0.173
-378.902	-59.391	0.060	0.026
-377.888	466.216	-0.007	0.015
-376.873	-200.000	0.018	0.115
-375.858	69.883	-0.193	-0.196
-374.844	-66.978	0.076	0.029
-373.829	-20.986	0.260	0.157
-372.815	800.000	0.104	-0.357
-371.800	169.524	0.118	-0.167
-370.785	-200.000	0.012	0.201
-369.771	15.787	-0.219	-0.170
-368.756	187.284	-0.072	0.106
-367.742	-15.130	0.317	-0.201
-366.727	800.000	-0.043	0.154
-365.712	-88.956	0.176	0.051
-364.698	-9.154	0.128	-0.085
-363.683	-200.000	0.065	0.283
-362.669	167.280	-0.204	0.286
-361.654	109.223	0.196	0.232
-360.639	-83.302	0.149	0.047
-359.625	-64.822	0.373	0.149
-358.610	-200.000	0.021	-0.249
-357.596	-200.000	-0.045	-0.369
-356.581	326.824	0.078	0.147
-355.566	-84.143	-0.083	-0.026
-354.552	-200.000	-0.005	0.045
-353.537	186.961	0.044	-0.065
-352.523	-200.000	-0.060	0.276
-351.508	272.951	0.127	0.222
-350.493	-200.000	0.007	-0.139
-349.479	241.747	0.135	-0.222
-348.464	-32.570	0.159	-0.087
-347.450	-61.381	-0.106	-0.044
-346.435	-22.707	-0.069	-0.041
-345.420	-2.654	0.065	-0.045
-344.406	45.434	0.252	-0.229
-343.391	-200.000	-0.014	0.230
-342.377	800.000	0.048	0.151
-341.362	-81.602	0.254	0.082
-340.348	158.163	-0.066	0.090
-339.333	41.815	-0.274	0.245
-338.318	-109.595	0.233	-0.049
-337.304	288.764	-0.043	-0.077
-336.289	-200.000	0.005	0.097
-335.275	-105.937	-0.285	0.063
-334.260	393.467	-0.094	-0.193
-333.245	-59.725	-0.151	0.064
-332.231	563.537	0.136	0.325
-331.216	800.000	-0.070	0.191
-330.202	-126.508	0.277	-0.041
-329.187	-110.818	-0.443	-0.090
-328.172	-200.000	-0.021	-0.284
-327.158	800.000	-0.099	0.327
-326.143	800.000	0.104	-0.292
-325.129	35.593	0.351	-0.304
-324.114	95.784	0.207	-0.233
-323.099	105.682	0.050	-0.058
-322.085	800.000	-0.073	-0.306
-321.070	725.073	0.064	0.168
-320.056	-141.179	0.183	-0.018
-319.041	-10.880	-0.202	-0.131
-318.026	-112.067	0.221	-0.044
-317.012	-92.202	0.180	-0.050
-315.997	-146.464	0.106	-0.009
-314.983	38.874	0.129	-0.114
-313.968	-86.230	-0.365	0.111
-312.953	-200.000	-0.020	0.098
-311.939	-200.000	0.035	-0.172
-310.924	-184.101	-0.120	0.002
-309.910	248.072	0.091	0.152
-308.895	-46.031	-0.315	0.153
-307.880	-17.059	-0.136	0.085
-306.866	-200.000	0.027	0.201
-305.851	101.130	0.109	-0.125
-304.837	681.068	-0.126	0.323
-303.822	-35.733	0.065	-0.035
-302.807	-107.112	-0.189	-0.041
-301.793	7.762	-0.215	0.159
-300.778	-200.000	0.344	0.000
-299.764	-127.701	0.133	0.019
-298.749	-200.000	-0.014	-0.186
-297.735	364.953	-0.050	0.099
-296.720	588.748	0.140	0.339
-295.705	-200.000	-0.004	0.021
-294.691	-9.210	-0.195	0.129
-293.676	32.528	-0.186	0.158
-292.662	-200.000	-0.026	0.179
-291.647	124.567	-0.102	0.126
-290.632	-200.000	0.006	-0.218
-289.618	160.899	-0.127	0.175
-288.603	-200.000	0.044	0.194
-287.589	-105.962	0.257	0.057
-286.574	-143.665	0.223	0.021
-285.559	-36.564	-0.279	0.148
-284.545	214.987	-0.049	0.076
-283.530	-72.736	-0.171	-0.062
-282.516	-119.331	-0.311	0.053
-281.501	180.315	0.100	-0.145
-280.486	178.467	0.063	-0.091
-279.472	800.000	-0.057	-0.240
-278.457	-200.000	-0.007	0.219
-277.443	-5.344	-0.204	0.138
-276.428	-28.125	-0.097	0.055
-275.413	-152.930	0.118	-0.008
-274.399	-150.828	0.125	-0.009
-273.384	35.427	0.383	0.331
-272.370	-200.000	0.008	-0.208
-271.355	-118.728	0.188	-0.033
-270.340	173.060	0.051	-0.072
-269.326	-113.535	-0.151	0.029
-268.311	162.968	-0.060	-0.083
-267.297	-200.000	0.039	-0.344
-266.282	-57.173	0.150	0.065
-265.267	800.000	-0.034	-0.141
-264.253	800.000	0.073	-0.232
-263.238	156.501	-0.107	-0.146
-262.224	-76.663	-0.285	0.098
-261.209	-39.273	-0.041	-0.021
-260.195	-200.000	-0.001	-0.204
-259.180	275.306	-0.068	0.119
-258.165	-80.581	-0.213	-0.070
-257.151	155.803	0.056	-0.076
-256.136	-200.000	0.006	0.171
-255.122	195.576	-0.030	0.045
-254.107	-5.474	-0.256	0.173
-253.092	609.300	-0.117	0.287
-252.078	800.000	-0.023	0.067
-251.063	97.293	-0.236	0.266
-250.049	-31.496	0.201	0.111
-249.034	65.649	0.230	-0.229
-248.019	-8.510	-0.153	-0.101
-247.005	707.395	0.032	0.083
-245.990	-81.286	0.204	0.066
-244.976	-85.295	0.004	0.001
-243.961	-134.871	0.472	-0.056
-242.946	330.574	-0.156	0.296
-241.932	-200.000	0.049	-0.223
-240.917	-93.508	0.294	-0.080
-239.903	800.000	0.091	0.276
-238.888	-176.704	0.054	-0.001
-237.873	800.000	-0.043	0.150
-236.859	134.106	0.126	0.160
-235.844	143.147	0.288	-0.377
-234.830	-200.000	-0.012	0.078
-233.815	-21.228	0.366	0.220
-232.800	-135.335	-0.226	-0.027
-231.786	-200.000	0.002	-0.042
-230.771	-200.000	0.048	-0.330
-229.757	800.000	0.048	-0.176
-228.742	-105.381	-0.248	0.055
-227.727	234.608	0.197	0.319
-226.713	508.145	-0.156	0.355
-225.698	-125.560	-0.066	0.010
-224.684	800.000	0.093	0.270
-223.669	-200.000	0.050	-0.277
-222.655	8.314	0.140	0.104
-221.640	323.440	0.050	-0.094
-220.625	258.459	-0.230	-0.389
-219.611	-70.670	0.106	0.039
-218.596	800.000	-0.087	-0.246
-217.582	5.181	-0.223	-0.161
-216.567	355.376	-0.058	-0.114
-215.552	-112.886	-0.303	0.059
-214.538	800.000	-0.110	0.401
-213.523	118.688	-0.324	0.393
-212.509	800.000	-0.070	-0.275
-211.494	-87.547	-0.288	-0.086
-210.479	187.003	0.094	-0.137
-209.465	-90.349	0.317	-0.090
-208.450	-41.097	0.140	0.071
-207.436	800.000	-0.071	0.202
-206.421	-6.511	0.256	0.171
-205.406	2.840	0.325	0.232
-204.392	-120.397	-0.052	0.009
-203.377	-189.011	0.129	0.002
-202.363	648.336	-0.071	-0.179
-201.348	-10.509	0.187	0.121
-200.333	-87.916	-0.024	-0.007
-199.319	-200.000	0.004	0.034
-198.304	-82.841	0.257	-0.081
-197.290	-200.000	-0.013	0.068
-196.275	40.255	-0.120	0.106
-195.260	-200.000	0.018	0.253
-194.246	-24.291	0.237	0.139
-193.231	-151.492	0.172	0.012
-192.217	-200.000	0.006	-0.400
-191.202	-200.000	-0.028	0.319
-190.187	-20.600	-0.186	0.112
-189.173	-81.275	0.218	-0.070
-188.158	-167.066	-0.164	-0.007
-187.144	138.349	-0.070	-0.090
-186.129	-123.981	-0.097	0.015
-185.114	110.050	0.154	-0.181
-184.100	301.017	0.072	0.130
-183.085	-200.000	0.033	0.236
-182.071	800.000	-0.072	-0.261
-181.056	-120.365	0.325	-0.054
-180.042	216.626	-0.063	-0.098
-179.027	59.557	-0.131	-0.127
-178.012	-200.000	-0.348	0.001
-176.998	113.735	-0.087	-0.104
-175.983	800.000	0.028	0.097
-174.969	-44.991	0.139	0.068
-173.954	-127.654	-0.218	0.031
-172.939	18.812	0.201	0.158
-171.925	-28.160	0.243	0.137
-170.910	322.962	-0.082	0.153
-169.896	-17.268	-0.194	-0.120
-168.881	-32.048	-0.361	0.198
-167.866	-79.551	-0.321	-0.106
-166.852	-137.356	-0.091	0.010
-165.837	-74.638	0.213	0.075
-164.823	-142.024	-0.174	-0.017
-163.808	-200.000	-0.025	0.131
-162.793	213.625	-0.055	-0.085
-161.779	-200.000	-0.001	-0.168
-160.764	-200.000	0.007	0.109
-159.750	800.000	0.025	-0.077
-158.735	-114.784	0.189	0.035
-157.720	-46.711	0.048	0.023
-156.706	-122.693	0.170	-0.027
-155.691	3.028	0.097	-0.069
-154.677	-200.000	-0.035	0.247
-153.662	-3.842	-0.375	0.255
-152.647	384.954	0.054	-0.110
-151.633	800.000	0.084	-0.276
-150.618	-36.004	0.208	-0.110
-149.604	-53.508	0.240	0.108
-148.589	-148.044	0.281	0.023
-147.574	70.265	-0.050	-0.051
-146.560	800.000	0.116	0.399
-145.545	-95.505	0.227	0.060
-144.531	111.819	0.183	0.216
-143.516	17.672	-0.094	-0.073
-142.502	-200.000	0.004	-0.033
-141.487	-107.186	0.274	-0.059
-140.472	-200.000	-0.003	-0.483
-139.458	-200.000	0.009	-0.122
-138.443	-200.000	0.024	0.233
-137.429	-104.619	0.210	0.047
-136.414	-80.718	0.113	0.037
-135.399	-11.143	0.387	0.250
-134.385	181.594	-0.020	0.028
-133.370	800.000	-0.071	-0.242
-132.356	148.436	-0.045	0.059
-131.341	-200.000	0.025	0.120
-130.326	-6.700	-0.129	-0.086
-129.312	-200.000	-0.013	-0.234
-128.297	123.731	0.139	0.170
-127.283	-200.000	0.023	0.139
-126.268	538.006	-0.065	-0.150
-125.253	-86.778	0.090	-0.027
-124.239	93.135	0.324	-0.359
-123.224	2.580	0.345	-0.245
-122.210	-48.412	-0.128	0.060
-121.195	-200.000	-0.003	-0.138
-120.180	800.000	-0.039	-0.149
-119.166	800.000	-0.069	0.197
-118.151	-53.612	0.104	0.047
-117.137	-177.215	-0.239	-0.006
-116.122	-200.000	0.001	0.164
-115.107	133.795	-0.247	0.313
-114.093	-200.000	0.017	-0.082
-113.078	-137.020	-0.273	0.031
-112.064	5.710	0.264	-0.191
-111.049	226.906	-0.018	-0.029
-110.034	120.432	0.195	0.236
-109.020	-156.607	-0.225	-0.014
-108.005	-39.567	0.196	-0.100
-106.991	800.000	-0.077	-0.293
-105.976	-25.325	-0.027	-0.016
-104.962	-90.485	-0.262	0.074
-103.947	741.369	0.073	-0.193
-102.932	-122.487	0.179	-0.028
-101.918	94.754	0.115	-0.128
-100.903	-87.984	0.212	-0.062
-99.889	-124.861	-0.162	0.024
-98.874	800.000	0.049	-0.197
-97.859	90.686	-0.152	0.166
-96.845	-85.571	0.511	-0.155
-95.830	731.453	-0.025	0.065
-94.816	-4.642	0.082	-0.055
-93.801	197.340	-0.117	0.175
-92.786	-37.206	0.136	-0.071
-91.772	-21.239	-0.136	0.081
-90.757	-99.107	0.281	-0.069
-89.743	-147.451	-0.140	0.012
-88.728	120.234	-0.299	-0.363
-87.713	-200.000	-0.019	0.239
-86.699	-200.000	0.027	-0.395
-85.684	-49.828	-0.069	0.032
-84.670	-200.000	0.010	0.072
-83.655	94.733	-0.094	0.104
-82.640	-200.000	0.004	-0.164
-81.626	96.074	-0.077	-0.086
-80.611	-109.387	0.331	-0.068
-79.597	800.000	0.068	-0.220
-78.582	519.857	-0.144	-0.330
-77.567	800.000	0.032	-0.127
-76.553	62.935	0.091	0.089
-75.538	596.415	-0.127	0.306
-74.524	800.000	0.038	-0.131
-73.509	31.311	0.133	-0.112
-72.494	39.203	0.282	-0.246
-71.480	129.160	0.204	-0.254
-70.465	-13.085	0.184	0.117
-69.451	-53.231	-0.062	-0.028
-68.436	-200.000	-0.020	0.295
-67.422	800.000	0.047	0.191
-66.407	-31.151	0.243	-0.133
-65.392	-50.805	0.361	0.166
-64.378	178.410	-0.045	-0.064
-63.363	56.303	-0.163	0.155
-62.349	53.746	-0.244	0.229
-61.334	47.265	-0.957	-0.869
-60.319	265.455	0.502	0.854
-59.305	800.000	-0.342	-1.070
-58.290	243.522	0.690	1.129
-57.276	326.551	0.901	1.684
-56.261	-200.000	116.469	645.445
-55.246	504.634	1537.425	3472.665
-54.232	177.213	2705.360	3842.714
-53.217	104.720	2170.468	2495.448
-52.203	37.102	1686.953	1456.742
-51.188	29.645	1502.760	1247.513
-50.173	27.454	1478.211	1212.517
-49.159	49.778	1538.782	1414.717
-48.144	48.488	1553.028	1418.987
-47.130	29.711	1508.679	1252.675
-46.115	26.755	1493.284	1219.979
-45.100	26.551	1490.108	1215.970
-44.086	26.571	1487.830	1214.194
-43.071	26.522	1485.974	1212.304
-42.057	26.357	1484.703	1210.113
-41.042	26.480	1483.308	1209.755
-40.027	26.398	1481.932	1208.034
-39.013	26.478	1480.201	1207.108
-37.998	26.358	1479.258	1205.495
-36.984	26.446	1478.709	1205.583
-35.969	26.451	1476.973	1204.151
-34.954	26.488	1475.213	1202.918
-33.940	26.451	1473.945	1201.590
-32.925	26.509	1472.689	1200.905
-31.911	26.559	1471.195	1199.967
-30.896	26.585	1469.568	1198.767
-29.881	26.586	1468.388	1197.765
-28.867	26.560	1467.257	1196.619
-27.852	26.655	1465.996	1196.171
-26.838	26.629	1464.746	1194.933
-25.823	26.581	1463.467	1193.525
-24.809	26.555	1461.480	1191.688
-23.794	26.493	1460.242	1190.221
-22.779	26.554	1459.010	1189.570
-21.765	26.507	1458.192	1188.552
-20.750	26.661	1456.612	1188.224
-19.736	26.484	1455.997	1186.512
-18.721	26.503	1454.911	1185.706
-17.706	26.438	1454.155	1184.617
-16.692	26.490	1452.783	1183.791
-15.677	26.490	1451.225	1182.474
-14.663	26.569	1450.810	1182.611
-13.648	26.496	1450.141	1181.541
-12.633	26.452	1448.877	1180.178
-11.619	26.564	1447.793	1179.979
-10.604	26.412	1447.262	1178.505
-9.590	26.473	1446.105	1177.912
-8.575	26.483	1445.266	1177.252
-7.560	26.397	1444.600	1176.100
-6.546	26.460	1443.616	1175.662
-5.531	26.421	1442.859	1174.745
-4.517	26.629	1441.555	1174.987
-3.502	26.396	1440.739	1172.763
-2.487	26.506	1439.913	1172.761
-1.473	26.466	1438.668	1171.437
-0.458	26.457	1437.423	1170.322
0.556	26.718	1427.596	1159.244
1.571	23.689	1403.171	1120.238
2.586	20.322	1342.460	1051.313
3.600	18.736	1261.031	978.427
4.615	17.585	1217.276	938.057
5.629	15.094	1161.448	881.853
6.644	8.637	1080.331	788.464
7.659	3.911	1044.279	739.535
8.673	3.223	1039.329	732.693
9.688	3.186	1036.263	730.287
10.702	3.083	1035.153	728.952
11.717	3.208	1032.692	727.749
12.731	5.087	1033.701	737.281
13.746	11.581	1042.550	774.391
14.761	17.869	1050.791	810.392
15.775	19.808	1052.206	820.624
16.790	19.254	1050.993	816.976
17.804	18.269	1048.861	810.584
18.819	17.507	1046.973	805.451
19.834	16.998	1045.815	802.085
20.848	16.793	1045.627	800.898
21.863	16.690	1044.465	799.449
22.877	16.486	1043.968	798.036
23.892	16.516	1042.745	797.172
24.907	16.347	1042.264	795.937
25.921	16.356	1041.367	795.225
26.936	16.325	1040.792	794.568
27.950	16.323	1040.110	793.972
28.965	16.257	1038.913	792.677
29.980	16.352	1037.906	792.285
30.994	16.547	1036.696	792.204
32.009	16.618	1035.719	791.718
33.023	16.723	1034.697	791.357
34.038	16.674	1034.233	790.703
35.053	16.679	1032.982	789.703
36.067	16.546	1031.915	788.195
37.082	16.540	1030.726	787.188
38.096	16.443	1030.875	786.781
39.111	16.506	1030.147	786.453
40.126	16.613	1028.962	785.974
41.140	16.545	1027.700	784.625
42.155	16.304	1026.386	782.434
43.169	16.284	1025.411	781.527
44.184	16.143	1024.487	780.103
45.199	16.101	1023.074	778.765
46.213	16.128	1022.249	778.193
47.228	16.166	1021.507	777.734
48.242	16.412	1020.462	778.002
49.257	16.444	1019.486	777.338
50.271	16.331	1018.469	775.976
51.286	16.403	1017.699	775.649
52.301	16.362	1017.119	774.948
53.315	16.494	1015.868	774.536
54.330	16.428	1015.658	774.005
55.344	16.260	1014.588	772.348
56.359	16.200	1013.575	771.238
57.374	16.295	1012.154	770.519
58.388	16.335	1011.615	770.226
59.403	16.152	1011.003	768.856
60.417	16.215	1009.908	768.240
61.432	16.056	1009.745	767.326
62.447	16.095	1008.795	766.715
63.461	16.015	1008.527	766.081
64.476	15.934	1007.155	764.604
65.490	16.052	1006.080	764.252
66.505	15.922	1005.263	762.977
67.520	16.015	1004.524	762.766
68.534	16.014	1003.984	762.286
69.549	15.967	1003.198	761.408
70.563	16.044	1002.538	761.190
71.578	16.095	1001.253	760.374
72.593	16.009	1000.470	759.325
73.607	15.858	999.488	757.834
74.622	15.870	998.656	757.192
75.636	15.883	997.879	756.594
76.651	15.777	997.586	755.828
77.666	15.900	996.549	755.526
78.680	15.881	995.737	754.756
79.695	15.910	995.060	754.309
80.709	15.931	994.616	754.001
81.724	16.049	993.882	753.903
82.739	16.102	993.193	753.552
83.753	16.114	992.586	753.078
84.768	16.396	991.904	753.752
85.782	16.502	991.357	753.743
86.797	16.611	990.724	753.681
87.812	16.667	989.526	752.953
88.826	16.577	988.719	751.871
89.841	16.449	987.958	750.656
90.855	16.567	987.006	750.391
91.870	16.630	986.155	749.958
92.884	16.730	985.963	750.185
93.899	16.571	985.330	748.935
94.914	16.640	983.994	748.156
95.928	16.574	983.660	747.546
96.943	16.705	983.010	747.563
97.957	16.708	981.924	746.687
98.972	16.532	981.182	745.279
99.987	16.549	980.497	744.770
101.001	16.589	979.869	744.401
102.016	16.628	979.001	743.850
103.030	16.658	977.917	743.089
104.045	16.592	977.420	742.356
105.060	16.575	976.952	741.864
106.074	16.442	975.373	740.014
107.089	16.460	974.329	739.237
108.103	16.161	973.523	737.255
109.118	16.143	972.456	736.303
110.133	16.102	971.658	735.452
111.147	16.117	970.530	734.600
112.162	15.995	969.918	733.539
113.176	16.150	969.518	733.848
114.191	16.098	968.453	732.752
115.206	16.326	967.467	732.930
116.220	16.347	966.616	732.308
117.235	16.307	965.929	731.554
118.249	16.112	965.225	730.110
119.264	16.155	964.126	729.401
120.279	15.996	963.517	728.187
121.293	16.209	962.277	728.107
122.308	16.043	961.993	727.110
123.322	15.922	960.644	725.506
124.337	15.772	960.163	724.429
125.352	15.771	959.220	723.651
126.366	15.915	957.807	723.141
127.381	15.919	956.460	722.076
128.395	15.954	955.777	721.646
129.410	15.980	954.824	720.973
130.424	15.941	953.814	719.981
131.439	16.021	953.160	719.766
132.454	16.174	952.121	719.570
133.468	16.069	951.918	718.903
134.483	16.254	950.976	718.916
135.497	16.154	950.494	718.062
136.512	16.212	949.578	717.556
137.527	16.176	949.358	717.173
138.541	16.102	948.258	715.964
139.556	16.241	947.322	715.781
140.570	16.224	946.929	715.351
141.585	16.310	946.128	715.046
142.600	16.506	945.549	715.377
143.614	16.421	944.676	714.291
144.629	16.547	943.813	714.110
145.643	16.605	943.664	714.178
146.658	16.676	942.261	713.354
147.673	16.541	941.593	712.213
148.687	16.482	940.489	711.067
149.702	16.337	939.576	709.705
150.716	16.292	938.551	708.680
151.731	16.279	937.690	707.913
152.746	16.292	937.310	707.620
153.760	16.347	936.541	707.207
154.775	16.310	935.686	706.343
155.789	16.481	934.933	706.424
156.804	16.485	934.548	706.089
157.819	16.479	933.916	705.523
158.833	16.518	932.851	704.821
159.848	16.619	932.518	704.927
160.862	16.709	931.714	704.629
161.877	16.719	931.086	704.133
162.892	16.417	929.920	701.935
163.906	16.339	928.852	700.745
164.921	16.230	928.192	699.734
165.935	16.294	927.353	699.302
166.950	16.480	926.170	699.121
167.964	16.511	925.492	698.675
168.979	16.499	924.624	697.905
169.994	16.425	923.764	696.889
171.008	16.390	922.731	695.905
172.023	16.514	921.743	695.609
173.037	16.652	921.230	695.729
174.052	16.750	920.667	695.643
175.067	16.795	919.790	695.103
176.081	16.509	919.232	693.448
177.096	16.350	918.140	691.911
178.110	16.352	917.286	691.216
179.125	16.383	916.651	690.803
180.140	16.445	916.040	690.536
181.154	16.300	915.868	689.751
182.169	16.579	914.814	690.035
183.183	16.592	914.361	689.685
184.198	16.911	913.406	690.202
185.213	16.824	912.752	689.293
186.227	16.692	912.743	688.690
187.242	16.823	911.713	688.383
188.256	16.890	911.149	688.167
189.271	16.964	910.747	688.104
190.286	17.109	909.822	687.929
191.300	16.798	908.737	685.792
192.315	16.471	907.981	683.836
193.329	16.232	907.236	682.248
194.344	16.468	906.287	682.426
195.359	16.334	906.644	682.095
196.373	16.549	905.897	682.339
197.388	16.896	905.082	683.065
198.402	16.686	905.041	682.127
199.417	16.947	904.792	682.931
200.432	16.950	904.097	682.356
201.446	17.180	903.595	682.844
202.461	17.126	903.879	682.781
203.475	17.203	903.031	682.389
204.490	17.200	901.958	681.503
205.504	17.230	900.756	680.657
206.519	17.017	900.419	679.490
207.534	16.991	899.397	678.552
208.548	16.943	898.723	677.793
209.563	16.886	898.132	677.059
210.577	16.934	897.315	676.576
211.592	16.957	896.833	676.244
212.607	17.114	896.383	676.469
213.621	17.195	895.945	676.404
214.636	17.198	895.190	675.786
215.650	17.150	894.788	675.229
216.665	17.129	894.321	674.734
217.680	17.277	893.781	674.854
218.694	17.205	893.419	674.237
219.709	17.324	892.800	674.182
220.723	17.327	891.653	673.268
221.738	17.312	891.227	672.826
222.753	17.250	890.456	671.939
223.767	17.294	889.645	671.442
224.782	17.242	889.226	670.863
225.796	17.408	888.012	670.540
226.811	17.531	887.468	670.555
227.826	17.400	887.186	669.769
228.840	17.360	886.685	669.170
229.855	17.244	885.705	667.917
230.869	17.208	885.096	667.258
231.884	17.279	884.468	667.005
232.899	17.338	883.637	666.549
233.913	17.080	882.625	664.716
234.928	16.931	882.939	664.312
235.942	17.012	881.318	663.351
236.957	17.138	880.984	663.532
237.972	17.123	880.523	663.068
238.986	17.253	879.522	662.760
240.001	17.255	878.677	662.074
241.015	17.113	878.590	661.396
242.030	17.297	877.691	661.376
243.045	17.279	877.286	660.944
244.059	17.267	877.030	660.646
245.074	17.244	876.502	660.102
246.088	17.389	875.539	659.879
247.103	17.474	874.947	659.703
248.117	17.595	874.265	659.600
249.132	17.506	874.212	659.157
250.147	17.822	873.839	660.042
251.161	17.922	873.365	660.009
252.176	18.021	872.517	659.692
253.190	18.071	871.953	659.402
254.205	18.215	871.107	659.257
255.220	18.010	870.960	658.299
256.234	18.100	869.854	657.749
257.249	18.147	869.494	657.600
258.263	18.035	868.987	656.727
259.278	18.058	868.508	656.398
260.293	17.948	868.128	655.632
261.307	18.003	867.317	655.169
262.322	18.158	866.932	655.417
263.336	18.147	866.549	655.027
264.351	18.107	866.131	654.500
265.366	18.487	864.591	654.729
266.380	18.339	864.542	654.069
267.395	18.270	863.694	653.106
268.409	18.261	862.743	652.296
269.424	18.004	862.282	650.908
270.439	18.067	861.827	650.747
271.453	18.170	860.634	650.182
272.468	18.055	860.026	649.227
273.482	18.068	859.499	648.823
274.497	17.999	858.951	648.089
275.512	17.952	858.193	647.282
276.526	18.034	857.367	646.911
277.541	17.934	857.043	646.231
278.555	18.100	856.440	646.349
279.570	18.224	855.989	646.417
280.585	18.379	855.247	646.384
281.599	18.407	854.957	646.216
282.614	18.395	854.281	645.603
283.628	18.187	853.409	644.103
284.643	18.233	852.610	643.615
285.657	18.240	852.428	643.448
286.672	18.068	851.876	642.329
287.687	18.221	851.196	642.331
288.701	18.258	851.043	642.299
289.716	18.108	850.590	641.337
290.730	18.248	849.719	641.151
291.745	18.388	848.976	641.055
292.760	18.249	848.701	640.271
293.774	18.296	848.018	639.874
294.789	18.497	847.355	640.071
295.803	18.548	846.823	639.799
296.818	18.443	846.055	638.772
297.833	18.268	845.633	637.746
298.847	18.283	844.918	637.206
299.862	18.340	843.691	636.436
300.876	18.417	843.658	636.641
301.891	18.348	843.037	635.861
302.906	18.523	842.320	635.911
303.920	18.570	842.036	635.815
304.935	18.697	841.141	635.554
305.949	18.841	840.635	635.648
306.964	18.829	839.937	635.021
307.979	18.564	839.597	633.728
308.993	18.613	839.216	633.565
310.008	18.662	838.399	633.072
311.022	18.761	838.007	633.085
312.037	18.708	837.525	632.469
313.052	18.584	837.118	631.649
314.066	18.635	835.878	630.844
315.081	18.523	835.231	629.891
316.095	18.509	835.029	629.630
317.110	18.320	834.583	628.543
318.125	18.337	834.525	628.506
319.139	18.453	833.553	628.146
320.154	18.399	832.892	627.394
321.168	18.459	832.420	627.201
322.183	18.523	831.730	626.859
323.197	18.493	831.578	626.581
324.212	18.711	830.550	626.548
325.227	18.488	830.610	625.724
326.241	18.674	829.567	625.561
327.256	18.652	829.053	625.037
328.270	18.625	828.594	624.537
329.285	18.711	827.838	624.225
330.300	18.649	827.363	623.588
331.314	18.606	826.943	623.057
332.329	18.710	825.843	622.552
333.343	18.771	825.571	622.511
334.358	18.826	825.387	622.517
335.373	18.900	824.719	622.228
336.387	18.957	824.189	621.979
337.402	18.973	823.786	621.677
338.416	18.945	823.677	621.436
339.431	18.966	823.219	621.112
340.446	19.043	822.257	620.609
341.460	19.162	821.735	620.589
342.475	19.342	820.594	620.323
343.489	19.235	820.532	619.833
344.504	19.242	820.117	619.491
345.519	19.321	819.878	619.539
346.533	19.452	819.466	619.646
347.548	19.259	818.878	618.452
348.562	19.158	818.266	617.574
349.577	19.187	817.394	616.963
350.592	18.933	817.098	615.776
351.606	18.994	816.158	615.231
352.621	18.943	816.201	615.028
353.635	18.903	815.472	614.280
354.650	18.952	814.956	614.012
355.665	19.200	814.399	614.426
356.679	19.251	814.020	614.265
357.694	19.196	814.008	614.005
358.708	19.265	813.016	613.449
359.723	19.271	812.597	613.101
360.738	19.148	812.074	612.213
361.752	19.253	811.458	612.066
362.767	19.367	811.043	612.106
363.781	19.258	810.897	611.554
364.796	19.436	810.732	612.006
365.810	19.529	810.321	611.972
366.825	19.685	809.817	612.089
367.840	19.724	809.470	611.912
368.854	19.697	808.852	611.295
369.869	19.592	808.331	610.478
370.883	19.436	807.809	609.476
371.898	19.510	807.434	609.402
372.913	19.702	806.752	609.511
373.927	19.666	806.044	608.795
374.942	19.762	805.274	608.498
375.956	19.553	804.943	607.456
376.971	19.704	804.314	607.459
377.986	19.800	803.565	607.178
379.000	19.909	803.147	607.189
380.015	19.768	803.383	606.820
381.029	19.938	802.592	606.763
382.044	19.788	801.818	605.602
383.059	19.933	801.070	605.490
384.073	19.882	800.547	604.862
385.088	19.943	800.129	604.707
386.102	19.709	799.836	603.614
387.117	19.844	798.931	603.349
388.132	19.586	798.419	602.008
389.146	19.593	797.996	601.660
390.161	19.614	797.731	601.483
391.175	19.749	797.024	601.366
392.190	19.870	796.835	601.590
393.205	19.855	796.509	601.239
394.219	19.714	796.024	600.330
395.234	19.650	795.709	599.817
396.248	19.646	794.986	599.203
397.263	19.651	794.236	598.604
398.278	19.475	793.919	597.701
399.292	19.450	794.061	597.668
400.307	19.530	793.112	597.178
401.321	19.780	792.455	597.493
402.336	19.535	792.739	596.809
403.350	19.643	792.404	596.878
404.365	19.766	791.389	596.486
405.380	19.823	791.052	596.374
406.394	19.946	790.556	596.370
407.409	20.134	790.374	596.827
408.423	20.144	789.605	596.229
409.438	20.156	789.323	596.005
410.453	20.214	788.870	595.809
411.467	20.160	788.698	595.442
412.482	20.224	788.094	595.152
413.496	20.371	787.799	595.381
414.511	20.431	787.317	595.169
415.526	20.247	787.144	594.355
416.540	20.260	786.891	594.158
417.555	20.363	785.908	593.714
418.569	20.396	785.421	593.406
419.584	20.264	784.913	592.518
420.599	20.297	785.017	592.658
421.613	163.066	1369.499	1798.073
422.628	141.151	1454.624	1798.148
