DTS Sentinel unit serial number:	SN413079Multiplexer serial number:	ORYXHardware model number:	OX4-SRSoftware version number:	ORYX F/W v4.00 Oryx Data Collector v3.7.2.0data status	okinstallation	princeton_trtdifferential loss correction	single-endedforward channel	channel 3reverse channel	N/Adate	2019/09/17time	22:12:34forward acquisition time	60.00reverse acquisition time	0.00gamma	496.2192k internal	0.2345k external	0.2345temperature offset calibration	0.9949default loss term (dB/km)	0.3790temperature slope calibration	1.0000multiplexer offset coefficient	1.0000multiplexer slope coefficient	1.0000fibre end	0.00T internal ref (°C)	25.75T ext. ref 1 (°C)	0.18T ext. ref 2 (°C)	18.62length (m)	temperature (°C)	Stokes	anti-Stokes-747.200	-42.671	0.045	0.023
-746.185	354.700	-0.115	0.228
-745.171	307.099	-0.156	0.291
-744.156	732.760	0.115	0.307
-743.142	65.567	0.117	-0.119
-742.127	-200.000	-0.006	0.089
-741.112	-200.000	0.037	0.170
-740.098	-42.547	-0.343	0.175
-739.083	62.825	-0.272	0.273
-738.069	28.111	-0.070	0.059
-737.054	111.206	0.080	-0.096
-736.039	-2.497	-0.182	0.128
-735.025	52.873	0.333	0.319
-734.010	800.000	-0.026	-0.111
-732.996	-118.829	-0.336	-0.059
-731.981	-200.000	0.005	-0.021
-730.966	352.580	0.131	-0.260
-729.952	-200.000	0.006	-0.310
-728.937	390.296	0.086	0.178
-727.923	-86.114	0.238	-0.074
-726.908	5.011	-0.316	-0.233
-725.894	276.713	-0.044	-0.079
-724.879	-40.770	0.268	0.139
-723.864	-114.647	0.164	0.031
-722.850	-200.000	-0.102	-0.511
-721.835	-200.000	-0.021	0.149
-720.821	-32.742	0.089	-0.050
-719.806	-200.000	-0.044	-0.324
-718.791	110.173	-0.131	-0.158
-717.777	-111.473	0.540	0.110
-716.762	159.705	0.070	-0.097
-715.748	-12.864	0.226	-0.147
-714.733	-200.000	-0.017	-0.165
-713.718	800.000	0.130	0.508
-712.704	-199.100	-0.356	-0.002
-711.689	-172.396	0.255	-0.008
-710.675	-158.875	-0.448	0.026
-709.660	-149.362	0.383	0.030
-708.645	-100.262	-0.415	0.103
-707.631	-9.925	0.273	-0.181
-706.616	407.824	-0.087	0.184
-705.602	-195.088	0.150	-0.001
-704.587	256.515	-0.218	0.374
-703.572	-27.440	0.067	0.039
-702.558	-107.204	0.296	-0.065
-701.543	3.578	-0.223	0.162
-700.529	800.000	-0.055	0.173
-699.514	71.706	-0.282	0.293
-698.499	-96.480	-0.166	0.044
-697.485	142.606	-0.188	0.249
-696.470	192.634	-0.125	-0.188
-695.456	-162.805	0.229	0.011
-694.441	315.364	0.020	0.038
-693.426	-70.740	-0.169	-0.064
-692.412	-67.905	-0.259	0.101
-691.397	-200.000	0.019	-0.201
-690.383	-200.000	-0.010	-0.404
-689.368	-112.041	-0.270	-0.054
-688.354	36.224	0.378	-0.333
-687.339	-75.310	-0.282	-0.101
-686.324	800.000	0.053	0.228
-685.310	800.000	-0.058	-0.207
-684.295	-1.798	-0.193	0.136
-683.281	99.508	-0.142	-0.165
-682.266	162.433	0.123	-0.172
-681.251	-75.966	-0.305	0.108
-680.237	800.000	0.064	-0.242
-679.222	615.784	0.076	0.190
-678.208	-200.000	-0.100	-0.634
-677.193	-62.137	0.232	-0.097
-676.178	124.015	-0.127	0.159
-675.164	-25.973	-0.205	0.121
-674.149	-200.000	0.001	-0.300
-673.135	-6.123	0.293	-0.200
-672.120	436.386	0.157	0.342
-671.105	-200.000	0.153	-0.000
-670.091	800.000	-0.044	-0.125
-669.076	349.268	0.103	0.203
-668.062	-54.135	0.186	-0.085
-667.047	-200.000	0.012	-0.202
-666.032	-200.000	-0.019	0.208
-665.018	-167.846	0.307	0.012
-664.003	-98.219	-0.073	-0.019
-662.989	-126.567	0.127	0.019
-661.974	-200.000	0.046	-0.000
-660.959	-134.710	-0.152	0.018
-659.945	-13.611	-0.135	0.087
-658.930	-200.000	-0.010	0.538
-657.916	101.920	-0.210	0.244
-656.901	217.407	0.086	-0.137
-655.886	138.362	-0.144	-0.188
-654.872	-200.000	0.031	0.364
-653.857	-200.000	0.031	-0.231
-652.843	800.000	0.066	-0.185
-651.828	10.894	0.222	0.169
-650.814	-65.888	-0.194	0.077
-649.799	326.163	0.103	-0.196
-648.784	4.242	0.110	-0.080
-647.770	-200.000	0.014	-0.246
-646.755	49.285	-0.218	-0.204
-645.741	91.778	-0.041	-0.046
-644.726	736.130	0.091	0.244
-643.711	-136.666	0.278	0.032
-642.697	-129.111	-0.376	0.052
-641.682	697.672	0.057	0.149
-640.668	234.053	-0.092	-0.151
-639.653	-43.877	0.296	0.148
-638.638	-84.256	0.368	0.116
-637.624	-200.000	-0.033	-0.180
-636.609	-86.162	0.265	0.081
-635.595	41.580	-0.168	-0.151
-634.580	48.538	-0.241	-0.225
-633.565	800.000	0.152	-0.447
-632.551	-200.000	0.012	-0.318
-631.536	14.078	0.092	-0.072
-630.522	-165.940	-0.329	-0.014
-629.507	800.000	0.046	-0.140
-628.492	518.166	-0.114	0.265
-627.478	645.030	0.051	0.131
-626.463	-200.000	-0.002	-0.195
-625.449	261.702	-0.075	-0.130
-624.434	43.968	-0.037	-0.034
-623.419	8.663	-0.119	-0.089
-622.405	800.000	0.116	0.432
-621.390	-200.000	0.030	-0.285
-620.376	155.153	-0.187	-0.257
-619.361	-57.013	-0.239	-0.105
-618.346	-200.000	0.010	-0.262
-617.332	20.192	-0.237	0.191
-616.317	-200.000	0.018	0.216
-615.303	-132.320	0.096	-0.012
-614.288	754.390	0.113	0.303
-613.273	-200.000	0.025	-0.143
-612.259	-90.982	0.022	-0.006
-611.244	-200.000	-0.007	-0.095
-610.230	488.333	-0.070	-0.159
-609.215	387.860	-0.061	-0.125
-608.201	-143.531	0.153	-0.014
-607.186	-99.753	-0.037	-0.009
-606.171	-111.084	0.140	0.029
-605.157	162.706	-0.012	-0.016
-604.142	-116.610	-0.321	-0.059
-603.128	-200.000	-0.038	-0.363
-602.113	-200.000	0.053	-0.251
-601.098	291.309	-0.188	0.340
-600.084	-200.000	-0.005	-0.309
-599.069	11.222	0.104	-0.079
-598.055	-9.362	-0.166	-0.110
-597.040	151.669	-0.187	-0.254
-596.025	297.779	-0.122	-0.223
-595.011	-200.000	0.043	0.236
-593.996	63.262	-0.284	0.283
-592.982	-74.755	-0.296	0.106
-591.967	-114.245	-0.093	0.018
-590.952	800.000	0.041	0.164
-589.938	91.266	0.207	0.232
-588.923	142.606	-0.071	0.093
-587.909	443.902	-0.064	0.139
-586.894	-91.114	0.268	0.077
-585.879	58.468	0.150	-0.146
-584.865	471.491	0.117	0.261
-583.850	-200.000	0.076	-0.356
-582.836	-146.407	-0.295	0.026
-581.821	34.790	0.127	0.111
-580.806	-200.000	-0.001	-0.015
-579.792	112.380	-0.258	-0.311
-578.777	13.892	0.155	-0.120
-577.763	31.646	-0.038	0.033
-576.748	-90.669	0.215	-0.062
-575.733	25.731	0.093	0.077
-574.719	272.858	-0.076	-0.134
-573.704	-55.208	0.256	0.115
-572.690	-43.923	-0.307	-0.153
-571.675	-44.178	0.044	-0.022
-570.661	-138.897	-0.178	0.019
-569.646	-48.732	-0.391	-0.186
-568.631	-200.000	0.039	-0.513
-567.617	-100.136	-0.279	-0.069
-566.602	-200.000	-0.021	-0.105
-565.588	218.585	-0.066	-0.105
-564.573	-200.000	-0.007	0.209
-563.558	109.433	-0.161	-0.191
-562.544	-59.227	-0.632	-0.270
-561.529	173.424	-0.097	-0.139
-560.515	-84.180	-0.175	-0.055
-559.500	332.375	-0.125	0.241
-558.485	359.171	0.053	0.105
-557.471	217.459	0.082	0.130
-556.456	-72.254	0.073	0.027
-555.442	399.433	-0.104	0.216
-554.427	-27.231	0.280	-0.162
-553.412	423.547	0.148	0.317
-552.398	-200.000	-0.356	-0.000
-551.383	-108.796	0.285	0.061
-550.369	800.000	0.094	0.388
-549.354	-126.967	-0.190	0.028
-548.339	-93.152	-0.292	0.081
-547.325	800.000	0.099	0.381
-546.310	294.060	-0.162	0.293
-545.296	217.461	0.094	0.148
-544.281	56.036	-0.111	0.107
-543.266	-200.000	0.003	-0.188
-542.252	-200.000	-0.001	0.483
-541.237	-15.965	-0.189	0.119
-540.223	-16.536	0.147	-0.093
-539.208	-24.956	-0.213	-0.125
-538.193	-23.099	-0.035	-0.021
-537.179	116.305	0.199	0.242
-536.164	-71.661	0.385	0.143
-535.150	-169.373	0.312	-0.011
-534.135	210.155	-0.038	0.060
-533.121	-47.461	0.265	-0.128
-532.106	728.715	0.066	-0.176
-531.091	482.481	-0.140	-0.317
-530.077	800.000	-0.093	-0.375
-529.062	-132.888	0.199	0.025
-528.048	155.853	0.126	0.172
-527.033	800.000	-0.041	-0.135
-526.018	-200.000	-0.024	0.194
-525.004	6.581	0.050	-0.037
-523.989	34.694	0.310	-0.269
-522.975	124.734	0.106	-0.133
-521.960	-200.000	-0.021	0.291
-520.945	148.251	0.238	-0.319
-519.931	32.226	-0.147	0.126
-518.916	-106.724	0.222	0.049
-517.902	33.703	0.084	-0.072
-516.887	-200.000	-0.095	0.630
-515.872	-3.388	0.257	-0.177
-514.858	-95.697	-0.220	-0.058
-513.843	-51.116	0.063	-0.029
-512.829	-200.000	0.037	0.212
-511.814	-160.666	0.169	-0.009
-510.799	-145.187	-0.142	0.013
-509.785	32.130	0.162	0.139
-508.770	-129.159	-0.124	-0.017
-507.756	-6.623	0.140	-0.094
-506.741	-24.961	-0.166	0.098
-505.726	-14.771	-0.085	0.054
-504.712	-59.658	0.319	0.136
-503.697	800.000	-0.034	0.121
-502.683	-110.707	0.121	0.025
-501.668	-160.236	-0.183	0.010
-500.653	8.506	-0.143	0.107
-499.639	100.268	0.082	0.094
-498.624	-200.000	0.048	-0.230
-497.610	-159.928	0.117	-0.006
-496.595	475.348	0.072	-0.161
-495.581	5.232	-0.093	0.068
-494.566	-200.000	-0.044	-0.235
-493.551	523.218	0.086	0.201
-492.537	-174.849	0.177	0.005
-491.522	-200.000	-0.042	0.218
-490.508	-200.000	-0.017	-0.208
-489.493	-182.684	-0.182	0.003
-488.478	459.518	0.159	0.351
-487.464	431.362	-0.131	0.281
-486.449	-96.814	0.130	0.034
-485.435	-200.000	0.020	0.140
-484.420	193.941	-0.225	0.338
-483.405	-70.762	0.285	0.107
-482.391	-129.272	-0.222	0.031
-481.376	2.114	-0.045	0.032
-480.362	379.667	-0.123	-0.249
-479.347	-30.406	-0.124	0.070
-478.332	50.078	0.041	0.038
-477.318	-200.000	-0.019	0.128
-476.303	-200.000	0.058	0.309
-475.289	12.194	-0.232	-0.177
-474.274	157.856	-0.073	0.100
-473.259	65.305	0.154	-0.155
-472.245	-117.877	0.256	-0.045
-471.230	-45.039	0.236	0.116
-470.216	-102.227	-0.163	-0.039
-469.201	366.665	-0.151	-0.302
-468.186	-158.222	-0.224	0.013
-467.172	-18.602	0.250	-0.155
-466.157	-54.514	0.142	-0.063
-465.143	524.209	-0.095	-0.220
-464.128	-200.000	0.005	-0.025
-463.113	93.409	0.243	0.272
-462.099	-130.102	-0.351	0.047
-461.084	247.194	-0.048	0.080
-460.070	-84.615	0.355	-0.111
-459.055	-123.766	-0.313	0.049
-458.040	32.359	0.269	0.230
-457.026	-46.409	-0.261	-0.127
-456.011	389.345	0.107	0.219
-454.997	-200.000	-0.024	-0.245
-453.982	-127.196	0.252	0.037
-452.968	-28.829	-0.190	0.108
-451.953	-200.000	0.036	0.273
-450.938	-200.000	0.021	-0.097
-449.924	-45.229	-0.097	-0.048
-448.909	-200.000	0.025	-0.138
-447.895	-36.961	0.342	-0.181
-446.880	-177.616	0.055	-0.001
-445.865	-133.924	0.217	-0.027
-444.851	237.049	0.108	0.177
-443.836	69.047	-0.195	0.199
-442.822	-200.000	-0.010	0.114
-441.807	577.283	-0.087	-0.210
-440.792	-38.204	-0.109	-0.057
-439.778	-32.477	0.171	0.095
-438.763	-88.211	0.190	0.056
-437.749	-33.819	0.126	0.069
-436.734	-200.000	-0.067	-0.329
-435.719	800.000	-0.021	0.069
-434.705	-200.000	0.020	-0.095
-433.690	-2.840	0.062	0.043
-432.676	-118.537	-0.222	0.039
-431.661	-64.749	0.080	-0.032
-430.646	650.419	0.148	0.375
-429.632	-22.481	-0.129	0.077
-428.617	28.441	-0.213	0.178
-427.603	576.691	0.086	-0.208
-426.588	-23.967	0.251	0.148
-425.573	-154.760	-0.238	0.016
-424.559	-136.158	0.082	-0.009
-423.544	-38.920	0.124	-0.064
-422.530	211.088	0.108	0.168
-421.515	727.862	0.072	0.189
-420.500	-200.000	-0.073	0.425
-419.486	-199.609	-0.242	0.001
-418.471	800.000	0.036	0.121
-417.457	99.874	-0.086	0.098
-416.442	-26.396	-0.132	0.077
-415.428	241.494	0.069	-0.115
-414.413	227.713	0.062	0.100
-413.398	-127.687	0.140	-0.020
-412.384	140.444	-0.110	0.143
-411.369	800.000	0.129	0.392
-410.355	689.875	-0.065	0.169
-409.340	-124.571	-0.157	-0.024
-408.325	45.850	0.119	-0.109
-407.311	-48.433	0.253	0.120
-406.296	-77.459	0.278	0.095
-405.282	-108.481	0.438	0.093
-404.267	34.757	-0.054	0.046
-403.252	-104.848	-0.049	-0.011
-402.238	-200.000	0.028	-0.279
-401.223	-132.741	0.184	-0.023
-400.209	-25.972	-0.167	0.097
-399.194	-43.486	-0.161	0.080
-398.179	-109.154	-0.135	0.028
-397.165	-200.000	0.025	0.265
-396.150	800.000	0.021	0.085
-395.136	238.410	-0.041	-0.068
-394.121	-67.191	0.216	-0.084
-393.106	-41.623	0.159	0.081
-392.092	-29.099	-0.243	-0.137
-391.077	132.038	-0.018	0.023
-390.063	32.620	-0.242	0.206
-389.048	44.913	-0.058	0.052
-388.033	220.150	0.137	-0.217
-387.019	121.710	-0.220	-0.271
-386.004	-52.936	0.362	-0.164
-384.990	-200.000	0.175	-0.001
-383.975	-80.286	0.193	0.064
-382.960	-60.363	-0.279	0.117
-381.946	-81.518	-0.098	-0.032
-380.931	482.870	-0.092	-0.206
-379.917	-200.000	0.060	0.479
-378.902	-200.000	-0.003	-0.159
-377.888	360.520	-0.148	0.292
-376.873	-200.000	-0.007	0.081
-375.858	-200.000	0.056	-0.366
-374.844	73.162	0.216	-0.223
-373.829	-150.092	0.219	0.017
-372.815	22.818	-0.199	-0.161
-371.800	-200.000	0.005	0.164
-370.785	339.945	0.038	-0.073
-369.771	32.083	0.218	-0.186
-368.756	-79.933	0.318	0.105
-367.742	800.000	-0.066	-0.252
-366.727	14.755	0.235	-0.181
-365.712	527.162	-0.053	-0.122
-364.698	605.314	-0.152	-0.374
-363.683	494.293	-0.071	0.161
-362.669	-114.868	0.087	-0.016
-361.654	-96.836	0.326	-0.084
-360.639	-47.042	-0.119	-0.057
-359.625	-11.387	-0.361	0.234
-358.610	-200.000	-0.002	0.151
-357.596	-156.728	-0.171	0.010
-356.581	62.101	0.069	0.067
-355.566	33.327	-0.071	0.061
-354.552	67.253	-0.044	0.044
-353.537	297.631	-0.164	-0.297
-352.523	-139.224	0.358	-0.038
-351.508	-52.549	-0.345	-0.157
-350.493	-200.000	0.022	-0.121
-349.479	207.466	0.072	-0.110
-348.464	72.306	0.096	0.098
-347.450	-39.830	-0.336	-0.173
-346.435	-92.762	-0.099	0.027
-345.420	-200.000	0.023	-0.152
-344.406	271.093	0.049	-0.085
-343.391	28.131	0.334	0.277
-342.377	59.970	-0.416	0.405
-341.362	-150.815	0.178	-0.013
-340.348	-140.328	-0.057	0.006
-339.333	800.000	-0.031	-0.111
-338.318	-165.872	-0.251	-0.011
-337.304	-77.730	0.125	-0.042
-336.289	4.996	-0.263	-0.191
-335.275	787.679	-0.054	0.147
-334.260	40.837	-0.266	0.237
-333.245	800.000	0.081	0.233
-332.231	-17.627	-0.423	0.261
-331.216	-200.000	0.007	0.144
-330.202	455.723	0.146	-0.318
-329.187	-113.069	-0.336	-0.065
-328.172	661.472	0.025	0.064
-327.158	-163.968	-0.169	0.008
-326.143	-200.000	-0.020	-0.142
-325.129	18.366	0.130	-0.102
-324.114	-92.219	-0.321	0.089
-323.099	-123.511	-0.507	0.079
-322.085	183.783	-0.127	0.185
-321.070	-200.000	0.035	-0.215
-320.056	-121.920	-0.148	-0.024
-319.041	158.453	0.072	0.098
-318.026	31.648	-0.180	0.152
-317.012	800.000	-0.096	-0.294
-315.997	-184.978	-0.169	-0.003
-314.983	35.580	-0.134	-0.116
-313.968	-68.782	0.165	-0.063
-312.953	-162.905	-0.062	0.003
-311.939	16.676	-0.078	0.061
-310.924	132.940	-0.269	0.341
-309.910	367.153	-0.108	0.215
-308.895	-200.000	-0.022	-0.233
-307.880	-45.682	0.075	0.036
-306.866	800.000	-0.076	-0.292
-305.851	25.849	0.079	0.065
-304.837	-200.000	-0.017	-0.335
-303.822	-51.419	0.487	0.224
-302.807	-111.387	0.174	-0.035
-301.793	325.776	0.085	0.161
-300.778	-200.000	-0.017	-0.150
-299.764	-200.000	0.107	-0.471
-298.749	-41.038	0.162	0.082
-297.735	92.448	-0.176	-0.195
-296.720	-113.815	-0.147	0.028
-295.705	11.324	0.324	-0.244
-294.691	92.902	0.062	0.069
-293.676	612.351	-0.043	-0.106
-292.662	-42.008	-0.104	0.052
-291.647	251.772	0.149	-0.249
-290.632	787.738	0.197	-0.531
-289.618	800.000	0.053	-0.226
-288.603	-135.022	0.300	-0.036
-287.589	254.196	-0.152	0.255
-286.574	-76.746	-0.142	-0.049
-285.559	-200.000	-0.089	-0.401
-284.545	-200.000	-0.003	0.019
-283.530	-50.600	0.152	0.070
-282.516	15.949	0.126	-0.098
-281.501	96.287	0.249	0.280
-280.486	-105.153	-0.018	-0.004
-279.472	-109.788	0.558	0.115
-278.457	36.679	-0.202	-0.176
-277.443	14.363	-0.079	0.061
-276.428	-124.744	-0.160	0.024
-275.413	381.835	0.090	0.181
-274.399	-181.145	0.462	-0.009
-273.384	-88.578	0.100	-0.029
-272.370	-76.338	-0.200	0.069
-271.355	-186.016	-0.151	-0.002
-270.340	-42.112	-0.166	-0.083
-269.326	109.697	-0.066	-0.078
-268.311	-17.188	-0.393	0.243
-267.297	555.003	0.105	0.249
-266.282	-200.000	0.003	0.226
-265.267	553.083	0.043	0.102
-264.253	-104.128	0.221	-0.051
-263.238	24.741	-0.258	0.210
-262.224	14.932	-0.111	-0.085
-261.209	201.172	0.208	-0.315
-260.195	78.561	0.236	0.247
-259.180	-81.409	-0.203	0.066
-258.165	-168.738	0.264	0.010
-257.151	480.900	-0.068	0.151
-256.136	-84.036	0.435	0.136
-255.122	-178.933	-0.416	0.009
-254.107	-108.663	0.308	0.065
-253.092	-122.658	0.148	0.023
-252.078	-12.005	0.065	0.042
-251.063	-200.000	-0.022	0.096
-250.049	-145.824	0.394	0.034
-249.034	-200.000	0.067	0.363
-248.019	-164.800	-0.155	0.007
-247.005	-10.261	0.273	0.178
-245.990	163.405	-0.129	-0.178
-244.976	-200.000	-0.051	-0.258
-243.961	-34.293	-0.136	-0.073
-242.946	-88.174	0.224	-0.066
-241.932	-200.000	-0.024	-0.153
-240.917	-200.000	0.052	0.237
-239.903	198.746	-0.109	0.163
-238.888	378.835	-0.149	-0.300
-237.873	-200.000	-0.057	-0.287
-236.859	800.000	0.156	-0.450
-235.844	-200.000	-0.045	0.310
-234.830	5.936	0.254	-0.184
-233.815	64.021	-0.235	-0.232
-232.800	609.940	-0.050	-0.122
-231.786	-142.070	0.371	0.036
-230.771	-102.437	-0.103	-0.024
-229.757	-200.000	-0.023	-0.163
-228.742	-69.897	0.441	-0.165
-227.727	-172.830	-0.286	-0.009
-226.713	800.000	0.061	-0.185
-225.698	-70.740	-0.149	0.055
-224.684	58.367	0.103	-0.099
-223.669	-175.194	-0.322	-0.009
-222.655	-200.000	-0.043	-0.230
-221.640	371.071	-0.048	0.096
-220.625	71.683	-0.269	-0.274
-219.611	-58.824	-0.146	-0.062
-218.596	-16.134	-0.243	-0.151
-217.582	-53.871	-0.505	0.226
-216.567	149.383	-0.127	-0.169
-215.552	114.396	-0.158	0.188
-214.538	-94.952	0.175	-0.046
-213.523	362.114	0.168	-0.331
-212.509	653.178	-0.183	-0.459
-211.494	-75.772	0.371	0.129
-210.479	432.919	-0.103	0.219
-209.465	800.000	0.028	0.113
-208.450	300.815	-0.144	0.260
-207.436	-144.244	0.100	-0.009
-206.421	35.460	0.220	0.189
-205.406	40.721	-0.092	0.081
-204.392	24.390	-0.079	-0.064
-203.377	-200.000	0.040	0.217
-202.363	495.656	-0.074	0.167
-201.348	-133.842	0.251	0.031
-200.333	535.822	0.030	0.070
-199.319	115.663	0.055	0.066
-198.304	63.324	-0.070	0.069
-197.290	-200.000	0.025	-0.454
-196.275	-71.883	-0.206	0.075
-195.260	-200.000	0.009	-0.062
-194.246	-148.595	-0.219	-0.017
-193.231	31.434	0.032	0.027
-192.217	-200.000	-0.022	0.157
-191.202	-200.000	0.004	0.275
-190.187	-200.000	-0.017	-0.078
-189.173	-104.363	0.349	0.079
-188.158	-62.434	-0.129	-0.052
-187.144	200.734	0.110	-0.166
-186.129	-37.177	-0.320	-0.168
-185.114	4.178	0.254	-0.182
-184.100	800.000	0.062	-0.206
-183.085	-195.983	0.192	-0.001
-182.071	-200.000	0.013	0.250
-181.056	112.002	-0.122	0.145
-180.042	10.817	-0.197	0.147
-179.027	-63.882	0.114	-0.046
-178.012	-200.000	0.032	-0.161
-176.998	-52.216	0.246	0.112
-175.983	78.088	0.106	-0.111
-174.969	130.240	0.218	0.273
-173.954	106.335	0.161	0.186
-172.939	-31.241	0.299	0.165
-171.925	-72.831	-0.167	-0.060
-170.910	-200.000	-0.025	-0.193
-169.896	-149.158	-0.210	-0.016
-168.881	535.486	-0.197	-0.456
-167.866	-98.508	0.208	-0.052
-166.852	800.000	-0.035	0.118
-165.837	-128.925	-0.361	-0.050
-164.823	-12.864	-0.193	-0.123
-163.808	-147.563	-0.345	-0.028
-162.793	-117.340	0.388	-0.069
-161.779	-200.000	-0.017	0.086
-160.764	92.633	-0.308	-0.340
-159.750	61.739	0.212	-0.207
-158.735	731.669	0.234	0.612
-157.720	-28.142	0.294	0.166
-156.706	800.000	0.035	0.102
-155.691	-28.715	0.181	-0.102
-154.677	244.134	-0.077	0.126
-153.662	-200.000	-0.008	0.246
-152.647	800.000	-0.039	0.144
-151.633	-19.690	0.273	0.165
-150.618	-200.000	0.052	-0.272
-149.604	138.675	-0.114	-0.146
-148.589	153.437	0.193	0.258
-147.574	65.060	0.090	-0.088
-146.560	-145.483	0.162	0.014
-145.545	-144.635	0.077	-0.007
-144.531	-138.909	-0.546	0.058
-143.516	-200.000	0.123	-0.000
-142.502	800.000	0.034	0.113
-141.487	48.576	0.146	0.134
-140.472	-22.174	0.085	0.050
-139.458	98.301	0.201	0.226
-138.443	-61.314	0.284	-0.117
-137.429	-200.000	-0.028	0.401
-136.414	317.574	-0.145	0.269
-135.399	133.655	-0.121	0.153
-134.385	73.704	-0.297	0.304
-133.370	222.591	0.143	-0.226
-132.356	93.841	-0.331	0.367
-131.341	800.000	0.119	0.357
-130.326	-40.122	-0.045	-0.023
-129.312	-10.955	0.055	-0.036
-128.297	228.247	-0.232	-0.370
-127.283	81.095	0.175	-0.185
-126.268	-39.039	0.375	-0.193
-125.253	127.953	0.027	0.034
-124.239	515.568	-0.092	-0.210
-123.224	122.148	-0.280	-0.341
-122.210	-200.000	0.048	-0.394
-121.195	420.061	0.080	-0.167
-120.180	-1.078	0.153	0.106
-119.166	800.000	0.135	0.473
-118.151	-124.895	-0.083	0.012
-117.137	348.707	-0.155	0.299
-116.122	-47.351	0.297	0.141
-115.107	-100.087	0.311	0.076
-114.093	-67.099	-0.077	0.030
-113.078	-200.000	-0.002	0.210
-112.064	800.000	-0.124	0.464
-111.049	111.983	-0.072	0.084
-110.034	-90.580	-0.245	-0.069
-109.020	52.210	0.191	-0.178
-108.005	4.367	-0.544	0.389
-106.991	58.125	0.350	-0.335
-105.976	-106.532	0.180	0.039
-104.962	-76.544	-0.076	-0.026
-103.947	389.160	-0.085	0.172
-102.932	491.577	-0.024	0.053
-101.918	-163.738	-0.191	-0.009
-100.903	218.629	-0.194	0.302
-99.889	236.137	-0.117	0.189
-98.874	-90.475	0.325	0.092
-97.859	399.034	-0.038	-0.078
-96.845	630.255	0.133	0.329
-95.830	-182.193	0.162	-0.003
-94.816	311.731	0.218	-0.400
-93.801	-156.822	-0.151	0.009
-92.786	-81.201	0.441	0.142
-91.772	372.514	0.164	-0.325
-90.757	86.161	-0.179	0.193
-89.743	3.060	0.364	-0.258
-88.728	49.121	-0.307	-0.281
-87.713	-69.293	0.162	0.061
-86.699	-200.000	0.073	0.330
-85.684	216.919	-0.018	-0.028
-84.670	-18.009	-0.300	-0.183
-83.655	-200.000	-0.001	-0.249
-82.640	-99.163	0.297	0.073
-81.626	-7.427	0.355	0.234
-80.611	-68.284	-0.395	-0.150
-79.597	250.121	-0.110	-0.183
-78.582	273.382	0.123	-0.212
-77.567	153.872	-0.225	0.300
-76.553	-10.512	0.135	-0.087
-75.538	111.571	-0.090	-0.106
-74.524	130.680	0.077	-0.096
-73.509	-200.000	0.002	-0.117
-72.494	-148.489	0.189	-0.015
-71.480	157.874	-0.247	0.333
-70.465	118.814	0.089	0.108
-69.451	3.946	-0.296	0.211
-68.436	-58.133	0.165	-0.070
-67.422	-171.212	-0.637	0.021
-66.407	-41.930	0.168	0.084
-65.392	800.000	0.047	0.144
-64.378	116.108	0.187	-0.223
-63.363	13.929	0.168	-0.127
-62.349	-200.000	-0.009	-0.210
-61.334	19.504	-1.172	-0.918
-60.319	123.669	0.531	0.649
-59.305	-200.000	-0.102	-0.977
-58.290	559.827	0.793	1.865
-57.276	433.466	0.763	1.613
-56.261	-200.000	118.873	616.560
-55.246	417.778	1525.993	3175.704
-54.232	149.501	2675.907	3529.872
-53.217	96.994	2145.925	2396.371
-52.203	35.642	1672.078	1430.545
-51.188	28.861	1489.218	1228.897
-50.173	26.713	1464.994	1194.716
-49.159	47.628	1530.336	1390.132
-48.144	46.402	1545.190	1395.266
-47.130	28.796	1497.444	1235.054
-46.115	25.974	1481.436	1203.007
-45.100	25.713	1478.227	1198.612
-44.086	25.756	1475.970	1197.025
-43.071	25.745	1474.331	1195.572
-42.057	25.635	1472.938	1193.668
-41.042	25.669	1471.252	1192.478
-40.027	25.719	1469.673	1191.480
-39.013	25.761	1467.609	1190.037
-37.998	25.672	1467.227	1189.093
-36.984	25.800	1465.533	1188.516
-35.969	25.706	1464.539	1187.042
-34.954	25.771	1463.400	1186.501
-33.940	25.700	1462.000	1184.852
-32.925	25.726	1460.913	1184.095
-31.911	25.828	1459.339	1183.440
-30.896	25.772	1458.202	1182.109
-29.881	25.796	1456.882	1181.147
-28.867	25.855	1455.287	1180.194
-27.852	25.705	1454.449	1178.485
-26.838	25.768	1452.851	1177.554
-25.823	25.765	1451.372	1176.290
-24.809	25.664	1449.970	1174.450
-23.794	25.737	1448.321	1173.543
-22.779	25.787	1447.307	1173.002
-21.765	25.669	1446.502	1171.530
-20.750	25.864	1444.495	1171.124
-19.736	25.826	1443.928	1170.375
-18.721	25.730	1443.563	1169.406
-17.706	25.811	1442.207	1168.789
-16.692	25.735	1441.504	1167.679
-15.677	25.742	1440.324	1166.724
-14.663	25.792	1439.332	1166.200
-13.648	25.699	1438.685	1165.023
-12.633	25.669	1437.736	1164.015
-11.619	25.716	1436.490	1163.265
-10.604	25.774	1435.406	1162.716
-9.590	25.765	1434.931	1162.226
-8.575	25.787	1433.882	1161.473
-7.560	25.772	1432.928	1160.560
-6.546	25.761	1432.348	1159.971
-5.531	25.813	1431.132	1159.275
-4.517	25.830	1430.314	1158.676
-3.502	25.735	1429.704	1157.527
-2.487	25.707	1429.033	1156.754
-1.473	25.759	1427.551	1155.845
-0.458	25.805	1426.376	1155.142
0.556	23.914	1416.141	1142.360
1.571	20.417	1392.157	1100.793
2.586	16.622	1330.765	1029.120
3.600	14.890	1248.902	955.832
4.615	13.785	1206.279	917.028
5.629	12.015	1151.238	865.763
6.644	5.985	1071.679	776.130
7.659	1.101	1034.979	726.132
8.673	0.270	1030.111	718.687
9.688	0.177	1026.727	715.823
10.702	0.139	1025.346	714.615
11.717	0.134	1022.907	712.828
12.731	2.209	1024.161	723.472
13.746	8.610	1033.051	760.178
14.761	14.917	1040.767	795.893
15.775	16.863	1042.469	806.390
16.790	16.419	1041.462	803.432
17.804	15.471	1038.888	796.877
18.819	14.523	1037.576	791.302
19.834	14.219	1035.838	788.467
20.848	13.967	1034.758	786.383
21.863	13.644	1034.200	784.362
22.877	13.430	1033.510	782.756
23.892	13.289	1032.839	781.511
24.907	13.121	1031.975	779.996
25.921	13.050	1031.218	779.018
26.936	13.197	1030.630	779.202
27.950	13.197	1030.061	778.702
28.965	13.263	1029.178	778.276
29.980	13.464	1027.572	777.935
30.994	13.321	1026.991	776.755
32.009	13.512	1026.295	777.057
33.023	13.507	1025.437	776.318
34.038	13.304	1025.208	775.124
35.053	13.351	1024.072	774.414
36.067	13.306	1023.094	773.395
37.082	13.282	1022.135	772.490
38.096	13.267	1021.775	772.081
39.111	13.377	1020.727	771.735
40.126	13.384	1020.328	771.394
41.140	13.208	1018.923	769.446
42.155	13.172	1018.005	768.519
43.169	13.179	1017.452	768.063
44.184	13.102	1016.678	767.054
45.199	13.159	1015.311	766.221
46.213	13.131	1014.338	765.287
47.228	13.203	1013.316	764.781
48.242	13.277	1012.306	764.296
49.257	13.177	1011.771	763.359
50.271	13.301	1010.647	763.017
51.286	13.251	1009.987	762.223
52.301	13.396	1008.851	761.966
53.315	13.341	1008.102	761.080
54.330	13.374	1007.467	760.682
55.344	13.291	1006.898	759.804
56.359	13.258	1005.243	758.338
57.374	13.215	1004.790	757.730
58.388	13.097	1004.014	756.540
59.403	13.204	1002.823	756.061
60.417	13.111	1002.664	755.450
61.432	13.114	1001.697	754.670
62.447	13.021	1000.992	753.646
63.461	13.127	1000.313	753.555
64.476	13.038	999.003	752.093
65.490	13.070	998.346	751.677
66.505	13.157	997.349	751.256
67.520	13.083	996.640	750.318
68.534	13.189	995.677	750.011
69.549	13.243	994.984	749.666
70.563	13.192	994.324	748.873
71.578	13.199	993.602	748.296
72.593	13.073	992.918	747.144
73.607	13.162	991.736	746.590
74.622	13.110	990.820	745.597
75.636	13.174	989.837	745.081
76.651	13.164	989.230	744.512
77.666	13.122	988.833	743.960
78.680	13.281	987.391	743.523
79.695	13.056	987.802	742.755
80.709	13.132	986.873	742.332
81.724	13.162	985.849	741.631
82.739	13.301	985.065	741.602
83.753	13.155	984.856	740.723
84.768	13.226	983.900	740.255
85.782	13.352	983.173	740.207
86.797	13.319	982.191	739.254
87.812	13.444	981.223	739.017
88.826	13.278	980.528	737.691
89.841	13.212	980.146	737.041
90.855	13.309	979.037	736.576
91.870	13.379	978.324	736.284
92.884	13.413	977.602	735.827
93.899	13.423	976.824	735.221
94.914	13.414	976.082	734.557
95.928	13.340	975.336	733.602
96.943	13.490	974.276	733.406
97.957	13.497	973.428	732.733
98.972	13.520	972.767	732.273
99.987	13.263	972.773	731.075
101.001	13.308	972.048	730.664
102.016	13.435	970.633	730.097
103.030	13.245	970.463	729.067
104.045	13.302	969.424	728.474
105.060	13.513	968.121	728.357
106.074	13.427	966.917	727.011
107.089	13.350	966.474	726.272
108.103	13.184	966.193	725.271
109.118	13.197	964.438	723.947
110.133	13.257	964.100	723.888
111.147	13.293	962.849	723.045
112.162	13.293	962.257	722.537
113.176	13.239	961.277	721.501
114.191	13.282	960.827	721.285
115.206	13.254	960.078	720.539
116.220	13.303	959.111	719.961
117.235	13.415	958.095	719.624
118.249	13.301	957.206	718.397
119.264	13.404	956.401	718.175
120.279	13.381	955.413	717.271
121.293	13.203	954.709	715.909
122.308	13.333	953.882	715.786
123.322	13.237	953.407	714.950
124.337	13.260	952.100	714.010
125.352	13.291	950.873	713.158
126.366	13.365	949.979	712.745
127.381	13.129	949.469	711.281
128.395	13.210	948.411	710.775
129.410	13.257	947.081	709.915
130.424	13.162	946.628	709.107
131.439	13.345	945.420	708.924
132.454	13.497	944.155	708.561
133.468	13.437	943.841	708.008
134.483	13.495	943.124	707.654
135.497	13.358	942.772	706.744
136.512	13.385	941.933	706.169
137.527	13.306	941.092	705.136
138.541	13.447	940.007	704.862
139.556	13.362	939.879	704.341
140.570	13.379	939.120	703.782
141.585	13.491	938.431	703.681
142.600	13.397	937.662	702.640
143.614	13.483	936.791	702.291
144.629	13.486	935.946	701.609
145.643	13.495	935.363	701.150
146.658	13.537	934.275	700.448
147.673	13.421	933.654	699.431
148.687	13.478	932.618	698.832
149.702	13.375	931.660	697.618
150.716	13.404	931.343	697.444
151.731	13.331	930.348	696.329
152.746	13.469	929.456	696.181
153.760	13.462	928.758	695.564
154.775	13.384	928.114	694.693
155.789	13.570	927.045	694.614
156.804	13.561	926.615	694.189
157.819	13.526	925.401	693.075
158.833	13.667	924.951	693.267
159.848	13.699	924.281	692.834
160.862	13.686	923.663	692.255
161.877	13.657	922.919	691.516
162.892	13.641	922.120	690.790
163.906	13.636	921.141	689.976
164.921	13.425	920.779	688.765
165.935	13.500	919.883	688.346
166.950	13.533	919.041	687.790
167.964	13.549	918.135	687.118
168.979	13.542	916.833	686.053
169.994	13.572	916.165	685.620
171.008	13.559	915.563	685.055
172.023	13.478	914.771	684.066
173.037	13.748	914.053	684.582
174.052	13.710	913.262	683.772
175.067	13.718	912.299	683.026
176.081	13.680	912.047	682.619
177.096	13.658	911.061	681.731
178.110	13.694	909.746	680.834
179.125	13.541	909.376	679.870
180.140	13.782	908.156	679.885
181.154	13.753	907.709	679.370
182.169	13.659	907.191	678.537
183.183	13.778	906.515	678.457
184.198	13.838	905.879	678.168
185.213	13.938	904.766	677.685
186.227	13.889	904.665	677.346
187.242	13.983	904.209	677.331
188.256	14.017	903.211	676.659
189.271	13.964	902.768	676.054
190.286	14.030	901.744	675.493
191.300	13.758	901.255	673.962
192.315	13.654	900.399	672.840
193.329	13.885	899.409	672.979
194.344	13.844	899.047	672.482
195.359	13.826	898.934	672.265
196.373	13.879	898.116	671.809
197.388	13.841	898.160	671.629
198.402	13.988	897.209	671.452
199.417	14.113	896.605	671.444
200.432	14.052	896.333	670.936
201.446	14.004	896.117	670.519
202.461	14.252	895.486	670.988
203.475	14.195	894.976	670.319
204.490	14.095	894.188	669.268
205.504	14.131	893.535	668.861
206.519	14.194	892.954	668.622
207.534	14.088	892.310	667.656
208.548	14.136	891.272	667.012
209.563	14.087	890.482	666.165
210.577	14.124	889.871	665.797
211.592	14.182	889.116	665.406
212.607	14.365	888.817	665.854
213.621	14.383	888.234	665.431
214.636	14.321	887.370	664.478
215.650	14.240	887.291	664.037
216.665	14.242	886.703	663.545
217.680	14.289	886.112	663.230
218.694	14.327	885.336	662.742
219.709	14.359	885.074	662.615
220.723	14.420	884.128	662.093
221.738	14.542	883.236	661.848
222.753	14.378	882.913	660.899
223.767	14.382	881.914	660.107
224.782	14.551	880.891	659.953
225.796	14.482	880.099	659.026
226.811	14.541	879.531	658.778
227.826	14.492	879.176	658.259
228.840	14.436	878.757	657.665
229.855	14.376	877.862	656.701
230.869	14.483	877.219	656.584
231.884	14.614	876.972	656.857
232.899	14.478	875.813	655.396
233.913	14.360	875.092	654.334
234.928	14.431	874.530	654.136
235.942	14.395	874.287	653.756
236.957	14.538	873.389	653.587
237.972	14.457	872.875	652.825
238.986	14.414	872.308	652.174
240.001	14.458	871.684	651.823
241.015	14.429	870.841	651.021
242.030	14.591	870.210	651.123
243.045	14.534	869.551	650.351
244.059	14.528	869.105	649.939
245.074	14.469	868.866	649.470
246.088	14.746	867.541	649.501
247.103	14.739	867.033	649.036
248.117	14.847	866.368	648.899
249.132	14.723	866.292	648.304
250.147	14.856	865.734	648.345
251.161	14.812	864.780	647.404
252.176	14.894	863.897	647.002
253.190	14.933	863.649	646.911
254.205	14.911	863.269	646.484
255.220	14.951	862.449	645.965
256.234	15.027	861.876	645.772
257.249	15.130	861.232	645.630
258.263	15.014	860.771	644.781
259.278	15.117	860.075	644.598
260.293	14.954	859.518	643.497
261.307	15.084	859.205	643.707
262.322	15.077	858.423	643.036
263.336	15.174	857.548	642.697
264.351	15.128	857.141	642.156
265.366	15.225	856.140	641.721
266.380	15.206	856.148	641.600
267.395	15.192	855.041	640.658
268.409	15.240	854.351	640.269
269.424	15.140	854.019	639.580
270.439	15.260	853.301	639.447
271.453	15.213	852.937	638.936
272.468	15.131	852.366	638.142
273.482	15.295	851.064	637.731
274.497	15.216	850.948	637.288
275.512	15.286	849.942	636.744
276.526	15.304	849.167	636.178
277.541	15.311	848.315	635.509
278.555	15.212	848.339	635.096
279.570	15.273	847.864	634.915
280.585	15.280	847.093	634.305
281.599	15.354	846.530	634.110
282.614	15.517	845.430	633.842
283.628	15.513	845.083	633.514
284.643	15.461	844.824	633.068
285.657	15.384	844.078	632.160
286.672	15.302	843.850	631.625
287.687	15.353	843.188	631.266
288.701	15.502	842.645	631.365
289.716	15.526	841.949	630.876
290.730	15.401	841.436	629.967
291.745	15.593	841.024	630.325
292.760	15.435	840.304	629.137
293.774	15.528	839.434	628.778
294.789	15.540	839.548	628.852
295.803	15.567	838.867	628.386
296.818	15.561	838.026	627.679
297.833	15.651	837.386	627.480
298.847	15.647	836.612	626.830
299.862	15.789	835.665	626.593
300.876	15.589	835.361	625.565
301.891	15.572	835.052	625.217
302.906	15.635	833.917	624.546
303.920	15.750	833.375	624.512
304.935	15.846	832.960	624.500
305.949	15.816	832.331	623.862
306.964	15.693	831.875	623.009
307.979	15.692	831.253	622.484
308.993	15.823	830.775	622.558
310.008	15.791	830.353	622.067
311.022	15.759	829.690	621.398
312.037	15.993	829.044	621.720
313.052	15.918	828.622	621.074
314.066	15.874	828.169	620.519
315.081	15.732	827.306	619.294
316.095	15.767	826.615	618.851
317.110	15.714	826.224	618.307
318.125	15.831	825.708	618.296
319.139	15.787	825.360	617.820
320.154	16.007	824.478	617.910
321.168	15.841	824.261	617.085
322.183	15.968	823.670	617.054
323.197	15.847	823.490	616.421
324.212	15.933	823.091	616.383
325.227	15.960	821.760	615.431
326.241	16.054	821.734	615.702
327.256	16.074	820.998	615.166
328.270	16.040	820.413	614.549
329.285	15.936	819.977	613.789
330.300	15.978	819.360	613.426
331.314	15.995	818.568	612.842
332.329	16.023	818.048	612.501
333.343	16.109	817.673	612.477
334.358	15.999	817.019	611.535
335.373	16.050	816.679	611.409
336.387	16.004	816.351	610.944
337.402	16.110	815.742	610.819
338.416	16.275	814.814	610.665
339.431	16.287	814.190	610.186
340.446	16.350	813.475	609.824
341.460	16.305	813.302	609.480
342.475	16.351	812.531	609.014
343.489	16.371	812.075	608.691
344.504	16.400	811.543	608.340
345.519	16.352	811.383	607.995
346.533	16.495	810.345	607.677
347.548	16.607	809.838	607.647
348.562	16.475	809.548	606.899
349.577	16.322	809.259	606.081
350.592	16.390	808.846	605.962
351.606	16.227	808.164	604.814
352.621	16.300	807.573	604.578
353.635	16.329	807.582	604.635
354.650	16.374	807.326	604.550
355.665	16.491	806.240	604.105
356.679	16.527	805.901	603.924
357.694	16.512	805.571	603.570
358.708	16.606	804.690	603.191
359.723	16.675	803.954	602.830
360.738	16.458	803.870	601.945
361.752	16.466	803.320	601.506
362.767	16.452	802.953	601.129
363.781	16.519	802.385	600.889
364.796	16.607	802.184	600.997
365.810	16.680	801.584	600.754
366.825	16.760	801.108	600.627
367.840	16.785	800.947	600.541
368.854	16.827	800.105	600.005
369.869	16.803	799.986	599.779
370.883	16.809	799.186	599.147
371.898	16.758	798.427	598.344
372.913	16.796	797.986	598.095
373.927	16.787	797.504	597.650
374.942	16.760	797.249	597.312
375.956	16.703	796.771	596.699
376.971	16.892	796.066	596.784
377.986	16.877	795.389	596.170
379.000	16.846	795.030	595.739
380.015	16.972	794.706	595.885
381.029	17.182	793.377	595.574
382.044	17.023	793.224	594.848
383.059	17.016	792.822	594.469
384.073	16.863	792.693	593.786
385.088	17.142	791.701	593.965
386.102	16.908	791.356	592.836
387.117	16.985	790.483	592.397
388.132	17.002	790.433	592.369
389.146	16.838	790.204	591.571
390.161	16.928	789.691	591.449
391.175	17.081	788.829	591.283
392.190	17.090	789.020	591.406
393.205	17.201	788.470	591.327
394.219	16.896	788.211	590.021
395.234	16.889	787.815	589.647
396.248	17.078	786.791	589.486
397.263	17.103	786.307	589.156
398.278	17.188	785.467	588.770
399.292	16.940	785.473	587.862
400.307	16.895	785.436	587.627
401.321	17.157	784.600	587.857
402.336	17.041	784.314	587.189
403.350	17.078	784.157	587.147
404.365	17.103	783.515	586.702
405.380	17.298	782.807	586.793
406.394	17.326	782.683	586.743
407.409	17.251	782.211	586.080
408.423	17.411	781.617	586.135
409.438	17.532	781.219	586.199
410.453	17.496	780.639	585.590
411.467	17.436	780.760	585.423
412.482	17.571	779.828	585.135
413.496	17.426	779.502	584.341
414.511	17.568	778.876	584.308
415.526	17.545	778.650	584.006
416.540	17.547	778.668	583.975
417.555	17.511	778.078	583.357
418.569	17.404	777.828	582.753
419.584	17.617	776.815	582.671
420.599	17.597	776.684	582.452
421.613	113.613	1294.724	1483.080
422.628	97.299	1370.186	1483.170
