DTS Sentinel unit serial number:	SN413079Multiplexer serial number:	ORYXHardware model number:	OX4-SRSoftware version number:	ORYX F/W v4.00 Oryx Data Collector v3.7.2.0data status	okinstallation	princeton_trtdifferential loss correction	single-endedforward channel	channel 3reverse channel	N/Adate	2019/09/14time	09:56:34forward acquisition time	60.00reverse acquisition time	0.00gamma	496.2192k internal	0.2314k external	0.2314temperature offset calibration	1.0053default loss term (dB/km)	0.3790temperature slope calibration	1.0000multiplexer offset coefficient	1.0000multiplexer slope coefficient	1.0000fibre end	0.00T internal ref (°C)	32.84T ext. ref 1 (°C)	3.99T ext. ref 2 (°C)	31.24length (m)	temperature (°C)	Stokes	anti-Stokes-747.200	-200.000	0.023	0.157
-746.185	-103.630	-0.144	0.034
-745.171	292.481	0.237	0.438
-744.156	182.680	0.223	0.333
-743.142	-63.099	0.118	0.049
-742.127	-73.641	-0.120	0.044
-741.112	178.968	0.136	-0.201
-740.098	-53.915	-0.269	0.124
-739.083	800.000	0.086	0.245
-738.069	35.129	-0.121	-0.108
-737.054	55.993	-0.235	-0.231
-736.039	-151.998	-0.037	-0.003
-735.025	196.974	-0.063	0.098
-734.010	-200.000	-0.050	-0.281
-732.996	80.067	0.258	-0.281
-731.981	167.129	-0.141	-0.204
-730.966	447.128	-0.105	0.234
-729.952	-146.650	0.195	-0.017
-728.937	11.457	-0.172	0.134
-727.923	41.998	0.232	-0.213
-726.908	-88.578	-0.149	0.045
-725.894	800.000	0.037	-0.149
-724.879	39.441	-0.092	-0.083
-723.864	-6.322	-0.336	-0.232
-722.850	-74.882	-0.270	0.098
-721.835	-60.780	-0.083	0.036
-720.821	-103.408	-0.390	0.093
-719.806	-43.771	-0.204	-0.104
-718.791	82.159	-0.130	-0.143
-717.777	-60.702	-0.209	0.090
-716.762	-94.733	0.044	0.012
-715.748	-200.000	-0.005	-0.237
-714.733	657.817	-0.197	-0.514
-713.718	-63.772	0.314	-0.130
-712.704	190.340	-0.035	0.054
-711.689	800.000	0.060	0.254
-710.675	429.145	-0.086	0.188
-709.660	800.000	-0.067	-0.203
-708.645	-47.887	-0.340	-0.167
-707.631	166.635	0.265	-0.381
-706.616	83.540	0.189	-0.209
-705.602	260.513	0.185	0.324
-704.587	-71.842	0.358	-0.135
-703.572	-140.063	-0.266	0.028
-702.558	-200.000	-0.030	-0.492
-701.543	209.279	0.118	-0.187
-700.529	-13.198	0.202	0.133
-699.514	-200.000	0.003	0.024
-698.499	9.883	0.170	0.131
-697.485	-68.199	0.248	-0.098
-696.470	37.180	-0.029	0.026
-695.456	-20.435	0.034	-0.021
-694.441	-200.000	0.006	-0.139
-693.426	-63.047	-0.236	-0.099
-692.412	-28.456	-0.324	-0.189
-691.397	34.180	0.094	0.083
-690.383	-123.531	-0.158	0.025
-689.368	46.726	-0.161	0.151
-688.354	151.410	-0.138	0.190
-687.339	-128.343	0.111	-0.016
-686.324	-200.000	-0.000	0.066
-685.310	411.847	0.202	0.435
-684.295	-65.192	-0.279	-0.114
-683.281	-89.435	0.160	0.048
-682.266	11.947	-0.029	-0.022
-681.251	-97.364	-0.130	-0.034
-680.237	800.000	-0.062	-0.181
-679.222	279.342	0.042	-0.077
-678.208	122.671	-0.130	-0.165
-677.193	-158.394	-0.332	-0.019
-676.178	-200.000	-0.007	0.092
-675.164	176.053	0.087	-0.128
-674.149	-167.511	-0.161	0.006
-673.135	132.388	0.155	-0.202
-672.120	-200.000	-0.046	0.236
-671.105	459.353	-0.108	-0.242
-670.091	-44.238	0.059	-0.030
-669.076	-93.489	0.268	0.075
-668.062	192.323	0.076	0.116
-667.047	431.158	0.198	0.434
-666.032	34.297	0.215	0.189
-665.018	-93.588	0.176	-0.049
-664.003	28.008	0.166	-0.141
-662.989	-27.668	0.040	-0.024
-661.974	20.546	-0.033	0.027
-660.959	800.000	0.070	-0.265
-659.945	-25.881	-0.140	0.084
-658.930	-200.000	-0.015	0.086
-657.916	216.497	-0.080	-0.129
-656.901	536.044	-0.163	0.392
-655.886	-76.498	-0.217	0.077
-654.872	92.109	-0.189	-0.215
-653.857	54.814	-0.238	-0.232
-652.843	-200.000	0.010	0.102
-651.828	215.114	-0.202	-0.324
-650.814	800.000	-0.075	-0.286
-649.799	-200.000	-0.005	-0.296
-648.784	22.313	-0.268	-0.221
-647.770	-68.210	0.192	0.075
-646.755	-127.884	-0.188	-0.027
-645.741	-184.906	-0.178	-0.003
-644.726	46.769	0.324	-0.304
-643.711	495.804	0.144	-0.335
-642.697	800.000	-0.089	-0.294
-641.682	-164.893	-0.138	-0.006
-640.668	-14.702	-0.263	0.170
-639.653	-115.819	0.220	0.042
-638.638	800.000	0.177	-0.565
-637.624	8.256	-0.095	-0.072
-636.609	-9.172	-0.068	0.046
-635.595	20.518	0.216	0.176
-634.580	284.543	-0.203	0.369
-633.565	-29.047	0.406	0.235
-632.551	-179.963	-0.169	0.004
-631.536	-122.884	-0.420	-0.068
-630.522	85.892	0.164	-0.182
-629.507	73.100	0.060	-0.063
-628.492	-200.000	-0.064	-0.373
-627.478	151.968	0.154	-0.212
-626.463	248.867	0.160	0.273
-625.449	-200.000	0.035	0.385
-624.434	-43.213	-0.149	-0.076
-623.419	-26.364	-0.144	-0.085
-622.405	-72.876	0.423	-0.157
-621.390	-71.948	-0.045	0.017
-620.376	42.455	0.122	0.112
-619.361	-99.123	-0.330	0.084
-618.346	-136.472	-0.234	0.027
-617.332	-0.982	-0.038	-0.027
-616.317	204.083	0.020	-0.031
-615.303	-200.000	-0.044	0.215
-614.288	-130.649	-0.257	-0.035
-613.273	-200.000	-0.006	0.256
-612.259	47.119	-0.185	-0.174
-611.244	-134.641	-0.199	-0.024
-610.230	-31.906	-0.106	0.060
-609.215	24.655	-0.297	-0.248
-608.201	-181.570	-0.215	-0.004
-607.186	-200.000	-0.005	0.036
-606.171	-20.462	0.199	0.124
-605.157	-114.334	-0.440	-0.085
-604.142	10.083	-0.177	-0.136
-603.128	343.782	-0.071	-0.141
-602.113	322.446	-0.071	0.137
-601.098	218.563	-0.302	-0.487
-600.084	73.147	0.209	-0.220
-599.069	21.354	0.250	0.204
-598.055	800.000	-0.120	0.438
-597.040	610.321	0.005	0.014
-596.025	-200.000	-0.009	-0.066
-595.011	-90.679	-0.341	0.099
-593.996	-16.384	0.067	-0.043
-592.982	-200.000	0.021	-0.114
-591.967	328.919	0.042	-0.081
-590.952	-2.933	0.045	-0.032
-589.938	800.000	-0.078	-0.276
-588.923	-200.000	-0.021	-0.133
-587.909	259.530	0.071	-0.124
-586.894	65.430	-0.155	0.158
-585.879	-200.000	-0.019	0.113
-584.865	-85.629	0.113	-0.035
-583.850	-140.868	-0.325	0.034
-582.836	-65.576	0.304	0.123
-581.821	-60.104	-0.269	0.115
-580.806	-172.702	-0.207	-0.007
-579.792	118.062	0.043	-0.054
-578.777	-20.909	0.188	0.116
-577.763	239.423	0.054	-0.091
-576.748	-200.000	0.012	0.099
-575.733	-200.000	0.010	0.189
-574.719	338.157	0.046	-0.091
-573.704	628.155	-0.062	0.158
-572.690	85.395	-0.099	0.109
-571.675	-200.000	-0.038	0.282
-570.661	-46.393	0.045	0.022
-569.646	50.559	-0.114	-0.109
-568.631	-11.407	-0.226	0.150
-567.617	800.000	0.085	0.270
-566.602	243.513	0.178	0.300
-565.588	-150.231	-0.313	-0.024
-564.573	-178.299	0.184	-0.004
-563.558	-26.732	0.163	0.096
-562.544	236.459	-0.116	-0.193
-561.529	-109.247	0.202	-0.043
-560.515	365.379	-0.052	-0.106
-559.500	-56.457	0.166	-0.074
-558.485	-64.941	0.044	-0.018
-557.471	-49.880	-0.217	-0.104
-556.456	-114.499	-0.260	0.050
-555.442	15.852	-0.087	-0.069
-554.427	800.000	-0.039	0.109
-553.412	161.452	0.272	-0.384
-552.398	-166.090	-0.122	-0.005
-551.383	18.566	0.233	0.187
-550.369	-145.083	-0.376	0.034
-549.354	-65.860	0.281	0.113
-548.339	511.713	-0.089	-0.209
-547.325	800.000	-0.037	-0.107
-546.310	-12.752	0.330	-0.217
-545.296	-10.925	-0.120	-0.080
-544.281	800.000	-0.108	-0.303
-543.266	-200.000	-0.009	0.126
-542.252	-110.326	0.385	0.080
-541.237	119.959	0.199	-0.248
-540.223	-200.000	-0.016	-0.199
-539.208	800.000	0.086	-0.288
-538.193	-83.492	-0.187	0.060
-537.179	585.589	0.122	0.301
-536.164	-200.000	-0.006	0.381
-535.150	-20.916	-0.036	0.022
-534.135	-112.771	0.181	0.036
-533.121	-116.734	0.294	0.054
-532.106	108.674	-0.024	0.029
-531.091	111.496	-0.128	0.155
-530.077	-165.034	0.182	0.008
-529.062	168.274	-0.149	-0.214
-528.048	-92.261	0.246	0.070
-527.033	-74.601	-0.190	-0.069
-526.018	124.042	0.178	-0.225
-525.004	-150.152	-0.286	0.022
-523.989	-44.588	-0.007	-0.003
-522.975	-123.507	0.281	-0.045
-521.960	-10.979	0.117	0.078
-520.945	800.000	0.048	0.194
-519.931	-43.178	-0.135	0.068
-518.916	141.274	-0.282	-0.375
-517.902	-200.000	-0.020	-0.136
-516.887	1.879	-0.069	0.050
-515.872	-200.000	0.068	0.308
-514.858	387.755	-0.162	0.337
-513.843	31.245	0.161	-0.139
-512.829	-200.000	-0.036	0.337
-511.814	226.916	0.112	0.182
-510.799	-51.931	0.091	-0.042
-509.785	146.303	0.061	0.083
-508.770	-163.528	-0.110	-0.005
-507.756	-200.000	-0.018	-0.378
-506.741	-133.156	-0.103	-0.013
-505.726	-71.358	-0.131	-0.049
-504.712	-120.743	0.388	0.066
-503.697	-145.331	0.172	-0.016
-502.683	-200.000	-0.068	-0.337
-501.668	76.826	-0.112	-0.120
-500.653	-140.652	0.287	-0.030
-499.639	-200.000	-0.006	-0.273
-498.624	-23.074	-0.212	-0.128
-497.610	-200.000	-0.022	-0.137
-496.595	-129.986	0.131	0.018
-495.581	47.661	0.058	-0.054
-494.566	26.279	-0.162	0.136
-493.551	-200.000	-0.047	0.325
-492.537	550.579	-0.085	0.204
-491.522	-1.735	0.199	-0.140
-490.508	-200.000	-0.001	-0.216
-489.493	-138.215	0.115	-0.013
-488.478	104.101	-0.079	-0.094
-487.464	423.369	-0.095	-0.205
-486.449	107.239	-0.218	-0.260
-485.435	566.470	0.165	-0.401
-484.420	800.000	-0.064	-0.231
-483.405	-200.000	0.053	-0.283
-482.391	-40.052	-0.125	-0.065
-481.376	-145.377	-0.066	-0.006
-480.362	496.450	0.103	-0.237
-479.347	-44.975	-0.192	-0.096
-478.332	-200.000	-0.046	-0.269
-477.318	-108.833	0.061	0.013
-476.303	87.599	0.210	0.234
-475.289	-200.000	0.030	-0.137
-474.274	-7.693	-0.220	0.149
-473.259	14.468	0.087	-0.068
-472.245	-200.000	0.014	-0.093
-471.230	-200.000	0.020	-0.201
-470.216	217.440	0.048	0.077
-469.201	-3.872	-0.155	-0.108
-468.186	-53.983	0.379	-0.173
-467.172	-35.175	0.270	-0.148
-466.157	7.579	0.165	0.124
-465.143	-200.000	-0.003	0.121
-464.128	-5.758	0.343	0.236
-463.113	-30.970	-0.116	0.066
-462.099	13.452	-0.313	0.244
-461.084	800.000	-0.056	0.170
-460.070	332.806	0.111	-0.214
-459.055	44.735	-0.343	0.316
-458.040	-71.300	0.141	-0.053
-457.026	-57.639	-0.108	0.048
-456.011	-81.041	0.161	-0.053
-454.997	800.000	0.113	0.346
-453.982	-73.765	-0.485	0.177
-452.968	800.000	-0.105	0.327
-451.953	64.579	-0.189	0.191
-450.938	-180.896	-0.455	-0.009
-449.924	-76.464	0.055	-0.019
-448.909	205.853	0.173	-0.269
-447.895	-18.684	-0.383	-0.239
-446.880	-31.676	-0.215	0.121
-445.865	505.245	0.113	0.262
-444.851	49.612	-0.141	0.133
-443.836	-107.986	-0.231	0.050
-442.822	768.827	0.152	0.415
-441.807	126.657	-0.169	0.215
-440.792	24.394	-0.221	0.183
-439.778	774.308	-0.112	-0.306
-438.763	-38.662	0.202	0.107
-437.749	-63.212	-0.152	0.063
-436.734	-159.074	-0.062	0.004
-435.719	207.988	-0.130	0.204
-434.705	-188.512	0.105	0.001
-433.690	-200.000	-0.001	0.127
-432.676	-35.716	-0.154	-0.084
-431.661	157.049	-0.064	0.089
-430.646	334.064	-0.112	0.217
-429.632	-200.000	0.014	0.207
-428.617	-45.039	-0.361	-0.180
-427.603	208.788	0.033	0.051
-426.588	37.900	-0.239	0.213
-425.573	-65.852	0.060	-0.024
-424.559	-70.837	-0.178	-0.067
-423.544	-82.118	0.169	-0.055
-422.530	318.345	-0.096	0.183
-421.515	773.133	-0.043	0.117
-420.500	800.000	-0.076	0.232
-419.486	-140.985	-0.158	-0.016
-418.471	-200.000	0.025	-0.223
-417.457	229.091	0.123	-0.201
-416.442	-48.189	0.041	0.020
-415.428	116.945	-0.119	0.146
-414.413	-53.936	-0.073	0.033
-413.398	-200.000	0.034	0.253
-412.384	279.144	0.188	0.335
-411.369	-200.000	-0.005	0.167
-410.355	623.847	0.112	0.283
-409.340	-128.137	0.039	0.006
-408.325	747.477	0.074	0.199
-407.311	-67.559	0.140	-0.055
-406.296	800.000	-0.072	0.298
-405.282	622.449	0.063	0.159
-404.267	212.742	0.021	0.033
-403.252	149.107	-0.177	-0.239
-402.238	69.038	0.205	0.211
-401.223	-97.665	-0.355	-0.092
-400.209	-200.000	-0.034	-0.199
-399.194	120.905	0.127	0.157
-398.179	102.403	-0.054	-0.064
-397.165	-200.000	-0.051	-0.386
-396.150	-69.214	0.404	0.156
-395.136	113.804	0.231	0.280
-394.121	156.081	0.186	0.257
-393.106	-200.000	0.018	-0.142
-392.092	531.910	0.104	0.246
-391.077	216.872	-0.155	-0.247
-390.063	226.625	-0.146	0.237
-389.048	66.560	-0.278	0.283
-388.033	-147.067	-0.234	0.020
-387.019	35.659	-0.245	-0.215
-386.004	421.977	0.094	-0.202
-384.990	800.000	0.113	0.322
-383.975	-167.028	-0.324	-0.013
-382.960	202.795	-0.054	0.084
-381.946	-200.000	0.034	0.477
-380.931	746.616	0.047	-0.126
-379.917	-200.000	-0.008	-0.172
-378.902	33.150	0.057	0.050
-377.888	-149.244	-0.381	-0.030
-376.873	59.743	-0.092	-0.091
-375.858	800.000	-0.105	0.292
-374.844	-94.849	0.112	0.030
-373.829	16.100	-0.119	-0.094
-372.815	-200.000	-0.083	-0.508
-371.800	-95.877	-0.086	0.023
-370.785	-37.218	-0.375	0.200
-369.771	800.000	0.039	-0.114
-368.756	-200.000	0.046	-0.220
-367.742	61.780	0.110	-0.109
-366.727	-112.570	0.312	-0.062
-365.712	331.391	-0.101	-0.195
-364.698	-111.856	0.196	0.040
-363.683	-7.288	0.076	-0.051
-362.669	112.473	-0.079	0.095
-361.654	-159.649	0.097	-0.005
-360.639	-177.978	0.178	0.004
-359.625	800.000	0.031	-0.114
-358.610	40.028	-0.071	-0.064
-357.596	-146.340	0.131	-0.011
-356.581	780.360	0.044	0.121
-355.566	120.065	0.169	0.210
-354.552	-50.681	0.140	0.066
-353.537	-66.861	0.425	-0.168
-352.523	-96.627	0.234	0.062
-351.508	-53.612	-0.186	0.085
-350.493	137.969	-0.076	-0.100
-349.479	111.844	0.253	-0.305
-348.464	-200.000	0.041	-0.287
-347.450	800.000	0.084	-0.341
-346.435	800.000	0.070	0.256
-345.420	-200.000	-0.058	-0.460
-344.406	-200.000	-0.068	0.304
-343.391	-70.249	-0.244	0.093
-342.377	-200.000	-0.019	0.177
-341.362	-111.537	0.364	-0.074
-340.348	1.869	0.085	0.061
-339.333	800.000	-0.048	0.170
-338.318	-200.000	0.034	0.231
-337.304	-132.562	-0.245	-0.031
-336.289	800.000	0.142	0.415
-335.275	-200.000	-0.037	-0.275
-334.260	147.263	0.076	-0.102
-333.245	180.860	0.093	-0.136
-332.231	-200.000	-0.003	-0.112
-331.216	245.415	0.048	0.081
-330.202	98.299	0.197	0.226
-329.187	-200.000	0.033	0.162
-328.172	-200.000	-0.013	0.360
-327.158	-100.551	-0.196	0.048
-326.143	114.497	0.056	-0.068
-325.129	800.000	0.018	0.062
-324.114	-101.507	-0.252	0.061
-323.099	800.000	0.091	-0.323
-322.085	-200.000	0.011	-0.069
-321.070	-86.639	-0.090	-0.027
-320.056	-33.854	0.370	-0.204
-319.041	-200.000	-0.001	-0.007
-318.026	-81.669	0.062	0.020
-317.012	-26.032	-0.088	-0.051
-315.997	-21.149	-0.140	-0.086
-314.983	-51.447	0.177	0.082
-313.968	129.519	0.173	-0.221
-312.953	-200.000	-0.096	0.507
-311.939	247.300	-0.024	0.040
-310.924	-200.000	-0.004	0.082
-309.910	29.112	0.204	0.172
-308.895	151.653	-0.083	-0.113
-307.880	800.000	-0.048	-0.150
-306.866	800.000	0.035	0.117
-305.851	306.989	0.157	0.292
-304.837	-73.775	-0.045	0.016
-303.822	462.772	0.057	-0.126
-302.807	800.000	-0.095	0.337
-301.793	-113.089	-0.101	0.020
-300.778	43.433	0.012	0.011
-299.764	-90.461	0.176	-0.051
-298.749	142.297	0.245	0.324
-297.735	160.494	-0.151	-0.209
-296.720	2.808	0.204	-0.148
-295.705	-69.429	-0.370	0.142
-294.691	-124.674	-0.047	0.007
-293.676	800.000	0.030	-0.097
-292.662	124.660	0.156	-0.195
-291.647	153.985	0.123	-0.167
-290.632	-63.108	-0.146	-0.060
-289.618	-71.101	0.194	0.073
-288.603	47.822	-0.183	0.170
-287.589	181.516	-0.198	0.290
-286.574	-200.000	0.009	0.174
-285.559	-200.000	-0.033	-0.394
-284.545	-132.091	-0.268	0.035
-283.530	127.090	0.158	-0.199
-282.516	800.000	-0.040	0.158
-281.501	670.297	-0.078	0.201
-280.486	-92.359	0.289	-0.081
-279.472	763.736	-0.166	-0.449
-278.457	-106.650	-0.264	0.059
-277.443	-25.074	0.353	-0.208
-276.428	-25.472	-0.136	-0.080
-275.413	-72.227	0.118	-0.044
-274.399	-33.400	-0.179	-0.099
-273.384	39.162	0.094	-0.084
-272.370	-129.883	-0.223	-0.030
-271.355	514.785	-0.069	0.160
-270.340	577.316	0.009	-0.021
-269.326	-200.000	0.062	0.355
-268.311	-50.239	0.070	-0.033
-267.297	-200.000	-0.002	0.149
-266.282	-39.286	0.128	0.067
-265.267	-200.000	-0.028	0.218
-264.253	15.816	0.062	0.048
-263.238	20.027	0.226	-0.181
-262.224	-119.315	-0.346	0.060
-261.209	1.083	0.170	-0.121
-260.195	-171.935	0.402	0.013
-259.180	34.558	0.058	0.051
-258.165	232.198	0.116	0.189
-257.151	778.434	-0.074	0.200
-256.136	-200.000	0.097	0.485
-255.122	300.236	0.083	0.152
-254.107	-68.700	-0.138	-0.053
-253.092	0.818	-0.103	-0.074
-252.078	-200.000	0.012	0.068
-251.063	-200.000	0.011	-0.115
-250.049	50.070	0.191	0.180
-249.034	126.448	0.233	-0.293
-248.019	-33.341	0.114	-0.063
-247.005	309.835	0.122	-0.227
-245.990	-169.953	0.218	-0.008
-244.976	-108.436	0.382	-0.082
-243.961	-51.143	-0.310	-0.144
-242.946	-200.000	0.042	0.398
-241.932	-139.946	-0.490	0.051
-240.917	704.871	0.070	0.184
-239.903	68.706	0.095	0.097
-238.888	457.799	0.116	0.256
-237.873	461.149	0.119	-0.264
-236.859	-70.311	-0.253	0.095
-235.844	-106.333	-0.081	0.018
-234.830	54.173	0.182	-0.174
-233.815	225.797	0.057	-0.092
-232.800	52.761	-0.200	0.190
-231.786	82.975	0.041	-0.044
-230.771	-46.908	-0.286	-0.139
-229.757	-129.765	0.209	0.029
-228.742	105.799	0.065	0.077
-227.727	125.726	-0.195	-0.245
-226.713	-200.000	-0.016	-0.426
-225.698	599.358	0.074	0.182
-224.684	156.387	-0.091	-0.125
-223.669	209.156	0.179	-0.278
-222.655	-79.141	0.155	0.052
-221.640	210.541	-0.124	0.194
-220.625	-33.311	0.183	-0.100
-219.611	-7.182	0.202	-0.136
-218.596	336.888	-0.022	0.042
-217.582	17.448	-0.081	-0.064
-216.567	-110.343	0.183	0.038
-215.552	-200.000	0.015	-0.290
-214.538	26.667	-0.102	0.084
-213.523	79.000	0.173	0.184
-212.509	-200.000	-0.032	-0.152
-211.494	800.000	-0.027	0.114
-210.479	65.773	-0.224	0.226
-209.465	-158.463	0.033	0.002
-208.450	-119.040	-0.313	-0.054
-207.436	-122.473	0.086	-0.014
-206.421	-40.314	-0.154	-0.080
-205.406	-200.000	-0.127	-0.001
-204.392	-67.154	0.130	-0.051
-203.377	117.155	0.128	-0.156
-202.363	-140.654	-0.183	0.019
-201.348	435.408	0.163	-0.353
-200.333	20.797	-0.336	0.270
-199.319	-52.539	0.324	-0.149
-198.304	-137.775	-0.204	-0.023
-197.290	-200.000	0.005	0.051
-196.275	-52.562	-0.399	0.183
-195.260	-144.971	0.419	0.038
-194.246	38.495	0.110	-0.098
-193.231	800.000	-0.067	-0.190
-192.217	-69.135	0.189	-0.072
-191.202	270.228	-0.023	-0.040
-190.187	-86.443	0.128	-0.039
-189.173	-161.211	-0.117	0.006
-188.158	-53.801	-0.246	0.111
-187.144	-104.201	0.287	-0.066
-186.129	28.369	0.090	0.076
-185.114	122.770	0.038	0.047
-184.100	-112.466	-0.132	0.026
-183.085	-89.033	0.233	0.068
-182.071	-200.000	0.005	0.211
-181.056	2.128	-0.223	0.160
-180.042	-85.243	0.328	0.102
-179.027	-200.000	0.008	-0.226
-178.012	-200.000	-0.024	0.244
-176.998	620.149	0.088	-0.220
-175.983	-117.509	0.189	0.034
-174.969	800.000	-0.031	-0.106
-173.954	527.161	0.046	-0.107
-172.939	-0.219	0.285	-0.201
-171.925	0.107	-0.068	-0.048
-170.910	148.562	0.075	-0.100
-169.896	-200.000	0.086	0.408
-168.881	304.990	0.098	-0.180
-167.866	-29.925	-0.270	-0.153
-166.852	-70.123	0.422	0.159
-165.837	-127.817	0.116	-0.017
-164.823	-64.544	-0.127	0.051
-163.808	-151.858	0.271	-0.020
-162.793	-29.994	0.110	-0.062
-161.779	572.285	0.005	0.011
-160.764	-83.801	-0.172	-0.054
-159.750	-35.644	0.209	-0.112
-158.735	-200.000	-0.035	-0.202
-157.720	36.725	0.113	-0.099
-156.706	169.912	-0.200	-0.283
-155.691	-89.648	0.080	0.023
-154.677	-78.521	0.269	-0.091
-153.662	800.000	0.064	-0.257
-152.647	-82.607	-0.290	0.093
-151.633	47.497	0.229	-0.211
-150.618	186.216	0.122	0.179
-149.604	800.000	-0.093	-0.368
-148.589	30.263	-0.119	0.100
-147.574	-33.878	-0.230	0.125
-146.560	-123.223	0.270	-0.043
-145.545	-56.038	-0.096	-0.042
-144.531	-60.355	0.458	0.193
-143.516	-200.000	0.020	-0.106
-142.502	161.000	-0.088	0.122
-141.487	-200.000	-0.016	-0.211
-140.472	-200.000	0.005	0.172
-139.458	223.184	-0.105	-0.167
-138.443	800.000	0.031	0.125
-137.429	800.000	-0.091	-0.260
-136.414	-200.000	-0.028	0.264
-135.399	-200.000	-0.003	-0.126
-134.385	77.882	0.142	0.150
-133.370	-8.354	-0.293	0.195
-132.356	23.359	0.274	0.223
-131.341	-181.454	-0.494	0.010
-130.326	-200.000	0.032	0.179
-129.312	-200.000	-0.003	-0.025
-128.297	9.280	0.140	-0.104
-127.283	-41.954	0.388	0.197
-126.268	-128.288	0.207	0.029
-125.253	-200.000	0.006	-0.102
-124.239	-200.000	0.027	-0.329
-123.224	5.906	-0.052	0.038
-122.210	-200.000	-0.004	0.183
-121.195	-17.289	-0.166	-0.104
-120.180	200.900	0.153	-0.233
-119.166	-200.000	-0.010	-0.136
-118.151	-27.450	-0.227	0.130
-117.137	656.175	-0.012	0.030
-116.122	-200.000	0.026	-0.254
-115.107	-8.711	-0.090	0.060
-114.093	-89.208	0.195	0.057
-113.078	-128.339	0.110	0.016
-112.064	-80.101	-0.192	0.064
-111.049	-200.000	-0.027	0.216
-110.034	800.000	-0.038	0.132
-109.020	321.233	-0.113	0.213
-108.005	74.321	-0.185	0.192
-106.991	-68.399	0.012	0.005
-105.976	-92.615	-0.142	0.039
-104.962	53.056	0.082	0.078
-103.947	-72.277	0.261	0.096
-102.932	-61.352	-0.231	0.096
-101.918	800.000	0.061	0.262
-100.903	-200.000	-0.023	0.308
-99.889	-200.000	0.093	0.514
-98.874	-200.000	0.014	0.089
-97.859	272.115	-0.205	0.357
-96.845	-200.000	-0.009	0.139
-95.830	295.690	0.130	-0.236
-94.816	-200.000	0.012	-0.102
-93.801	241.803	-0.123	0.203
-92.786	242.455	-0.113	0.186
-91.772	-200.000	-0.090	-0.411
-90.757	-61.430	0.168	0.070
-89.743	570.385	-0.081	-0.194
-88.728	154.270	0.138	0.188
-87.713	237.159	0.155	0.253
-86.699	-50.969	0.089	-0.041
-85.684	-200.000	0.024	0.146
-84.670	235.983	0.077	-0.126
-83.655	216.316	0.167	0.263
-82.640	87.054	0.102	-0.112
-81.626	-129.337	0.368	0.051
-80.611	800.000	-0.053	0.224
-79.597	-49.175	0.124	0.058
-78.582	-35.105	-0.130	0.070
-77.567	800.000	-0.068	-0.222
-76.553	26.147	0.182	-0.150
-75.538	-103.332	0.260	0.061
-74.524	305.907	0.070	-0.128
-73.509	-127.271	0.243	-0.035
-72.494	-97.621	0.223	0.057
-71.480	-200.000	0.031	0.158
-70.465	73.576	-0.071	-0.074
-69.451	800.000	0.075	-0.221
-68.436	-102.715	0.287	-0.068
-67.422	-130.123	0.032	0.004
-66.407	386.835	-0.143	-0.293
-65.392	73.138	0.153	-0.158
-64.378	-124.110	-0.250	0.039
-63.363	217.607	-0.090	-0.142
-62.349	-93.092	-0.269	0.074
-61.334	86.060	-1.029	-1.118
-60.319	83.585	0.492	0.530
-59.305	800.000	-0.365	-1.097
-58.290	-200.000	0.256	1.111
-57.276	328.017	0.801	1.517
-56.261	-200.000	97.611	595.013
-55.246	607.241	1439.778	3543.925
-54.232	179.999	2652.743	3837.760
-53.217	118.948	2223.624	2712.559
-52.203	43.537	1749.230	1578.588
-51.188	35.886	1559.624	1353.872
-50.173	33.585	1532.481	1314.325
-49.159	53.362	1582.658	1497.044
-48.144	55.937	1601.280	1532.714
-47.130	36.343	1557.830	1355.304
-46.115	33.105	1542.465	1319.333
-45.100	32.891	1539.193	1314.986
-44.086	32.858	1537.355	1313.133
-43.071	32.847	1535.472	1311.402
-42.057	32.845	1533.245	1309.428
-41.042	32.793	1532.319	1308.225
-40.027	32.938	1530.619	1307.727
-39.013	32.856	1529.627	1306.261
-37.998	32.742	1528.766	1304.688
-36.984	32.873	1527.344	1304.325
-35.969	32.821	1526.016	1302.781
-34.954	32.777	1524.423	1301.065
-33.940	32.872	1522.784	1300.273
-32.925	32.934	1521.280	1299.358
-31.911	32.961	1519.815	1298.242
-30.896	32.844	1518.797	1296.516
-29.881	32.876	1517.193	1295.318
-28.867	32.927	1515.834	1294.454
-27.852	32.948	1514.089	1293.056
-26.838	32.918	1513.046	1291.911
-25.823	32.848	1511.351	1289.932
-24.809	32.866	1510.235	1289.054
-23.794	32.863	1508.373	1287.395
-22.779	32.858	1506.929	1286.072
-21.765	32.953	1505.795	1285.700
-20.750	32.827	1505.378	1284.438
-19.736	32.822	1504.098	1283.259
-18.721	32.916	1502.629	1282.596
-17.706	32.859	1501.587	1281.267
-16.692	32.873	1500.707	1280.564
-15.677	32.832	1499.691	1279.367
-14.663	32.816	1499.251	1278.828
-13.648	32.801	1497.712	1277.369
-12.633	32.747	1496.868	1276.233
-11.619	32.771	1496.519	1276.047
-10.604	32.873	1495.145	1275.513
-9.590	32.793	1494.435	1274.315
-8.575	32.797	1493.516	1273.507
-7.560	32.839	1492.451	1272.832
-6.546	32.827	1491.954	1272.274
-5.531	32.797	1491.236	1271.409
-4.517	32.813	1489.654	1270.119
-3.502	32.757	1489.095	1269.216
-2.487	32.758	1487.822	1268.084
-1.473	32.705	1486.954	1266.938
-0.458	32.821	1485.163	1266.141
0.556	33.436	1476.386	1258.002
1.571	31.356	1451.417	1223.019
2.586	28.391	1390.323	1152.810
3.600	26.801	1308.212	1075.214
4.615	24.939	1261.244	1025.862
5.629	20.812	1201.818	954.863
6.644	11.715	1113.880	838.475
7.659	4.961	1072.339	773.703
8.673	3.954	1066.626	764.536
9.688	3.993	1063.836	762.662
10.702	3.962	1062.192	761.266
11.717	4.041	1060.448	760.335
12.731	6.466	1063.170	774.143
13.746	14.834	1075.133	824.210
14.761	20.256	1082.155	856.356
15.775	20.007	1080.348	853.624
16.790	18.988	1078.647	847.191
17.804	18.120	1075.651	840.497
18.819	17.147	1074.173	834.488
19.834	16.792	1072.589	831.444
20.848	16.385	1072.047	828.953
21.863	16.234	1071.562	827.763
22.877	16.153	1069.920	826.024
23.892	15.917	1069.789	824.696
24.907	15.894	1068.752	823.708
25.921	15.825	1068.158	822.841
26.936	15.867	1067.027	822.102
27.950	15.939	1066.055	821.634
28.965	15.929	1065.161	820.822
29.980	15.912	1063.997	819.768
30.994	16.146	1062.593	819.753
32.009	16.150	1062.425	819.569
33.023	16.075	1061.611	818.507
34.038	16.206	1060.389	818.126
35.053	16.084	1059.490	816.770
36.067	15.956	1058.520	815.330
37.082	15.955	1057.703	814.624
38.096	15.921	1057.182	813.984
39.111	16.065	1055.825	813.563
40.126	16.143	1055.109	813.315
41.140	16.066	1053.719	811.805
42.155	15.707	1053.661	809.956
43.169	15.640	1052.126	808.385
44.184	15.633	1051.326	807.665
45.199	15.696	1049.744	806.677
46.213	15.726	1048.724	805.968
47.228	15.729	1048.024	805.373
48.242	15.781	1047.212	804.927
49.257	15.822	1046.270	804.329
50.271	15.940	1045.111	803.929
51.286	15.925	1044.024	802.951
52.301	16.147	1043.450	803.497
53.315	15.881	1042.916	801.747
54.330	15.885	1042.013	800.998
55.344	15.917	1040.819	800.162
56.359	15.897	1039.563	799.030
57.374	15.757	1039.007	797.871
58.388	15.735	1038.424	797.249
59.403	15.765	1037.310	796.461
60.417	15.756	1036.108	795.428
61.432	15.703	1035.931	794.972
62.447	15.604	1035.083	793.781
63.461	15.669	1033.972	793.165
64.476	15.475	1033.241	791.620
65.490	15.639	1032.007	791.377
66.505	15.451	1031.729	790.211
67.520	15.524	1030.900	789.849
68.534	15.655	1030.122	789.797
69.549	15.792	1028.797	789.355
70.563	15.611	1028.192	787.970
71.578	15.517	1027.885	787.227
72.593	15.447	1026.729	785.944
73.607	15.448	1025.737	785.118
74.622	15.355	1024.860	783.946
75.636	15.418	1023.800	783.358
76.651	15.475	1022.922	782.881
77.666	15.369	1022.964	782.352
78.680	15.480	1021.661	781.801
79.695	15.359	1021.406	780.974
80.709	15.581	1020.304	781.095
81.724	15.600	1019.788	780.717
82.739	15.702	1018.690	780.281
83.753	15.734	1018.439	780.172
84.768	15.921	1017.194	780.016
85.782	15.892	1017.059	779.705
86.797	16.096	1016.418	780.090
87.812	16.160	1015.131	779.327
88.826	15.934	1014.681	777.872
89.841	15.929	1013.552	776.915
90.855	16.043	1012.700	776.716
91.870	16.089	1011.996	776.318
92.884	16.065	1011.565	775.809
93.899	16.177	1010.295	775.282
94.914	16.056	1009.860	774.325
95.928	16.164	1008.980	774.079
96.943	16.235	1008.413	773.899
97.957	15.996	1007.725	772.206
98.972	15.988	1006.762	771.366
99.987	15.998	1006.142	770.868
101.001	16.031	1005.372	770.358
102.016	16.047	1004.529	769.719
103.030	16.085	1003.141	768.760
104.045	16.036	1002.095	767.666
105.060	16.021	1001.538	767.103
106.074	16.018	1000.435	766.180
107.089	15.910	999.553	764.945
108.103	15.586	999.522	763.379
109.118	15.665	997.305	761.979
110.133	15.688	997.208	761.939
111.147	15.618	996.158	760.756
112.162	15.593	994.812	759.546
113.176	15.707	994.667	759.883
114.191	15.653	993.741	758.867
115.206	15.786	992.435	758.401
116.220	15.912	991.431	758.135
117.235	15.689	990.741	756.536
118.249	15.614	990.326	755.814
119.264	15.709	989.452	755.506
120.279	15.656	988.745	754.661
121.293	15.544	988.008	753.529
122.308	15.632	987.003	753.092
123.322	15.618	985.966	752.172
124.337	15.601	985.012	751.300
125.352	15.552	983.963	750.217
126.366	15.546	982.953	749.354
127.381	15.555	981.925	748.541
128.395	15.553	981.124	747.856
129.410	15.577	979.902	746.966
130.424	15.605	979.350	746.606
131.439	15.488	978.720	745.537
132.454	15.854	977.246	745.971
133.468	15.843	976.998	745.668
134.483	15.661	976.618	744.503
135.497	15.748	976.291	744.574
136.512	15.864	974.930	743.985
137.527	15.764	974.362	743.043
138.541	15.760	973.480	742.287
139.556	15.824	972.558	741.801
140.570	15.810	972.176	741.383
141.585	15.822	971.390	740.770
142.600	16.027	970.352	740.813
143.614	16.013	969.598	740.110
144.629	15.969	969.090	739.463
145.643	16.100	968.235	739.320
146.658	16.131	967.463	738.801
147.673	15.951	966.522	737.232
148.687	15.948	965.080	736.053
149.702	15.993	964.371	735.642
150.716	15.750	963.542	733.883
151.731	15.841	962.678	733.557
152.746	15.862	961.966	733.044
153.760	15.896	961.060	732.437
154.775	15.880	960.577	731.934
155.789	16.086	959.249	731.749
156.804	16.050	958.846	731.223
157.819	15.976	958.138	730.297
158.833	15.993	957.581	729.881
159.848	16.110	957.220	730.049
160.862	16.127	956.581	729.571
161.877	16.141	955.699	728.894
162.892	15.960	954.500	727.133
163.906	15.933	953.362	726.085
164.921	15.979	952.917	725.882
165.935	15.862	951.814	724.472
166.950	16.042	950.696	724.331
167.964	16.014	949.797	723.464
168.979	15.938	948.899	722.387
169.994	15.993	947.883	721.788
171.008	15.973	947.170	721.093
172.023	15.984	946.179	720.325
173.037	15.976	945.774	719.918
174.052	16.108	945.432	720.156
175.067	16.184	944.168	719.453
176.081	15.920	943.839	718.014
177.096	16.013	942.103	717.026
178.110	16.038	941.250	716.420
179.125	15.846	941.344	715.610
180.140	16.040	940.097	715.423
181.154	16.003	939.172	714.499
182.169	15.997	939.065	714.327
183.183	16.220	938.390	714.698
184.198	16.215	937.754	714.129
185.213	16.308	937.063	713.934
186.227	16.244	936.366	713.066
187.242	16.268	936.107	712.909
188.256	16.294	935.307	712.345
189.271	16.485	934.559	712.517
190.286	16.435	933.783	711.655
191.300	16.204	932.985	710.011
192.315	15.995	931.888	708.233
193.329	15.893	931.011	707.076
194.344	15.880	930.540	706.602
195.359	15.991	930.071	706.650
196.373	16.059	929.906	706.745
197.388	16.333	929.322	707.386
198.402	16.259	929.068	706.823
199.417	16.434	928.763	707.259
200.432	16.464	928.270	706.946
201.446	16.570	927.749	706.930
202.461	16.651	927.403	706.944
203.475	16.703	926.708	706.568
204.490	16.595	925.954	705.481
205.504	16.604	924.486	704.337
206.519	16.514	923.782	703.366
207.534	16.499	923.213	702.807
208.548	16.446	922.820	702.224
209.563	16.470	921.650	701.372
210.577	16.450	921.355	701.001
211.592	16.524	920.474	700.577
212.607	16.548	920.122	700.344
213.621	16.700	919.820	700.682
214.636	16.696	918.700	699.752
215.650	16.575	918.250	698.846
216.665	16.758	917.478	698.951
217.680	16.802	917.521	699.105
218.694	16.760	916.499	698.090
219.709	16.859	915.891	697.973
220.723	16.781	915.654	697.410
221.738	16.845	914.770	696.939
222.753	16.769	913.940	695.933
223.767	16.698	913.349	695.130
224.782	16.830	912.232	694.758
225.796	16.864	911.667	694.407
226.811	16.917	911.156	694.173
227.826	17.000	910.264	693.773
228.840	16.812	909.768	692.565
229.855	16.662	909.076	691.363
230.869	16.760	908.458	691.231
231.884	16.799	907.998	690.978
232.899	16.873	906.846	690.344
233.913	16.690	906.365	689.170
234.928	16.722	905.484	688.570
235.942	16.469	905.592	687.562
236.957	16.728	903.850	687.231
237.972	16.859	903.280	687.266
238.986	16.645	902.914	686.062
240.001	16.758	901.975	685.743
241.015	16.656	901.402	684.835
242.030	16.842	900.708	685.000
243.045	16.788	900.208	684.339
244.059	16.948	899.502	684.390
245.074	16.834	898.942	683.443
246.088	16.957	898.664	683.665
247.103	17.009	898.112	683.395
248.117	17.011	897.549	682.912
249.132	17.047	896.993	682.574
250.147	17.119	896.669	682.557
251.161	17.390	895.829	682.945
252.176	17.433	895.035	682.453
253.190	17.397	894.453	681.803
254.205	17.584	893.771	681.974
255.220	17.472	893.200	681.030
256.234	17.520	892.591	680.697
257.249	17.477	891.799	679.860
258.263	17.547	891.191	679.618
259.278	17.591	890.769	679.408
260.293	17.521	890.296	678.709
261.307	17.535	889.721	678.267
262.322	17.618	888.915	677.923
263.336	17.731	888.686	678.137
264.351	17.514	888.177	676.828
265.366	17.657	887.294	676.662
266.380	17.662	886.736	676.197
267.395	17.673	886.014	675.630
268.409	17.704	884.949	674.881
269.424	17.574	884.517	673.977
270.439	17.600	883.559	673.289
271.453	17.641	882.890	672.883
272.468	17.647	881.890	672.084
273.482	17.506	881.612	671.256
274.497	17.533	881.256	671.032
275.512	17.570	880.498	670.541
276.526	17.499	879.348	669.329
277.541	17.564	878.765	669.081
278.555	17.497	878.762	668.757
279.570	17.680	878.136	668.939
280.585	17.724	877.544	668.601
281.599	17.895	876.475	668.396
282.614	17.881	875.828	667.789
283.628	17.685	875.319	666.576
284.643	17.795	874.867	666.601
285.657	17.630	874.711	665.779
286.672	17.675	874.057	665.399
287.687	17.660	873.737	665.037
288.701	17.850	872.841	665.039
289.716	17.842	872.195	664.454
290.730	17.801	871.520	663.722
291.745	17.987	870.761	663.809
292.760	17.870	870.495	663.094
293.774	17.958	869.572	662.673
294.789	17.993	869.348	662.577
295.803	17.902	869.165	662.029
296.818	17.866	868.398	661.248
297.833	17.819	867.710	660.481
298.847	17.773	866.830	659.574
299.862	17.805	866.069	659.064
300.876	17.895	865.413	658.851
301.891	18.017	864.946	658.908
302.906	18.026	864.311	658.403
303.920	18.170	863.250	658.087
304.935	18.145	863.085	657.810
305.949	18.278	862.327	657.686
306.964	18.266	861.521	656.966
307.979	18.064	861.414	656.050
308.993	18.071	860.825	655.569
310.008	18.203	860.286	655.606
311.022	18.331	859.742	655.626
312.037	18.259	859.050	654.762
313.052	18.225	858.389	654.073
314.066	18.044	858.117	653.114
315.081	17.975	857.167	652.070
316.095	17.925	856.479	651.298
317.110	18.082	856.019	651.489
318.125	18.075	855.307	650.863
319.139	18.087	854.871	650.520
320.154	17.971	854.581	649.802
321.168	18.204	853.994	650.181
322.183	18.208	853.523	649.782
323.197	18.223	852.820	649.245
324.212	18.044	852.220	648.052
325.227	18.252	851.567	648.288
326.241	18.184	851.129	647.638
327.256	18.272	850.274	647.265
328.270	18.151	849.915	646.475
329.285	18.139	849.622	646.149
330.300	18.055	848.906	645.233
331.314	18.138	848.447	645.140
332.329	18.075	847.730	644.299
333.343	18.382	846.930	644.790
334.358	18.325	846.859	644.464
335.373	18.364	846.262	644.098
336.387	18.346	845.414	643.331
337.402	18.463	845.318	643.639
338.416	18.383	844.787	642.878
339.431	18.567	844.304	643.142
340.446	18.714	843.710	643.184
341.460	18.707	843.064	642.607
342.475	18.716	842.388	642.069
343.489	18.670	842.220	641.712
344.504	18.783	841.394	641.449
345.519	18.750	841.551	641.389
346.533	18.929	840.492	641.192
347.548	19.030	840.077	641.197
348.562	18.784	839.341	639.662
349.577	18.626	839.054	638.798
350.592	18.564	838.022	637.726
351.606	18.404	837.889	636.972
352.621	18.515	837.165	636.777
353.635	18.522	836.965	636.596
354.650	18.600	836.371	636.375
355.665	18.724	836.001	636.500
356.679	18.632	835.385	635.633
357.694	18.851	834.803	635.944
358.708	18.688	834.322	634.917
359.723	18.713	833.849	634.595
360.738	18.768	833.360	634.371
361.752	18.646	832.679	633.345
362.767	18.803	832.037	633.380
363.781	18.804	832.302	633.528
364.796	18.890	831.727	633.354
365.810	18.930	831.236	633.069
366.825	19.115	831.003	633.519
367.840	19.027	830.684	632.895
368.854	19.141	830.381	633.026
369.869	18.994	829.488	631.750
370.883	19.002	829.075	631.410
371.898	19.097	828.257	631.077
372.913	19.097	827.563	630.494
373.927	19.153	827.286	630.432
374.942	19.177	826.177	629.618
375.956	18.784	826.233	628.168
376.971	19.048	825.796	628.746
377.986	19.262	824.662	628.605
379.000	19.330	824.334	628.551
380.015	19.299	823.741	627.927
381.029	19.243	823.686	627.626
382.044	19.398	822.710	627.390
383.059	19.284	822.262	626.581
384.073	19.234	821.652	625.879
385.088	19.419	821.112	626.085
386.102	19.094	820.389	624.299
387.117	19.116	820.048	624.062
388.132	18.995	819.570	623.206
389.146	18.972	819.042	622.665
390.161	19.126	818.316	622.616
391.175	19.349	818.049	623.162
392.190	19.297	817.654	622.618
393.205	19.482	816.903	622.661
394.219	19.360	816.335	621.733
395.234	19.269	816.434	621.426
396.248	19.172	815.926	620.632
397.263	19.210	815.183	620.151
398.278	19.070	814.730	619.246
399.292	19.111	814.238	618.966
400.307	19.271	813.487	618.914
401.321	19.068	813.651	618.256
402.336	19.191	813.153	618.264
403.350	19.192	812.853	617.984
404.365	19.143	812.407	617.415
405.380	19.310	811.913	617.585
406.394	19.458	811.755	617.938
407.409	19.342	811.316	617.135
408.423	19.595	810.595	617.435
409.438	19.705	809.915	617.256
410.453	19.563	809.968	616.735
411.467	19.648	809.261	616.445
412.482	19.705	808.790	616.234
413.496	19.823	808.146	616.110
414.511	19.722	808.100	615.663
415.526	19.765	807.732	615.479
416.540	19.844	807.144	615.259
417.555	19.892	806.431	614.829
418.569	19.864	806.137	614.452
419.584	19.710	805.890	613.662
420.599	19.931	805.029	613.737
421.613	156.623	1370.614	1790.266
422.628	135.987	1453.019	1790.371
