DTS Sentinel unit serial number:	SN413079Multiplexer serial number:	ORYXHardware model number:	OX4-SRSoftware version number:	ORYX F/W v4.00 Oryx Data Collector v3.7.2.0data status	okinstallation	princeton_trtdifferential loss correction	single-endedforward channel	channel 3reverse channel	N/Adate	2019/09/15time	05:04:34forward acquisition time	60.00reverse acquisition time	0.00gamma	496.2192k internal	0.2324k external	0.2324temperature offset calibration	0.9984default loss term (dB/km)	0.3790temperature slope calibration	1.0000multiplexer offset coefficient	1.0000multiplexer slope coefficient	1.0000fibre end	0.00T internal ref (°C)	30.64T ext. ref 1 (°C)	4.84T ext. ref 2 (°C)	25.17length (m)	temperature (°C)	Stokes	anti-Stokes-747.200	638.848	-0.122	0.314
-746.185	107.223	0.130	-0.156
-745.171	18.394	0.279	0.225
-744.156	-101.281	-0.226	0.056
-743.142	-140.879	-0.136	0.014
-742.127	-94.100	-0.362	0.100
-741.112	-200.000	0.031	0.281
-740.098	151.604	-0.179	-0.246
-739.083	-132.063	-0.153	0.020
-738.069	223.982	-0.105	0.171
-737.054	-200.000	-0.001	0.209
-736.039	-200.000	0.017	-0.089
-735.025	-72.513	-0.114	0.042
-734.010	97.522	0.116	-0.134
-732.996	-200.000	0.018	0.087
-731.981	254.480	-0.202	-0.349
-730.966	196.983	-0.123	-0.189
-729.952	-194.407	-0.289	0.002
-728.937	419.009	0.088	0.190
-727.923	-0.214	-0.155	-0.111
-726.908	-4.099	-0.145	-0.101
-725.894	-118.901	0.214	0.038
-724.879	-101.355	-0.155	0.038
-723.864	273.767	-0.264	-0.470
-722.850	-200.000	-0.003	-0.600
-721.835	34.609	0.100	0.089
-720.821	800.000	0.103	-0.332
-719.806	-46.243	-0.134	-0.067
-718.791	75.276	-0.080	0.085
-717.777	800.000	0.033	0.115
-716.762	786.870	0.061	-0.169
-715.748	-200.000	0.030	0.143
-714.733	-115.031	0.545	0.104
-713.718	72.899	-0.143	0.151
-712.704	-41.839	0.103	-0.053
-711.689	-200.000	-0.001	0.112
-710.675	-200.000	0.014	-0.111
-709.660	323.683	0.132	-0.253
-708.645	-104.837	-0.171	0.039
-707.631	-10.430	0.222	0.148
-706.616	35.018	-0.227	-0.200
-705.602	79.953	0.094	0.101
-704.587	-200.000	0.005	-0.204
-703.572	-0.594	-0.388	-0.278
-702.558	84.013	-0.085	-0.093
-701.543	-17.378	-0.247	0.156
-700.529	70.810	0.250	-0.261
-699.514	-200.000	0.034	0.223
-698.499	346.235	0.164	-0.325
-697.485	13.175	0.184	-0.144
-696.470	160.147	0.288	-0.405
-695.456	5.931	0.245	0.183
-694.441	-200.000	-0.026	-0.154
-693.426	-95.101	0.235	0.064
-692.412	-90.375	-0.235	0.069
-691.397	-25.310	-0.227	-0.135
-690.383	-39.426	-0.435	0.229
-689.368	75.573	-0.196	0.209
-688.354	-84.212	-0.305	0.097
-687.339	37.753	0.046	-0.042
-686.324	-59.582	0.128	0.055
-685.310	-118.726	0.183	-0.033
-684.295	111.346	0.172	-0.209
-683.281	-200.000	-0.065	0.298
-682.266	-93.995	0.221	0.061
-681.251	800.000	0.077	-0.238
-680.237	-25.428	0.121	-0.072
-679.222	102.347	0.362	-0.426
-678.208	51.166	-0.121	-0.115
-677.193	800.000	-0.079	0.306
-676.178	500.623	-0.115	-0.268
-675.164	80.000	0.126	-0.137
-674.149	28.300	0.212	0.181
-673.135	177.236	-0.072	0.105
-672.120	-146.875	0.309	-0.027
-671.105	800.000	0.166	-0.500
-670.091	-61.503	-0.185	-0.078
-669.076	-155.850	-0.213	-0.014
-668.062	-200.000	-0.001	-0.037
-667.047	-53.929	-0.097	-0.044
-666.032	-111.138	-0.162	0.033
-665.018	-200.000	0.029	-0.270
-664.003	60.372	0.220	0.219
-662.989	-164.929	0.336	0.015
-661.974	144.867	0.175	0.236
-660.959	51.179	-0.060	-0.057
-659.945	-200.000	-0.018	0.165
-658.930	64.254	0.057	-0.058
-657.916	800.000	0.039	0.130
-656.901	-174.812	-0.179	-0.005
-655.886	-108.449	0.309	0.067
-654.872	-119.192	-0.100	0.018
-653.857	-93.515	-0.445	-0.124
-652.843	-16.251	0.141	-0.090
-651.828	-178.177	-0.302	0.007
-650.814	-0.634	-0.124	-0.089
-649.799	-9.911	0.252	-0.169
-648.784	745.974	-0.092	0.249
-647.770	106.484	-0.155	0.185
-646.755	4.003	0.224	-0.164
-645.741	183.957	-0.097	0.145
-644.726	-200.000	-0.001	0.205
-643.711	-200.000	0.017	0.147
-642.697	-76.331	0.465	0.164
-641.682	-79.229	-0.071	0.024
-640.668	291.278	-0.142	-0.259
-639.653	368.674	-0.062	0.127
-638.638	508.814	0.136	0.319
-637.624	45.417	-0.241	-0.223
-636.609	-200.000	0.014	-0.186
-635.595	90.535	-0.137	-0.154
-634.580	90.914	0.155	-0.175
-633.565	52.663	-0.307	-0.295
-632.551	13.960	0.304	0.237
-631.536	297.596	-0.182	-0.337
-630.522	-200.000	-0.132	0.000
-629.507	631.596	-0.059	-0.150
-628.492	318.623	-0.126	-0.240
-627.478	307.322	0.206	-0.385
-626.463	-81.008	-0.183	0.061
-625.449	-200.000	0.007	0.070
-624.434	-11.777	-0.108	0.071
-623.419	-100.327	-0.181	-0.045
-622.405	569.323	-0.174	-0.426
-621.390	360.971	-0.037	-0.074
-620.376	292.285	0.069	0.126
-619.361	235.524	0.011	-0.018
-618.346	-11.713	-0.122	-0.080
-617.332	45.885	-0.280	0.260
-616.317	-200.000	-0.013	0.235
-615.303	800.000	-0.086	0.298
-614.288	-138.414	-0.315	-0.035
-613.273	-47.385	0.125	-0.061
-612.259	800.000	0.076	-0.262
-611.244	465.974	0.017	-0.039
-610.230	-200.000	-0.066	0.328
-609.215	-73.068	-0.148	0.054
-608.201	-200.000	0.000	0.052
-607.186	800.000	-0.074	0.246
-606.171	-200.000	-0.010	0.238
-605.157	38.442	0.144	0.129
-604.142	-79.287	0.141	-0.048
-603.128	494.391	0.120	-0.276
-602.113	-200.000	0.016	0.083
-601.098	-20.327	0.196	0.121
-600.084	90.149	0.113	-0.127
-599.069	-92.576	0.193	-0.054
-598.055	-40.607	0.156	0.081
-597.040	-200.000	-0.043	0.502
-596.025	212.026	0.242	0.383
-595.011	-25.447	-0.239	0.142
-593.996	-72.392	-0.387	0.144
-592.982	-111.365	0.300	0.061
-591.967	-16.723	0.163	-0.103
-590.952	127.967	-0.211	0.270
-589.938	-97.651	0.261	0.068
-588.923	-80.687	-0.125	0.042
-587.909	19.014	-0.036	0.029
-586.894	80.919	0.263	-0.285
-585.879	-200.000	-0.016	-0.203
-584.865	-81.189	0.116	0.038
-583.850	-56.810	0.237	0.105
-582.836	-105.095	0.162	-0.037
-581.821	42.849	-0.376	-0.344
-580.806	-25.715	0.405	-0.240
-579.792	-200.000	-0.034	-0.272
-578.777	105.288	-0.236	0.280
-577.763	-1.814	0.228	0.161
-576.748	-112.678	-0.167	-0.033
-575.733	-200.000	0.004	0.245
-574.719	-150.368	-0.268	0.021
-573.704	-100.686	0.169	-0.042
-572.690	-200.000	0.014	-0.376
-571.675	-200.000	-0.021	0.371
-570.661	800.000	0.069	0.226
-569.646	-90.715	0.175	-0.051
-568.631	259.422	-0.065	0.113
-567.617	-162.938	0.054	0.003
-566.602	800.000	-0.060	0.207
-565.588	-200.000	0.019	-0.110
-564.573	351.010	0.131	0.261
-563.558	-117.750	-0.066	0.012
-562.544	98.942	0.057	-0.067
-561.529	-200.000	0.036	0.256
-560.515	261.112	0.042	0.073
-559.500	-6.389	-0.302	0.206
-558.485	-110.098	-0.247	0.052
-557.471	-35.025	-0.172	-0.094
-556.456	-82.517	-0.313	-0.102
-555.442	340.810	0.103	-0.202
-554.427	-110.454	0.085	-0.018
-553.412	-73.599	-0.287	0.105
-552.398	-5.891	0.211	-0.145
-551.383	-200.000	-0.027	-0.346
-550.369	707.755	0.055	0.146
-549.354	-49.227	-0.167	-0.080
-548.339	-59.359	-0.176	-0.076
-547.325	-97.481	0.250	-0.065
-546.310	-200.000	-0.024	0.256
-545.296	602.170	0.131	0.325
-544.281	378.255	0.096	-0.196
-543.266	-200.000	-0.020	-0.116
-542.252	671.320	0.107	-0.277
-541.237	-200.000	-0.011	-0.357
-540.223	75.267	0.199	-0.210
-539.208	1.241	0.248	0.178
-538.193	197.333	-0.047	0.073
-537.179	102.494	0.102	0.119
-536.164	230.946	-0.088	0.145
-535.150	-177.329	0.259	-0.006
-534.135	504.437	0.115	0.267
-533.121	-73.478	0.202	0.074
-532.106	-29.152	0.170	-0.098
-531.091	800.000	-0.080	-0.241
-530.077	-150.719	0.293	-0.022
-529.062	-200.000	-0.022	-0.184
-528.048	294.646	-0.166	-0.305
-527.033	168.228	0.078	-0.111
-526.018	-34.917	-0.045	-0.025
-525.004	-200.000	0.003	-0.414
-523.989	35.662	0.234	-0.206
-522.975	-93.388	-0.306	-0.085
-521.960	1.587	-0.104	0.075
-520.945	800.000	-0.122	-0.399
-519.931	-38.914	-0.157	-0.083
-518.916	800.000	-0.097	0.288
-517.902	181.499	-0.127	-0.187
-516.887	-57.683	-0.098	0.043
-515.872	-47.811	0.217	0.105
-514.858	322.528	-0.128	0.243
-513.843	625.911	-0.020	0.050
-512.829	-8.093	-0.352	-0.237
-511.814	114.817	-0.122	-0.149
-510.799	-54.327	0.263	0.119
-509.785	-200.000	0.004	0.138
-508.770	7.940	0.186	0.139
-507.756	19.782	-0.333	-0.268
-506.741	-200.000	0.006	-0.178
-505.726	517.577	-0.061	0.142
-504.712	628.014	-0.103	0.260
-503.697	240.109	-0.026	0.044
-502.683	70.510	-0.239	-0.247
-501.668	-18.435	0.105	-0.065
-500.653	674.973	0.105	0.272
-499.639	140.638	0.083	-0.110
-498.624	204.715	0.150	0.233
-497.610	259.591	0.251	0.434
-496.595	204.618	0.159	0.247
-495.581	-200.000	0.008	-0.349
-494.566	-200.000	0.081	0.440
-493.551	113.401	0.173	-0.209
-492.537	800.000	-0.051	0.199
-491.522	-172.739	-0.258	0.008
-490.508	79.787	0.131	-0.141
-489.493	-20.212	0.191	0.118
-488.478	78.186	-0.078	0.084
-487.464	-12.011	0.093	-0.061
-486.449	29.079	0.141	-0.120
-485.435	482.108	-0.048	-0.109
-484.420	800.000	0.054	0.177
-483.405	136.188	0.051	0.066
-482.391	267.970	0.029	-0.050
-481.376	-15.422	-0.227	-0.145
-480.362	-200.000	0.031	-0.180
-479.347	-139.979	0.175	0.018
-478.332	-200.000	0.066	0.316
-477.318	-200.000	0.005	-0.191
-476.303	326.512	0.096	-0.184
-475.289	90.786	-0.037	-0.041
-474.274	-30.706	0.239	0.135
-473.259	-28.473	-0.128	-0.074
-472.245	-87.410	-0.141	-0.043
-471.230	685.481	-0.085	0.222
-470.216	15.387	-0.159	0.125
-469.201	-200.000	0.031	-0.289
-468.186	200.905	0.024	-0.037
-467.172	-36.015	0.125	0.068
-466.157	800.000	0.045	-0.156
-465.143	-100.416	-0.163	-0.040
-464.128	399.586	-0.156	-0.327
-463.113	-143.656	0.103	-0.010
-462.099	20.708	-0.114	0.092
-461.084	137.314	-0.082	0.107
-460.070	130.779	-0.061	0.078
-459.055	119.584	-0.042	-0.052
-458.040	-117.957	-0.351	0.063
-457.026	-200.000	0.002	0.011
-456.011	563.339	-0.079	0.190
-454.997	-91.553	-0.085	0.024
-453.982	11.817	0.317	0.243
-452.968	-200.000	0.015	-0.213
-451.953	38.316	-0.162	-0.144
-450.938	144.981	0.053	-0.071
-449.924	800.000	0.065	-0.191
-448.909	-93.000	-0.249	0.069
-447.895	614.819	0.063	-0.157
-446.880	800.000	0.008	-0.031
-445.865	800.000	0.101	-0.321
-444.851	-200.000	0.025	0.120
-443.836	204.432	-0.124	0.192
-442.822	-200.000	0.002	-0.038
-441.807	3.849	0.238	-0.173
-440.792	800.000	-0.131	-0.425
-439.778	800.000	0.029	0.083
-438.763	-43.272	0.169	-0.085
-437.749	-200.000	0.001	-0.300
-436.734	53.265	0.213	-0.204
-435.719	800.000	-0.028	-0.106
-434.705	159.219	-0.060	0.084
-433.690	179.094	0.092	-0.134
-432.676	87.431	-0.169	-0.186
-431.661	-178.290	0.198	-0.005
-430.646	113.780	0.185	0.225
-429.632	-142.843	-0.114	-0.011
-428.617	800.000	-0.081	-0.287
-427.603	-123.026	-0.071	-0.011
-426.588	-200.000	-0.024	-0.160
-425.573	315.986	0.140	0.263
-424.559	800.000	-0.036	0.101
-423.544	43.373	-0.076	0.069
-422.530	-154.457	0.270	0.018
-421.515	800.000	-0.031	-0.115
-420.500	-200.000	0.006	0.038
-419.486	-152.432	0.046	-0.003
-418.471	337.886	0.120	0.233
-417.457	555.890	0.054	-0.130
-416.442	800.000	0.018	0.055
-415.428	800.000	-0.127	-0.537
-414.413	-144.097	0.128	0.012
-413.398	-200.000	-0.010	-0.092
-412.384	800.000	0.052	0.161
-411.369	-18.557	0.026	-0.016
-410.355	152.276	-0.120	-0.163
-409.340	-200.000	0.011	0.157
-408.325	-200.000	-0.005	-0.131
-407.311	-200.000	0.031	-0.167
-406.296	-144.638	0.020	-0.002
-405.282	-51.824	0.240	0.111
-404.267	193.107	-0.257	0.387
-403.252	23.638	-0.092	-0.075
-402.238	-3.707	0.274	0.190
-401.223	-45.936	0.100	0.049
-400.209	-36.143	0.108	0.058
-399.194	-200.000	-0.027	-0.266
-398.179	759.918	0.125	0.338
-397.165	800.000	-0.056	-0.162
-396.150	-125.103	-0.195	-0.030
-395.136	279.147	0.045	-0.079
-394.121	32.368	0.239	-0.205
-393.106	-200.000	0.032	0.290
-392.092	-200.000	-0.030	0.297
-391.077	34.971	-0.179	0.156
-390.063	800.000	0.011	-0.032
-389.048	-130.283	-0.171	0.023
-388.033	-42.120	-0.106	-0.054
-387.019	110.886	-0.101	0.121
-386.004	-200.000	-0.032	0.314
-384.990	752.962	-0.088	0.236
-383.975	-200.000	0.008	0.178
-382.960	-122.895	-0.353	-0.057
-381.946	-20.491	-0.284	0.174
-380.931	-134.839	0.085	0.010
-379.917	-200.000	0.054	-0.305
-378.902	287.685	-0.173	0.311
-377.888	-135.570	0.165	-0.020
-376.873	-126.708	-0.127	-0.019
-375.858	800.000	0.019	-0.069
-374.844	800.000	0.046	-0.157
-373.829	-147.632	-0.238	0.020
-372.815	367.787	-0.131	0.262
-371.800	42.569	-0.158	0.143
-370.785	552.106	-0.106	0.253
-369.771	32.936	-0.237	-0.204
-368.756	-148.487	-0.154	0.013
-367.742	-155.297	0.411	0.027
-366.727	-51.484	-0.026	-0.012
-365.712	-189.654	0.251	0.003
-364.698	-101.089	-0.336	-0.082
-363.683	-87.371	0.139	-0.042
-362.669	401.660	0.125	-0.261
-361.654	-167.124	0.343	0.014
-360.639	112.219	0.222	0.267
-359.625	66.950	0.175	-0.177
-358.610	0.336	0.149	-0.106
-357.596	-138.205	-0.131	-0.014
-356.581	21.388	-0.019	0.016
-355.566	-72.323	-0.039	-0.014
-354.552	-11.187	-0.190	0.124
-353.537	140.619	-0.120	0.158
-352.523	-200.000	0.005	0.067
-351.508	-200.000	0.036	0.209
-350.493	-70.732	0.185	0.070
-349.479	-159.859	0.227	-0.012
-348.464	107.152	0.126	-0.149
-347.450	-200.000	-0.020	-0.151
-346.435	305.064	-0.155	0.287
-345.420	108.558	-0.075	0.089
-344.406	37.570	-0.060	0.053
-343.391	86.432	-0.152	-0.166
-342.377	-200.000	0.050	-0.286
-341.362	-154.694	0.183	0.012
-340.348	631.402	-0.129	-0.324
-339.333	148.386	-0.173	-0.232
-338.318	125.203	0.187	-0.235
-337.304	29.714	0.112	0.095
-336.289	-147.601	-0.137	-0.011
-335.275	-128.724	-0.231	-0.032
-334.260	-75.837	-0.494	-0.174
-333.245	183.371	0.092	0.136
-332.231	207.693	-0.102	0.158
-331.216	-130.209	-0.218	-0.029
-330.202	-93.947	-0.179	0.049
-329.187	-60.707	0.272	-0.115
-328.172	-43.299	0.167	0.084
-327.158	-146.896	-0.417	0.036
-326.143	42.005	-0.082	0.074
-325.129	60.816	0.029	-0.029
-324.114	-200.000	-0.043	-0.217
-323.099	581.162	-0.145	-0.353
-322.085	-141.972	0.599	0.059
-321.070	-200.000	0.001	-0.077
-320.056	80.603	-0.245	0.262
-319.041	84.609	0.286	0.310
-318.026	170.617	-0.053	-0.075
-317.012	-156.009	0.182	0.011
-315.997	800.000	-0.044	-0.179
-314.983	224.033	0.129	-0.207
-313.968	-99.070	0.121	-0.030
-312.953	74.545	0.251	0.262
-311.939	23.137	0.231	-0.188
-310.924	-116.501	0.018	-0.003
-309.910	-200.000	0.010	-0.050
-308.895	-59.229	-0.351	-0.150
-307.880	-0.675	-0.129	0.090
-306.866	-200.000	0.014	0.074
-305.851	258.639	-0.122	-0.208
-304.837	13.444	-0.145	0.112
-303.822	-32.204	0.217	0.121
-302.807	800.000	-0.099	0.324
-301.793	500.566	-0.032	0.072
-300.778	-200.000	0.030	0.317
-299.764	37.276	-0.279	0.245
-298.749	431.720	0.187	0.403
-297.735	-94.705	-0.204	0.055
-296.720	435.056	0.037	0.080
-295.705	612.420	0.024	-0.060
-294.691	274.671	-0.107	0.188
-293.676	-22.715	-0.130	0.078
-292.662	-100.027	0.178	-0.044
-291.647	-74.392	0.235	-0.084
-290.632	435.642	-0.159	-0.342
-289.618	-22.244	-0.096	0.058
-288.603	-177.156	-0.238	-0.006
-287.589	505.407	0.048	-0.110
-286.574	-178.436	0.210	-0.005
-285.559	-109.604	0.256	-0.054
-284.545	-135.530	-0.281	-0.033
-283.530	-200.000	0.020	-0.168
-282.516	-200.000	0.220	-0.001
-281.501	38.222	-0.260	-0.230
-280.486	-178.617	0.030	-0.001
-279.472	-200.000	0.025	-0.117
-278.457	-115.354	-0.335	-0.063
-277.443	-93.637	-0.181	0.049
-276.428	-200.000	0.031	0.241
-275.413	588.724	-0.054	-0.133
-274.399	49.367	0.110	0.103
-273.384	19.792	-0.141	-0.112
-272.370	-115.728	0.122	0.023
-271.355	139.831	-0.197	-0.258
-270.340	-94.224	-0.224	-0.061
-269.326	252.163	-0.107	0.181
-268.311	-97.025	-0.060	-0.016
-267.297	154.531	0.192	0.262
-266.282	-166.592	0.404	0.017
-265.267	-200.000	0.060	0.380
-264.253	-69.220	0.018	0.007
-263.238	101.403	-0.043	-0.050
-262.224	-15.837	-0.120	-0.075
-261.209	-81.907	0.090	0.029
-260.195	-96.006	0.093	-0.024
-259.180	-86.122	0.176	-0.054
-258.165	-114.467	-0.226	0.043
-257.151	-200.000	0.053	-0.336
-256.136	-200.000	0.018	0.139
-255.122	800.000	-0.044	0.134
-254.107	-34.567	-0.236	-0.128
-253.092	202.440	-0.180	-0.275
-252.078	-78.761	0.191	-0.064
-251.063	104.920	-0.210	0.245
-250.049	800.000	0.060	0.237
-249.034	-110.212	-0.211	0.044
-248.019	31.422	0.063	-0.053
-247.005	-169.536	0.266	0.010
-245.990	-102.172	-0.155	0.037
-244.976	-88.232	0.168	-0.050
-243.961	-200.000	0.010	-0.314
-242.946	57.814	0.169	-0.163
-241.932	-200.000	0.059	-0.434
-240.917	-7.774	0.292	-0.195
-239.903	-4.733	-0.122	-0.083
-238.888	192.220	0.239	-0.356
-237.873	152.006	0.163	0.220
-236.859	-67.359	0.181	0.070
-235.844	-63.571	0.150	0.061
-234.830	-34.190	-0.077	0.042
-233.815	-94.452	0.234	0.063
-232.800	800.000	0.028	-0.083
-231.786	16.975	0.207	0.162
-230.771	60.456	-0.172	0.168
-229.757	541.305	-0.098	0.230
-228.742	133.422	0.156	-0.199
-227.727	-127.179	-0.243	-0.035
-226.713	76.996	-0.049	-0.051
-225.698	-53.385	-0.353	-0.160
-224.684	-84.195	0.167	0.052
-223.669	-200.000	-0.065	0.334
-222.655	-13.533	-0.288	0.185
-221.640	-20.851	-0.245	0.148
-220.625	8.416	0.174	0.129
-219.611	206.928	-0.086	0.133
-218.596	-200.000	-0.007	0.425
-217.582	-200.000	0.051	-0.620
-216.567	-103.104	-0.235	-0.055
-215.552	800.000	-0.038	0.119
-214.538	-41.943	0.254	-0.128
-213.523	-51.460	0.181	0.084
-212.509	-200.000	0.010	0.281
-211.494	-50.808	0.482	-0.224
-210.479	386.241	0.145	-0.295
-209.465	-200.000	0.007	0.348
-208.450	-30.278	0.161	0.090
-207.436	-35.910	-0.060	-0.032
-206.421	130.800	0.096	0.121
-205.406	800.000	0.032	-0.097
-204.392	608.830	-0.031	0.076
-203.377	99.933	0.076	-0.087
-202.363	-200.000	-0.008	0.330
-201.348	139.312	-0.050	0.066
-200.333	800.000	-0.016	-0.050
-199.319	32.800	-0.114	-0.098
-198.304	800.000	0.057	-0.167
-197.290	-106.910	-0.241	0.053
-196.275	-200.000	-0.018	0.397
-195.260	-119.243	-0.293	0.050
-194.246	800.000	-0.028	-0.101
-193.231	59.759	-0.104	-0.101
-192.217	34.287	0.175	0.151
-191.202	147.220	0.059	-0.078
-190.187	5.882	-0.222	-0.163
-189.173	103.771	-0.045	-0.052
-188.158	518.269	0.074	-0.170
-187.144	114.833	-0.018	-0.021
-186.129	-198.993	0.187	0.001
-185.114	800.000	-0.107	0.295
-184.100	800.000	0.037	0.104
-183.085	-88.461	0.219	0.065
-182.071	250.122	0.186	0.312
-181.056	-65.907	-0.190	-0.075
-180.042	-200.000	0.039	-0.334
-179.027	107.675	0.063	-0.074
-178.012	-90.766	-0.231	-0.066
-176.998	-200.000	-0.014	0.205
-175.983	-200.000	0.002	-0.143
-174.969	-110.057	0.409	-0.084
-173.954	-75.715	0.088	0.031
-172.939	-71.226	0.218	-0.081
-171.925	29.132	-0.124	-0.104
-170.910	800.000	0.048	0.134
-169.896	7.230	0.230	0.169
-168.881	82.761	0.153	-0.165
-167.866	153.041	0.138	-0.187
-166.852	173.479	0.031	0.045
-165.837	66.011	-0.084	-0.084
-164.823	50.492	0.191	0.179
-163.808	-29.126	-0.162	-0.092
-162.793	-100.368	-0.205	-0.050
-161.779	-72.853	-0.250	0.091
-160.764	-58.750	-0.242	-0.103
-159.750	-200.000	-0.003	0.103
-158.735	108.119	-0.151	-0.178
-157.720	98.806	-0.299	0.340
-156.706	-146.529	0.252	-0.022
-155.691	-200.000	-0.008	0.156
-154.677	-200.000	-0.055	0.278
-153.662	41.608	-0.044	0.040
-152.647	-200.000	-0.018	-0.469
-151.633	-200.000	0.021	-0.286
-150.618	-60.945	0.130	-0.054
-149.604	297.083	0.052	0.094
-148.589	-165.953	-0.479	0.020
-147.574	-128.971	0.356	-0.049
-146.560	505.991	0.031	-0.070
-145.545	169.861	0.098	0.138
-144.531	-200.000	0.242	-0.001
-143.516	6.397	0.179	0.131
-142.502	498.214	-0.081	0.184
-141.487	-86.358	-0.191	0.058
-140.472	-102.433	-0.146	0.034
-139.458	682.353	0.063	0.162
-138.443	800.000	0.024	-0.077
-137.429	-200.000	-0.010	-0.172
-136.414	-38.764	-0.273	-0.142
-135.399	-14.249	-0.258	0.164
-134.385	-64.977	0.294	-0.117
-133.370	-10.007	0.134	0.087
-132.356	-67.767	0.218	-0.084
-131.341	-65.013	0.080	-0.032
-130.326	196.552	0.149	-0.224
-129.312	-200.000	0.058	-0.321
-128.297	-200.000	0.009	-0.265
-127.283	451.153	-0.104	-0.225
-126.268	227.955	0.096	-0.154
-125.253	42.400	0.213	-0.191
-124.239	30.155	0.220	0.185
-123.224	-200.000	0.037	-0.163
-122.210	22.044	-0.180	0.144
-121.195	-200.000	0.020	0.255
-120.180	40.471	0.075	-0.066
-119.166	-42.028	0.146	0.074
-118.151	-24.341	0.113	0.066
-117.137	261.752	0.136	0.233
-116.122	25.665	0.167	0.137
-115.107	-115.404	0.382	-0.071
-114.093	138.856	-0.118	0.152
-113.078	-200.000	-0.019	0.143
-112.064	-175.785	0.232	0.006
-111.049	219.650	-0.036	-0.057
-110.034	-200.000	-0.020	-0.433
-109.020	-4.566	-0.120	-0.082
-108.005	-200.000	-0.039	0.174
-106.991	-157.913	0.188	0.011
-105.976	-64.560	0.325	-0.130
-104.962	34.159	0.223	0.191
-103.947	800.000	0.056	0.185
-102.932	206.704	0.150	-0.230
-101.918	-156.108	-0.159	-0.010
-100.903	55.973	0.224	-0.213
-99.889	-96.067	-0.192	-0.050
-98.874	-200.000	0.069	0.307
-97.859	37.544	0.226	-0.197
-96.845	-107.969	-0.190	-0.041
-95.830	-83.622	0.340	-0.107
-94.816	-49.373	0.111	-0.052
-93.801	-153.181	0.057	-0.004
-92.786	-132.641	0.270	-0.034
-91.772	-50.663	-0.178	-0.083
-90.757	800.000	0.095	-0.324
-89.743	249.428	-0.076	0.126
-88.728	25.711	0.172	-0.141
-87.713	430.466	-0.024	-0.052
-86.699	6.861	0.110	0.081
-85.684	76.736	0.135	0.141
-84.670	-137.997	-0.251	0.028
-83.655	-200.000	0.008	-0.310
-82.640	467.285	-0.040	0.089
-81.626	-200.000	0.016	-0.290
-80.611	-134.942	0.297	0.035
-79.597	128.523	0.084	-0.105
-78.582	-200.000	0.056	0.283
-77.567	-121.196	0.324	-0.053
-76.553	248.335	-0.066	0.109
-75.538	29.255	-0.215	0.179
-74.524	-200.000	0.006	-0.065
-73.509	-38.688	-0.343	0.178
-72.494	-134.403	0.442	0.053
-71.480	191.036	0.239	-0.353
-70.465	368.032	-0.166	-0.330
-69.451	-200.000	0.054	0.233
-68.436	-160.106	-0.285	0.015
-67.422	-200.000	0.063	0.336
-66.407	-200.000	-0.027	0.188
-65.392	778.982	0.056	-0.151
-64.378	490.836	0.121	-0.273
-63.363	-77.007	-0.243	0.083
-62.349	-92.123	-0.060	-0.017
-61.334	93.487	-1.114	-1.240
-60.319	187.390	0.456	0.669
-59.305	310.091	-0.540	-0.992
-58.290	117.796	0.810	0.980
-57.276	260.444	1.030	1.749
-56.261	-200.000	103.057	586.453
-55.246	548.540	1434.794	3376.390
-54.232	187.477	2622.357	3843.761
-53.217	114.325	2167.075	2591.761
-52.203	41.222	1696.325	1506.194
-51.188	33.748	1506.097	1286.808
-50.173	31.275	1478.922	1247.047
-49.159	51.692	1532.184	1431.281
-48.144	52.604	1549.939	1454.018
-47.130	33.980	1507.066	1289.004
-46.115	30.871	1491.972	1255.134
-45.100	30.687	1488.496	1250.921
-44.086	30.658	1486.483	1248.985
-43.071	30.682	1484.265	1247.232
-42.057	30.553	1483.123	1245.358
-41.042	30.703	1481.260	1244.748
-40.027	30.569	1480.164	1242.882
-39.013	30.632	1478.226	1241.629
-37.998	30.594	1477.420	1240.645
-36.984	30.717	1475.659	1239.940
-35.969	30.569	1474.924	1238.287
-34.954	30.607	1473.144	1236.996
-33.940	30.486	1472.753	1235.815
-32.925	30.660	1470.621	1235.133
-31.911	30.690	1469.592	1234.417
-30.896	30.776	1468.045	1233.637
-29.881	30.724	1467.210	1232.545
-28.867	30.638	1465.648	1230.615
-27.852	30.695	1464.450	1229.935
-26.838	30.723	1462.921	1228.784
-25.823	30.678	1461.222	1227.017
-24.809	30.755	1459.444	1225.980
-23.794	30.683	1458.341	1224.531
-22.779	30.747	1457.247	1223.985
-21.765	30.724	1456.428	1223.096
-20.750	30.641	1455.261	1221.525
-19.736	30.631	1453.810	1220.191
-18.721	30.703	1452.811	1219.778
-17.706	30.637	1451.860	1218.496
-16.692	30.613	1451.086	1217.643
-15.677	30.561	1449.745	1216.125
-14.663	30.521	1448.750	1214.985
-13.648	30.640	1447.766	1214.884
-12.633	30.653	1446.999	1214.282
-11.619	30.583	1446.476	1213.339
-10.604	30.596	1444.908	1212.060
-9.590	30.640	1444.351	1211.832
-8.575	30.645	1443.258	1210.895
-7.560	30.671	1442.377	1210.281
-6.546	30.576	1441.846	1209.170
-5.531	30.607	1441.090	1208.686
-4.517	30.531	1440.532	1207.677
-3.502	30.562	1439.305	1206.805
-2.487	30.557	1438.270	1205.856
-1.473	30.517	1437.478	1204.882
-0.458	30.626	1435.618	1203.984
0.556	29.392	1426.123	1191.722
1.571	26.583	1400.533	1152.388
2.586	23.162	1342.976	1084.010
3.600	21.403	1262.639	1008.933
4.615	20.199	1216.969	965.656
5.629	17.738	1161.332	908.332
6.644	10.884	1080.180	810.717
7.659	5.718	1042.199	757.232
8.673	4.967	1037.103	749.853
9.688	4.863	1034.096	747.114
10.702	4.780	1032.564	745.542
11.717	4.760	1030.338	743.775
12.731	6.643	1032.008	753.920
13.746	13.229	1040.687	791.837
14.761	18.174	1047.159	820.474
15.775	18.380	1046.466	820.844
16.790	17.474	1044.181	814.647
17.804	16.530	1042.198	808.516
18.819	15.534	1040.113	802.071
19.834	15.105	1038.933	799.046
20.848	14.837	1037.999	796.979
21.863	14.651	1037.095	795.326
22.877	14.396	1036.680	793.723
23.892	14.229	1035.489	791.948
24.907	14.073	1035.468	791.117
25.921	14.296	1033.718	790.773
26.936	14.137	1033.179	789.534
27.950	14.308	1032.220	789.540
28.965	14.224	1031.777	788.736
29.980	14.342	1030.166	787.990
30.994	14.273	1029.320	786.947
32.009	14.521	1028.025	787.059
33.023	14.545	1027.528	786.722
34.038	14.495	1026.680	785.768
35.053	14.541	1025.092	784.703
36.067	14.292	1024.607	783.088
37.082	14.289	1023.961	782.514
38.096	14.398	1022.789	782.058
39.111	14.178	1022.910	781.051
40.126	14.439	1021.398	781.047
41.140	14.414	1019.792	779.633
42.155	14.178	1019.273	778.065
43.169	14.130	1018.184	776.941
44.184	14.166	1017.058	776.182
45.199	14.129	1016.047	775.166
46.213	14.184	1014.759	774.371
47.228	14.142	1013.889	773.445
48.242	14.190	1013.464	773.274
49.257	14.289	1012.592	773.001
50.271	14.169	1011.677	771.680
51.286	14.301	1010.657	771.444
52.301	14.282	1009.985	770.774
53.315	14.231	1009.099	769.795
54.330	14.193	1008.346	768.975
55.344	14.269	1007.384	768.526
56.359	14.116	1006.388	766.994
57.374	14.123	1005.824	766.525
58.388	14.134	1005.056	765.924
59.403	14.132	1003.880	764.952
60.417	13.966	1003.501	763.829
61.432	14.097	1002.754	763.795
62.447	14.100	1001.766	762.991
63.461	14.027	1000.908	761.934
64.476	13.982	1000.018	760.985
65.490	13.967	999.027	760.093
66.505	14.051	998.251	759.820
67.520	14.058	997.474	759.191
68.534	14.009	996.411	758.092
69.549	14.005	996.047	757.733
70.563	13.992	995.381	757.099
71.578	13.963	994.717	756.394
72.593	14.112	993.418	756.016
73.607	13.980	992.612	754.738
74.622	13.899	991.891	753.756
75.636	13.908	990.810	752.905
76.651	13.973	989.996	752.516
77.666	13.937	989.442	751.866
78.680	14.048	988.749	751.773
79.695	13.962	988.120	750.840
80.709	14.065	987.131	750.488
81.724	13.932	987.137	749.827
82.739	14.102	986.259	749.858
83.753	14.122	985.714	749.469
84.768	14.275	984.541	749.199
85.782	14.355	983.873	748.984
86.797	14.445	983.312	748.896
87.812	14.480	982.846	748.633
88.826	14.401	981.710	747.345
89.841	14.327	981.023	746.425
90.855	14.354	980.233	745.878
91.870	14.395	979.200	745.210
92.884	14.521	978.443	745.131
93.899	14.386	978.136	744.227
94.914	14.493	976.953	743.739
95.928	14.449	976.467	743.108
96.943	14.509	976.074	743.010
97.957	14.355	975.236	741.621
98.972	14.441	974.233	741.174
99.987	14.317	973.411	739.931
101.001	14.348	972.479	739.297
102.016	14.429	972.039	739.255
103.030	14.392	971.160	738.361
104.045	14.408	970.468	737.839
105.060	14.383	969.413	736.861
106.074	14.331	968.434	735.821
107.089	14.264	967.515	734.764
108.103	14.025	966.732	733.048
109.118	14.029	965.618	732.157
110.133	14.072	964.855	731.701
111.147	14.179	963.945	731.417
112.162	14.098	963.222	730.449
113.176	14.067	962.910	730.011
114.191	14.154	961.910	729.571
115.206	14.150	961.083	728.862
116.220	14.280	959.997	728.540
117.235	14.267	959.366	727.943
118.249	14.075	958.447	726.340
119.264	14.186	957.443	725.999
120.279	14.066	957.516	725.467
121.293	14.165	956.005	724.691
122.308	14.122	955.643	724.163
123.322	14.181	954.673	723.620
124.337	14.034	953.433	721.980
125.352	14.090	952.156	721.192
126.366	14.187	951.130	720.769
127.381	14.089	950.370	719.707
128.395	14.025	949.642	718.814
129.410	14.120	948.299	718.147
130.424	14.185	947.506	717.762
131.439	14.215	946.118	716.777
132.454	14.130	945.732	716.055
133.468	14.215	944.967	715.779
134.483	14.054	945.074	715.100
135.497	14.100	944.015	714.436
136.512	14.153	943.593	714.282
137.527	14.225	942.596	713.770
138.541	14.130	941.974	712.829
139.556	14.305	940.866	712.677
140.570	14.197	940.229	711.668
141.585	14.313	939.308	711.407
142.600	14.370	939.073	711.410
143.614	14.416	938.301	710.955
144.629	14.369	937.637	710.191
145.643	14.508	936.489	709.851
146.658	14.559	935.437	709.206
147.673	14.525	934.683	708.429
148.687	14.376	934.285	707.430
149.702	14.360	933.213	706.490
150.716	14.192	932.591	705.243
151.731	14.170	931.894	704.562
152.746	14.245	931.245	704.323
153.760	14.389	930.335	704.183
154.775	14.382	929.402	703.385
155.789	14.429	928.753	703.030
156.804	14.591	927.716	702.866
157.819	14.443	927.360	701.911
158.833	14.435	926.645	701.273
159.848	14.548	926.003	701.200
160.862	14.499	925.458	700.518
161.877	14.605	924.717	700.340
162.892	14.411	923.726	698.714
163.906	14.409	923.039	698.124
164.921	14.429	921.988	697.352
165.935	14.321	921.208	696.249
166.950	14.461	919.971	695.836
167.964	14.447	919.344	695.242
168.979	14.525	918.354	694.758
169.994	14.409	917.810	693.801
171.008	14.314	916.945	692.691
172.023	14.390	915.769	692.056
173.037	14.446	915.343	691.908
174.052	14.550	914.383	691.550
175.067	14.492	913.758	690.779
176.081	14.503	913.205	690.343
177.096	14.348	912.283	688.945
178.110	14.423	911.178	688.359
179.125	14.568	910.604	688.462
180.140	14.598	909.750	687.880
181.154	14.532	909.041	687.012
182.169	14.525	908.591	686.580
183.183	14.582	907.911	686.242
184.198	14.675	907.366	686.150
185.213	14.628	907.030	685.644
186.227	14.800	905.626	685.226
187.242	14.627	905.671	684.492
188.256	14.736	904.885	684.281
189.271	14.839	903.858	683.867
190.286	14.980	903.081	683.794
191.300	14.762	902.707	682.562
192.315	14.501	901.912	680.835
193.329	14.367	901.038	679.566
194.344	14.571	900.171	679.685
195.359	14.461	900.074	679.100
196.373	14.554	898.895	678.532
197.388	14.722	899.151	679.346
198.402	14.769	898.263	678.809
199.417	14.963	898.013	679.346
200.432	14.937	897.750	678.983
201.446	15.006	896.886	678.550
202.461	15.100	896.509	678.585
203.475	15.061	896.296	678.205
204.490	15.163	895.331	677.826
205.504	14.938	894.837	676.485
206.519	14.954	893.676	675.612
207.534	14.839	893.210	674.736
208.548	15.123	892.074	674.961
209.563	14.879	891.864	673.758
210.577	14.949	890.744	673.133
211.592	15.031	890.412	673.154
212.607	14.970	890.131	672.636
213.621	15.196	889.183	672.769
214.636	15.232	888.519	672.350
215.650	15.121	887.776	671.283
216.665	14.982	887.567	670.509
217.680	15.006	887.593	670.567
218.694	15.179	886.968	670.728
219.709	15.358	885.995	670.650
220.723	15.191	885.704	669.701
221.738	15.152	885.019	668.970
222.753	15.120	884.035	668.037
223.767	15.121	883.624	667.672
224.782	15.267	882.411	667.280
225.796	15.325	882.015	667.152
226.811	15.272	881.796	666.713
227.826	15.304	880.710	665.962
228.840	15.254	879.962	665.140
229.855	15.195	879.427	664.441
230.869	15.207	878.596	663.801
231.884	15.208	877.983	663.284
232.899	15.248	877.213	662.802
233.913	14.991	877.073	661.620
234.928	15.068	876.545	661.468
235.942	15.109	875.442	660.742
236.957	15.227	874.690	660.578
237.972	14.989	873.920	659.001
238.986	15.211	873.558	659.545
240.001	15.304	872.580	659.113
241.015	15.234	872.016	658.356
242.030	15.325	871.616	658.350
243.045	15.308	870.435	657.332
244.059	15.328	870.232	657.200
245.074	15.357	869.699	656.853
246.088	15.235	869.359	656.061
247.103	15.362	868.616	655.939
248.117	15.369	868.243	655.625
249.132	15.359	867.883	655.259
250.147	15.560	867.102	655.393
251.161	15.698	866.436	655.371
252.176	15.835	865.590	655.205
253.190	15.744	865.127	654.446
254.205	15.820	864.433	654.157
255.220	15.928	863.761	654.008
256.234	15.830	863.219	653.162
257.249	15.859	862.621	652.763
258.263	15.748	862.750	652.372
259.278	15.826	861.449	651.635
260.293	15.878	861.105	651.518
261.307	15.902	860.913	651.406
262.322	16.003	859.879	650.956
263.336	16.071	859.072	650.552
264.351	16.044	858.668	650.082
265.366	16.109	858.107	649.850
266.380	15.978	857.812	649.066
267.395	16.061	856.628	648.432
268.409	15.977	856.345	647.837
269.424	16.039	855.226	647.172
270.439	16.043	855.031	646.983
271.453	15.996	854.272	646.172
272.468	16.050	852.791	645.201
273.482	15.822	852.811	644.285
274.497	15.970	852.143	644.291
275.512	15.921	851.470	643.537
276.526	15.946	850.674	642.974
277.541	15.922	850.356	642.583
278.555	16.030	849.600	642.369
279.570	16.122	849.320	642.451
280.585	16.150	848.498	641.878
281.599	16.196	848.369	641.898
282.614	16.191	847.507	641.171
283.628	16.333	846.721	641.059
284.643	16.005	846.416	639.526
285.657	16.193	846.017	639.882
286.672	16.083	845.402	638.942
287.687	16.106	844.840	638.546
288.701	16.172	844.240	638.286
289.716	16.115	843.589	637.525
290.730	16.168	843.192	637.367
291.745	16.277	842.479	637.182
292.760	16.240	841.700	636.398
293.774	16.281	841.363	636.241
294.789	16.428	840.599	636.162
295.803	16.301	840.502	635.553
296.818	16.292	839.738	634.885
297.833	16.368	838.875	634.462
298.847	16.375	837.945	633.729
299.862	16.364	837.302	633.147
300.876	16.295	836.885	632.515
301.891	16.495	835.723	632.331
302.906	16.451	835.705	632.096
303.920	16.547	834.928	631.813
304.935	16.462	834.477	631.095
305.949	16.599	834.219	631.357
306.964	16.586	833.421	630.648
307.979	16.578	832.635	629.969
308.993	16.574	832.313	629.653
310.008	16.710	831.541	629.518
311.022	16.619	831.246	628.902
312.037	16.659	830.790	628.651
313.052	16.598	830.400	628.072
314.066	16.573	829.199	627.016
315.081	16.513	828.807	626.442
316.095	16.410	828.544	625.807
317.110	16.576	827.649	625.688
318.125	16.351	827.676	624.821
319.139	16.466	826.865	624.581
320.154	16.420	826.644	624.187
321.168	16.571	825.797	624.051
322.183	16.679	824.901	623.715
323.197	16.530	824.845	623.068
324.212	16.579	824.468	622.911
325.227	16.768	823.559	622.863
326.241	16.696	823.201	622.274
327.256	16.646	822.396	621.425
328.270	16.728	821.827	621.240
329.285	16.685	821.498	620.780
330.300	16.557	821.129	619.977
331.314	16.658	820.491	619.809
332.329	16.792	819.443	619.453
333.343	16.828	819.112	619.278
334.358	16.750	818.654	618.592
335.373	16.831	818.482	618.704
336.387	16.873	817.640	618.169
337.402	16.846	817.255	617.722
338.416	16.901	816.283	617.134
339.431	16.962	816.122	617.179
340.446	17.135	815.276	617.113
341.460	17.075	815.257	616.825
342.475	17.038	814.704	616.220
343.489	17.079	814.147	615.891
344.504	17.142	813.511	615.584
345.519	17.113	813.187	615.182
346.533	17.415	812.188	615.463
347.548	17.374	811.575	614.797
348.562	17.138	811.506	613.836
349.577	17.030	810.833	612.884
350.592	16.984	810.218	612.198
351.606	16.913	809.772	611.551
352.621	17.281	808.959	612.206
353.635	17.062	808.839	611.276
354.650	16.995	808.628	610.818
355.665	17.235	807.824	611.020
356.679	17.220	807.635	610.771
357.694	17.151	807.270	610.192
358.708	17.137	806.636	609.607
359.723	17.103	805.961	608.922
360.738	17.361	805.393	609.363
361.752	17.296	804.953	608.746
362.767	17.240	804.286	607.987
363.781	17.285	804.321	608.121
364.796	17.308	803.799	607.752
365.810	17.353	803.051	607.295
366.825	17.447	803.172	607.666
367.840	17.467	802.784	607.392
368.854	17.566	802.278	607.309
369.869	17.689	801.494	607.101
370.883	17.500	800.841	605.880
371.898	17.373	800.381	605.025
372.913	17.592	799.578	605.142
373.927	17.592	799.005	604.656
374.942	17.538	798.936	604.359
375.956	17.541	798.102	603.686
376.971	17.520	797.583	603.163
377.986	17.604	797.260	603.165
379.000	17.810	796.541	603.296
380.015	17.723	796.336	602.779
381.029	17.816	795.561	602.469
382.044	17.775	794.953	601.808
383.059	17.701	794.901	601.455
384.073	17.737	794.274	601.054
385.088	17.780	793.485	600.556
386.102	17.604	793.047	599.552
387.117	17.661	792.206	599.064
388.132	17.637	792.008	598.776
389.146	17.474	791.994	598.139
390.161	17.527	791.814	598.137
391.175	17.709	791.171	598.235
392.190	17.837	790.074	597.804
393.205	17.733	790.327	597.578
394.219	17.770	789.660	597.150
395.234	17.703	789.327	596.610
396.248	17.592	788.875	595.826
397.263	17.620	788.317	595.451
398.278	17.659	787.725	595.087
399.292	17.724	787.175	594.846
400.307	17.619	787.017	594.309
401.321	17.603	786.672	593.938
402.336	17.627	786.165	593.587
403.350	17.692	785.835	593.510
404.365	17.748	785.320	593.264
405.380	17.850	784.394	592.867
406.394	17.831	784.442	592.786
407.409	18.043	783.509	592.763
408.423	18.124	783.165	592.733
409.438	18.067	783.205	592.513
410.453	18.215	782.385	592.352
411.467	18.062	782.320	591.719
412.482	18.115	782.001	591.610
413.496	18.281	781.088	591.441
414.511	18.424	780.947	591.774
415.526	18.366	780.674	591.315
416.540	18.085	780.333	590.036
417.555	18.152	779.817	589.825
418.569	18.197	779.387	589.601
419.584	18.195	778.912	589.184
420.599	18.220	778.421	588.848
421.613	157.633	1369.029	1796.903
422.628	136.025	1455.104	1797.007
