DTS Sentinel unit serial number:	SN413079Multiplexer serial number:	ORYXHardware model number:	OX4-SRSoftware version number:	ORYX F/W v4.00 Oryx Data Collector v3.7.2.0data status	okinstallation	princeton_trtdifferential loss correction	single-endedforward channel	channel 3reverse channel	N/Adate	2019/09/18time	15:28:35forward acquisition time	60.00reverse acquisition time	0.00gamma	496.2192k internal	0.2299k external	0.2299temperature offset calibration	0.9979default loss term (dB/km)	0.3790temperature slope calibration	1.0000multiplexer offset coefficient	1.0000multiplexer slope coefficient	1.0000fibre end	0.00T internal ref (°C)	36.14T ext. ref 1 (°C)	0.76T ext. ref 2 (°C)	34.47length (m)	temperature (°C)	Stokes	anti-Stokes-747.200	-200.000	-0.020	0.122
-746.185	-108.362	-0.293	-0.065
-745.171	-75.274	0.134	-0.049
-744.156	-32.567	0.291	0.166
-743.142	244.641	-0.131	-0.225
-742.127	410.421	-0.160	0.347
-741.112	230.599	-0.085	-0.142
-740.098	-200.000	-0.032	-0.168
-739.083	-30.532	-0.180	-0.104
-738.069	800.000	0.037	-0.129
-737.054	702.554	0.039	0.104
-736.039	-73.832	-0.256	-0.095
-735.025	800.000	0.058	0.180
-734.010	-200.000	-0.023	-0.200
-732.996	-53.883	-0.199	-0.092
-731.981	-200.000	-0.032	-0.154
-730.966	-115.199	-0.220	-0.043
-729.952	-200.000	0.017	-0.292
-728.937	-100.915	-0.156	-0.039
-727.923	-87.025	-0.374	0.116
-726.908	-96.159	-0.336	-0.091
-725.894	800.000	-0.054	-0.229
-724.879	51.073	-0.186	-0.180
-723.864	800.000	-0.027	0.098
-722.850	-66.213	-0.350	0.142
-721.835	-200.000	-0.025	-0.283
-720.821	-114.162	0.358	-0.071
-719.806	-200.000	-0.058	-0.481
-718.791	-24.067	-0.191	0.116
-717.777	-5.882	-0.097	-0.068
-716.762	50.864	-0.275	0.266
-715.748	-200.000	-0.021	-0.261
-714.733	800.000	-0.052	0.159
-713.718	53.768	-0.151	-0.147
-712.704	800.000	0.140	-0.405
-711.689	-200.000	-0.022	-0.252
-710.675	58.913	-0.129	-0.130
-709.660	-113.182	0.071	-0.014
-708.645	-200.000	-0.003	-0.206
-707.631	-173.773	0.204	-0.006
-706.616	800.000	-0.050	-0.183
-705.602	-59.500	0.221	-0.097
-704.587	82.747	-0.364	-0.403
-703.572	-200.000	0.009	-0.400
-702.558	-43.608	0.078	0.040
-701.543	-200.000	-0.034	-0.328
-700.529	183.574	0.251	0.378
-699.514	3.628	0.134	0.100
-698.499	-10.368	-0.246	0.166
-697.485	-76.379	-0.087	0.031
-696.470	-46.352	0.075	0.038
-695.456	250.394	-0.152	-0.263
-694.441	-200.000	-0.008	-0.452
-693.426	472.555	0.063	-0.144
-692.412	-94.271	0.205	0.057
-691.397	-56.005	-0.123	-0.056
-690.383	-120.605	0.352	-0.061
-689.368	672.800	-0.075	0.198
-688.354	-78.910	-0.289	0.100
-687.339	45.625	0.084	0.079
-686.324	-108.524	-0.090	0.020
-685.310	13.604	-0.129	-0.102
-684.295	800.000	0.018	0.063
-683.281	-200.000	0.034	0.159
-682.266	445.529	-0.091	-0.204
-681.251	-16.619	0.255	-0.165
-680.237	565.051	0.135	0.332
-679.222	170.804	-0.159	-0.232
-678.208	341.081	0.051	-0.102
-677.193	-162.601	0.212	0.011
-676.178	-86.712	-0.141	0.044
-675.164	800.000	-0.027	-0.101
-674.149	-118.787	0.042	-0.008
-673.135	800.000	0.022	-0.091
-672.120	226.141	-0.230	-0.380
-671.105	-70.666	0.094	-0.036
-670.091	32.377	-0.190	0.167
-669.076	332.699	-0.045	0.089
-668.062	296.124	0.165	-0.307
-667.047	344.334	-0.129	0.257
-666.032	-90.045	0.102	-0.030
-665.018	-53.742	-0.194	-0.090
-664.003	145.768	-0.175	-0.238
-662.989	-200.000	0.035	0.242
-661.974	-73.223	-0.117	-0.044
-660.959	103.795	0.138	-0.165
-659.945	18.380	0.223	0.181
-658.930	569.369	-0.120	-0.297
-657.916	504.464	-0.114	-0.270
-656.901	800.000	0.073	0.207
-655.886	800.000	0.017	0.060
-654.872	228.900	-0.096	-0.160
-653.857	-151.646	-0.274	0.021
-652.843	19.305	-0.088	0.072
-651.828	-91.116	-0.202	0.059
-650.814	41.094	0.112	0.103
-649.799	-200.000	0.013	-0.074
-648.784	800.000	0.125	-0.372
-647.770	-200.000	-0.045	-0.204
-646.755	-200.000	-0.001	-0.345
-645.741	172.896	-0.115	0.169
-644.726	800.000	0.042	0.121
-643.711	-29.556	-0.281	0.163
-642.697	-79.030	-0.096	-0.033
-641.682	-87.766	0.152	0.047
-640.668	42.808	-0.061	0.057
-639.653	231.230	0.036	0.059
-638.638	51.393	-0.138	-0.134
-637.624	800.000	0.074	0.260
-636.609	-91.039	-0.055	0.016
-635.595	-101.651	-0.341	0.084
-634.580	-126.686	-0.113	-0.017
-633.565	176.259	-0.063	0.092
-632.551	37.801	0.125	0.113
-631.536	-9.221	-0.141	0.096
-630.522	-130.128	-0.294	0.041
-629.507	-5.630	-0.116	0.081
-628.492	-185.111	0.202	-0.003
-627.478	-127.792	0.155	0.023
-626.463	-200.000	0.002	-0.225
-625.449	23.322	0.193	0.161
-624.434	-55.832	0.341	0.155
-623.419	-200.000	-0.028	-0.152
-622.405	159.673	-0.104	-0.146
-621.390	-118.834	-0.072	-0.013
-620.376	352.851	0.096	0.194
-619.361	111.860	0.158	0.194
-618.346	-153.845	0.255	0.018
-617.332	-200.000	-0.044	-0.310
-616.317	800.000	-0.060	-0.251
-615.303	800.000	-0.028	-0.109
-614.288	75.483	-0.148	0.158
-613.273	-23.416	0.116	-0.071
-612.259	-200.000	-0.060	0.282
-611.244	100.267	-0.184	0.217
-610.230	-171.232	-0.432	0.015
-609.215	265.850	0.212	-0.376
-608.201	117.308	0.135	-0.169
-607.186	-101.261	-0.228	-0.057
-606.171	17.602	-0.151	-0.122
-605.157	-200.000	-0.016	-0.157
-604.142	-165.719	0.276	-0.012
-603.128	800.000	-0.094	-0.279
-602.113	12.757	-0.313	-0.245
-601.098	20.490	-0.193	-0.158
-600.084	-56.315	0.197	-0.089
-599.069	3.426	-0.180	-0.133
-598.055	-54.599	-0.085	-0.039
-597.040	162.276	0.125	-0.178
-596.025	-169.066	-0.289	-0.011
-595.011	267.729	-0.149	0.265
-593.996	51.769	0.157	0.152
-592.982	-154.761	-0.136	-0.009
-591.967	283.358	0.160	0.291
-590.952	345.085	0.077	0.154
-589.938	175.922	-0.047	-0.069
-588.923	79.262	-0.138	-0.150
-587.909	-200.000	-0.030	-0.223
-586.894	800.000	-0.082	-0.247
-585.879	51.107	0.178	-0.171
-584.865	-91.728	-0.199	0.057
-583.850	-200.000	0.047	0.210
-582.836	-200.000	0.034	-0.250
-581.821	-128.782	0.052	-0.007
-580.806	63.778	-0.298	0.304
-579.792	213.808	-0.108	0.173
-578.777	-139.343	0.212	-0.023
-577.763	-200.000	0.035	-0.327
-576.748	11.086	0.439	0.341
-575.733	800.000	-0.066	-0.209
-574.719	351.331	0.196	-0.394
-573.704	-200.000	0.003	0.051
-572.690	301.957	-0.035	0.066
-571.675	-82.209	-0.239	0.079
-570.661	420.625	0.040	0.086
-569.646	15.967	0.154	0.123
-568.631	-90.575	-0.095	0.028
-567.617	-200.000	0.030	0.206
-566.602	-200.000	-0.025	0.187
-565.588	-119.353	-0.272	0.048
-564.573	170.876	-0.052	-0.075
-563.558	-106.019	-0.075	-0.017
-562.544	152.411	0.122	0.169
-561.529	68.185	-0.093	0.096
-560.515	-108.586	0.195	0.042
-559.500	-160.376	-0.081	-0.004
-558.485	204.445	-0.114	-0.180
-557.471	-33.024	0.154	0.087
-556.456	755.244	-0.015	0.042
-555.442	-74.924	-0.064	-0.023
-554.427	50.643	0.114	-0.109
-553.412	-200.000	0.013	-0.101
-552.398	-182.444	-0.172	-0.003
-551.383	-28.682	0.214	0.125
-550.369	-134.705	0.357	0.044
-549.354	-22.794	0.360	0.220
-548.339	-200.000	-0.001	0.062
-547.325	557.505	0.138	0.338
-546.310	800.000	0.040	-0.129
-545.296	17.269	-0.158	-0.127
-544.281	-109.522	-0.341	0.073
-543.266	-200.000	-0.050	0.388
-542.252	-71.809	-0.275	0.104
-541.237	272.631	-0.071	-0.126
-540.223	-27.429	0.207	-0.122
-539.208	153.319	-0.030	-0.042
-538.193	-166.556	-0.160	0.007
-537.179	-83.891	0.208	-0.067
-536.164	-183.974	0.180	-0.003
-535.150	-69.284	-0.083	-0.032
-534.135	800.000	-0.009	-0.032
-533.121	613.306	-0.178	0.451
-532.106	-200.000	0.048	-0.400
-531.091	-3.144	-0.291	-0.205
-530.077	60.880	-0.066	0.066
-529.062	-108.169	0.078	-0.017
-528.048	-200.000	-0.021	-0.143
-527.033	-161.066	0.161	-0.009
-526.018	-23.805	0.174	0.106
-525.004	30.309	-0.134	0.116
-523.989	-200.000	0.038	-0.184
-522.975	-124.136	-0.324	-0.051
-521.960	-200.000	-0.049	0.379
-520.945	206.468	-0.163	0.256
-519.931	-59.129	0.119	0.052
-518.916	-174.926	0.165	-0.005
-517.902	-51.466	-0.390	0.184
-516.887	98.809	-0.313	0.365
-515.872	-122.596	0.192	0.032
-514.858	-200.000	0.060	-0.306
-513.843	-95.931	0.258	0.070
-512.829	-133.026	-0.176	0.023
-511.814	167.325	-0.081	0.116
-510.799	-12.509	0.222	0.147
-509.785	-32.591	0.018	0.010
-508.770	104.542	-0.035	0.041
-507.756	157.702	0.193	0.271
-506.741	9.024	-0.344	-0.263
-505.726	-200.000	0.028	-0.172
-504.712	800.000	0.149	0.482
-503.697	-192.632	-0.055	0.001
-502.683	22.023	0.322	0.266
-501.668	174.139	-0.214	0.313
-500.653	251.400	0.077	-0.132
-499.639	-200.000	-0.030	0.368
-498.624	-42.051	0.273	0.141
-497.610	159.049	0.246	0.346
-496.595	101.083	0.085	-0.100
-495.581	-110.454	0.335	0.070
-494.566	-31.208	-0.232	0.132
-493.551	173.840	0.080	0.117
-492.537	800.000	0.055	0.155
-491.522	78.223	-0.092	0.099
-490.508	-200.000	0.036	-0.368
-489.493	17.401	0.119	0.096
-488.478	-22.736	0.075	0.046
-487.464	-148.146	0.076	-0.006
-486.449	347.084	-0.126	-0.250
-485.435	800.000	-0.045	0.187
-484.420	-132.029	-0.183	0.024
-483.405	-68.274	0.274	0.108
-482.391	164.829	-0.173	0.246
-481.376	-200.000	-0.050	-0.497
-480.362	-30.105	0.102	-0.058
-479.347	296.699	-0.192	0.355
-478.332	800.000	0.041	0.174
-477.318	115.244	0.204	0.252
-476.303	-136.752	0.085	-0.010
-475.289	800.000	-0.119	-0.355
-474.274	6.030	0.056	-0.042
-473.259	-140.866	-0.298	-0.031
-472.245	39.116	-0.399	0.361
-471.230	-54.328	0.380	0.174
-470.216	-200.000	0.005	-0.129
-469.201	53.788	0.141	-0.137
-468.186	21.371	0.046	-0.038
-467.172	84.625	-0.062	0.068
-466.157	22.697	-0.056	-0.046
-465.143	597.760	-0.057	-0.144
-464.128	-44.400	-0.095	0.048
-463.113	-89.583	-0.071	0.021
-462.099	800.000	0.052	0.219
-461.084	800.000	-0.064	-0.256
-460.070	32.217	0.341	-0.297
-459.055	-25.375	-0.255	0.152
-458.040	-50.046	-0.129	-0.062
-457.026	324.018	-0.123	-0.236
-456.011	-200.000	0.004	-0.030
-454.997	34.752	0.203	-0.179
-453.982	800.000	0.043	-0.173
-452.968	-105.996	-0.144	-0.033
-451.953	366.561	-0.091	-0.186
-450.938	28.583	-0.213	0.182
-449.924	-165.209	0.122	-0.005
-448.909	-84.482	-0.144	-0.046
-447.895	-35.364	0.265	-0.146
-446.880	-200.000	-0.054	-0.329
-445.865	63.942	0.173	-0.176
-444.851	-200.000	0.048	0.462
-443.836	126.054	-0.169	0.215
-442.822	-42.834	-0.049	0.025
-441.807	126.599	0.078	-0.100
-440.792	-138.258	-0.104	0.012
-439.778	-64.511	0.105	0.043
-438.763	337.317	-0.167	-0.327
-437.749	-200.000	-0.003	-0.125
-436.734	-34.609	-0.079	0.044
-435.719	395.566	-0.137	0.288
-434.705	-63.200	-0.143	0.060
-433.690	-33.885	0.156	0.086
-432.676	29.678	-0.059	-0.050
-431.661	800.000	0.030	-0.103
-430.646	12.068	0.107	-0.083
-429.632	-200.000	-0.020	-0.313
-428.617	-59.963	-0.124	0.054
-427.603	-121.819	0.600	-0.100
-426.588	128.590	0.125	0.160
-425.573	800.000	0.080	-0.229
-424.559	-200.000	-0.000	-0.047
-423.544	-113.705	-0.350	0.069
-422.530	-200.000	-0.004	0.172
-421.515	-60.747	0.146	-0.062
-420.500	89.412	0.102	0.115
-419.486	704.672	-0.108	-0.287
-418.471	508.703	-0.143	-0.334
-417.457	209.686	0.026	0.041
-416.442	-62.666	0.065	-0.027
-415.428	478.324	-0.045	0.102
-414.413	-200.000	-0.005	0.354
-413.398	152.752	0.173	0.238
-412.384	10.142	0.155	0.118
-411.369	-126.421	0.035	0.005
-410.355	122.081	0.077	-0.097
-409.340	800.000	-0.061	-0.201
-408.325	138.097	0.044	-0.058
-407.311	11.819	-0.141	0.109
-406.296	-24.794	-0.327	-0.196
-405.282	350.904	0.172	0.343
-404.267	-52.388	0.347	-0.162
-403.252	-200.000	0.019	-0.155
-402.238	0.255	0.078	0.056
-401.223	790.683	-0.141	0.391
-400.209	-117.358	0.220	-0.040
-399.194	596.829	-0.081	-0.202
-398.179	42.934	-0.069	-0.063
-397.165	233.967	-0.078	0.129
-396.150	-98.448	0.321	-0.083
-395.136	144.686	0.119	-0.160
-394.121	-105.671	0.254	-0.058
-393.106	660.580	0.087	-0.225
-392.092	157.139	-0.026	0.036
-391.077	-96.777	-0.332	-0.088
-390.063	90.459	0.080	-0.090
-389.048	553.927	0.104	-0.251
-388.033	405.516	-0.109	-0.232
-387.019	-46.480	0.035	-0.017
-386.004	-141.319	0.336	0.034
-384.990	-126.579	0.175	-0.026
-383.975	426.253	0.087	-0.189
-382.960	48.608	-0.090	0.085
-381.946	-1.720	-0.231	-0.164
-380.931	-49.374	0.098	0.047
-379.917	64.753	-0.175	-0.178
-378.902	93.458	-0.154	0.175
-377.888	6.077	0.267	0.199
-376.873	-200.000	-0.013	0.071
-375.858	-200.000	0.014	-0.067
-374.844	119.649	-0.067	0.084
-373.829	-137.829	-0.506	-0.057
-372.815	-123.015	-0.332	-0.054
-371.800	189.412	0.023	-0.034
-370.785	800.000	0.065	0.217
-369.771	306.247	-0.084	0.158
-368.756	-54.533	-0.236	0.108
-367.742	74.779	-0.378	-0.400
-366.727	304.579	-0.094	0.175
-365.712	800.000	0.021	-0.073
-364.698	-37.504	0.412	-0.221
-363.683	72.261	0.185	0.194
-362.669	-110.424	-0.017	0.004
-361.654	118.396	0.038	0.047
-360.639	-8.469	-0.150	0.101
-359.625	261.293	-0.124	0.216
-358.610	190.288	0.152	-0.229
-357.596	313.859	-0.117	-0.222
-356.581	556.019	0.087	-0.210
-355.566	18.819	-0.204	-0.164
-354.552	-53.527	0.095	0.044
-353.537	62.453	0.238	-0.239
-352.523	17.796	-0.121	-0.096
-351.508	-185.980	0.196	-0.003
-350.493	-14.024	0.095	-0.062
-349.479	595.935	-0.071	0.177
-348.464	78.790	0.058	0.062
-347.450	-17.328	0.233	-0.147
-346.435	-200.000	-0.012	0.143
-345.420	-170.032	-0.089	0.003
-344.406	-200.000	0.030	-0.320
-343.391	-179.827	-0.196	-0.004
-342.377	-58.907	-0.135	-0.059
-341.362	-45.664	-0.135	-0.067
-340.348	-200.000	0.011	-0.072
-339.333	87.010	-0.188	-0.208
-338.318	34.865	0.135	-0.119
-337.304	-3.162	-0.045	0.032
-336.289	-200.000	-0.022	-0.472
-335.275	-200.000	-0.020	-0.264
-334.260	67.406	0.157	0.161
-333.245	168.929	-0.184	0.264
-332.231	134.791	0.142	-0.185
-331.216	-200.000	-0.004	-0.127
-330.202	-29.900	0.345	0.197
-329.187	-125.155	0.151	-0.023
-328.172	-200.000	-0.001	0.076
-327.158	83.954	-0.240	0.263
-326.143	283.734	-0.126	0.227
-325.129	330.578	0.099	0.191
-324.114	-29.658	-0.283	0.162
-323.099	-42.289	0.332	0.170
-322.085	187.726	-0.090	-0.136
-321.070	16.024	0.157	0.125
-320.056	117.331	-0.308	-0.380
-319.041	-94.227	0.251	0.069
-318.026	-2.850	0.219	-0.154
-317.012	-200.000	0.015	-0.080
-315.997	800.000	-0.051	0.167
-314.983	-194.638	-0.198	-0.002
-313.968	-200.000	-0.017	-0.440
-312.953	-178.011	0.146	0.003
-311.939	46.658	-0.092	-0.086
-310.924	145.440	0.179	0.240
-309.910	-166.094	-0.290	0.012
-308.895	-52.764	-0.361	0.167
-307.880	-200.000	-0.022	-0.110
-306.866	-200.000	-0.025	-0.154
-305.851	-64.012	-0.128	0.052
-304.837	-124.673	0.249	-0.039
-303.822	-200.000	0.023	-0.506
-302.807	271.390	-0.110	-0.195
-301.793	-101.572	0.044	0.011
-300.778	257.912	0.152	0.262
-299.764	-73.826	-0.221	0.081
-298.749	552.815	0.088	-0.213
-297.735	-125.154	0.168	0.026
-296.720	511.537	-0.095	-0.223
-295.705	165.558	0.154	0.218
-294.691	-97.406	-0.171	-0.045
-293.676	-88.195	-0.250	-0.075
-292.662	-200.000	0.016	0.079
-291.647	-66.418	0.304	0.121
-290.632	-200.000	-0.067	0.295
-289.618	800.000	-0.040	-0.134
-288.603	-13.912	0.126	-0.081
-287.589	-200.000	0.003	-0.051
-286.574	-188.843	0.212	0.003
-285.559	-82.298	0.455	-0.148
-284.545	-200.000	0.144	-0.642
-283.530	63.046	-0.065	-0.065
-282.516	800.000	0.060	-0.191
-281.501	-128.325	0.387	-0.055
-280.486	373.990	-0.068	-0.138
-279.472	-200.000	0.015	0.142
-278.457	687.210	-0.088	-0.229
-277.443	213.986	-0.205	0.325
-276.428	129.662	-0.046	-0.060
-275.413	279.255	-0.031	-0.055
-274.399	-49.156	0.143	0.069
-273.384	-200.000	0.064	0.345
-272.370	-50.884	-0.089	0.042
-271.355	589.784	-0.153	0.379
-270.340	230.844	-0.078	0.129
-269.326	32.998	0.023	-0.020
-268.311	279.876	0.175	0.313
-267.297	800.000	0.053	-0.189
-266.282	40.262	0.252	0.227
-265.267	89.564	0.103	0.115
-264.253	800.000	-0.030	0.099
-263.238	-200.000	-0.031	-0.383
-262.224	233.256	-0.031	0.051
-261.209	294.478	0.151	-0.277
-260.195	167.542	0.264	0.375
-259.180	138.350	0.157	0.207
-258.165	-200.000	0.029	0.431
-257.151	275.907	0.078	0.139
-256.136	-54.085	-0.213	0.097
-255.122	-112.287	-0.311	-0.062
-254.107	365.271	-0.055	-0.112
-253.092	-200.000	0.016	-0.183
-252.078	-6.488	0.151	0.103
-251.063	-75.231	-0.084	-0.030
-250.049	77.806	-0.178	-0.190
-249.034	-62.844	-0.162	-0.067
-248.019	-44.842	0.185	0.092
-247.005	-200.000	0.016	0.130
-245.990	-200.000	0.021	-0.175
-244.976	290.149	0.028	-0.051
-243.961	-40.180	0.319	-0.166
-242.946	-109.456	-0.447	-0.095
-241.932	800.000	-0.023	0.097
-240.917	7.063	0.340	-0.253
-239.903	-200.000	0.025	0.208
-238.888	385.300	0.031	0.064
-237.873	800.000	0.017	-0.069
-236.859	34.956	0.005	-0.005
-235.844	-15.460	-0.404	0.258
-234.830	-117.292	0.228	-0.041
-233.815	800.000	-0.080	-0.240
-232.800	800.000	-0.088	-0.324
-231.786	-200.000	-0.027	0.245
-230.771	-200.000	-0.033	0.244
-229.757	-200.000	-0.009	-0.115
-228.742	-13.041	0.195	0.127
-227.727	-47.559	-0.352	-0.171
-226.713	83.311	-0.077	0.084
-225.698	800.000	-0.086	0.251
-224.684	-148.622	0.209	0.017
-223.669	21.507	0.094	0.076
-222.655	30.839	-0.252	-0.216
-221.640	3.016	-0.235	0.171
-220.625	-106.150	0.056	0.013
-219.611	-200.000	0.057	-0.252
-218.596	6.538	0.181	-0.135
-217.582	147.187	0.221	-0.297
-216.567	800.000	0.033	0.141
-215.552	800.000	0.059	-0.235
-214.538	-15.542	-0.114	0.073
-213.523	110.748	0.130	-0.156
-212.509	-200.000	0.013	0.234
-211.494	-32.717	-0.223	-0.124
-210.479	-128.038	0.128	0.018
-209.465	-76.519	-0.272	0.096
-208.450	96.507	0.007	0.007
-207.436	-64.371	0.116	0.047
-206.421	800.000	-0.077	-0.301
-205.406	539.846	0.111	-0.264
-204.392	140.148	-0.115	-0.152
-203.377	100.478	-0.082	-0.095
-202.363	-200.000	-0.010	-0.077
-201.348	800.000	0.045	-0.149
-200.333	-103.304	-0.227	0.054
-199.319	800.000	0.059	0.172
-198.304	60.455	0.294	0.290
-197.290	109.872	-0.237	0.284
-196.275	-200.000	-0.023	0.350
-195.260	686.168	-0.144	-0.375
-194.246	-200.000	0.041	0.353
-193.231	466.579	-0.099	-0.223
-192.217	31.963	-0.175	0.151
-191.202	234.982	0.109	0.180
-190.187	-113.930	-0.170	0.033
-189.173	-200.000	-0.008	-0.118
-188.158	-1.329	-0.084	0.059
-187.144	-200.000	0.045	0.279
-186.129	-31.482	-0.124	-0.069
-185.114	44.417	-0.151	-0.138
-184.100	47.183	0.157	-0.146
-183.085	-200.000	0.013	0.065
-182.071	144.502	0.187	0.250
-181.056	-148.973	0.099	0.008
-180.042	296.186	0.070	0.127
-179.027	800.000	0.110	0.318
-178.012	-13.771	0.142	-0.092
-176.998	184.684	-0.113	-0.167
-175.983	110.269	0.063	-0.076
-174.969	-74.966	-0.079	0.028
-173.954	-12.621	-0.184	-0.120
-172.939	-113.974	0.308	-0.060
-171.925	-80.875	0.216	0.072
-170.910	452.358	-0.098	0.216
-169.896	800.000	0.061	0.169
-168.881	-200.000	0.015	-0.214
-167.866	-53.318	-0.096	0.044
-166.852	-2.204	0.064	0.045
-165.837	-200.000	0.013	0.294
-164.823	-30.337	-0.020	0.012
-163.808	-93.308	0.306	-0.085
-162.793	250.429	-0.005	0.008
-161.779	-159.543	-0.079	-0.004
-160.764	-200.000	0.021	0.242
-159.750	21.488	-0.282	-0.229
-158.735	367.256	0.052	0.105
-157.720	132.735	-0.094	0.122
-156.706	-87.828	0.292	-0.088
-155.691	28.243	-0.196	0.165
-154.677	261.844	-0.068	-0.118
-153.662	-200.000	0.013	-0.083
-152.647	-24.070	0.263	0.157
-151.633	158.843	0.068	0.094
-150.618	-137.054	0.182	-0.021
-149.604	-143.344	0.439	0.042
-148.589	-200.000	0.200	0.000
-147.574	-200.000	-0.004	0.170
-146.560	-46.314	0.168	0.082
-145.545	-15.204	0.179	-0.114
-144.531	-117.527	-0.193	0.035
-143.516	246.748	-0.110	0.186
-142.502	324.524	-0.117	-0.224
-141.487	-61.194	-0.088	-0.037
-140.472	92.541	-0.118	0.133
-139.458	800.000	0.083	-0.252
-138.443	112.223	0.163	-0.196
-137.429	63.943	-0.199	-0.199
-136.414	5.828	0.285	0.210
-135.399	-99.679	0.231	0.058
-134.385	-78.239	-0.119	0.041
-133.370	-138.700	-0.348	-0.038
-132.356	-107.631	-0.054	-0.012
-131.341	-65.955	0.141	-0.056
-130.326	-200.000	-0.007	-0.113
-129.312	-200.000	-0.025	0.110
-128.297	370.131	0.145	-0.294
-127.283	29.706	-0.128	0.108
-126.268	-17.531	-0.224	0.141
-125.253	800.000	0.135	0.460
-124.239	34.496	0.142	-0.124
-123.224	-200.000	-0.052	0.245
-122.210	-70.417	-0.032	0.012
-121.195	11.154	-0.281	0.214
-120.180	-200.000	0.006	-0.199
-119.166	-10.096	-0.144	0.095
-118.151	167.200	0.291	-0.411
-117.137	-22.621	-0.061	-0.036
-116.122	503.484	0.113	0.259
-115.107	-145.914	0.149	0.013
-114.093	117.289	0.070	-0.086
-113.078	334.891	0.139	-0.268
-112.064	-178.285	-0.118	-0.003
-111.049	-121.212	-0.187	0.031
-110.034	225.953	0.048	-0.077
-109.020	800.000	0.048	-0.202
-108.005	204.793	0.132	0.204
-106.991	38.211	0.110	-0.098
-105.976	43.988	0.103	0.094
-104.962	89.865	0.095	0.106
-103.947	425.221	-0.054	0.116
-102.932	-11.559	-0.020	-0.013
-101.918	83.495	-0.117	0.127
-100.903	-76.114	0.213	-0.075
-99.889	337.646	0.215	-0.416
-98.874	-114.671	0.087	-0.017
-97.859	-99.387	0.167	0.042
-96.845	800.000	0.023	0.094
-95.830	50.114	0.080	0.076
-94.816	-141.642	-0.196	0.020
-93.801	-88.883	-0.297	0.088
-92.786	800.000	0.015	-0.043
-91.772	800.000	0.119	0.350
-90.757	800.000	-0.020	-0.086
-89.743	800.000	-0.101	0.289
-88.728	-43.149	0.191	-0.096
-87.713	-76.226	-0.168	-0.059
-86.699	-200.000	0.066	0.293
-85.684	68.145	0.092	-0.094
-84.670	-70.858	-0.287	-0.107
-83.655	395.140	-0.145	0.300
-82.640	267.487	-0.035	-0.061
-81.626	-200.000	-0.033	-0.236
-80.611	-200.000	-0.020	-0.114
-79.597	31.496	0.023	-0.020
-78.582	130.906	-0.092	0.117
-77.567	-200.000	0.023	-0.111
-76.553	800.000	-0.075	-0.290
-75.538	77.751	0.164	-0.174
-74.524	-200.000	0.013	0.093
-73.509	20.719	-0.115	-0.093
-72.494	740.225	-0.070	0.188
-71.480	56.050	0.235	0.227
-70.465	266.907	-0.270	-0.470
-69.451	1.300	-0.090	-0.064
-68.436	-91.019	0.180	-0.051
-67.422	-200.000	-0.001	0.240
-66.407	-21.322	-0.132	-0.080
-65.392	-114.731	0.223	-0.042
-64.378	271.630	0.125	0.219
-63.363	-0.980	0.212	0.149
-62.349	800.000	-0.038	-0.148
-61.334	137.847	-0.641	-0.835
-60.319	800.000	0.095	0.280
-59.305	403.429	-0.355	-0.742
-58.290	121.643	0.608	0.753
-57.276	800.000	0.516	1.732
-56.261	-200.000	89.303	508.270
-55.246	443.029	1423.037	3097.970
-54.232	142.384	2637.885	3478.464
-53.217	108.159	2256.132	2672.567
-52.203	45.779	1773.494	1628.669
-51.188	38.895	1577.203	1399.481
-50.173	36.606	1548.312	1357.742
-49.159	53.602	1594.610	1519.793
-48.144	56.983	1615.307	1563.589
-47.130	39.701	1572.370	1400.696
-46.115	36.369	1557.077	1363.535
-45.100	36.234	1553.322	1359.241
-44.086	36.186	1551.540	1357.295
-43.071	36.193	1549.300	1355.331
-42.057	36.046	1548.094	1353.189
-41.042	36.150	1546.317	1352.310
-40.027	36.074	1545.454	1350.965
-39.013	36.054	1543.454	1349.026
-37.998	35.999	1542.475	1347.732
-36.984	36.022	1541.226	1346.745
-35.969	36.038	1539.926	1345.673
-34.954	36.071	1538.746	1344.816
-33.940	36.190	1536.754	1343.850
-32.925	36.148	1535.060	1342.028
-31.911	36.184	1533.889	1341.196
-30.896	36.267	1532.547	1340.552
-29.881	36.209	1531.409	1339.096
-28.867	36.292	1529.578	1338.020
-27.852	36.150	1528.629	1336.153
-26.838	36.084	1526.998	1334.212
-25.823	36.200	1525.031	1333.248
-24.809	36.191	1523.408	1331.712
-23.794	36.254	1522.138	1330.985
-22.779	36.249	1520.733	1329.667
-21.765	36.184	1519.639	1328.209
-20.750	36.222	1518.624	1327.531
-19.736	36.129	1517.596	1325.944
-18.721	36.207	1516.010	1325.038
-17.706	36.225	1515.183	1324.384
-16.692	36.134	1514.198	1322.849
-15.677	36.045	1513.447	1321.532
-14.663	36.179	1511.929	1321.067
-13.648	36.110	1511.138	1319.851
-12.633	36.191	1509.897	1319.270
-11.619	36.072	1509.186	1317.788
-10.604	36.078	1508.232	1316.941
-9.590	36.152	1507.160	1316.457
-8.575	36.098	1506.474	1315.434
-7.560	36.121	1505.401	1314.604
-6.546	36.153	1504.638	1314.106
-5.531	36.132	1503.613	1313.011
-4.517	36.063	1502.898	1311.869
-3.502	36.066	1501.647	1310.744
-2.487	36.039	1500.861	1309.824
-1.473	36.134	1499.581	1309.298
-0.458	36.019	1498.319	1307.367
0.556	35.470	1489.310	1300.533
1.571	33.292	1463.509	1263.370
2.586	29.573	1398.553	1183.414
3.600	26.745	1310.814	1092.057
4.615	23.971	1261.417	1034.703
5.629	19.790	1202.356	962.941
6.644	10.204	1111.995	840.898
7.659	2.390	1066.541	767.382
8.673	0.989	1060.925	756.283
9.688	0.791	1058.008	753.149
10.702	0.665	1056.597	751.451
11.717	0.605	1054.748	749.774
12.731	3.299	1057.659	765.174
13.746	11.838	1069.197	816.190
14.761	17.601	1076.197	850.306
15.775	17.736	1075.364	850.244
16.790	17.010	1073.284	844.912
17.804	15.952	1070.860	837.669
18.819	15.091	1069.356	832.142
19.834	14.693	1068.066	829.086
20.848	14.358	1067.170	826.658
21.863	14.024	1065.980	824.004
22.877	13.732	1065.462	822.087
23.892	13.571	1064.599	820.547
24.907	13.512	1063.562	819.384
25.921	13.560	1062.655	818.853
26.936	13.490	1062.605	818.392
27.950	13.488	1061.646	817.574
28.965	13.518	1060.985	817.142
29.980	13.700	1059.532	816.844
30.994	13.736	1058.750	816.346
32.009	13.796	1058.063	816.041
33.023	13.698	1057.563	815.103
34.038	13.755	1056.627	814.588
35.053	13.723	1055.603	813.569
36.067	13.595	1054.832	812.278
37.082	13.696	1053.840	811.935
38.096	13.656	1053.255	811.215
39.111	13.661	1052.747	810.778
40.126	13.630	1051.640	809.701
41.140	13.573	1050.709	808.637
42.155	13.669	1049.403	808.025
43.169	13.519	1048.683	806.667
44.184	13.482	1047.657	805.627
45.199	13.548	1046.246	804.796
46.213	13.591	1045.210	804.134
47.228	13.532	1044.539	803.262
48.242	13.438	1043.760	802.135
49.257	13.537	1042.356	801.464
50.271	13.710	1040.917	801.125
51.286	13.540	1040.324	799.773
52.301	13.729	1039.363	799.876
53.315	13.635	1038.731	798.868
54.330	13.515	1037.913	797.589
55.344	13.646	1036.943	797.404
56.359	13.598	1035.609	796.075
57.374	13.536	1035.040	795.270
58.388	13.624	1034.124	794.918
59.403	13.507	1033.540	793.841
60.417	13.517	1032.683	793.159
61.432	13.543	1031.759	792.500
62.447	13.474	1031.130	791.619
63.461	13.455	1030.567	791.027
64.476	13.412	1029.325	789.798
65.490	13.413	1028.477	789.083
66.505	13.442	1027.928	788.731
67.520	13.378	1027.449	787.985
68.534	13.442	1026.801	787.722
69.549	13.529	1025.993	787.449
70.563	13.592	1024.411	786.465
71.578	13.435	1024.458	785.687
72.593	13.461	1023.057	784.665
73.607	13.465	1021.916	783.741
74.622	13.458	1021.208	783.092
75.636	13.441	1020.725	782.575
76.651	13.416	1019.284	781.282
77.666	13.415	1018.856	780.878
78.680	13.362	1018.047	779.940
79.695	13.390	1017.342	779.463
80.709	13.364	1017.085	779.076
81.724	13.509	1016.367	779.137
82.739	13.480	1015.286	778.104
83.753	13.553	1014.597	777.851
84.768	13.533	1013.775	777.057
85.782	13.630	1013.224	777.019
86.797	13.688	1012.186	776.429
87.812	13.595	1011.804	775.629
88.826	13.459	1010.934	774.261
89.841	13.586	1009.526	773.706
90.855	13.662	1009.162	773.715
91.870	13.612	1008.270	772.729
92.884	13.685	1007.512	772.416
93.899	13.751	1006.577	771.943
94.914	13.708	1006.082	771.292
95.928	13.618	1005.091	770.046
96.943	13.708	1004.396	769.865
97.957	13.823	1003.547	769.675
98.972	13.696	1002.473	768.200
99.987	13.694	1002.383	768.052
101.001	13.669	1001.690	767.337
102.016	13.585	1000.510	765.979
103.030	13.674	999.484	765.536
104.045	13.693	998.386	764.712
105.060	13.641	997.600	763.804
106.074	13.752	996.560	763.452
107.089	13.588	995.517	761.830
108.103	13.682	994.567	761.470
109.118	13.501	993.892	760.055
110.133	13.445	993.516	759.440
111.147	13.498	992.469	758.817
112.162	13.558	991.094	757.974
113.176	13.555	990.722	757.606
114.191	13.534	990.064	756.941
115.206	13.504	989.146	756.035
116.220	13.564	988.504	755.753
117.235	13.600	987.258	754.898
118.249	13.469	986.814	753.892
119.264	13.591	985.680	753.515
120.279	13.470	984.849	752.264
121.293	13.445	984.366	751.716
122.308	13.465	983.559	751.125
123.322	13.529	982.551	750.575
124.337	13.554	981.305	749.671
125.352	13.512	980.341	748.678
126.366	13.561	979.045	747.842
127.381	13.481	978.187	746.760
128.395	13.436	977.242	745.771
129.410	13.437	976.428	745.090
130.424	13.526	975.035	744.361
131.439	13.583	974.173	743.890
132.454	13.689	973.261	743.607
133.468	13.702	972.694	743.163
134.483	13.713	972.285	742.838
135.497	13.619	971.296	741.594
136.512	13.561	970.998	741.039
137.527	13.659	969.624	740.364
138.541	13.621	969.222	739.821
139.556	13.722	968.480	739.641
140.570	13.552	967.734	738.248
141.585	13.645	966.789	737.876
142.600	13.756	965.898	737.626
143.614	13.776	965.182	737.099
144.629	13.757	964.585	736.498
145.643	13.705	964.242	735.936
146.658	13.742	963.328	735.341
147.673	13.579	962.397	733.841
148.687	13.615	961.597	733.327
149.702	13.757	960.226	732.843
150.716	13.672	959.510	731.856
151.731	13.731	958.357	731.172
152.746	13.580	957.489	729.780
153.760	13.689	956.662	729.565
154.775	13.778	956.332	729.640
155.789	13.819	955.454	729.085
156.804	13.762	954.706	728.198
157.819	13.880	953.668	727.862
158.833	13.741	953.030	726.703
159.848	13.821	952.868	726.863
160.862	13.778	952.240	726.131
161.877	13.872	951.189	725.678
162.892	13.787	950.372	724.618
163.906	13.794	949.417	723.859
164.921	13.774	948.968	723.364
165.935	13.847	947.218	722.285
166.950	13.814	946.797	721.754
167.964	13.836	945.704	720.954
168.979	13.953	944.653	720.598
169.994	13.764	944.177	719.351
171.008	13.738	943.426	718.602
172.023	13.837	942.157	717.999
173.037	13.921	941.169	717.545
174.052	14.010	940.725	717.530
175.067	13.914	940.163	716.620
176.081	13.894	939.196	715.736
177.096	13.772	939.082	715.059
178.110	13.901	937.794	714.570
179.125	13.806	937.201	713.647
180.140	13.880	936.475	713.350
181.154	14.026	935.276	712.997
182.169	13.891	934.884	712.056
183.183	14.032	933.917	711.864
184.198	14.044	933.488	711.525
185.213	13.925	932.946	710.540
186.227	14.074	932.218	710.557
187.242	14.074	931.728	710.123
188.256	14.058	930.971	709.413
189.271	14.159	929.913	708.977
190.286	14.061	929.577	708.240
191.300	14.119	928.376	707.507
192.315	14.096	927.578	706.738
193.329	13.994	927.140	705.908
194.344	13.861	926.629	704.894
195.359	14.034	925.839	704.963
196.373	14.008	925.949	704.877
197.388	14.104	925.277	704.707
198.402	14.237	924.323	704.481
199.417	14.217	923.909	704.022
200.432	14.211	923.407	703.549
201.446	14.281	923.153	703.590
202.461	14.451	922.261	703.566
203.475	14.455	921.875	703.223
204.490	14.438	921.133	702.525
205.504	14.245	920.103	700.867
206.519	14.395	919.230	700.769
207.534	14.446	918.851	700.633
208.548	14.232	918.854	699.672
209.563	14.302	917.458	698.840
210.577	14.295	916.699	698.172
211.592	14.332	916.011	697.743
212.607	14.326	915.841	697.525
213.621	14.363	914.817	696.839
214.636	14.529	914.132	696.949
215.650	14.373	913.836	696.011
216.665	14.471	912.617	695.427
217.680	14.450	912.595	695.263
218.694	14.553	911.729	694.971
219.709	14.471	911.309	694.247
220.723	14.645	910.251	694.106
221.738	14.530	909.854	693.263
222.753	14.513	909.315	692.719
223.767	14.575	908.578	692.354
224.782	14.624	907.429	691.622
225.796	14.617	907.220	691.370
226.811	14.675	906.341	690.880
227.826	14.688	905.423	690.174
228.840	14.588	904.962	689.345
229.855	14.662	904.271	689.063
230.869	14.582	903.864	688.363
231.884	14.632	902.921	687.792
232.899	14.600	902.125	686.993
233.913	14.553	901.671	686.394
234.928	14.659	900.812	686.112
235.942	14.568	900.480	685.424
236.957	14.541	899.307	684.360
237.972	14.679	898.652	684.368
238.986	14.629	898.363	683.883
240.001	14.636	897.625	683.289
241.015	14.653	896.915	682.757
242.030	14.707	895.981	682.206
243.045	14.760	895.312	681.851
244.059	14.903	894.618	681.849
245.074	14.793	894.171	681.000
246.088	14.739	893.699	680.359
247.103	14.700	893.413	679.922
248.117	14.892	892.439	679.900
249.132	14.916	891.918	679.542
250.147	14.868	891.469	678.946
251.161	14.897	890.705	678.422
252.176	15.073	889.730	678.329
253.190	15.046	889.174	677.739
254.205	15.146	888.685	677.710
255.220	15.144	888.313	677.357
256.234	15.110	887.863	676.817
257.249	15.094	886.918	675.974
258.263	15.018	886.603	675.365
259.278	15.296	885.354	675.473
260.293	15.218	885.185	674.972
261.307	15.143	884.898	674.390
262.322	15.224	884.231	674.147
263.336	15.357	883.546	674.104
264.351	15.404	882.623	673.528
265.366	15.336	882.157	672.839
266.380	15.312	881.519	672.195
267.395	15.401	880.517	671.730
268.409	15.400	880.257	671.469
269.424	15.451	879.453	670.998
270.439	15.378	878.685	670.060
271.453	15.365	878.133	669.527
272.468	15.253	877.281	668.373
273.482	15.287	876.665	667.983
274.497	15.362	876.205	667.869
275.512	15.419	875.298	667.345
276.526	15.359	874.205	666.215
277.541	15.248	874.298	665.786
278.555	15.402	873.217	665.514
279.570	15.337	872.920	664.974
280.585	15.524	872.287	665.173
281.599	15.636	871.467	664.930
282.614	15.457	871.197	663.958
283.628	15.507	870.071	663.240
284.643	15.555	869.669	663.063
285.657	15.547	869.395	662.763
286.672	15.548	869.041	662.438
287.687	15.615	867.832	661.722
288.701	15.744	867.525	661.940
289.716	15.622	867.230	661.175
290.730	15.569	866.592	660.421
291.745	15.664	865.914	660.219
292.760	15.694	865.118	659.672
293.774	15.486	865.064	658.757
294.789	15.681	863.873	658.556
295.803	15.750	863.275	658.312
296.818	15.688	862.867	657.698
297.833	15.701	862.224	657.200
298.847	15.790	861.354	656.827
299.862	15.892	860.699	656.666
300.876	15.797	860.032	655.731
301.891	15.785	859.615	655.308
302.906	15.761	858.906	654.615
303.920	15.877	857.992	654.312
304.935	15.919	857.432	653.991
305.949	15.938	856.809	653.530
306.964	15.883	856.331	652.897
307.979	15.923	855.652	652.474
308.993	15.926	855.150	652.046
310.008	15.939	854.890	651.841
311.022	16.018	854.462	651.762
312.037	15.996	853.747	651.075
313.052	15.939	853.239	650.411
314.066	15.958	852.689	650.006
315.081	15.985	851.950	649.488
316.095	15.998	851.234	648.936
317.110	15.978	850.812	648.478
318.125	15.925	850.315	647.840
319.139	15.831	849.934	647.130
320.154	16.052	849.106	647.292
321.168	16.088	848.471	646.889
322.183	16.087	848.185	646.608
323.197	16.162	847.441	646.272
324.212	16.099	847.396	645.940
325.227	16.016	846.405	644.808
326.241	16.084	845.985	644.694
327.256	16.143	845.404	644.416
328.270	16.212	844.640	644.041
329.285	16.117	844.296	643.359
330.300	16.023	843.759	642.535
331.314	16.093	843.211	642.326
332.329	16.159	842.340	641.861
333.343	16.174	841.712	641.382
334.358	16.293	841.284	641.452
335.373	16.238	840.730	640.763
336.387	16.239	840.694	640.681
337.402	16.206	839.818	639.830
338.416	16.325	839.045	639.639
339.431	16.434	838.564	639.628
340.446	16.365	838.197	639.031
341.460	16.380	837.393	638.416
342.475	16.285	837.061	637.747
343.489	16.425	836.296	637.636
344.504	16.485	835.722	637.368
345.519	16.485	835.321	637.007
346.533	16.530	834.592	636.565
347.548	16.526	834.367	636.322
348.562	16.494	833.758	635.680
349.577	16.389	833.194	634.799
350.592	16.608	832.524	635.053
351.606	16.358	832.406	633.969
352.621	16.454	831.849	633.851
353.635	16.600	831.424	634.016
354.650	16.375	831.078	632.855
355.665	16.427	830.519	632.565
356.679	16.388	830.273	632.179
357.694	16.487	829.539	631.933
358.708	16.627	828.672	631.741
359.723	16.607	828.569	631.529
360.738	16.599	827.775	630.840
361.752	16.644	827.235	630.538
362.767	16.568	826.993	630.018
363.781	16.880	826.244	630.551
364.796	16.812	825.873	629.961
365.810	16.753	825.478	629.383
366.825	16.749	825.106	629.028
367.840	16.768	824.893	628.881
368.854	16.870	824.267	628.726
369.869	16.924	823.893	628.587
370.883	16.839	823.554	627.955
371.898	16.860	822.818	627.417
372.913	16.864	821.902	626.680
373.927	16.916	821.629	626.609
374.942	17.008	820.788	626.252
375.956	17.141	819.703	625.855
376.971	17.002	819.530	625.158
377.986	17.017	818.979	624.736
379.000	17.058	818.685	624.607
380.015	17.060	818.378	624.325
381.029	17.136	817.487	623.872
382.044	17.232	816.930	623.744
383.059	17.046	816.662	622.799
384.073	17.174	816.180	622.847
385.088	17.110	815.462	622.011
386.102	17.095	814.887	621.462
387.117	17.053	814.524	620.976
388.132	17.068	813.946	620.533
389.146	17.029	813.648	620.109
390.161	17.105	813.339	620.098
391.175	17.086	812.853	619.604
392.190	17.250	812.578	619.937
393.205	17.231	811.733	619.168
394.219	17.221	811.442	618.854
395.234	17.175	811.102	618.371
396.248	17.140	810.752	617.923
397.263	17.217	809.851	617.463
398.278	17.126	809.486	616.800
399.292	17.049	808.958	616.063
400.307	17.338	808.453	616.671
401.321	17.163	807.868	615.536
402.336	17.180	807.912	615.576
403.350	17.341	807.655	615.911
404.365	17.267	806.959	615.057
405.380	17.446	806.180	615.055
406.394	17.397	805.991	614.681
407.409	17.460	805.213	614.261
408.423	17.553	804.925	614.322
409.438	17.477	804.741	613.854
410.453	17.533	804.323	613.680
411.467	17.529	803.809	613.221
412.482	17.651	803.077	613.046
413.496	17.581	802.915	612.617
414.511	17.738	802.653	612.926
415.526	17.577	801.997	611.794
416.540	17.617	801.948	611.847
417.555	17.671	801.446	611.602
418.569	17.514	800.857	610.535
419.584	17.506	800.564	610.228
420.599	17.526	799.764	609.638
421.613	101.442	1280.298	1430.437
422.628	87.006	1350.340	1430.551
