DTS Sentinel unit serial number:	SN413079Multiplexer serial number:	ORYXHardware model number:	OX4-SRSoftware version number:	ORYX F/W v4.00 Oryx Data Collector v3.7.2.0data status	okinstallation	princeton_trtdifferential loss correction	single-endedforward channel	channel 3reverse channel	N/Adate	2019/09/14time	02:08:34forward acquisition time	60.00reverse acquisition time	0.00gamma	496.2192k internal	0.2339k external	0.2339temperature offset calibration	1.0052default loss term (dB/km)	0.3790temperature slope calibration	1.0000multiplexer offset coefficient	1.0000multiplexer slope coefficient	1.0000fibre end	0.00T internal ref (°C)	26.50T ext. ref 1 (°C)	3.22T ext. ref 2 (°C)	21.48length (m)	temperature (°C)	Stokes	anti-Stokes-747.200	18.861	-0.316	0.254
-746.185	-29.701	-0.129	0.074
-745.171	-200.000	-0.002	-0.163
-744.156	-130.335	0.246	0.033
-743.142	-92.477	-0.446	-0.126
-742.127	122.893	-0.124	-0.155
-741.112	-130.898	-0.020	0.003
-740.098	599.847	-0.115	0.286
-739.083	343.024	-0.133	0.261
-738.069	-104.521	0.196	0.045
-737.054	2.172	-0.040	0.029
-736.039	-4.063	-0.164	-0.114
-735.025	-123.703	0.305	0.048
-734.010	43.604	-0.119	0.109
-732.996	18.738	-0.321	-0.258
-731.981	-200.000	0.024	0.193
-730.966	431.092	-0.176	0.381
-729.952	229.024	-0.112	-0.183
-728.937	-38.746	0.056	-0.030
-727.923	-46.424	-0.245	0.121
-726.908	-16.843	-0.261	-0.165
-725.894	800.000	0.051	-0.151
-724.879	-104.864	0.214	0.049
-723.864	433.098	-0.094	0.205
-722.850	-58.112	0.236	0.103
-721.835	-200.000	-0.039	0.454
-720.821	-60.849	-0.253	-0.107
-719.806	-35.499	-0.124	-0.067
-718.791	124.454	-0.012	0.015
-717.777	800.000	0.044	0.133
-716.762	90.822	0.112	0.125
-715.748	-111.886	-0.231	0.047
-714.733	57.841	-0.036	0.035
-713.718	25.168	-0.183	0.152
-712.704	-200.000	-0.021	-0.204
-711.689	430.925	-0.044	0.096
-710.675	149.984	0.147	0.199
-709.660	45.793	0.225	0.208
-708.645	-200.000	-0.012	0.274
-707.631	276.942	0.019	0.034
-706.616	-71.863	0.303	-0.113
-705.602	-200.000	-0.010	0.401
-704.587	-14.926	0.226	0.145
-703.572	378.112	-0.081	-0.165
-702.558	48.822	-0.164	0.154
-701.543	202.108	0.115	-0.178
-700.529	181.401	-0.260	0.383
-699.514	-74.440	0.235	-0.085
-698.499	-41.138	0.250	0.129
-697.485	-12.608	-0.245	0.160
-696.470	23.216	0.067	-0.055
-695.456	-86.453	-0.082	0.025
-694.441	142.906	0.118	-0.157
-693.426	359.138	0.094	-0.187
-692.412	-3.454	-0.206	0.143
-691.397	-200.000	0.024	0.203
-690.383	800.000	0.016	0.056
-689.368	80.206	-0.223	-0.240
-688.354	68.823	0.112	-0.115
-687.339	-200.000	-0.009	-0.068
-686.324	-82.990	-0.220	0.071
-685.310	-89.032	0.049	0.014
-684.295	-38.121	-0.362	-0.192
-683.281	-49.288	-0.118	-0.057
-682.266	-130.736	-0.276	0.037
-681.251	-148.442	0.376	0.031
-680.237	-114.524	-0.137	0.026
-679.222	-69.792	0.147	0.056
-678.208	-200.000	0.032	-0.222
-677.193	-53.103	0.135	0.062
-676.178	480.503	0.076	0.173
-675.164	140.496	-0.072	-0.095
-674.149	-191.203	0.304	-0.003
-673.135	174.447	0.207	0.300
-672.120	-110.328	0.443	-0.092
-671.105	-200.000	-0.053	-0.356
-670.091	-200.000	0.027	-0.145
-669.076	720.939	-0.153	-0.407
-668.062	-200.000	-0.011	0.109
-667.047	259.586	-0.097	-0.168
-666.032	78.214	0.215	0.230
-665.018	140.110	-0.146	0.192
-664.003	-200.000	-0.021	-0.155
-662.989	-200.000	-0.019	0.309
-661.974	74.835	-0.120	-0.126
-660.959	0.512	-0.138	-0.099
-659.945	-200.000	0.038	-0.177
-658.930	-165.104	0.292	-0.013
-657.916	-3.533	-0.105	0.073
-656.901	284.241	0.035	-0.063
-655.886	-142.435	0.205	0.020
-654.872	-200.000	0.031	-0.234
-653.857	-60.373	0.378	-0.161
-652.843	106.170	-0.158	-0.187
-651.828	-99.733	-0.229	-0.057
-650.814	511.413	0.077	0.180
-649.799	-63.523	0.311	-0.128
-648.784	-200.000	0.021	0.274
-647.770	19.317	0.156	-0.125
-646.755	-78.666	-0.184	-0.063
-645.741	-200.000	0.106	-0.000
-644.726	-118.401	0.241	0.043
-643.711	-200.000	0.018	0.318
-642.697	-40.444	0.119	0.062
-641.682	-200.000	-0.009	0.438
-640.668	-200.000	-0.008	-0.176
-639.653	-123.635	-0.211	-0.033
-638.638	70.692	-0.307	0.317
-637.624	-200.000	-0.006	-0.160
-636.609	105.354	0.078	-0.092
-635.595	800.000	0.037	-0.155
-634.580	71.685	-0.108	0.112
-633.565	169.687	-0.261	-0.372
-632.551	-72.950	0.172	-0.063
-631.536	800.000	-0.028	0.109
-630.522	-200.000	0.018	0.098
-629.507	239.995	0.113	-0.189
-628.492	69.322	0.176	-0.181
-627.478	-200.000	-0.055	-0.315
-626.463	-114.643	0.236	0.045
-625.449	800.000	0.026	0.094
-624.434	-87.210	-0.213	0.064
-623.419	-200.000	0.052	0.502
-622.405	-96.848	0.101	0.026
-621.390	654.083	0.025	0.063
-620.376	-26.140	-0.244	-0.143
-619.361	-28.019	-0.176	-0.102
-618.346	-25.327	0.156	0.092
-617.332	-39.453	-0.100	0.052
-616.317	427.117	-0.040	0.087
-615.303	800.000	0.031	0.134
-614.288	-159.128	0.235	-0.013
-613.273	117.461	-0.255	-0.312
-612.259	405.159	-0.043	-0.091
-611.244	56.724	0.131	-0.127
-610.230	-165.822	-0.184	-0.008
-609.215	-164.469	-0.072	0.003
-608.201	130.562	-0.035	0.045
-607.186	800.000	0.047	0.183
-606.171	356.026	0.059	-0.117
-605.157	66.742	0.144	-0.147
-604.142	59.132	-0.274	-0.269
-603.128	-187.093	0.379	0.005
-602.113	-149.569	0.176	-0.014
-601.098	-110.623	-0.348	0.072
-600.084	649.398	-0.143	-0.364
-599.069	-48.610	0.181	-0.087
-598.055	99.525	-0.207	-0.239
-597.040	118.495	0.135	-0.167
-596.025	450.691	0.136	-0.299
-595.011	103.496	0.174	-0.204
-593.996	-9.983	-0.336	-0.223
-592.982	-200.000	0.009	-0.061
-591.967	-50.123	0.241	0.114
-590.952	-99.237	0.367	0.093
-589.938	-200.000	-0.017	0.118
-588.923	248.024	0.284	-0.479
-587.909	-36.860	0.221	-0.118
-586.894	-118.710	-0.319	0.056
-585.879	-33.552	0.080	-0.044
-584.865	-60.420	0.038	-0.016
-583.850	800.000	0.042	-0.140
-582.836	-65.121	0.222	0.089
-581.821	126.308	-0.089	0.112
-580.806	-200.000	0.002	-0.149
-579.792	-39.335	0.103	-0.054
-578.777	-199.185	0.252	-0.001
-577.763	-150.866	0.447	0.034
-576.748	-68.346	-0.110	0.042
-575.733	86.247	-0.259	0.285
-574.719	81.830	0.259	-0.280
-573.704	-5.020	-0.105	0.072
-572.690	377.491	-0.150	0.306
-571.675	-46.913	0.144	0.070
-570.661	-72.904	-0.175	-0.064
-569.646	-124.817	0.106	0.016
-568.631	-200.000	0.023	-0.315
-567.617	-200.000	-0.014	0.407
-566.602	702.303	0.082	0.215
-565.588	202.510	0.130	0.200
-564.573	639.045	0.078	-0.197
-563.558	-200.000	-0.040	0.181
-562.544	-200.000	0.012	0.152
-561.529	800.000	-0.050	0.153
-560.515	-54.610	-0.253	0.114
-559.500	-200.000	-0.007	0.378
-558.485	16.729	0.149	-0.117
-557.471	-200.000	0.009	-0.064
-556.456	57.399	-0.068	0.066
-555.442	-97.169	0.123	-0.032
-554.427	19.698	-0.148	-0.118
-553.412	3.830	0.178	0.130
-552.398	-125.941	-0.238	0.036
-551.383	-37.357	-0.099	-0.053
-550.369	304.805	-0.209	0.387
-549.354	516.130	-0.058	0.135
-548.339	-118.276	0.178	-0.032
-547.325	14.871	0.144	-0.112
-546.310	-102.986	-0.281	-0.066
-545.296	-25.230	-0.325	0.192
-544.281	278.151	-0.069	0.122
-543.266	800.000	0.078	-0.227
-542.252	321.617	-0.075	0.143
-541.237	653.798	-0.083	0.211
-540.223	277.198	0.062	0.109
-539.208	-11.613	0.026	0.017
-538.193	-136.600	-0.175	-0.020
-537.179	196.340	-0.175	-0.266
-536.164	-46.028	-0.207	0.101
-535.150	-8.570	-0.161	-0.107
-534.135	284.843	0.093	-0.166
-533.121	221.447	-0.090	0.144
-532.106	-200.000	-0.021	0.163
-531.091	125.859	-0.141	0.177
-530.077	187.983	0.046	-0.068
-529.062	60.635	0.267	0.263
-528.048	38.829	0.133	-0.118
-527.033	779.698	-0.098	-0.268
-526.018	52.077	0.125	0.119
-525.004	-200.000	-0.020	0.366
-523.989	10.107	-0.040	-0.030
-522.975	800.000	-0.065	0.282
-521.960	709.330	-0.084	0.220
-520.945	-200.000	-0.010	0.189
-519.931	-139.752	-0.209	0.022
-518.916	-25.567	-0.128	0.075
-517.902	-200.000	-0.019	0.174
-516.887	7.258	0.237	0.176
-515.872	-99.299	0.251	-0.063
-514.858	-200.000	0.038	-0.211
-513.843	-200.000	0.045	-0.534
-512.829	800.000	-0.088	-0.243
-511.814	52.332	-0.122	0.116
-510.799	427.221	0.093	0.198
-509.785	159.921	-0.300	0.416
-508.770	-105.444	-0.393	-0.089
-507.756	-115.209	0.417	-0.078
-506.741	277.271	0.107	0.189
-505.726	-200.000	-0.080	-0.579
-504.712	-158.511	-0.269	-0.015
-503.697	132.554	0.150	0.192
-502.683	-57.714	0.335	-0.146
-501.668	800.000	-0.071	0.272
-500.653	-129.699	-0.198	0.027
-499.639	-48.971	0.244	0.116
-498.624	-200.000	-0.004	-0.181
-497.610	-88.662	-0.078	0.023
-496.595	140.455	0.124	-0.163
-495.581	271.195	0.094	0.164
-494.566	63.842	-0.114	0.114
-493.551	-65.073	-0.370	0.148
-492.537	12.493	0.186	0.143
-491.522	4.114	-0.245	-0.178
-490.508	-61.734	0.161	-0.067
-489.493	-40.815	-0.113	-0.058
-488.478	185.526	0.109	-0.161
-487.464	133.721	-0.223	-0.287
-486.449	774.220	-0.038	0.102
-485.435	-110.809	0.136	0.028
-484.420	-109.212	0.213	-0.045
-483.405	-200.000	0.009	0.182
-482.391	-177.539	0.286	0.007
-481.376	-75.083	0.063	-0.022
-480.362	-200.000	-0.277	-0.001
-479.347	-24.993	0.111	-0.065
-478.332	647.316	0.107	0.271
-477.318	800.000	-0.054	-0.174
-476.303	79.432	-0.128	0.136
-475.289	-200.000	-0.002	0.297
-474.274	330.536	-0.075	0.143
-473.259	-200.000	-0.028	-0.288
-472.245	-83.171	-0.306	0.098
-471.230	-200.000	-0.025	0.163
-470.216	67.460	0.109	-0.110
-469.201	-188.876	0.159	0.002
-468.186	-65.686	0.129	0.051
-467.172	-40.935	0.214	-0.110
-466.157	-200.000	0.009	0.051
-465.143	133.653	-0.197	-0.253
-464.128	35.711	-0.060	-0.052
-463.113	-200.000	-0.036	0.215
-462.099	800.000	0.118	0.328
-461.084	-103.319	-0.376	-0.088
-460.070	-64.027	-0.024	0.010
-459.055	23.203	0.177	0.144
-458.040	223.205	-0.089	0.142
-457.026	81.175	-0.159	0.170
-456.011	226.627	0.081	0.131
-454.997	525.528	0.119	0.277
-453.982	36.349	-0.180	-0.158
-452.968	-123.136	-0.268	0.043
-451.953	-49.077	-0.112	-0.053
-450.938	-200.000	0.023	0.102
-449.924	44.510	-0.138	-0.126
-448.909	-200.000	0.072	0.526
-447.895	57.874	0.245	0.238
-446.880	-123.693	-0.080	-0.013
-445.865	20.514	0.210	0.168
-444.851	-76.678	0.333	0.116
-443.836	-192.649	-0.184	-0.002
-442.822	338.987	0.087	0.168
-441.807	267.214	0.042	0.072
-440.792	121.103	-0.105	0.129
-439.778	-117.488	-0.081	-0.014
-438.763	769.471	0.059	0.159
-437.749	-5.046	0.052	0.035
-436.734	-40.661	0.154	0.079
-435.719	140.463	-0.203	0.265
-434.705	26.468	-0.102	-0.084
-433.690	75.900	0.120	-0.125
-432.676	-118.545	-0.045	-0.008
-431.661	164.354	0.038	-0.053
-430.646	-92.867	0.294	0.081
-429.632	-200.000	-0.032	-0.259
-428.617	-200.000	0.000	0.146
-427.603	-108.078	-0.275	0.059
-426.588	-56.954	0.180	0.079
-425.573	9.633	0.424	0.318
-424.559	800.000	-0.060	-0.182
-423.544	70.983	-0.080	-0.082
-422.530	-171.291	0.098	-0.003
-421.515	800.000	0.195	-0.609
-420.500	-200.000	0.015	-0.240
-419.486	8.792	0.302	-0.226
-418.471	-64.137	-0.180	-0.073
-417.457	21.621	-0.036	-0.029
-416.442	-5.638	-0.296	-0.201
-415.428	298.495	-0.100	0.182
-414.413	-200.000	0.010	0.170
-413.398	605.444	0.114	0.281
-412.384	-73.975	-0.091	-0.033
-411.369	90.539	-0.155	0.172
-410.355	-200.000	0.025	0.280
-409.340	800.000	-0.062	0.206
-408.325	-168.654	0.319	0.012
-407.311	800.000	-0.034	0.095
-406.296	170.091	0.036	-0.051
-405.282	34.005	-0.170	-0.146
-404.267	42.416	0.202	0.182
-403.252	800.000	0.047	-0.155
-402.238	800.000	0.069	-0.241
-401.223	298.176	0.077	-0.139
-400.209	114.211	0.165	0.198
-399.194	504.766	-0.041	-0.093
-398.179	376.421	0.199	-0.403
-397.165	-200.000	-0.044	-0.261
-396.150	800.000	-0.041	-0.164
-395.136	800.000	-0.007	-0.020
-394.121	53.072	-0.145	0.137
-393.106	-200.000	0.027	-0.133
-392.092	104.227	0.030	0.035
-391.077	-116.781	-0.279	0.051
-390.063	-153.403	0.140	-0.010
-389.048	320.993	-0.120	-0.225
-388.033	800.000	-0.115	0.319
-387.019	405.397	0.059	0.122
-386.004	238.657	-0.201	-0.330
-384.990	16.177	-0.182	-0.142
-383.975	-61.430	-0.414	-0.172
-382.960	371.208	-0.051	-0.102
-381.946	86.332	-0.260	0.284
-380.931	18.729	0.163	0.129
-379.917	99.569	-0.196	0.224
-378.902	800.000	-0.150	0.588
-377.888	190.987	0.088	0.130
-376.873	-47.268	0.282	-0.136
-375.858	800.000	0.139	-0.534
-374.844	-200.000	-0.006	0.044
-373.829	232.323	-0.231	-0.374
-372.815	9.237	0.179	-0.134
-371.800	-23.997	0.245	-0.145
-370.785	-76.988	-0.213	-0.074
-369.771	516.983	0.030	0.069
-368.756	800.000	0.090	0.303
-367.742	800.000	-0.017	-0.058
-366.727	-146.788	0.187	-0.016
-365.712	-114.711	0.239	-0.045
-364.698	-60.620	-0.125	-0.053
-363.683	82.850	-0.149	-0.160
-362.669	-16.885	-0.073	0.045
-361.654	-34.010	-0.205	0.111
-360.639	295.605	0.175	0.317
-359.625	-200.000	0.009	0.138
-358.610	-143.317	-0.280	0.026
-357.596	-197.975	-0.253	-0.001
-356.581	55.855	0.149	0.142
-355.566	800.000	-0.071	0.198
-354.552	-183.575	0.058	0.001
-353.537	-118.319	-0.210	-0.037
-352.523	-135.130	-0.196	-0.023
-351.508	-108.411	-0.343	-0.073
-350.493	800.000	0.118	0.374
-349.479	-71.076	-0.068	0.025
-348.464	53.558	-0.194	-0.184
-347.450	-69.644	-0.459	-0.173
-346.435	-133.305	0.339	-0.042
-345.420	23.874	-0.174	0.142
-344.406	-200.000	-0.029	0.221
-343.391	40.811	-0.075	-0.067
-342.377	-110.190	-0.571	-0.118
-341.362	800.000	-0.078	-0.287
-340.348	37.894	-0.286	0.251
-339.333	-93.211	0.206	-0.057
-338.318	800.000	0.071	0.274
-337.304	87.131	-0.202	0.221
-336.289	-50.373	0.227	-0.106
-335.275	-60.576	-0.152	-0.063
-334.260	800.000	0.138	0.402
-333.245	-200.000	0.050	-0.300
-332.231	800.000	-0.081	-0.252
-331.216	204.111	-0.072	-0.110
-330.202	128.945	0.123	-0.155
-329.187	134.639	-0.167	-0.214
-328.172	800.000	-0.084	-0.292
-327.158	132.930	-0.172	-0.219
-326.143	145.532	0.162	-0.214
-325.129	-143.385	-0.218	-0.021
-324.114	-174.202	-0.038	-0.001
-323.099	134.233	0.025	0.032
-322.085	0.985	-0.465	0.329
-321.070	55.812	0.072	-0.069
-320.056	800.000	-0.028	0.108
-319.041	27.458	0.370	0.307
-318.026	479.280	0.067	0.149
-317.012	217.633	0.226	0.356
-315.997	-80.109	-0.362	-0.120
-314.983	-55.519	0.085	0.038
-313.968	255.127	0.136	0.229
-312.953	-23.546	0.135	0.080
-311.939	-79.874	0.304	-0.101
-310.924	-58.622	0.540	-0.231
-309.910	800.000	0.095	-0.293
-308.895	134.986	-0.086	-0.110
-307.880	88.808	0.218	-0.239
-306.866	-200.000	-0.106	-0.000
-305.851	518.996	0.079	-0.183
-304.837	88.408	-0.163	0.178
-303.822	365.808	-0.146	-0.289
-302.807	266.995	-0.087	0.150
-301.793	-115.131	0.074	0.014
-300.778	-200.000	-0.035	-0.244
-299.764	-101.797	0.100	-0.024
-298.749	-173.220	0.301	-0.009
-297.735	58.150	0.183	0.176
-296.720	497.078	0.034	0.077
-295.705	50.465	0.223	-0.208
-294.691	-200.000	-0.031	0.139
-293.676	190.620	-0.121	-0.179
-292.662	-50.110	-0.164	0.077
-291.647	132.008	-0.053	-0.067
-290.632	-166.959	0.206	-0.008
-289.618	-58.352	-0.199	-0.085
-288.603	156.944	0.104	-0.142
-287.589	-200.000	-0.046	0.215
-286.574	-200.000	-0.049	0.268
-285.559	-105.176	-0.105	-0.024
-284.545	147.621	-0.199	-0.264
-283.530	800.000	-0.039	0.161
-282.516	108.672	0.101	-0.119
-281.501	665.428	-0.037	0.094
-280.486	-170.651	-0.322	0.011
-279.472	-36.272	-0.149	-0.079
-278.457	-200.000	-0.024	-0.159
-277.443	-30.028	0.079	0.044
-276.428	-178.701	-0.145	-0.003
-275.413	167.252	0.190	-0.265
-274.399	-35.368	-0.204	-0.109
-273.384	-99.734	-0.179	-0.044
-272.370	618.423	-0.036	-0.090
-271.355	268.462	0.111	0.191
-270.340	-85.414	0.027	0.008
-269.326	-172.411	0.542	-0.017
-268.311	800.000	0.007	-0.021
-267.297	-133.036	-0.281	0.035
-266.282	75.355	0.114	-0.119
-265.267	-71.274	-0.201	-0.074
-264.253	-97.655	-0.275	0.070
-263.238	800.000	0.051	-0.174
-262.224	594.392	-0.070	0.171
-261.209	427.166	0.096	0.204
-260.195	-87.239	0.059	-0.018
-259.180	-35.507	-0.387	0.207
-258.165	8.110	0.259	0.191
-257.151	-98.231	-0.180	-0.046
-256.136	72.311	0.110	0.112
-255.122	-36.663	-0.288	0.153
-254.107	-200.000	-0.020	-0.108
-253.092	800.000	-0.099	-0.278
-252.078	509.354	0.201	0.459
-251.063	-200.000	-0.019	0.262
-250.049	235.227	0.035	-0.057
-249.034	233.073	0.094	-0.151
-248.019	-151.005	0.320	-0.024
-247.005	-200.000	-0.044	0.203
-245.990	88.437	-0.180	-0.197
-244.976	-200.000	0.039	-0.390
-243.961	-200.000	-0.062	-0.305
-242.946	-122.884	-0.303	0.048
-241.932	-200.000	-0.053	0.321
-240.917	-100.696	-0.289	0.070
-239.903	27.308	0.105	-0.087
-238.888	409.277	0.056	0.116
-237.873	-188.563	-0.497	0.006
-236.859	61.129	0.095	0.093
-235.844	357.163	0.044	0.086
-234.830	-200.000	-0.012	0.096
-233.815	157.060	0.141	-0.191
-232.800	-200.000	0.016	0.197
-231.786	800.000	-0.215	0.589
-230.771	-54.911	0.329	0.146
-229.757	-61.350	0.341	-0.141
-228.742	-54.066	0.326	-0.146
-227.727	-200.000	-0.027	-0.118
-226.713	392.844	-0.067	-0.137
-225.698	-200.000	0.029	0.314
-224.684	800.000	-0.111	-0.359
-223.669	-187.165	0.220	0.003
-222.655	49.307	-0.115	-0.106
-221.640	-160.300	0.260	-0.014
-220.625	-20.634	0.263	-0.159
-219.611	-21.894	0.362	0.216
-218.596	89.436	-0.221	-0.242
-217.582	120.596	0.106	-0.129
-216.567	800.000	-0.052	-0.214
-215.552	7.056	0.276	-0.202
-214.538	300.301	-0.144	-0.261
-213.523	536.396	0.134	-0.312
-212.509	-91.657	-0.367	0.103
-211.494	198.976	0.084	-0.126
-210.479	115.982	0.142	-0.170
-209.465	-200.000	0.009	0.147
-208.450	40.344	0.273	-0.241
-207.436	-13.401	0.176	0.112
-206.421	-33.110	-0.229	0.125
-205.406	350.161	0.062	0.120
-204.392	170.931	0.018	-0.025
-203.377	-181.214	-0.373	-0.007
-202.363	363.117	0.159	-0.313
-201.348	-113.832	0.079	-0.015
-200.333	-110.223	0.574	0.117
-199.319	-85.706	0.260	0.079
-198.304	-47.165	0.231	0.111
-197.290	174.624	-0.211	-0.299
-196.275	292.875	-0.124	-0.222
-195.260	-86.610	-0.188	-0.057
-194.246	-81.624	0.167	-0.054
-193.231	-90.341	-0.255	0.073
-192.217	283.986	-0.170	-0.299
-191.202	318.076	0.093	-0.174
-190.187	594.283	-0.052	-0.126
-189.173	-137.173	0.272	-0.030
-188.158	611.738	0.126	-0.310
-187.144	-117.406	0.188	-0.033
-186.129	-55.629	-0.315	-0.139
-185.114	-3.968	-0.307	-0.209
-184.100	11.071	0.214	0.160
-183.085	-69.568	0.099	0.037
-182.071	-200.000	-0.025	-0.242
-181.056	-5.200	0.113	0.076
-180.042	-177.741	-0.108	-0.003
-179.027	-72.078	-0.292	0.106
-178.012	-32.298	-0.077	0.042
-176.998	-140.173	-0.245	-0.025
-175.983	-144.285	0.101	-0.009
-174.969	309.184	0.104	-0.191
-173.954	-48.254	-0.146	0.069
-172.939	-200.000	0.025	0.187
-171.925	800.000	-0.095	0.297
-170.910	-200.000	0.038	0.217
-169.896	2.160	0.149	-0.105
-168.881	724.370	0.090	0.234
-167.866	-79.274	0.286	0.095
-166.852	-33.600	0.057	-0.031
-165.837	-43.257	0.201	-0.100
-164.823	-200.000	-0.036	-0.254
-163.808	134.142	-0.030	-0.038
-162.793	34.790	0.100	-0.086
-161.779	-76.371	-0.177	-0.061
-160.764	71.266	0.242	0.246
-159.750	297.217	-0.044	0.079
-158.735	-20.191	0.158	-0.096
-157.720	252.531	-0.127	-0.212
-156.706	-200.000	0.036	0.326
-155.691	800.000	0.045	-0.135
-154.677	-200.000	0.000	-0.134
-153.662	31.029	0.414	0.348
-152.647	168.657	-0.102	-0.142
-151.633	400.637	0.163	-0.336
-150.618	-60.105	0.256	0.107
-149.604	-40.311	0.227	0.116
-148.589	800.000	0.015	0.058
-147.574	207.066	0.089	-0.135
-146.560	380.305	0.073	-0.147
-145.545	-180.263	-0.250	0.005
-144.531	448.405	-0.148	-0.319
-143.516	-109.142	0.206	-0.043
-142.502	-114.301	-0.050	0.009
-141.487	184.278	-0.119	0.172
-140.472	789.444	-0.055	-0.148
-139.458	-124.297	0.189	0.029
-138.443	651.734	-0.050	0.125
-137.429	-149.673	-0.036	0.003
-136.414	-34.863	0.183	-0.098
-135.399	-153.313	0.092	-0.006
-134.385	526.872	-0.082	-0.190
-133.370	-92.768	-0.083	0.023
-132.356	320.805	0.061	0.114
-131.341	48.270	-0.197	0.181
-130.326	-12.133	-0.314	-0.201
-129.312	-67.337	-0.523	0.201
-128.297	-48.018	0.152	0.072
-127.283	-85.396	-0.202	0.062
-126.268	-200.000	-0.010	0.270
-125.253	309.120	0.109	-0.199
-124.239	-114.103	0.341	0.065
-123.224	-200.000	-0.051	0.248
-122.210	495.054	-0.097	-0.219
-121.195	165.963	-0.201	-0.278
-120.180	-200.000	0.042	0.257
-119.166	285.042	-0.092	0.162
-118.151	-51.164	0.513	-0.235
-117.137	-200.000	-0.004	0.263
-116.122	293.157	0.179	0.320
-115.107	138.339	0.170	0.219
-114.093	-132.880	0.238	-0.030
-113.078	426.124	-0.092	-0.193
-112.064	186.591	-0.222	0.324
-111.049	113.052	0.096	0.114
-110.034	-200.000	-0.008	0.127
-109.020	-138.542	-0.283	-0.030
-108.005	59.404	-0.073	0.070
-106.991	-200.000	-0.009	0.127
-105.976	396.191	0.061	-0.125
-104.962	-47.464	0.089	0.043
-103.947	-142.459	0.085	0.008
-102.932	-200.000	0.057	-0.252
-101.918	800.000	0.056	0.210
-100.903	249.253	0.110	0.182
-99.889	-200.000	-0.051	-0.308
-98.874	-13.942	-0.153	-0.097
-97.859	-200.000	0.049	0.247
-96.845	-9.070	0.173	-0.113
-95.830	183.497	0.171	-0.247
-94.816	-64.308	0.052	0.021
-93.801	107.153	0.015	-0.018
-92.786	-65.370	-0.196	-0.077
-91.772	-35.161	-0.008	-0.004
-90.757	-38.373	0.176	0.091
-89.743	-150.636	0.318	-0.024
-88.728	-200.000	0.035	0.251
-87.713	-163.700	-0.387	-0.018
-86.699	-143.693	-0.176	-0.016
-85.684	-200.000	-0.003	-0.122
-84.670	-200.000	-0.024	0.286
-83.655	-104.980	0.344	0.077
-82.640	607.607	-0.104	-0.253
-81.626	276.038	0.087	0.150
-80.611	-145.150	0.267	0.024
-79.597	800.000	-0.028	0.102
-78.582	-79.850	0.062	-0.021
-77.567	-9.728	0.077	-0.050
-76.553	-200.000	0.005	-0.088
-75.538	-28.181	0.264	0.149
-74.524	230.943	0.034	-0.055
-73.509	-200.000	0.024	-0.109
-72.494	319.440	0.183	-0.339
-71.480	113.971	-0.186	0.221
-70.465	-200.000	-0.071	0.348
-69.451	322.905	0.171	0.319
-68.436	-132.084	0.248	0.032
-67.422	-141.443	0.225	-0.022
-66.407	88.533	-0.138	-0.149
-65.392	-79.110	-0.178	0.059
-64.378	-200.000	0.049	0.396
-63.363	-43.848	0.089	-0.044
-62.349	-200.000	0.005	-0.140
-61.334	314.653	-0.642	-1.181
-60.319	3.284	0.606	0.431
-59.305	-200.000	-0.080	-1.545
-58.290	614.305	0.529	1.293
-57.276	800.000	0.554	1.621
-56.261	-200.000	116.471	646.097
-55.246	506.737	1540.587	3487.943
-54.232	175.972	2711.541	3842.148
-53.217	104.961	2175.982	2505.418
-52.203	37.208	1692.322	1463.075
-51.188	29.629	1507.360	1251.997
-50.173	27.523	1482.484	1217.229
-49.159	50.509	1542.595	1424.032
-48.144	48.817	1557.492	1426.189
-47.130	29.716	1512.892	1256.981
-46.115	26.860	1497.104	1224.563
-45.100	26.571	1494.151	1220.151
-44.086	26.597	1492.340	1218.802
-43.071	26.483	1490.569	1216.542
-42.057	26.375	1489.261	1214.701
-41.042	26.446	1488.084	1214.169
-40.027	26.479	1485.849	1212.515
-39.013	26.442	1484.572	1211.178
-37.998	26.429	1483.621	1210.271
-36.984	26.449	1482.747	1209.639
-35.969	26.508	1480.805	1208.405
-34.954	26.427	1480.093	1207.235
-33.940	26.433	1478.313	1205.773
-32.925	26.548	1476.444	1204.966
-31.911	26.560	1475.338	1204.098
-30.896	26.524	1474.397	1203.039
-29.881	26.557	1472.864	1201.959
-28.867	26.589	1471.471	1200.988
-27.852	26.475	1470.806	1199.640
-26.838	26.557	1469.277	1198.893
-25.823	26.612	1467.197	1197.507
-24.809	26.524	1466.231	1196.089
-23.794	26.537	1464.490	1194.711
-22.779	26.467	1463.402	1193.315
-21.765	26.505	1462.876	1193.086
-20.750	26.544	1461.294	1192.009
-19.736	26.606	1459.774	1191.129
-18.721	26.533	1458.977	1189.947
-17.706	26.548	1457.465	1188.768
-16.692	26.458	1456.971	1187.729
-15.677	26.506	1455.765	1187.011
-14.663	26.503	1454.621	1186.015
-13.648	26.424	1453.969	1184.918
-12.633	26.489	1453.220	1184.683
-11.619	26.494	1452.701	1184.246
-10.604	26.495	1450.948	1182.779
-9.590	26.446	1450.492	1182.037
-8.575	26.513	1449.237	1181.405
-7.560	26.550	1448.212	1180.769
-6.546	26.515	1447.981	1180.304
-5.531	26.470	1447.262	1179.375
-4.517	26.460	1446.039	1178.268
-3.502	26.536	1444.934	1177.813
-2.487	26.407	1444.278	1176.394
-1.473	26.412	1443.183	1175.489
-0.458	26.531	1441.577	1174.902
0.556	26.688	1432.042	1163.829
1.571	23.743	1407.254	1124.957
2.586	20.356	1346.631	1055.841
3.600	18.836	1265.068	983.114
4.615	17.580	1221.232	942.019
5.629	15.190	1165.042	885.972
6.644	8.657	1083.940	791.988
7.659	3.881	1047.461	742.387
8.673	3.275	1041.928	735.506
9.688	3.300	1039.466	733.820
10.702	3.092	1037.823	731.606
11.717	3.213	1035.943	730.793
12.731	4.927	1036.882	739.530
13.746	11.488	1045.967	777.265
14.761	17.797	1054.029	813.361
15.775	19.630	1055.297	823.007
16.790	19.195	1053.874	819.752
17.804	18.206	1052.149	813.641
18.819	17.303	1050.045	807.652
19.834	16.974	1048.443	804.787
20.848	16.848	1047.767	803.602
21.863	16.631	1047.208	802.072
22.877	16.420	1046.752	800.654
23.892	16.258	1045.767	799.063
24.907	16.113	1045.423	798.041
25.921	16.179	1044.222	797.364
26.936	16.183	1043.120	796.471
27.950	16.107	1042.594	795.642
28.965	16.039	1041.785	794.635
29.980	16.244	1040.412	794.479
30.994	16.427	1039.278	794.403
32.009	16.529	1038.326	794.088
33.023	16.504	1037.581	793.327
34.038	16.447	1036.884	792.458
35.053	16.462	1035.817	791.642
36.067	16.348	1034.915	790.349
37.082	16.336	1034.274	789.734
38.096	16.327	1033.297	788.876
39.111	16.349	1032.784	788.521
40.126	16.472	1032.262	788.623
41.140	16.380	1030.506	786.783
42.155	16.118	1029.445	784.684
43.169	15.990	1028.322	783.166
44.184	15.899	1027.311	781.902
45.199	15.929	1026.159	781.095
46.213	16.011	1025.193	780.674
47.228	16.077	1024.356	780.272
48.242	16.163	1023.487	779.939
49.257	16.274	1022.238	779.429
50.271	16.186	1021.567	778.442
51.286	16.423	1020.415	778.588
52.301	16.402	1019.649	777.839
53.315	16.195	1019.601	776.778
54.330	16.129	1018.856	775.840
55.344	16.090	1017.284	774.394
56.359	15.978	1016.758	773.411
57.374	16.109	1015.439	772.942
58.388	16.049	1014.887	772.178
59.403	16.110	1013.431	771.279
60.417	16.033	1012.702	770.306
61.432	15.948	1012.944	770.033
62.447	15.937	1011.840	769.074
63.461	15.861	1010.705	767.796
64.476	15.710	1010.262	766.706
65.490	15.802	1009.082	766.163
66.505	15.837	1008.338	765.688
67.520	15.989	1007.278	765.507
68.534	15.964	1006.778	764.942
69.549	16.100	1005.730	764.696
70.563	15.819	1005.302	763.032
71.578	15.869	1004.694	762.725
72.593	15.803	1003.836	761.708
73.607	15.719	1002.849	760.515
74.622	15.771	1001.744	759.844
75.636	15.647	1000.559	758.317
76.651	15.776	1000.252	758.598
77.666	15.761	999.209	757.674
78.680	15.738	998.627	757.064
79.695	15.917	998.160	757.445
80.709	15.845	997.667	756.682
81.724	15.773	997.102	755.864
82.739	15.921	996.163	755.750
83.753	16.083	995.489	755.895
84.768	16.099	995.408	755.839
85.782	16.367	994.384	756.195
86.797	16.446	993.976	756.173
87.812	16.432	992.633	755.021
88.826	16.310	992.076	753.986
89.841	16.297	990.974	753.022
90.855	16.370	990.048	752.579
91.870	16.445	989.405	752.358
92.884	16.420	989.118	751.962
93.899	16.428	988.357	751.352
94.914	16.413	987.738	750.748
95.928	16.402	986.989	750.061
96.943	16.534	986.142	749.937
97.957	16.496	984.720	748.623
98.972	16.255	984.300	747.170
99.987	16.547	983.082	747.468
101.001	16.507	982.537	746.812
102.016	16.329	982.353	745.820
103.030	16.437	980.959	745.172
104.045	16.393	980.190	744.329
105.060	16.386	979.667	743.835
106.074	16.386	978.094	742.573
107.089	16.250	977.153	741.196
108.103	15.988	976.436	739.439
109.118	15.965	975.487	738.552
110.133	15.952	974.590	737.753
111.147	15.962	973.555	736.947
112.162	15.943	972.796	736.223
113.176	16.084	972.222	736.341
114.191	16.137	971.592	736.029
115.206	16.197	970.791	735.618
116.220	16.096	969.777	734.346
117.235	16.058	969.035	733.555
118.249	16.102	968.093	732.966
119.264	16.103	967.147	732.192
120.279	16.021	966.481	731.264
121.293	15.973	965.466	730.224
122.308	16.053	964.510	729.783
123.322	15.916	963.807	728.593
124.337	15.921	962.532	727.587
125.352	15.910	961.496	726.695
126.366	15.818	960.603	725.557
127.381	15.891	959.804	725.204
128.395	15.841	958.487	723.929
129.410	15.821	958.088	723.477
130.424	15.708	957.230	722.283
131.439	15.926	956.353	722.490
132.454	15.957	955.306	721.766
133.468	15.987	954.685	721.365
134.483	15.929	954.223	720.703
135.497	16.138	953.448	720.947
136.512	15.981	952.874	719.780
137.527	16.014	952.197	719.345
138.541	16.030	951.567	718.871
139.556	16.048	950.660	718.200
140.570	15.975	950.073	717.381
141.585	16.187	949.053	717.452
142.600	16.302	948.778	717.669
143.614	16.388	947.952	717.344
144.629	16.479	946.950	716.908
145.643	16.501	946.562	716.647
146.658	16.414	945.689	715.554
147.673	16.247	945.095	714.331
148.687	16.333	943.456	713.394
149.702	16.342	942.313	712.505
150.716	16.006	941.824	710.658
151.731	16.077	940.964	710.242
152.746	16.137	940.006	709.709
153.760	16.263	939.177	709.549
154.775	16.105	938.913	708.624
155.789	16.280	938.044	708.639
156.804	16.326	937.276	708.191
157.819	16.340	936.468	707.578
158.833	16.253	936.445	707.132
159.848	16.423	935.579	707.125
160.862	16.548	934.948	707.109
161.877	16.562	933.929	706.335
162.892	16.381	932.626	704.533
163.906	16.043	932.129	702.687
164.921	16.148	931.359	702.479
165.935	16.018	930.324	701.095
166.950	16.302	929.170	701.345
167.964	16.423	928.026	700.920
168.979	16.283	927.286	699.720
169.994	16.231	926.789	699.067
171.008	16.325	925.651	698.536
172.023	16.408	925.157	698.444
173.037	16.492	924.646	698.346
174.052	16.461	923.854	697.556
175.067	16.504	922.828	696.895
176.081	16.362	922.225	695.794
177.096	16.086	921.499	694.048
178.110	16.298	920.499	694.105
179.125	16.212	919.584	693.004
180.140	16.229	918.992	692.564
181.154	16.345	918.152	692.346
182.169	16.371	917.596	691.973
183.183	16.555	916.856	692.104
184.198	16.608	916.671	692.123
185.213	16.557	915.870	691.246
186.227	16.647	915.199	691.046
187.242	16.777	914.900	691.293
188.256	16.739	914.025	690.413
189.271	16.799	913.027	689.844
190.286	17.046	912.132	690.109
191.300	16.651	911.767	688.168
192.315	16.323	910.651	685.932
193.329	16.109	910.204	684.666
194.344	16.255	909.361	684.562
195.359	16.273	908.810	684.161
196.373	16.448	908.615	684.664
197.388	16.571	907.860	684.529
198.402	16.718	907.846	685.056
199.417	16.810	907.028	684.749
200.432	16.991	906.430	684.969
201.446	17.036	906.028	684.786
202.461	17.044	905.904	684.663
203.475	17.056	905.434	684.296
204.490	17.129	904.486	683.811
205.504	16.982	903.624	682.510
206.519	16.828	903.188	681.499
207.534	16.892	902.058	680.842
208.548	16.829	901.376	680.015
209.563	16.853	901.069	679.820
210.577	16.871	900.014	679.038
211.592	16.760	900.077	678.578
212.607	17.039	899.109	678.906
213.621	17.068	898.758	678.697
214.636	17.140	897.778	678.183
215.650	16.972	897.083	676.928
216.665	16.980	897.001	676.840
217.680	16.993	896.606	676.532
218.694	17.115	895.702	676.277
219.709	17.183	895.380	676.245
220.723	17.076	894.520	675.108
221.738	17.078	894.080	674.727
222.753	17.228	892.670	674.196
223.767	17.086	892.718	673.612
224.782	17.070	892.009	672.950
225.796	17.236	891.220	672.955
226.811	17.354	890.486	672.809
227.826	17.372	889.844	672.335
228.840	17.263	888.881	671.116
229.855	17.186	888.553	670.505
230.869	17.221	887.541	669.819
231.884	17.102	887.097	668.959
232.899	17.063	886.532	668.320
233.913	17.062	885.713	667.637
234.928	16.990	884.700	666.532
235.942	16.895	884.288	665.791
236.957	16.901	883.971	665.518
237.972	16.949	883.027	664.934
238.986	17.028	882.338	664.668
240.001	16.994	881.809	664.075
241.015	16.942	881.563	663.628
242.030	17.123	880.725	663.647
243.045	17.115	879.732	662.807
244.059	17.091	879.496	662.478
245.074	17.213	878.979	662.505
246.088	17.260	878.231	662.066
247.103	17.298	877.921	661.921
248.117	17.350	877.325	661.616
249.132	17.519	876.625	661.687
250.147	17.502	876.174	661.221
251.161	17.809	875.857	662.116
252.176	17.773	875.254	661.464
253.190	17.838	874.065	660.755
254.205	17.941	873.767	660.873
255.220	17.952	873.129	660.373
256.234	17.880	872.605	659.642
257.249	17.859	872.191	659.189
258.263	18.033	871.246	659.087
259.278	17.989	870.572	658.348
260.293	17.885	870.136	657.561
261.307	17.843	870.019	657.250
262.322	17.984	869.242	657.149
263.336	18.150	868.325	657.036
264.351	18.030	868.267	656.472
265.366	18.101	867.460	656.075
266.380	18.183	866.708	655.765
267.395	18.185	865.949	655.140
268.409	18.072	865.513	654.321
269.424	18.037	864.141	653.092
270.439	17.983	863.849	652.604
271.453	17.992	862.910	651.871
272.468	17.738	862.537	650.566
273.482	17.793	861.982	650.299
274.497	17.818	861.257	649.788
275.512	17.927	860.485	649.563
276.526	17.921	859.746	648.924
277.541	17.796	859.700	648.357
278.555	17.817	858.872	647.757
279.570	18.031	858.300	648.078
280.585	18.283	858.237	648.930
281.599	18.235	856.972	647.735
282.614	18.266	856.247	647.245
283.628	17.971	855.852	645.777
284.643	17.966	855.538	645.461
285.657	18.019	855.102	645.275
286.672	18.059	854.338	644.794
287.687	18.144	853.773	644.631
288.701	18.240	853.061	644.398
289.716	18.265	852.282	643.846
290.730	18.207	852.009	643.363
291.745	18.208	851.480	642.913
292.760	18.316	850.786	642.736
293.774	18.197	850.290	641.859
294.789	18.300	849.685	641.733
295.803	18.249	849.378	641.253
296.818	18.100	848.569	640.025
297.833	18.268	847.413	639.725
298.847	18.221	846.648	638.916
299.862	18.360	846.348	639.151
300.876	18.431	845.656	638.837
301.891	18.388	844.981	638.110
302.906	18.391	844.907	638.011
303.920	18.476	844.175	637.717
304.935	18.617	843.443	637.630
305.949	18.692	842.796	637.365
306.964	18.709	842.139	636.876
307.979	18.476	841.623	635.565
308.993	18.500	841.198	635.274
310.008	18.512	840.401	634.661
311.022	18.591	840.165	634.721
312.037	18.625	839.751	634.477
313.052	18.469	838.876	633.185
314.066	18.394	838.249	632.375
315.081	18.369	837.855	631.933
316.095	18.402	837.438	631.683
317.110	18.230	836.971	630.642
318.125	18.330	836.118	630.309
319.139	18.465	835.409	630.217
320.154	18.307	834.897	629.193
321.168	18.388	834.452	629.100
322.183	18.397	834.273	628.943
323.197	18.394	833.852	628.560
324.212	18.513	832.914	628.234
325.227	18.509	832.450	627.814
326.241	18.530	832.144	627.602
327.256	18.515	831.075	626.687
328.270	18.402	830.954	626.124
329.285	18.500	830.196	625.856
330.300	18.554	829.609	625.557
331.314	18.499	829.265	625.041
332.329	18.418	828.769	624.317
333.343	18.679	827.937	624.587
334.358	18.640	827.533	624.082
335.373	18.707	827.168	623.997
336.387	18.782	826.476	623.692
337.402	18.861	825.765	623.387
338.416	18.892	825.255	623.057
339.431	18.958	824.968	623.025
340.446	19.006	824.771	622.995
341.460	19.091	824.172	622.796
342.475	19.066	823.482	622.131
343.489	19.145	822.742	621.798
344.504	19.232	822.218	621.664
345.519	19.159	822.076	621.238
346.533	19.360	821.123	621.185
347.548	19.354	820.612	620.725
348.562	18.993	820.554	619.324
349.577	19.150	819.478	619.023
350.592	19.001	818.685	617.834
351.606	18.975	818.224	617.338
352.621	18.839	817.735	616.425
353.635	18.886	817.425	616.305
354.650	19.003	816.960	616.319
355.665	19.138	816.656	616.521
356.679	18.846	816.888	615.594
357.694	19.107	816.155	615.923
358.708	19.155	815.328	615.413
359.723	18.910	815.014	614.247
360.738	18.949	814.328	613.817
361.752	19.165	813.664	614.030
362.767	19.017	813.507	613.332
363.781	19.053	813.592	613.469
364.796	19.300	812.676	613.602
365.810	19.260	812.400	613.200
366.825	19.514	812.188	613.886
367.840	19.433	811.813	613.263
368.854	19.603	810.951	613.159
369.869	19.408	810.750	612.262
370.883	19.408	810.078	611.701
371.898	19.384	809.418	611.064
372.913	19.382	809.072	610.740
373.927	19.527	808.502	610.768
374.942	19.580	807.835	610.399
375.956	19.450	807.169	609.383
376.971	19.609	806.832	609.636
377.986	19.604	806.476	609.294
379.000	19.738	805.777	609.183
380.015	19.859	804.972	608.948
381.029	19.735	804.506	608.105
382.044	19.702	803.723	607.346
383.059	19.682	803.280	606.886
384.073	19.711	802.915	606.658
385.088	19.752	802.372	606.338
386.102	19.454	802.104	605.038
387.117	19.560	801.165	604.646
388.132	19.501	800.684	604.022
389.146	19.299	800.241	602.931
390.161	19.535	799.992	603.513
391.175	19.647	799.883	603.767
392.190	19.678	799.577	603.594
393.205	19.679	798.635	602.831
394.219	19.503	798.593	602.132
395.234	19.677	797.690	602.006
396.248	19.505	797.166	600.958
397.263	19.372	796.824	600.182
398.278	19.446	795.893	599.686
399.292	19.476	795.615	599.529
400.307	19.449	795.643	599.401
401.321	19.420	794.791	598.608
402.336	19.466	794.536	598.520
403.350	19.525	794.241	598.450
404.365	19.527	794.029	598.244
405.380	19.699	793.448	598.350
406.394	19.852	793.068	598.538
407.409	19.935	792.297	598.190
408.423	19.873	792.278	597.911
409.438	20.004	791.817	597.962
410.453	19.987	791.467	597.587
411.467	20.334	790.471	597.976
412.482	20.037	790.484	596.909
413.496	20.130	790.071	596.864
414.511	20.139	789.965	596.764
415.526	20.130	789.326	596.195
416.540	20.050	789.215	595.786
417.555	20.198	788.391	595.620
418.569	20.085	788.041	594.914
419.584	20.246	787.547	595.039
420.599	20.249	787.007	594.590
421.613	162.217	1370.433	1797.109
422.628	140.434	1455.420	1797.195
