DTS Sentinel unit serial number:	SN413079Multiplexer serial number:	ORYXHardware model number:	OX4-SRSoftware version number:	ORYX F/W v4.00 Oryx Data Collector v3.7.2.0data status	okinstallation	princeton_trtdifferential loss correction	single-endedforward channel	channel 3reverse channel	N/Adate	2019/09/15time	14:28:35forward acquisition time	60.00reverse acquisition time	0.00gamma	496.2192k internal	0.2291k external	0.2291temperature offset calibration	0.9950default loss term (dB/km)	0.3790temperature slope calibration	1.0000multiplexer offset coefficient	1.0000multiplexer slope coefficient	1.0000fibre end	0.00T internal ref (°C)	39.31T ext. ref 1 (°C)	4.93T ext. ref 2 (°C)	36.34length (m)	temperature (°C)	Stokes	anti-Stokes-747.200	-159.282	0.163	0.009
-746.185	800.000	-0.039	0.170
-745.171	-48.985	-0.045	-0.022
-744.156	-200.000	0.027	0.462
-743.142	800.000	0.066	0.234
-742.127	-103.984	0.395	-0.094
-741.112	92.505	-0.242	0.279
-740.098	353.424	0.157	0.319
-739.083	-46.024	0.225	0.114
-738.069	26.594	-0.189	0.162
-737.054	113.593	0.172	-0.214
-736.039	153.807	0.080	-0.113
-735.025	800.000	0.092	-0.310
-734.010	120.047	-0.280	-0.356
-732.996	101.245	0.212	0.252
-731.981	-77.748	-0.110	0.039
-730.966	-129.044	-0.114	-0.016
-729.952	285.655	0.132	-0.244
-728.937	-200.000	0.021	0.147
-727.923	72.282	-0.082	0.087
-726.908	-92.017	0.268	-0.078
-725.894	309.409	-0.176	-0.336
-724.879	-200.000	-0.013	-0.152
-723.864	325.731	-0.055	0.108
-722.850	20.109	-0.145	0.120
-721.835	-26.401	0.154	0.093
-720.821	176.947	-0.195	0.290
-719.806	-12.662	-0.237	0.158
-718.791	264.391	-0.145	-0.257
-717.777	-200.000	-0.018	-0.288
-716.762	126.515	-0.298	-0.386
-715.748	85.789	0.335	-0.376
-714.733	54.643	-0.191	-0.189
-713.718	0.537	-0.272	-0.199
-712.704	266.156	-0.186	0.332
-711.689	-61.293	-0.120	0.052
-710.675	800.000	0.010	0.032
-709.660	-200.000	0.033	0.304
-708.645	-200.000	0.025	0.151
-707.631	-2.924	-0.213	-0.152
-706.616	-5.685	-0.143	0.100
-705.602	-200.000	-0.009	-0.141
-704.587	244.611	-0.096	-0.165
-703.572	-128.012	-0.139	-0.020
-702.558	109.733	-0.161	-0.198
-701.543	-200.000	0.054	0.348
-700.529	800.000	0.088	-0.337
-699.514	800.000	-0.090	-0.266
-698.499	800.000	-0.035	-0.127
-697.485	-50.875	-0.025	-0.012
-696.470	-200.000	0.031	-0.246
-695.456	-108.022	-0.108	0.024
-694.441	800.000	-0.098	-0.288
-693.426	800.000	0.077	-0.339
-692.412	101.750	0.188	-0.224
-691.397	-200.000	0.023	0.242
-690.383	-42.027	-0.284	-0.149
-689.368	-122.729	0.149	0.025
-688.354	-200.000	-0.022	-0.209
-687.339	-62.492	0.176	0.075
-686.324	-200.000	0.041	0.200
-685.310	-200.000	0.015	0.113
-684.295	-26.343	-0.398	0.239
-683.281	-200.000	0.047	-0.286
-682.266	271.101	-0.074	-0.133
-681.251	-200.000	0.003	-0.277
-680.237	800.000	-0.046	-0.152
-679.222	800.000	0.060	-0.210
-678.208	-200.000	0.245	0.001
-677.193	-67.662	0.390	-0.156
-676.178	181.282	-0.124	-0.185
-675.164	662.994	-0.121	0.319
-674.149	-200.000	-0.048	-0.222
-673.135	-146.951	-0.303	-0.027
-672.120	-25.107	-0.088	0.053
-671.105	-69.160	-0.200	-0.078
-670.091	-7.466	0.257	-0.177
-669.076	211.792	-0.159	-0.256
-668.062	40.841	-0.238	-0.219
-667.047	60.891	-0.162	-0.164
-666.032	800.000	0.180	-0.614
-665.018	15.486	-0.334	-0.268
-664.003	-48.964	-0.227	-0.111
-662.989	-23.610	0.116	0.071
-661.974	-28.415	-0.074	0.043
-660.959	7.630	0.234	0.179
-659.945	-53.440	0.236	-0.110
-658.930	-65.877	0.161	0.066
-657.916	-200.000	0.396	0.000
-656.901	-116.972	-0.255	-0.047
-655.886	45.498	-0.164	-0.154
-654.872	-101.570	-0.306	0.076
-653.857	315.281	0.105	-0.202
-652.843	-24.764	-0.347	-0.210
-651.828	800.000	0.098	-0.395
-650.814	-91.765	0.288	0.083
-649.799	-122.480	-0.174	0.029
-648.784	125.994	-0.143	-0.184
-647.770	-147.021	0.311	0.027
-646.755	800.000	0.111	-0.406
-645.741	155.296	0.068	-0.096
-644.726	-100.550	0.373	0.094
-643.711	800.000	-0.048	-0.148
-642.697	723.835	0.010	-0.027
-641.682	-83.634	-0.527	0.172
-640.668	-125.059	0.171	-0.027
-639.653	152.803	0.076	0.106
-638.638	-8.475	0.117	0.080
-637.624	-200.000	0.034	-0.300
-636.609	-126.824	0.352	-0.053
-635.595	158.345	0.208	-0.294
-634.580	8.439	-0.081	-0.062
-633.565	-66.826	0.167	0.067
-632.551	-200.000	-0.012	0.141
-631.536	-200.000	0.009	-0.045
-630.522	160.770	-0.138	-0.197
-629.507	29.531	0.152	-0.131
-628.492	-106.439	-0.133	-0.030
-627.478	-200.000	0.037	0.183
-626.463	163.488	-0.029	-0.041
-625.449	-200.000	-0.046	0.463
-624.434	-72.609	0.210	0.079
-623.419	-146.429	-0.043	0.004
-622.405	31.681	-0.059	-0.052
-621.390	336.584	-0.034	0.068
-620.376	30.217	0.131	-0.114
-619.361	-90.105	-0.257	0.076
-618.346	52.343	-0.155	-0.151
-617.332	-157.876	-0.123	0.007
-616.317	377.331	-0.191	0.398
-615.303	269.833	0.171	0.306
-614.288	800.000	-0.117	-0.447
-613.273	27.580	-0.200	-0.172
-612.259	-200.000	0.026	0.281
-611.244	281.254	-0.086	-0.156
-610.230	-200.000	0.028	-0.146
-609.215	-73.032	0.251	-0.094
-608.201	22.766	-0.144	0.120
-607.186	790.641	0.115	-0.322
-606.171	-18.325	0.314	0.200
-605.157	-8.519	0.323	-0.221
-604.142	-200.000	-0.011	0.250
-603.128	7.273	0.180	0.137
-602.113	-95.187	0.196	0.054
-601.098	-2.812	0.295	-0.210
-600.084	-200.000	-0.043	-0.332
-599.069	-85.453	-0.244	-0.077
-598.055	-200.000	-0.004	0.294
-597.040	-200.000	0.030	0.314
-596.025	100.310	0.088	-0.103
-595.011	-106.704	-0.225	0.051
-593.996	-53.862	-0.164	0.076
-592.982	281.882	-0.143	-0.261
-591.967	-200.000	0.028	-0.141
-590.952	800.000	0.068	-0.260
-589.938	208.849	0.085	0.135
-588.923	132.672	-0.086	0.113
-587.909	-92.895	0.295	0.084
-586.894	319.959	0.058	0.113
-585.879	-100.212	-0.023	-0.006
-584.865	-80.262	0.247	0.084
-583.850	-129.887	0.345	0.048
-582.836	168.937	-0.071	-0.103
-581.821	29.026	-0.229	0.198
-580.806	-16.980	-0.273	-0.175
-579.792	108.990	-0.122	-0.149
-578.777	-200.000	0.010	-0.255
-577.763	3.775	0.176	0.131
-576.748	-39.810	-0.121	-0.064
-575.733	-200.000	-0.048	-0.599
-574.719	-200.000	-0.034	0.180
-573.704	-17.384	0.109	0.070
-572.690	-71.673	0.274	0.104
-571.675	-200.000	0.071	0.321
-570.661	-200.000	-0.001	-0.008
-569.646	-91.318	-0.140	-0.041
-568.631	499.967	-0.117	-0.275
-567.617	-62.177	0.370	-0.157
-566.602	-85.261	-0.169	-0.054
-565.588	343.554	-0.135	0.269
-564.573	-99.695	0.137	-0.035
-563.558	-27.738	-0.074	-0.044
-562.544	104.348	0.125	-0.150
-561.529	117.469	0.143	0.178
-560.515	800.000	-0.060	-0.186
-559.500	-1.881	-0.179	-0.128
-558.485	-200.000	-0.003	0.276
-557.471	358.584	0.145	0.294
-556.456	147.652	0.115	0.157
-555.442	520.575	0.115	0.274
-554.427	-179.553	-0.274	-0.006
-553.412	-62.480	0.272	0.115
-552.398	800.000	-0.064	0.263
-551.383	-80.092	0.168	0.057
-550.369	-83.094	-0.167	0.054
-549.354	-31.434	0.201	0.115
-548.339	-200.000	-0.032	0.155
-547.325	-200.000	0.004	0.096
-546.310	-132.293	-0.210	-0.028
-545.296	-107.380	0.190	-0.042
-544.281	-104.072	0.174	0.041
-543.266	-119.459	-0.335	0.059
-542.252	-200.000	0.020	-0.155
-541.237	613.501	-0.159	0.404
-540.223	331.400	-0.100	0.196
-539.208	-52.871	-0.333	-0.156
-538.193	33.250	0.027	-0.024
-537.179	92.950	-0.191	0.219
-536.164	220.717	0.053	-0.086
-535.150	666.724	0.081	-0.212
-534.135	384.258	0.139	0.291
-533.121	125.157	0.208	-0.267
-532.106	-91.778	-0.271	0.078
-531.091	4.301	0.126	-0.094
-530.077	90.944	-0.249	-0.283
-529.062	-62.028	-0.415	-0.176
-528.048	-65.704	-0.318	-0.129
-527.033	-200.000	-0.053	0.349
-526.018	-89.508	0.059	-0.018
-525.004	-200.000	-0.017	-0.178
-523.989	-200.000	0.008	0.118
-522.975	-74.438	0.035	0.013
-521.960	-83.938	0.157	-0.051
-520.945	800.000	-0.104	0.308
-519.931	-43.651	-0.140	-0.072
-518.916	-28.188	-0.103	0.061
-517.902	67.719	-0.181	0.187
-516.887	-200.000	0.008	-0.119
-515.872	-111.146	0.136	0.028
-514.858	-12.896	-0.221	0.146
-513.843	-200.000	-0.003	0.287
-512.829	800.000	0.147	0.412
-511.814	-4.402	-0.070	0.049
-510.799	-200.000	0.004	0.252
-509.785	-200.000	-0.001	-0.183
-508.770	327.004	0.104	-0.203
-507.756	525.501	-0.106	-0.252
-506.741	-0.477	0.102	-0.073
-505.726	19.997	0.075	-0.061
-504.712	-39.980	-0.182	-0.096
-503.697	36.875	-0.101	-0.090
-502.683	12.160	-0.217	0.169
-501.668	663.185	-0.081	-0.212
-500.653	4.843	-0.137	-0.102
-499.639	-134.537	0.128	-0.016
-498.624	615.530	-0.155	-0.395
-497.610	397.385	-0.051	0.108
-496.595	-178.312	-0.274	-0.006
-495.581	-7.141	-0.106	-0.073
-494.566	24.556	0.203	-0.170
-493.551	399.887	-0.088	-0.187
-492.537	800.000	-0.070	-0.269
-491.522	-13.681	0.330	0.216
-490.508	-200.000	-0.034	0.176
-489.493	-62.675	0.168	-0.071
-488.478	-1.360	0.171	-0.122
-487.464	-96.335	0.133	0.036
-486.449	-143.957	-0.294	-0.028
-485.435	-45.284	0.142	-0.071
-484.420	33.765	-0.057	-0.050
-483.405	-125.164	0.122	0.019
-482.391	-133.094	-0.150	-0.019
-481.376	-88.336	0.130	0.039
-480.362	-87.504	0.165	0.051
-479.347	-143.471	0.087	0.008
-478.332	56.317	-0.090	-0.088
-477.318	800.000	-0.049	-0.199
-476.303	249.582	-0.102	-0.175
-475.289	-87.933	0.226	-0.069
-474.274	800.000	0.043	-0.155
-473.259	-178.903	-0.200	0.005
-472.245	92.393	0.297	0.339
-471.230	-81.909	0.228	-0.075
-470.216	-200.000	0.002	-0.238
-469.201	-200.000	0.025	0.278
-468.186	3.492	-0.186	0.137
-467.172	-33.573	-0.193	-0.108
-466.157	8.949	0.137	-0.104
-465.143	305.547	-0.111	0.209
-464.128	647.216	0.033	0.085
-463.113	-61.500	-0.271	-0.115
-462.099	-200.000	0.024	0.484
-461.084	189.195	-0.049	0.074
-460.070	-169.906	-0.154	-0.006
-459.055	-11.275	-0.190	0.127
-458.040	190.684	0.125	-0.190
-457.026	681.294	0.066	-0.175
-456.011	-13.614	0.390	-0.256
-454.997	-155.846	-0.267	-0.017
-453.982	-200.000	-0.044	0.234
-452.968	24.163	-0.066	-0.055
-451.953	800.000	-0.025	-0.086
-450.938	509.407	-0.064	-0.150
-449.924	28.029	-0.301	0.257
-448.909	-200.000	0.011	0.051
-447.895	-101.144	0.449	0.111
-446.880	155.033	-0.014	0.019
-445.865	-121.807	0.295	-0.049
-444.851	800.000	0.110	0.370
-443.836	-32.248	-0.146	-0.083
-442.822	800.000	-0.037	0.133
-441.807	24.765	-0.158	-0.133
-440.792	-12.774	0.252	-0.166
-439.778	2.675	-0.268	-0.196
-438.763	-18.848	0.233	0.147
-437.749	-200.000	-0.032	-0.222
-436.734	-47.822	0.075	0.037
-435.719	800.000	0.018	0.060
-434.705	-75.877	-0.296	-0.106
-433.690	7.299	0.356	-0.269
-432.676	-142.018	-0.109	-0.011
-431.661	-200.000	0.001	-0.192
-430.646	-50.145	0.035	0.017
-429.632	-124.456	-0.114	0.018
-428.617	800.000	-0.098	0.384
-427.603	-90.607	-0.291	-0.085
-426.588	-64.826	0.190	-0.078
-425.573	-129.841	0.100	-0.014
-424.559	-140.641	0.258	-0.027
-423.544	-200.000	0.015	0.092
-422.530	136.641	0.147	0.194
-421.515	-102.267	-0.104	-0.025
-420.500	13.229	0.136	-0.106
-419.486	-96.261	0.213	0.057
-418.471	-200.000	-0.039	0.282
-417.457	-52.688	-0.315	0.147
-416.442	31.126	0.173	0.150
-415.428	334.184	-0.032	-0.063
-414.413	39.388	0.296	0.268
-413.398	-12.707	0.411	0.271
-412.384	-62.278	-0.190	0.080
-411.369	-60.498	-0.138	-0.059
-410.355	6.398	0.204	-0.153
-409.340	185.491	-0.028	0.041
-408.325	-4.559	-0.155	0.108
-407.311	101.698	0.185	0.218
-406.296	-200.000	0.008	0.242
-405.282	772.118	0.021	0.057
-404.267	-64.599	-0.367	0.150
-403.252	54.157	0.207	-0.201
-402.238	800.000	0.016	-0.069
-401.223	-42.655	-0.181	0.093
-400.209	60.073	0.090	-0.090
-399.194	99.462	0.096	-0.112
-398.179	226.551	0.126	0.207
-397.165	800.000	0.070	0.296
-396.150	-193.054	0.263	0.002
-395.136	-113.224	-0.378	-0.075
-394.121	-200.000	0.017	0.121
-393.106	-3.382	-0.151	-0.106
-392.092	-91.998	0.230	-0.066
-391.077	31.809	-0.133	-0.116
-390.063	-200.000	0.014	-0.296
-389.048	-200.000	-0.001	-0.278
-388.033	0.038	0.253	0.182
-387.019	-45.007	0.220	-0.111
-386.004	28.107	-0.179	0.153
-384.990	-96.608	-0.267	-0.071
-383.975	-34.952	-0.448	0.247
-382.960	-35.972	-0.276	-0.150
-381.946	-200.000	-0.031	0.167
-380.931	196.647	0.166	-0.255
-379.917	131.847	0.115	-0.149
-378.902	45.085	0.270	0.252
-377.888	-126.872	0.155	0.023
-376.873	3.418	0.192	-0.141
-375.858	58.851	0.295	-0.292
-374.844	-0.791	0.066	0.048
-373.829	680.372	0.124	0.327
-372.815	800.000	0.071	0.218
-371.800	197.599	-0.195	-0.301
-370.785	-89.425	-0.064	0.019
-369.771	155.282	0.227	0.315
-368.756	-141.977	0.144	0.014
-367.742	-200.000	-0.009	-0.190
-366.727	-174.638	-0.276	0.008
-365.712	-200.000	0.028	0.134
-364.698	-20.753	-0.182	-0.113
-363.683	-200.000	-0.013	0.123
-362.669	131.068	0.191	0.248
-361.654	-76.122	-0.317	0.113
-360.639	-67.570	0.204	0.081
-359.625	-69.527	0.393	-0.152
-358.610	800.000	0.060	0.185
-357.596	32.021	-0.189	-0.165
-356.581	26.184	0.042	-0.036
-355.566	-200.000	-0.048	-0.245
-354.552	-67.785	-0.385	-0.152
-353.537	24.417	-0.178	-0.148
-352.523	-200.000	0.012	0.328
-351.508	148.464	0.057	0.078
-350.493	658.143	-0.133	-0.345
-349.479	-200.000	0.010	0.058
-348.464	-120.252	-0.227	-0.039
-347.450	393.244	0.003	-0.006
-346.435	67.018	0.189	0.194
-345.420	-81.360	-0.180	0.060
-344.406	166.753	-0.079	-0.112
-343.391	38.534	-0.045	0.041
-342.377	517.310	-0.082	-0.194
-341.362	-200.000	-0.030	-0.230
-340.348	287.256	0.169	-0.308
-339.333	-96.767	-0.129	-0.034
-338.318	-6.065	0.206	0.142
-337.304	718.331	0.104	-0.278
-336.289	20.648	-0.252	-0.206
-335.275	268.957	-0.134	-0.237
-334.260	800.000	-0.142	-0.403
-333.245	-21.718	-0.136	-0.083
-332.231	-118.138	-0.124	0.022
-331.216	41.320	0.217	0.198
-330.202	185.910	0.067	-0.100
-329.187	-200.000	-0.011	-0.079
-328.172	-23.829	-0.184	-0.111
-327.158	-2.358	-0.052	-0.036
-326.143	102.476	0.068	0.080
-325.129	-116.681	0.099	-0.018
-324.114	-118.406	-0.207	0.037
-323.099	-145.451	0.287	-0.026
-322.085	374.732	0.027	0.056
-321.070	419.952	-0.127	0.274
-320.056	125.250	0.279	-0.354
-319.041	705.991	0.147	-0.391
-318.026	-138.000	0.097	0.011
-317.012	-123.128	0.234	0.038
-315.997	800.000	-0.069	-0.274
-314.983	-111.820	-0.192	-0.039
-313.968	-125.708	-0.184	0.028
-312.953	-200.000	-0.062	0.483
-311.939	31.508	-0.210	0.182
-310.924	-79.209	-0.269	0.092
-309.910	223.612	-0.224	0.363
-308.895	800.000	-0.086	0.338
-307.880	-40.660	-0.257	-0.134
-306.866	-200.000	0.027	0.131
-305.851	-138.274	-0.327	0.036
-304.837	-94.521	0.263	-0.072
-303.822	67.903	-0.291	0.299
-302.807	725.408	-0.120	0.321
-301.793	-200.000	0.007	-0.145
-300.778	-73.374	0.191	0.070
-299.764	-200.000	-0.002	-0.036
-298.749	800.000	-0.079	-0.332
-297.735	800.000	0.023	0.070
-296.720	-200.000	-0.010	-0.128
-295.705	-130.958	0.271	0.036
-294.691	-200.000	-0.013	-0.393
-293.676	-200.000	-0.045	0.252
-292.662	-90.176	0.107	-0.031
-291.647	-138.844	-0.215	-0.024
-290.632	-48.011	-0.114	-0.055
-289.618	-34.564	-0.155	0.085
-288.603	-154.367	-0.297	-0.020
-287.589	-118.580	0.173	-0.031
-286.574	-135.642	-0.238	0.028
-285.559	-126.830	0.108	0.016
-284.545	142.915	-0.043	0.058
-283.530	800.000	-0.013	0.045
-282.516	-104.206	0.084	0.020
-281.501	-115.648	0.142	-0.027
-280.486	18.552	0.238	-0.191
-279.472	191.466	-0.139	-0.211
-278.457	396.077	0.157	-0.329
-277.443	-29.868	-0.352	-0.201
-276.428	563.531	-0.065	-0.158
-275.413	800.000	-0.065	-0.277
-274.399	-124.661	-0.161	-0.025
-273.384	-77.148	-0.203	-0.071
-272.370	400.229	0.147	0.311
-271.355	134.682	-0.107	0.139
-270.340	800.000	-0.109	-0.364
-269.326	-61.282	0.423	0.179
-268.311	-68.974	-0.168	-0.065
-267.297	-111.325	0.147	0.030
-266.282	731.622	0.060	0.162
-265.267	-134.638	0.345	-0.042
-264.253	209.904	-0.146	-0.230
-263.238	-200.000	-0.020	0.319
-262.224	-136.929	0.118	0.014
-261.209	176.687	0.235	-0.343
-260.195	-49.035	0.283	-0.136
-259.180	-117.309	-0.251	0.046
-258.165	24.899	0.062	0.052
-257.151	-200.000	-0.000	0.194
-256.136	-92.594	0.092	-0.026
-255.122	-10.720	0.199	-0.132
-254.107	75.949	-0.272	-0.289
-253.092	24.623	-0.186	0.154
-252.078	185.590	-0.180	-0.268
-251.063	-136.353	0.317	-0.037
-250.049	38.162	-0.324	0.290
-249.034	-37.309	0.370	0.199
-248.019	-200.000	-0.017	0.298
-247.005	800.000	-0.033	-0.127
-245.990	794.858	0.066	-0.183
-244.976	669.927	0.061	0.159
-243.961	800.000	-0.035	-0.122
-242.946	248.641	0.053	0.090
-241.932	800.000	0.069	-0.215
-240.917	-146.747	0.172	-0.015
-239.903	76.202	-0.194	0.206
-238.888	122.863	0.027	0.034
-237.873	24.333	0.086	0.072
-236.859	-163.118	0.108	0.005
-235.844	178.213	0.175	0.256
-234.830	37.374	-0.227	0.202
-233.815	-36.825	-0.123	-0.066
-232.800	-40.589	0.096	-0.050
-231.786	-88.673	-0.111	0.033
-230.771	-10.510	-0.294	-0.195
-229.757	230.309	0.169	-0.277
-228.742	-133.941	0.335	0.042
-227.727	-200.000	0.004	-0.146
-226.713	-200.000	-0.047	0.249
-225.698	71.434	0.097	0.101
-224.684	-200.000	0.014	-0.084
-223.669	800.000	-0.084	-0.288
-222.655	122.082	-0.072	0.091
-221.640	232.683	-0.047	0.078
-220.625	-200.000	-0.046	0.241
-219.611	520.445	0.126	0.296
-218.596	142.735	0.066	0.088
-217.582	800.000	0.072	-0.278
-216.567	-125.324	-0.105	-0.016
-215.552	-73.196	-0.407	-0.150
-214.538	-83.470	0.313	0.101
-213.523	-102.170	-0.164	-0.040
-212.509	114.230	0.014	0.018
-211.494	-169.856	0.243	-0.009
-210.479	144.967	-0.149	0.199
-209.465	517.149	-0.145	0.340
-208.450	630.231	-0.086	0.218
-207.436	-24.830	-0.092	0.055
-206.421	-49.164	0.091	0.044
-205.406	-42.341	-0.171	0.088
-204.392	-56.043	-0.110	-0.049
-203.377	545.466	0.129	-0.308
-202.363	-0.235	-0.123	-0.088
-201.348	100.948	0.073	-0.086
-200.333	96.421	-0.094	-0.107
-199.319	344.714	-0.094	-0.185
-198.304	-73.508	0.264	0.097
-197.290	447.303	0.148	0.325
-196.275	560.770	-0.122	0.296
-195.260	-44.803	0.029	0.014
-194.246	271.254	-0.029	-0.051
-193.231	47.567	0.063	-0.059
-192.217	-200.000	-0.001	0.062
-191.202	9.394	0.183	-0.139
-190.187	-40.983	-0.143	-0.074
-189.173	150.700	-0.030	-0.041
-188.158	-82.739	0.126	-0.041
-187.144	-18.509	-0.195	0.122
-186.129	-23.840	-0.410	-0.246
-185.114	-136.417	0.131	0.015
-184.100	102.019	0.098	0.114
-183.085	457.985	0.083	0.185
-182.071	-124.464	0.268	0.042
-181.056	800.000	-0.077	0.255
-180.042	36.744	0.099	-0.088
-179.027	-200.000	-0.011	0.131
-178.012	-78.862	0.109	-0.037
-176.998	-5.506	-0.162	0.111
-175.983	95.006	0.038	0.043
-174.969	-200.000	-0.070	0.456
-173.954	284.012	-0.062	-0.112
-172.939	237.116	0.052	0.087
-171.925	465.066	-0.137	-0.307
-170.910	-128.633	0.198	0.028
-169.896	-200.000	-0.046	-0.281
-168.881	-30.031	-0.181	-0.103
-167.866	350.467	0.093	-0.184
-166.852	-200.000	0.095	-0.699
-165.837	326.062	-0.103	-0.198
-164.823	-200.000	0.001	0.004
-163.808	-56.122	0.081	-0.036
-162.793	-200.000	0.005	0.072
-161.779	-200.000	-0.024	-0.141
-160.764	800.000	0.031	-0.114
-159.750	150.349	-0.103	0.140
-158.735	-200.000	0.003	-0.062
-157.720	-200.000	0.007	0.255
-156.706	242.954	0.177	0.296
-155.691	15.377	0.261	-0.205
-154.677	368.774	0.088	0.177
-153.662	426.788	0.120	0.259
-152.647	285.763	0.117	0.212
-151.633	172.823	-0.095	0.136
-150.618	420.261	0.077	-0.165
-149.604	-6.403	0.151	0.103
-148.589	-78.461	0.202	0.069
-147.574	176.485	0.178	-0.258
-146.560	-73.227	-0.062	0.023
-145.545	0.046	-0.285	0.203
-144.531	-58.870	-0.267	0.115
-143.516	556.546	0.028	-0.067
-142.502	-200.000	0.009	0.313
-141.487	-73.474	-0.131	0.048
-140.472	-82.337	-0.109	-0.035
-139.458	-117.852	0.434	0.078
-138.443	-61.881	0.131	0.055
-137.429	774.980	-0.225	0.613
-136.414	191.527	-0.093	-0.140
-135.399	-50.963	0.241	0.113
-134.385	-92.540	-0.217	0.061
-133.370	-200.000	0.020	0.102
-132.356	-200.000	0.007	-0.085
-131.341	156.820	-0.085	0.118
-130.326	328.959	0.064	0.123
-129.312	-65.152	0.463	-0.187
-128.297	23.160	-0.177	-0.145
-127.283	-141.872	-0.212	-0.021
-126.268	-66.545	0.241	0.096
-125.253	0.892	0.237	-0.170
-124.239	-200.000	-0.006	-0.288
-123.224	682.683	0.066	0.173
-122.210	139.582	-0.134	-0.176
-121.195	-200.000	-0.009	0.148
-120.180	800.000	-0.042	0.178
-119.166	-22.825	0.085	0.051
-118.151	-200.000	0.025	-0.176
-117.137	196.030	-0.171	-0.259
-116.122	427.180	-0.044	0.095
-115.107	-15.769	-0.254	0.162
-114.093	301.117	0.139	-0.257
-113.078	-200.000	0.057	0.400
-112.064	800.000	0.051	-0.170
-111.049	-96.040	0.259	0.069
-110.034	-49.752	0.244	0.116
-109.020	-92.783	0.178	0.050
-108.005	51.187	0.093	-0.088
-106.991	63.882	0.215	0.216
-105.976	78.926	-0.207	0.221
-104.962	-200.000	-0.028	0.275
-103.947	154.759	0.087	-0.119
-102.932	800.000	0.060	0.206
-101.918	-200.000	-0.088	-0.430
-100.903	-105.201	0.284	-0.065
-99.889	-200.000	0.017	0.123
-98.874	800.000	-0.063	-0.269
-97.859	191.212	-0.099	-0.149
-96.845	38.756	-0.200	0.178
-95.830	800.000	-0.123	-0.354
-94.816	204.511	0.299	-0.463
-93.801	-48.616	0.179	-0.086
-92.786	-200.000	0.017	-0.453
-91.772	30.343	0.177	-0.151
-90.757	-147.555	-0.239	0.020
-89.743	-200.000	0.020	0.094
-88.728	62.089	0.157	-0.156
-87.713	38.905	0.064	-0.057
-86.699	-200.000	0.011	0.425
-85.684	-54.338	-0.337	0.153
-84.670	800.000	-0.045	0.174
-83.655	348.453	0.220	-0.433
-82.640	-158.223	-0.263	0.015
-81.626	132.478	-0.142	0.182
-80.611	800.000	0.062	-0.250
-79.597	-116.913	0.354	-0.065
-78.582	-55.830	0.236	0.105
-77.567	800.000	-0.056	-0.222
-76.553	-70.580	0.222	-0.084
-75.538	4.844	-0.224	-0.164
-74.524	91.174	-0.156	-0.175
-73.509	-140.585	-0.258	-0.027
-72.494	208.795	0.164	0.256
-71.480	-81.090	0.085	-0.028
-70.465	-117.750	-0.044	-0.008
-69.451	-103.843	-0.274	0.064
-68.436	-4.605	-0.167	0.115
-67.422	158.273	0.081	-0.111
-66.407	-115.642	-0.061	-0.011
-65.392	-81.435	0.166	-0.054
-64.378	-43.709	0.299	0.150
-63.363	6.833	-0.149	0.111
-62.349	-200.000	-0.060	0.567
-61.334	-31.896	-0.809	-0.452
-60.319	800.000	0.108	0.453
-59.305	800.000	0.164	-0.511
-58.290	268.319	0.461	0.806
-57.276	800.000	0.585	1.632
-56.261	-200.000	78.192	506.274
-55.246	552.147	1365.041	3267.109
-54.232	180.697	2596.005	3798.304
-53.217	120.404	2263.812	2801.309
-52.203	49.333	1789.160	1676.758
-51.188	42.550	1590.851	1442.371
-50.173	40.030	1561.641	1398.033
-49.159	55.620	1600.200	1544.271
-48.144	60.566	1619.963	1598.648
-47.130	43.114	1583.093	1439.134
-46.115	39.625	1568.854	1401.392
-45.100	39.612	1564.894	1397.706
-44.086	39.402	1563.149	1394.606
-43.071	39.341	1560.907	1392.119
-42.057	39.371	1558.785	1390.384
-41.042	39.362	1557.802	1389.385
-40.027	39.276	1556.139	1387.240
-39.013	39.259	1554.511	1385.615
-37.998	39.236	1553.531	1384.527
-36.984	39.303	1552.411	1383.942
-35.969	39.316	1550.543	1382.315
-34.954	39.248	1550.070	1381.361
-33.940	39.342	1548.513	1380.579
-32.925	39.399	1546.411	1379.050
-31.911	39.332	1545.157	1377.405
-30.896	39.364	1543.658	1376.240
-29.881	39.341	1542.740	1375.203
-28.867	39.414	1541.247	1374.329
-27.852	39.393	1539.971	1372.991
-26.838	39.354	1538.645	1371.480
-25.823	39.328	1537.007	1369.786
-24.809	39.345	1535.067	1368.119
-23.794	39.343	1533.404	1366.569
-22.779	39.319	1532.343	1365.407
-21.765	39.379	1531.219	1364.762
-20.750	39.341	1530.128	1363.476
-19.736	39.353	1528.913	1362.424
-18.721	39.380	1527.399	1361.204
-17.706	39.290	1526.478	1359.705
-16.692	39.290	1525.377	1358.673
-15.677	39.357	1524.147	1357.986
-14.663	39.315	1523.295	1356.880
-13.648	39.271	1522.149	1355.508
-12.633	39.314	1521.152	1354.856
-11.619	39.216	1520.794	1353.810
-10.604	39.319	1519.405	1353.233
-9.590	39.257	1518.692	1352.115
-8.575	39.319	1517.446	1351.377
-7.560	39.342	1516.674	1350.796
-6.546	39.245	1516.017	1349.491
-5.531	39.241	1515.053	1348.549
-4.517	39.188	1514.066	1347.259
-3.502	39.151	1513.443	1346.397
-2.487	39.208	1512.197	1345.624
-1.473	39.283	1510.770	1344.815
-0.458	39.223	1509.764	1343.455
0.556	37.829	1500.812	1334.659
1.571	35.301	1473.183	1292.952
2.586	31.705	1407.957	1212.368
3.600	29.611	1320.469	1124.210
4.615	27.652	1271.977	1071.333
5.629	24.034	1213.691	1001.827
6.644	14.550	1123.349	877.516
7.659	6.531	1077.139	800.752
8.673	5.222	1070.798	789.353
9.688	4.945	1067.928	785.768
10.702	4.692	1066.707	783.529
11.717	4.862	1064.874	782.968
12.731	8.168	1069.273	802.798
13.746	16.667	1081.513	855.018
14.761	20.648	1085.429	878.174
15.775	18.700	1081.616	865.204
16.790	17.082	1078.614	854.587
17.804	15.982	1075.956	846.878
18.819	15.052	1074.322	840.850
19.834	14.620	1073.164	837.700
20.848	14.343	1071.927	835.272
21.863	14.106	1070.967	833.263
22.877	13.826	1070.040	831.065
23.892	13.625	1069.439	829.521
24.907	13.632	1068.299	828.596
25.921	13.557	1067.868	827.814
26.936	13.656	1067.027	827.585
27.950	13.645	1065.927	826.603
28.965	13.714	1064.799	825.998
29.980	13.699	1063.435	824.791
30.994	13.847	1062.255	824.539
32.009	13.740	1061.695	823.500
33.023	13.876	1060.671	823.307
34.038	13.918	1059.818	822.782
35.053	13.761	1059.326	821.549
36.067	13.697	1058.226	820.307
37.082	13.701	1057.354	819.581
38.096	13.654	1056.546	818.644
39.111	13.698	1056.100	818.447
40.126	13.823	1054.935	818.089
41.140	13.880	1053.203	816.953
42.155	13.625	1052.626	815.180
43.169	13.447	1052.237	813.929
44.184	13.455	1050.977	812.922
45.199	13.528	1049.275	811.892
46.213	13.419	1048.352	810.571
47.228	13.507	1047.405	810.200
48.242	13.594	1046.813	810.094
49.257	13.723	1045.781	809.854
50.271	13.921	1044.211	809.532
51.286	13.677	1043.666	807.849
52.301	13.685	1043.263	807.505
53.315	13.682	1042.062	806.490
54.330	13.748	1040.771	805.739
55.344	13.732	1040.058	805.039
56.359	13.577	1039.073	803.451
57.374	13.573	1038.468	802.896
58.388	13.572	1038.108	802.539
59.403	13.547	1037.189	801.638
60.417	13.461	1036.344	800.500
61.432	13.498	1035.382	799.863
62.447	13.540	1034.647	799.428
63.461	13.430	1033.701	798.093
64.476	13.389	1032.900	797.208
65.490	13.438	1032.066	796.732
66.505	13.400	1031.321	795.900
67.520	13.423	1030.384	795.221
68.534	13.516	1029.686	795.058
69.549	13.457	1028.649	793.903
70.563	13.463	1028.004	793.363
71.578	13.360	1027.601	792.489
72.593	13.406	1026.282	791.622
73.607	13.393	1025.095	790.572
74.622	13.285	1024.638	789.638
75.636	13.287	1023.740	788.882
76.651	13.300	1022.931	788.252
77.666	13.339	1021.856	787.539
78.680	13.376	1021.495	787.367
79.695	13.386	1020.885	786.877
80.709	13.450	1019.691	786.189
81.724	13.420	1019.390	785.745
82.739	13.428	1018.670	785.159
83.753	13.497	1018.028	784.924
84.768	13.627	1017.321	784.922
85.782	13.803	1016.284	784.886
86.797	13.813	1015.652	784.374
87.812	13.790	1014.879	783.600
88.826	13.598	1014.000	781.946
89.841	13.697	1012.977	781.555
90.855	13.643	1012.852	781.137
91.870	13.789	1011.561	780.756
92.884	13.830	1011.000	780.450
93.899	13.719	1010.297	779.316
94.914	13.879	1009.356	779.269
95.928	13.681	1009.166	778.124
96.943	13.824	1008.200	777.984
97.957	13.972	1006.882	777.589
98.972	13.880	1006.200	776.564
99.987	13.818	1005.585	775.732
101.001	13.753	1005.042	774.939
102.016	13.727	1004.534	774.359
103.030	13.731	1003.307	773.362
104.045	13.719	1002.433	772.562
105.060	13.720	1001.461	771.752
106.074	13.866	1000.152	771.353
107.089	13.666	999.259	769.667
108.103	13.559	998.613	768.604
109.118	13.443	997.775	767.356
110.133	13.452	997.230	766.911
111.147	13.525	996.293	766.457
112.162	13.626	995.087	765.928
113.176	13.472	994.486	764.687
114.191	13.501	993.916	764.316
115.206	13.672	992.768	764.156
116.220	13.660	991.901	763.366
117.235	13.736	990.961	762.921
118.249	13.690	990.003	761.904
119.264	13.607	989.708	761.228
120.279	13.613	988.454	760.227
121.293	13.517	988.056	759.414
122.308	13.555	986.701	758.478
123.322	13.493	986.337	757.849
124.337	13.453	985.243	756.758
125.352	13.432	983.992	755.631
126.366	13.488	983.107	755.143
127.381	13.498	981.673	754.021
128.395	13.513	981.047	753.539
129.410	13.547	979.792	752.666
130.424	13.603	979.033	752.267
131.439	13.632	977.868	751.436
132.454	13.577	977.497	750.835
133.468	13.584	977.075	750.476
134.483	13.697	976.228	750.274
135.497	13.696	975.355	749.531
136.512	13.749	974.938	749.386
137.527	13.636	974.121	748.179
138.541	13.694	973.198	747.666
139.556	13.774	972.075	747.097
140.570	13.571	971.972	746.039
141.585	13.727	970.952	745.889
142.600	13.882	970.191	745.937
143.614	13.852	969.715	745.368
144.629	13.911	968.760	744.833
145.643	13.823	968.104	743.871
146.658	13.738	967.664	743.083
147.673	13.741	965.964	741.729
148.687	13.744	965.207	741.094
149.702	13.679	964.363	740.089
150.716	13.602	963.612	739.104
151.731	13.554	962.800	738.203
152.746	13.755	961.752	738.228
153.760	13.754	960.930	737.527
154.775	13.793	960.682	737.446
155.789	13.705	960.142	736.574
156.804	13.764	959.222	736.064
157.819	13.763	958.276	735.271
158.833	13.858	957.848	735.299
159.848	13.869	957.212	734.792
160.862	13.881	956.487	734.222
161.877	13.794	956.092	733.471
162.892	13.684	955.087	732.150
163.906	13.728	953.950	731.407
164.921	13.875	952.653	730.998
165.935	13.760	951.920	729.863
166.950	13.836	950.780	729.259
167.964	13.813	950.215	728.659
168.979	13.843	949.169	727.923
169.994	13.912	948.090	727.335
171.008	13.836	947.450	726.447
172.023	13.672	946.806	725.172
173.037	13.816	946.227	725.294
174.052	13.880	945.434	724.900
175.067	13.961	944.639	724.580
176.081	13.813	943.985	723.368
177.096	13.751	943.039	722.310
178.110	13.783	941.921	721.527
179.125	13.867	941.289	721.348
180.140	13.934	940.050	720.623
181.154	13.942	939.591	720.242
182.169	13.939	939.393	720.015
183.183	14.004	938.522	719.564
184.198	13.960	937.809	718.766
185.213	13.979	937.338	718.423
186.227	14.044	936.666	718.123
187.242	14.053	936.407	717.898
188.256	14.125	935.632	717.552
189.271	14.239	934.558	717.157
190.286	14.344	933.473	716.711
191.300	14.213	932.618	715.429
192.315	13.903	932.468	713.918
193.329	13.759	931.794	712.722
194.344	13.843	931.270	712.619
195.359	14.003	930.575	712.709
196.373	14.012	930.031	712.267
197.388	14.168	929.399	712.391
198.402	14.176	929.113	712.141
199.417	14.349	928.637	712.454
200.432	14.361	927.952	711.919
201.446	14.347	927.478	711.429
202.461	14.347	927.483	711.372
203.475	14.512	926.519	711.270
204.490	14.383	925.920	710.200
205.504	14.365	925.042	709.387
206.519	14.350	924.177	708.595
207.534	14.223	923.646	707.588
208.548	14.195	922.939	706.866
209.563	14.245	922.669	706.807
210.577	14.420	921.257	706.405
211.592	14.342	921.007	705.819
212.607	14.336	920.653	705.461
213.621	14.557	919.273	705.275
214.636	14.385	918.993	704.272
215.650	14.410	918.307	703.790
216.665	14.435	917.619	703.303
217.680	14.600	916.738	703.261
218.694	14.584	916.314	702.806
219.709	14.553	915.886	702.286
220.723	14.617	915.312	702.056
221.738	14.579	914.497	701.209
222.753	14.492	914.242	700.585
223.767	14.433	913.220	699.490
224.782	14.657	912.189	699.577
225.796	14.671	911.618	699.136
226.811	14.663	911.151	698.684
227.826	14.648	910.352	697.947
228.840	14.620	909.803	697.349
229.855	14.542	908.838	696.221
230.869	14.774	908.343	696.748
231.884	14.706	907.520	695.770
232.899	14.503	906.843	694.343
233.913	14.548	906.134	693.929
234.928	14.575	905.398	693.415
235.942	14.619	904.656	692.969
236.957	14.582	903.878	692.156
237.972	14.579	903.293	691.634
238.986	14.605	902.498	691.075
240.001	14.629	902.072	690.787
241.015	14.688	901.121	690.240
242.030	14.628	900.751	689.645
243.045	14.638	899.704	688.825
244.059	14.720	899.344	688.829
245.074	14.668	898.716	688.072
246.088	14.846	898.216	688.360
247.103	14.776	897.701	687.616
248.117	14.758	897.069	687.000
249.132	14.860	896.408	686.852
250.147	14.985	895.870	686.893
251.161	15.099	895.160	686.754
252.176	15.192	894.550	686.605
253.190	15.094	894.291	685.944
254.205	15.123	893.406	685.325
255.220	15.282	892.776	685.431
256.234	15.368	892.125	685.220
257.249	15.259	891.675	684.372
258.263	15.208	891.042	683.617
259.278	15.318	890.361	683.482
260.293	15.263	889.918	682.856
261.307	15.429	889.324	683.015
262.322	15.427	888.569	682.366
263.336	15.352	887.666	681.310
264.351	15.371	887.603	681.277
265.366	15.324	886.762	680.379
266.380	15.387	886.289	680.212
267.395	15.543	885.098	679.871
268.409	15.524	884.281	679.104
269.424	15.323	883.879	677.926
270.439	15.469	883.201	677.934
271.453	15.354	882.758	677.069
272.468	15.365	881.775	676.300
273.482	15.393	880.959	675.728
274.497	15.273	880.713	674.995
275.512	15.386	879.875	674.747
276.526	15.340	879.080	673.893
277.541	15.284	878.976	673.528
278.555	15.458	877.956	673.385
279.570	15.410	877.473	672.763
280.585	15.448	876.886	672.408
281.599	15.638	876.206	672.585
282.614	15.524	875.572	671.584
283.628	15.442	874.971	670.736
284.643	15.625	874.307	670.898
285.657	15.491	873.828	669.936
286.672	15.543	873.397	669.754
287.687	15.486	872.779	668.995
288.701	15.489	872.556	668.777
289.716	15.469	871.967	668.188
290.730	15.615	871.256	668.164
291.745	15.655	870.776	667.894
292.760	15.579	869.868	666.836
293.774	15.654	869.513	666.802
294.789	15.627	869.026	666.263
295.803	15.659	868.655	666.045
296.818	15.686	867.755	665.404
297.833	15.769	866.768	664.917
298.847	15.756	866.263	664.419
299.862	15.751	865.442	663.713
300.876	15.741	865.039	663.305
301.891	15.707	864.420	662.635
302.906	15.734	863.514	661.991
303.920	15.967	862.879	662.362
304.935	15.910	862.371	661.690
305.949	15.893	861.829	661.149
306.964	16.064	861.226	661.299
307.979	15.988	860.771	660.593
308.993	15.772	860.676	659.611
310.008	15.995	859.659	659.650
311.022	16.004	859.098	659.195
312.037	16.001	858.565	658.718
313.052	15.861	858.228	657.853
314.066	15.874	857.683	657.427
315.081	15.845	856.760	656.549
316.095	15.928	855.989	656.222
317.110	15.878	855.584	655.661
318.125	15.996	854.878	655.519
319.139	16.088	854.505	655.532
320.154	15.874	854.276	654.468
321.168	15.959	853.633	654.248
322.183	15.936	852.731	653.410
323.197	15.907	852.862	653.337
324.212	15.930	851.811	652.563
325.227	16.054	851.182	652.507
326.241	16.062	850.694	652.104
327.256	16.086	850.188	651.754
328.270	16.038	849.726	651.155
329.285	15.936	849.297	650.375
330.300	16.037	848.365	649.991
331.314	16.109	847.801	649.782
332.329	16.106	847.132	649.199
333.343	16.231	846.611	649.223
334.358	16.129	846.067	648.354
335.373	16.349	845.952	649.058
336.387	16.215	844.992	647.748
337.402	16.212	844.302	647.151
338.416	16.243	843.821	646.842
339.431	16.422	843.246	647.030
340.446	16.350	842.895	646.430
341.460	16.332	842.521	646.017
342.475	16.369	842.166	645.827
343.489	16.500	841.280	645.592
344.504	16.523	840.879	645.315
345.519	16.520	840.329	644.824
346.533	16.601	839.709	644.601
347.548	16.645	839.332	644.422
348.562	16.536	838.576	643.367
349.577	16.385	838.074	642.353
350.592	16.339	837.468	641.655
351.606	16.362	836.858	641.220
352.621	16.562	836.423	641.588
353.635	16.532	835.932	641.040
354.650	16.465	835.928	640.728
355.665	16.417	835.547	640.196
356.679	16.558	834.771	640.078
357.694	16.554	834.297	639.643
358.708	16.602	833.536	639.186
359.723	16.548	833.128	638.613
360.738	16.609	832.777	638.514
361.752	16.633	832.200	638.109
362.767	16.707	831.713	637.957
363.781	16.676	831.374	637.522
364.796	16.804	830.766	637.481
365.810	16.834	830.216	637.115
366.825	16.841	830.227	637.096
367.840	16.963	829.397	636.859
368.854	16.803	829.681	636.421
369.869	16.937	828.651	636.078
370.883	16.896	827.982	635.355
371.898	16.895	827.723	635.096
372.913	16.914	826.914	634.488
373.927	16.892	826.267	633.856
374.942	17.011	825.415	633.588
375.956	17.066	825.110	633.504
376.971	17.054	824.040	632.581
377.986	16.965	823.959	632.133
379.000	16.927	823.659	631.705
380.015	17.045	823.175	631.717
381.029	17.068	822.387	631.142
382.044	17.241	821.390	630.963
383.059	17.178	821.197	630.525
384.073	17.154	820.795	630.071
385.088	17.127	820.405	629.616
386.102	17.236	819.610	629.352
387.117	16.980	819.237	628.064
388.132	16.909	818.833	627.436
389.146	17.055	817.980	627.266
390.161	17.080	817.716	627.100
391.175	17.179	817.609	627.327
392.190	17.136	817.500	627.031
393.205	17.105	816.685	626.238
394.219	17.062	816.275	625.707
395.234	17.083	815.579	625.195
396.248	17.143	814.989	624.908
397.263	17.154	814.417	624.456
398.278	17.053	814.037	623.740
399.292	17.058	813.774	623.500
400.307	17.062	813.126	622.962
401.321	16.977	813.007	622.506
402.336	17.055	812.449	622.307
403.350	17.058	812.154	622.040
404.365	17.203	811.419	621.953
405.380	17.301	810.783	621.766
406.394	17.353	810.658	621.806
407.409	17.431	809.954	621.496
408.423	17.293	809.861	620.865
409.438	17.541	809.289	621.278
410.453	17.437	808.845	620.504
411.467	17.402	808.691	620.203
412.482	17.480	808.184	620.041
413.496	17.640	807.369	619.944
414.511	17.718	807.117	619.978
415.526	17.567	807.002	619.287
416.540	17.563	806.440	618.785
417.555	17.688	805.972	618.826
418.569	17.680	805.530	618.403
419.584	17.533	805.337	617.668
420.599	17.616	804.580	617.332
421.613	144.153	1359.967	1750.572
422.628	124.863	1440.915	1750.742
