DTS Sentinel unit serial number:	SN413079Multiplexer serial number:	ORYXHardware model number:	OX4-SRSoftware version number:	ORYX F/W v4.00 Oryx Data Collector v3.7.2.0data status	okinstallation	princeton_trtdifferential loss correction	single-endedforward channel	channel 3reverse channel	N/Adate	2019/09/17time	21:36:35forward acquisition time	60.00reverse acquisition time	0.00gamma	496.2192k internal	0.2343k external	0.2343temperature offset calibration	0.9947default loss term (dB/km)	0.3790temperature slope calibration	1.0000multiplexer offset coefficient	1.0000multiplexer slope coefficient	1.0000fibre end	0.00T internal ref (°C)	26.89T ext. ref 1 (°C)	0.18T ext. ref 2 (°C)	19.16length (m)	temperature (°C)	Stokes	anti-Stokes-747.200	11.530	0.180	0.138
-746.185	-60.934	-0.141	0.060
-745.171	-137.460	0.406	0.046
-744.156	-200.000	-0.067	0.422
-743.142	196.788	0.026	0.040
-742.127	-41.291	-0.075	0.039
-741.112	-120.620	0.399	0.068
-740.098	70.545	-0.287	0.297
-739.083	-0.512	-0.193	-0.137
-738.069	-200.000	-0.044	-0.327
-737.054	104.949	-0.254	-0.300
-736.039	-104.227	-0.280	-0.065
-735.025	-91.028	-0.197	0.057
-734.010	-110.670	-0.198	0.041
-732.996	800.000	-0.055	-0.176
-731.981	-200.000	-0.032	-0.152
-730.966	-156.659	-0.227	-0.014
-729.952	442.851	0.056	-0.124
-728.937	-200.000	0.026	0.191
-727.923	24.469	0.377	0.312
-726.908	-200.000	0.011	0.547
-725.894	-26.292	-0.312	0.183
-724.879	-200.000	-0.043	-0.402
-723.864	0.456	0.365	0.261
-722.850	58.171	-0.147	-0.144
-721.835	800.000	0.045	0.131
-720.821	-101.337	0.028	0.007
-719.806	800.000	0.094	-0.318
-718.791	-200.000	0.018	-0.213
-717.777	-3.067	0.153	-0.107
-716.762	-100.595	-0.247	-0.061
-715.748	800.000	-0.024	0.101
-714.733	257.289	0.089	0.153
-713.718	-200.000	-0.027	0.285
-712.704	-200.000	0.023	0.322
-711.689	124.086	-0.191	0.240
-710.675	-151.264	-0.144	-0.011
-709.660	101.863	0.085	-0.099
-708.645	613.824	0.130	0.326
-707.631	15.003	-0.244	-0.191
-706.616	-200.000	-0.031	0.214
-705.602	-120.073	-0.153	-0.026
-704.587	-200.000	-0.036	0.248
-703.572	-200.000	-0.014	0.155
-702.558	-46.256	-0.058	0.028
-701.543	-135.486	0.132	0.016
-700.529	800.000	-0.030	0.127
-699.514	-151.383	-0.374	0.028
-698.499	-200.000	0.003	-0.070
-697.485	243.161	-0.131	-0.220
-696.470	-129.280	-0.158	0.022
-695.456	800.000	0.090	-0.315
-694.441	-92.598	-0.447	-0.125
-693.426	27.874	-0.057	-0.048
-692.412	-83.959	-0.173	-0.055
-691.397	786.617	-0.077	0.212
-690.383	-67.231	0.035	0.014
-689.368	-200.000	0.016	-0.188
-688.354	-19.273	0.262	0.162
-687.339	171.941	0.172	-0.246
-686.324	-200.000	0.040	-0.191
-685.310	66.662	0.241	0.245
-684.295	800.000	-0.056	0.217
-683.281	182.459	-0.035	0.052
-682.266	122.140	-0.031	-0.039
-681.251	-84.500	0.195	0.061
-680.237	198.909	0.058	0.089
-679.222	-50.181	-0.211	0.100
-678.208	-63.460	-0.224	0.092
-677.193	206.044	-0.231	-0.359
-676.178	-146.939	0.172	0.015
-675.164	-200.000	0.018	0.309
-674.149	-200.000	-0.014	0.101
-673.135	70.046	-0.167	0.172
-672.120	-200.000	-0.043	0.290
-671.105	85.414	-0.127	-0.140
-670.091	-94.978	0.135	-0.036
-669.076	62.805	0.069	0.069
-668.062	-35.526	-0.171	0.092
-667.047	225.081	0.018	0.029
-666.032	-30.447	-0.169	0.096
-665.018	-146.585	0.462	-0.040
-664.003	3.648	0.040	-0.029
-662.989	44.092	-0.128	-0.117
-661.974	-98.816	0.295	-0.075
-660.959	67.698	-0.215	-0.219
-659.945	-200.000	-0.044	0.204
-658.930	109.156	0.192	0.229
-657.916	-97.923	-0.188	0.048
-656.901	-200.000	-0.063	0.380
-655.886	-200.000	-0.071	0.391
-654.872	-200.000	-0.027	-0.187
-653.857	11.404	-0.129	-0.099
-652.843	-200.000	-0.015	0.190
-651.828	-12.592	0.121	-0.079
-650.814	205.182	0.047	0.073
-649.799	-106.366	0.087	0.019
-648.784	-200.000	-0.005	-0.079
-647.770	-10.491	0.106	0.070
-646.755	-200.000	0.040	0.237
-645.741	-80.142	0.132	-0.044
-644.726	800.000	0.045	0.170
-643.711	-33.991	0.116	-0.064
-642.697	524.154	-0.083	0.195
-641.682	-68.961	-0.263	0.101
-640.668	-158.366	-0.130	0.008
-639.653	284.600	0.043	0.077
-638.638	-200.000	-0.004	0.072
-637.624	117.455	0.190	0.233
-636.609	-200.000	0.036	0.277
-635.595	-190.988	0.119	0.001
-634.580	-137.217	0.090	-0.010
-633.565	112.335	0.236	-0.285
-632.551	-66.964	-0.171	0.067
-631.536	-6.132	-0.212	-0.144
-630.522	-200.000	0.036	0.489
-629.507	-200.000	0.020	-0.289
-628.492	759.534	-0.140	-0.378
-627.478	40.852	0.130	0.117
-626.463	-2.634	-0.118	-0.082
-625.449	90.744	-0.059	-0.066
-624.434	-153.244	-0.096	-0.007
-623.419	-95.109	-0.157	0.042
-622.405	800.000	0.073	0.242
-621.390	-103.893	0.170	-0.040
-620.376	172.881	0.262	-0.376
-619.361	-200.000	-0.010	0.237
-618.346	-88.989	0.068	0.020
-617.332	800.000	-0.077	-0.252
-616.317	-200.000	-0.022	-0.211
-615.303	105.138	-0.133	0.157
-614.288	800.000	0.129	0.411
-613.273	715.634	-0.070	0.185
-612.259	-145.515	0.033	-0.003
-611.244	130.123	0.232	0.295
-610.230	303.862	-0.037	0.068
-609.215	-91.372	-0.218	-0.062
-608.201	162.276	0.230	0.322
-607.186	89.071	-0.199	-0.221
-606.171	-200.000	0.011	-0.246
-605.157	-200.000	-0.005	0.198
-604.142	431.007	0.092	0.198
-603.128	-200.000	0.000	0.092
-602.113	-81.531	-0.159	0.052
-601.098	-108.389	-0.205	0.044
-600.084	302.496	-0.119	-0.220
-599.069	-83.517	-0.202	-0.064
-598.055	-102.319	-0.171	0.041
-597.040	-26.457	-0.134	-0.078
-596.025	-200.000	-0.014	-0.299
-595.011	-86.705	0.144	0.044
-593.996	-93.414	-0.186	0.051
-592.982	1.231	0.235	-0.168
-591.967	-3.076	0.332	-0.231
-590.952	130.299	-0.202	-0.258
-589.938	-131.293	0.074	-0.010
-588.923	68.529	-0.182	0.186
-587.909	39.245	-0.219	0.195
-586.894	55.429	0.101	-0.097
-585.879	9.054	-0.141	-0.106
-584.865	20.642	0.187	-0.150
-583.850	30.805	-0.182	-0.155
-582.836	-139.693	0.337	-0.036
-581.821	232.253	0.103	0.168
-580.806	-89.857	-0.332	-0.096
-579.792	244.264	-0.048	-0.080
-578.777	370.913	-0.063	-0.126
-577.763	398.675	0.060	-0.125
-576.748	-33.059	0.223	0.123
-575.733	195.264	-0.325	-0.491
-574.719	-89.579	0.203	0.059
-573.704	301.744	-0.085	-0.157
-572.690	44.333	-0.007	0.006
-571.675	-13.625	-0.043	-0.027
-570.661	800.000	-0.033	-0.118
-569.646	73.854	0.064	0.067
-568.631	800.000	-0.065	-0.282
-567.617	-200.000	-0.070	0.350
-566.602	-12.087	0.336	-0.219
-565.588	-139.332	0.235	-0.025
-564.573	489.047	-0.171	-0.390
-563.558	-141.605	-0.219	0.022
-562.544	-20.657	0.172	-0.105
-561.529	-88.844	-0.174	-0.051
-560.515	80.108	-0.196	0.209
-559.500	-10.562	-0.340	0.224
-558.485	109.570	0.273	-0.325
-557.471	-200.000	-0.015	0.096
-556.456	12.020	0.344	0.263
-555.442	564.121	-0.108	-0.259
-554.427	-200.000	-0.048	0.258
-553.412	-153.387	-0.284	-0.020
-552.398	-200.000	-0.070	-0.427
-551.383	-10.007	0.060	0.040
-550.369	-147.229	-0.106	0.009
-549.354	184.406	0.136	0.200
-548.339	-17.721	0.214	0.133
-547.325	542.192	-0.016	0.039
-546.310	800.000	-0.028	-0.099
-545.296	277.888	0.015	-0.026
-544.281	-128.258	0.264	-0.037
-543.266	83.396	-0.138	-0.150
-542.252	537.097	0.039	-0.092
-541.237	104.617	0.062	0.073
-540.223	-92.798	0.320	0.089
-539.208	90.691	-0.156	-0.174
-538.193	459.678	-0.116	-0.257
-537.179	-200.000	-0.002	-0.072
-536.164	503.593	-0.129	0.296
-535.150	-141.664	-0.197	0.020
-534.135	800.000	0.093	-0.337
-533.121	662.344	-0.146	-0.373
-532.106	99.079	0.145	-0.166
-531.091	294.502	-0.110	-0.199
-530.077	-200.000	0.018	-0.158
-529.062	800.000	0.037	0.139
-528.048	536.510	-0.081	0.192
-527.033	-200.000	0.002	0.016
-526.018	-60.209	-0.421	0.178
-525.004	-163.595	-0.363	0.017
-523.989	-155.677	-0.423	-0.027
-522.975	-200.000	0.002	-0.290
-521.960	13.816	-0.098	-0.075
-520.945	109.794	0.293	-0.349
-519.931	-200.000	-0.021	-0.156
-518.916	-113.994	0.128	-0.025
-517.902	43.008	-0.195	0.177
-516.887	-52.938	0.040	-0.018
-515.872	157.428	-0.083	0.114
-514.858	800.000	-0.036	-0.106
-513.843	-200.000	0.221	0.000
-512.829	-36.624	-0.008	-0.004
-511.814	-100.271	0.105	-0.026
-510.799	788.810	0.040	0.109
-509.785	-83.078	-0.200	-0.064
-508.770	206.042	-0.089	-0.137
-507.756	212.250	-0.223	0.349
-506.741	-200.000	0.034	0.390
-505.726	-22.188	-0.115	-0.069
-504.712	165.339	0.147	0.207
-503.697	-200.000	0.035	0.255
-502.683	117.844	-0.124	-0.151
-501.668	800.000	-0.086	0.265
-500.653	-200.000	-0.009	-0.189
-499.639	-93.845	-0.178	0.049
-498.624	-101.634	0.344	0.083
-497.610	800.000	0.049	-0.161
-496.595	62.275	0.176	-0.174
-495.581	-81.040	-0.486	-0.159
-494.566	800.000	0.034	0.126
-493.551	-117.529	-0.314	-0.056
-492.537	444.044	0.120	0.260
-491.522	-40.221	-0.215	0.111
-490.508	-105.852	-0.137	0.031
-489.493	-10.938	0.265	-0.173
-488.478	800.000	-0.152	-0.555
-487.464	-88.175	0.385	-0.114
-486.449	-52.799	-0.254	0.116
-485.435	787.865	-0.057	-0.156
-484.420	-159.451	-0.040	0.002
-483.405	-74.647	0.446	0.159
-482.391	344.835	0.073	0.143
-481.376	306.621	-0.089	0.164
-480.362	15.628	0.168	-0.131
-479.347	-4.768	0.296	-0.202
-478.332	800.000	-0.099	0.271
-477.318	-200.000	-0.008	0.063
-476.303	153.465	0.042	0.057
-475.289	-200.000	-0.006	0.043
-474.274	295.327	-0.145	0.263
-473.259	85.650	-0.324	0.353
-472.245	-151.395	0.265	0.020
-471.230	-186.986	0.383	0.005
-470.216	800.000	0.092	0.333
-469.201	-116.488	0.074	0.014
-468.186	-16.074	-0.084	-0.053
-467.172	-200.000	-0.001	0.010
-466.157	142.266	0.203	-0.267
-465.143	-102.081	-0.278	-0.066
-464.128	130.140	0.169	0.214
-463.113	-57.152	0.262	0.114
-462.099	-183.327	0.121	-0.002
-461.084	291.228	0.030	-0.054
-460.070	72.108	-0.191	-0.197
-459.055	-200.000	0.020	0.436
-458.040	77.393	0.124	0.130
-457.026	-85.666	-0.182	0.056
-456.011	-151.611	0.219	0.016
-454.997	-80.303	-0.399	-0.132
-453.982	-24.733	0.462	-0.272
-452.968	-200.000	-0.021	0.282
-451.953	-200.000	0.051	-0.239
-450.938	27.419	-0.039	0.032
-449.924	-60.369	0.069	0.029
-448.909	-200.000	-0.013	-0.230
-447.895	-118.285	-0.442	-0.078
-446.880	-99.372	-0.261	0.065
-445.865	209.167	-0.133	0.205
-444.851	513.187	-0.043	0.100
-443.836	189.499	-0.028	-0.042
-442.822	800.000	0.084	0.330
-441.807	283.250	-0.052	-0.092
-440.792	5.887	-0.153	0.112
-439.778	-200.000	0.026	0.133
-438.763	315.728	0.039	-0.072
-437.749	-56.351	-0.343	-0.151
-436.734	15.612	-0.309	-0.240
-435.719	-200.000	-0.059	-0.351
-434.705	-192.825	0.418	0.004
-433.690	496.643	-0.077	0.175
-432.676	-45.794	0.212	-0.104
-431.661	-200.000	0.044	-0.269
-430.646	-34.480	0.187	-0.101
-429.632	44.578	-0.254	0.231
-428.617	746.378	-0.141	0.376
-427.603	191.605	-0.110	-0.164
-426.588	800.000	0.067	0.222
-425.573	-33.274	0.337	-0.185
-424.559	-200.000	0.074	0.402
-423.544	250.731	0.195	-0.327
-422.530	-200.000	0.018	-0.146
-421.515	-64.661	-0.103	0.041
-420.500	-200.000	-0.076	-0.403
-419.486	455.504	0.104	-0.229
-418.471	453.403	-0.074	0.162
-417.457	85.577	0.094	-0.102
-416.442	221.516	0.125	-0.199
-415.428	-30.573	0.279	-0.156
-414.413	800.000	-0.073	-0.218
-413.398	-73.294	0.247	-0.089
-412.384	9.114	0.203	0.151
-411.369	136.202	0.086	-0.111
-410.355	-200.000	-0.017	0.404
-409.340	-101.307	0.207	0.050
-408.325	-2.622	0.187	0.130
-407.311	800.000	0.040	0.136
-406.296	-200.000	-0.015	-0.074
-405.282	-200.000	0.025	0.195
-404.267	328.469	0.165	-0.313
-403.252	202.118	-0.089	-0.136
-402.238	-95.955	-0.306	-0.081
-401.223	54.979	0.082	-0.078
-400.209	426.514	0.038	-0.080
-399.194	800.000	-0.098	-0.396
-398.179	96.151	-0.176	0.199
-397.165	123.308	0.377	0.467
-396.150	-99.235	-0.122	-0.030
-395.136	-94.973	-0.236	-0.063
-394.121	-200.000	0.063	-0.295
-393.106	443.165	-0.112	0.242
-392.092	94.611	-0.331	-0.372
-391.077	-61.378	0.272	-0.113
-390.063	-200.000	0.116	-0.001
-389.048	76.715	0.117	0.122
-388.033	-137.273	-0.218	-0.024
-387.019	-97.882	-0.372	-0.095
-386.004	-136.335	-0.133	0.015
-384.990	800.000	0.101	0.331
-383.975	-112.368	-0.072	-0.014
-382.960	306.641	-0.081	0.148
-381.946	-200.000	-0.018	0.253
-380.931	431.618	-0.089	0.191
-379.917	130.983	-0.178	-0.225
-378.902	800.000	-0.057	-0.219
-377.888	-70.723	0.429	0.160
-376.873	144.416	0.191	0.252
-375.858	415.228	-0.081	0.169
-374.844	36.000	0.112	-0.097
-373.829	-72.111	-0.277	0.101
-372.815	-111.914	-0.234	0.047
-371.800	-200.000	-0.027	-0.288
-370.785	-106.371	-0.110	-0.024
-369.771	-11.183	0.151	-0.098
-368.756	10.030	0.148	0.111
-367.742	119.272	0.150	-0.183
-366.727	-31.597	-0.036	0.020
-365.712	173.425	0.180	0.257
-364.698	140.950	0.046	-0.060
-363.683	648.872	-0.123	0.311
-362.669	257.127	0.229	0.388
-361.654	-30.821	-0.206	0.115
-360.639	-200.000	0.008	0.075
-359.625	-126.225	-0.115	-0.017
-358.610	-45.854	0.041	-0.020
-357.596	-45.659	-0.182	-0.089
-356.581	-131.987	0.200	-0.026
-355.566	291.767	-0.156	0.281
-354.552	93.632	-0.231	-0.257
-353.537	-200.000	0.010	-0.089
-352.523	-17.873	-0.163	-0.101
-351.508	499.728	-0.172	-0.390
-350.493	-154.246	-0.147	0.010
-349.479	800.000	0.053	0.157
-348.464	-161.112	-0.395	-0.020
-347.450	-150.040	0.187	-0.014
-346.435	-200.000	0.010	-0.090
-345.420	800.000	0.032	-0.138
-344.406	-63.192	-0.254	-0.103
-343.391	121.912	-0.032	0.040
-342.377	-81.066	0.385	-0.125
-341.362	800.000	0.071	0.265
-340.348	527.863	-0.055	0.128
-339.333	-135.277	0.142	0.017
-338.318	-107.922	0.194	-0.042
-337.304	-89.752	-0.272	0.078
-336.289	20.226	0.040	-0.032
-335.275	-41.754	0.384	-0.194
-334.260	666.483	-0.084	0.214
-333.245	800.000	-0.051	-0.185
-332.231	-128.966	-0.267	0.037
-331.216	800.000	-0.141	-0.558
-330.202	661.706	0.100	-0.253
-329.187	-80.954	0.135	0.044
-328.172	259.617	0.118	0.201
-327.158	296.593	0.158	0.286
-326.143	-183.331	0.068	0.001
-325.129	-25.947	-0.116	0.067
-324.114	476.261	-0.085	0.188
-323.099	800.000	-0.044	-0.157
-322.085	76.283	-0.261	-0.272
-321.070	-72.005	-0.277	-0.102
-320.056	800.000	0.020	-0.054
-319.041	11.221	-0.228	0.172
-318.026	386.279	-0.197	0.401
-317.012	-128.438	-0.197	0.027
-315.997	1.454	0.138	-0.098
-314.983	-115.493	0.397	-0.074
-313.968	-85.652	0.092	0.028
-312.953	-200.000	0.007	-0.072
-311.939	123.082	0.025	-0.031
-310.924	-195.405	0.373	0.003
-309.910	113.225	-0.237	-0.283
-308.895	800.000	0.075	-0.278
-307.880	19.367	-0.081	-0.064
-306.866	800.000	0.078	0.274
-305.851	800.000	0.056	0.214
-304.837	-12.107	0.157	0.101
-303.822	-200.000	-0.014	0.298
-302.807	-165.466	-0.082	-0.004
-301.793	800.000	-0.119	-0.453
-300.778	800.000	0.041	0.123
-299.764	-72.791	0.231	0.084
-298.749	-200.000	0.006	-0.117
-297.735	17.876	-0.161	-0.126
-296.720	-71.255	0.398	0.147
-295.705	-200.000	0.080	-0.400
-294.691	357.296	-0.054	-0.105
-293.676	121.470	-0.049	0.061
-292.662	788.428	0.033	-0.088
-291.647	-180.518	0.159	0.003
-290.632	181.251	-0.096	0.139
-289.618	800.000	0.084	0.258
-288.603	175.436	0.171	-0.243
-287.589	68.607	0.012	-0.012
-286.574	800.000	-0.061	0.208
-285.559	-54.537	-0.174	-0.077
-284.545	167.162	0.117	-0.164
-283.530	16.581	-0.205	-0.159
-282.516	800.000	-0.120	0.339
-281.501	-46.650	0.255	0.123
-280.486	197.590	-0.204	-0.306
-279.472	38.285	-0.114	-0.100
-278.457	-78.696	0.376	0.126
-277.443	800.000	-0.058	-0.165
-276.428	-200.000	-0.070	-0.321
-275.413	800.000	0.047	0.129
-274.399	-147.545	0.053	-0.004
-273.384	-200.000	0.021	0.185
-272.370	-200.000	-0.004	-0.057
-271.355	613.523	0.009	-0.023
-270.340	98.094	0.066	-0.075
-269.326	87.531	0.365	-0.398
-268.311	-43.854	-0.266	0.132
-267.297	11.987	-0.174	-0.131
-266.282	377.734	0.163	0.327
-265.267	-200.000	0.026	0.195
-264.253	194.808	-0.073	0.109
-263.238	-89.066	0.082	0.024
-262.224	765.329	0.041	-0.110
-261.209	-200.000	-0.010	-0.286
-260.195	-34.957	-0.192	-0.103
-259.180	-200.000	0.021	0.120
-258.165	-53.422	0.095	-0.043
-257.151	147.753	0.076	-0.100
-256.136	-110.108	0.244	-0.050
-255.122	142.281	-0.122	-0.159
-254.107	-200.000	0.021	0.153
-253.092	-103.070	0.135	0.031
-252.078	-11.761	-0.158	0.102
-251.063	-83.266	0.251	-0.079
-250.049	361.112	0.130	0.257
-249.034	-200.000	0.010	0.318
-248.019	255.696	-0.132	-0.222
-247.005	-95.590	0.213	0.056
-245.990	-200.000	0.000	0.194
-244.976	122.278	-0.211	0.259
-243.961	122.911	-0.093	0.114
-242.946	800.000	0.058	0.183
-241.932	139.123	0.049	0.064
-240.917	-105.723	0.140	-0.031
-239.903	108.923	-0.210	0.247
-238.888	-41.943	0.082	0.041
-237.873	-173.630	-0.150	-0.004
-236.859	-30.742	-0.205	-0.114
-235.844	502.326	0.029	0.066
-234.830	-200.000	0.088	0.440
-233.815	-97.708	-0.232	0.059
-232.800	-200.000	-0.022	0.276
-231.786	-31.152	-0.209	-0.116
-230.771	-83.439	0.222	-0.070
-229.757	-200.000	0.011	0.113
-228.742	-200.000	0.005	0.126
-227.727	32.105	0.188	0.159
-226.713	103.085	0.414	0.475
-225.698	-72.539	0.087	0.032
-224.684	-124.527	-0.053	0.008
-223.669	612.711	0.011	-0.027
-222.655	230.570	0.161	-0.258
-221.640	-200.000	-0.072	0.389
-220.625	102.166	0.232	0.266
-219.611	409.026	0.133	0.276
-218.596	800.000	0.090	-0.246
-217.582	800.000	0.052	-0.153
-216.567	133.958	-0.190	-0.241
-215.552	800.000	-0.078	0.244
-214.538	-102.970	-0.078	0.018
-213.523	800.000	0.111	-0.350
-212.509	800.000	-0.018	-0.061
-211.494	2.471	-0.309	-0.219
-210.479	58.009	0.087	-0.083
-209.465	-109.773	0.073	0.015
-208.450	800.000	-0.060	0.225
-207.436	412.236	0.163	0.339
-206.421	-148.956	-0.386	0.031
-205.406	308.937	-0.117	-0.214
-204.392	107.260	0.203	0.237
-203.377	-200.000	0.038	-0.194
-202.363	92.681	-0.253	-0.280
-201.348	800.000	0.058	-0.174
-200.333	47.345	0.107	0.098
-199.319	-130.316	0.150	-0.020
-198.304	-20.466	-0.270	0.163
-197.290	-77.241	-0.133	0.045
-196.275	800.000	0.069	0.294
-195.260	13.401	0.236	-0.179
-194.246	-86.544	-0.303	0.091
-193.231	800.000	-0.104	-0.335
-192.217	176.082	0.030	-0.042
-191.202	-85.272	0.153	0.047
-190.187	800.000	0.075	-0.218
-189.173	-17.118	-0.111	-0.069
-188.158	796.806	-0.075	-0.203
-187.144	-200.000	0.005	-0.189
-186.129	133.972	0.128	-0.162
-185.114	309.353	0.139	0.254
-184.100	800.000	0.049	0.172
-183.085	800.000	-0.084	-0.275
-182.071	-52.990	0.153	0.069
-181.056	800.000	-0.051	-0.213
-180.042	-127.464	-0.263	-0.037
-179.027	362.512	0.169	-0.332
-178.012	782.411	-0.057	0.153
-176.998	85.000	-0.228	0.245
-175.983	216.688	-0.082	0.128
-174.969	438.731	0.097	-0.206
-173.954	556.442	-0.104	0.245
-172.939	-99.565	0.413	0.102
-171.925	-74.713	-0.295	0.104
-170.910	-68.070	-0.434	0.166
-169.896	-200.000	-0.001	-0.076
-168.881	7.632	0.083	-0.061
-167.866	-0.613	0.170	0.118
-166.852	-115.932	-0.088	0.016
-165.837	-78.548	0.222	0.074
-164.823	-42.178	-0.230	-0.115
-163.808	56.794	0.146	-0.140
-162.793	-200.000	-0.006	0.269
-161.779	492.673	0.075	0.168
-160.764	-200.000	-0.009	0.173
-159.750	27.128	0.251	-0.206
-158.735	-168.133	0.287	-0.011
-157.720	-200.000	0.018	0.302
-156.706	-34.075	0.099	0.053
-155.691	-200.000	-0.061	-0.263
-154.677	-50.041	0.141	0.065
-153.662	-200.000	-0.045	-0.272
-152.647	-19.893	0.221	0.134
-151.633	32.216	0.059	-0.050
-150.618	800.000	-0.070	0.204
-149.604	-104.923	-0.336	0.075
-148.589	69.496	0.080	-0.080
-147.574	245.753	0.103	0.170
-146.560	-34.521	0.301	0.161
-145.545	6.517	0.337	-0.245
-144.531	3.287	0.215	0.153
-143.516	119.830	-0.134	0.162
-142.502	9.411	0.171	0.127
-141.487	41.857	-0.052	0.046
-140.472	-200.000	0.050	0.303
-139.458	92.353	0.201	0.221
-138.443	-200.000	0.036	-0.418
-137.429	289.507	-0.012	-0.022
-136.414	800.000	-0.134	0.418
-135.399	-37.965	-0.068	-0.035
-134.385	389.142	0.167	-0.338
-133.370	-200.000	-0.029	-0.346
-132.356	448.536	0.044	0.095
-131.341	58.601	-0.135	0.130
-130.326	-197.029	-0.337	0.002
-129.312	-179.660	0.153	0.003
-128.297	66.452	0.190	0.188
-127.283	286.854	-0.161	-0.283
-126.268	-12.396	-0.194	0.124
-125.253	26.171	-0.167	0.137
-124.239	216.607	0.135	0.210
-123.224	133.966	0.037	-0.046
-122.210	17.418	0.166	-0.129
-121.195	-6.068	0.229	-0.153
-120.180	-151.893	-0.096	0.007
-119.166	-70.724	-0.208	-0.077
-118.151	-28.353	0.089	0.050
-117.137	-31.525	-0.216	-0.119
-116.122	-75.417	-0.501	0.174
-115.107	386.642	-0.135	-0.272
-114.093	800.000	-0.036	0.156
-113.078	-200.000	0.024	-0.154
-112.064	-125.219	-0.419	-0.063
-111.049	230.912	-0.100	0.160
-110.034	-35.805	0.100	0.053
-109.020	317.972	-0.025	0.046
-108.005	-164.082	0.037	0.002
-106.991	-200.000	0.029	0.150
-105.976	442.376	0.043	-0.092
-104.962	282.233	-0.022	0.039
-103.947	105.259	0.066	-0.076
-102.932	800.000	-0.067	0.238
-101.918	-193.536	-0.312	-0.003
-100.903	-51.444	-0.175	-0.080
-99.889	82.680	0.112	-0.119
-98.874	35.560	-0.154	-0.132
-97.859	-16.464	-0.328	0.203
-96.845	287.167	-0.026	-0.045
-95.830	-200.000	0.008	0.132
-94.816	533.915	0.100	0.230
-93.801	-41.135	-0.457	0.230
-92.786	-69.254	0.333	-0.125
-91.772	53.995	0.135	-0.127
-90.757	91.470	0.246	0.270
-89.743	20.553	-0.207	0.163
-88.728	800.000	-0.049	-0.201
-87.713	-188.090	0.185	-0.002
-86.699	800.000	0.042	0.140
-85.684	-86.086	-0.426	-0.128
-84.670	-200.000	-0.029	-0.178
-83.655	234.000	-0.037	-0.060
-82.640	-164.506	0.107	-0.005
-81.626	74.092	-0.075	0.077
-80.611	392.394	-0.169	-0.344
-79.597	-133.373	-0.112	0.014
-78.582	330.152	0.130	-0.243
-77.567	-54.996	-0.083	-0.037
-76.553	48.304	0.268	-0.244
-75.538	72.213	-0.117	-0.119
-74.524	113.358	0.039	0.046
-73.509	112.996	0.067	-0.080
-72.494	688.043	0.101	0.258
-71.480	30.204	0.130	0.108
-70.465	-90.963	-0.097	0.027
-69.451	-66.283	-0.110	-0.043
-68.436	-164.443	0.257	-0.011
-67.422	-200.000	-0.020	0.000
-66.407	-39.086	0.324	-0.166
-65.392	-200.000	-0.018	-0.224
-64.378	281.301	-0.126	-0.220
-63.363	800.000	0.184	0.546
-62.349	-88.246	-0.394	-0.115
-61.334	46.864	-1.252	-1.134
-60.319	22.786	0.500	0.399
-59.305	-200.000	-0.229	-1.189
-58.290	202.363	0.784	1.179
-57.276	358.835	0.748	1.456
-56.261	-200.000	112.982	623.998
-55.246	458.861	1485.411	3220.339
-54.232	153.469	2644.015	3528.225
-53.217	98.541	2144.104	2409.192
-52.203	36.856	1674.085	1442.173
-51.188	30.113	1491.098	1239.576
-50.173	27.778	1466.588	1203.771
-49.159	49.001	1527.559	1397.638
-48.144	48.165	1542.668	1405.758
-47.130	30.098	1497.504	1244.602
-46.115	27.069	1482.207	1211.670
-45.100	26.915	1478.562	1207.613
-44.086	26.832	1477.148	1205.858
-43.071	26.882	1474.904	1204.312
-42.057	26.869	1473.170	1202.765
-41.042	26.896	1471.947	1201.898
-40.027	26.843	1470.151	1200.034
-39.013	26.748	1469.319	1198.679
-37.998	26.780	1468.035	1197.791
-36.984	26.824	1466.966	1197.165
-35.969	26.829	1465.373	1195.851
-34.954	26.897	1463.885	1195.033
-33.940	26.827	1462.783	1193.625
-32.925	26.863	1461.628	1192.874
-31.911	26.918	1459.803	1191.697
-30.896	26.929	1458.577	1190.723
-29.881	26.912	1457.791	1189.924
-28.867	26.984	1456.357	1189.173
-27.852	26.982	1455.106	1188.095
-26.838	26.983	1453.947	1187.106
-25.823	26.949	1452.503	1185.660
-24.809	26.979	1450.452	1184.136
-23.794	26.887	1449.386	1182.614
-22.779	26.920	1448.140	1181.770
-21.765	27.018	1446.833	1181.292
-20.750	27.071	1445.677	1180.649
-19.736	26.919	1445.128	1179.164
-18.721	26.884	1444.349	1178.251
-17.706	26.877	1442.840	1176.929
-16.692	26.891	1441.484	1175.865
-15.677	26.930	1440.584	1175.338
-14.663	26.855	1439.886	1174.237
-13.648	26.781	1439.029	1173.015
-12.633	26.797	1438.303	1172.482
-11.619	26.918	1437.563	1172.610
-10.604	26.888	1436.063	1171.150
-9.590	26.868	1435.586	1170.581
-8.575	26.844	1434.756	1169.702
-7.560	26.880	1433.763	1169.080
-6.546	26.928	1432.668	1168.452
-5.531	26.958	1431.868	1167.947
-4.517	26.888	1430.744	1166.533
-3.502	26.850	1430.323	1165.896
-2.487	26.874	1429.051	1164.966
-1.473	26.857	1427.809	1163.803
-0.458	26.827	1426.533	1162.522
0.556	24.805	1416.586	1149.295
1.571	21.129	1391.626	1105.697
2.586	17.215	1329.250	1032.315
3.600	15.346	1247.918	958.395
4.615	14.258	1203.952	918.547
5.629	12.420	1149.641	867.341
6.644	6.300	1069.285	776.524
7.659	1.037	1031.865	724.176
8.673	0.342	1026.963	717.367
9.688	0.147	1023.985	714.293
10.702	0.025	1022.853	712.865
11.717	0.206	1020.066	711.716
12.731	2.152	1021.273	721.696
13.746	8.725	1030.495	759.404
14.761	14.968	1037.793	794.451
15.775	16.829	1039.762	804.731
16.790	16.412	1038.192	801.468
17.804	15.371	1036.436	795.110
18.819	14.660	1034.504	790.192
19.834	14.210	1033.076	786.903
20.848	13.874	1032.017	784.440
21.863	13.646	1031.170	782.653
22.877	13.402	1030.930	781.247
23.892	13.133	1029.796	779.051
24.907	13.037	1029.444	778.265
25.921	13.013	1028.788	777.587
26.936	13.127	1027.593	777.150
27.950	13.145	1027.004	776.719
28.965	13.162	1026.450	776.314
29.980	13.195	1025.448	775.640
30.994	13.353	1024.405	775.522
32.009	13.297	1023.665	774.632
33.023	13.543	1022.527	774.856
34.038	13.347	1022.336	773.725
35.053	13.347	1021.475	773.004
36.067	13.217	1020.715	771.753
37.082	13.276	1019.476	771.026
38.096	13.347	1018.428	770.492
39.111	13.353	1017.986	770.118
40.126	13.301	1017.590	769.508
41.140	13.279	1016.274	768.344
42.155	13.147	1015.079	766.760
43.169	13.228	1014.377	766.536
44.184	13.175	1013.443	765.518
45.199	13.165	1012.127	764.410
46.213	13.120	1011.346	763.542
47.228	13.230	1010.360	763.240
48.242	13.201	1009.375	762.296
49.257	13.168	1008.844	761.673
50.271	13.156	1007.866	760.813
51.286	13.211	1006.982	760.331
52.301	13.372	1005.665	760.009
53.315	13.342	1004.889	759.218
54.330	13.359	1004.372	758.837
55.344	13.279	1003.105	757.449
56.359	13.291	1002.349	756.865
57.374	13.217	1001.648	755.932
58.388	13.303	1000.803	755.620
59.403	13.084	1000.077	754.004
60.417	12.976	999.671	753.138
61.432	13.129	998.708	753.044
62.447	13.164	997.938	752.555
63.461	13.061	997.073	751.370
64.476	13.148	996.311	751.124
65.490	13.110	995.532	750.297
66.505	13.067	994.501	749.260
67.520	13.148	993.410	748.737
68.534	13.141	992.969	748.304
69.549	13.205	992.066	747.850
70.563	13.214	991.397	747.318
71.578	13.059	991.183	746.393
72.593	13.175	989.479	745.566
73.607	13.030	989.171	744.612
74.622	13.006	988.320	743.800
75.636	13.067	987.145	743.124
76.651	12.965	987.079	742.548
77.666	13.087	985.746	742.030
78.680	13.136	985.313	741.857
79.695	13.032	984.957	741.055
80.709	13.066	984.176	740.555
81.724	13.028	983.550	739.851
82.739	13.123	982.598	739.491
83.753	13.150	982.048	739.133
84.768	13.157	981.132	738.412
85.782	13.158	980.522	737.891
86.797	13.298	979.823	737.924
87.812	13.373	978.645	737.307
88.826	13.233	978.148	736.242
89.841	13.161	977.760	735.567
90.855	13.363	976.381	735.359
91.870	13.360	975.683	734.758
92.884	13.330	975.103	734.120
93.899	13.310	974.759	733.708
94.914	13.423	973.330	733.068
95.928	13.331	972.578	732.029
96.943	13.342	972.158	731.700
97.957	13.357	971.296	731.049
98.972	13.344	970.308	730.187
99.987	13.384	969.799	729.915
101.001	13.381	969.033	729.260
102.016	13.377	968.388	728.691
103.030	13.462	967.143	728.064
104.045	13.384	966.183	726.934
105.060	13.339	965.641	726.266
106.074	13.271	964.614	725.131
107.089	13.233	964.238	724.616
108.103	13.196	963.170	723.590
109.118	13.080	962.555	722.556
110.133	13.157	961.298	721.882
111.147	13.198	960.741	721.580
112.162	13.108	960.245	720.754
113.176	13.281	958.792	720.351
114.191	13.258	957.974	719.571
115.206	13.219	957.411	718.918
116.220	13.304	956.490	718.531
117.235	13.398	955.587	718.195
118.249	13.361	954.615	717.242
119.264	13.409	953.254	716.363
120.279	13.281	952.919	715.494
121.293	13.390	952.323	715.457
122.308	13.208	951.690	714.131
123.322	13.120	950.977	713.151
124.337	13.133	949.486	712.028
125.352	13.147	948.355	711.176
126.366	13.168	947.677	710.695
127.381	13.180	946.567	709.851
128.395	13.214	945.566	709.183
129.410	13.117	944.667	708.031
130.424	13.165	943.798	707.524
131.439	13.375	942.583	707.448
132.454	13.412	941.887	707.019
133.468	13.305	941.579	706.271
134.483	13.288	940.619	705.414
135.497	13.230	939.965	704.616
136.512	13.214	939.595	704.207
137.527	13.244	938.670	703.578
138.541	13.291	937.619	702.930
139.556	13.272	936.832	702.195
140.570	13.311	936.403	701.977
141.585	13.408	935.301	701.501
142.600	13.440	934.661	701.094
143.614	13.446	933.909	700.492
144.629	13.379	933.438	699.796
145.643	13.475	932.488	699.425
146.658	13.492	931.486	698.684
147.673	13.477	930.532	697.843
148.687	13.423	929.447	696.742
149.702	13.351	929.142	696.149
150.716	13.380	927.883	695.267
151.731	13.348	927.906	695.084
152.746	13.427	926.924	694.623
153.760	13.310	926.186	693.514
154.775	13.431	925.570	693.500
155.789	13.647	924.149	693.277
156.804	13.572	923.645	692.524
157.819	13.623	922.691	691.962
158.833	13.505	922.545	691.297
159.848	13.560	922.031	691.079
160.862	13.557	921.162	690.357
161.877	13.571	920.416	689.795
162.892	13.548	919.780	689.158
163.906	13.449	919.077	688.163
164.921	13.496	917.955	687.457
165.935	13.554	917.075	686.976
166.950	13.650	915.776	686.338
167.964	13.660	914.916	685.676
168.979	13.571	913.918	684.501
169.994	13.519	913.530	683.935
171.008	13.421	912.743	682.880
172.023	13.475	911.773	682.317
173.037	13.514	911.106	681.916
174.052	13.620	910.357	681.733
175.067	13.687	909.531	681.328
176.081	13.537	909.415	680.566
177.096	13.539	908.273	679.658
178.110	13.584	907.423	679.145
179.125	13.604	906.916	678.790
180.140	13.472	906.100	677.579
181.154	13.659	905.095	677.533
182.169	13.748	904.440	677.344
183.183	13.782	903.960	677.063
184.198	13.724	903.573	676.477
185.213	13.783	902.540	675.886
186.227	13.786	902.142	675.538
187.242	13.889	901.830	675.665
188.256	13.757	901.310	674.680
189.271	13.803	900.593	674.270
190.286	13.983	899.551	674.161
191.300	13.868	898.587	672.909
192.315	13.635	898.890	672.133
193.329	13.669	897.484	671.159
194.344	13.629	897.082	670.639
195.359	13.765	896.337	670.573
196.373	13.718	895.880	669.980
197.388	13.914	895.295	670.275
198.402	13.889	894.657	669.638
199.417	13.997	894.411	669.829
200.432	14.050	894.098	669.748
201.446	14.011	893.319	668.948
202.461	14.159	892.770	669.076
203.475	14.178	892.176	668.645
204.490	14.105	892.092	668.230
205.504	14.097	890.925	667.266
206.519	14.081	890.050	666.489
207.534	14.069	889.429	665.915
208.548	14.041	888.788	665.266
209.563	13.997	888.145	664.549
210.577	14.013	887.697	664.219
211.592	14.151	886.673	663.944
212.607	14.205	886.501	663.972
213.621	14.211	886.189	663.702
214.636	14.189	885.259	662.861
215.650	14.118	884.726	662.121
216.665	14.232	883.858	661.866
217.680	14.283	883.434	661.694
218.694	14.312	882.842	661.308
219.709	14.295	882.448	660.883
220.723	14.309	881.905	660.474
221.738	14.271	881.335	659.840
222.753	14.299	880.587	659.330
223.767	14.437	879.496	659.000
224.782	14.436	878.131	657.919
225.796	14.410	877.986	657.649
226.811	14.508	877.612	657.694
227.826	14.315	877.112	656.503
228.840	14.369	876.230	655.996
229.855	14.472	875.457	655.763
230.869	14.334	875.086	654.887
231.884	14.267	874.668	654.252
232.899	14.368	873.874	653.995
233.913	14.450	872.917	653.546
234.928	14.300	872.275	652.417
235.942	14.430	871.730	652.461
236.957	14.384	870.962	651.649
237.972	14.350	870.495	651.109
238.986	14.523	869.672	651.113
240.001	14.307	869.360	649.978
241.015	14.465	868.426	649.838
242.030	14.476	868.085	649.569
243.045	14.538	867.067	648.990
244.059	14.542	866.659	648.644
245.074	14.655	866.108	648.612
246.088	14.438	865.806	647.487
247.103	14.505	865.078	647.143
248.117	14.675	863.950	646.900
249.132	14.568	863.915	646.403
250.147	14.759	862.965	646.373
251.161	14.774	862.241	645.834
252.176	14.703	862.133	645.420
253.190	15.009	860.971	645.675
254.205	14.947	860.646	645.136
255.220	15.039	860.116	645.034
256.234	14.972	858.950	643.847
257.249	15.013	858.303	643.459
258.263	14.974	857.876	642.936
259.278	15.009	857.621	642.821
260.293	14.932	857.273	642.206
261.307	15.120	856.070	641.968
262.322	14.947	856.027	641.219
263.336	15.048	855.356	641.046
264.351	15.037	854.537	640.332
265.366	15.053	854.327	640.178
266.380	15.103	853.613	639.778
267.395	15.091	853.020	639.233
268.409	15.265	851.793	638.918
269.424	15.154	851.258	638.041
270.439	15.165	850.384	637.371
271.453	15.217	849.774	637.052
272.468	15.041	849.091	635.817
273.482	15.144	848.440	635.663
274.497	15.102	848.017	635.129
275.512	15.281	846.984	634.980
276.526	15.096	846.585	633.924
277.541	15.204	845.600	633.539
278.555	15.101	845.477	632.999
279.570	15.090	845.195	632.693
280.585	15.334	844.107	632.741
281.599	15.429	843.557	632.634
282.614	15.350	842.814	631.721
283.628	15.444	842.550	631.821
284.643	15.229	841.808	630.399
285.657	15.344	841.275	630.378
286.672	15.261	841.057	629.847
287.687	15.350	840.567	629.758
288.701	15.475	839.935	629.699
289.716	15.527	839.082	629.200
290.730	15.348	839.030	628.432
291.745	15.443	838.049	627.997
292.760	15.399	837.823	627.609
293.774	15.574	836.803	627.442
294.789	15.526	836.520	626.995
295.803	15.630	835.886	626.853
296.818	15.541	834.975	625.783
297.833	15.527	834.299	625.168
298.847	15.630	833.795	625.119
299.862	15.502	833.335	624.241
300.876	15.514	832.406	623.537
301.891	15.635	831.825	623.494
302.906	15.521	831.295	622.619
303.920	15.717	830.125	622.414
304.935	15.702	829.604	621.913
305.949	15.743	829.405	621.861
306.964	15.687	828.499	620.921
307.979	15.788	828.003	620.864
308.993	15.752	827.643	620.406
310.008	15.766	827.054	619.963
311.022	15.780	826.687	619.686
312.037	15.828	826.217	619.452
313.052	15.734	826.013	618.900
314.066	15.790	825.033	618.316
315.081	15.722	824.558	617.656
316.095	15.834	823.758	617.411
317.110	15.878	823.258	617.145
318.125	15.799	823.032	616.630
319.139	15.851	822.595	616.440
320.154	15.655	822.549	615.634
321.168	15.851	821.621	615.602
322.183	15.943	820.746	615.227
323.197	15.915	820.514	614.896
324.212	15.960	819.437	614.200
325.227	15.829	819.415	613.649
326.241	15.911	818.750	613.396
327.256	15.850	818.449	612.896
328.270	15.846	817.967	612.464
329.285	15.855	817.016	611.732
330.300	15.750	816.586	610.976
331.314	15.914	816.116	611.165
332.329	16.013	815.109	610.714
333.343	16.023	814.493	610.236
334.358	16.093	814.251	610.252
335.373	16.135	813.517	609.799
336.387	16.069	813.089	609.186
337.402	16.071	812.975	609.054
338.416	16.006	812.657	608.527
339.431	16.124	811.540	608.062
340.446	16.139	811.282	607.872
341.460	16.186	810.843	607.656
342.475	16.237	810.022	607.171
343.489	16.354	809.254	606.964
344.504	16.201	809.132	606.267
345.519	16.358	808.565	606.353
346.533	16.322	808.249	605.932
347.548	16.361	807.761	605.655
348.562	16.318	807.273	605.081
349.577	16.347	806.486	604.541
350.592	16.321	805.959	603.999
351.606	16.219	805.830	603.484
352.621	16.254	804.969	602.911
353.635	16.202	804.419	602.260
354.650	16.349	804.292	602.637
355.665	16.444	804.014	602.712
356.679	16.464	803.153	602.085
357.694	16.360	802.887	601.462
358.708	16.436	802.257	601.208
359.723	16.409	801.604	600.568
360.738	16.340	801.285	600.031
361.752	16.365	800.636	599.583
362.767	16.516	800.072	599.642
363.781	16.629	799.760	599.756
364.796	16.611	799.416	599.381
365.810	16.497	799.220	598.776
366.825	16.695	798.569	598.938
367.840	16.578	798.211	598.203
368.854	16.696	797.706	598.186
369.869	16.568	797.560	597.574
370.883	16.697	796.800	597.406
371.898	16.711	796.019	596.817
372.913	16.687	795.460	596.261
373.927	16.649	794.982	595.716
374.942	16.763	794.314	595.565
375.956	16.908	793.550	595.446
376.971	16.831	793.213	594.871
377.986	16.842	792.519	594.336
379.000	16.907	792.242	594.305
380.015	16.992	792.054	594.409
381.029	17.016	791.125	593.742
382.044	17.112	790.274	593.387
383.059	16.820	790.256	592.298
384.073	16.924	789.918	592.356
385.088	16.953	789.356	591.985
386.102	16.925	788.619	591.283
387.117	16.982	788.171	591.093
388.132	16.995	787.486	590.573
389.146	16.877	787.677	590.251
390.161	16.940	787.024	589.928
391.175	16.919	786.948	589.749
392.190	16.999	786.378	589.546
393.205	16.963	785.786	588.926
394.219	17.018	785.033	588.498
395.234	16.944	784.837	588.042
396.248	16.889	784.385	587.461
397.263	16.795	783.750	586.607
398.278	16.947	783.646	587.005
399.292	16.868	782.965	586.170
400.307	17.041	782.563	586.415
401.321	17.180	781.954	586.387
402.336	17.006	781.884	585.681
403.350	16.971	781.648	585.334
404.365	17.012	780.809	584.795
405.380	17.099	780.445	584.769
406.394	17.174	780.245	584.826
407.409	17.205	779.634	584.424
408.423	17.269	778.993	584.109
409.438	17.243	778.426	583.545
410.453	17.280	778.589	583.742
411.467	17.207	778.158	583.116
412.482	17.306	777.456	582.879
413.496	17.425	776.672	582.648
414.511	17.466	776.427	582.551
415.526	17.428	776.418	582.364
416.540	17.444	775.922	581.994
417.555	17.487	775.479	581.756
418.569	17.466	774.719	581.064
419.584	17.446	774.442	580.738
420.599	17.467	773.969	580.402
421.613	113.256	1293.813	1481.378
422.628	96.905	1369.536	1481.448
