DTS Sentinel unit serial number:	SN413079Multiplexer serial number:	ORYXHardware model number:	OX4-SRSoftware version number:	ORYX F/W v4.00 Oryx Data Collector v3.7.2.0data status	okinstallation	princeton_trtdifferential loss correction	single-endedforward channel	channel 3reverse channel	N/Adate	2019/09/16time	21:08:34forward acquisition time	60.00reverse acquisition time	0.00gamma	496.2192k internal	0.2324k external	0.2324temperature offset calibration	0.9934default loss term (dB/km)	0.3790temperature slope calibration	1.0000multiplexer offset coefficient	1.0000multiplexer slope coefficient	1.0000fibre end	0.00T internal ref (°C)	31.87T ext. ref 1 (°C)	0.06T ext. ref 2 (°C)	25.38length (m)	temperature (°C)	Stokes	anti-Stokes-747.200	800.000	-0.018	0.076
-746.185	-135.793	-0.248	0.030
-745.171	-85.990	-0.035	0.011
-744.156	-82.226	-0.179	-0.059
-743.142	-200.000	0.083	0.372
-742.127	-1.788	-0.333	0.237
-741.112	-200.000	-0.033	-0.298
-740.098	-200.000	0.006	-0.100
-739.083	-188.155	-0.154	0.002
-738.069	-166.653	0.261	0.011
-737.054	-200.000	-0.031	0.252
-736.039	-65.705	-0.457	0.185
-735.025	14.125	0.166	-0.130
-734.010	-91.452	-0.046	0.013
-732.996	11.452	-0.089	-0.069
-731.981	-200.000	0.362	0.002
-730.966	-139.415	-0.143	-0.016
-729.952	50.688	-0.204	-0.195
-728.937	216.025	0.163	-0.261
-727.923	325.397	0.071	-0.137
-726.908	120.753	-0.107	-0.134
-725.894	171.574	-0.186	0.270
-724.879	800.000	-0.113	0.335
-723.864	-37.013	-0.362	0.196
-722.850	119.470	-0.065	0.081
-721.835	-126.237	0.420	0.063
-720.821	-200.000	-0.036	-0.184
-719.806	-93.783	0.243	0.067
-718.791	-7.865	-0.126	-0.086
-717.777	-110.957	-0.152	-0.031
-716.762	59.349	0.179	-0.178
-715.748	-200.000	-0.057	0.331
-714.733	-140.772	-0.256	-0.027
-713.718	-197.277	-0.132	0.001
-712.704	-99.390	-0.271	0.069
-711.689	73.641	0.185	0.196
-710.675	800.000	-0.030	0.091
-709.660	4.833	-0.235	-0.174
-708.645	49.312	0.023	-0.022
-707.631	390.435	-0.069	0.143
-706.616	3.360	-0.213	-0.156
-705.602	-3.368	0.291	0.204
-704.587	-81.197	-0.264	-0.088
-703.572	-200.000	-0.006	-0.103
-702.558	-92.223	0.380	0.108
-701.543	51.789	0.287	0.276
-700.529	522.070	-0.123	-0.292
-699.514	-200.000	0.052	0.415
-698.499	-200.000	-0.020	0.583
-697.485	800.000	-0.109	0.367
-696.470	-165.963	-0.219	-0.009
-695.456	-32.394	-0.183	0.103
-694.441	15.021	0.329	0.259
-693.426	14.645	0.308	-0.242
-692.412	-51.012	-0.205	0.097
-691.397	-177.739	-0.416	-0.010
-690.383	800.000	-0.129	-0.383
-689.368	9.468	0.189	-0.144
-688.354	785.960	-0.067	-0.186
-687.339	342.281	0.119	-0.235
-686.324	158.942	-0.117	0.164
-685.310	335.099	-0.062	-0.122
-684.295	260.914	-0.342	-0.596
-683.281	-124.384	-0.329	0.052
-682.266	-200.000	0.037	-0.171
-681.251	51.765	-0.036	-0.034
-680.237	-200.000	0.027	0.345
-679.222	168.649	-0.172	0.247
-678.208	-150.743	-0.311	0.024
-677.193	-85.461	-0.211	-0.066
-676.178	254.142	-0.210	-0.362
-675.164	16.726	-0.347	-0.276
-674.149	48.361	-0.113	0.106
-673.135	96.656	-0.400	0.461
-672.120	-200.000	0.010	0.339
-671.105	-27.792	-0.303	0.177
-670.091	88.788	-0.108	0.121
-669.076	98.706	0.119	0.138
-668.062	-109.409	0.124	-0.026
-667.047	-62.956	-0.293	-0.122
-666.032	224.449	-0.093	0.152
-665.018	800.000	-0.139	0.509
-664.003	175.764	0.115	0.167
-662.989	558.749	0.035	-0.086
-661.974	-22.961	0.089	-0.054
-660.959	-118.391	-0.239	0.043
-659.945	84.156	0.163	-0.179
-658.930	-200.000	-0.013	-0.178
-657.916	83.544	-0.062	0.068
-656.901	-16.721	0.027	-0.017
-655.886	155.542	-0.338	-0.468
-654.872	-200.000	0.028	-0.262
-653.857	731.344	0.028	-0.075
-652.843	800.000	0.092	0.283
-651.828	-200.000	-0.049	-0.219
-650.814	34.002	0.277	0.243
-649.799	80.675	-0.179	0.194
-648.784	-200.000	-0.034	-0.244
-647.770	-121.100	-0.071	-0.012
-646.755	-75.565	0.238	0.085
-645.741	-31.499	0.109	0.062
-644.726	-94.682	-0.223	0.061
-643.711	-137.612	-0.680	0.077
-642.697	-69.213	-0.201	-0.078
-641.682	-49.758	0.115	-0.055
-640.668	-186.323	0.242	0.004
-639.653	621.605	-0.076	-0.191
-638.638	-62.414	0.166	-0.070
-637.624	189.196	0.111	0.167
-636.609	-200.000	-0.020	-0.164
-635.595	755.505	-0.046	-0.125
-634.580	-87.825	-0.395	0.120
-633.565	-92.085	0.297	0.084
-632.551	468.780	0.121	-0.272
-631.536	104.370	-0.309	-0.365
-630.522	-200.000	-0.043	-0.281
-629.507	330.176	-0.156	0.301
-628.492	800.000	0.112	0.391
-627.478	800.000	-0.128	-0.432
-626.463	-85.326	0.279	-0.087
-625.449	-200.000	-0.023	0.194
-624.434	93.675	0.107	-0.122
-623.419	-151.782	0.084	-0.006
-622.405	-200.000	0.017	0.189
-621.390	-55.555	-0.187	0.084
-620.376	-200.000	-0.019	-0.335
-619.361	122.316	0.067	0.084
-618.346	-51.451	0.266	0.125
-617.332	27.412	-0.017	-0.014
-616.317	-4.667	-0.262	-0.182
-615.303	-200.000	-0.008	-0.157
-614.288	-10.458	0.243	-0.162
-613.273	322.779	0.136	0.259
-612.259	164.319	-0.156	0.221
-611.244	-52.763	-0.135	0.062
-610.230	361.844	-0.075	0.150
-609.215	328.205	0.082	0.158
-608.201	-200.000	0.033	-0.180
-607.186	-200.000	-0.054	-0.322
-606.171	-154.213	0.100	0.007
-605.157	121.553	-0.272	-0.340
-604.142	800.000	-0.107	0.346
-603.128	-68.454	-0.252	-0.098
-602.113	-197.471	-0.316	-0.002
-601.098	-111.058	0.106	-0.022
-600.084	-21.567	0.079	0.049
-599.069	29.336	-0.271	-0.231
-598.055	270.719	0.134	-0.237
-597.040	-14.009	-0.228	0.148
-596.025	-79.989	0.286	0.096
-595.011	60.614	-0.243	-0.242
-593.996	-200.000	-0.015	0.384
-592.982	322.641	0.091	0.173
-591.967	-101.880	0.218	0.053
-590.952	192.049	0.068	-0.104
-589.938	-91.385	-0.306	0.088
-588.923	-198.022	-0.234	0.001
-587.909	326.074	-0.047	-0.091
-586.894	-43.498	0.331	0.168
-585.879	-200.000	-0.010	0.358
-584.865	-128.366	0.307	0.044
-583.850	190.254	-0.161	-0.242
-582.836	-90.024	0.176	0.052
-581.821	74.591	-0.109	0.115
-580.806	-200.000	0.002	0.253
-579.792	-15.891	0.121	0.078
-578.777	31.008	-0.046	0.040
-577.763	800.000	-0.015	-0.064
-576.748	155.433	0.043	-0.059
-575.733	-94.892	-0.191	-0.052
-574.719	-95.951	-0.281	-0.075
-573.704	-79.671	-0.154	-0.052
-572.690	-167.553	-0.072	0.003
-571.675	12.392	0.073	-0.056
-570.661	-137.880	0.183	0.021
-569.646	-200.000	-0.025	-0.285
-568.631	-200.000	0.007	-0.138
-567.617	-200.000	-0.028	-0.266
-566.602	-55.313	-0.219	0.099
-565.588	-178.182	0.130	0.003
-564.573	-200.000	0.071	0.317
-563.558	-11.643	-0.040	0.026
-562.544	800.000	0.095	-0.347
-561.529	-93.318	-0.064	0.018
-560.515	-200.000	-0.003	-0.069
-559.500	221.579	-0.176	-0.284
-558.485	-48.830	0.132	-0.064
-557.471	-75.391	0.361	-0.129
-556.456	-95.416	0.309	-0.083
-555.442	1.347	0.122	-0.088
-554.427	-87.995	-0.082	-0.025
-553.412	-3.324	-0.153	-0.107
-552.398	-105.911	-0.314	-0.071
-551.383	-200.000	-0.010	-0.149
-550.369	-88.369	-0.160	0.048
-549.354	24.867	0.136	0.113
-548.339	122.885	0.089	0.112
-547.325	24.199	0.100	-0.082
-546.310	208.838	0.128	-0.200
-545.296	101.289	0.060	-0.070
-544.281	-200.000	-0.026	-0.312
-543.266	-1.449	-0.095	0.067
-542.252	-58.056	0.164	-0.072
-541.237	217.305	-0.176	-0.280
-540.223	-153.904	0.099	-0.007
-539.208	29.328	0.070	0.060
-538.193	56.621	0.082	-0.079
-537.179	-8.161	-0.123	-0.083
-536.164	1.762	-0.040	0.029
-535.150	-74.737	0.244	-0.088
-534.135	304.379	0.171	-0.317
-533.121	82.212	-0.118	-0.128
-532.106	-200.000	0.007	-0.116
-531.091	-29.690	-0.208	-0.119
-530.077	186.258	-0.228	-0.339
-529.062	-76.538	-0.312	-0.110
-528.048	-10.073	0.157	0.104
-527.033	-200.000	0.005	-0.464
-526.018	-72.993	-0.162	0.060
-525.004	-140.180	0.161	-0.017
-523.989	141.697	0.012	0.016
-522.975	334.346	-0.097	0.188
-521.960	-47.031	0.203	-0.099
-520.945	309.424	-0.099	-0.185
-519.931	-200.000	-0.016	0.180
-518.916	180.218	0.189	0.277
-517.902	-200.000	-0.040	0.404
-516.887	270.979	0.143	-0.251
-515.872	-200.000	-0.016	0.204
-514.858	125.788	0.111	-0.140
-513.843	-61.253	0.196	-0.083
-512.829	-57.453	-0.091	0.040
-511.814	-136.588	-0.040	0.005
-510.799	-134.938	-0.403	-0.049
-509.785	800.000	-0.085	0.256
-508.770	-54.540	-0.229	-0.104
-507.756	168.120	0.145	0.207
-506.741	-200.000	-0.055	0.289
-505.726	800.000	-0.005	0.016
-504.712	-86.153	0.216	-0.066
-503.697	-200.000	0.016	-0.269
-502.683	-106.797	-0.273	-0.061
-501.668	-200.000	-0.016	-0.138
-500.653	-110.383	-0.139	-0.029
-499.639	800.000	0.201	0.610
-498.624	118.976	0.231	0.285
-497.610	-0.502	-0.128	-0.091
-496.595	-200.000	-0.008	0.197
-495.581	-140.711	-0.101	-0.010
-494.566	-153.163	-0.244	-0.017
-493.551	180.634	-0.092	-0.134
-492.537	-106.050	0.104	0.023
-491.522	-81.632	0.489	-0.161
-490.508	38.570	-0.028	0.025
-489.493	95.828	0.301	-0.343
-488.478	-200.000	0.052	-0.288
-487.464	-114.646	0.091	0.017
-486.449	65.643	-0.172	-0.174
-485.435	800.000	-0.095	0.268
-484.420	-200.000	-0.020	0.338
-483.405	-13.994	0.326	-0.210
-482.391	-200.000	-0.034	0.216
-481.376	195.878	-0.129	0.197
-480.362	-126.195	0.156	0.023
-479.347	51.487	0.039	0.037
-478.332	42.672	-0.059	-0.054
-477.318	62.205	0.059	0.059
-476.303	3.695	0.204	0.149
-475.289	800.000	0.099	0.289
-474.274	6.796	0.176	0.131
-473.259	152.116	-0.086	0.117
-472.245	-200.000	-0.052	0.302
-471.230	-53.065	0.171	-0.079
-470.216	-168.406	0.297	0.011
-469.201	-106.662	-0.265	0.059
-468.186	182.062	0.153	0.226
-467.172	99.849	0.282	-0.326
-466.157	-200.000	-0.004	0.022
-465.143	800.000	-0.011	0.045
-464.128	-108.683	0.267	0.057
-463.113	-200.000	-0.019	0.121
-462.099	91.411	-0.101	0.113
-461.084	287.780	0.176	-0.318
-460.070	-0.313	0.352	0.250
-459.055	143.049	-0.149	0.197
-458.040	-200.000	-0.041	-0.253
-457.026	-159.929	-0.292	0.016
-456.011	-82.158	-0.276	0.090
-454.997	136.549	-0.138	0.180
-453.982	-20.646	0.200	0.122
-452.968	105.556	-0.167	-0.197
-451.953	153.747	-0.065	0.088
-450.938	520.525	0.132	0.309
-449.924	126.591	0.107	0.135
-448.909	-53.998	-0.289	0.131
-447.895	-200.000	0.012	0.128
-446.880	54.185	-0.224	-0.215
-445.865	-58.586	0.138	0.060
-444.851	65.026	-0.278	-0.281
-443.836	189.405	-0.023	-0.034
-442.822	-200.000	-0.013	-0.118
-441.807	-102.893	0.114	0.027
-440.792	-142.655	0.404	0.039
-439.778	121.461	0.149	0.185
-438.763	19.368	-0.249	-0.199
-437.749	800.000	0.019	0.055
-436.734	785.918	-0.147	0.403
-435.719	-96.556	-0.168	0.044
-434.705	-132.216	0.265	-0.034
-433.690	-152.319	-0.302	-0.022
-432.676	-141.892	0.078	-0.008
-431.661	-200.000	0.028	0.223
-430.646	-83.232	-0.236	0.076
-429.632	-90.659	0.037	-0.011
-428.617	800.000	0.001	0.005
-427.603	-200.000	-0.073	0.513
-426.588	-112.977	0.227	0.045
-425.573	-198.237	-0.238	-0.001
-424.559	583.516	0.046	0.114
-423.544	-155.874	0.488	0.031
-422.530	-36.839	0.051	0.027
-421.515	-138.836	-0.308	-0.033
-420.500	-33.758	-0.185	0.102
-419.486	-80.680	0.365	-0.121
-418.471	434.190	-0.022	0.049
-417.457	103.242	-0.140	-0.164
-416.442	-122.581	0.253	0.041
-415.428	-200.000	-0.022	-0.338
-414.413	67.446	0.162	0.165
-413.398	-200.000	-0.028	0.339
-412.384	-9.848	-0.290	0.193
-411.369	-75.544	-0.293	-0.104
-410.355	-135.334	0.291	-0.035
-409.340	105.923	0.143	-0.169
-408.325	10.524	-0.106	-0.080
-407.311	-40.418	-0.186	0.096
-406.296	-114.589	0.178	-0.034
-405.282	-113.391	-0.232	-0.045
-404.267	164.513	-0.084	0.119
-403.252	-21.372	-0.182	0.111
-402.238	180.783	-0.185	-0.270
-401.223	-25.068	0.378	0.223
-400.209	-200.000	0.010	0.202
-399.194	-132.098	-0.228	0.029
-398.179	-18.326	-0.117	-0.073
-397.165	-19.051	0.335	0.207
-396.150	-101.188	0.161	0.039
-395.136	373.192	0.064	0.129
-394.121	83.224	0.082	0.089
-393.106	-200.000	0.028	0.244
-392.092	800.000	0.049	0.136
-391.077	104.706	0.185	0.217
-390.063	-124.365	0.235	-0.037
-389.048	81.387	0.295	0.318
-388.033	528.254	-0.105	-0.247
-387.019	73.474	0.084	-0.087
-386.004	-200.000	0.022	0.201
-384.990	7.430	0.199	0.148
-383.975	800.000	-0.004	0.013
-382.960	-16.470	-0.125	0.079
-381.946	-200.000	0.093	0.474
-380.931	-200.000	0.013	-0.205
-379.917	7.648	-0.183	0.136
-378.902	-62.728	-0.057	0.023
-377.888	800.000	0.081	0.225
-376.873	-27.932	0.096	-0.056
-375.858	62.059	-0.144	0.143
-374.844	-62.886	-0.237	0.098
-373.829	-22.231	-0.021	0.013
-372.815	-200.000	-0.007	-0.080
-371.800	-80.203	0.218	0.072
-370.785	7.706	0.102	-0.076
-369.771	-143.405	0.319	-0.030
-368.756	-200.000	-0.014	0.357
-367.742	95.587	0.090	0.102
-366.727	-130.819	0.419	-0.056
-365.712	70.318	-0.104	-0.107
-364.698	-71.931	-0.125	0.046
-363.683	570.045	0.078	-0.189
-362.669	800.000	-0.161	0.475
-361.654	-81.581	0.147	0.048
-360.639	-200.000	-0.019	-0.327
-359.625	-200.000	-0.010	0.141
-358.610	218.093	-0.056	0.089
-357.596	-19.677	-0.151	-0.093
-356.581	297.252	0.118	-0.215
-355.566	-126.156	-0.171	-0.025
-354.552	-107.471	-0.076	-0.017
-353.537	800.000	-0.069	0.269
-352.523	195.847	-0.229	-0.346
-351.508	167.556	-0.082	-0.115
-350.493	90.721	-0.230	-0.256
-349.479	178.074	0.236	0.342
-348.464	-59.335	-0.107	-0.046
-347.450	-177.965	-0.584	0.014
-346.435	-165.685	0.170	-0.007
-345.420	27.437	0.159	-0.133
-344.406	-112.040	0.261	0.052
-343.391	-200.000	0.025	-0.145
-342.377	-73.552	0.146	0.053
-341.362	-32.753	0.242	-0.134
-340.348	99.075	-0.056	0.064
-339.333	-70.188	-0.026	0.010
-338.318	16.617	0.028	0.022
-337.304	192.861	0.199	-0.298
-336.289	695.794	0.065	0.169
-335.275	-48.191	0.086	0.041
-334.260	800.000	0.014	-0.043
-333.245	800.000	0.077	-0.284
-332.231	82.096	0.155	0.167
-331.216	513.658	0.050	-0.116
-330.202	800.000	-0.031	-0.112
-329.187	477.287	0.165	0.371
-328.172	532.889	-0.199	0.467
-327.158	2.500	0.200	0.144
-326.143	-147.339	-0.198	0.017
-325.129	-200.000	-0.029	0.129
-324.114	-0.506	-0.175	0.123
-323.099	-21.801	-0.097	0.058
-322.085	-99.450	0.413	0.103
-321.070	-122.267	-0.217	0.035
-320.056	-164.801	-0.124	-0.006
-319.041	90.297	-0.115	-0.127
-318.026	515.117	0.032	-0.075
-317.012	76.580	-0.270	-0.284
-315.997	800.000	0.034	0.136
-314.983	-200.000	-0.008	-0.220
-313.968	-200.000	0.043	-0.488
-312.953	9.775	0.193	-0.145
-311.939	11.924	0.305	-0.233
-310.924	-200.000	-0.090	-0.505
-309.910	257.820	-0.182	0.311
-308.895	11.092	-0.238	0.180
-307.880	800.000	0.088	-0.316
-306.866	-0.600	-0.225	-0.158
-305.851	166.166	-0.016	0.023
-304.837	220.390	0.032	-0.051
-303.822	800.000	-0.026	-0.103
-302.807	209.052	0.136	0.211
-301.793	800.000	-0.093	-0.319
-300.778	-55.856	-0.160	-0.071
-299.764	-200.000	0.029	0.212
-298.749	800.000	-0.144	0.417
-297.735	203.664	-0.032	0.049
-296.720	800.000	0.051	0.163
-295.705	-13.653	-0.282	0.181
-294.691	800.000	0.039	0.124
-293.676	213.518	-0.248	-0.389
-292.662	-18.893	0.084	0.052
-291.647	-24.411	-0.101	0.060
-290.632	-200.000	-0.094	0.555
-289.618	800.000	0.045	-0.127
-288.603	368.862	0.134	-0.269
-287.589	80.734	-0.105	-0.113
-286.574	-200.000	-0.007	-0.122
-285.559	-139.443	0.377	0.040
-284.545	-90.567	-0.115	-0.033
-283.530	-105.081	-0.417	-0.095
-282.516	-200.000	-0.051	-0.269
-281.501	-85.615	-0.138	-0.042
-280.486	-111.873	-0.101	0.020
-279.472	-132.788	0.139	-0.018
-278.457	21.079	0.159	-0.128
-277.443	-141.132	0.186	-0.019
-276.428	800.000	0.023	0.069
-275.413	-27.814	0.148	0.085
-274.399	-54.747	-0.117	0.052
-273.384	-104.002	0.635	-0.147
-272.370	196.498	-0.180	-0.271
-271.355	-200.000	0.027	0.000
-270.340	448.869	0.053	-0.115
-269.326	110.818	0.265	-0.315
-268.311	-200.000	0.002	0.235
-267.297	-151.466	0.235	-0.017
-266.282	-200.000	0.026	-0.129
-265.267	-79.361	-0.188	-0.063
-264.253	12.628	0.097	-0.074
-263.238	-32.705	-0.298	-0.164
-262.224	-15.758	-0.127	-0.080
-261.209	-200.000	0.012	-0.265
-260.195	-24.690	-0.045	0.026
-259.180	135.851	0.056	-0.072
-258.165	-87.348	-0.068	-0.020
-257.151	-200.000	0.023	-0.287
-256.136	-36.348	-0.139	-0.074
-255.122	396.978	0.152	0.313
-254.107	-200.000	-0.050	0.352
-253.092	-200.000	0.022	0.129
-252.078	-60.364	-0.209	-0.088
-251.063	-200.000	0.014	0.215
-250.049	70.000	-0.216	-0.221
-249.034	93.457	-0.152	0.170
-248.019	-200.000	0.030	-0.138
-247.005	-138.888	0.064	0.007
-245.990	337.904	0.080	0.154
-244.976	-35.720	0.260	0.140
-243.961	125.218	0.164	0.205
-242.946	-200.000	0.043	-0.295
-241.932	800.000	0.061	-0.250
-240.917	-200.000	0.035	0.302
-239.903	-70.732	-0.221	0.083
-238.888	-200.000	0.049	-0.327
-237.873	-200.000	-0.011	-0.127
-236.859	77.306	-0.183	0.192
-235.844	-200.000	0.020	0.351
-234.830	125.498	-0.134	0.167
-233.815	-200.000	0.018	0.206
-232.800	800.000	0.026	-0.099
-231.786	342.943	0.222	-0.429
-230.771	-42.883	-0.163	-0.082
-229.757	-15.214	-0.145	-0.092
-228.742	778.897	0.067	0.182
-227.727	-116.364	-0.141	0.026
-226.713	351.757	-0.218	-0.427
-225.698	-29.715	-0.199	0.112
-224.684	-0.007	0.284	-0.200
-223.669	-103.813	-0.251	0.058
-222.655	5.430	0.052	0.038
-221.640	122.863	-0.050	-0.062
-220.625	578.885	0.071	0.172
-219.611	148.096	0.085	0.114
-218.596	110.383	-0.185	-0.220
-217.582	-170.498	-0.135	0.005
-216.567	353.818	0.076	-0.150
-215.552	-85.061	0.257	-0.080
-214.538	-48.857	-0.051	-0.024
-213.523	-41.701	0.059	0.030
-212.509	342.517	-0.152	0.294
-211.494	-138.285	0.443	-0.048
-210.479	111.999	-0.191	0.228
-209.465	712.282	0.105	0.276
-208.450	-99.791	0.106	-0.026
-207.436	800.000	0.070	-0.215
-206.421	-118.820	-0.181	-0.031
-205.406	155.313	-0.117	-0.159
-204.392	-95.933	0.175	-0.046
-203.377	128.522	-0.183	-0.230
-202.363	87.994	-0.197	-0.215
-201.348	42.019	0.306	0.275
-200.333	-200.000	-0.004	0.113
-199.319	-23.505	0.286	-0.170
-198.304	-200.000	0.038	-0.171
-197.290	-61.167	0.197	-0.082
-196.275	-200.000	0.013	0.180
-195.260	43.250	0.185	0.167
-194.246	-200.000	0.014	0.137
-193.231	-84.273	0.156	0.049
-192.217	23.151	0.199	-0.162
-191.202	-85.029	-0.064	0.020
-190.187	-157.933	-0.537	-0.031
-189.173	-67.863	-0.295	-0.114
-188.158	-200.000	0.008	-0.061
-187.144	-140.567	0.185	-0.019
-186.129	-196.468	-0.494	-0.003
-185.114	132.585	0.302	-0.384
-184.100	-200.000	0.008	-0.093
-183.085	122.009	-0.195	-0.241
-182.071	-166.434	-0.185	0.008
-181.056	-200.000	-0.012	-0.213
-180.042	-163.474	0.450	-0.021
-179.027	-46.582	-0.121	-0.059
-178.012	87.432	0.241	0.263
-176.998	-61.061	0.324	0.135
-175.983	-200.000	-0.033	-0.214
-174.969	9.571	-0.214	-0.160
-173.954	-86.067	-0.042	0.013
-172.939	-68.164	-0.338	-0.130
-171.925	-46.473	-0.305	0.148
-170.910	-48.173	-0.228	0.109
-169.896	-22.403	-0.185	0.111
-168.881	-200.000	0.005	0.520
-167.866	-46.003	-0.033	0.016
-166.852	306.955	0.238	-0.437
-165.837	-200.000	-0.003	-0.183
-164.823	-119.794	0.327	0.056
-163.808	-200.000	0.009	-0.049
-162.793	60.021	-0.076	0.074
-161.779	800.000	0.068	-0.197
-160.764	800.000	-0.080	-0.260
-159.750	800.000	0.066	-0.199
-158.735	-89.977	0.209	0.060
-157.720	800.000	0.042	0.157
-156.706	26.385	0.262	0.216
-155.691	70.485	-0.097	-0.099
-154.677	165.712	0.128	0.178
-153.662	-0.684	0.118	0.082
-152.647	515.172	-0.133	0.306
-151.633	20.175	-0.316	0.251
-150.618	438.671	0.114	-0.246
-149.604	-145.178	-0.127	0.011
-148.589	-25.346	-0.085	-0.049
-147.574	-104.705	0.341	0.077
-146.560	-72.340	-0.278	0.101
-145.545	-92.170	0.300	-0.083
-144.531	57.977	0.057	0.055
-143.516	-74.288	-0.161	-0.057
-142.502	388.105	0.150	-0.307
-141.487	-52.447	0.236	-0.108
-140.472	800.000	-0.114	0.335
-139.458	-37.732	-0.261	-0.137
-138.443	-200.000	0.002	0.046
-137.429	19.699	-0.187	-0.148
-136.414	800.000	-0.096	-0.268
-135.399	-200.000	0.017	0.147
-134.385	45.122	0.110	0.100
-133.370	-50.943	0.144	-0.066
-132.356	-200.000	-0.003	-0.107
-131.341	58.693	-0.336	0.325
-130.326	-200.000	0.068	0.320
-129.312	-36.961	0.302	0.160
-128.297	-88.866	-0.070	-0.021
-127.283	170.370	0.062	-0.088
-126.268	99.797	-0.059	0.067
-125.253	-80.970	-0.296	-0.097
-124.239	-27.843	0.058	0.033
-123.224	58.019	0.098	-0.094
-122.210	800.000	0.151	-0.425
-121.195	-107.655	0.179	0.039
-120.180	798.241	-0.121	-0.328
-119.166	-89.860	-0.106	0.031
-118.151	-27.154	0.102	0.059
-117.137	344.946	0.214	-0.413
-116.122	239.989	0.071	0.117
-115.107	211.745	0.121	-0.188
-114.093	-46.755	-0.084	0.041
-113.078	-38.540	-0.204	-0.106
-112.064	-176.711	0.499	-0.013
-111.049	800.000	0.161	0.462
-110.034	-200.000	-0.041	0.497
-109.020	15.819	0.053	0.041
-108.005	-89.207	0.125	-0.036
-106.991	-66.222	0.351	0.138
-105.976	147.792	-0.060	0.079
-104.962	-106.940	-0.296	-0.064
-103.947	35.730	0.071	-0.061
-102.932	-28.677	-0.150	-0.085
-101.918	171.566	0.095	-0.134
-100.903	-200.000	-0.040	-0.256
-99.889	-111.291	-0.223	-0.045
-98.874	-36.002	0.201	-0.107
-97.859	-200.000	0.005	0.081
-96.845	-78.156	-0.259	0.088
-95.830	4.306	-0.110	0.079
-94.816	61.277	-0.187	-0.183
-93.801	-20.407	0.558	-0.337
-92.786	800.000	0.070	0.245
-91.772	94.104	0.060	-0.067
-90.757	800.000	0.077	-0.284
-89.743	294.156	0.104	0.187
-88.728	12.833	0.150	-0.114
-87.713	312.478	0.075	0.138
-86.699	-31.481	-0.027	-0.015
-85.684	95.358	0.191	0.214
-84.670	-32.999	0.233	-0.127
-83.655	151.210	0.357	-0.477
-82.640	78.822	-0.397	-0.418
-81.626	-63.968	-0.313	-0.126
-80.611	98.504	0.182	0.206
-79.597	28.274	0.212	-0.176
-78.582	800.000	-0.117	0.391
-77.567	36.121	0.102	-0.088
-76.553	-200.000	-0.023	-0.169
-75.538	79.068	-0.101	0.107
-74.524	-200.000	0.014	-0.129
-73.509	800.000	-0.112	-0.310
-72.494	150.046	0.119	-0.158
-71.480	17.894	0.192	-0.150
-70.465	-138.873	0.158	-0.017
-69.451	-46.955	-0.088	0.042
-68.436	-200.000	0.003	0.069
-67.422	-200.000	0.028	0.260
-66.407	-200.000	-0.023	-0.303
-65.392	149.593	0.331	-0.440
-64.378	90.129	-0.093	-0.102
-63.363	800.000	-0.076	0.262
-62.349	157.662	-0.216	0.294
-61.334	464.609	-0.444	-0.977
-60.319	620.849	0.150	0.372
-59.305	-200.000	-0.122	-0.785
-58.290	490.414	0.489	1.098
-57.276	345.720	0.676	1.306
-56.261	-200.000	96.905	592.188
-55.246	542.472	1380.822	3234.905
-54.232	162.802	2545.255	3510.167
-53.217	111.990	2152.908	2554.975
-52.203	42.471	1696.685	1515.992
-51.188	35.185	1507.863	1298.098
-50.173	32.706	1480.999	1258.398
-49.159	52.226	1530.331	1433.178
-48.144	54.085	1548.335	1462.600
-47.130	35.251	1508.445	1298.839
-46.115	32.140	1493.951	1265.385
-45.100	32.010	1489.641	1260.813
-44.086	31.913	1488.319	1258.995
-43.071	31.876	1486.509	1257.163
-42.057	31.865	1484.968	1255.738
-41.042	31.898	1483.223	1254.436
-40.027	31.952	1481.855	1253.588
-39.013	31.811	1481.050	1251.915
-37.998	31.885	1479.302	1250.882
-36.984	31.899	1478.045	1249.860
-35.969	31.859	1476.661	1248.376
-34.954	31.731	1475.364	1246.376
-33.940	31.900	1474.407	1246.644
-32.925	31.993	1472.534	1245.630
-31.911	31.938	1471.563	1244.388
-30.896	31.923	1470.111	1243.014
-29.881	32.017	1468.464	1242.194
-28.867	31.865	1467.526	1240.348
-27.852	31.937	1465.878	1239.383
-26.838	31.954	1464.610	1238.370
-25.823	31.949	1462.942	1236.878
-24.809	31.942	1461.467	1235.535
-23.794	31.928	1459.944	1234.109
-22.779	31.918	1459.150	1233.324
-21.765	31.893	1457.827	1231.990
-20.750	31.907	1456.595	1230.995
-19.736	31.908	1455.836	1230.307
-18.721	31.892	1454.743	1229.231
-17.706	31.817	1453.482	1227.625
-16.692	31.796	1452.567	1226.667
-15.677	31.996	1451.087	1226.676
-14.663	31.844	1450.411	1225.066
-13.648	31.859	1449.259	1224.138
-12.633	31.871	1448.806	1223.783
-11.619	31.858	1447.561	1222.602
-10.604	31.879	1446.616	1221.890
-9.590	31.704	1445.991	1220.177
-8.575	31.841	1444.565	1219.812
-7.560	31.863	1443.576	1219.072
-6.546	31.777	1443.342	1218.270
-5.531	31.841	1442.132	1217.614
-4.517	31.798	1441.589	1216.831
-3.502	31.848	1440.179	1215.916
-2.487	31.808	1439.022	1214.633
-1.473	31.849	1437.930	1213.923
-0.458	31.870	1436.716	1212.987
0.556	29.734	1427.404	1201.115
1.571	26.557	1402.150	1159.448
2.586	22.893	1341.690	1086.853
3.600	21.011	1261.002	1010.509
4.615	19.893	1215.659	967.835
5.629	17.110	1160.113	908.662
6.644	8.582	1074.964	799.433
7.659	1.336	1033.616	733.695
8.673	0.233	1027.751	724.167
9.688	0.123	1024.885	721.555
10.702	-0.095	1023.417	719.417
11.717	-0.020	1021.435	718.316
12.731	2.650	1024.381	733.108
13.746	11.088	1035.900	781.956
14.761	17.371	1043.350	817.809
15.775	17.373	1042.222	816.864
16.790	16.356	1040.082	810.235
17.804	15.309	1037.902	803.451
18.819	14.484	1035.830	797.830
19.834	14.160	1034.416	795.123
20.848	13.829	1033.457	792.737
21.863	13.603	1032.973	791.217
22.877	13.370	1031.740	789.087
23.892	12.971	1031.731	787.108
24.907	13.089	1030.109	786.366
25.921	13.058	1029.815	785.922
26.936	13.042	1029.279	785.368
27.950	13.194	1028.397	785.348
28.965	13.140	1027.716	784.501
29.980	13.246	1026.539	784.035
30.994	13.301	1025.712	783.596
32.009	13.292	1025.124	783.035
33.023	13.280	1024.646	782.543
34.038	13.362	1023.688	782.130
35.053	13.175	1023.320	780.895
36.067	13.206	1022.261	780.166
37.082	13.218	1021.390	779.489
38.096	13.277	1020.434	778.969
39.111	13.148	1020.444	778.300
40.126	13.246	1019.598	778.046
41.140	13.249	1018.079	776.833
42.155	13.111	1017.295	775.516
43.169	13.034	1016.247	774.287
44.184	12.979	1015.188	773.158
45.199	13.068	1014.123	772.692
46.213	13.058	1013.282	771.936
47.228	13.055	1012.629	771.359
48.242	13.121	1011.438	770.690
49.257	13.202	1010.207	770.062
50.271	13.053	1009.785	768.979
51.286	13.179	1008.974	768.877
52.301	13.315	1007.525	768.337
53.315	13.276	1007.141	767.797
54.330	13.196	1006.499	766.869
55.344	13.125	1005.750	765.898
56.359	13.011	1005.083	764.798
57.374	13.003	1004.293	764.090
58.388	13.099	1003.113	763.568
59.403	13.033	1002.361	762.621
60.417	13.110	1001.366	762.155
61.432	13.060	1000.746	761.385
62.447	13.175	999.753	761.091
63.461	12.941	999.030	759.397
64.476	12.935	998.235	758.695
65.490	13.012	997.354	758.314
66.505	13.023	996.591	757.719
67.520	12.987	995.959	757.004
68.534	12.876	995.151	755.813
69.549	13.036	994.579	756.049
70.563	12.982	993.925	755.237
71.578	13.070	993.148	754.979
72.593	12.843	992.841	753.641
73.607	13.005	991.190	753.064
74.622	12.819	990.582	751.687
75.636	12.842	989.746	751.089
76.651	12.860	988.574	750.214
77.666	12.936	987.797	749.904
78.680	12.856	987.641	749.355
79.695	12.989	986.671	749.158
80.709	13.016	985.976	748.685
81.724	13.049	985.012	748.037
82.739	13.176	984.680	748.296
83.753	13.128	983.903	747.420
84.768	13.049	983.442	746.645
85.782	13.251	982.514	746.790
86.797	13.263	981.749	746.194
87.812	13.239	980.785	745.291
88.826	13.134	980.083	744.217
89.841	13.200	979.336	743.881
90.855	13.105	978.584	742.816
91.870	13.203	977.928	742.693
92.884	13.155	977.647	742.198
93.899	13.324	976.495	742.019
94.914	13.240	975.783	741.033
95.928	13.317	975.097	740.791
96.943	13.326	974.409	740.241
97.957	13.300	973.706	739.526
98.972	13.246	972.554	738.347
99.987	13.217	971.936	737.683
101.001	13.362	971.296	737.777
102.016	13.291	970.279	736.625
103.030	13.317	969.681	736.222
104.045	13.245	968.641	735.048
105.060	13.218	968.017	734.387
106.074	13.190	967.043	733.460
107.089	13.148	966.345	732.676
108.103	13.107	964.993	731.405
109.118	13.051	964.094	730.411
110.133	13.063	963.284	729.787
111.147	13.020	962.636	729.043
112.162	13.174	961.331	728.671
113.176	13.093	960.686	727.757
114.191	13.134	960.058	727.397
115.206	13.235	958.967	726.954
116.220	13.096	958.792	726.143
117.235	13.210	957.672	725.734
118.249	13.139	956.735	724.648
119.264	13.125	955.930	723.912
120.279	13.139	955.074	723.262
121.293	13.124	954.792	722.916
122.308	13.120	953.657	721.977
123.322	13.123	952.746	721.236
124.337	13.050	952.008	720.293
125.352	13.073	950.920	719.506
126.366	13.008	949.900	718.391
127.381	13.147	948.325	717.738
128.395	13.057	947.970	717.014
129.410	13.080	947.010	716.326
130.424	13.064	946.103	715.510
131.439	13.202	944.928	715.152
132.454	13.181	944.145	714.405
133.468	13.221	943.319	713.889
134.483	13.212	942.971	713.525
135.497	13.266	942.476	713.319
136.512	13.107	941.602	711.912
137.527	13.131	940.863	711.392
138.541	13.210	940.119	711.105
139.556	13.266	939.213	710.598
140.570	13.054	939.286	709.682
141.585	13.219	937.703	709.129
142.600	13.247	936.982	708.640
143.614	13.253	936.097	707.936
144.629	13.348	935.679	707.965
145.643	13.317	935.200	707.405
146.658	13.408	934.052	706.864
147.673	13.429	932.869	705.997
148.687	13.343	932.096	704.982
149.702	13.213	931.225	703.708
150.716	13.279	930.138	703.104
151.731	13.243	929.522	702.422
152.746	13.273	928.703	701.868
153.760	13.257	928.327	701.455
154.775	13.214	927.454	700.552
155.789	13.326	926.557	700.288
156.804	13.251	926.063	699.534
157.819	13.359	925.152	699.241
158.833	13.510	924.356	699.214
159.848	13.521	923.813	698.786
160.862	13.423	923.640	698.181
161.877	13.486	922.593	697.592
162.892	13.481	921.443	696.642
163.906	13.355	920.752	695.528
164.921	13.316	920.099	694.808
165.935	13.389	918.833	694.098
166.950	13.332	918.062	693.214
167.964	13.346	916.950	692.371
168.979	13.378	916.568	692.157
169.994	13.479	915.485	691.697
171.008	13.236	915.225	690.425
172.023	13.493	913.664	690.260
173.037	13.543	913.186	690.045
174.052	13.605	912.195	689.495
175.067	13.534	911.638	688.715
176.081	13.354	910.958	687.395
177.096	13.425	909.914	686.841
178.110	13.508	909.315	686.672
179.125	13.463	908.629	685.907
180.140	13.408	908.110	685.228
181.154	13.480	907.631	685.103
182.169	13.482	906.849	684.459
183.183	13.605	906.272	684.471
184.198	13.647	905.551	684.040
185.213	13.536	904.708	682.886
186.227	13.637	904.328	682.955
187.242	13.595	904.170	682.601
188.256	13.694	903.187	682.206
189.271	13.650	902.211	681.229
190.286	13.634	901.569	680.617
191.300	13.577	901.135	679.995
192.315	13.499	900.055	678.799
193.329	13.471	899.328	678.076
194.344	13.506	898.388	677.450
195.359	13.526	897.998	677.178
196.373	13.760	897.760	677.894
197.388	13.515	897.392	676.558
198.402	13.688	896.942	676.863
199.417	13.705	896.800	676.768
200.432	14.025	895.929	677.352
201.446	13.822	895.627	676.241
202.461	13.849	894.777	675.646
203.475	13.964	894.316	675.706
204.490	13.960	893.576	675.070
205.504	13.900	892.999	674.332
206.519	13.900	891.913	673.452
207.534	13.918	891.274	672.982
208.548	13.865	890.580	672.184
209.563	13.889	890.126	671.880
210.577	13.867	889.234	671.059
211.592	13.951	888.786	670.999
212.607	13.972	888.267	670.635
213.621	13.907	888.003	670.113
214.636	14.014	887.278	669.938
215.650	14.101	886.325	669.507
216.665	14.142	885.818	669.231
217.680	14.120	885.288	668.684
218.694	14.090	884.949	668.249
219.709	14.149	884.481	668.073
220.723	14.144	883.883	667.542
221.738	14.206	882.856	666.955
222.753	14.254	881.840	666.320
223.767	14.203	881.354	665.691
224.782	14.240	880.550	665.172
225.796	14.248	880.131	664.828
226.811	14.257	879.360	664.226
227.826	14.218	878.750	663.549
228.840	14.271	878.100	663.209
229.855	14.306	877.296	662.685
230.869	14.161	876.965	661.800
231.884	14.192	876.003	661.139
232.899	14.237	875.208	660.656
233.913	14.123	874.704	659.768
234.928	14.261	873.930	659.673
235.942	14.139	873.571	658.860
236.957	14.219	872.530	658.330
237.972	14.192	872.136	657.870
238.986	14.138	871.449	657.081
240.001	14.224	870.552	656.686
241.015	14.311	870.049	656.592
242.030	14.274	869.520	655.989
243.045	14.303	868.893	655.570
244.059	14.301	868.275	655.040
245.074	14.464	867.645	655.145
246.088	14.389	867.174	654.439
247.103	14.459	866.400	654.071
248.117	14.433	865.908	653.538
249.132	14.598	865.588	653.887
250.147	14.592	864.778	653.192
251.161	14.684	864.403	653.212
252.176	14.754	863.460	652.715
253.190	14.708	862.649	651.865
254.205	14.803	862.386	651.980
255.220	14.686	861.796	651.017
256.234	14.807	860.930	650.780
257.249	14.683	860.586	649.979
258.263	14.727	860.144	649.759
259.278	14.781	859.397	649.348
260.293	14.776	859.040	648.998
261.307	14.773	858.693	648.669
262.322	14.776	858.180	648.236
263.336	14.926	857.622	648.336
264.351	14.981	856.732	647.819
265.366	14.944	856.072	647.121
266.380	14.882	855.520	646.407
267.395	14.990	855.055	646.415
268.409	14.920	854.215	645.455
269.424	14.823	853.498	644.478
270.439	14.993	852.594	644.394
271.453	14.906	852.376	643.837
272.468	14.892	851.483	643.052
273.482	14.946	850.970	642.815
274.497	14.924	850.214	642.103
275.512	14.932	849.798	641.762
276.526	15.021	848.753	641.260
277.541	14.960	848.347	640.661
278.555	14.981	847.881	640.332
279.570	14.915	847.578	639.796
280.585	15.076	846.667	639.665
281.599	15.194	845.774	639.384
282.614	15.045	845.457	638.520
283.628	15.150	844.592	638.211
284.643	15.216	844.289	638.176
285.657	15.075	843.736	637.167
286.672	14.995	843.575	636.685
287.687	15.161	842.833	636.698
288.701	15.188	842.413	636.428
289.716	15.152	841.883	635.833
290.730	15.148	841.242	635.278
291.745	15.274	840.507	635.145
292.760	15.314	839.739	634.658
293.774	15.352	839.153	634.305
294.789	15.159	838.843	633.282
295.803	15.365	838.014	633.379
296.818	15.274	837.605	632.673
297.833	15.399	836.900	632.553
298.847	15.343	836.220	631.773
299.862	15.457	835.582	631.665
300.876	15.344	834.881	630.653
301.891	15.398	834.323	630.380
302.906	15.361	833.790	629.781
303.920	15.486	833.029	629.619
304.935	15.483	832.555	629.197
305.949	15.525	831.583	628.563
306.964	15.503	831.564	628.407
307.979	15.493	830.895	627.812
308.993	15.556	830.234	627.491
310.008	15.490	830.266	627.213
311.022	15.546	829.404	626.716
312.037	15.683	828.957	626.834
313.052	15.450	828.403	625.490
314.066	15.599	827.710	625.466
315.081	15.418	827.549	624.615
316.095	15.596	826.325	624.299
317.110	15.505	826.161	623.781
318.125	15.606	825.495	623.599
319.139	15.628	825.083	623.312
320.154	15.515	824.594	622.471
321.168	15.608	824.105	622.389
322.183	15.700	823.376	622.124
323.197	15.684	823.117	621.814
324.212	15.719	822.486	621.411
325.227	15.675	821.727	620.621
326.241	15.762	821.408	620.647
327.256	15.563	820.812	619.409
328.270	15.656	820.108	619.166
329.285	15.561	819.890	618.596
330.300	15.643	819.271	618.376
331.314	15.668	818.666	617.955
332.329	15.789	817.895	617.764
333.343	15.747	817.264	617.079
334.358	15.761	816.856	616.767
335.373	15.872	816.147	616.582
336.387	15.941	815.540	616.324
337.402	15.934	815.212	615.993
338.416	16.010	814.199	615.454
339.431	16.015	814.168	615.393
340.446	16.020	813.402	614.779
341.460	15.978	813.136	614.368
342.475	16.088	812.577	614.294
343.489	16.173	812.113	614.196
344.504	16.082	811.554	613.389
345.519	16.122	810.870	612.964
346.533	16.172	810.523	612.827
347.548	16.325	809.481	612.541
348.562	16.260	809.346	612.149
349.577	15.986	809.233	611.018
350.592	16.111	808.475	610.843
351.606	16.045	807.911	610.123
352.621	15.959	807.795	609.671
353.635	16.125	807.115	609.703
354.650	16.283	806.743	609.939
355.665	16.159	806.086	608.942
356.679	16.335	805.596	609.151
357.694	16.146	805.430	608.292
358.708	16.237	804.483	607.851
359.723	16.285	804.181	607.740
360.738	16.241	803.750	607.202
361.752	16.383	803.051	607.131
362.767	16.511	802.360	607.014
363.781	16.236	802.437	606.031
364.796	16.260	802.468	606.088
365.810	16.480	801.174	605.846
366.825	16.607	800.970	606.093
367.840	16.529	800.773	605.610
368.854	16.500	800.330	605.117
369.869	16.428	799.967	604.534
370.883	16.494	799.212	604.144
371.898	16.526	798.798	603.892
372.913	16.519	798.318	603.452
373.927	16.495	797.738	602.872
374.942	16.677	796.767	602.733
375.956	16.437	796.220	601.414
376.971	16.757	795.471	601.934
377.986	16.753	795.078	601.566
379.000	16.599	794.834	600.782
380.015	16.585	794.515	600.440
381.029	16.701	793.979	600.391
382.044	16.707	793.195	599.766
383.059	16.712	792.838	599.463
384.073	16.740	792.638	599.354
385.088	16.680	791.871	598.512
386.102	16.793	791.066	598.249
387.117	16.691	790.389	597.326
388.132	16.661	790.120	596.962
389.146	16.722	789.924	596.976
390.161	16.875	789.177	596.896
391.175	16.693	789.017	596.083
392.190	16.810	788.612	596.135
393.205	16.636	788.569	595.437
394.219	16.723	787.867	595.163
395.234	16.821	787.229	594.971
396.248	16.767	786.845	594.437
397.263	16.821	786.224	594.107
398.278	16.677	785.894	593.300
399.292	16.627	785.453	592.739
400.307	16.851	784.781	592.964
401.321	16.880	784.421	592.740
402.336	16.773	784.325	592.242
403.350	16.830	784.080	592.202
404.365	16.878	783.827	592.129
405.380	17.044	782.620	591.740
406.394	17.025	782.311	591.389
407.409	16.967	782.263	591.099
408.423	17.017	781.935	590.974
409.438	16.954	781.271	590.201
410.453	16.993	780.927	590.022
411.467	17.242	780.078	590.195
412.482	17.096	780.038	589.607
413.496	17.225	779.457	589.563
414.511	17.219	778.974	589.123
415.526	17.229	778.634	588.850
416.540	17.165	778.437	588.426
417.555	17.210	777.910	588.130
418.569	17.236	777.519	587.872
419.584	17.267	777.016	587.549
420.599	17.328	776.290	587.158
421.613	108.109	1287.230	1462.179
422.628	92.362	1361.684	1462.281
