DTS Sentinel unit serial number:	SN413079Multiplexer serial number:	ORYXHardware model number:	OX4-SRSoftware version number:	ORYX F/W v4.00 Oryx Data Collector v3.7.2.0data status	okinstallation	princeton_trtdifferential loss correction	single-endedforward channel	channel 3reverse channel	N/Adate	2019/09/12time	12:10:11forward acquisition time	60.00reverse acquisition time	0.00gamma	496.2192k internal	0.2292k external	0.2292temperature offset calibration	1.0044default loss term (dB/km)	0.3790temperature slope calibration	1.0000multiplexer offset coefficient	1.0000multiplexer slope coefficient	1.0000fibre end	0.00T internal ref (°C)	40.56T ext. ref 1 (°C)	2.03T ext. ref 2 (°C)	36.19length (m)	temperature (°C)	Stokes	anti-Stokes-747.200	-26.191	-0.179	0.107
-746.185	768.595	-0.133	0.369
-745.171	-15.970	-0.381	0.248
-744.156	-200.000	-0.046	0.248
-743.142	-200.000	0.038	-0.322
-742.127	-200.000	0.003	0.032
-741.112	-119.002	-0.328	-0.059
-740.098	800.000	-0.083	0.271
-739.083	800.000	0.024	-0.104
-738.069	26.260	-0.324	0.277
-737.054	800.000	0.022	0.075
-736.039	-125.663	0.176	0.027
-735.025	247.889	-0.181	0.313
-734.010	-31.682	-0.216	-0.124
-732.996	-166.182	-0.095	-0.004
-731.981	545.103	-0.100	-0.244
-730.966	-4.533	0.043	0.031
-729.952	110.124	0.169	-0.207
-728.937	400.939	0.121	0.259
-727.923	-160.920	-0.223	-0.012
-726.908	-134.212	0.187	0.024
-725.894	-106.956	-0.005	-0.001
-724.879	800.000	-0.072	0.256
-723.864	-181.684	-0.187	0.004
-722.850	-137.871	0.206	-0.024
-721.835	-158.617	-0.564	-0.033
-720.821	-26.232	0.272	0.164
-719.806	427.653	0.142	-0.314
-718.791	-160.273	0.207	0.011
-717.777	-56.185	0.426	0.194
-716.762	27.488	-0.262	-0.225
-715.748	-51.769	-0.164	-0.078
-714.733	-200.000	-0.056	-0.339
-713.718	7.445	-0.087	0.066
-712.704	26.991	0.225	0.193
-711.689	-200.000	0.027	0.231
-710.675	223.965	-0.082	0.135
-709.660	800.000	-0.014	0.054
-708.645	58.319	-0.223	-0.224
-707.631	211.373	0.050	0.080
-706.616	363.500	0.055	-0.113
-705.602	89.860	0.108	0.124
-704.587	-187.947	-0.417	0.006
-703.572	-44.829	-0.436	0.222
-702.558	35.267	-0.064	0.057
-701.543	800.000	-0.042	0.172
-700.529	-54.449	0.217	0.101
-699.514	3.987	-0.266	-0.199
-698.499	-31.215	0.317	-0.182
-697.485	-200.000	-0.032	0.243
-696.470	76.859	-0.136	-0.147
-695.456	-107.740	0.188	0.042
-694.441	-21.651	-0.204	-0.127
-693.426	101.990	-0.053	0.063
-692.412	-200.000	-0.010	-0.319
-691.397	-51.848	-0.050	-0.024
-690.383	-200.000	-0.082	-0.425
-689.368	77.407	0.116	-0.126
-688.354	-200.000	-0.001	-0.182
-687.339	102.887	0.137	-0.164
-686.324	-60.422	-0.301	-0.131
-685.310	-46.345	-0.251	0.126
-684.295	302.667	0.092	0.175
-683.281	-37.153	-0.280	0.153
-682.266	13.446	0.258	-0.204
-681.251	-112.389	-0.046	-0.009
-680.237	-167.981	-0.322	-0.013
-679.222	-29.065	-0.237	-0.139
-678.208	-72.811	0.243	-0.091
-677.193	-200.000	-0.010	0.076
-676.178	-161.452	-0.073	-0.004
-675.164	-124.056	-0.424	0.068
-674.149	800.000	0.082	-0.361
-673.135	-26.342	-0.299	-0.179
-672.120	-72.907	-0.100	-0.038
-671.105	-82.403	-0.164	-0.054
-670.091	-59.270	-0.418	0.184
-669.076	800.000	0.025	-0.073
-668.062	18.531	-0.029	0.024
-667.047	28.715	0.087	-0.075
-666.032	358.561	-0.152	-0.309
-665.018	-105.917	0.046	0.011
-664.003	800.000	0.072	0.216
-662.989	-94.610	-0.510	0.142
-661.974	247.279	0.141	-0.243
-660.959	-132.306	0.323	0.043
-659.945	-101.465	0.270	0.067
-658.930	316.633	-0.086	0.165
-657.916	57.620	-0.103	0.102
-656.901	131.631	0.134	0.176
-655.886	282.305	0.091	0.166
-654.872	81.784	0.134	-0.148
-653.857	-73.980	0.255	-0.094
-652.843	-200.000	-0.052	0.333
-651.828	-200.000	-0.061	0.451
-650.814	653.621	0.035	-0.091
-649.799	-96.990	0.074	-0.020
-648.784	501.549	0.102	-0.241
-647.770	-77.047	0.195	-0.069
-646.755	81.055	-0.179	-0.197
-645.741	101.155	-0.042	0.050
-644.726	-200.000	0.025	-0.117
-643.711	-10.673	-0.174	-0.118
-642.697	451.051	0.093	-0.208
-641.682	-56.999	-0.140	0.063
-640.668	1.854	-0.086	-0.063
-639.653	-200.000	0.007	-0.199
-638.638	194.841	-0.168	0.259
-637.624	-1.641	0.123	0.088
-636.609	800.000	0.064	0.224
-635.595	-116.321	0.104	0.020
-634.580	76.460	-0.202	0.219
-633.565	62.663	-0.137	-0.140
-632.551	-48.114	0.293	-0.144
-631.536	-97.192	0.104	0.028
-630.522	27.776	0.056	-0.048
-629.507	179.922	0.022	0.033
-628.492	-69.322	-0.213	0.083
-627.478	-131.126	-0.066	0.009
-626.463	800.000	0.055	-0.193
-625.449	215.970	-0.213	-0.345
-624.434	800.000	0.099	0.347
-623.419	-52.273	-0.207	-0.098
-622.405	73.095	0.202	0.215
-621.390	42.246	-0.208	-0.193
-620.376	800.000	-0.040	0.166
-619.361	-200.000	-0.021	0.152
-618.346	-200.000	-0.095	0.455
-617.332	-200.000	0.013	0.190
-616.317	-200.000	0.025	-0.155
-615.303	-189.605	0.306	0.004
-614.288	-136.023	0.171	-0.020
-613.273	-200.000	0.003	0.023
-612.259	-73.387	-0.204	-0.076
-611.244	-200.000	-0.013	-0.154
-610.230	29.777	-0.178	-0.154
-609.215	-200.000	0.024	-0.164
-608.201	-127.878	0.148	-0.022
-607.186	-147.691	0.252	0.022
-606.171	-38.907	-0.097	-0.052
-605.157	160.441	-0.141	-0.200
-604.142	-200.000	-0.071	-0.569
-603.128	19.131	-0.244	0.199
-602.113	445.599	-0.054	0.121
-601.098	-150.736	-0.274	0.021
-600.084	333.651	0.047	0.093
-599.069	665.918	-0.150	0.395
-598.055	800.000	0.053	-0.175
-597.040	180.971	-0.079	0.119
-596.025	800.000	-0.033	0.097
-595.011	359.689	0.152	0.310
-593.996	554.367	-0.126	0.309
-592.982	-73.100	-0.192	-0.072
-591.967	-200.000	0.018	0.150
-590.952	-17.968	-0.187	0.120
-589.938	800.000	-0.067	-0.219
-588.923	-200.000	-0.044	-0.207
-587.909	-200.000	0.025	-0.183
-586.894	-200.000	-0.050	-0.298
-585.879	279.487	0.090	-0.164
-584.865	73.915	-0.253	0.270
-583.850	-58.266	-0.259	0.114
-582.836	-86.194	-0.087	-0.027
-581.821	86.596	-0.122	0.137
-580.806	40.329	-0.491	-0.449
-579.792	-200.000	0.032	0.188
-578.777	-123.566	0.175	-0.028
-577.763	51.505	0.038	0.036
-576.748	800.000	-0.087	0.351
-575.733	381.801	-0.120	0.251
-574.719	116.070	-0.068	0.084
-573.704	-135.794	0.131	0.016
-572.690	19.397	-0.202	0.165
-571.675	-90.373	0.354	0.104
-570.661	-200.000	0.041	-0.203
-569.646	-99.105	0.207	0.053
-568.631	-145.457	-0.347	0.032
-567.617	-200.000	-0.059	0.351
-566.602	-200.000	0.062	0.325
-565.588	-21.081	-0.136	0.085
-564.573	147.077	-0.200	0.274
-563.558	68.754	0.118	-0.124
-562.544	-64.434	0.179	0.074
-561.529	-200.000	-0.010	0.044
-560.515	-41.307	0.180	-0.094
-559.500	292.052	0.138	0.256
-558.485	-130.606	0.093	-0.013
-557.471	90.034	0.161	0.183
-556.456	119.476	0.169	0.213
-555.442	289.499	-0.125	-0.230
-554.427	-200.000	-0.072	0.362
-553.412	-59.162	-0.348	-0.153
-552.398	-66.319	0.174	0.070
-551.383	-139.086	-0.272	0.030
-550.369	-97.160	-0.196	-0.052
-549.354	139.565	0.190	-0.255
-548.339	30.317	-0.210	0.183
-547.325	-110.129	-0.124	-0.026
-546.310	-200.000	-0.011	0.074
-545.296	179.604	-0.086	0.128
-544.281	-200.000	-0.012	-0.065
-543.266	800.000	0.031	-0.115
-542.252	-200.000	-0.068	-0.320
-541.237	26.265	-0.107	0.091
-540.223	224.151	0.161	0.264
-539.208	-26.463	0.335	0.199
-538.193	229.517	-0.105	-0.174
-537.179	-18.983	-0.053	-0.034
-536.164	800.000	0.061	0.231
-535.150	135.891	0.059	0.078
-534.135	-0.951	0.292	0.210
-533.121	800.000	-0.079	-0.285
-532.106	-57.139	-0.410	-0.183
-531.091	48.918	0.121	-0.115
-530.077	-200.000	-0.009	-0.213
-529.062	22.365	0.097	0.081
-528.048	83.972	-0.203	0.225
-527.033	554.681	-0.042	0.102
-526.018	-128.600	0.291	-0.042
-525.004	-58.474	0.456	0.201
-523.989	-63.521	-0.067	0.028
-522.975	228.787	-0.177	-0.293
-521.960	-200.000	0.018	-0.267
-520.945	800.000	0.124	0.364
-519.931	32.792	0.125	0.110
-518.916	-85.630	-0.196	-0.062
-517.902	-200.000	0.016	0.286
-516.887	800.000	-0.023	0.075
-515.872	26.137	-0.079	0.067
-514.858	131.508	-0.210	-0.274
-513.843	82.983	0.136	-0.150
-512.829	-153.769	0.221	0.015
-511.814	800.000	-0.042	0.133
-510.799	800.000	-0.065	0.199
-509.785	134.458	-0.183	0.241
-508.770	-175.270	-0.080	-0.002
-507.756	26.543	0.241	-0.204
-506.741	-40.222	0.235	0.124
-505.726	329.010	-0.181	0.353
-504.712	-102.756	-0.225	-0.054
-503.697	800.000	-0.036	0.138
-502.683	-102.434	-0.081	0.020
-501.668	-105.569	-0.228	-0.052
-500.653	-74.633	0.111	0.040
-499.639	204.185	0.296	0.465
-498.624	-200.000	-0.046	-0.211
-497.610	800.000	-0.029	-0.105
-496.595	609.398	-0.076	0.192
-495.581	-89.957	-0.149	-0.044
-494.566	-9.350	-0.180	0.122
-493.551	-144.834	0.091	-0.008
-492.537	1.443	0.208	-0.152
-491.522	26.468	-0.089	-0.075
-490.508	-39.720	0.276	0.146
-489.493	-131.612	-0.223	0.030
-488.478	43.984	0.144	-0.134
-487.464	137.012	0.187	-0.248
-486.449	800.000	-0.037	-0.115
-485.435	-200.000	-0.003	-0.288
-484.420	-1.269	-0.177	-0.126
-483.405	177.823	0.111	-0.164
-482.391	575.338	-0.083	-0.206
-481.376	462.947	-0.077	-0.173
-480.362	-38.593	-0.376	0.201
-479.347	-81.698	-0.049	-0.016
-478.332	800.000	0.053	0.153
-477.318	-86.943	-0.332	-0.103
-476.303	117.358	-0.124	0.154
-475.289	4.057	0.293	-0.217
-474.274	-199.272	-0.385	0.002
-473.259	766.782	0.142	0.392
-472.245	-200.000	0.014	0.400
-471.230	-200.000	0.031	0.262
-470.216	-25.282	-0.036	0.022
-469.201	131.110	0.111	-0.144
-468.186	-200.000	-0.013	0.138
-467.172	-200.000	-0.062	0.318
-466.157	800.000	0.043	-0.128
-465.143	453.579	-0.079	0.178
-464.128	800.000	0.066	-0.275
-463.113	-101.718	0.233	0.057
-462.099	321.431	0.107	-0.207
-461.084	271.386	0.082	0.146
-460.070	113.135	-0.430	0.528
-459.055	800.000	0.087	0.262
-458.040	146.197	-0.039	0.053
-457.026	-118.461	0.118	-0.021
-456.011	38.827	-0.343	0.310
-454.997	82.917	0.086	0.095
-453.982	297.745	0.034	0.063
-452.968	21.300	0.189	0.155
-451.953	800.000	0.096	-0.279
-450.938	227.290	0.175	-0.288
-449.924	-108.191	0.052	0.011
-448.909	-2.687	0.278	-0.197
-447.895	57.169	-0.131	-0.130
-446.880	272.982	-0.172	0.307
-445.865	-117.450	-0.058	-0.011
-444.851	41.207	-0.127	-0.116
-443.836	-200.000	0.015	-0.229
-442.822	730.710	0.043	-0.117
-441.807	800.000	0.124	-0.376
-440.792	487.389	-0.151	-0.349
-439.778	124.342	0.354	-0.450
-438.763	800.000	-0.128	-0.362
-437.749	591.247	0.044	-0.109
-436.734	-78.842	0.334	0.115
-435.719	576.261	0.092	-0.227
-434.705	-81.555	0.201	-0.067
-433.690	-200.000	-0.001	0.106
-432.676	-112.669	0.172	-0.035
-431.661	134.377	0.116	0.152
-430.646	-21.064	-0.393	-0.243
-429.632	215.017	0.135	-0.216
-428.617	1.904	0.087	0.063
-427.603	-36.011	-0.077	-0.042
-426.588	-200.000	-0.014	-0.276
-425.573	-155.685	0.199	0.013
-424.559	185.557	-0.333	0.499
-423.544	-189.117	0.209	-0.003
-422.530	-82.455	0.259	-0.085
-421.515	-55.702	-0.232	0.105
-420.500	-82.984	0.368	-0.120
-419.486	-200.000	0.008	0.360
-418.471	27.868	-0.141	-0.121
-417.457	-200.000	-0.003	0.067
-416.442	143.400	0.172	-0.231
-415.428	-200.000	0.039	-0.289
-414.413	-60.660	0.132	-0.057
-413.398	-200.000	-0.028	0.274
-412.384	53.331	0.223	0.216
-411.369	800.000	-0.029	-0.106
-410.355	37.183	-0.053	0.048
-409.340	150.149	0.066	-0.091
-408.325	-100.791	-0.240	0.060
-407.311	-78.980	0.307	0.106
-406.296	800.000	0.141	0.426
-405.282	-53.337	0.248	-0.115
-404.267	-143.195	0.241	-0.023
-403.252	-165.522	0.243	-0.011
-402.238	-106.709	0.161	-0.036
-401.223	140.221	0.089	-0.119
-400.209	-109.845	-0.060	0.013
-399.194	28.258	-0.184	0.157
-398.179	549.514	0.080	-0.194
-397.165	800.000	-0.054	-0.153
-396.150	258.262	-0.038	-0.067
-395.136	-141.400	-0.182	0.019
-394.121	321.383	0.097	0.187
-393.106	-143.937	-0.075	0.007
-392.092	-200.000	-0.008	0.143
-391.077	-63.841	0.218	-0.090
-390.063	-31.061	0.105	-0.060
-389.048	67.066	0.054	-0.056
-388.033	5.666	0.185	-0.138
-387.019	-196.138	-0.252	0.002
-386.004	-133.857	-0.264	-0.033
-384.990	-175.123	-0.323	-0.009
-383.975	61.129	-0.203	0.203
-382.960	35.623	0.059	-0.053
-381.946	-108.190	-0.217	-0.047
-380.931	66.919	0.312	0.321
-379.917	-174.382	-0.223	-0.006
-378.902	-200.000	-0.007	0.419
-377.888	-200.000	0.013	0.355
-376.873	-91.937	-0.544	-0.156
-375.858	59.741	-0.154	-0.154
-374.844	-49.522	0.113	-0.054
-373.829	-200.000	0.048	0.320
-372.815	-113.249	-0.065	-0.013
-371.800	-111.936	0.179	0.036
-370.785	-200.000	-0.016	-0.197
-369.771	-200.000	-0.026	0.591
-368.756	40.643	-0.102	0.093
-367.742	-154.155	0.271	-0.018
-366.727	23.501	-0.232	-0.192
-365.712	-56.570	0.026	0.011
-364.698	318.599	0.099	-0.190
-363.683	-200.000	0.012	-0.169
-362.669	95.897	0.266	-0.307
-361.654	800.000	-0.101	-0.360
-360.639	24.933	0.322	-0.269
-359.625	-78.486	0.012	0.004
-358.610	-4.782	-0.249	0.173
-357.596	-200.000	-0.034	-0.192
-356.581	800.000	-0.092	-0.290
-355.566	-200.000	-0.027	-0.387
-354.552	224.959	0.231	0.376
-353.537	343.936	-0.061	-0.120
-352.523	744.713	-0.076	-0.207
-351.508	52.208	-0.034	0.033
-350.493	-10.044	-0.181	0.121
-349.479	-200.000	-0.048	-0.255
-348.464	269.626	0.141	-0.250
-347.450	113.678	0.162	-0.199
-346.435	326.015	0.142	0.274
-345.420	47.494	-0.079	-0.075
-344.406	-193.172	0.167	-0.001
-343.391	800.000	0.055	0.184
-342.377	250.557	-0.056	0.096
-341.362	195.212	-0.044	-0.067
-340.348	-21.137	0.300	-0.185
-339.333	67.217	0.367	-0.377
-338.318	-200.000	0.005	0.063
-337.304	390.497	0.109	-0.228
-336.289	70.313	0.173	-0.180
-335.275	181.181	-0.186	-0.275
-334.260	156.560	-0.031	-0.043
-333.245	-60.443	0.153	0.066
-332.231	-43.544	0.190	0.096
-331.216	-38.120	0.299	0.160
-330.202	-7.020	0.250	0.171
-329.187	-150.717	0.174	-0.013
-328.172	-200.000	-0.045	0.363
-327.158	18.032	0.251	-0.202
-326.143	-200.000	-0.017	-0.127
-325.129	800.000	-0.102	0.325
-324.114	-200.000	-0.063	0.342
-323.099	16.604	-0.105	0.084
-322.085	-70.921	0.248	0.094
-321.070	-200.000	0.028	-0.193
-320.056	-200.000	-0.012	-0.150
-319.041	-0.778	0.094	-0.067
-318.026	216.428	0.186	-0.297
-317.012	-200.000	-0.026	-0.166
-315.997	508.626	-0.143	-0.333
-314.983	-5.276	-0.247	-0.171
-313.968	-80.324	-0.187	-0.063
-312.953	-200.000	-0.084	-0.397
-311.939	-39.171	0.117	-0.062
-310.924	154.203	-0.051	0.070
-309.910	-200.000	0.038	0.449
-308.895	57.087	-0.095	0.093
-307.880	-108.447	-0.454	0.098
-306.866	533.644	-0.083	0.198
-305.851	-200.000	-0.015	-0.125
-304.837	95.487	0.173	0.199
-303.822	324.919	-0.121	-0.233
-302.807	-119.732	0.337	0.058
-301.793	800.000	0.058	0.241
-300.778	-160.353	-0.199	-0.011
-299.764	-160.004	0.178	0.010
-298.749	221.795	0.106	0.171
-297.735	-47.782	0.068	0.033
-296.720	60.559	-0.237	0.237
-295.705	517.304	-0.106	0.250
-294.691	61.315	-0.149	-0.149
-293.676	-84.656	0.445	0.141
-292.662	-200.000	0.010	0.081
-291.647	-200.000	0.050	-0.532
-290.632	-14.518	-0.208	-0.134
-289.618	559.167	-0.038	0.093
-288.603	-117.916	0.158	0.029
-287.589	486.615	0.036	0.082
-286.574	-34.124	0.183	0.101
-285.559	-32.147	-0.128	-0.072
-284.545	13.131	0.163	-0.127
-283.530	800.000	0.091	-0.283
-282.516	-92.468	0.218	0.062
-281.501	800.000	0.135	-0.387
-280.486	-200.000	-0.014	0.307
-279.472	-149.803	0.286	0.023
-278.457	-53.625	-0.182	-0.084
-277.443	-8.497	0.034	0.023
-276.428	-100.894	0.048	-0.012
-275.413	58.852	-0.117	0.116
-274.399	-28.116	-0.150	0.087
-273.384	-15.540	-0.179	0.115
-272.370	-67.561	0.285	0.112
-271.355	-188.318	-0.176	-0.002
-270.340	-119.627	-0.168	-0.029
-269.326	73.965	-0.075	0.079
-268.311	-200.000	0.004	0.105
-267.297	-97.118	0.274	-0.072
-266.282	-200.000	0.005	-0.305
-265.267	-101.063	0.121	-0.030
-264.253	-200.000	0.040	-0.312
-263.238	-149.107	-0.171	0.014
-262.224	800.000	-0.135	-0.396
-261.209	-200.000	0.007	0.115
-260.195	97.715	0.201	0.232
-259.180	79.611	-0.105	-0.114
-258.165	-156.715	-0.103	0.006
-257.151	-20.630	0.228	-0.141
-256.136	83.745	-0.177	0.194
-255.122	-70.180	0.144	-0.055
-254.107	292.057	0.096	0.175
-253.092	-200.000	0.046	0.304
-252.078	-200.000	0.015	-0.173
-251.063	-68.600	0.232	-0.090
-250.049	800.000	-0.021	-0.091
-249.034	7.120	-0.305	0.228
-248.019	800.000	-0.089	0.355
-247.005	502.741	-0.103	0.239
-245.990	800.000	0.128	0.386
-244.976	-52.802	0.087	0.040
-243.961	583.146	0.075	0.185
-242.946	113.777	-0.118	0.144
-241.932	-106.337	-0.210	0.047
-240.917	-102.475	-0.361	-0.087
-239.903	43.776	0.167	0.154
-238.888	180.647	0.034	-0.051
-237.873	-110.590	-0.381	0.079
-236.859	34.693	0.253	0.222
-235.844	17.281	-0.082	-0.065
-234.830	-20.682	-0.301	-0.185
-233.815	800.000	-0.075	-0.247
-232.800	-106.499	0.415	0.093
-231.786	800.000	0.065	-0.207
-230.771	-200.000	-0.125	0.553
-229.757	112.960	-0.115	-0.140
-228.742	-28.233	-0.336	-0.195
-227.727	96.771	0.190	-0.218
-226.713	-14.636	0.122	0.078
-225.698	-200.000	0.045	0.336
-224.684	23.237	-0.397	-0.327
-223.669	-124.431	0.324	0.051
-222.655	800.000	-0.040	-0.125
-221.640	490.943	-0.012	-0.027
-220.625	800.000	0.054	0.150
-219.611	-86.542	0.084	-0.026
-218.596	162.769	0.144	-0.203
-217.582	-21.988	-0.233	0.142
-216.567	-64.448	0.175	0.071
-215.552	-200.000	0.115	-0.625
-214.538	-79.578	0.287	-0.097
-213.523	-15.697	0.394	-0.252
-212.509	25.142	0.206	0.172
-211.494	-152.574	-0.220	0.016
-210.479	415.077	0.079	-0.168
-209.465	800.000	-0.011	-0.047
-208.450	6.798	-0.132	-0.098
-207.436	-54.581	-0.131	0.059
-206.421	-200.000	0.043	-0.350
-205.406	-200.000	-0.151	-0.000
-204.392	-69.609	0.107	0.041
-203.377	16.099	0.327	0.258
-202.363	-185.281	-0.134	-0.002
-201.348	800.000	-0.027	-0.113
-200.333	-33.428	-0.099	0.055
-199.319	69.026	-0.357	-0.368
-198.304	667.827	0.146	-0.379
-197.290	800.000	-0.041	0.136
-196.275	-140.129	0.238	-0.025
-195.260	257.288	0.148	0.255
-194.246	182.062	-0.186	0.274
-193.231	165.945	-0.138	0.196
-192.217	-85.757	-0.099	-0.031
-191.202	45.085	0.137	-0.126
-190.187	-49.546	-0.140	-0.067
-189.173	-13.742	0.092	0.060
-188.158	88.537	-0.166	-0.185
-187.144	-200.000	-0.013	-0.092
-186.129	-38.973	-0.181	0.095
-185.114	-128.874	-0.035	0.005
-184.100	88.024	-0.207	0.230
-183.085	800.000	0.042	-0.123
-182.071	-31.678	-0.147	0.083
-181.056	489.190	-0.059	-0.136
-180.042	-158.018	0.141	0.008
-179.027	163.386	-0.067	-0.095
-178.012	-200.000	-0.047	0.312
-176.998	-38.242	-0.088	0.047
-175.983	-200.000	0.037	0.173
-174.969	800.000	-0.039	-0.126
-173.954	-30.195	-0.097	0.055
-172.939	160.205	0.089	-0.124
-171.925	-37.305	-0.120	-0.064
-170.910	-38.368	0.223	0.118
-169.896	800.000	0.018	0.054
-168.881	-94.537	-0.182	-0.050
-167.866	-23.990	0.249	0.149
-166.852	-144.783	0.105	-0.010
-165.837	270.782	-0.012	-0.021
-164.823	-48.597	-0.101	-0.048
-163.808	-200.000	0.003	0.201
-162.793	-99.236	-0.131	-0.033
-161.779	142.197	-0.236	-0.313
-160.764	-98.224	-0.111	-0.028
-159.750	312.157	-0.147	-0.276
-158.735	-12.133	0.166	-0.109
-157.720	487.664	-0.227	-0.517
-156.706	1.477	-0.105	-0.076
-155.691	800.000	0.038	-0.125
-154.677	380.005	0.182	0.372
-153.662	-1.837	0.189	0.133
-152.647	-31.277	0.133	-0.075
-151.633	-10.404	-0.177	0.117
-150.618	449.467	0.029	0.065
-149.604	-46.662	0.454	-0.222
-148.589	-200.000	0.022	0.110
-147.574	-200.000	0.016	-0.146
-146.560	15.201	-0.293	-0.229
-145.545	15.650	-0.072	0.057
-144.531	138.682	-0.049	0.064
-143.516	2.741	-0.243	0.176
-142.502	-72.267	0.248	-0.092
-141.487	-166.167	-0.290	0.012
-140.472	120.510	-0.063	-0.079
-139.458	77.595	0.137	0.146
-138.443	282.247	-0.059	-0.106
-137.429	800.000	-0.029	0.121
-136.414	88.620	-0.178	-0.198
-135.399	-121.450	-0.208	-0.035
-134.385	800.000	0.066	0.270
-133.370	-101.366	-0.370	0.090
-132.356	482.007	-0.060	0.137
-131.341	-200.000	-0.040	-0.379
-130.326	287.040	-0.092	0.166
-129.312	585.205	-0.101	0.248
-128.297	460.911	-0.079	-0.175
-127.283	-21.368	0.091	-0.055
-126.268	-123.631	0.085	0.014
-125.253	-119.935	-0.211	-0.036
-124.239	-0.810	-0.190	-0.134
-123.224	-200.000	0.001	-0.025
-122.210	230.726	0.084	-0.137
-121.195	136.983	-0.156	0.204
-120.180	159.616	-0.125	-0.173
-119.166	246.142	-0.158	0.266
-118.151	-32.673	-0.221	0.123
-117.137	-23.506	0.127	0.076
-116.122	542.618	-0.098	-0.232
-115.107	11.405	-0.173	-0.132
-114.093	20.332	0.113	0.091
-113.078	49.020	-0.090	0.084
-112.064	-28.421	0.225	-0.130
-111.049	199.430	0.077	0.119
-110.034	-108.076	0.209	0.045
-109.020	-110.546	0.400	0.083
-108.005	-42.780	0.144	0.073
-106.991	47.023	0.040	-0.038
-105.976	-200.000	0.003	-0.264
-104.962	800.000	0.033	0.118
-103.947	-85.252	0.179	-0.056
-102.932	-120.932	-0.142	0.024
-101.918	-200.000	0.036	-0.197
-100.903	272.419	0.081	-0.143
-99.889	-200.000	0.004	0.240
-98.874	-45.567	0.158	-0.078
-97.859	-153.381	-0.209	-0.014
-96.845	22.201	-0.017	0.014
-95.830	-127.738	0.183	0.026
-94.816	800.000	0.031	-0.104
-93.801	800.000	-0.120	-0.351
-92.786	430.709	0.094	-0.204
-91.772	-74.352	-0.308	-0.111
-90.757	-123.186	0.127	-0.020
-89.743	-200.000	0.057	-0.289
-88.728	-128.614	-0.236	-0.033
-87.713	-200.000	-0.058	-0.285
-86.699	-23.867	0.297	-0.177
-85.684	46.790	-0.085	0.079
-84.670	-168.836	-0.166	-0.006
-83.655	308.549	-0.066	0.123
-82.640	-153.703	-0.285	0.020
-81.626	-123.176	-0.118	-0.019
-80.611	-79.047	-0.202	0.069
-79.597	103.824	-0.119	0.140
-78.582	-200.000	-0.009	-0.138
-77.567	-200.000	0.009	0.295
-76.553	80.767	0.174	0.187
-75.538	234.316	0.068	-0.111
-74.524	-200.000	0.003	-0.112
-73.509	800.000	0.078	0.240
-72.494	800.000	0.083	-0.339
-71.480	-200.000	0.045	0.229
-70.465	38.270	-0.285	0.253
-69.451	-117.177	0.221	0.040
-68.436	468.966	0.099	0.222
-67.422	800.000	-0.095	0.276
-66.407	-200.000	0.088	0.471
-65.392	-46.453	0.267	-0.130
-64.378	-127.358	0.079	-0.011
-63.363	-66.691	0.297	-0.117
-62.349	-38.106	0.236	-0.125
-61.334	217.806	-0.591	-0.939
-60.319	-141.324	0.284	-0.029
-59.305	452.259	0.263	-0.580
-58.290	186.244	0.649	0.962
-57.276	410.014	0.604	1.276
-56.261	-200.000	76.006	507.183
-55.246	513.975	1335.003	3102.893
-54.232	144.752	2570.501	3422.858
-53.217	115.523	2253.487	2744.280
-52.203	51.133	1775.568	1678.026
-51.188	43.894	1574.005	1436.405
-50.173	41.327	1544.213	1391.267
-49.159	57.238	1580.521	1536.351
-48.144	62.971	1600.013	1595.588
-47.130	44.516	1564.192	1431.604
-46.115	40.985	1549.305	1393.242
-45.100	40.766	1545.954	1388.641
-44.086	40.740	1544.116	1386.756
-43.071	40.558	1542.377	1383.871
-42.057	40.543	1540.357	1381.899
-41.042	40.540	1539.078	1380.670
-40.027	40.567	1537.136	1379.061
-39.013	40.537	1535.746	1377.550
-37.998	40.497	1534.495	1376.099
-36.984	40.531	1533.645	1375.516
-35.969	40.586	1531.970	1374.339
-34.954	40.495	1530.999	1372.787
-33.940	40.514	1529.463	1371.489
-32.925	40.538	1527.902	1370.196
-31.911	40.657	1526.575	1369.772
-30.896	40.611	1525.010	1367.995
-29.881	40.692	1523.305	1366.975
-28.867	40.682	1522.120	1365.784
-27.852	40.635	1520.875	1364.289
-26.838	40.694	1519.269	1363.205
-25.823	40.595	1517.737	1361.091
-24.809	40.545	1516.244	1359.362
-23.794	40.515	1515.324	1358.277
-22.779	40.654	1513.555	1357.584
-21.765	40.569	1512.265	1355.791
-20.750	40.660	1511.721	1355.875
-19.736	40.568	1510.449	1354.053
-18.721	40.648	1508.806	1353.073
-17.706	40.593	1508.019	1351.934
-16.692	40.577	1506.788	1350.672
-15.677	40.589	1505.560	1349.599
-14.663	40.608	1504.613	1348.827
-13.648	40.596	1503.378	1347.579
-12.633	40.485	1502.886	1346.330
-11.619	40.497	1502.135	1345.686
-10.604	40.528	1501.228	1345.032
-9.590	40.487	1500.439	1343.998
-8.575	40.556	1499.136	1343.245
-7.560	40.471	1498.489	1342.030
-6.546	40.487	1497.256	1340.981
-5.531	40.472	1496.488	1340.140
-4.517	40.543	1495.691	1339.853
-3.502	40.536	1494.470	1338.659
-2.487	40.578	1493.764	1338.257
-1.473	40.583	1492.170	1336.814
-0.458	40.533	1491.399	1335.729
0.556	40.969	1481.619	1326.054
1.571	37.967	1455.304	1282.689
2.586	34.061	1391.774	1201.957
3.600	31.805	1307.352	1115.541
4.615	29.708	1259.470	1062.548
5.629	25.123	1199.963	987.080
6.644	13.277	1107.182	850.130
7.659	3.716	1060.008	766.572
8.673	2.391	1053.613	755.344
9.688	2.061	1051.176	751.903
10.702	1.765	1049.279	749.026
11.717	1.894	1047.120	748.053
12.731	5.382	1051.680	768.406
13.746	16.320	1067.580	834.271
14.761	24.352	1078.216	882.414
15.775	25.487	1078.385	888.087
16.790	25.727	1077.026	888.073
17.804	25.350	1077.115	886.207
18.819	25.124	1076.150	884.221
19.834	25.233	1075.922	884.492
20.848	25.397	1075.078	884.529
21.863	25.443	1074.767	884.420
22.877	25.514	1074.352	884.349
23.892	25.393	1073.817	883.237
24.907	25.330	1072.772	881.987
25.921	25.360	1072.049	881.462
26.936	25.407	1071.000	880.753
27.950	25.400	1070.108	879.908
28.965	25.383	1068.993	878.829
29.980	25.211	1067.592	876.758
30.994	25.140	1066.812	875.693
32.009	25.189	1066.191	875.347
33.023	25.326	1065.535	875.401
34.038	25.280	1063.969	873.812
35.053	25.146	1063.437	872.646
36.067	25.392	1062.841	873.276
37.082	25.435	1061.643	872.421
38.096	25.386	1061.113	871.671
39.111	25.378	1060.934	871.409
40.126	25.600	1059.774	871.452
41.140	25.606	1058.163	870.079
42.155	25.305	1056.871	867.488
43.169	25.041	1055.670	865.149
44.184	24.971	1054.342	863.649
45.199	25.073	1053.569	863.428
46.213	24.952	1052.860	862.192
47.228	24.918	1051.769	861.055
48.242	25.110	1050.934	861.220
49.257	25.117	1050.485	860.810
50.271	25.229	1050.195	861.034
51.286	25.314	1049.286	860.617
52.301	25.292	1048.803	860.040
53.315	25.428	1047.965	859.927
54.330	25.437	1047.041	859.137
55.344	25.321	1046.318	857.913
56.359	25.459	1044.871	857.312
57.374	25.357	1044.172	856.174
58.388	25.077	1043.747	854.418
59.403	25.023	1042.912	853.398
60.417	25.016	1042.641	853.068
61.432	24.948	1041.375	851.636
62.447	24.996	1040.501	851.070
63.461	25.029	1040.138	850.857
64.476	25.060	1039.663	850.539
65.490	25.067	1038.576	849.608
66.505	25.029	1037.159	848.192
67.520	25.020	1036.797	847.783
68.534	25.079	1036.008	847.338
69.549	24.938	1034.777	845.590
70.563	24.720	1033.624	843.547
71.578	24.636	1032.592	842.235
72.593	24.665	1032.077	841.876
73.607	24.476	1030.742	839.826
74.622	24.383	1030.326	838.974
75.636	24.809	1029.550	840.270
76.651	24.822	1029.239	840.000
77.666	24.757	1028.605	839.105
78.680	24.733	1026.967	837.583
79.695	24.684	1026.842	837.173
80.709	24.692	1026.601	836.944
81.724	24.855	1025.678	836.878
82.739	24.792	1024.824	835.815
83.753	24.904	1023.644	835.299
84.768	25.171	1023.333	836.217
85.782	25.584	1022.708	837.555
86.797	25.702	1021.991	837.444
87.812	25.645	1021.284	836.527
88.826	25.348	1020.699	834.593
89.841	25.482	1019.765	834.378
90.855	25.625	1018.650	834.055
91.870	25.477	1018.182	832.912
92.884	25.559	1017.064	832.303
93.899	25.493	1016.280	831.283
94.914	25.251	1015.349	829.326
95.928	25.475	1014.336	829.461
96.943	25.506	1013.691	829.003
97.957	25.199	1012.733	826.731
98.972	24.977	1011.529	824.656
99.987	24.854	1010.101	822.850
101.001	24.876	1010.069	822.852
102.016	25.104	1009.649	823.489
103.030	25.272	1008.695	823.405
104.045	25.272	1007.513	822.369
105.060	25.109	1006.064	820.367
106.074	25.082	1004.883	819.208
107.089	24.941	1004.952	818.550
108.103	25.213	1004.354	819.232
109.118	25.233	1003.675	818.695
110.133	24.997	1002.192	816.339
111.147	25.090	1001.164	815.853
112.162	24.968	999.996	814.272
113.176	24.676	998.950	812.022
114.191	24.854	998.323	812.251
115.206	25.197	997.062	812.705
116.220	24.717	996.390	809.911
117.235	24.472	995.522	808.027
118.249	24.562	995.166	808.073
119.264	24.631	994.263	807.583
120.279	24.585	993.251	806.480
121.293	24.596	992.204	805.609
122.308	24.742	991.664	805.755
123.322	24.732	990.974	805.080
124.337	24.613	989.914	803.614
125.352	24.570	988.750	802.402
126.366	24.273	987.062	799.629
127.381	23.815	985.787	796.472
128.395	24.331	985.742	798.677
129.410	25.114	985.458	801.880
130.424	25.087	985.367	801.617
131.439	25.123	984.305	800.840
132.454	25.256	982.645	800.011
133.468	25.204	982.238	799.378
134.483	25.079	981.751	798.356
135.497	25.100	980.952	797.730
136.512	25.427	980.034	798.365
137.527	25.508	979.399	798.138
138.541	25.371	979.063	797.184
139.556	25.484	978.444	797.108
140.570	25.494	977.055	795.955
141.585	25.457	976.368	795.160
142.600	25.643	975.775	795.428
143.614	25.495	974.773	793.885
144.629	25.461	974.175	793.180
145.643	25.868	973.215	794.125
146.658	25.791	972.101	792.805
147.673	25.542	970.885	790.649
148.687	25.346	970.140	789.110
149.702	25.281	969.048	787.866
150.716	25.263	967.894	786.779
151.731	25.177	966.782	785.430
152.746	25.217	966.350	785.186
153.760	25.477	965.273	785.374
154.775	25.788	964.437	785.983
155.789	25.582	964.197	784.821
156.804	25.721	963.088	784.452
157.819	25.445	962.279	782.523
158.833	25.515	961.526	782.146
159.848	25.569	961.092	781.957
160.862	25.539	960.447	781.234
161.877	25.584	958.869	780.078
162.892	25.517	958.037	779.040
163.906	25.495	957.324	778.295
164.921	25.589	956.156	777.684
165.935	25.332	955.472	775.948
166.950	25.587	953.993	775.781
167.964	25.420	953.511	774.601
168.979	25.608	952.217	774.289
169.994	25.450	951.021	772.568
171.008	25.362	949.784	771.116
172.023	25.515	949.609	771.565
173.037	25.660	949.264	771.838
174.052	25.528	947.552	769.813
175.067	25.347	946.581	768.181
176.081	25.325	945.825	767.405
177.096	25.397	944.986	766.964
178.110	25.374	944.249	766.201
179.125	25.106	943.447	764.339
180.140	24.833	942.515	762.353
181.154	24.815	941.640	761.500
182.169	24.985	941.211	761.810
183.183	25.211	941.164	762.666
184.198	25.499	940.683	763.433
185.213	25.508	939.626	762.547
186.227	25.442	938.837	761.556
187.242	25.465	938.546	761.350
188.256	25.644	937.361	761.079
189.271	25.413	937.320	760.002
190.286	25.683	936.440	760.360
191.300	25.452	935.534	758.584
192.315	25.038	933.883	755.432
193.329	24.144	932.414	750.416
194.344	23.845	931.186	748.099
195.359	24.250	931.974	750.371
196.373	25.079	932.113	753.906
197.388	25.439	931.951	755.221
198.402	25.432	931.654	754.885
199.417	25.405	930.524	753.792
200.432	25.428	929.974	753.376
201.446	25.369	929.630	752.784
202.461	25.094	928.645	750.767
203.475	25.188	928.288	750.803
204.490	24.743	926.893	747.751
205.504	23.509	924.848	740.883
206.519	23.965	924.340	742.312
207.534	24.832	925.291	746.631
208.548	24.946	924.638	746.514
209.563	25.357	924.254	747.847
210.577	25.437	923.369	747.398
211.592	25.208	922.341	745.551
212.607	25.611	922.281	747.110
213.621	25.788	922.045	747.589
214.636	25.592	921.412	746.195
215.650	25.688	920.491	745.783
216.665	25.576	920.212	745.024
217.680	25.530	919.738	744.384
218.694	25.797	919.049	744.864
219.709	25.452	918.637	743.040
220.723	25.086	917.602	740.625
221.738	25.125	917.209	740.403
222.753	25.500	916.461	741.278
223.767	25.280	915.843	739.807
224.782	25.545	914.911	740.082
225.796	25.552	914.854	739.999
226.811	25.767	914.440	740.480
227.826	25.353	912.928	737.492
228.840	24.623	911.206	733.043
229.855	24.395	910.951	731.836
230.869	24.711	910.251	732.503
231.884	24.373	909.115	730.140
232.899	24.352	908.633	729.606
233.913	25.186	908.892	733.160
234.928	25.356	908.662	733.604
235.942	25.163	907.766	732.026
236.957	25.140	907.501	731.655
237.972	24.905	906.443	729.779
238.986	24.848	905.606	728.809
240.001	24.955	905.552	729.138
241.015	25.106	904.219	728.614
242.030	25.110	903.200	727.741
243.045	25.292	903.148	728.377
244.059	25.373	902.697	728.275
245.074	25.564	902.528	728.849
246.088	25.389	901.511	727.254
247.103	25.079	900.800	725.362
248.117	25.226	900.162	725.379
249.132	25.731	899.977	727.206
250.147	26.059	899.860	728.371
251.161	26.187	899.519	728.549
252.176	26.381	898.859	728.732
253.190	26.416	898.065	728.162
254.205	26.287	897.899	727.447
255.220	26.464	897.875	728.075
256.234	26.322	897.357	727.017
257.249	26.402	896.274	726.399
258.263	26.237	895.500	725.043
259.278	26.254	894.813	724.493
260.293	26.296	894.370	724.236
261.307	26.430	893.995	724.405
262.322	26.374	893.158	723.442
263.336	26.185	892.281	721.910
264.351	25.733	890.938	718.954
265.366	24.794	889.257	713.792
266.380	24.319	888.154	710.949
267.395	25.147	888.376	714.365
268.409	25.827	888.854	717.392
269.424	25.763	888.315	716.640
270.439	25.812	887.803	716.360
271.453	26.125	887.061	716.941
272.468	26.075	886.255	716.028
273.482	26.227	886.209	716.529
274.497	26.261	885.779	716.254
275.512	26.210	884.483	714.940
276.526	25.672	883.440	711.908
277.541	25.821	883.115	712.169
278.555	26.141	882.917	713.213
279.570	25.980	882.170	711.909
280.585	25.853	881.586	710.876
281.599	25.737	881.095	709.959
282.614	25.955	880.553	710.319
283.628	25.705	879.332	708.287
284.643	25.243	878.563	705.788
285.657	25.773	878.406	707.682
286.672	25.736	876.983	706.328
287.687	25.086	876.667	703.460
288.701	25.263	876.660	704.086
289.716	25.782	876.318	705.786
290.730	25.441	875.526	703.751
291.745	25.301	874.765	702.530
292.760	25.204	873.756	701.278
293.774	24.992	873.201	699.940
294.789	25.837	873.946	703.780
295.803	26.625	873.963	706.808
296.818	26.698	873.133	706.359
297.833	26.613	873.045	705.894
298.847	26.418	871.754	704.028
299.862	26.051	870.981	701.913
300.876	26.289	870.191	702.140
301.891	26.500	870.008	702.750
302.906	26.675	869.578	703.020
303.920	26.242	868.423	700.346
304.935	26.182	867.493	699.302
305.949	26.589	867.325	700.679
306.964	26.836	866.639	701.018
307.979	26.468	866.092	699.091
308.993	26.452	865.548	698.530
310.008	26.663	865.303	699.084
311.022	26.696	865.235	699.095
312.037	26.628	864.401	698.097
313.052	26.542	863.533	697.001
314.066	26.443	862.748	695.926
315.081	25.829	861.147	692.213
316.095	24.969	859.891	687.840
317.110	25.382	860.529	689.880
318.125	26.327	860.669	693.556
319.139	25.908	859.639	691.060
320.154	24.714	857.834	684.977
321.168	24.227	856.822	682.243
322.183	24.745	857.374	684.609
323.197	25.844	857.451	688.813
324.212	26.159	857.171	689.729
325.227	26.279	856.932	689.936
326.241	26.435	856.701	690.284
327.256	26.393	855.984	689.483
328.270	26.100	855.181	687.661
329.285	26.113	854.607	687.189
330.300	26.002	853.847	686.095
331.314	25.695	853.063	684.236
332.329	25.906	852.398	684.445
333.343	26.280	852.346	685.762
334.358	26.624	851.797	686.562
335.373	26.383	851.309	685.196
336.387	26.623	850.767	685.605
337.402	26.711	850.504	685.669
338.416	26.829	850.170	685.784
339.431	26.946	849.619	685.723
340.446	26.773	848.922	684.445
341.460	27.216	848.535	685.743
342.475	27.191	848.002	685.158
343.489	27.005	847.073	683.646
344.504	26.787	846.635	682.412
345.519	27.040	846.586	683.264
346.533	27.396	845.926	684.008
347.548	27.596	845.016	683.964
348.562	27.509	845.051	683.604
349.577	27.370	844.452	682.539
350.592	27.343	843.884	681.915
351.606	27.305	843.256	681.209
352.621	27.282	842.908	680.778
353.635	27.117	842.648	679.890
354.650	27.057	841.923	679.024
355.665	26.898	841.115	677.716
356.679	25.743	839.416	671.981
357.694	25.666	838.663	671.032
358.708	26.220	839.253	673.511
359.723	26.070	838.389	672.197
360.738	26.425	838.064	673.201
361.752	26.860	837.853	674.590
362.767	26.991	837.567	674.787
363.781	27.264	837.569	675.741
364.796	27.598	837.213	676.637
365.810	27.787	836.626	676.801
366.825	27.671	836.219	675.982
367.840	27.567	836.597	675.842
368.854	27.541	835.707	674.968
369.869	27.132	834.497	672.416
370.883	26.847	833.934	670.849
371.898	27.153	833.084	671.238
372.913	27.070	832.805	670.648
373.927	26.916	832.225	669.552
374.942	27.249	831.243	669.931
375.956	27.215	830.930	669.493
376.971	27.324	830.388	669.398
377.986	27.436	829.777	669.258
379.000	27.487	829.515	669.174
380.015	27.571	829.257	669.217
381.029	27.540	828.107	668.117
382.044	27.434	827.738	667.371
383.059	27.503	827.527	667.395
384.073	27.581	826.709	666.959
385.088	27.594	826.392	666.694
386.102	27.747	825.697	666.634
387.117	27.404	825.174	664.899
388.132	27.274	824.550	663.863
389.146	27.171	823.659	662.711
390.161	26.571	822.837	659.807
391.175	26.544	822.133	659.083
392.190	27.143	822.553	661.542
393.205	27.269	821.980	661.481
394.219	26.469	820.356	657.214
395.234	24.762	818.013	649.090
396.248	23.815	816.918	644.730
397.263	24.816	817.773	648.977
398.278	26.616	819.115	656.517
399.292	27.176	819.163	658.530
400.307	26.993	818.624	657.375
401.321	26.745	817.839	655.788
402.336	26.740	817.829	655.704
403.350	27.176	817.474	656.938
404.365	27.511	817.587	658.179
405.380	27.877	817.237	659.162
406.394	28.229	817.070	660.239
407.409	28.223	816.774	659.921
408.423	28.434	816.079	660.059
409.438	28.300	815.335	658.917
410.453	28.182	814.920	658.099
411.467	28.476	814.506	658.765
412.482	28.261	814.065	657.576
413.496	28.035	813.761	656.463
414.511	28.427	813.431	657.544
415.526	28.331	813.211	656.965
416.540	28.248	812.870	656.334
417.555	28.215	812.304	655.700
418.569	28.015	811.183	654.020
419.584	27.973	810.245	653.058
420.599	28.187	810.113	653.658
421.613	95.009	1263.744	1374.768
422.628	81.644	1329.830	1374.919
