DTS Sentinel unit serial number:	SN413079Multiplexer serial number:	ORYXHardware model number:	OX4-SRSoftware version number:	ORYX F/W v4.00 Oryx Data Collector v3.7.2.0data status	okinstallation	princeton_trtdifferential loss correction	single-endedforward channel	channel 3reverse channel	N/Adate	2019/09/12time	02:58:11forward acquisition time	60.00reverse acquisition time	0.00gamma	496.2192k internal	0.2321k external	0.2321temperature offset calibration	1.0069default loss term (dB/km)	0.3790temperature slope calibration	1.0000multiplexer offset coefficient	1.0000multiplexer slope coefficient	1.0000fibre end	0.00T internal ref (°C)	32.31T ext. ref 1 (°C)	2.12T ext. ref 2 (°C)	27.07length (m)	temperature (°C)	Stokes	anti-Stokes-747.200	-47.754	-0.221	0.108
-746.185	800.000	0.038	0.123
-745.171	577.571	0.064	-0.159
-744.156	587.695	-0.150	0.374
-743.142	-200.000	0.013	-0.082
-742.127	-148.804	-0.244	-0.020
-741.112	-200.000	-0.353	0.000
-740.098	-60.298	-0.231	0.100
-739.083	40.022	0.093	-0.085
-738.069	800.000	0.080	0.347
-737.054	7.929	-0.226	0.171
-736.039	62.880	-0.190	-0.192
-735.025	58.848	0.182	0.181
-734.010	-200.000	0.020	-0.225
-732.996	-102.549	0.213	0.051
-731.981	140.308	-0.142	-0.189
-730.966	241.946	-0.222	-0.376
-729.952	85.047	0.181	-0.200
-728.937	10.494	-0.228	-0.175
-727.923	35.838	-0.203	0.180
-726.908	-65.690	0.064	0.026
-725.894	39.299	-0.377	-0.341
-724.879	32.081	-0.251	0.219
-723.864	-200.000	-0.025	-0.388
-722.850	-116.690	0.162	0.030
-721.835	-0.913	-0.066	0.047
-720.821	48.756	0.170	-0.161
-719.806	68.706	0.168	0.174
-718.791	78.831	-0.276	-0.299
-717.777	-25.834	-0.066	-0.039
-716.762	-83.803	-0.184	0.059
-715.748	10.930	0.027	0.021
-714.733	-70.776	0.140	-0.053
-713.718	543.476	-0.143	-0.344
-712.704	-200.000	-0.028	0.232
-711.689	-156.562	0.406	-0.025
-710.675	18.645	-0.085	-0.069
-709.660	298.506	-0.072	-0.133
-708.645	-160.262	-0.157	-0.009
-707.631	231.607	-0.075	0.125
-706.616	-200.000	-0.023	0.507
-705.602	328.798	-0.173	-0.336
-704.587	-100.341	-0.154	0.039
-703.572	-132.575	0.087	0.011
-702.558	-133.476	0.115	-0.015
-701.543	800.000	0.122	0.418
-700.529	-76.957	-0.454	-0.160
-699.514	-125.589	0.167	-0.026
-698.499	267.003	-0.082	0.144
-697.485	-115.040	-0.168	-0.032
-696.470	169.480	-0.054	-0.077
-695.456	-200.000	-0.037	-0.200
-694.441	-128.142	-0.114	0.016
-693.426	-178.677	-0.158	-0.004
-692.412	86.527	0.176	-0.196
-691.397	90.509	0.123	-0.139
-690.383	35.793	-0.178	-0.158
-689.368	47.240	-0.274	-0.258
-688.354	146.048	0.075	0.102
-687.339	-103.634	-0.215	-0.051
-686.324	-149.920	0.264	0.021
-685.310	234.069	-0.033	-0.056
-684.295	-200.000	-0.008	0.145
-683.281	484.159	0.105	0.240
-682.266	96.173	0.029	0.033
-681.251	-19.895	-0.215	-0.134
-680.237	-9.766	0.226	-0.151
-679.222	-65.047	-0.387	0.158
-678.208	-4.000	0.233	-0.163
-677.193	-200.000	-0.070	-0.464
-676.178	-200.000	0.039	-0.247
-675.164	800.000	0.090	0.385
-674.149	672.284	0.058	-0.151
-673.135	-145.717	-0.307	0.028
-672.120	-200.000	0.047	-0.234
-671.105	800.000	-0.020	-0.071
-670.091	63.934	-0.067	0.067
-669.076	-200.000	-0.061	0.449
-668.062	-50.996	-0.282	-0.133
-667.047	754.796	-0.054	-0.148
-666.032	671.501	0.041	-0.107
-665.018	119.656	0.207	-0.258
-664.003	53.409	-0.183	0.177
-662.989	-152.104	0.436	0.032
-661.974	-95.428	0.115	0.031
-660.959	800.000	0.028	0.101
-659.945	-200.000	0.021	-0.322
-658.930	-136.678	-0.196	0.023
-657.916	800.000	0.130	0.366
-656.901	-153.124	0.311	0.022
-655.886	525.440	-0.173	0.410
-654.872	-200.000	0.015	-0.188
-653.857	161.155	0.102	-0.144
-652.843	-34.542	-0.121	0.067
-651.828	-187.202	0.485	-0.007
-650.814	103.390	0.177	-0.209
-649.799	-116.465	0.200	0.037
-648.784	-4.241	-0.148	-0.103
-647.770	-200.000	-0.007	0.053
-646.755	-200.000	0.003	0.023
-645.741	-123.099	0.295	0.048
-644.726	61.925	-0.085	0.085
-643.711	136.311	0.148	0.194
-642.697	-137.196	0.074	0.009
-641.682	-184.223	0.748	-0.012
-640.668	-85.147	-0.565	-0.178
-639.653	128.218	0.104	0.133
-638.638	-67.244	-0.063	0.025
-637.624	85.054	0.094	0.103
-636.609	59.775	-0.176	-0.174
-635.595	-90.937	-0.103	-0.030
-634.580	-138.345	-0.238	0.026
-633.565	-88.725	0.256	-0.077
-632.551	-113.856	-0.141	0.027
-631.536	-70.545	0.339	0.129
-630.522	-200.000	-0.010	-0.232
-629.507	-33.389	0.101	0.056
-628.492	153.953	-0.059	0.081
-627.478	63.288	0.176	-0.178
-626.463	371.214	-0.107	0.218
-625.449	17.014	-0.247	0.197
-624.434	800.000	-0.037	0.112
-623.419	622.957	-0.105	0.265
-622.405	-60.572	0.388	0.166
-621.390	113.561	0.136	0.166
-620.376	-91.429	-0.230	-0.066
-619.361	10.359	0.082	0.063
-618.346	-200.000	0.014	0.324
-617.332	-154.130	-0.368	-0.025
-616.317	55.362	-0.006	0.006
-615.303	-86.864	0.252	-0.077
-614.288	146.342	-0.072	0.097
-613.273	90.892	-0.072	0.081
-612.259	6.610	0.334	-0.249
-611.244	800.000	-0.044	0.162
-610.230	-200.000	-0.038	-0.263
-609.215	800.000	-0.071	-0.214
-608.201	-5.918	0.122	-0.084
-607.186	-3.107	0.067	-0.047
-606.171	-62.029	-0.351	-0.147
-605.157	212.139	0.089	-0.140
-604.142	-107.639	-0.126	-0.028
-603.128	-38.129	-0.238	-0.127
-602.113	53.035	0.205	-0.198
-601.098	117.845	0.142	-0.176
-600.084	-76.812	0.104	-0.036
-599.069	-94.881	0.245	0.067
-598.055	-61.822	0.314	0.132
-597.040	282.963	0.052	-0.094
-596.025	800.000	0.041	0.128
-595.011	187.145	-0.199	0.298
-593.996	39.724	0.082	-0.074
-592.982	800.000	0.064	-0.257
-591.967	291.252	0.053	-0.098
-590.952	-131.743	0.161	-0.021
-589.938	314.572	-0.079	0.150
-588.923	-53.537	-0.156	0.071
-587.909	-93.308	-0.362	0.101
-586.894	-200.000	0.033	0.207
-585.879	-2.561	-0.066	-0.046
-584.865	-200.000	0.032	-0.247
-583.850	291.026	0.184	-0.335
-582.836	150.893	0.126	-0.172
-581.821	-191.155	-0.367	-0.004
-580.806	22.019	-0.254	-0.208
-579.792	320.160	-0.058	-0.110
-578.777	-87.583	-0.304	0.092
-577.763	-200.000	0.106	0.547
-576.748	99.538	-0.112	0.130
-575.733	-25.041	-0.296	-0.176
-574.719	-116.168	0.184	0.034
-573.704	71.765	0.173	0.181
-572.690	-200.000	0.032	0.185
-571.675	-40.858	-0.382	0.198
-570.661	-127.883	-0.222	-0.032
-569.646	-16.304	-0.183	-0.116
-568.631	235.669	-0.107	0.178
-567.617	-200.000	0.018	0.372
-566.602	530.053	-0.101	0.240
-565.588	-200.000	-0.003	0.235
-564.573	800.000	-0.073	-0.259
-563.558	78.608	0.041	-0.044
-562.544	26.173	-0.071	-0.059
-561.529	226.739	0.151	0.246
-560.515	-164.856	-0.191	-0.009
-559.500	49.762	0.117	0.111
-558.485	-200.000	-0.029	0.147
-557.471	106.095	-0.133	-0.158
-556.456	170.457	-0.090	-0.129
-555.442	800.000	-0.035	-0.137
-554.427	603.803	0.008	0.019
-553.412	74.224	0.287	-0.302
-552.398	800.000	0.105	-0.378
-551.383	217.065	-0.047	0.075
-550.369	-200.000	0.004	-0.201
-549.354	-132.379	-0.333	-0.043
-548.339	410.952	0.099	-0.211
-547.325	-89.072	-0.279	-0.083
-546.310	-200.000	-0.005	0.055
-545.296	-81.736	0.135	0.045
-544.281	800.000	-0.031	-0.129
-543.266	-81.313	0.250	0.083
-542.252	-68.702	0.154	0.060
-541.237	-40.576	0.144	0.075
-540.223	709.557	0.043	-0.113
-539.208	-200.000	-0.022	-0.106
-538.193	30.774	-0.171	0.147
-537.179	632.786	-0.035	0.089
-536.164	-200.000	-0.030	0.157
-535.150	311.856	-0.142	0.268
-534.135	-172.670	-0.178	-0.006
-533.121	-55.753	-0.166	-0.074
-532.106	116.980	0.134	-0.165
-531.091	-200.000	-0.052	-0.325
-530.077	-37.069	0.288	0.155
-529.062	-200.000	0.011	0.078
-528.048	346.568	0.086	-0.170
-527.033	-200.000	0.006	-0.048
-526.018	68.222	-0.037	-0.038
-525.004	-120.560	-0.040	-0.007
-523.989	-200.000	-0.014	-0.121
-522.975	-110.590	-0.380	-0.079
-521.960	468.084	-0.072	0.162
-520.945	-83.338	0.151	0.048
-519.931	-61.739	0.283	-0.119
-518.916	-140.521	-0.109	0.011
-517.902	-138.547	0.306	-0.034
-516.887	-200.000	0.002	0.094
-515.872	-134.894	-0.169	-0.020
-514.858	800.000	0.155	-0.477
-513.843	342.481	0.062	-0.121
-512.829	-200.000	-0.002	-0.074
-511.814	47.149	-0.184	-0.172
-510.799	-1.393	-0.177	-0.125
-509.785	44.137	-0.149	0.137
-508.770	-156.126	-0.541	0.034
-507.756	-96.528	-0.120	-0.032
-506.741	-55.477	-0.291	-0.130
-505.726	-178.353	0.208	-0.005
-504.712	-200.000	0.029	0.199
-503.697	-142.744	-0.366	-0.036
-502.683	89.327	-0.247	-0.276
-501.668	-104.475	0.134	-0.031
-500.653	93.736	0.113	-0.128
-499.639	-154.471	0.345	0.023
-498.624	83.929	-0.016	-0.018
-497.610	94.796	-0.093	0.106
-496.595	330.117	-0.098	0.190
-495.581	-31.693	-0.193	-0.108
-494.566	169.123	0.068	-0.097
-493.551	-20.150	-0.148	0.091
-492.537	95.426	-0.063	0.072
-491.522	-200.000	0.007	-0.069
-490.508	-95.759	-0.257	-0.069
-489.493	205.205	-0.090	-0.139
-488.478	-157.151	-0.284	-0.017
-487.464	33.492	-0.019	-0.016
-486.449	-200.000	0.023	0.235
-485.435	-125.389	-0.249	0.038
-484.420	-31.465	0.219	-0.123
-483.405	619.993	0.076	-0.190
-482.391	-55.876	0.114	-0.051
-481.376	800.000	0.034	0.100
-480.362	181.711	-0.110	-0.162
-479.347	109.425	-0.069	0.082
-478.332	-116.475	-0.266	-0.049
-477.318	123.765	-0.114	0.144
-476.303	-169.724	0.224	-0.008
-475.289	397.500	0.045	-0.094
-474.274	127.834	-0.126	-0.160
-473.259	-72.723	0.312	-0.115
-472.245	-97.862	-0.169	0.044
-471.230	129.027	-0.188	-0.240
-470.216	32.852	-0.008	-0.007
-469.201	49.815	-0.163	-0.154
-468.186	390.737	-0.009	-0.019
-467.172	312.693	-0.223	-0.419
-466.157	264.753	-0.078	-0.135
-465.143	-200.000	-0.007	-0.297
-464.128	-96.018	-0.276	0.073
-463.113	800.000	0.044	-0.126
-462.099	3.533	0.474	-0.346
-461.084	104.362	0.045	0.053
-460.070	-200.000	0.029	0.267
-459.055	-115.668	0.403	-0.076
-458.040	-59.534	0.179	-0.077
-457.026	61.468	0.230	0.229
-456.011	-32.447	-0.438	0.244
-454.997	34.398	0.298	0.260
-453.982	623.691	0.181	-0.456
-452.968	-9.811	-0.133	0.089
-451.953	137.780	0.185	0.243
-450.938	-82.765	-0.210	-0.068
-449.924	-48.923	0.280	-0.134
-448.909	485.432	-0.123	0.280
-447.895	-58.147	-0.043	-0.019
-446.880	-200.000	-0.065	-0.299
-445.865	-52.614	0.250	0.115
-444.851	-155.632	0.197	0.013
-443.836	44.188	-0.163	-0.149
-442.822	-200.000	-0.091	0.517
-441.807	800.000	-0.044	-0.126
-440.792	30.788	-0.048	0.041
-439.778	-17.746	0.165	0.104
-438.763	210.397	-0.068	0.107
-437.749	-158.564	0.097	-0.006
-436.734	-200.000	-0.074	0.355
-435.719	-200.000	-0.025	0.223
-434.705	-44.209	-0.192	0.096
-433.690	800.000	0.032	-0.107
-432.676	-85.925	-0.125	0.039
-431.661	-100.878	-0.228	-0.056
-430.646	76.324	0.079	0.083
-429.632	-43.772	0.076	-0.038
-428.617	443.673	0.076	-0.167
-427.603	217.608	0.106	0.169
-426.588	87.585	-0.178	0.196
-425.573	137.679	-0.152	0.198
-424.559	160.558	0.210	-0.292
-423.544	241.539	0.041	-0.068
-422.530	32.278	-0.108	0.093
-421.515	154.338	0.291	-0.399
-420.500	118.294	-0.220	-0.270
-419.486	-149.778	-0.198	0.015
-418.471	-147.021	-0.272	-0.023
-417.457	-200.000	-0.107	0.565
-416.442	800.000	0.033	0.121
-415.428	110.398	0.122	0.146
-414.413	711.165	0.127	-0.335
-413.398	131.965	-0.177	-0.228
-412.384	800.000	0.046	0.187
-411.369	198.330	0.050	0.077
-410.355	52.141	0.113	0.108
-409.340	-133.717	0.179	0.022
-408.325	92.943	0.087	0.098
-407.311	-200.000	-0.048	-0.321
-406.296	-20.804	-0.110	0.067
-405.282	-200.000	-0.026	0.134
-404.267	-138.475	0.400	-0.044
-403.252	77.773	0.133	0.141
-402.238	800.000	-0.076	-0.214
-401.223	800.000	-0.042	-0.164
-400.209	-51.806	-0.228	0.106
-399.194	-150.680	-0.323	0.025
-398.179	-13.734	0.078	0.050
-397.165	-200.000	0.029	-0.176
-396.150	342.341	0.112	0.219
-395.136	-200.000	-0.034	-0.208
-394.121	-200.000	0.018	-0.244
-393.106	23.844	-0.361	-0.296
-392.092	196.304	0.103	-0.156
-391.077	-93.220	0.641	0.178
-390.063	185.418	0.065	-0.096
-389.048	-4.703	-0.183	0.126
-388.033	9.254	-0.136	-0.103
-387.019	4.541	-0.052	-0.038
-386.004	388.635	-0.030	0.061
-384.990	115.243	0.025	-0.031
-383.975	-152.761	0.333	0.024
-382.960	206.549	0.104	0.161
-381.946	99.855	-0.130	0.150
-380.931	-119.987	0.520	-0.089
-379.917	631.426	0.069	0.173
-378.902	-128.213	-0.324	0.046
-377.888	294.434	-0.136	0.248
-376.873	25.622	-0.286	0.237
-375.858	-118.375	0.263	0.046
-374.844	-200.000	-0.028	-0.170
-373.829	-126.417	-0.258	0.038
-372.815	191.343	-0.139	0.208
-371.800	-200.000	-0.043	0.219
-370.785	-199.298	-0.179	0.001
-369.771	90.062	0.167	0.186
-368.756	72.218	-0.220	-0.228
-367.742	-104.976	0.108	-0.025
-366.727	-132.413	-0.177	0.023
-365.712	688.589	0.088	0.230
-364.698	-200.000	0.021	-0.122
-363.683	51.073	-0.206	-0.194
-362.669	16.115	-0.205	0.161
-361.654	44.592	0.141	-0.129
-360.639	-6.090	0.286	0.194
-359.625	154.271	-0.025	-0.034
-358.610	126.564	-0.123	0.156
-357.596	-200.000	-0.003	0.306
-356.581	-31.107	-0.185	0.104
-355.566	800.000	0.057	0.157
-354.552	-18.135	0.250	0.156
-353.537	-200.000	0.071	-0.404
-352.523	685.153	-0.120	-0.311
-351.508	-10.644	0.141	0.093
-350.493	800.000	-0.041	0.115
-349.479	-99.423	0.166	0.042
-348.464	600.918	0.053	0.131
-347.450	65.872	-0.094	-0.095
-346.435	96.741	0.146	0.167
-345.420	-200.000	0.017	0.117
-344.406	-42.755	0.287	-0.145
-343.391	89.608	0.144	-0.160
-342.377	-195.570	0.232	0.002
-341.362	179.201	0.117	-0.170
-340.348	800.000	-0.058	-0.163
-339.333	-23.929	-0.046	-0.027
-338.318	800.000	0.026	-0.090
-337.304	521.295	0.068	-0.159
-336.289	157.729	0.163	-0.225
-335.275	-83.915	-0.235	-0.074
-334.260	-27.365	-0.092	0.053
-333.245	800.000	-0.059	0.257
-332.231	-94.492	0.205	0.056
-331.216	-5.215	-0.400	-0.274
-330.202	-142.222	-0.165	-0.016
-329.187	-173.897	-0.273	0.008
-328.172	55.251	0.135	0.130
-327.158	289.773	0.075	-0.135
-326.143	-38.059	0.582	-0.307
-325.129	-79.771	-0.119	-0.040
-324.114	41.502	0.139	0.125
-323.099	158.531	-0.088	-0.121
-322.085	-58.041	0.223	-0.097
-321.070	172.222	-0.063	-0.090
-320.056	50.487	-0.181	0.170
-319.041	-164.960	-0.157	-0.007
-318.026	-200.000	-0.069	0.422
-317.012	759.372	-0.104	0.279
-315.997	81.106	0.067	-0.072
-314.983	-84.084	-0.274	-0.087
-313.968	-200.000	-0.010	0.097
-312.953	-94.834	0.287	0.077
-311.939	273.565	-0.059	0.104
-310.924	168.520	0.187	-0.265
-309.910	-42.106	-0.168	-0.085
-308.895	-97.685	0.249	-0.064
-307.880	303.659	0.163	0.301
-306.866	198.743	-0.227	-0.345
-305.851	357.404	-0.020	-0.040
-304.837	800.000	-0.075	-0.222
-303.822	-84.033	0.412	0.130
-302.807	-170.473	0.262	0.009
-301.793	-192.148	-0.088	-0.001
-300.778	-29.070	-0.161	0.092
-299.764	-0.036	0.299	-0.212
-298.749	47.732	-0.132	0.123
-297.735	-39.844	0.168	0.087
-296.720	-200.000	-0.023	0.181
-295.705	800.000	-0.030	-0.093
-294.691	190.095	-0.088	-0.130
-293.676	181.011	0.149	0.218
-292.662	622.751	0.132	0.330
-291.647	-128.646	0.219	-0.031
-290.632	-37.246	-0.080	-0.043
-289.618	-161.085	0.138	0.007
-288.603	206.220	-0.134	0.208
-287.589	1.052	-0.080	-0.057
-286.574	-200.000	-0.008	0.066
-285.559	50.118	-0.250	0.235
-284.545	64.339	-0.171	-0.171
-283.530	-200.000	-0.002	0.263
-282.516	37.243	0.213	0.187
-281.501	184.007	0.089	0.131
-280.486	45.743	0.132	0.121
-279.472	36.994	0.233	-0.205
-278.457	-200.000	0.009	0.123
-277.443	800.000	-0.087	0.239
-276.428	69.987	0.281	-0.288
-275.413	-86.590	0.225	-0.068
-274.399	132.308	0.121	0.154
-273.384	-43.722	-0.275	-0.138
-272.370	112.090	-0.062	-0.075
-271.355	255.662	-0.162	-0.276
-270.340	-200.000	0.024	0.423
-269.326	-139.752	-0.086	0.009
-268.311	-179.433	-0.169	-0.004
-267.297	422.609	0.099	-0.211
-266.282	72.389	0.356	-0.369
-265.267	800.000	0.108	-0.310
-264.253	-59.380	0.034	0.014
-263.238	800.000	-0.084	-0.239
-262.224	-185.961	0.143	0.002
-261.209	-68.757	-0.204	0.078
-260.195	-200.000	0.017	-0.135
-259.180	-144.775	-0.328	-0.030
-258.165	117.704	-0.136	-0.166
-257.151	-200.000	0.053	0.288
-256.136	214.612	-0.025	-0.039
-255.122	-7.211	0.222	0.149
-254.107	-200.000	-0.017	-0.240
-253.092	-3.429	0.157	0.108
-252.078	800.000	0.067	0.193
-251.063	-105.258	0.115	-0.026
-250.049	215.520	-0.024	-0.038
-249.034	-8.238	0.081	-0.054
-248.019	-200.000	-0.003	0.221
-247.005	-81.679	0.157	-0.051
-245.990	-200.000	0.009	-0.345
-244.976	143.443	0.201	-0.265
-243.961	-200.000	0.363	-0.001
-242.946	-158.122	0.098	0.006
-241.932	800.000	0.020	-0.061
-240.917	-200.000	0.040	0.271
-239.903	-70.256	0.099	-0.037
-238.888	-99.877	0.159	-0.039
-237.873	-78.260	-0.321	0.109
-236.859	342.632	-0.080	0.155
-235.844	-126.825	-0.152	0.022
-234.830	-200.000	0.029	0.379
-233.815	-184.832	-0.237	0.004
-232.800	-173.743	0.545	0.016
-231.786	-200.000	-0.005	0.270
-230.771	-113.644	-0.199	-0.039
-229.757	-64.647	-0.067	-0.027
-228.742	-200.000	-0.022	-0.239
-227.727	-200.000	0.070	0.315
-226.713	-200.000	-0.012	0.073
-225.698	15.708	0.227	0.177
-224.684	-25.897	0.187	-0.109
-223.669	-99.766	0.225	0.056
-222.655	-200.000	0.016	0.322
-221.640	-63.137	-0.241	0.099
-220.625	163.474	0.132	-0.183
-219.611	-51.478	0.222	-0.102
-218.596	8.938	-0.311	-0.232
-217.582	17.854	-0.154	0.121
-216.567	-49.342	0.283	-0.134
-215.552	49.979	-0.110	0.103
-214.538	-200.000	-0.014	0.071
-213.523	800.000	-0.055	0.177
-212.509	-154.749	-0.227	0.015
-211.494	-200.000	0.040	-0.373
-210.479	-200.000	0.042	0.251
-209.465	-167.251	-0.407	-0.016
-208.450	-88.122	0.233	-0.069
-207.436	-200.000	-0.047	0.214
-206.421	64.711	0.151	-0.151
-205.406	360.235	-0.113	-0.223
-204.392	0.480	0.096	0.068
-203.377	109.398	0.122	-0.145
-202.363	-200.000	-0.067	-0.294
-201.348	-200.000	0.102	-0.453
-200.333	130.680	0.052	0.066
-199.319	-27.731	-0.170	0.097
-198.304	-43.523	0.084	0.042
-197.290	-13.449	-0.145	0.093
-196.275	125.133	0.127	0.158
-195.260	293.628	0.021	0.038
-194.246	-194.592	-0.102	0.001
-193.231	-49.167	-0.172	0.081
-192.217	-147.907	0.318	-0.026
-191.202	88.776	-0.097	-0.107
-190.187	27.420	-0.167	-0.139
-189.173	149.108	0.081	0.108
-188.158	318.024	-0.152	0.285
-187.144	-12.678	-0.127	0.082
-186.129	-76.513	-0.150	0.052
-185.114	-200.000	-0.013	0.249
-184.100	-137.848	-0.042	0.005
-183.085	-6.535	0.130	-0.087
-182.071	27.683	0.348	0.289
-181.056	-163.611	-0.156	0.007
-180.042	45.756	-0.055	-0.050
-179.027	-166.206	-0.095	-0.004
-178.012	157.637	-0.138	-0.188
-176.998	800.000	-0.021	-0.058
-175.983	118.141	-0.117	0.142
-174.969	-69.256	-0.273	0.104
-173.954	800.000	-0.099	0.318
-172.939	-200.000	-0.011	-0.216
-171.925	-125.798	0.232	0.035
-170.910	498.877	-0.072	-0.164
-169.896	-168.444	0.170	0.006
-168.881	731.410	0.047	0.124
-167.866	363.678	0.145	0.288
-166.852	6.857	-0.092	-0.068
-165.837	52.062	0.240	0.226
-164.823	-185.038	0.362	-0.006
-163.808	33.868	0.170	-0.146
-162.793	358.151	-0.077	0.152
-161.779	32.685	-0.257	-0.219
-160.764	180.043	0.261	0.378
-159.750	58.095	-0.260	-0.252
-158.735	-104.290	-0.393	-0.090
-157.720	144.171	0.054	-0.071
-156.706	-200.000	0.007	0.130
-155.691	158.345	-0.162	-0.222
-154.677	-30.659	0.091	0.051
-153.662	-137.408	0.203	0.023
-152.647	593.929	0.117	-0.287
-151.633	800.000	-0.065	-0.208
-150.618	-61.092	0.147	0.061
-149.604	-200.000	0.022	0.259
-148.589	-20.790	-0.193	0.117
-147.574	-200.000	-0.003	0.129
-146.560	-29.188	0.167	0.095
-145.545	69.198	-0.147	-0.149
-144.531	-163.010	-0.077	-0.004
-143.516	-97.284	0.166	0.043
-142.502	540.072	0.068	0.159
-141.487	-200.000	-0.383	-0.001
-140.472	-110.827	0.522	-0.106
-139.458	-166.354	0.091	0.004
-138.443	-73.897	-0.107	0.038
-137.429	58.081	-0.155	-0.150
-136.414	800.000	-0.064	-0.179
-135.399	151.808	-0.129	-0.173
-134.385	97.761	-0.051	-0.058
-133.370	-52.248	0.506	0.231
-132.356	303.487	0.159	0.291
-131.341	-75.261	-0.093	0.033
-130.326	43.236	0.073	-0.066
-129.312	-197.983	-0.092	-0.001
-128.297	-93.628	0.193	0.053
-127.283	-59.992	-0.072	-0.030
-126.268	-45.961	0.234	0.114
-125.253	800.000	0.075	-0.239
-124.239	505.107	-0.150	0.343
-123.224	-18.262	-0.168	0.103
-122.210	104.058	0.201	-0.233
-121.195	253.100	0.146	-0.246
-120.180	-200.000	-0.041	0.270
-119.166	-3.288	0.112	0.077
-118.151	-72.571	-0.276	-0.100
-117.137	105.716	0.220	0.256
-116.122	-105.481	0.193	0.043
-115.107	-21.163	0.324	0.196
-114.093	181.994	-0.112	0.163
-113.078	231.798	0.076	0.122
-112.064	149.314	0.056	0.075
-111.049	800.000	0.052	-0.178
-110.034	20.150	-0.136	0.109
-109.020	-7.831	-0.436	0.290
-108.005	800.000	0.137	0.469
-106.991	362.765	-0.141	0.279
-105.976	-107.115	0.232	-0.050
-104.962	176.582	-0.035	-0.050
-103.947	-200.000	0.008	-0.159
-102.932	-110.303	0.243	-0.050
-101.918	-200.000	-0.029	-0.332
-100.903	-146.372	0.295	-0.025
-99.889	454.957	-0.093	-0.203
-98.874	-50.914	-0.198	0.092
-97.859	-136.504	0.331	0.038
-96.845	7.832	0.079	0.058
-95.830	800.000	-0.025	0.102
-94.816	800.000	-0.056	-0.201
-93.801	-92.251	-0.177	-0.049
-92.786	-200.000	0.003	0.179
-91.772	373.882	-0.175	0.351
-90.757	700.698	-0.023	0.060
-89.743	120.488	0.083	-0.102
-88.728	-200.000	0.007	0.178
-87.713	296.602	-0.208	-0.376
-86.699	198.266	0.029	0.043
-85.684	-149.776	0.321	0.025
-84.670	94.064	-0.067	0.075
-83.655	345.650	-0.218	0.423
-82.640	-200.000	0.003	0.042
-81.626	260.143	-0.195	0.333
-80.611	800.000	-0.048	-0.154
-79.597	800.000	0.051	-0.148
-78.582	-200.000	-0.009	0.120
-77.567	-26.791	0.106	0.061
-76.553	289.744	0.241	0.430
-75.538	69.868	0.266	0.270
-74.524	-33.174	0.273	-0.149
-73.509	-117.270	0.053	0.010
-72.494	735.779	0.079	-0.209
-71.480	-2.401	0.123	-0.085
-70.465	446.947	0.042	0.090
-69.451	-181.822	-0.133	-0.003
-68.436	800.000	-0.044	0.121
-67.422	363.675	0.091	0.181
-66.407	-56.514	0.157	0.069
-65.392	800.000	-0.050	-0.211
-64.378	-146.648	-0.105	0.009
-63.363	-200.000	0.014	0.353
-62.349	800.000	0.032	-0.129
-61.334	132.049	-0.866	-1.098
-60.319	133.587	0.228	0.291
-59.305	800.000	-0.294	-0.989
-58.290	282.026	0.626	1.103
-57.276	800.000	0.636	1.859
-56.261	-200.000	95.382	591.121
-55.246	570.382	1365.048	3267.200
-54.232	163.000	2537.737	3506.137
-53.217	112.913	2154.846	2568.479
-52.203	42.972	1703.144	1527.539
-51.188	35.547	1516.556	1309.738
-50.173	33.105	1490.141	1270.484
-49.159	51.831	1539.018	1440.506
-48.144	53.762	1556.458	1469.974
-47.130	35.679	1516.145	1310.071
-46.115	32.574	1501.418	1276.301
-45.100	32.462	1498.322	1272.859
-44.086	32.431	1496.573	1271.111
-43.071	32.340	1494.517	1268.703
-42.057	32.286	1493.150	1267.130
-41.042	32.393	1491.073	1266.032
-40.027	32.423	1489.974	1265.250
-39.013	32.342	1488.436	1263.352
-37.998	32.269	1487.443	1261.969
-36.984	32.277	1486.445	1261.130
-35.969	32.402	1485.179	1260.843
-34.954	32.343	1483.809	1259.235
-33.940	32.229	1482.611	1257.401
-32.925	32.387	1481.001	1257.041
-31.911	32.351	1479.320	1255.329
-30.896	32.391	1477.797	1254.249
-29.881	32.421	1476.813	1253.564
-28.867	32.515	1475.076	1252.668
-27.852	32.328	1474.056	1250.508
-26.838	32.373	1472.773	1249.668
-25.823	32.458	1471.173	1248.825
-24.809	32.359	1469.314	1246.545
-23.794	32.345	1467.925	1245.223
-22.779	32.356	1467.213	1244.638
-21.765	32.254	1465.907	1242.812
-20.750	32.316	1464.446	1241.931
-19.736	32.403	1463.134	1241.341
-18.721	32.331	1462.320	1240.125
-17.706	32.283	1461.337	1238.930
-16.692	32.260	1460.213	1237.773
-15.677	32.242	1459.210	1236.759
-14.663	32.302	1458.098	1236.160
-13.648	32.210	1457.765	1235.226
-12.633	32.305	1456.172	1234.449
-11.619	32.299	1455.563	1233.847
-10.604	32.236	1454.760	1232.701
-9.590	32.260	1453.924	1232.105
-8.575	32.228	1453.045	1231.099
-7.560	32.280	1451.614	1230.176
-6.546	32.269	1451.378	1229.855
-5.531	32.226	1450.415	1228.711
-4.517	32.224	1449.061	1227.500
-3.502	32.219	1448.219	1226.709
-2.487	32.239	1447.150	1225.884
-1.473	32.246	1446.094	1224.988
-0.458	32.176	1444.755	1223.347
0.556	32.806	1434.897	1212.587
1.571	29.944	1410.555	1173.800
2.586	26.860	1357.395	1110.610
3.600	25.401	1278.653	1037.669
4.615	23.950	1230.609	990.519
5.629	20.450	1172.844	925.334
6.644	10.828	1086.100	809.133
7.659	3.356	1044.046	741.863
8.673	2.294	1038.880	733.038
9.688	2.205	1035.549	730.197
10.702	2.018	1033.731	727.959
11.717	1.943	1032.042	726.344
12.731	5.597	1036.184	746.645
13.746	15.371	1049.768	803.383
14.761	23.069	1059.985	848.204
15.775	25.198	1061.364	859.445
16.790	25.406	1061.186	860.222
17.804	25.193	1060.908	858.901
18.819	25.089	1059.759	857.399
19.834	25.170	1059.240	857.291
20.848	25.340	1058.898	857.749
21.863	25.384	1058.582	857.629
22.877	25.369	1058.193	857.164
23.892	25.272	1057.679	856.209
24.907	25.261	1056.400	855.047
25.921	25.290	1056.144	854.902
26.936	25.331	1054.800	853.935
27.950	25.393	1053.590	853.171
28.965	25.255	1052.981	851.947
29.980	25.111	1051.426	849.934
30.994	25.061	1049.979	848.451
32.009	25.352	1049.193	849.117
33.023	25.307	1049.138	848.786
34.038	25.208	1048.117	847.416
35.053	25.065	1047.206	845.930
36.067	25.361	1046.191	846.429
37.082	25.472	1045.718	846.498
38.096	25.365	1044.936	845.286
39.111	25.573	1044.021	845.445
40.126	25.625	1042.927	844.731
41.140	25.565	1041.522	843.237
42.155	25.178	1040.662	840.650
43.169	24.961	1039.333	838.488
44.184	24.940	1038.248	837.439
45.199	24.991	1037.643	837.119
46.213	24.967	1036.590	836.082
47.228	24.960	1035.639	835.207
48.242	25.136	1035.015	835.453
49.257	25.361	1033.939	835.554
50.271	25.272	1033.502	834.715
51.286	25.459	1032.709	834.868
52.301	25.373	1032.252	834.025
53.315	25.401	1031.552	833.518
54.330	25.361	1030.818	832.663
55.344	25.326	1029.945	831.723
56.359	25.395	1028.619	830.899
57.374	25.244	1028.035	829.653
58.388	25.159	1027.110	828.440
59.403	25.067	1026.364	827.340
60.417	25.078	1025.738	826.817
61.432	24.858	1024.873	825.029
62.447	24.968	1024.281	824.986
63.461	25.197	1023.514	825.351
64.476	25.176	1022.817	824.621
65.490	25.098	1021.934	823.475
66.505	24.913	1021.187	821.952
67.520	25.072	1019.937	821.600
68.534	25.060	1019.829	821.389
69.549	24.911	1018.477	819.544
70.563	24.726	1017.023	817.455
71.578	24.581	1016.852	816.585
72.593	24.563	1016.258	815.952
73.607	24.524	1014.254	814.094
74.622	24.498	1013.678	813.440
75.636	24.794	1013.248	814.370
76.651	24.894	1012.810	814.404
77.666	24.808	1011.917	813.221
78.680	24.679	1010.784	811.652
79.695	24.770	1010.155	811.487
80.709	24.935	1009.469	811.612
81.724	24.794	1009.174	810.664
82.739	24.887	1007.655	809.796
83.753	24.931	1006.875	809.296
84.768	25.222	1006.628	810.337
85.782	25.521	1006.023	811.131
86.797	25.713	1005.525	811.524
87.812	25.739	1004.333	810.604
88.826	25.475	1003.758	808.883
89.841	25.433	1003.123	808.110
90.855	25.535	1002.008	807.597
91.870	25.740	1001.185	807.785
92.884	25.611	1000.217	806.353
93.899	25.454	998.972	804.576
94.914	25.523	998.087	804.099
95.928	25.501	997.425	803.398
96.943	25.556	996.968	803.205
97.957	25.299	995.598	800.883
98.972	25.082	994.363	798.852
99.987	24.912	993.593	797.404
101.001	24.983	992.743	796.967
102.016	25.278	992.627	798.118
103.030	25.424	991.731	797.973
104.045	25.240	990.824	796.354
105.060	25.031	989.880	794.602
106.074	25.055	988.184	793.276
107.089	24.935	987.899	792.446
108.103	25.208	987.851	793.546
109.118	25.263	986.715	792.806
110.133	25.178	985.118	791.075
111.147	24.902	984.700	789.454
112.162	24.848	983.171	787.920
113.176	24.732	981.852	786.284
114.191	24.899	981.455	786.632
115.206	24.951	980.930	786.368
116.220	24.637	979.688	783.925
117.235	24.556	978.519	782.566
118.249	24.700	978.247	782.909
119.264	24.670	977.684	782.257
120.279	24.578	976.506	780.844
121.293	24.688	975.752	780.654
122.308	24.702	975.342	780.316
123.322	24.627	974.666	779.381
124.337	24.732	973.467	778.809
125.352	24.688	971.642	777.091
126.366	24.301	970.118	774.122
127.381	23.811	969.118	771.131
128.395	24.335	969.120	773.335
129.410	24.973	969.082	776.004
130.424	25.283	967.797	776.245
131.439	25.247	967.139	775.494
132.454	25.162	965.553	773.787
133.468	25.131	965.323	773.403
134.483	25.285	963.727	772.715
135.497	25.179	963.961	772.380
136.512	25.398	963.102	772.565
137.527	25.395	962.404	771.924
138.541	25.369	961.903	771.343
139.556	25.480	961.145	771.142
140.570	25.462	960.307	770.326
141.585	25.393	959.649	769.432
142.600	25.609	958.282	769.192
143.614	25.450	957.737	768.005
144.629	25.507	956.930	767.535
145.643	25.747	956.141	767.858
146.658	25.666	955.214	766.699
147.673	25.387	954.018	764.485
148.687	25.390	953.004	763.618
149.702	25.303	951.719	762.151
150.716	25.191	951.098	761.115
151.731	25.284	949.820	760.418
152.746	25.285	949.803	760.341
153.760	25.517	948.936	760.562
154.775	25.669	948.138	760.496
155.789	25.644	947.557	759.854
156.804	25.791	946.177	759.303
157.819	25.615	945.511	757.960
158.833	25.619	944.929	757.442
159.848	25.648	944.080	756.816
160.862	25.811	943.295	756.806
161.877	25.608	942.306	755.095
162.892	25.502	941.619	754.031
163.906	25.743	940.296	753.916
164.921	25.614	939.490	752.661
165.935	25.526	938.230	751.217
166.950	25.737	937.530	751.474
167.964	25.642	937.040	750.617
168.979	25.763	935.320	749.678
169.994	25.624	934.738	748.563
171.008	25.448	933.820	747.030
172.023	25.512	933.474	746.956
173.037	25.772	932.581	747.255
174.052	25.510	931.671	745.373
175.067	25.477	930.397	744.152
176.081	25.413	929.936	743.452
177.096	25.406	928.900	742.529
178.110	25.411	928.161	741.893
179.125	25.373	926.957	740.708
180.140	24.886	926.228	738.052
181.154	25.082	925.465	738.188
182.169	25.159	925.366	738.358
183.183	25.280	925.270	738.715
184.198	25.647	924.406	739.469
185.213	25.615	923.650	738.667
186.227	25.484	923.219	737.719
187.242	25.577	922.934	737.806
188.256	25.693	922.090	737.543
189.271	25.632	921.456	736.720
190.286	25.853	920.418	736.730
191.300	25.587	919.503	734.847
192.315	25.141	918.117	731.851
193.329	24.312	916.399	727.039
194.344	23.867	915.622	724.547
195.359	24.545	915.800	727.386
196.373	25.241	916.551	730.754
197.388	25.648	915.738	731.694
198.402	25.630	915.249	731.168
199.417	25.413	914.693	729.779
200.432	25.423	914.359	729.485
201.446	25.466	913.392	728.825
202.461	25.138	912.762	726.929
203.475	25.265	912.509	727.178
204.490	24.684	911.169	723.694
205.504	23.510	908.911	717.093
206.519	23.964	908.869	718.831
207.534	25.071	909.073	723.398
208.548	25.160	908.674	723.376
209.563	25.402	908.581	724.213
210.577	25.451	907.594	723.562
211.592	25.263	906.719	722.041
212.607	25.531	906.931	723.228
213.621	25.695	906.447	723.437
214.636	25.706	905.550	722.699
215.650	25.651	904.746	721.773
216.665	25.633	904.269	721.256
217.680	25.614	903.925	720.842
218.694	25.816	903.549	721.287
219.709	25.442	902.376	718.794
220.723	25.129	901.177	716.522
221.738	25.190	901.305	716.806
222.753	25.418	900.606	717.095
223.767	25.570	899.701	716.916
224.782	25.661	899.089	716.729
225.796	25.739	898.403	716.429
226.811	25.853	898.054	716.541
227.826	25.537	896.977	714.362
228.840	24.620	895.780	709.707
229.855	24.425	895.056	708.297
230.869	24.812	894.649	709.448
231.884	24.513	893.362	707.180
232.899	24.464	893.033	706.662
233.913	25.450	893.174	710.612
234.928	25.583	892.460	710.505
235.942	25.329	891.997	709.074
236.957	25.451	891.509	709.105
237.972	25.131	890.568	707.029
238.986	25.054	889.764	706.026
240.001	25.164	889.357	706.076
241.015	25.099	888.719	705.249
242.030	25.225	888.031	705.136
243.045	25.392	887.603	705.390
244.059	25.398	887.375	705.170
245.074	25.546	886.672	705.128
246.088	25.570	886.131	704.730
247.103	25.306	884.870	702.632
248.117	25.242	884.563	702.076
249.132	25.679	884.790	703.904
250.147	26.190	884.457	705.573
251.161	26.436	883.342	705.582
252.176	26.468	883.219	705.547
253.190	26.568	882.360	705.185
254.205	26.419	882.191	704.411
255.220	26.569	882.195	704.934
256.234	26.733	881.058	704.602
257.249	26.366	881.180	703.207
258.263	26.325	880.117	702.139
259.278	26.399	879.253	701.676
260.293	26.373	879.071	701.367
261.307	26.465	878.678	701.348
262.322	26.341	877.836	700.134
263.336	26.254	877.145	699.183
264.351	25.697	875.788	695.887
265.366	24.777	873.938	690.802
266.380	24.260	872.907	687.936
267.395	25.217	873.475	692.015
268.409	25.977	873.425	694.843
269.424	25.894	872.862	694.015
270.439	26.110	872.467	694.471
271.453	26.406	871.573	694.835
272.468	26.335	870.697	693.804
273.482	26.226	870.931	693.508
274.497	26.518	870.132	693.929
275.512	26.373	869.329	692.673
276.526	25.835	867.946	689.451
277.541	25.860	867.561	689.179
278.555	26.370	867.254	690.824
279.570	26.197	866.476	689.485
280.585	25.866	865.968	687.755
281.599	26.075	865.570	688.176
282.614	26.080	864.980	687.663
283.628	25.754	863.875	685.484
284.643	25.299	863.217	683.171
285.657	25.754	863.164	684.799
286.672	25.737	862.535	684.175
287.687	25.164	861.395	681.033
288.701	25.522	861.400	682.337
289.716	25.841	861.154	683.294
290.730	25.454	860.137	680.959
291.745	25.445	859.140	680.074
292.760	25.235	858.388	678.624
293.774	25.094	858.240	677.915
294.789	26.130	858.390	681.890
295.803	26.788	858.405	684.327
296.818	26.776	857.950	683.857
297.833	26.942	857.657	684.189
298.847	26.663	856.550	682.194
299.862	26.434	855.174	680.176
300.876	26.418	855.294	680.153
301.891	26.778	854.628	680.914
302.906	26.835	854.042	680.602
303.920	26.444	853.050	678.285
304.935	26.302	852.355	677.141
305.949	26.683	852.002	678.226
306.964	26.744	852.117	678.486
307.979	26.399	851.088	676.318
308.993	26.369	850.746	675.872
310.008	26.759	850.269	676.891
311.022	26.853	850.628	677.467
312.037	26.853	849.185	676.261
313.052	26.575	848.579	674.680
314.066	26.333	848.049	673.298
315.081	25.659	846.630	669.605
316.095	24.903	845.305	665.687
317.110	25.448	845.546	667.844
318.125	26.230	846.078	671.113
319.139	25.982	844.682	669.028
320.154	24.853	842.643	663.172
321.168	24.488	841.571	660.918
322.183	24.959	842.312	663.188
323.197	26.005	842.363	667.038
324.212	26.231	842.229	667.709
325.227	26.371	841.890	667.900
326.241	26.629	841.755	668.685
327.256	26.414	841.141	667.343
328.270	26.184	840.614	666.021
329.285	26.120	839.817	665.094
330.300	26.087	839.391	664.574
331.314	25.934	837.857	662.740
332.329	26.063	837.234	662.664
333.343	26.441	837.048	663.843
334.358	26.627	837.150	664.549
335.373	26.605	836.519	663.908
336.387	26.456	836.171	663.028
337.402	26.734	836.082	663.917
338.416	27.090	835.326	664.561
339.431	26.983	834.435	663.402
340.446	27.045	834.161	663.353
341.460	27.372	833.734	664.148
342.475	27.305	833.158	663.386
343.489	27.057	832.345	661.777
344.504	27.155	831.440	661.355
345.519	27.342	831.302	661.867
346.533	27.349	831.826	662.249
347.548	27.515	831.076	662.199
348.562	27.508	830.389	661.565
349.577	27.399	829.618	660.498
350.592	27.236	829.215	659.528
351.606	27.272	829.046	659.464
352.621	27.257	828.346	658.794
353.635	27.212	827.857	658.184
354.650	27.171	827.294	657.531
355.665	26.936	826.430	655.937
356.679	25.808	824.459	650.247
357.694	25.725	824.187	649.673
358.708	26.314	823.895	651.511
359.723	26.337	823.293	651.059
360.738	26.604	823.233	651.916
361.752	26.880	823.476	653.043
362.767	27.111	822.754	653.246
363.781	27.199	822.901	653.618
364.796	27.589	822.613	654.735
365.810	27.759	821.924	654.739
366.825	27.797	821.881	654.782
367.840	27.808	821.613	654.551
368.854	27.587	820.838	653.082
369.869	27.159	819.710	650.597
370.883	26.974	819.418	649.643
371.898	27.171	818.661	649.691
372.913	27.143	817.870	648.907
373.927	27.095	817.504	648.386
374.942	27.216	816.854	648.245
375.956	27.174	816.346	647.635
376.971	27.414	815.715	647.933
377.986	27.507	815.443	647.989
379.000	27.790	814.804	648.428
380.015	27.800	814.488	648.156
381.029	27.628	813.756	646.906
382.044	27.564	813.086	646.092
383.059	27.760	812.835	646.528
384.073	27.650	812.603	645.895
385.088	27.727	811.904	645.557
386.102	27.945	810.838	645.420
387.117	27.562	810.336	643.613
388.132	27.567	809.535	642.938
389.146	27.393	808.870	641.737
390.161	26.660	808.046	638.444
391.175	26.895	807.958	639.148
392.190	27.439	808.042	641.073
393.205	27.349	807.395	640.185
394.219	26.338	805.975	635.451
395.234	24.719	803.728	627.943
396.248	24.037	802.396	624.454
397.263	25.167	803.276	629.052
398.278	26.874	804.820	636.197
399.292	27.380	804.413	637.594
400.307	27.061	803.728	635.876
401.321	27.078	803.085	635.372
402.336	27.059	802.846	635.059
403.350	27.490	802.841	636.503
404.365	27.780	802.793	637.424
405.380	28.315	802.578	639.065
406.394	28.335	802.818	639.268
407.409	28.412	802.488	639.218
408.423	28.364	801.778	638.428
409.438	28.592	800.668	638.280
410.453	28.509	800.498	637.802
411.467	28.617	800.208	637.890
412.482	28.480	799.932	637.134
413.496	28.389	798.783	635.849
414.511	28.457	798.943	636.156
415.526	28.472	798.601	635.881
416.540	28.487	797.799	635.236
417.555	28.512	797.257	634.836
418.569	28.086	796.900	633.019
419.584	27.964	796.507	632.230
420.599	28.120	795.880	632.216
421.613	111.420	1284.945	1458.164
422.628	96.024	1356.195	1458.260
