DTS Sentinel unit serial number:	SN413079Multiplexer serial number:	ORYXHardware model number:	OX4-SRSoftware version number:	ORYX F/W v4.00 Oryx Data Collector v3.7.2.0data status	okinstallation	princeton_trtdifferential loss correction	single-endedforward channel	channel 3reverse channel	N/Adate	2019/09/16time	17:12:34forward acquisition time	60.00reverse acquisition time	0.00gamma	496.2192k internal	0.2296k external	0.2296temperature offset calibration	0.9946default loss term (dB/km)	0.3790temperature slope calibration	1.0000multiplexer offset coefficient	1.0000multiplexer slope coefficient	1.0000fibre end	0.00T internal ref (°C)	39.00T ext. ref 1 (°C)	15.36T ext. ref 2 (°C)	33.05length (m)	temperature (°C)	Stokes	anti-Stokes-747.200	83.297	-0.202	-0.225
-746.185	-26.757	-0.238	0.142
-745.171	-200.000	-0.025	0.166
-744.156	800.000	0.071	0.302
-743.142	485.924	-0.063	0.146
-742.127	800.000	0.070	0.262
-741.112	48.219	0.158	0.151
-740.098	-9.386	0.032	-0.022
-739.083	107.085	-0.273	-0.331
-738.069	-46.183	-0.310	-0.156
-737.054	800.000	-0.022	0.086
-736.039	203.235	-0.168	-0.266
-735.025	35.244	0.311	-0.278
-734.010	134.592	-0.141	-0.187
-732.996	-200.000	-0.022	0.226
-731.981	-144.484	-0.171	-0.016
-730.966	191.218	0.085	0.130
-729.952	-153.707	-0.279	0.020
-728.937	-133.034	-0.209	0.027
-727.923	800.000	0.013	0.053
-726.908	185.133	-0.125	-0.190
-725.894	-32.297	-0.219	-0.125
-724.879	763.816	-0.077	0.213
-723.864	0.340	-0.080	0.058
-722.850	-200.000	0.003	0.211
-721.835	-128.782	0.243	-0.035
-720.821	-106.404	-0.176	0.040
-719.806	-148.384	-0.449	-0.038
-718.791	150.050	-0.289	0.399
-717.777	-61.877	0.098	0.042
-716.762	108.226	0.218	0.265
-715.748	-109.674	-0.295	-0.063
-714.733	75.663	0.082	0.088
-713.718	192.899	0.078	0.120
-712.704	-79.788	-0.363	0.125
-711.689	498.337	-0.058	0.136
-710.675	-200.000	-0.056	-0.419
-709.660	203.004	0.145	-0.228
-708.645	-102.340	-0.252	0.062
-707.631	-200.000	-0.003	-0.077
-706.616	31.372	0.179	0.157
-705.602	-99.036	0.233	-0.060
-704.587	102.826	-0.283	0.338
-703.572	-200.000	0.015	0.270
-702.558	800.000	-0.092	-0.258
-701.543	-141.592	0.238	-0.024
-700.529	-200.000	-0.016	-0.092
-699.514	-86.342	0.106	-0.033
-698.499	20.917	-0.185	-0.153
-697.485	249.180	-0.200	0.346
-696.470	-200.000	-0.068	0.574
-695.456	116.411	-0.179	-0.224
-694.441	266.770	-0.160	-0.285
-693.426	-64.413	-0.348	-0.144
-692.412	384.775	-0.099	-0.207
-691.397	-200.000	-0.014	0.263
-690.383	-200.000	-0.026	0.238
-689.368	153.342	-0.073	0.102
-688.354	8.041	0.095	0.072
-687.339	-115.358	0.231	0.045
-686.324	-200.000	-0.007	0.414
-685.310	-64.646	-0.171	0.071
-684.295	800.000	0.121	-0.381
-683.281	247.725	0.091	-0.157
-682.266	709.740	0.029	0.079
-681.251	-91.548	-0.109	0.032
-680.237	-146.138	-0.292	-0.026
-679.222	41.992	0.125	-0.116
-678.208	124.679	0.087	-0.111
-677.193	-173.147	0.253	0.008
-676.178	-158.950	-0.345	-0.020
-675.164	376.550	-0.014	0.029
-674.149	-22.977	-0.118	0.072
-673.135	57.815	-0.147	-0.147
-672.120	-55.902	0.139	0.063
-671.105	15.135	0.106	-0.085
-670.091	-200.000	0.036	0.195
-669.076	-158.953	0.420	-0.024
-668.062	-42.365	-0.472	-0.245
-667.047	800.000	-0.078	-0.246
-666.032	133.397	-0.059	0.078
-665.018	-200.000	-0.010	-0.082
-664.003	-63.875	0.349	-0.145
-662.989	124.806	0.203	0.260
-661.974	136.331	0.133	-0.176
-660.959	-200.000	-0.028	-0.367
-659.945	800.000	-0.028	0.099
-658.930	-200.000	-0.028	-0.283
-657.916	-200.000	-0.043	-0.298
-656.901	-89.704	-0.326	-0.097
-655.886	-13.295	-0.378	0.250
-654.872	-51.089	-0.245	-0.117
-653.857	-200.000	0.008	-0.061
-652.843	-200.000	-0.007	0.185
-651.828	800.000	-0.074	0.217
-650.814	212.729	0.343	0.551
-649.799	-16.788	0.111	-0.072
-648.784	-200.000	0.014	0.159
-647.770	-76.280	-0.119	-0.043
-646.755	-200.000	0.144	-0.001
-645.741	19.568	0.066	0.054
-644.726	25.551	0.171	0.144
-643.711	479.798	0.031	0.071
-642.697	-200.000	-0.008	0.053
-641.682	-49.673	-0.146	-0.071
-640.668	-25.140	0.223	-0.134
-639.653	326.228	-0.056	-0.109
-638.638	-200.000	-0.027	-0.211
-637.624	-76.969	0.023	-0.008
-636.609	38.064	-0.132	0.120
-635.595	-126.636	-0.241	0.036
-634.580	800.000	-0.063	-0.182
-633.565	800.000	0.118	0.354
-632.551	51.627	-0.171	0.165
-631.536	-197.216	0.196	-0.001
-630.522	32.727	-0.056	-0.049
-629.507	-50.558	0.096	-0.046
-628.492	-107.987	0.206	0.045
-627.478	-104.647	-0.206	-0.048
-626.463	-101.324	-0.324	-0.080
-625.449	727.768	0.038	-0.103
-624.434	-44.558	0.286	-0.145
-623.419	-24.244	-0.145	0.088
-622.405	-31.192	0.208	-0.119
-621.390	800.000	-0.045	-0.175
-620.376	-66.403	-0.147	0.059
-619.361	-92.172	0.013	-0.004
-618.346	67.988	-0.225	-0.234
-617.332	-160.764	-0.241	0.013
-616.317	-133.829	0.147	0.019
-615.303	-200.000	0.288	0.000
-614.288	423.970	0.070	-0.152
-613.273	-67.788	-0.051	-0.020
-612.259	89.073	-0.165	0.186
-611.244	699.268	-0.110	-0.293
-610.230	110.406	-0.149	-0.182
-609.215	-200.000	-0.001	0.098
-608.201	-29.577	0.085	0.049
-607.186	-113.384	-0.481	0.096
-606.171	231.617	0.140	-0.233
-605.157	58.294	0.122	-0.122
-604.142	-88.406	-0.155	-0.047
-603.128	-116.150	0.060	-0.011
-602.113	1.523	-0.076	0.056
-601.098	26.714	0.147	-0.125
-600.084	174.866	0.083	-0.123
-599.069	800.000	-0.078	0.247
-598.055	50.485	0.136	0.131
-597.040	-200.000	0.047	0.259
-596.025	-200.000	0.010	0.050
-595.011	-89.828	0.292	-0.087
-593.996	-194.252	-0.122	-0.001
-592.982	-40.156	0.193	-0.102
-591.967	-26.109	-0.234	-0.140
-590.952	-72.208	0.259	-0.098
-589.938	-151.927	-0.173	-0.013
-588.923	-78.373	-0.440	-0.153
-587.909	23.908	-0.213	0.178
-586.894	11.196	0.120	0.093
-585.879	144.900	-0.255	-0.347
-584.865	21.467	0.055	0.045
-583.850	352.650	0.122	0.245
-582.836	205.010	0.223	-0.352
-581.821	-200.000	-0.039	-0.195
-580.806	-110.759	0.243	0.051
-579.792	800.000	0.049	0.145
-578.777	6.111	-0.140	0.105
-577.763	547.730	0.039	0.094
-576.748	30.008	0.108	-0.094
-575.733	67.113	-0.173	0.179
-574.719	-64.108	0.229	-0.095
-573.704	166.584	-0.130	0.187
-572.690	-200.000	-0.056	0.324
-571.675	-3.284	-0.284	0.200
-570.661	-200.000	0.070	0.377
-569.646	-72.085	0.174	-0.066
-568.631	-79.782	-0.130	0.045
-567.617	-200.000	-0.070	0.326
-566.602	2.016	-0.130	-0.095
-565.588	-70.904	-0.144	-0.055
-564.573	124.126	-0.012	0.016
-563.558	48.705	-0.072	0.069
-562.544	-28.032	-0.471	-0.277
-561.529	213.874	0.050	0.080
-560.515	-20.950	-0.294	0.182
-559.500	-200.000	-0.009	0.068
-558.485	-76.498	0.086	-0.031
-557.471	6.807	-0.117	0.089
-556.456	159.778	-0.222	-0.313
-555.442	-96.749	0.221	-0.059
-554.427	46.405	-0.147	-0.138
-553.412	-200.000	0.028	0.135
-552.398	800.000	-0.031	-0.100
-551.383	-162.218	-0.175	-0.009
-550.369	800.000	-0.011	0.033
-549.354	166.752	-0.133	-0.191
-548.339	-73.873	-0.245	-0.090
-547.325	-200.000	-0.015	0.233
-546.310	193.593	-0.261	-0.400
-545.296	-3.258	0.151	-0.107
-544.281	221.986	0.052	-0.085
-543.266	800.000	0.056	0.191
-542.252	800.000	-0.102	0.287
-541.237	800.000	-0.078	0.332
-540.223	-22.337	0.357	0.219
-539.208	654.860	-0.060	-0.156
-538.193	754.061	0.071	0.195
-537.179	-200.000	-0.007	0.046
-536.164	11.393	-0.186	-0.145
-535.150	800.000	-0.024	0.087
-534.135	-77.403	0.164	0.058
-533.121	-200.000	0.043	0.341
-532.106	-178.892	0.371	0.009
-531.091	-200.000	-0.009	-0.442
-530.077	-200.000	-0.009	-0.248
-529.062	-151.192	0.137	0.010
-528.048	20.221	0.102	-0.083
-527.033	-13.463	0.216	-0.142
-526.018	800.000	0.071	0.207
-525.004	800.000	-0.033	0.131
-523.989	800.000	-0.037	-0.130
-522.975	-200.000	-0.031	-0.336
-521.960	12.530	0.244	-0.191
-520.945	-200.000	0.062	0.358
-519.931	-200.000	0.005	-0.104
-518.916	-85.710	-0.343	-0.108
-517.902	800.000	0.110	0.429
-516.887	-87.448	-0.180	0.055
-515.872	-200.000	-0.006	0.221
-514.858	364.313	-0.118	0.240
-513.843	-41.497	0.242	0.126
-512.829	-69.340	0.276	-0.107
-511.814	0.735	-0.270	-0.195
-510.799	91.693	0.068	-0.078
-509.785	-87.805	0.071	-0.022
-508.770	-87.206	0.094	-0.029
-507.756	-106.146	0.290	0.066
-506.741	-103.313	0.137	0.033
-505.726	-57.053	-0.241	0.108
-504.712	-116.741	-0.198	0.037
-503.697	-90.588	-0.194	0.057
-502.683	50.644	-0.212	-0.203
-501.668	191.664	-0.032	-0.048
-500.653	477.119	0.087	-0.198
-499.639	800.000	-0.049	-0.144
-498.624	-137.552	-0.222	-0.025
-497.610	-56.609	0.144	0.065
-496.595	-200.000	0.035	-0.230
-495.581	-178.922	-0.470	0.011
-494.566	-102.853	0.127	0.031
-493.551	-200.000	-0.030	-0.182
-492.537	800.000	0.063	-0.259
-491.522	-64.682	-0.531	-0.218
-490.508	-200.000	-0.059	-0.288
-489.493	67.330	-0.157	0.162
-488.478	800.000	0.029	0.091
-487.464	171.546	-0.155	0.224
-486.449	-200.000	-0.014	0.080
-485.435	-200.000	-0.006	0.064
-484.420	800.000	0.114	-0.361
-483.405	-200.000	-0.024	0.132
-482.391	35.380	0.269	-0.239
-481.376	-34.340	-0.094	0.052
-480.362	-66.629	-0.141	-0.056
-479.347	344.667	-0.063	0.125
-478.332	-110.208	0.383	-0.081
-477.318	-187.740	0.195	0.003
-476.303	-80.497	-0.373	0.126
-475.289	-88.949	-0.167	-0.050
-474.274	-94.216	0.223	-0.062
-473.259	-69.076	-0.392	-0.153
-472.245	786.029	0.098	0.272
-471.230	-95.483	-0.051	0.014
-470.216	573.778	-0.062	0.152
-469.201	38.956	-0.350	-0.316
-468.186	343.633	0.028	-0.055
-467.172	228.219	0.173	-0.285
-466.157	-60.700	-0.156	0.067
-465.143	-52.257	-0.147	0.069
-464.128	-39.319	-0.180	-0.095
-463.113	800.000	0.055	-0.242
-462.099	-200.000	-0.031	-0.223
-461.084	-200.000	-0.024	0.160
-460.070	137.450	-0.174	-0.231
-459.055	431.137	-0.068	0.149
-458.040	-122.411	0.091	-0.015
-457.026	-48.959	0.081	-0.039
-456.011	2.571	0.095	-0.070
-454.997	-200.000	-0.005	0.095
-453.982	133.176	-0.114	0.149
-452.968	85.803	0.250	0.278
-451.953	166.607	0.198	0.283
-450.938	314.820	-0.125	-0.238
-449.924	-69.934	-0.125	-0.048
-448.909	-83.233	0.246	-0.080
-447.895	-153.257	-0.284	0.020
-446.880	209.672	0.115	-0.182
-445.865	-200.000	-0.001	0.389
-444.851	-200.000	-0.017	-0.391
-443.836	-48.426	0.172	0.084
-442.822	-147.084	0.243	0.021
-441.807	337.385	-0.070	0.137
-440.792	180.001	-0.102	-0.151
-439.778	30.432	0.320	0.276
-438.763	341.390	-0.046	-0.091
-437.749	532.153	-0.057	-0.135
-436.734	144.892	-0.182	0.245
-435.719	-200.000	0.017	0.356
-434.705	800.000	0.048	0.162
-433.690	-200.000	0.009	-0.124
-432.676	-28.394	0.315	-0.183
-431.661	653.303	0.089	-0.231
-430.646	-117.247	-0.068	0.013
-429.632	-119.432	0.236	0.041
-428.617	-31.875	-0.205	-0.116
-427.603	49.564	0.182	0.173
-426.588	485.734	-0.078	0.178
-425.573	131.152	-0.058	-0.075
-424.559	-200.000	-0.008	-0.193
-423.544	800.000	-0.066	-0.188
-422.530	53.117	0.079	0.076
-421.515	-200.000	-0.001	0.217
-420.500	-171.468	-0.082	-0.003
-419.486	251.371	0.097	0.167
-418.471	-200.000	-0.043	0.265
-417.457	-17.417	-0.178	0.113
-416.442	-132.308	0.205	-0.027
-415.428	75.767	0.157	0.168
-414.413	-175.154	0.035	-0.001
-413.398	81.321	-0.153	-0.167
-412.384	-118.505	-0.070	-0.013
-411.369	123.808	0.121	0.153
-410.355	132.091	-0.216	0.280
-409.340	-4.366	-0.107	-0.075
-408.325	-128.405	-0.111	0.016
-407.311	57.185	0.122	-0.120
-406.296	234.859	0.046	-0.077
-405.282	155.259	0.038	0.052
-404.267	800.000	0.037	-0.106
-403.252	-200.000	0.031	-0.214
-402.238	-133.592	0.360	-0.045
-401.223	-32.806	0.146	0.082
-400.209	-20.333	0.367	-0.228
-399.194	-20.359	0.135	0.084
-398.179	-44.778	-0.325	-0.164
-397.165	20.303	-0.129	-0.105
-396.150	80.641	0.273	0.297
-395.136	-21.841	0.211	-0.130
-394.121	800.000	-0.044	0.136
-393.106	382.485	-0.090	0.187
-392.092	-46.856	0.306	0.151
-391.077	-3.471	0.155	0.109
-390.063	800.000	-0.013	-0.045
-389.048	-200.000	0.007	-0.090
-388.033	682.918	0.013	-0.035
-387.019	-12.848	0.064	0.042
-386.004	171.346	0.174	-0.252
-384.990	-200.000	0.025	-0.307
-383.975	146.246	-0.211	0.285
-382.960	579.445	0.158	0.391
-381.946	800.000	-0.062	0.210
-380.931	313.357	-0.178	0.338
-379.917	-0.023	0.144	-0.103
-378.902	559.809	-0.086	0.208
-377.888	116.473	-0.330	0.408
-376.873	185.068	-0.119	0.177
-375.858	67.686	0.041	-0.042
-374.844	-149.177	0.470	0.038
-373.829	800.000	-0.074	-0.230
-372.815	-173.603	-0.168	0.005
-371.800	-124.545	-0.377	-0.059
-370.785	-200.000	0.004	-0.028
-369.771	75.576	-0.183	0.194
-368.756	800.000	0.160	-0.496
-367.742	209.270	-0.068	-0.107
-366.727	-96.951	0.095	0.025
-365.712	-150.918	0.137	0.010
-364.698	-200.000	-0.015	-0.178
-363.683	-89.292	0.060	0.018
-362.669	-105.291	-0.314	0.072
-361.654	224.047	-0.102	0.165
-360.639	7.387	-0.254	-0.191
-359.625	800.000	0.032	0.125
-358.610	-78.696	-0.219	0.075
-357.596	-136.069	-0.140	0.017
-356.581	-91.736	-0.157	-0.045
-355.566	-9.477	-0.095	0.064
-354.552	-200.000	0.065	-0.591
-353.537	800.000	-0.108	0.302
-352.523	-83.284	0.139	-0.045
-351.508	-200.000	0.072	0.384
-350.493	40.152	0.222	0.201
-349.479	-200.000	0.040	-0.190
-348.464	800.000	-0.086	0.307
-347.450	372.926	0.041	-0.085
-346.435	20.884	0.200	-0.163
-345.420	321.403	0.206	-0.394
-344.406	174.054	-0.184	-0.267
-343.391	-200.000	0.050	-0.244
-342.377	78.751	-0.407	-0.437
-341.362	-67.214	-0.179	-0.071
-340.348	-58.044	-0.188	0.083
-339.333	174.054	-0.176	0.255
-338.318	800.000	-0.037	-0.135
-337.304	-19.151	-0.204	0.128
-336.289	197.697	0.019	0.029
-335.275	333.913	-0.113	0.220
-334.260	15.516	-0.174	0.137
-333.245	667.251	-0.129	0.335
-332.231	-200.000	-0.018	0.190
-331.216	800.000	0.036	0.129
-330.202	30.832	-0.132	-0.114
-329.187	-57.373	-0.093	0.041
-328.172	-162.406	-0.344	-0.017
-327.158	800.000	-0.011	-0.044
-326.143	145.266	0.069	-0.092
-325.129	-40.666	0.216	0.113
-324.114	249.662	0.025	-0.043
-323.099	-8.009	-0.142	-0.096
-322.085	-175.712	-0.116	0.003
-321.070	800.000	-0.014	0.053
-320.056	754.698	-0.170	0.462
-319.041	155.657	-0.288	0.399
-318.026	-200.000	0.017	0.210
-317.012	-79.808	-0.296	0.100
-315.997	-81.135	0.366	0.122
-314.983	-200.000	-0.003	0.226
-313.968	-134.555	0.258	0.032
-312.953	19.032	0.257	0.207
-311.939	-154.523	-0.054	0.004
-310.924	40.049	-0.294	-0.266
-309.910	-152.836	0.375	-0.027
-308.895	800.000	-0.080	-0.234
-307.880	-200.000	0.068	0.373
-306.866	123.130	0.191	0.241
-305.851	-133.728	0.183	0.023
-304.837	-200.000	0.029	-0.499
-303.822	-12.470	-0.183	0.120
-302.807	-200.000	-0.088	-0.431
-301.793	-180.818	0.057	-0.001
-300.778	-155.490	0.148	-0.010
-299.764	-100.821	-0.166	0.041
-298.749	655.379	-0.106	0.272
-297.735	-92.948	0.220	-0.062
-296.720	728.775	0.050	-0.135
-295.705	198.657	-0.196	-0.301
-294.691	-52.220	0.179	-0.083
-293.676	-137.785	0.079	0.009
-292.662	148.961	0.109	-0.148
-291.647	-59.873	-0.099	-0.043
-290.632	-117.854	0.367	-0.066
-289.618	238.381	0.153	-0.255
-288.603	12.535	0.164	0.127
-287.589	800.000	-0.044	-0.143
-286.574	121.670	0.152	-0.191
-285.559	54.671	0.196	-0.189
-284.545	11.810	0.236	0.182
-283.530	83.636	-0.123	0.135
-282.516	800.000	0.045	-0.133
-281.501	800.000	-0.035	0.124
-280.486	-200.000	-0.031	0.283
-279.472	154.663	0.074	-0.102
-278.457	-200.000	-0.020	0.173
-277.443	-13.452	-0.114	-0.074
-276.428	338.202	0.089	-0.173
-275.413	190.626	0.085	0.128
-274.399	-128.808	0.299	-0.042
-273.384	82.308	0.108	0.117
-272.370	-41.724	-0.205	0.106
-271.355	-200.000	0.038	-0.220
-270.340	-200.000	-0.054	-0.237
-269.326	-200.000	-0.012	0.114
-268.311	-132.903	0.218	0.028
-267.297	91.695	-0.089	0.100
-266.282	-20.993	0.143	0.088
-265.267	-69.545	-0.171	-0.066
-264.253	-112.027	0.205	0.041
-263.238	-155.796	-0.137	0.009
-262.224	800.000	0.057	-0.228
-261.209	-13.746	0.225	-0.146
-260.195	-200.000	0.057	-0.336
-259.180	-26.932	-0.250	0.146
-258.165	663.867	0.040	-0.103
-257.151	-11.888	0.304	0.200
-256.136	6.848	0.088	-0.066
-255.122	340.629	-0.155	-0.303
-254.107	396.296	-0.159	-0.333
-253.092	-65.184	-0.023	-0.009
-252.078	-200.000	-0.040	-0.258
-251.063	-200.000	-0.025	0.307
-250.049	638.766	-0.059	0.150
-249.034	-200.000	-0.001	-0.041
-248.019	11.603	0.112	0.086
-247.005	-200.000	0.014	-0.101
-245.990	261.616	-0.150	0.260
-244.976	43.341	0.118	-0.108
-243.961	-77.950	0.236	-0.082
-242.946	92.394	-0.109	0.123
-241.932	88.634	0.081	0.090
-240.917	800.000	0.154	-0.512
-239.903	5.535	0.335	0.248
-238.888	-163.080	0.058	-0.003
-237.873	579.097	-0.040	0.097
-236.859	3.565	0.185	0.135
-235.844	800.000	-0.021	0.066
-234.830	102.548	0.074	0.086
-233.815	-127.724	0.065	0.009
-232.800	-110.114	0.162	0.034
-231.786	164.623	0.164	0.232
-230.771	85.930	0.045	0.050
-229.757	800.000	-0.083	0.255
-228.742	-93.193	-0.486	0.135
-227.727	-119.417	0.276	0.048
-226.713	89.033	0.052	0.058
-225.698	-200.000	-0.005	0.036
-224.684	-159.532	-0.285	-0.016
-223.669	314.976	-0.098	-0.184
-222.655	52.019	0.166	0.158
-221.640	284.932	0.028	0.050
-220.625	-88.986	-0.253	-0.075
-219.611	-94.130	0.171	0.047
-218.596	-36.660	0.235	-0.126
-217.582	133.151	0.235	-0.304
-216.567	95.986	0.216	-0.247
-215.552	-200.000	0.001	0.116
-214.538	-192.992	-0.417	0.004
-213.523	-124.637	-0.319	0.049
-212.509	713.088	-0.058	0.154
-211.494	-77.999	-0.154	0.053
-210.479	-140.823	-0.346	-0.036
-209.465	-32.841	-0.309	0.172
-208.450	-76.673	0.211	0.074
-207.436	-152.811	-0.189	0.013
-206.421	439.008	0.073	0.160
-205.406	175.510	-0.073	0.106
-204.392	-200.000	0.071	-0.375
-203.377	800.000	0.082	0.252
-202.363	-194.552	0.257	-0.002
-201.348	800.000	0.023	-0.099
-200.333	-166.754	0.286	-0.012
-199.319	800.000	0.041	0.140
-198.304	-22.254	0.202	0.122
-197.290	-54.496	-0.224	0.101
-196.275	-50.439	0.172	-0.081
-195.260	-101.858	0.340	0.082
-194.246	491.686	0.163	-0.373
-193.231	-22.364	0.070	0.043
-192.217	95.295	-0.140	0.159
-191.202	-96.596	0.303	0.080
-190.187	-158.141	-0.098	-0.006
-189.173	-141.509	0.484	0.049
-188.158	39.405	-0.141	-0.126
-187.144	-200.000	-0.051	-0.384
-186.129	-84.596	0.179	0.056
-185.114	-92.165	-0.149	0.042
-184.100	133.104	-0.203	0.262
-183.085	164.979	0.088	-0.124
-182.071	-200.000	-0.020	0.209
-181.056	-200.000	0.021	-0.104
-180.042	-200.000	0.021	-0.214
-179.027	-200.000	0.021	-0.125
-178.012	348.683	0.165	-0.324
-176.998	-96.712	0.141	0.037
-175.983	-60.134	-0.028	-0.012
-174.969	-200.000	-0.009	0.070
-173.954	14.491	-0.119	-0.093
-172.939	-49.266	0.119	0.057
-171.925	143.254	-0.108	-0.144
-170.910	-42.276	-0.026	-0.013
-169.896	-81.345	0.272	-0.090
-168.881	800.000	0.025	-0.088
-167.866	256.346	-0.155	0.265
-166.852	-161.821	-0.303	-0.015
-165.837	6.648	-0.313	0.233
-164.823	800.000	-0.072	0.292
-163.808	-52.132	0.150	-0.069
-162.793	-200.000	0.011	-0.289
-161.779	427.622	-0.053	0.114
-160.764	213.170	-0.017	0.026
-159.750	-15.999	0.168	0.107
-158.735	449.970	-0.149	-0.328
-157.720	40.465	0.089	-0.080
-156.706	-200.000	-0.068	-0.339
-155.691	-1.957	-0.146	-0.103
-154.677	69.934	0.163	-0.168
-153.662	-132.013	0.194	0.025
-152.647	-63.859	0.160	0.065
-151.633	-70.092	0.314	0.119
-150.618	800.000	0.122	-0.346
-149.604	-52.225	-0.360	0.167
-148.589	-200.000	-0.052	0.305
-147.574	23.021	0.292	0.239
-146.560	-81.005	0.302	-0.100
-145.545	211.853	0.022	-0.034
-144.531	146.034	-0.222	0.298
-143.516	67.339	0.187	0.191
-142.502	-92.307	0.124	-0.035
-141.487	90.658	0.120	-0.135
-140.472	-24.824	-0.110	-0.065
-139.458	41.920	-0.117	0.106
-138.443	-200.000	-0.007	-0.167
-137.429	-154.477	-0.123	0.008
-136.414	-7.325	-0.414	0.280
-135.399	-200.000	-0.017	0.292
-134.385	-57.496	-0.072	0.032
-133.370	800.000	0.027	-0.082
-132.356	-49.972	0.239	0.113
-131.341	73.885	0.414	-0.433
-130.326	-200.000	0.000	-0.402
-129.312	778.863	0.079	0.215
-128.297	-200.000	-0.002	-0.235
-127.283	138.044	-0.061	0.079
-126.268	-53.267	-0.270	0.124
-125.253	-200.000	0.042	0.271
-124.239	396.044	-0.053	0.111
-123.224	-27.739	0.263	-0.152
-122.210	120.523	-0.055	0.068
-121.195	-52.675	0.342	0.158
-120.180	23.317	0.119	-0.098
-119.166	-200.000	0.018	0.155
-118.151	-185.301	-0.189	-0.003
-117.137	5.635	0.141	-0.104
-116.122	-68.146	0.071	-0.028
-115.107	-29.682	-0.188	-0.107
-114.093	508.121	0.029	-0.066
-113.078	669.390	-0.070	0.180
-112.064	-25.452	0.204	-0.120
-111.049	11.713	-0.250	-0.191
-110.034	-77.433	0.272	0.094
-109.020	-200.000	0.013	0.452
-108.005	111.362	0.083	0.100
-106.991	-200.000	-0.024	0.119
-105.976	-15.541	-0.206	0.131
-104.962	356.716	-0.010	-0.019
-103.947	489.646	0.168	-0.382
-102.932	-175.525	-0.045	0.001
-101.918	139.378	0.136	0.178
-100.903	-125.693	-0.378	0.057
-99.889	181.104	0.171	-0.251
-98.874	800.000	0.072	0.220
-97.859	358.645	0.022	-0.044
-96.845	-32.619	0.276	0.153
-95.830	800.000	-0.023	-0.083
-94.816	-179.299	-0.075	0.002
-93.801	800.000	0.019	-0.070
-92.786	202.249	0.157	0.242
-91.772	-84.916	0.093	-0.029
-90.757	86.598	0.145	0.159
-89.743	-26.670	-0.249	0.145
-88.728	800.000	-0.035	-0.116
-87.713	-200.000	0.025	0.309
-86.699	-60.242	0.167	-0.071
-85.684	-88.537	0.205	0.061
-84.670	71.606	-0.127	0.131
-83.655	517.003	-0.017	-0.041
-82.640	79.253	-0.080	0.086
-81.626	800.000	-0.029	-0.127
-80.611	-150.793	0.036	0.003
-79.597	-61.496	-0.284	0.119
-78.582	-77.669	-0.273	0.094
-77.567	800.000	0.086	0.358
-76.553	-200.000	0.023	0.247
-75.538	140.842	0.126	0.166
-74.524	271.833	-0.130	-0.228
-73.509	-155.936	-0.170	0.011
-72.494	434.703	0.125	0.271
-71.480	-50.459	0.444	-0.209
-70.465	33.157	0.108	0.093
-69.451	-200.000	0.003	-0.481
-68.436	-163.373	0.157	0.007
-67.422	47.698	0.478	0.444
-66.407	-200.000	0.002	0.083
-65.392	800.000	-0.046	0.175
-64.378	183.785	-0.223	0.328
-63.363	593.123	-0.142	0.349
-62.349	525.671	0.018	-0.042
-61.334	-11.979	-1.231	-0.803
-60.319	-57.290	0.341	0.149
-59.305	-200.000	0.026	-0.898
-58.290	797.035	0.352	0.964
-57.276	800.000	0.735	2.117
-56.261	-200.000	83.476	526.593
-55.246	524.433	1342.244	3139.948
-54.232	150.807	2553.039	3451.516
-53.217	113.969	2232.080	2699.446
-52.203	49.010	1764.925	1648.257
-51.188	42.155	1570.774	1418.575
-50.173	39.583	1542.893	1375.417
-49.159	55.938	1586.684	1530.453
-48.144	60.769	1606.396	1583.578
-47.130	42.795	1565.690	1418.270
-46.115	39.306	1550.669	1380.187
-45.100	39.105	1547.750	1376.127
-44.086	39.026	1545.387	1373.425
-43.071	38.863	1543.836	1370.849
-42.057	38.963	1541.648	1369.550
-41.042	38.951	1540.044	1367.989
-40.027	38.849	1538.860	1366.173
-39.013	38.984	1537.194	1365.578
-37.998	38.906	1536.053	1363.970
-36.984	38.930	1534.342	1362.560
-35.969	38.947	1533.243	1361.651
-34.954	38.937	1532.364	1360.747
-33.940	38.927	1530.997	1359.410
-32.925	39.096	1528.859	1358.626
-31.911	39.064	1527.536	1357.175
-30.896	39.078	1525.997	1355.849
-29.881	39.013	1525.420	1354.835
-28.867	39.181	1522.907	1353.707
-27.852	39.016	1522.048	1351.754
-26.838	39.077	1520.780	1350.991
-25.823	39.130	1519.016	1349.738
-24.809	39.076	1517.158	1347.657
-23.794	38.994	1516.109	1346.114
-22.779	39.085	1514.625	1345.363
-21.765	39.056	1513.662	1344.259
-20.750	38.997	1512.505	1342.772
-19.736	39.055	1510.905	1341.694
-18.721	39.059	1509.932	1340.809
-17.706	38.961	1509.225	1339.458
-16.692	38.993	1507.770	1338.332
-15.677	38.912	1507.084	1337.114
-14.663	38.981	1505.540	1336.163
-13.648	38.904	1504.837	1334.961
-12.633	38.908	1504.022	1334.212
-11.619	38.994	1502.656	1333.534
-10.604	39.037	1501.773	1332.987
-9.590	39.011	1500.788	1331.885
-8.575	39.042	1499.897	1331.248
-7.560	38.871	1499.665	1329.830
-6.546	39.024	1498.178	1329.496
-5.531	39.009	1497.892	1329.086
-4.517	38.940	1496.823	1327.619
-3.502	38.870	1495.663	1326.066
-2.487	38.857	1494.604	1324.988
-1.473	38.963	1493.090	1324.309
-0.458	39.019	1491.879	1323.559
0.556	37.082	1482.212	1311.053
1.571	33.697	1453.755	1263.284
2.586	29.340	1388.474	1178.668
3.600	27.103	1302.429	1092.098
4.615	25.499	1253.876	1042.004
5.629	23.764	1202.023	989.172
6.644	19.970	1122.209	903.648
7.659	16.054	1082.762	852.053
8.673	15.539	1076.813	844.707
9.688	15.295	1074.553	841.634
10.702	15.279	1072.588	839.941
11.717	15.347	1071.032	838.988
12.731	16.930	1071.687	847.342
13.746	20.267	1076.156	867.515
14.761	20.763	1074.954	868.944
15.775	18.444	1071.058	854.172
16.790	16.980	1068.200	844.536
17.804	15.884	1065.809	837.122
18.819	14.929	1064.392	831.191
19.834	14.296	1062.726	826.674
20.848	13.937	1061.278	823.698
21.863	13.655	1060.752	821.819
22.877	13.488	1059.542	819.983
23.892	13.218	1059.001	818.152
24.907	13.124	1058.417	817.163
25.921	13.177	1057.479	816.628
26.936	13.244	1056.241	815.934
27.950	13.269	1055.242	815.211
28.965	13.311	1054.046	814.422
29.980	13.354	1052.838	813.628
30.994	13.380	1052.182	813.178
32.009	13.438	1051.226	812.651
33.023	13.574	1050.585	812.753
34.038	13.451	1049.635	811.343
35.053	13.482	1048.440	810.497
36.067	13.452	1047.803	809.787
37.082	13.309	1046.958	808.362
38.096	13.454	1046.394	808.563
39.111	13.525	1045.566	808.200
40.126	13.483	1044.658	807.223
41.140	13.263	1043.757	805.385
42.155	13.272	1042.038	804.030
43.169	13.070	1041.910	802.875
44.184	13.200	1040.322	802.213
45.199	13.129	1039.536	801.190
46.213	13.134	1038.429	800.293
47.228	13.345	1037.318	800.385
48.242	13.205	1036.280	798.837
49.257	13.268	1035.676	798.604
50.271	13.301	1034.531	797.810
51.286	13.345	1033.606	797.242
52.301	13.376	1032.841	796.728
53.315	13.286	1032.481	795.946
54.330	13.385	1030.786	795.047
55.344	13.264	1030.196	793.937
56.359	13.218	1029.360	793.004
57.374	13.264	1028.284	792.323
58.388	13.283	1027.590	791.812
59.403	13.128	1026.964	790.517
60.417	13.163	1026.024	789.889
61.432	13.152	1025.668	789.492
62.447	13.079	1024.697	788.329
63.461	13.130	1023.763	787.782
64.476	13.154	1023.004	787.244
65.490	13.031	1022.269	786.022
66.505	13.113	1021.201	785.521
67.520	13.052	1020.344	784.501
68.534	13.141	1019.515	784.218
69.549	13.134	1019.214	783.884
70.563	13.129	1018.395	783.160
71.578	13.141	1017.693	782.608
72.593	13.088	1017.035	781.782
73.607	13.106	1015.479	780.605
74.622	13.005	1014.774	779.514
75.636	12.973	1013.944	778.659
76.651	13.099	1012.637	778.177
77.666	13.002	1012.223	777.334
78.680	13.079	1011.495	777.071
79.695	13.066	1010.831	776.428
80.709	13.104	1010.233	776.082
81.724	13.174	1009.682	775.918
82.739	13.043	1009.306	774.945
83.753	13.243	1007.921	774.749
84.768	13.309	1007.320	774.527
85.782	13.420	1006.604	774.430
86.797	13.321	1005.694	773.199
87.812	13.399	1004.747	772.764
88.826	13.330	1003.904	771.726
89.841	13.381	1003.071	771.255
90.855	13.446	1001.954	770.633
91.870	13.472	1001.693	770.483
92.884	13.379	1000.833	769.323
93.899	13.322	1000.636	768.835
94.914	13.335	999.681	768.097
95.928	13.513	998.843	768.210
96.943	13.494	998.260	767.607
97.957	13.474	997.531	766.882
98.972	13.349	996.901	765.755
99.987	13.408	995.458	764.848
101.001	13.281	995.457	764.195
102.016	13.379	994.382	763.752
103.030	13.403	993.273	762.945
104.045	13.262	992.689	761.778
105.060	13.410	991.511	761.489
106.074	13.393	990.677	760.705
107.089	13.411	989.337	759.688
108.103	13.134	989.223	758.261
109.118	13.278	987.832	757.791
110.133	13.316	987.000	757.258
111.147	13.123	986.621	756.016
112.162	13.268	985.573	755.812
113.176	13.194	984.589	754.653
114.191	13.320	983.687	754.468
115.206	13.282	982.710	753.478
116.220	13.243	982.302	752.922
117.235	13.335	981.142	752.385
118.249	13.161	980.746	751.225
119.264	13.159	979.644	750.302
120.279	13.283	978.626	750.021
121.293	13.263	978.025	749.401
122.308	13.185	977.159	748.317
123.322	13.168	976.317	747.530
124.337	13.120	975.382	746.534
125.352	13.207	974.002	745.802
126.366	13.169	973.263	745.000
127.381	13.131	971.989	743.788
128.395	13.052	970.898	742.531
129.410	13.188	970.106	742.471
130.424	13.238	969.375	742.071
131.439	13.195	967.985	740.747
132.454	13.258	967.369	740.495
133.468	13.294	966.745	740.109
134.483	13.255	966.314	739.539
135.497	13.327	965.121	738.883
136.512	13.401	964.263	738.493
137.527	13.301	963.891	737.695
138.541	13.339	962.888	737.031
139.556	13.250	962.372	736.178
140.570	13.356	961.023	735.550
141.585	13.352	960.913	735.384
142.600	13.391	960.212	734.955
143.614	13.544	958.997	734.638
144.629	13.437	958.682	733.856
145.643	13.543	957.757	733.556
146.658	13.498	956.584	732.390
147.673	13.422	955.836	731.419
148.687	13.385	955.160	730.675
149.702	13.338	954.128	729.610
150.716	13.410	953.078	729.063
151.731	13.186	952.803	727.799
152.746	13.208	951.971	727.197
153.760	13.384	950.891	727.081
154.775	13.398	950.170	726.527
155.789	13.438	949.448	726.085
156.804	13.487	948.595	725.586
157.819	13.444	947.979	724.858
158.833	13.555	947.490	724.910
159.848	13.582	946.759	724.403
160.862	13.559	945.826	723.523
161.877	13.626	945.454	723.470
162.892	13.547	944.607	722.411
163.906	13.379	943.738	720.952
164.921	13.332	943.111	720.204
165.935	13.335	941.936	719.254
166.950	13.447	941.011	718.974
167.964	13.391	940.436	718.228
168.979	13.486	939.181	717.618
169.994	13.432	938.416	716.735
171.008	13.443	937.152	715.755
172.023	13.599	936.418	715.803
173.037	13.472	936.034	714.896
174.052	13.658	935.121	714.939
175.067	13.503	934.675	713.869
176.081	13.560	933.511	713.162
177.096	13.394	933.150	712.106
178.110	13.569	931.843	711.798
179.125	13.581	931.140	711.252
180.140	13.536	930.437	710.458
181.154	13.602	929.849	710.228
182.169	13.632	928.872	709.550
183.183	13.668	928.236	709.152
184.198	13.733	927.644	708.915
185.213	13.740	926.913	708.323
186.227	13.734	926.597	707.994
187.242	13.762	926.125	707.693
188.256	13.754	925.544	707.150
189.271	13.872	924.387	706.706
190.286	13.719	924.136	705.801
191.300	13.763	923.188	705.199
192.315	13.658	922.377	704.074
193.329	13.661	921.239	703.156
194.344	13.555	920.842	702.342
195.359	13.641	920.138	702.105
196.373	13.650	919.730	701.769
197.388	13.791	919.154	701.866
198.402	13.889	918.419	701.658
199.417	13.819	918.432	701.309
200.432	13.946	917.757	701.268
201.446	14.099	917.172	701.402
202.461	14.068	917.158	701.200
203.475	14.180	916.060	700.770
204.490	14.170	915.412	700.172
205.504	14.063	914.367	698.859
206.519	14.100	913.794	698.516
207.534	13.990	913.068	697.436
208.548	13.880	912.711	696.642
209.563	14.000	911.649	696.269
210.577	14.019	911.068	695.843
211.592	13.962	910.785	695.327
212.607	14.016	910.432	695.226
213.621	14.152	909.585	695.082
214.636	14.147	909.176	694.689
215.650	14.016	908.290	693.402
216.665	13.994	908.132	693.131
217.680	14.110	907.239	692.872
218.694	14.173	906.762	692.707
219.709	14.209	906.209	692.375
220.723	14.135	905.472	691.441
221.738	14.212	904.462	690.929
222.753	14.196	903.923	690.391
223.767	14.235	903.244	689.972
224.782	14.266	902.524	689.488
225.796	14.287	902.016	689.128
226.811	14.384	900.644	688.418
227.826	14.275	900.417	687.734
228.840	14.312	899.492	687.120
229.855	14.374	899.090	687.005
230.869	14.374	898.026	686.133
231.884	14.243	897.442	685.087
232.899	14.220	897.191	684.741
233.913	14.160	896.443	683.863
234.928	14.295	895.501	683.636
235.942	14.202	895.140	682.921
236.957	14.223	893.977	682.060
237.972	14.281	893.166	681.618
238.986	14.259	892.631	681.057
240.001	14.191	892.304	680.470
241.015	14.316	891.675	680.441
242.030	14.375	890.884	680.018
243.045	14.392	889.941	679.306
244.059	14.408	889.303	678.824
245.074	14.488	888.971	678.838
246.088	14.484	888.560	678.446
247.103	14.566	887.579	677.971
248.117	14.329	887.472	676.867
249.132	14.576	886.601	677.146
250.147	14.616	885.988	676.780
251.161	14.733	885.207	676.595
252.176	14.799	884.988	676.637
253.190	14.714	884.066	675.526
254.205	14.791	883.458	675.317
255.220	14.798	882.850	674.818
256.234	14.861	882.033	674.387
257.249	14.789	881.801	673.862
258.263	14.867	881.054	673.547
259.278	14.846	880.407	672.906
260.293	14.957	879.793	672.822
261.307	14.935	879.269	672.274
262.322	14.980	878.842	672.070
263.336	14.973	878.071	671.391
264.351	14.850	877.734	670.580
265.366	14.903	877.304	670.408
266.380	15.027	876.268	670.054
267.395	15.132	875.676	669.960
268.409	15.094	874.666	668.978
269.424	14.956	874.322	668.101
270.439	15.005	873.575	667.668
271.453	14.917	872.811	666.675
272.468	15.038	871.804	666.328
273.482	15.064	871.277	665.971
274.497	15.054	870.880	665.567
275.512	14.941	870.086	664.452
276.526	14.968	869.728	664.229
277.541	15.132	868.497	663.881
278.555	15.078	868.360	663.501
279.570	15.101	867.764	663.079
280.585	15.287	866.923	663.115
281.599	15.215	866.794	662.672
282.614	15.249	866.039	662.170
283.628	15.158	865.403	661.268
284.643	15.024	865.034	660.397
285.657	15.172	864.420	660.453
286.672	15.130	863.960	659.879
287.687	15.182	863.618	659.763
288.701	15.263	862.683	659.310
289.716	15.174	862.287	658.598
290.730	15.240	861.580	658.261
291.745	15.233	860.718	657.517
292.760	15.358	860.094	657.468
293.774	15.318	859.451	656.765
294.789	15.416	859.258	656.942
295.803	15.425	858.551	656.380
296.818	15.366	857.947	655.627
297.833	15.328	857.011	654.707
298.847	15.477	856.697	654.988
299.862	15.434	856.026	654.253
300.876	15.418	855.370	653.629
301.891	15.389	854.444	652.752
302.906	15.457	853.850	652.504
303.920	15.551	853.077	652.222
304.935	15.600	852.470	651.888
305.949	15.630	852.113	651.677
306.964	15.746	851.268	651.420
307.979	15.705	850.551	650.656
308.993	15.514	850.137	649.542
310.008	15.707	849.567	649.797
311.022	15.699	849.251	649.467
312.037	15.639	848.927	648.930
313.052	15.607	848.206	648.196
314.066	15.664	847.480	647.805
315.081	15.658	846.812	647.212
316.095	15.743	845.727	646.654
317.110	15.578	846.110	646.253
318.125	15.554	845.542	645.671
319.139	15.702	844.702	645.542
320.154	15.742	843.994	645.095
321.168	15.726	843.473	644.578
322.183	15.729	843.020	644.187
323.197	15.677	842.746	643.724
324.212	15.822	841.869	643.551
325.227	15.806	841.360	643.043
326.241	15.608	841.181	642.092
327.256	15.639	840.659	641.755
328.270	15.754	840.043	641.667
329.285	15.725	839.430	641.030
330.300	15.776	838.635	640.560
331.314	15.685	838.321	639.919
332.329	15.792	837.388	639.558
333.343	15.788	837.011	639.196
334.358	15.954	836.087	639.065
335.373	15.981	835.407	638.591
336.387	15.898	835.224	638.081
337.402	16.017	834.693	638.067
338.416	15.990	834.218	637.545
339.431	15.991	833.565	636.995
340.446	16.203	832.889	637.223
341.460	16.153	832.313	636.537
342.475	16.269	831.943	636.636
343.489	16.065	831.417	635.409
344.504	16.197	831.191	635.675
345.519	16.196	830.448	635.047
346.533	16.302	829.547	634.702
347.548	16.210	829.079	633.940
348.562	16.257	828.689	633.764
349.577	16.077	828.247	632.695
350.592	16.109	827.811	632.424
351.606	16.104	827.464	632.085
352.621	16.129	826.734	631.563
353.635	16.051	826.749	631.227
354.650	16.100	826.477	631.147
355.665	16.075	826.021	630.651
356.679	16.285	824.958	630.569
357.694	16.279	824.278	629.971
358.708	16.208	823.825	629.302
359.723	16.309	822.983	628.981
360.738	16.239	822.852	628.564
361.752	16.223	822.611	628.263
362.767	16.275	821.972	627.916
363.781	16.507	821.524	628.380
364.796	16.365	820.911	627.325
365.810	16.532	820.442	627.532
366.825	16.521	820.014	627.111
367.840	16.420	820.390	626.968
368.854	16.539	819.174	626.423
369.869	16.594	818.666	626.181
370.883	16.529	818.163	625.501
371.898	16.360	817.871	624.599
372.913	16.410	817.541	624.475
373.927	16.585	816.772	624.480
374.942	16.574	816.118	623.882
375.956	16.736	815.279	623.785
376.971	16.608	814.829	622.912
377.986	16.691	814.301	622.760
379.000	16.655	813.938	622.293
380.015	16.808	813.306	622.316
381.029	16.762	813.191	622.007
382.044	16.847	812.318	621.595
383.059	16.757	811.766	620.789
384.073	16.887	810.978	620.605
385.088	16.772	810.489	619.755
386.102	16.642	810.278	619.065
387.117	16.845	809.503	619.158
388.132	16.757	809.444	618.740
389.146	16.621	808.718	617.631
390.161	16.756	808.379	617.813
391.175	16.845	808.125	617.887
392.190	17.052	807.048	617.761
393.205	16.950	806.779	617.130
394.219	16.836	806.615	616.535
395.234	16.699	806.441	615.849
396.248	16.680	806.202	615.544
397.263	16.744	805.298	615.031
398.278	16.779	804.544	614.527
399.292	16.737	804.348	614.171
400.307	16.868	803.723	614.116
401.321	16.936	803.338	614.011
402.336	16.806	803.187	613.372
403.350	16.897	802.412	613.055
404.365	16.892	802.059	612.714
405.380	16.790	801.903	612.172
406.394	17.011	801.270	612.431
407.409	17.134	800.729	612.407
408.423	17.000	800.387	611.608
409.438	17.141	799.713	611.548
410.453	17.155	799.437	611.333
411.467	17.185	798.706	610.827
412.482	17.129	798.664	610.540
413.496	17.135	798.340	610.260
414.511	17.214	797.941	610.185
415.526	17.176	797.371	609.557
416.540	17.087	797.059	608.945
417.555	17.309	796.573	609.318
418.569	17.203	796.322	608.690
419.584	17.198	796.133	608.474
420.599	17.278	795.221	608.011
421.613	96.555	1272.604	1403.440
422.628	82.495	1342.203	1403.574
