DTS Sentinel unit serial number:	SN413079Multiplexer serial number:	ORYXHardware model number:	OX4-SRSoftware version number:	ORYX F/W v4.00 Oryx Data Collector v3.7.2.0data status	okinstallation	princeton_trtdifferential loss correction	single-endedforward channel	channel 3reverse channel	N/Adate	2019/09/17time	08:52:35forward acquisition time	60.00reverse acquisition time	0.00gamma	496.2192k internal	0.2330k external	0.2330temperature offset calibration	0.9940default loss term (dB/km)	0.3790temperature slope calibration	1.0000multiplexer offset coefficient	1.0000multiplexer slope coefficient	1.0000fibre end	0.00T internal ref (°C)	27.87T ext. ref 1 (°C)	0.14T ext. ref 2 (°C)	23.60length (m)	temperature (°C)	Stokes	anti-Stokes-747.200	146.580	0.129	0.175
-746.185	15.883	-0.217	0.172
-745.171	-87.424	0.173	0.053
-744.156	800.000	0.239	0.690
-743.142	800.000	0.090	0.313
-742.127	308.543	-0.120	0.226
-741.112	131.547	-0.194	-0.251
-740.098	279.232	-0.188	0.337
-739.083	39.155	0.130	-0.117
-738.069	59.941	-0.090	0.090
-737.054	-85.577	0.092	0.029
-736.039	118.545	-0.098	0.122
-735.025	-200.000	0.080	0.406
-734.010	61.527	-0.164	-0.164
-732.996	263.934	-0.192	-0.336
-731.981	-139.480	-0.383	-0.041
-730.966	37.075	-0.126	-0.112
-729.952	-110.465	-0.412	0.086
-728.937	-81.696	0.168	-0.055
-727.923	800.000	-0.053	-0.159
-726.908	46.963	0.107	0.100
-725.894	-200.000	0.013	-0.324
-724.879	17.263	-0.098	-0.078
-723.864	-79.919	-0.054	-0.018
-722.850	460.400	0.037	0.082
-721.835	-83.034	0.097	0.032
-720.821	377.402	-0.090	0.185
-719.806	-48.541	-0.300	-0.145
-718.791	335.339	-0.080	0.157
-717.777	-63.734	-0.070	-0.029
-716.762	-168.938	0.094	-0.004
-715.748	-200.000	-0.006	0.346
-714.733	-132.268	-0.311	0.041
-713.718	115.333	-0.108	-0.133
-712.704	-22.313	0.136	-0.083
-711.689	-200.000	0.041	0.197
-710.675	773.598	0.103	-0.283
-709.660	277.893	-0.082	0.146
-708.645	-110.946	-0.066	0.014
-707.631	46.949	-0.206	-0.193
-706.616	195.775	0.067	0.102
-705.602	137.910	0.114	0.151
-704.587	-63.227	0.107	0.045
-703.572	-40.602	-0.315	0.164
-702.558	-182.858	-0.272	0.005
-701.543	-157.299	0.189	0.012
-700.529	800.000	-0.066	-0.239
-699.514	-200.000	-0.024	-0.149
-698.499	800.000	0.019	-0.079
-697.485	-12.556	-0.257	-0.169
-696.470	-85.303	-0.184	-0.058
-695.456	-28.214	-0.062	0.036
-694.441	351.608	0.038	0.076
-693.426	-138.110	-0.136	-0.015
-692.412	34.111	-0.116	0.102
-691.397	95.325	0.144	0.165
-690.383	-200.000	-0.013	0.371
-689.368	-102.266	-0.280	0.068
-688.354	738.240	0.077	-0.209
-687.339	-200.000	0.014	-0.094
-686.324	800.000	0.090	0.293
-685.310	800.000	-0.101	0.397
-684.295	-200.000	0.035	-0.350
-683.281	-144.651	-0.116	-0.011
-682.266	122.954	-0.026	-0.033
-681.251	107.583	-0.047	0.057
-680.237	800.000	-0.061	-0.264
-679.222	-111.398	-0.106	-0.022
-678.208	-36.589	0.100	-0.054
-677.193	78.162	-0.221	0.236
-676.178	-13.358	-0.147	0.096
-675.164	21.417	-0.293	0.239
-674.149	-200.000	0.019	0.084
-673.135	-114.669	0.173	-0.033
-672.120	-72.478	0.214	-0.079
-671.105	406.326	-0.039	-0.082
-670.091	674.819	-0.086	0.224
-669.076	-112.184	0.222	0.045
-668.062	-58.596	0.077	0.034
-667.047	-40.933	0.323	0.168
-666.032	235.941	0.182	0.303
-665.018	158.119	-0.211	0.294
-664.003	683.630	0.079	-0.207
-662.989	-200.000	-0.014	0.297
-661.974	-110.901	0.215	0.044
-660.959	67.810	0.088	-0.090
-659.945	-88.260	-0.330	0.099
-658.930	800.000	-0.018	-0.079
-657.916	800.000	-0.026	0.105
-656.901	-125.872	0.266	0.040
-655.886	61.995	-0.316	0.316
-654.872	454.250	-0.102	-0.227
-653.857	45.665	-0.156	0.144
-652.843	-141.751	0.173	0.017
-651.828	54.022	-0.405	0.390
-650.814	331.374	0.116	0.224
-649.799	-200.000	0.112	0.506
-648.784	220.740	-0.227	0.365
-647.770	140.031	-0.036	-0.048
-646.755	-2.633	0.063	0.044
-645.741	-74.029	0.005	0.002
-644.726	-200.000	0.005	0.140
-643.711	-14.929	-0.109	-0.070
-642.697	587.286	0.101	-0.250
-641.682	700.110	0.155	-0.408
-640.668	-61.785	0.145	0.061
-639.653	-200.000	-0.011	0.441
-638.638	84.109	0.100	-0.110
-637.624	63.768	-0.071	0.071
-636.609	-146.244	-0.336	-0.030
-635.595	-135.963	-0.185	-0.022
-634.580	800.000	-0.094	0.357
-633.565	-105.996	0.451	0.102
-632.551	-6.769	-0.139	0.095
-631.536	-19.650	-0.154	-0.096
-630.522	-20.095	-0.168	0.104
-629.507	-198.127	-0.349	-0.002
-628.492	-28.377	0.412	0.238
-627.478	800.000	-0.025	0.099
-626.463	-200.000	-0.012	-0.079
-625.449	-200.000	0.059	-0.344
-624.434	-56.361	0.201	0.090
-623.419	800.000	0.070	-0.291
-622.405	800.000	-0.028	-0.082
-621.390	-117.429	-0.181	-0.033
-620.376	-131.620	-0.248	0.033
-619.361	-51.506	-0.259	-0.121
-618.346	-200.000	-0.044	-0.197
-617.332	78.185	0.151	-0.162
-616.317	-112.296	-0.152	-0.031
-615.303	41.435	-0.052	-0.047
-614.288	-200.000	-0.061	0.363
-613.273	800.000	0.039	0.159
-612.259	284.253	-0.141	0.254
-611.244	-200.000	-0.036	0.361
-610.230	-200.000	-0.363	0.001
-609.215	3.112	0.110	0.080
-608.201	-200.000	0.057	0.308
-607.186	-139.063	-0.174	0.019
-606.171	275.904	-0.087	-0.155
-605.157	337.987	0.051	-0.100
-604.142	-97.887	0.149	-0.039
-603.128	-200.000	0.044	-0.245
-602.113	55.477	0.306	-0.297
-601.098	-126.261	0.243	-0.036
-600.084	-104.867	0.027	0.006
-599.069	-75.093	-0.123	0.044
-598.055	-37.836	0.090	0.048
-597.040	-14.357	-0.113	0.073
-596.025	-169.144	0.081	-0.003
-595.011	-200.000	0.058	-0.283
-593.996	-19.057	-0.288	0.179
-592.982	75.839	0.216	0.229
-591.967	-78.957	0.266	-0.091
-590.952	246.695	0.170	0.287
-589.938	314.226	-0.077	0.146
-588.923	470.714	0.021	-0.047
-587.909	582.960	0.159	-0.389
-586.894	422.942	0.121	0.261
-585.879	212.434	-0.106	-0.167
-584.865	182.194	-0.056	-0.082
-583.850	350.438	-0.086	0.170
-582.836	-92.682	-0.132	-0.037
-581.821	95.253	0.069	0.078
-580.806	-33.501	0.342	0.189
-579.792	721.849	-0.080	-0.212
-578.777	-102.907	-0.247	0.059
-577.763	-200.000	0.009	-0.241
-576.748	-200.000	0.005	0.373
-575.733	234.724	0.119	-0.196
-574.719	-36.097	0.125	0.068
-573.704	-133.221	0.343	-0.043
-572.690	56.300	-0.223	0.217
-571.675	86.029	0.185	-0.203
-570.661	800.000	-0.017	0.073
-569.646	456.399	0.051	-0.113
-568.631	30.469	0.072	-0.062
-567.617	752.063	-0.074	0.200
-566.602	-94.024	0.433	0.119
-565.588	800.000	-0.070	0.254
-564.573	-121.509	-0.219	0.036
-563.558	800.000	-0.093	0.350
-562.544	94.916	-0.152	-0.173
-561.529	-200.000	0.001	-0.059
-560.515	800.000	0.111	0.323
-559.500	-13.301	0.129	-0.084
-558.485	-96.982	-0.111	-0.029
-557.471	-160.939	-0.306	0.016
-556.456	-71.791	-0.210	0.078
-555.442	60.738	-0.075	-0.074
-554.427	-152.385	-0.414	-0.030
-553.412	-152.067	0.336	0.024
-552.398	-59.439	0.183	-0.078
-551.383	434.424	-0.084	-0.183
-550.369	-200.000	-0.012	-0.399
-549.354	156.467	-0.155	-0.213
-548.339	-200.000	-0.013	-0.071
-547.325	83.504	0.069	0.076
-546.310	684.805	-0.112	-0.293
-545.296	-200.000	-0.020	0.267
-544.281	-68.223	0.158	-0.062
-543.266	-200.000	-0.001	-0.093
-542.252	-200.000	-0.098	-0.583
-541.237	800.000	-0.044	0.125
-540.223	386.113	0.118	0.244
-539.208	23.138	0.214	0.176
-538.193	85.631	0.231	0.253
-537.179	-112.608	0.196	-0.039
-536.164	-40.245	-0.203	-0.106
-535.150	-54.484	-0.345	-0.156
-534.135	-200.000	0.017	0.092
-533.121	800.000	0.020	0.058
-532.106	-36.835	0.333	-0.179
-531.091	-200.000	-0.097	0.463
-530.077	800.000	-0.066	0.206
-529.062	800.000	-0.043	-0.148
-528.048	28.743	0.145	-0.123
-527.033	-200.000	0.007	-0.163
-526.018	800.000	-0.088	-0.249
-525.004	-29.880	-0.087	-0.049
-523.989	449.874	0.065	-0.144
-522.975	311.826	-0.111	0.208
-521.960	-200.000	0.008	-0.058
-520.945	-150.275	0.417	0.032
-519.931	158.749	-0.244	-0.338
-518.916	-200.000	-0.011	-0.331
-517.902	124.458	0.115	-0.145
-516.887	-152.632	0.120	-0.009
-515.872	68.058	-0.171	0.174
-514.858	-55.037	0.236	-0.106
-513.843	-114.740	-0.153	0.029
-512.829	18.279	-0.234	-0.186
-511.814	117.465	-0.083	-0.102
-510.799	34.436	-0.281	0.245
-509.785	-85.314	-0.190	-0.059
-508.770	-143.653	-0.256	-0.024
-507.756	-200.000	-0.047	0.305
-506.741	8.627	0.202	-0.152
-505.726	31.281	0.284	-0.243
-504.712	800.000	0.023	0.076
-503.697	-66.277	-0.258	-0.102
-502.683	-102.800	0.090	0.021
-501.668	-200.000	0.031	-0.473
-500.653	26.922	0.222	-0.186
-499.639	96.517	-0.178	-0.204
-498.624	-152.401	-0.123	-0.009
-497.610	-98.090	0.328	0.084
-496.595	197.253	-0.154	-0.234
-495.581	71.419	0.184	-0.191
-494.566	105.553	-0.130	-0.153
-493.551	-112.302	-0.174	-0.035
-492.537	72.446	0.100	-0.104
-491.522	-90.039	-0.123	-0.036
-490.508	800.000	-0.104	0.400
-489.493	-114.083	-0.122	0.024
-488.478	-200.000	-0.010	-0.120
-487.464	-128.621	0.220	0.031
-486.449	316.083	-0.050	-0.094
-485.435	-139.820	-0.045	-0.005
-484.420	800.000	0.042	0.126
-483.405	-80.933	0.218	0.072
-482.391	-44.162	-0.121	0.061
-481.376	6.615	0.259	0.192
-480.362	108.631	-0.179	-0.213
-479.347	33.062	-0.205	0.177
-478.332	186.718	-0.067	-0.100
-477.318	800.000	0.058	-0.204
-476.303	-120.396	0.273	0.046
-475.289	163.000	-0.057	-0.080
-474.274	-83.689	0.337	-0.107
-473.259	-200.000	-0.037	0.215
-472.245	-116.336	-0.017	-0.003
-471.230	602.153	0.047	-0.116
-470.216	800.000	-0.031	-0.108
-469.201	-19.896	0.141	-0.087
-468.186	1.255	-0.182	0.130
-467.172	-87.782	0.329	0.099
-466.157	-200.000	0.015	-0.338
-465.143	-58.005	0.052	-0.023
-464.128	-200.000	0.000	-0.098
-463.113	42.961	0.294	-0.267
-462.099	-141.062	0.116	0.012
-461.084	26.971	-0.479	0.400
-460.070	-83.765	0.216	-0.069
-459.055	-200.000	-0.020	-0.249
-458.040	364.933	0.147	-0.294
-457.026	-34.136	-0.134	-0.073
-456.011	579.604	-0.089	-0.217
-454.997	-76.135	-0.196	0.069
-453.982	-200.000	-0.001	-0.084
-452.968	-200.000	-0.399	0.000
-451.953	291.568	-0.048	-0.087
-450.938	228.867	-0.154	-0.250
-449.924	-7.162	0.343	0.231
-448.909	-36.281	-0.327	-0.175
-447.895	-200.000	-0.014	0.309
-446.880	13.450	-0.285	-0.220
-445.865	480.032	-0.237	-0.534
-444.851	77.631	0.171	0.181
-443.836	63.572	-0.085	-0.085
-442.822	-200.000	-0.055	-0.516
-441.807	800.000	0.085	-0.345
-440.792	81.842	-0.037	0.040
-439.778	-200.000	-0.005	0.217
-438.763	-70.258	-0.140	0.053
-437.749	163.052	-0.041	0.057
-436.734	-47.657	-0.139	0.067
-435.719	470.618	-0.050	-0.112
-434.705	-200.000	-0.008	0.047
-433.690	-9.906	0.168	-0.111
-432.676	62.553	-0.265	-0.264
-431.661	-24.224	0.075	0.044
-430.646	-200.000	-0.035	-0.263
-429.632	19.365	0.141	-0.113
-428.617	-34.406	0.168	-0.091
-427.603	-101.808	-0.106	0.026
-426.588	-44.454	0.269	-0.134
-425.573	-200.000	-0.040	-0.385
-424.559	117.503	-0.270	-0.331
-423.544	19.509	0.099	0.079
-422.530	146.955	-0.287	-0.384
-421.515	-200.000	0.049	0.248
-420.500	80.482	0.158	-0.169
-419.486	191.221	0.162	-0.242
-418.471	-34.250	0.097	0.053
-417.457	-71.548	-0.139	0.052
-416.442	318.231	0.206	0.387
-415.428	60.468	0.256	0.252
-414.413	399.906	-0.095	0.199
-413.398	-5.219	-0.124	-0.085
-412.384	520.207	-0.086	-0.200
-411.369	384.861	0.078	-0.160
-410.355	87.099	-0.199	-0.219
-409.340	242.890	-0.268	-0.446
-408.325	800.000	-0.047	-0.143
-407.311	-160.697	0.128	0.007
-406.296	-200.000	-0.086	0.458
-405.282	259.144	-0.154	0.264
-404.267	-200.000	-0.012	0.225
-403.252	81.404	0.055	-0.059
-402.238	-200.000	0.008	0.049
-401.223	-135.021	0.111	-0.013
-400.209	127.601	-0.116	0.147
-399.194	-200.000	0.065	0.558
-398.179	-200.000	0.008	-0.137
-397.165	-49.128	0.069	-0.033
-396.150	-200.000	0.040	0.190
-395.136	616.286	-0.051	0.126
-394.121	7.984	0.107	-0.079
-393.106	-200.000	0.009	-0.078
-392.092	333.791	0.056	0.107
-391.077	-81.341	0.081	-0.027
-390.063	5.386	-0.146	0.107
-389.048	800.000	0.007	-0.028
-388.033	47.232	-0.147	-0.136
-387.019	120.375	-0.088	-0.109
-386.004	29.961	-0.145	0.123
-384.990	-17.997	-0.308	-0.191
-383.975	-75.014	0.212	0.075
-382.960	74.495	0.314	-0.327
-381.946	800.000	0.157	-0.531
-380.931	51.605	0.109	0.103
-379.917	-12.862	-0.112	0.072
-378.902	-109.100	-0.058	0.012
-377.888	800.000	-0.069	-0.229
-376.873	26.432	0.123	0.102
-375.858	59.528	-0.088	-0.086
-374.844	-200.000	-0.006	0.053
-373.829	-64.677	0.075	0.030
-372.815	-200.000	-0.062	-0.313
-371.800	-23.404	0.214	0.128
-370.785	-105.927	0.298	0.067
-369.771	-200.000	-0.049	0.229
-368.756	-200.000	0.087	-0.497
-367.742	-143.923	0.245	0.023
-366.727	-85.739	-0.055	0.017
-365.712	800.000	-0.091	0.314
-364.698	116.463	0.153	0.187
-363.683	-0.538	0.135	-0.095
-362.669	-49.298	-0.310	-0.147
-361.654	800.000	-0.161	0.500
-360.639	9.646	-0.074	-0.056
-359.625	118.435	-0.126	-0.154
-358.610	355.563	-0.144	0.285
-357.596	-22.684	-0.260	0.156
-356.581	-146.740	0.027	0.002
-355.566	-143.439	0.369	-0.035
-354.552	-68.120	-0.444	-0.171
-353.537	207.037	-0.073	0.113
-352.523	35.020	-0.076	0.066
-351.508	-123.300	0.319	0.051
-350.493	800.000	0.024	-0.074
-349.479	-200.000	0.108	-0.500
-348.464	0.374	-0.342	0.242
-347.450	-31.345	-0.497	0.277
-346.435	143.023	0.182	0.239
-345.420	290.100	0.157	-0.283
-344.406	-200.000	-0.024	0.213
-343.391	800.000	-0.060	-0.224
-342.377	-80.273	0.058	0.019
-341.362	481.858	0.057	-0.129
-340.348	800.000	0.039	0.161
-339.333	800.000	0.031	0.091
-338.318	-131.707	0.150	0.020
-337.304	378.158	-0.203	0.412
-336.289	286.310	0.076	-0.136
-335.275	-16.883	0.049	0.031
-334.260	-13.926	-0.035	-0.023
-333.245	-190.930	0.373	0.004
-332.231	-62.626	0.104	-0.043
-331.216	-200.000	-0.002	-0.107
-330.202	104.166	0.125	0.146
-329.187	-200.000	0.021	0.121
-328.172	-46.846	0.051	0.025
-327.158	-24.193	-0.286	-0.169
-326.143	-106.194	-0.259	-0.058
-325.129	113.225	0.081	-0.098
-324.114	-200.000	0.001	-0.051
-323.099	-94.069	-0.032	0.009
-322.085	-200.000	0.002	-0.032
-321.070	316.111	-0.029	0.053
-320.056	25.035	-0.163	-0.134
-319.041	800.000	-0.128	-0.366
-318.026	164.082	0.088	-0.123
-317.012	75.172	-0.083	0.086
-315.997	340.601	-0.110	-0.212
-314.983	350.515	0.136	0.266
-313.968	234.007	-0.120	0.196
-312.953	30.255	0.147	0.124
-311.939	31.029	0.254	0.216
-310.924	-48.710	0.346	-0.164
-309.910	14.637	0.193	0.149
-308.895	-200.000	0.026	-0.321
-307.880	800.000	-0.102	-0.344
-306.866	35.429	-0.045	0.039
-305.851	800.000	-0.116	-0.347
-304.837	262.721	0.115	0.198
-303.822	-49.279	0.247	-0.117
-302.807	799.323	0.023	-0.063
-301.793	-200.000	-0.036	-0.466
-300.778	667.406	0.106	0.271
-299.764	275.046	-0.202	0.354
-298.749	-200.000	0.009	0.269
-297.735	36.602	-0.085	0.074
-296.720	-200.000	0.004	-0.121
-295.705	-200.000	0.023	0.114
-294.691	-15.700	-0.280	-0.176
-293.676	54.599	0.190	0.181
-292.662	-22.136	0.131	0.079
-291.647	-139.419	0.290	-0.031
-290.632	139.753	0.114	-0.149
-289.618	-57.128	-0.093	-0.040
-288.603	-50.704	0.214	0.100
-287.589	2.815	-0.155	0.111
-286.574	-200.000	0.024	0.108
-285.559	262.587	0.232	0.398
-284.545	-200.000	-0.046	-0.351
-283.530	11.545	0.237	-0.179
-282.516	-200.000	-0.017	0.395
-281.501	-21.896	0.221	0.133
-280.486	246.721	0.139	-0.232
-279.472	800.000	0.154	-0.424
-278.457	400.974	0.090	0.186
-277.443	-34.627	0.181	0.098
-276.428	51.670	-0.157	0.148
-275.413	-200.000	-0.012	0.249
-274.399	-68.689	0.215	0.082
-273.384	-121.028	-0.425	0.071
-272.370	-200.000	-0.001	-0.085
-271.355	-200.000	0.007	0.071
-270.340	-24.828	-0.222	-0.131
-269.326	-200.000	-0.001	0.063
-268.311	-79.609	0.013	0.004
-267.297	288.111	-0.165	0.295
-266.282	613.904	0.018	-0.044
-265.267	98.738	-0.291	0.332
-264.253	11.737	0.239	-0.182
-263.238	99.449	-0.091	0.104
-262.224	-125.604	0.140	-0.021
-261.209	19.010	-0.132	0.105
-260.195	-101.526	0.312	-0.075
-259.180	88.928	-0.244	-0.268
-258.165	-191.265	0.163	0.002
-257.151	-19.590	0.227	-0.139
-256.136	-156.374	0.225	-0.014
-255.122	-200.000	-0.015	-0.248
-254.107	141.379	0.095	0.125
-253.092	-200.000	0.003	-0.145
-252.078	-160.544	0.220	0.012
-251.063	87.990	0.206	-0.226
-250.049	295.821	-0.091	0.165
-249.034	-200.000	0.000	-0.073
-248.019	-200.000	0.015	0.244
-247.005	43.504	0.166	-0.150
-245.990	87.885	0.189	-0.207
-244.976	-144.813	0.089	0.008
-243.961	-102.946	-0.160	0.037
-242.946	-23.777	-0.177	-0.105
-241.932	-142.741	0.264	0.025
-240.917	82.372	0.193	0.207
-239.903	-200.000	0.034	-0.188
-238.888	199.885	-0.165	-0.250
-237.873	800.000	-0.096	-0.311
-236.859	94.078	-0.127	-0.142
-235.844	-200.000	-0.093	0.538
-234.830	76.027	-0.086	0.090
-233.815	49.881	-0.117	0.109
-232.800	-92.465	0.344	0.095
-231.786	-82.173	0.148	-0.048
-230.771	-76.816	0.219	-0.076
-229.757	800.000	0.024	-0.093
-228.742	-200.000	0.075	0.468
-227.727	132.302	0.074	0.094
-226.713	208.770	-0.196	0.302
-225.698	-39.239	-0.161	0.084
-224.684	-74.224	0.010	0.004
-223.669	-153.768	0.265	-0.018
-222.655	37.722	-0.114	0.100
-221.640	-59.734	-0.306	0.129
-220.625	-180.163	0.111	0.002
-219.611	37.535	0.081	-0.071
-218.596	564.349	0.211	0.504
-217.582	-112.662	-0.090	-0.018
-216.567	676.488	-0.035	-0.089
-215.552	-23.286	0.308	0.183
-214.538	89.846	0.039	0.043
-213.523	300.316	-0.125	0.228
-212.509	17.476	-0.220	0.173
-211.494	-34.746	-0.196	-0.106
-210.479	142.959	-0.260	-0.342
-209.465	800.000	-0.100	0.371
-208.450	-53.275	-0.383	-0.173
-207.436	522.504	0.086	-0.198
-206.421	10.277	-0.086	0.064
-205.406	-20.415	-0.215	-0.130
-204.392	-53.934	0.115	0.052
-203.377	-200.000	0.014	0.130
-202.363	36.504	-0.254	-0.221
-201.348	-130.699	-0.506	0.067
-200.333	-107.119	-0.214	0.047
-199.319	188.666	0.086	-0.127
-198.304	-72.938	-0.147	0.053
-197.290	526.575	-0.113	0.263
-196.275	-200.000	-0.008	0.137
-195.260	800.000	-0.069	0.278
-194.246	-34.388	-0.180	-0.097
-193.231	-200.000	-0.037	-0.170
-192.217	-123.022	0.441	0.070
-191.202	800.000	0.060	-0.165
-190.187	-29.012	0.127	-0.072
-189.173	241.398	-0.052	0.085
-188.158	287.732	-0.112	-0.200
-187.144	-60.343	0.162	0.068
-186.129	196.242	0.190	0.285
-185.114	3.937	-0.022	-0.016
-184.100	326.741	0.029	0.055
-183.085	800.000	0.064	-0.235
-182.071	38.703	-0.077	-0.068
-181.056	115.542	0.136	-0.164
-180.042	-104.828	-0.021	0.005
-179.027	11.977	0.157	-0.119
-178.012	-86.588	-0.085	-0.026
-176.998	-27.264	0.404	0.231
-175.983	-200.000	0.005	0.409
-174.969	-85.786	0.097	-0.029
-173.954	-96.361	0.149	0.039
-172.939	269.386	-0.145	0.251
-171.925	-200.000	-0.003	-0.050
-170.910	72.565	0.225	0.231
-169.896	-26.186	0.130	-0.075
-168.881	242.299	-0.071	0.116
-167.866	800.000	0.017	0.073
-166.852	95.389	-0.285	0.320
-165.837	89.922	0.016	-0.017
-164.823	-38.173	0.369	-0.193
-163.808	-200.000	-0.020	0.411
-162.793	-38.593	-0.136	0.071
-161.779	-200.000	0.005	0.101
-160.764	-105.963	0.104	0.023
-159.750	5.508	-0.316	0.229
-158.735	756.784	0.141	0.375
-157.720	98.088	-0.071	-0.080
-156.706	-29.194	-0.317	0.179
-155.691	755.662	-0.075	0.199
-154.677	617.751	0.093	0.229
-153.662	300.967	-0.028	-0.051
-152.647	-118.265	-0.476	-0.083
-151.633	-77.578	0.241	0.082
-150.618	-60.594	0.188	-0.078
-149.604	-200.000	-0.053	0.289
-148.589	15.588	-0.072	0.056
-147.574	-100.288	0.318	0.078
-146.560	-80.155	0.218	0.072
-145.545	350.179	0.117	0.228
-144.531	-52.827	-0.108	0.049
-143.516	-74.611	0.184	0.065
-142.502	153.170	0.126	-0.170
-141.487	-200.000	-0.019	-0.204
-140.472	471.532	0.119	0.263
-139.458	800.000	0.081	0.261
-138.443	-70.048	-0.082	-0.031
-137.429	125.956	0.047	0.058
-136.414	119.529	-0.268	-0.326
-135.399	41.500	-0.247	0.220
-134.385	-200.000	-0.011	0.110
-133.370	-88.572	-0.165	-0.048
-132.356	-174.135	0.216	-0.006
-131.341	-200.000	0.026	-0.243
-130.326	409.140	0.087	0.180
-129.312	-53.505	0.236	0.106
-128.297	-50.090	-0.116	-0.054
-127.283	55.878	-0.153	0.146
-126.268	800.000	0.033	0.130
-125.253	64.668	0.040	0.039
-124.239	-159.525	0.188	0.010
-123.224	170.036	0.062	0.088
-122.210	-167.619	0.194	0.008
-121.195	-134.658	0.190	-0.023
-120.180	-200.000	-0.011	-0.112
-119.166	-103.875	0.345	-0.079
-118.151	-41.766	0.077	-0.039
-117.137	52.946	-0.204	-0.192
-116.122	1.494	-0.204	0.144
-115.107	134.534	0.160	0.204
-114.093	137.479	0.182	0.234
-113.078	237.299	-0.111	0.181
-112.064	-152.042	-0.178	-0.013
-111.049	-200.000	-0.012	0.092
-110.034	28.325	-0.078	-0.065
-109.020	-199.916	0.193	-0.001
-108.005	-200.000	0.011	0.093
-106.991	207.035	-0.158	0.241
-105.976	243.796	-0.036	-0.059
-104.962	758.737	-0.085	-0.227
-103.947	800.000	-0.078	0.278
-102.932	-16.330	-0.261	-0.163
-101.918	109.182	0.102	0.119
-100.903	-44.679	0.177	-0.087
-99.889	205.320	0.110	0.168
-98.874	800.000	0.097	0.313
-97.859	-200.000	0.048	0.275
-96.845	355.586	0.219	0.427
-95.830	-200.000	-0.034	0.283
-94.816	-12.952	0.257	0.164
-93.801	170.598	0.227	0.318
-92.786	-200.000	-0.065	-0.292
-91.772	800.000	-0.085	-0.263
-90.757	33.030	-0.142	-0.120
-89.743	738.586	0.064	-0.168
-88.728	645.813	0.101	-0.252
-87.713	-200.000	0.046	-0.206
-86.699	22.933	0.149	0.120
-85.684	320.425	0.105	0.196
-84.670	-137.850	0.080	-0.009
-83.655	-18.938	-0.235	0.143
-82.640	-43.194	0.168	-0.083
-81.626	-200.000	0.036	-0.459
-80.611	-153.702	-0.267	-0.018
-79.597	-68.017	-0.168	0.064
-78.582	-36.466	0.084	-0.044
-77.567	800.000	-0.071	-0.267
-76.553	-200.000	-0.022	-0.248
-75.538	-200.000	0.044	-0.245
-74.524	60.459	-0.156	0.152
-73.509	800.000	-0.062	0.266
-72.494	-70.998	-0.092	0.034
-71.480	-81.294	-0.249	0.080
-70.465	-200.000	0.003	0.270
-69.451	-4.143	-0.162	-0.110
-68.436	-200.000	0.009	-0.165
-67.422	268.404	-0.211	0.363
-66.407	356.100	0.107	0.210
-65.392	27.005	0.270	0.222
-64.378	68.902	-0.071	-0.071
-63.363	530.449	0.074	-0.172
-62.349	53.490	0.054	-0.050
-61.334	25.619	-0.951	-0.776
-60.319	41.598	0.745	0.661
-59.305	-200.000	-0.263	-1.321
-58.290	69.941	0.698	0.706
-57.276	487.864	0.664	1.485
-56.261	-200.000	111.029	620.627
-55.246	457.159	1505.711	3277.659
-54.232	146.889	2674.322	3524.080
-53.217	103.274	2179.586	2504.622
-52.203	38.251	1709.387	1491.586
-51.188	31.000	1527.232	1282.913
-50.173	28.727	1502.580	1246.745
-49.159	50.993	1559.309	1448.410
-48.144	50.724	1575.368	1461.413
-47.130	31.233	1532.067	1288.378
-46.115	28.155	1517.486	1254.986
-45.100	27.960	1513.865	1250.610
-44.086	27.956	1512.098	1249.076
-43.071	27.835	1510.718	1247.054
-42.057	27.870	1508.793	1245.657
-41.042	27.860	1507.225	1244.242
-40.027	27.840	1505.718	1242.816
-39.013	27.877	1504.145	1241.720
-37.998	27.755	1503.109	1239.989
-36.984	27.789	1501.910	1239.180
-35.969	27.867	1500.184	1238.232
-34.954	27.888	1498.681	1237.090
-33.940	27.764	1497.596	1235.303
-32.925	27.790	1496.242	1234.315
-31.911	27.913	1494.469	1233.629
-30.896	27.931	1493.370	1232.795
-29.881	27.959	1492.164	1231.939
-28.867	27.923	1491.150	1230.811
-27.852	27.833	1489.732	1228.986
-26.838	27.818	1488.375	1227.721
-25.823	27.906	1486.774	1226.941
-24.809	27.870	1484.921	1225.119
-23.794	27.804	1483.960	1223.837
-22.779	27.882	1482.736	1223.300
-21.765	27.754	1482.256	1222.000
-20.750	27.899	1480.626	1221.577
-19.736	27.910	1479.752	1220.884
-18.721	27.964	1478.259	1219.961
-17.706	27.874	1477.095	1218.355
-16.692	27.919	1476.316	1217.958
-15.677	27.856	1474.867	1216.296
-14.663	27.912	1474.128	1216.010
-13.648	27.930	1472.804	1214.989
-12.633	27.894	1471.727	1213.820
-11.619	27.909	1471.511	1213.689
-10.604	27.896	1470.582	1212.787
-9.590	27.912	1469.141	1211.660
-8.575	27.994	1468.332	1211.486
-7.560	28.021	1467.126	1210.620
-6.546	27.889	1467.066	1209.654
-5.531	27.896	1465.984	1208.754
-4.517	27.905	1464.549	1207.584
-3.502	27.880	1463.639	1206.622
-2.487	27.870	1463.347	1206.267
-1.473	27.829	1462.135	1204.951
-0.458	27.837	1460.829	1203.879
0.556	26.106	1451.256	1193.534
1.571	23.404	1426.240	1155.265
2.586	20.072	1364.284	1084.176
3.600	18.469	1279.687	1007.438
4.615	17.270	1234.626	965.074
5.629	15.000	1178.178	908.561
6.644	7.401	1094.392	805.415
7.659	1.292	1054.223	745.834
8.673	0.343	1049.211	737.580
9.688	0.131	1046.123	734.309
10.702	0.027	1044.162	732.360
11.717	0.049	1042.268	731.076
12.731	2.488	1044.524	744.459
13.746	10.139	1054.747	789.130
14.761	16.288	1062.208	824.771
15.775	17.152	1062.511	829.155
16.790	16.443	1060.702	824.211
17.804	15.369	1058.528	817.221
18.819	14.532	1056.665	811.638
19.834	14.096	1055.678	808.690
20.848	13.808	1054.824	806.565
21.863	13.573	1054.044	804.754
22.877	13.481	1052.475	803.040
23.892	13.231	1051.890	801.309
24.907	12.997	1051.460	799.775
25.921	13.135	1050.329	799.514
26.936	13.150	1049.889	799.183
27.950	13.179	1049.432	798.902
28.965	13.131	1048.758	798.086
29.980	13.168	1047.623	797.333
30.994	13.289	1046.730	797.163
32.009	13.482	1045.761	797.287
33.023	13.336	1045.222	796.101
34.038	13.517	1043.855	795.858
35.053	13.377	1043.515	794.858
36.067	13.284	1042.442	793.521
37.082	13.171	1041.567	792.246
38.096	13.223	1041.288	792.215
39.111	13.240	1040.451	791.586
40.126	13.316	1039.422	791.098
41.140	13.256	1038.106	789.738
42.155	13.232	1037.116	788.803
43.169	13.116	1036.542	787.742
44.184	13.170	1035.094	786.828
45.199	13.095	1033.950	785.531
46.213	13.115	1033.207	784.994
47.228	13.077	1032.536	784.232
48.242	13.201	1031.469	783.942
49.257	13.229	1030.557	783.313
50.271	13.221	1029.174	782.155
51.286	13.181	1028.475	781.364
52.301	13.172	1027.593	780.585
53.315	13.190	1026.664	779.896
54.330	13.247	1025.917	779.528
55.344	13.076	1025.294	778.180
56.359	13.210	1024.107	777.840
57.374	13.169	1023.047	776.773
58.388	13.150	1022.358	776.091
59.403	13.186	1021.469	775.519
60.417	13.119	1021.081	774.838
61.432	12.966	1020.956	773.955
62.447	13.024	1019.606	773.139
63.461	12.969	1019.065	772.403
64.476	12.954	1018.111	771.539
65.490	13.001	1016.784	770.688
66.505	13.010	1016.369	770.345
67.520	13.053	1015.523	769.834
68.534	13.093	1014.854	769.447
69.549	13.046	1013.526	768.154
70.563	13.096	1013.133	768.022
71.578	13.063	1012.725	767.488
72.593	12.919	1011.797	766.050
73.607	12.884	1010.699	764.988
74.622	12.901	1010.025	764.488
75.636	12.943	1008.883	763.750
76.651	12.895	1008.327	763.041
77.666	12.968	1007.394	762.602
78.680	13.000	1006.653	762.124
79.695	12.964	1006.460	761.747
80.709	13.075	1005.570	761.514
81.724	13.082	1004.721	760.836
82.739	13.120	1004.009	760.408
83.753	13.092	1003.245	759.631
84.768	13.257	1002.182	759.516
85.782	13.109	1001.651	758.367
86.797	13.325	1001.033	758.827
87.812	13.311	1000.035	757.936
88.826	13.168	999.459	756.779
89.841	13.099	998.529	755.689
90.855	13.161	998.006	755.510
91.870	13.296	996.647	755.032
92.884	13.378	995.986	754.838
93.899	13.273	995.343	753.807
94.914	13.215	995.167	753.344
95.928	13.421	993.697	753.100
96.943	13.258	993.531	752.168
97.957	13.367	992.240	751.617
98.972	13.307	991.820	750.962
99.987	13.298	990.985	750.222
101.001	13.352	990.070	749.708
102.016	13.277	989.467	748.845
103.030	13.225	988.366	747.707
104.045	13.341	987.400	747.436
105.060	13.370	986.437	746.772
106.074	13.278	985.263	745.401
107.089	13.212	985.112	744.925
108.103	13.093	984.239	743.665
109.118	12.990	983.471	742.553
110.133	13.038	982.730	742.144
111.147	13.141	981.407	741.542
112.162	13.118	980.669	740.817
113.176	13.076	979.735	739.858
114.191	13.192	978.649	739.492
115.206	13.284	977.814	739.204
116.220	13.222	977.003	738.249
117.235	13.200	976.119	737.416
118.249	13.178	975.166	736.534
119.264	13.292	974.341	736.353
120.279	13.160	973.665	735.191
121.293	13.161	973.163	734.752
122.308	13.133	972.407	733.988
123.322	13.160	971.690	733.505
124.337	13.070	970.418	732.082
125.352	13.003	969.120	730.739
126.366	13.050	967.909	729.970
127.381	13.139	966.835	729.488
128.395	13.106	966.385	728.938
129.410	13.118	965.274	728.088
130.424	13.141	964.038	727.195
131.439	13.130	963.560	726.719
132.454	13.160	962.356	725.882
133.468	13.298	961.655	725.891
134.483	13.300	961.141	725.450
135.497	13.237	960.485	724.614
136.512	13.191	960.017	723.995
137.527	13.224	958.819	723.169
138.541	13.263	957.972	722.640
139.556	13.249	957.344	722.042
140.570	13.174	956.504	721.018
141.585	13.326	955.768	721.060
142.600	13.266	955.337	720.412
143.614	13.284	954.657	719.914
144.629	13.411	953.765	719.725
145.643	13.431	952.770	718.998
146.658	13.426	952.013	718.343
147.673	13.291	951.192	717.076
148.687	13.225	950.562	716.251
149.702	13.344	949.536	715.928
150.716	13.328	948.621	715.106
151.731	13.278	947.664	714.105
152.746	13.304	946.823	713.520
153.760	13.362	946.372	713.370
154.775	13.378	945.322	712.582
155.789	13.458	944.936	712.571
156.804	13.387	944.012	711.510
157.819	13.461	943.052	711.041
158.833	13.486	942.656	710.787
159.848	13.423	941.901	709.883
160.862	13.458	941.431	709.616
161.877	13.527	940.380	709.057
162.892	13.488	939.494	708.159
163.906	13.324	939.164	707.148
164.921	13.379	938.040	706.474
165.935	13.348	937.216	705.655
166.950	13.356	936.396	705.011
167.964	13.456	935.246	704.507
168.979	13.427	934.313	703.619
169.994	13.410	933.223	702.663
171.008	13.380	932.930	702.255
172.023	13.326	932.014	701.274
173.037	13.489	931.137	701.244
174.052	13.565	930.775	701.229
175.067	13.668	929.642	700.748
176.081	13.500	929.011	699.501
177.096	13.470	928.039	698.584
178.110	13.505	927.507	698.266
179.125	13.514	926.592	697.555
180.140	13.495	925.629	696.689
181.154	13.647	924.680	696.550
182.169	13.579	924.505	696.072
183.183	13.681	923.793	695.902
184.198	13.666	923.062	695.227
185.213	13.611	922.670	694.639
186.227	13.697	921.773	694.265
187.242	13.669	921.273	693.707
188.256	13.715	920.598	693.328
189.271	13.745	919.912	692.877
190.286	13.734	919.281	692.296
191.300	13.621	918.177	690.930
192.315	13.698	917.451	690.643
193.329	13.602	917.178	689.978
194.344	13.571	916.290	689.122
195.359	13.580	915.632	688.600
196.373	13.636	915.553	688.714
197.388	13.760	914.715	688.536
198.402	13.806	914.113	688.214
199.417	13.756	914.072	687.916
200.432	13.893	913.350	687.879
201.446	13.964	912.543	687.505
202.461	13.984	912.128	687.215
203.475	14.181	911.500	687.491
204.490	14.103	910.810	686.589
205.504	14.014	910.257	685.744
206.519	13.886	909.342	684.468
207.534	13.953	908.747	684.236
208.548	13.899	907.613	683.099
209.563	14.022	907.233	683.257
210.577	14.095	906.382	682.857
211.592	13.949	905.936	681.861
212.607	14.014	905.371	681.640
213.621	14.100	904.956	681.623
214.636	14.039	904.397	680.890
215.650	14.158	903.265	680.464
216.665	14.256	902.367	680.128
217.680	14.173	902.418	679.769
218.694	14.162	901.673	679.099
219.709	14.158	901.448	678.855
220.723	14.160	900.977	678.450
221.738	14.268	899.752	677.905
222.753	14.160	899.012	676.850
223.767	14.258	898.134	676.528
224.782	14.143	897.595	675.595
225.796	14.180	897.238	675.416
226.811	14.456	895.938	675.495
227.826	14.347	895.518	674.677
228.840	14.260	895.213	674.035
229.855	14.291	894.139	673.295
230.869	14.301	893.507	672.799
231.884	14.304	892.753	672.182
232.899	14.339	892.129	671.796
233.913	14.242	891.205	670.649
234.928	14.260	890.642	670.239
235.942	14.202	890.374	669.745
236.957	14.198	889.392	668.931
237.972	14.249	888.667	668.531
238.986	14.256	888.154	668.113
240.001	14.121	887.905	667.325
241.015	14.246	886.759	666.906
242.030	14.356	886.099	666.792
243.045	14.463	885.427	666.654
244.059	14.300	884.786	665.460
245.074	14.508	884.065	665.690
246.088	14.548	883.215	665.150
247.103	14.404	883.168	664.481
248.117	14.558	882.425	664.479
249.132	14.520	882.275	664.153
250.147	14.502	881.467	663.414
251.161	14.661	880.598	663.337
252.176	14.768	879.810	663.107
253.190	14.761	878.946	662.370
254.205	14.862	878.639	662.481
255.220	14.805	878.182	661.851
256.234	14.810	877.523	661.318
257.249	14.842	876.874	660.894
258.263	14.798	876.579	660.439
259.278	14.840	876.045	660.147
260.293	14.863	875.106	659.471
261.307	14.925	874.635	659.299
262.322	14.818	874.338	658.597
263.336	15.004	873.208	658.419
264.351	15.086	872.804	658.379
265.366	15.080	872.229	657.862
266.380	14.916	871.395	656.535
267.395	15.027	870.737	656.414
268.409	14.939	870.206	655.613
269.424	15.020	869.701	655.489
270.439	14.905	868.924	654.397
271.453	15.027	868.011	654.128
272.468	14.901	867.579	653.253
273.482	15.005	867.000	653.165
274.497	14.982	866.601	652.715
275.512	15.060	865.592	652.204
276.526	15.245	864.189	651.808
277.541	15.079	864.156	651.078
278.555	15.087	863.477	650.541
279.570	15.159	862.517	650.037
280.585	15.204	861.911	649.698
281.599	15.168	861.694	649.339
282.614	15.223	861.071	649.026
283.628	15.160	860.949	648.633
284.643	15.121	860.041	647.741
285.657	15.207	859.672	647.738
286.672	15.203	859.422	647.475
287.687	15.029	859.082	646.491
288.701	15.230	858.205	646.549
289.716	15.278	857.421	646.086
290.730	15.186	857.011	645.367
291.745	15.307	856.474	645.368
292.760	15.224	855.560	644.303
293.774	15.266	855.234	644.164
294.789	15.498	854.216	644.228
295.803	15.478	853.685	643.697
296.818	15.338	853.720	643.128
297.833	15.214	853.017	642.068
298.847	15.362	852.096	641.882
299.862	15.336	851.559	641.324
300.876	15.524	850.677	641.317
301.891	15.482	849.863	640.490
302.906	15.533	849.425	640.296
303.920	15.521	848.564	639.543
304.935	15.540	848.289	639.354
305.949	15.672	847.602	639.280
306.964	15.677	846.982	638.775
307.979	15.541	846.487	637.830
308.993	15.609	845.602	637.364
310.008	15.621	845.658	637.394
311.022	15.704	844.840	637.037
312.037	15.768	844.113	636.677
313.052	15.699	843.947	636.232
314.066	15.661	842.981	635.303
315.081	15.555	842.409	634.415
316.095	15.554	842.165	634.172
317.110	15.865	841.086	634.476
318.125	15.717	840.514	633.432
319.139	15.704	840.193	633.086
320.154	15.617	839.959	632.524
321.168	15.709	838.940	632.049
322.183	15.673	838.807	631.755
323.197	15.669	838.419	631.391
324.212	15.705	837.630	630.879
325.227	15.903	836.741	630.893
326.241	15.852	836.494	630.462
327.256	15.726	835.768	629.387
328.270	15.830	835.137	629.245
329.285	15.773	835.010	628.879
330.300	15.699	834.465	628.136
331.314	15.779	833.870	627.934
332.329	15.773	833.419	627.517
333.343	15.822	832.463	626.921
334.358	15.871	831.677	626.459
335.373	16.059	831.305	626.819
336.387	15.921	830.671	625.776
337.402	15.990	830.673	625.976
338.416	16.085	829.788	625.606
339.431	15.996	829.416	624.942
340.446	16.113	828.387	624.546
341.460	16.102	828.123	624.248
342.475	16.081	827.552	623.687
343.489	16.113	827.030	623.355
344.504	16.052	826.889	622.969
345.519	16.205	826.060	622.852
346.533	16.410	825.138	622.861
347.548	16.294	825.218	622.436
348.562	16.282	824.363	621.692
349.577	16.189	824.203	621.174
350.592	16.206	823.487	620.642
351.606	16.162	822.818	619.924
352.621	16.091	822.973	619.723
353.635	16.209	822.010	619.376
354.650	16.157	821.925	619.068
355.665	16.307	820.771	618.693
356.679	16.200	820.691	618.186
357.694	16.290	820.055	617.981
358.708	16.403	819.663	618.044
359.723	16.310	819.061	617.195
360.738	16.293	818.468	616.630
361.752	16.389	817.814	616.433
362.767	16.312	817.852	616.127
363.781	16.158	817.321	615.112
364.796	16.352	816.646	615.256
365.810	16.445	816.459	615.401
366.825	16.569	815.603	615.151
367.840	16.645	815.589	615.362
368.854	16.731	815.024	615.194
369.869	16.483	814.309	613.701
370.883	16.520	814.144	613.654
371.898	16.317	813.790	612.599
372.913	16.581	813.027	612.927
373.927	16.591	812.679	612.645
374.942	16.782	811.514	612.402
375.956	16.661	810.995	611.520
376.971	16.592	811.004	611.224
377.986	16.633	810.314	610.796
379.000	16.681	809.587	610.368
380.015	16.786	809.158	610.369
381.029	16.780	808.438	609.752
382.044	16.929	807.680	609.662
383.059	16.838	807.091	608.834
384.073	17.024	806.748	609.191
385.088	16.899	806.418	608.440
386.102	16.738	805.772	607.319
387.117	16.652	805.139	606.482
388.132	16.731	804.857	606.499
389.146	16.731	804.520	606.190
390.161	16.886	803.896	606.221
391.175	16.789	804.005	605.902
392.190	17.010	803.297	606.107
393.205	17.033	802.825	605.776
394.219	16.844	802.246	604.613
395.234	16.756	801.906	603.989
396.248	16.735	801.454	603.521
397.263	16.916	800.962	603.742
398.278	16.850	800.213	602.890
399.292	16.917	800.057	602.954
400.307	16.900	799.156	602.163
401.321	16.848	799.237	601.986
402.336	16.859	798.867	601.693
403.350	16.969	798.416	601.690
404.365	16.887	798.049	601.069
405.380	17.035	797.169	600.877
406.394	17.014	797.149	600.737
407.409	17.135	796.468	600.598
408.423	17.207	796.165	600.570
409.438	17.138	795.958	600.117
410.453	17.154	795.400	599.699
411.467	17.178	794.920	599.370
412.482	17.271	794.326	599.198
413.496	17.271	793.844	598.780
414.511	17.157	793.482	598.053
415.526	17.224	793.193	598.019
416.540	17.190	792.977	597.683
417.555	17.304	792.297	597.516
418.569	17.286	791.772	597.004
419.584	17.358	791.568	597.051
420.599	17.336	790.965	596.466
421.613	110.664	1292.437	1476.365
422.628	95.047	1365.491	1476.456
