DTS Sentinel unit serial number:	SN413079Multiplexer serial number:	ORYXHardware model number:	OX4-SRSoftware version number:	ORYX F/W v4.00 Oryx Data Collector v3.7.2.0data status	okinstallation	princeton_trtdifferential loss correction	single-endedforward channel	channel 3reverse channel	N/Adate	2019/09/12time	19:47:04forward acquisition time	15.00reverse acquisition time	0.00gamma	496.2192k internal	0.2322k external	0.2322temperature offset calibration	1.0116default loss term (dB/km)	0.3790temperature slope calibration	1.0000multiplexer offset coefficient	1.0000multiplexer slope coefficient	1.0000fibre end	0.00T internal ref (°C)	32.00T ext. ref 1 (°C)	3.43T ext. ref 2 (°C)	26.51length (m)	temperature (°C)	Stokes	anti-Stokes-747.200	114.534	0.340	0.418
-746.185	87.281	0.319	0.356
-745.171	800.000	-0.373	-1.050
-744.156	-85.753	0.148	-0.047
-743.142	-7.719	-0.378	-0.258
-742.127	93.326	-0.205	-0.235
-741.112	-200.000	0.072	-0.708
-740.098	-200.000	-0.130	0.837
-739.083	-50.612	-0.125	0.060
-738.069	-9.334	-0.339	0.229
-737.054	-176.053	-0.774	0.021
-736.039	-1.712	-0.846	-0.602
-735.025	-8.659	0.653	0.443
-734.010	-45.299	0.200	-0.100
-732.996	-143.446	-1.057	0.102
-731.981	-200.000	-0.183	1.065
-730.966	63.324	0.541	-0.548
-729.952	-200.000	-0.096	-0.473
-728.937	-200.000	0.042	-0.791
-727.923	112.541	0.464	-0.566
-726.908	-102.677	-0.220	0.053
-725.894	800.000	-0.228	0.755
-724.879	-50.112	0.262	-0.125
-723.864	221.110	-0.614	-0.995
-722.850	24.303	0.539	0.450
-721.835	-125.931	0.096	0.015
-720.821	-10.123	-0.800	-0.536
-719.806	800.000	-0.138	-0.449
-718.791	-200.000	0.048	0.459
-717.777	195.598	0.583	-0.894
-716.762	-155.879	1.134	0.073
-715.748	-65.571	-0.258	0.104
-714.733	593.727	-0.023	-0.058
-713.718	26.695	0.302	-0.256
-712.704	-3.179	-0.338	0.238
-711.689	-86.051	0.368	-0.115
-710.675	-0.462	0.754	-0.540
-709.660	36.946	0.623	0.556
-708.645	456.232	0.102	0.229
-707.631	176.444	-0.233	0.341
-706.616	-77.189	1.212	0.426
-705.602	-123.833	0.599	-0.095
-704.587	-200.000	0.006	0.174
-703.572	-120.190	-0.267	-0.046
-702.558	800.000	0.058	0.189
-701.543	-44.492	-0.565	0.285
-700.529	800.000	0.371	1.121
-699.514	-200.000	0.055	0.401
-698.499	64.973	0.480	-0.489
-697.485	21.667	0.331	0.272
-696.470	347.632	0.236	0.468
-695.456	23.562	0.264	-0.219
-694.441	800.000	-0.474	1.345
-693.426	547.561	-0.111	0.267
-692.412	-109.132	0.614	-0.132
-691.397	0.195	0.208	-0.150
-690.383	598.164	0.343	0.857
-689.368	199.303	-0.253	0.390
-688.354	-200.000	-0.033	0.315
-687.339	800.000	-0.119	0.355
-686.324	183.434	0.458	0.682
-685.310	706.508	0.184	0.491
-684.295	376.845	0.583	-1.201
-683.281	412.867	-0.260	-0.558
-682.266	-81.125	0.988	-0.329
-681.251	-200.000	0.072	0.687
-680.237	-26.718	-0.196	-0.115
-679.222	84.403	0.289	0.318
-678.208	119.110	-0.176	0.219
-677.193	-190.848	-0.264	0.003
-676.178	-115.168	-0.779	-0.149
-675.164	-111.669	0.582	0.119
-674.149	-96.777	0.827	-0.219
-673.135	204.228	-0.304	-0.475
-672.120	-113.764	-0.134	0.026
-671.105	342.557	0.448	-0.884
-670.091	-200.000	-0.050	-0.713
-669.076	25.605	-0.445	0.373
-668.062	800.000	-0.047	-0.209
-667.047	-6.808	0.597	-0.409
-666.032	-79.379	-0.552	-0.188
-665.018	-61.180	0.535	-0.227
-664.003	-65.800	0.299	0.121
-662.989	20.776	0.314	0.256
-661.974	-172.927	0.619	0.019
-660.959	800.000	-0.118	0.394
-659.945	800.000	-0.036	0.135
-658.930	-110.093	0.780	0.164
-657.916	-141.681	0.968	0.098
-656.901	140.190	-0.274	-0.363
-655.886	498.013	-0.102	0.237
-654.872	-29.145	0.276	-0.160
-653.857	-78.021	0.321	0.111
-652.843	-60.873	0.301	-0.128
-651.828	-153.125	0.702	0.050
-650.814	88.719	0.118	-0.132
-649.799	-145.918	0.853	0.076
-648.784	166.107	0.048	0.068
-647.770	269.413	0.137	-0.242
-646.755	-136.526	0.330	0.039
-645.741	800.000	-0.138	0.507
-644.726	-190.793	0.337	0.004
-643.711	-110.369	0.431	0.090
-642.697	-70.739	-0.377	0.143
-641.682	-200.000	-0.041	-0.269
-640.668	529.681	0.338	-0.803
-639.653	-92.875	-1.129	0.317
-638.638	-128.133	0.449	-0.065
-637.624	5.403	-0.236	-0.175
-636.609	800.000	-0.198	0.870
-635.595	-108.742	-0.976	0.210
-634.580	124.311	0.438	-0.554
-633.565	-200.000	0.227	-1.093
-632.551	2.040	0.267	-0.194
-631.536	356.711	0.290	0.582
-630.522	-136.792	0.531	0.062
-629.507	117.811	0.681	0.844
-628.492	-112.535	0.695	0.140
-627.478	-90.088	0.107	-0.031
-626.463	-40.556	0.287	0.150
-625.449	800.000	0.116	0.457
-624.434	203.347	-0.580	-0.903
-623.419	-111.002	1.069	0.221
-622.405	-200.000	-0.067	0.645
-621.390	-111.694	0.450	0.092
-620.376	71.625	-0.256	-0.267
-619.361	800.000	0.068	0.293
-618.346	-100.560	-0.112	0.028
-617.332	-200.000	-0.092	-0.835
-616.317	-13.410	-0.283	0.184
-615.303	800.000	0.263	0.739
-614.288	-37.488	0.133	-0.071
-613.273	-94.976	0.358	-0.097
-612.259	-200.000	0.037	-0.735
-611.244	-53.480	0.155	-0.071
-610.230	-28.927	-0.380	-0.220
-609.215	-200.000	0.036	0.435
-608.201	-200.000	-0.047	-0.367
-607.186	-42.981	0.839	-0.428
-606.171	-200.000	0.099	-0.494
-605.157	-48.636	-0.197	-0.095
-604.142	-128.057	0.266	0.038
-603.128	-72.084	0.753	0.281
-602.113	800.000	-0.199	0.706
-601.098	271.584	0.137	0.243
-600.084	73.363	0.491	0.516
-599.069	25.667	-0.260	0.217
-598.055	-187.525	-0.410	0.005
-597.040	-200.000	-0.145	-0.683
-596.025	487.014	0.185	-0.424
-595.011	-32.392	-0.257	-0.144
-593.996	-177.983	0.229	0.005
-592.982	8.520	-0.966	0.730
-591.967	499.621	-0.253	-0.585
-590.952	-4.877	-0.348	0.241
-589.938	194.434	0.544	0.829
-588.923	273.533	-0.428	0.760
-587.909	25.129	0.075	0.063
-586.894	284.884	-0.437	-0.790
-585.879	-57.308	-1.104	-0.487
-584.865	-31.303	-0.124	-0.070
-583.850	-200.000	-0.088	-0.632
-582.836	89.860	0.833	-0.934
-581.821	-200.000	-0.097	-0.488
-580.806	487.167	-0.254	-0.582
-579.792	-81.590	-0.183	0.060
-578.777	39.266	-0.304	0.273
-577.763	-166.988	-0.318	-0.013
-576.748	-67.942	-0.458	-0.179
-575.733	27.858	0.187	0.158
-574.719	3.364	-0.169	-0.123
-573.704	-190.692	0.405	-0.004
-572.690	-142.149	1.032	0.103
-571.675	71.328	0.548	0.570
-570.661	244.896	0.245	-0.414
-569.646	787.033	0.012	-0.032
-568.631	327.612	-0.165	0.317
-567.617	320.960	-0.401	-0.765
-566.602	-200.000	0.104	-0.710
-565.588	66.894	-0.219	0.224
-564.573	50.518	0.355	-0.337
-563.558	77.288	0.266	-0.283
-562.544	322.144	0.143	-0.273
-561.529	20.650	0.177	0.144
-560.515	-64.010	0.245	-0.101
-559.500	-114.990	-0.323	-0.062
-558.485	55.596	0.080	0.078
-557.471	-200.000	-0.024	0.185
-556.456	431.016	-0.450	0.977
-555.442	15.005	0.347	0.272
-554.427	-200.000	0.076	-0.340
-553.412	329.657	0.171	0.330
-552.398	-200.000	0.029	-0.183
-551.383	795.345	0.168	-0.465
-550.369	-200.000	-0.158	0.902
-549.354	121.215	0.166	0.207
-548.339	-80.017	-0.241	0.081
-547.325	237.014	0.559	0.928
-546.310	-134.526	0.633	0.078
-545.296	800.000	0.248	-0.821
-544.281	-93.041	-0.771	-0.215
-543.266	-200.000	0.077	-0.563
-542.252	-77.411	-0.778	0.271
-541.237	47.173	0.346	0.323
-540.223	-200.000	-0.122	-0.877
-539.208	-153.405	-0.801	-0.056
-538.193	245.440	-0.209	-0.352
-537.179	-171.786	-1.158	-0.038
-536.164	-118.278	-1.035	0.184
-535.150	-70.535	-0.645	-0.245
-534.135	121.121	0.461	-0.575
-533.121	302.746	0.127	0.235
-532.106	-181.481	0.307	-0.006
-531.091	-12.085	0.093	0.061
-530.077	-200.000	-0.104	-0.511
-529.062	87.456	0.301	-0.333
-528.048	800.000	-0.092	0.374
-527.033	111.173	-0.575	-0.694
-526.018	800.000	0.140	-0.413
-525.004	37.245	-0.584	-0.518
-523.989	580.721	0.110	-0.270
-522.975	96.337	0.471	0.539
-521.960	-23.281	0.498	0.300
-520.945	16.010	-0.191	0.151
-519.931	-22.119	-0.557	0.338
-518.916	446.513	0.176	-0.388
-517.902	68.230	-0.419	-0.429
-516.887	39.951	0.215	-0.194
-515.872	53.274	0.581	0.557
-514.858	-200.000	-0.053	0.259
-513.843	-56.509	0.612	-0.272
-512.829	46.198	0.099	-0.092
-511.814	-189.969	0.517	0.006
-510.799	39.344	-0.388	-0.347
-509.785	233.943	-0.339	-0.559
-508.770	9.536	0.392	0.298
-507.756	-115.718	-0.179	-0.034
-506.741	-67.632	-0.181	-0.071
-505.726	-120.296	-0.420	-0.072
-504.712	194.788	0.270	0.410
-503.697	3.246	-0.328	-0.239
-502.683	88.919	0.337	0.375
-501.668	58.115	0.101	-0.099
-500.653	-31.276	-0.587	-0.331
-499.639	-70.650	0.615	0.233
-498.624	-200.000	-0.222	1.025
-497.610	-75.759	0.236	0.084
-496.595	-119.805	-0.242	0.042
-495.581	663.609	-0.315	-0.814
-494.566	295.744	-0.126	0.230
-493.551	-56.953	-0.305	-0.135
-492.537	-200.000	-0.056	0.323
-491.522	-130.924	-0.397	-0.053
-490.508	800.000	0.113	0.494
-489.493	323.844	0.223	0.426
-488.478	-138.971	-0.404	-0.044
-487.464	68.550	-0.320	-0.329
-486.449	98.784	0.481	-0.555
-485.435	32.187	-0.476	0.411
-484.420	480.167	-0.278	0.631
-483.405	22.911	-0.242	0.198
-482.391	556.594	-0.085	-0.204
-481.376	-107.022	-0.504	-0.111
-480.362	800.000	-0.248	0.779
-479.347	-64.851	0.482	-0.195
-478.332	-109.208	-0.834	-0.177
-477.318	800.000	0.239	0.684
-476.303	-46.159	0.352	-0.173
-475.289	49.749	0.323	0.304
-474.274	-138.264	-0.212	-0.023
-473.259	45.977	0.321	0.297
-472.245	-9.833	0.502	0.334
-471.230	-125.029	0.519	-0.080
-470.216	-67.516	0.351	0.138
-469.201	800.000	-0.123	-0.426
-468.186	-200.000	0.044	0.297
-467.172	154.470	-0.465	0.638
-466.157	545.041	0.465	-1.110
-465.143	299.466	-0.084	0.155
-464.128	-17.772	-0.825	0.517
-463.113	-200.000	-0.070	-0.600
-462.099	248.322	-0.305	0.516
-461.084	-65.999	-0.510	0.203
-460.070	61.475	0.614	-0.610
-459.055	82.940	-0.036	0.039
-458.040	110.684	0.268	-0.322
-457.026	800.000	0.077	-0.329
-456.011	38.477	0.341	0.304
-454.997	-200.000	0.066	-0.745
-453.982	-48.885	-0.486	0.233
-452.968	-37.942	0.447	0.237
-451.953	-158.197	0.355	-0.021
-450.938	55.064	0.406	0.391
-449.924	-117.020	0.383	-0.070
-448.909	-128.923	0.388	0.054
-447.895	-200.000	-0.017	0.210
-446.880	46.580	-0.872	-0.808
-445.865	437.357	-0.180	-0.392
-444.851	-80.691	0.689	0.229
-443.836	120.474	0.315	0.391
-442.822	-21.550	0.268	0.163
-441.807	800.000	-0.178	-0.693
-440.792	-48.785	-0.752	-0.360
-439.778	287.467	0.318	0.574
-438.763	52.902	0.940	-0.898
-437.749	-64.196	0.613	0.249
-436.734	-200.000	0.100	0.442
-435.719	-97.193	0.236	-0.062
-434.705	-52.525	0.448	0.207
-433.690	76.409	0.266	0.281
-432.676	800.000	0.082	0.253
-431.661	60.658	0.551	0.545
-430.646	-200.000	-0.023	-0.643
-429.632	-200.000	-0.440	0.001
-428.617	-29.158	0.342	0.196
-427.603	203.771	-0.235	-0.363
-426.588	-34.558	-0.545	0.298
-425.573	562.738	-0.176	0.424
-424.559	366.316	0.099	0.199
-423.544	-70.182	0.826	0.313
-422.530	-200.000	-0.079	-0.516
-421.515	-200.000	0.166	0.935
-420.500	182.835	0.326	0.480
-419.486	-29.400	0.777	0.443
-418.471	-200.000	0.127	-0.619
-417.457	-121.297	-0.759	-0.126
-416.442	-169.248	-0.530	0.020
-415.428	627.425	-0.168	-0.422
-414.413	-89.987	-0.112	0.033
-413.398	68.053	0.705	-0.719
-412.384	-36.919	0.243	0.130
-411.369	-151.276	-1.313	-0.098
-410.355	39.520	-0.392	0.351
-409.340	-200.000	-0.054	0.420
-408.325	800.000	0.156	-0.589
-407.311	128.274	-0.333	0.422
-406.296	-117.039	-0.399	0.073
-405.282	-84.912	-0.617	0.193
-404.267	-200.000	0.082	0.586
-403.252	-64.865	0.367	0.148
-402.238	-30.609	0.198	0.112
-401.223	-178.019	1.063	-0.025
-400.209	-81.561	0.283	0.093
-399.194	-102.923	-0.392	-0.093
-398.179	-200.000	-0.062	0.538
-397.165	645.747	-0.083	0.212
-396.150	36.942	0.089	-0.079
-395.136	77.279	-0.538	0.570
-394.121	-200.000	-0.029	0.745
-393.106	123.094	-0.096	0.119
-392.092	-128.887	0.708	-0.099
-391.077	-20.962	0.635	-0.387
-390.063	-200.000	-0.020	-0.264
-389.048	-18.309	0.747	0.465
-388.033	48.265	-0.185	0.172
-387.019	483.498	-0.201	-0.456
-386.004	-18.003	-0.455	0.284
-384.990	800.000	0.131	0.440
-383.975	-23.825	-0.788	-0.470
-382.960	-24.826	-0.918	0.543
-381.946	80.161	0.537	-0.575
-380.931	-193.334	0.574	-0.005
-379.917	145.152	-0.515	-0.686
-378.902	-200.000	0.002	-0.128
-377.888	358.553	0.594	1.182
-376.873	-82.145	-0.409	-0.133
-375.858	59.003	0.548	-0.536
-374.844	-33.814	-0.648	-0.356
-373.829	-200.000	-0.189	-1.278
-372.815	800.000	-0.209	0.596
-371.800	308.090	0.254	0.472
-370.785	96.127	0.361	-0.410
-369.771	92.069	-0.809	-0.907
-368.756	22.318	0.161	-0.131
-367.742	72.831	0.806	0.837
-366.727	-59.884	-0.507	-0.216
-365.712	800.000	0.263	-1.066
-364.698	-31.291	-0.240	-0.135
-363.683	142.637	-0.224	-0.296
-362.669	-45.685	-0.618	-0.304
-361.654	-200.000	-0.024	0.453
-360.639	69.473	-0.449	-0.460
-359.625	-3.056	0.155	0.108
-358.610	127.083	0.038	0.048
-357.596	-1.052	-0.475	0.334
-356.581	65.812	-0.156	-0.157
-355.566	-100.493	1.067	0.263
-354.552	-66.478	0.491	-0.194
-353.537	174.005	-0.499	0.718
-352.523	254.677	0.105	0.178
-351.508	-200.000	0.043	0.425
-350.493	-200.000	-0.028	-0.149
-349.479	-170.668	0.237	-0.008
-348.464	-46.724	0.128	0.062
-347.450	-122.016	-1.399	-0.229
-346.435	-128.930	0.948	-0.132
-345.420	-11.490	0.614	-0.402
-344.406	725.142	-0.136	-0.361
-343.391	-64.423	0.511	0.207
-342.377	725.070	0.090	0.240
-341.362	18.539	-0.322	0.256
-340.348	22.463	-0.178	0.145
-339.333	-200.000	-0.043	0.215
-338.318	-10.959	0.441	-0.289
-337.304	-128.778	-0.589	-0.082
-336.289	13.611	0.657	-0.507
-335.275	108.193	-0.145	-0.172
-334.260	-200.000	0.054	-0.250
-333.245	210.306	-0.101	0.157
-332.231	12.814	0.414	-0.318
-331.216	-173.272	0.236	0.007
-330.202	334.276	0.320	-0.615
-329.187	5.508	0.119	0.088
-328.172	124.572	0.357	0.446
-327.158	-10.264	-0.609	-0.402
-326.143	-8.199	-0.258	0.172
-325.129	-196.968	0.413	-0.003
-324.114	-200.000	-0.073	-0.385
-323.099	-120.837	0.643	0.108
-322.085	-88.573	-0.543	-0.161
-321.070	61.082	-0.159	-0.157
-320.056	55.823	0.106	0.102
-319.041	90.121	-0.045	0.050
-318.026	-77.708	0.408	0.140
-317.012	415.306	0.473	1.001
-315.997	-14.287	-0.171	0.110
-314.983	25.936	0.281	-0.233
-313.968	-200.000	-0.066	-0.455
-312.953	434.464	0.130	-0.282
-311.939	200.682	0.173	0.263
-310.924	-32.865	0.264	0.146
-309.910	485.423	0.079	-0.180
-308.895	-200.000	-0.075	-0.739
-307.880	73.618	-0.621	0.646
-306.866	-54.409	0.664	0.299
-305.851	-200.000	-0.180	0.891
-304.837	-200.000	-0.107	1.068
-303.822	-79.836	-0.736	0.246
-302.807	-112.487	-1.064	-0.211
-301.793	-90.919	0.309	0.088
-300.778	276.160	-0.104	0.184
-299.764	86.889	-0.520	0.571
-298.749	564.325	0.360	-0.865
-297.735	195.837	-0.229	0.345
-296.720	35.840	0.523	-0.457
-295.705	34.954	-0.220	-0.191
-294.691	-51.129	0.569	0.265
-293.676	70.135	-0.425	0.435
-292.662	-15.340	0.272	-0.173
-291.647	77.374	0.264	0.279
-290.632	800.000	-0.100	-0.326
-289.618	-56.329	0.477	-0.210
-288.603	72.612	-0.439	-0.455
-287.589	-48.068	0.626	-0.300
-286.574	215.558	0.412	-0.649
-285.559	-200.000	-0.019	-0.286
-284.545	287.934	0.214	-0.384
-283.530	9.227	-0.450	-0.337
-282.516	48.823	0.303	-0.282
-281.501	800.000	-0.135	-0.482
-280.486	800.000	-0.117	0.400
-279.472	-88.366	0.638	-0.189
-278.457	-152.000	-0.639	0.046
-277.443	-52.022	0.406	0.187
-276.428	800.000	-0.197	0.656
-275.413	-150.893	-0.470	0.035
-274.399	225.658	-0.727	-1.168
-273.384	192.639	0.244	-0.365
-272.370	-146.209	-0.494	-0.043
-271.355	183.659	0.053	-0.077
-270.340	-200.000	0.005	-0.094
-269.326	-48.308	-0.441	-0.211
-268.311	-39.626	0.246	0.127
-267.297	800.000	0.113	-0.396
-266.282	-200.000	-0.176	-0.922
-265.267	-47.528	-0.431	0.208
-264.253	262.953	-0.285	-0.491
-263.238	438.373	-0.203	-0.439
-262.224	289.324	-0.292	0.525
-261.209	66.641	0.655	0.661
-260.195	13.559	0.425	0.327
-259.180	-88.480	-0.310	-0.092
-258.165	-193.005	-1.231	0.011
-257.151	26.795	0.168	0.139
-256.136	800.000	-0.219	-0.769
-255.122	-200.000	-0.021	-0.523
-254.107	14.975	0.307	-0.238
-253.092	82.777	0.810	0.872
-252.078	173.025	0.313	0.446
-251.063	250.358	0.446	-0.751
-250.049	-200.000	-0.130	0.914
-249.034	-12.193	-0.141	-0.091
-248.019	-24.625	-0.281	0.166
-247.005	-196.472	-0.335	0.002
-245.990	-90.200	0.449	0.129
-244.976	-151.974	0.535	-0.039
-243.961	-103.129	0.450	-0.106
-242.946	-90.254	-0.259	0.075
-241.932	254.428	-0.221	0.374
-240.917	-142.785	1.045	0.101
-239.903	-148.524	-0.455	0.037
-238.888	-117.334	0.350	-0.063
-237.873	800.000	-0.052	-0.182
-236.859	181.296	0.097	0.141
-235.844	-200.000	0.070	-0.337
-234.830	45.141	0.427	-0.390
-233.815	667.051	0.081	0.207
-232.800	800.000	-0.191	-0.607
-231.786	64.654	0.053	0.053
-230.771	132.686	0.455	0.581
-229.757	96.571	0.648	-0.734
-228.742	-20.483	-0.266	-0.162
-227.727	86.056	-0.148	0.161
-226.713	800.000	-0.128	0.395
-225.698	-97.888	0.537	0.137
-224.684	-23.275	-1.026	-0.611
-223.669	-188.058	0.641	0.008
-222.655	385.042	0.133	-0.272
-221.640	-93.286	-0.549	-0.151
-220.625	454.579	-0.324	-0.712
-219.611	800.000	-0.089	0.264
-218.596	34.606	-0.453	-0.392
-217.582	-28.036	-0.706	0.404
-216.567	800.000	0.215	0.643
-215.552	800.000	-0.005	0.020
-214.538	-37.982	0.672	-0.353
-213.523	395.940	0.477	-0.985
-212.509	-200.000	-0.030	0.724
-211.494	490.037	-0.449	1.016
-210.479	-113.098	0.509	-0.099
-209.465	-3.207	0.600	0.414
-208.450	52.678	-0.461	-0.436
-207.436	-200.000	0.108	0.599
-206.421	-30.057	0.158	-0.089
-205.406	-45.961	-0.403	-0.197
-204.392	-119.117	-0.686	-0.119
-203.377	607.211	0.057	-0.139
-202.363	355.584	-0.208	-0.409
-201.348	-200.000	-0.014	0.664
-200.333	188.767	-0.579	0.857
-199.319	-53.899	0.518	-0.234
-198.304	207.059	-0.283	0.436
-197.290	40.134	-0.263	0.234
-196.275	-200.000	-0.055	-0.540
-195.260	-53.600	-0.841	0.380
-194.246	-200.000	-0.134	0.687
-193.231	73.162	-0.161	-0.166
-192.217	-94.949	-0.715	-0.191
-191.202	87.737	-0.478	0.523
-190.187	113.309	0.241	-0.290
-189.173	-84.531	-0.548	0.171
-188.158	-105.348	1.206	-0.271
-187.144	85.754	-0.222	-0.241
-186.129	-134.934	-0.638	0.076
-185.114	83.388	0.194	-0.208
-184.100	-43.009	-0.311	0.156
-183.085	-16.645	-0.143	-0.090
-182.071	-91.263	-0.681	-0.193
-181.056	-200.000	-0.065	0.517
-180.042	-14.708	-0.160	-0.102
-179.027	482.976	0.096	-0.215
-178.012	746.046	0.075	0.200
-176.998	250.833	-0.121	0.203
-175.983	448.832	0.076	0.165
-174.969	22.189	-0.256	-0.207
-173.954	599.410	0.166	0.407
-172.939	-200.000	0.154	-0.880
-171.925	-78.101	-0.877	0.298
-170.910	800.000	0.270	0.913
-169.896	-34.055	-0.658	0.357
-168.881	-7.619	-0.165	-0.110
-167.866	-90.864	-0.324	0.092
-166.852	143.463	0.268	-0.353
-165.837	52.519	0.652	-0.615
-164.823	-200.000	-0.047	0.784
-163.808	-200.000	0.102	0.459
-162.793	9.102	0.565	0.421
-161.779	29.618	0.061	-0.051
-160.764	-7.599	-0.449	0.300
-159.750	67.493	-0.276	-0.278
-158.735	23.237	0.241	0.196
-157.720	-89.585	0.770	0.223
-156.706	-129.053	-0.577	0.080
-155.691	-49.654	0.171	0.080
-154.677	188.998	-0.305	0.452
-153.662	377.397	-0.268	0.541
-152.647	176.935	0.101	0.146
-151.633	18.396	-0.484	-0.382
-150.618	-1.224	0.482	0.336
-149.604	147.023	-0.567	0.753
-148.589	18.621	-0.521	0.411
-147.574	25.084	0.214	0.175
-146.560	-77.306	-0.303	0.104
-145.545	-88.773	-1.081	0.317
-144.531	74.185	0.539	0.558
-143.516	-23.734	0.544	-0.322
-142.502	612.406	0.329	0.813
-141.487	-200.000	-0.027	-0.967
-140.472	156.385	0.065	0.088
-139.458	800.000	0.148	0.618
-138.443	-57.748	-0.845	0.365
-137.429	63.211	-0.607	0.600
-136.414	800.000	0.281	0.782
-135.399	800.000	-0.064	-0.219
-134.385	5.186	0.631	-0.459
-133.370	-144.961	-0.297	-0.027
-132.356	314.130	-0.322	0.597
-131.341	-200.000	-0.004	-0.149
-130.326	17.073	0.545	-0.426
-129.312	272.342	-0.199	0.346
-128.297	557.104	0.333	-0.791
-127.283	-94.325	-0.566	-0.153
-126.268	-105.690	0.541	-0.121
-125.253	285.031	-0.127	0.225
-124.239	800.000	0.065	0.272
-123.224	359.715	-0.145	-0.286
-122.210	-143.731	0.626	0.058
-121.195	800.000	0.402	-1.420
-120.180	-38.456	0.289	-0.151
-119.166	-200.000	0.044	0.619
-118.151	-7.632	-1.043	-0.695
-117.137	201.526	-0.096	0.146
-116.122	131.883	-0.529	0.671
-115.107	-95.532	0.427	0.113
-114.093	6.417	0.283	0.207
-113.078	-23.356	0.121	0.072
-112.064	-63.119	-0.532	0.216
-111.049	3.569	-0.474	-0.340
-110.034	-45.228	0.657	0.322
-109.020	56.948	0.122	-0.117
-108.005	71.073	-0.344	0.351
-106.991	-200.000	-0.046	-0.482
-105.976	10.253	-0.183	-0.137
-104.962	597.252	-0.336	-0.819
-103.947	-200.000	0.022	0.254
-102.932	-130.867	-0.580	0.077
-101.918	-200.000	0.047	0.634
-100.903	-131.547	-0.667	0.087
-99.889	-124.165	0.721	0.111
-98.874	607.587	-0.253	-0.621
-97.859	-125.439	-0.224	0.034
-96.845	273.306	0.227	0.394
-95.830	-30.380	-0.798	-0.446
-94.816	241.635	-0.039	0.065
-93.801	-179.228	-0.840	-0.018
-92.786	-152.165	0.502	0.036
-91.772	-39.379	1.112	0.574
-90.757	-68.860	-0.666	0.253
-89.743	-7.686	-0.593	0.395
-88.728	107.957	-0.577	0.678
-87.713	753.572	0.181	0.481
-86.699	55.751	0.458	0.437
-85.684	-64.558	0.435	0.174
-84.670	-126.773	-0.236	-0.034
-83.655	324.519	0.294	-0.552
-82.640	-141.070	0.543	0.055
-81.626	-200.000	-0.071	0.358
-80.611	-200.000	0.040	-0.230
-79.597	44.583	0.621	0.562
-78.582	-157.682	-0.420	-0.025
-77.567	-108.288	-0.541	0.115
-76.553	-101.049	-0.352	0.085
-75.538	-200.000	0.137	0.657
-74.524	-200.000	-0.097	-0.552
-73.509	-68.404	-0.343	0.131
-72.494	-72.132	-0.639	0.233
-71.480	-108.336	0.247	0.052
-70.465	-200.000	-0.023	-0.515
-69.451	-70.010	-0.151	0.057
-68.436	-8.711	0.277	-0.183
-67.422	-14.837	0.533	0.337
-66.407	22.612	-0.364	0.293
-65.392	-61.561	-0.289	-0.119
-64.378	-68.660	0.712	0.271
-63.363	-61.911	-0.289	-0.119
-62.349	-124.182	-0.490	-0.076
-61.334	130.799	-0.629	-0.793
-60.319	-200.000	0.010	0.264
-59.305	82.051	-0.742	-0.790
-58.290	221.732	0.776	1.227
-57.276	229.691	0.568	0.913
-56.261	-200.000	97.629	613.125
-55.246	662.531	1363.247	3456.213
-54.232	203.480	2525.719	3842.109
-53.217	119.073	2136.985	2598.165
-52.203	42.744	1687.426	1511.159
-51.188	35.198	1503.047	1295.228
-50.173	32.907	1476.335	1256.926
-49.159	53.757	1529.097	1443.614
-48.144	54.046	1546.233	1461.692
-47.130	35.490	1505.072	1298.742
-46.115	32.261	1490.080	1264.083
-45.100	32.110	1486.234	1259.755
-44.086	32.122	1484.721	1258.507
-43.071	32.240	1482.745	1257.574
-42.057	32.130	1480.704	1255.057
-41.042	32.407	1478.944	1255.362
-40.027	31.903	1478.532	1251.597
-39.013	31.973	1477.995	1251.563
-37.998	32.040	1475.835	1250.126
-36.984	31.845	1475.149	1248.200
-35.969	31.767	1473.737	1246.441
-34.954	32.070	1471.125	1246.194
-33.940	31.972	1470.182	1244.694
-32.925	31.945	1468.769	1243.268
-31.911	32.019	1468.578	1243.547
-30.896	32.109	1466.900	1242.670
-29.881	32.164	1465.588	1241.878
-28.867	32.052	1464.354	1240.040
-27.852	32.052	1463.073	1238.903
-26.838	31.897	1461.430	1236.447
-25.823	32.121	1459.538	1236.271
-24.809	32.367	1456.983	1235.675
-23.794	32.043	1456.511	1233.096
-22.779	32.020	1455.569	1232.095
-21.765	32.111	1453.936	1231.266
-20.750	32.016	1453.400	1230.136
-19.736	31.966	1451.770	1228.379
-18.721	31.778	1451.768	1227.101
-17.706	31.884	1451.386	1227.423
-16.692	31.977	1448.980	1225.948
-15.677	32.090	1447.620	1225.488
-14.663	32.158	1446.915	1225.280
-13.648	31.857	1446.976	1223.324
-12.633	31.943	1444.791	1221.985
-11.619	32.195	1443.846	1222.776
-10.604	31.902	1443.437	1220.478
-9.590	31.815	1443.716	1220.099
-8.575	32.133	1441.969	1220.640
-7.560	32.048	1441.004	1219.223
-6.546	31.875	1440.391	1217.533
-5.531	32.044	1439.092	1217.482
-4.517	32.152	1437.565	1216.844
-3.502	31.921	1437.303	1215.074
-2.487	32.084	1435.677	1214.706
-1.473	32.071	1434.922	1213.937
-0.458	31.908	1433.906	1211.976
0.556	33.085	1424.532	1199.533
1.571	30.087	1399.016	1159.223
2.586	26.670	1340.650	1090.235
3.600	24.804	1260.282	1014.222
4.615	23.559	1214.963	970.858
5.629	20.294	1158.930	908.930
6.644	11.430	1074.857	799.669
7.659	4.611	1034.803	737.541
8.673	3.816	1028.336	729.119
9.688	3.390	1025.851	725.287
10.702	3.177	1023.830	722.794
11.717	3.340	1021.562	721.893
12.731	6.493	1025.478	739.410
13.746	15.483	1037.187	790.281
14.761	22.649	1046.768	831.423
15.775	24.224	1048.777	840.383
16.790	24.086	1047.773	838.854
17.804	23.364	1046.289	834.190
18.819	23.477	1045.270	833.837
19.834	23.323	1043.656	831.753
20.848	23.340	1042.836	831.107
21.863	23.763	1042.966	833.119
22.877	23.496	1043.001	831.822
23.892	23.394	1041.800	830.311
24.907	23.170	1040.985	828.540
25.921	23.243	1040.249	828.224
26.936	22.961	1039.990	826.623
27.950	23.056	1038.905	826.131
28.965	22.863	1038.143	824.555
29.980	23.172	1035.815	824.069
30.994	23.127	1035.337	823.407
32.009	23.320	1034.822	823.822
33.023	23.252	1033.652	822.503
34.038	23.135	1033.257	821.571
35.053	23.233	1032.121	821.051
36.067	23.263	1030.529	819.853
37.082	23.160	1030.344	819.153
38.096	23.040	1029.134	817.566
39.111	22.953	1028.853	816.870
40.126	23.162	1028.616	817.574
41.140	23.255	1026.585	816.314
42.155	22.873	1025.437	813.570
43.169	22.788	1024.640	812.475
44.184	22.655	1023.294	810.722
45.199	22.377	1021.799	808.194
46.213	22.711	1021.318	809.270
47.228	22.283	1022.253	807.976
48.242	23.216	1020.354	810.680
49.257	23.268	1020.309	810.808
50.271	23.306	1018.722	809.652
51.286	23.434	1018.578	810.047
52.301	23.330	1018.313	809.293
53.315	23.332	1016.876	808.086
54.330	23.494	1015.590	807.730
55.344	23.244	1014.890	805.966
56.359	22.955	1014.840	804.539
57.374	22.937	1013.543	803.358
58.388	23.067	1013.285	803.673
59.403	22.599	1012.687	801.002
60.417	22.573	1011.362	799.764
61.432	22.657	1010.185	799.143
62.447	22.826	1009.017	798.914
63.461	22.404	1010.093	797.784
64.476	22.355	1009.083	796.694
65.490	22.452	1007.704	795.973
66.505	22.600	1006.716	795.788
67.520	22.368	1006.163	794.233
68.534	22.551	1005.743	794.660
69.549	22.501	1004.198	793.143
70.563	22.482	1002.888	791.953
71.578	22.707	1003.007	792.986
72.593	22.212	1001.142	789.223
73.607	21.792	1000.236	786.555
74.622	21.720	999.355	785.468
75.636	21.915	998.539	785.633
76.651	22.003	998.215	785.701
77.666	21.709	998.087	784.215
78.680	22.270	996.609	785.488
79.695	22.295	995.881	784.957
80.709	21.875	995.641	782.827
81.724	22.295	994.580	783.793
82.739	22.485	993.112	783.412
83.753	22.467	992.788	783.008
84.768	22.987	992.779	785.241
85.782	23.582	992.489	787.585
86.797	24.095	991.629	789.109
87.812	23.957	990.461	787.496
88.826	23.529	990.293	785.401
89.841	23.343	990.323	784.531
90.855	23.499	988.698	783.864
91.870	23.566	988.799	784.169
92.884	23.798	987.308	783.944
93.899	23.598	987.196	782.903
94.914	23.294	985.643	780.260
95.928	23.538	984.915	780.689
96.943	23.588	983.615	779.809
97.957	23.075	983.223	777.177
98.972	23.334	981.651	777.000
99.987	23.111	982.006	776.233
101.001	23.565	980.192	776.723
102.016	23.295	980.056	775.362
103.030	23.382	978.663	774.573
104.045	23.184	978.656	773.630
105.060	23.478	976.569	773.198
106.074	23.239	977.148	772.543
107.089	23.351	974.441	770.824
108.103	22.960	974.275	768.921
109.118	22.946	974.155	768.699
110.133	22.647	972.728	766.206
111.147	22.463	971.147	764.094
112.162	22.231	969.763	761.934
113.176	22.037	970.426	761.542
114.191	22.234	969.377	761.505
115.206	22.651	967.750	761.962
116.220	22.500	968.028	761.463
117.235	22.254	966.766	759.339
118.249	22.238	966.064	758.654
119.264	22.366	964.749	758.105
120.279	22.116	962.938	755.539
121.293	21.928	961.812	753.783
122.308	22.043	962.100	754.436
123.322	21.924	961.380	753.295
124.337	21.830	960.302	751.978
125.352	21.574	959.284	750.019
126.366	21.373	958.860	748.759
127.381	21.889	956.430	749.000
128.395	21.784	956.204	748.306
129.410	22.072	955.645	749.032
130.424	22.451	954.836	749.946
131.439	22.441	954.044	749.214
132.454	22.500	953.337	748.845
133.468	22.693	952.373	748.841
134.483	22.639	951.873	748.153
135.497	22.587	951.560	747.619
136.512	22.710	950.581	747.307
137.527	22.878	949.673	747.234
138.541	22.870	948.437	746.162
139.556	22.746	948.275	745.446
140.570	22.696	948.564	745.395
141.585	23.078	947.760	746.309
142.600	23.229	947.046	746.318
143.614	23.110	946.690	745.471
144.629	23.105	946.454	745.200
145.643	23.496	945.205	745.795
146.658	23.638	944.399	745.690
147.673	23.263	943.548	743.377
148.687	23.162	941.691	741.426
149.702	23.196	939.837	740.041
150.716	22.953	938.305	737.757
151.731	22.683	938.026	736.344
152.746	22.756	938.187	736.712
153.760	23.026	936.995	736.835
154.775	22.746	937.095	735.680
155.789	22.984	935.680	735.494
156.804	23.319	934.461	735.864
157.819	23.384	934.032	735.729
158.833	23.253	932.909	734.236
159.848	23.430	932.458	734.552
160.862	23.579	932.578	735.197
161.877	23.609	931.744	734.600
162.892	23.491	929.735	732.462
163.906	22.934	929.056	729.565
164.921	22.705	927.578	727.397
165.935	22.226	928.831	726.337
166.950	22.641	926.041	725.799
167.964	22.566	926.041	725.426
168.979	23.095	923.850	725.817
169.994	22.756	923.892	724.391
171.008	22.673	923.250	723.487
172.023	22.867	921.739	723.032
173.037	23.148	922.308	724.564
174.052	23.479	921.150	724.946
175.067	23.444	920.486	724.217
176.081	23.254	919.107	722.292
177.096	22.821	917.405	719.126
178.110	22.218	917.215	716.458
179.125	22.545	915.678	716.522
180.140	22.255	915.907	715.458
181.154	22.336	915.262	715.223
182.169	22.362	915.060	715.107
183.183	23.330	913.685	717.894
184.198	23.298	914.191	718.097
185.213	23.084	912.688	715.985
186.227	23.040	912.748	715.793
187.242	23.317	911.479	715.854
188.256	23.391	910.905	715.637
189.271	23.590	910.384	715.967
190.286	23.171	911.615	715.179
191.300	23.357	908.665	713.552
192.315	22.387	908.539	709.482
193.329	22.202	907.077	707.535
194.344	21.972	907.223	706.660
195.359	22.450	906.046	707.602
196.373	22.566	906.383	708.268
197.388	22.735	905.966	708.556
198.402	23.321	905.238	710.276
199.417	23.705	904.567	711.223
200.432	23.639	904.709	711.009
201.446	23.737	904.643	711.286
202.461	23.774	904.306	711.107
203.475	23.728	904.069	710.673
204.490	23.586	903.335	709.467
205.504	23.215	901.475	706.461
206.519	23.121	900.822	705.514
207.534	23.117	900.162	704.916
208.548	22.971	899.257	703.565
209.563	23.123	898.892	703.822
210.577	23.224	897.357	702.962
211.592	23.031	896.971	701.830
212.607	23.561	897.391	704.201
213.621	23.999	897.069	705.620
214.636	23.289	896.609	702.383
215.650	23.431	895.746	702.206
216.665	23.593	895.453	702.558
217.680	23.796	893.733	701.947
218.694	23.656	894.576	701.994
219.709	23.566	894.002	701.127
220.723	23.495	893.278	700.214
221.738	23.372	892.089	698.737
222.753	23.344	891.436	698.053
223.767	22.926	890.609	695.698
224.782	23.277	890.012	696.549
225.796	23.270	890.227	696.630
226.811	23.689	889.018	697.267
227.826	23.542	887.648	695.555
228.840	23.070	887.804	693.765
229.855	22.799	887.549	692.442
230.869	23.347	885.503	692.926
231.884	23.164	884.946	691.714
232.899	23.218	884.093	691.200
233.913	22.933	883.444	689.515
234.928	23.160	883.181	690.135
235.942	22.857	883.042	688.784
236.957	22.674	880.645	686.143
237.972	22.435	880.307	684.888
238.986	22.563	880.408	685.407
240.001	22.481	880.279	684.926
241.015	22.521	880.054	684.846
242.030	22.941	878.062	684.864
243.045	22.717	877.995	683.880
244.059	22.873	877.976	684.410
245.074	23.084	876.848	684.288
246.088	23.354	875.876	684.513
247.103	23.214	876.080	684.070
248.117	23.525	875.105	684.448
249.132	23.566	875.540	684.883
250.147	24.142	875.473	686.995
251.161	24.448	874.245	687.151
252.176	24.639	874.593	688.097
253.190	24.552	874.226	687.411
254.205	24.610	874.008	687.404
255.220	24.593	873.298	686.721
256.234	24.685	872.788	686.609
257.249	24.661	871.083	685.115
258.263	24.284	871.563	683.989
259.278	24.040	870.798	682.390
260.293	24.456	869.427	682.849
261.307	24.135	869.540	681.650
262.322	24.581	869.061	682.918
263.336	24.322	869.431	682.157
264.351	24.419	867.184	680.706
265.366	24.113	866.692	679.093
266.380	24.188	865.443	678.338
267.395	24.194	866.442	679.084
268.409	24.222	865.974	678.764
269.424	23.942	864.842	676.751
270.439	23.959	863.915	676.029
271.453	24.442	863.104	677.170
272.468	24.142	862.670	675.633
273.482	24.063	861.598	674.432
274.497	24.140	861.460	674.556
275.512	24.097	860.413	673.515
276.526	24.209	859.627	673.262
277.541	23.995	859.059	671.951
278.555	24.374	858.631	672.985
279.570	24.377	858.864	673.122
280.585	24.476	858.696	673.302
281.599	24.102	858.801	671.914
282.614	24.398	856.685	671.315
283.628	24.044	855.686	669.141
284.643	23.971	855.373	668.562
285.657	24.051	854.980	668.497
286.672	24.477	853.611	668.962
287.687	24.276	853.680	668.205
288.701	24.157	853.324	667.422
289.716	24.407	853.228	668.222
290.730	24.339	852.391	667.256
291.745	24.074	852.321	666.150
292.760	24.306	850.497	665.530
293.774	24.431	850.335	665.812
294.789	24.698	849.901	666.408
295.803	24.886	849.698	666.890
296.818	24.499	848.777	664.668
297.833	24.232	848.488	663.389
298.847	24.194	847.744	662.606
299.862	24.328	846.353	661.960
300.876	24.280	846.819	662.085
301.891	24.270	846.308	661.593
302.906	24.828	845.417	662.904
303.920	24.934	845.267	663.119
304.935	25.222	844.836	663.791
305.949	25.203	843.972	662.981
306.964	24.954	843.701	661.790
307.979	24.422	843.111	659.305
308.993	24.734	841.925	659.470
310.008	24.865	841.327	659.424
311.022	25.053	840.855	659.687
312.037	25.065	839.849	658.887
313.052	24.739	839.846	657.625
314.066	24.464	839.003	655.899
315.081	23.690	838.777	652.820
316.095	23.831	837.808	652.525
317.110	23.807	837.820	652.387
318.125	24.080	836.497	652.299
319.139	23.854	836.067	651.079
320.154	23.366	835.541	648.826
321.168	23.942	833.667	649.417
322.183	23.944	834.215	649.793
323.197	23.957	834.616	650.096
324.212	23.951	834.542	649.959
325.227	24.146	832.080	648.693
326.241	24.125	831.971	648.476
327.256	23.852	832.222	647.619
328.270	24.023	830.486	646.832
329.285	23.988	830.433	646.606
330.300	23.744	829.972	645.303
331.314	23.629	829.712	644.627
332.329	23.550	828.809	643.582
333.343	23.779	828.168	643.858
334.358	23.852	829.285	644.935
335.373	24.246	828.526	645.716
336.387	24.621	826.390	645.347
337.402	24.362	827.243	645.018
338.416	24.137	826.428	643.515
339.431	24.597	826.455	645.139
340.446	24.869	825.550	645.359
341.460	25.097	825.705	646.245
342.475	25.210	825.054	646.082
343.489	25.233	824.447	645.632
344.504	25.225	823.560	644.854
345.519	25.305	823.534	645.065
346.533	25.352	823.377	645.051
347.548	25.317	822.848	644.455
348.562	24.931	821.967	642.322
349.577	24.705	822.121	641.577
350.592	24.845	820.670	640.887
351.606	24.447	820.302	639.118
352.621	24.344	819.107	637.766
353.635	24.261	819.625	637.813
354.650	24.515	818.293	637.629
355.665	24.399	817.979	636.912
356.679	24.341	817.608	636.360
357.694	24.725	816.637	636.915
358.708	24.661	816.170	636.268
359.723	24.840	815.567	636.380
360.738	24.559	814.769	634.702
361.752	24.746	814.553	635.141
362.767	24.660	814.441	634.693
363.781	24.915	814.089	635.268
364.796	25.189	814.244	636.302
365.810	25.505	813.608	636.870
366.825	25.395	814.007	636.736
367.840	25.627	812.621	636.417
368.854	25.642	812.795	636.550
369.869	25.175	812.233	634.401
370.883	24.969	810.964	632.626
371.898	25.230	809.910	632.667
372.913	25.434	809.934	633.351
373.927	25.487	809.378	633.046
374.942	25.227	809.107	631.865
375.956	25.227	808.373	631.233
376.971	25.369	807.856	631.273
377.986	25.705	806.366	631.231
379.000	25.593	806.508	630.894
380.015	26.055	806.498	632.452
381.029	25.344	805.561	629.171
382.044	25.217	805.537	628.649
383.059	25.487	804.826	628.984
384.073	25.598	804.768	629.273
385.088	25.093	803.662	626.588
386.102	25.034	803.205	625.969
387.117	25.019	801.462	624.502
388.132	24.703	801.606	623.458
389.146	24.680	801.282	623.071
390.161	24.974	799.324	622.514
391.175	24.966	800.238	623.144
392.190	25.505	799.923	624.717
393.205	25.071	799.999	623.212
394.219	24.925	799.009	621.879
395.234	24.784	797.330	620.028
396.248	24.182	797.106	617.711
397.263	24.250	797.205	617.971
398.278	24.442	797.463	618.783
399.292	24.463	796.082	617.727
400.307	24.412	795.763	617.249
401.321	24.157	795.139	615.832
402.336	24.634	793.809	616.392
403.350	24.619	794.032	616.456
404.365	24.901	794.484	617.727
405.380	25.482	794.374	619.589
406.394	25.850	794.242	620.701
407.409	25.679	793.818	619.728
408.423	26.085	792.762	620.242
409.438	26.127	792.402	620.049
410.453	26.035	791.947	619.325
411.467	25.965	791.431	618.626
412.482	25.884	791.288	618.181
413.496	25.605	790.755	616.753
414.511	25.596	791.450	617.210
415.526	26.122	790.731	618.397
416.540	25.848	790.140	616.944
417.555	25.360	789.932	615.055
418.569	25.573	789.467	615.365
419.584	25.733	788.308	614.956
420.599	26.035	787.130	615.012
421.613	161.761	1369.539	1795.415
422.628	140.030	1454.403	1795.459
