DTS Sentinel unit serial number:	SN413079Multiplexer serial number:	ORYXHardware model number:	OX4-SRSoftware version number:	ORYX F/W v4.00 Oryx Data Collector v3.7.2.0data status	okinstallation	princeton_trtdifferential loss correction	single-endedforward channel	channel 3reverse channel	N/Adate	2019/09/16time	00:04:34forward acquisition time	60.00reverse acquisition time	0.00gamma	496.2192k internal	0.2336k external	0.2336temperature offset calibration	0.9950default loss term (dB/km)	0.3790temperature slope calibration	1.0000multiplexer offset coefficient	1.0000multiplexer slope coefficient	1.0000fibre end	0.00T internal ref (°C)	27.81T ext. ref 1 (°C)	9.40T ext. ref 2 (°C)	21.77length (m)	temperature (°C)	Stokes	anti-Stokes-747.200	568.758	-0.175	0.427
-746.185	-200.000	-0.003	0.488
-745.171	-200.000	0.027	0.486
-744.156	800.000	-0.030	-0.083
-743.142	-43.070	0.207	-0.105
-742.127	131.840	0.027	0.035
-741.112	-124.497	0.071	0.011
-740.098	-200.000	-0.048	0.319
-739.083	-200.000	-0.032	0.158
-738.069	-40.531	-0.340	-0.177
-737.054	61.049	-0.208	0.207
-736.039	-200.000	0.005	-0.119
-735.025	354.198	0.226	0.451
-734.010	273.099	-0.062	-0.110
-732.996	16.339	-0.212	-0.168
-731.981	-33.271	-0.129	0.071
-730.966	-200.000	-0.065	0.402
-729.952	-117.379	0.214	-0.039
-728.937	139.311	0.059	-0.078
-727.923	67.098	0.052	-0.053
-726.908	-200.000	0.023	-0.333
-725.894	707.046	0.058	0.154
-724.879	-47.869	0.219	-0.106
-723.864	304.928	0.175	-0.326
-722.850	31.545	-0.200	-0.173
-721.835	8.907	-0.247	-0.187
-720.821	389.149	-0.155	0.322
-719.806	-200.000	-0.041	-0.503
-718.791	800.000	-0.098	-0.381
-717.777	800.000	-0.033	0.136
-716.762	-200.000	-0.033	-0.302
-715.748	24.644	0.271	-0.225
-714.733	-39.186	-0.401	-0.211
-713.718	-61.132	-0.070	0.030
-712.704	-67.839	0.145	-0.057
-711.689	-18.647	0.314	-0.196
-710.675	12.339	-0.110	-0.085
-709.660	-75.220	-0.102	-0.036
-708.645	-98.714	0.100	-0.026
-707.631	15.528	0.158	0.125
-706.616	-133.304	-0.132	0.017
-705.602	-65.317	-0.004	0.002
-704.587	573.765	0.104	0.255
-703.572	231.564	-0.083	-0.136
-702.558	214.632	-0.078	-0.124
-701.543	469.313	-0.150	-0.338
-700.529	0.479	-0.090	0.065
-699.514	385.861	0.016	-0.034
-698.499	800.000	0.027	0.115
-697.485	37.072	-0.319	0.283
-696.470	154.479	0.076	-0.104
-695.456	369.242	-0.097	-0.197
-694.441	106.385	0.282	0.335
-693.426	-200.000	0.047	0.324
-692.412	86.711	-0.225	-0.249
-691.397	30.033	0.254	-0.217
-690.383	-200.000	-0.052	-0.361
-689.368	342.734	-0.044	0.087
-688.354	-194.176	-0.375	0.003
-687.339	-158.877	-0.207	-0.012
-686.324	-155.668	-0.290	0.019
-685.310	-200.000	0.020	-0.119
-684.295	-33.940	0.185	-0.102
-683.281	-124.649	-0.145	-0.022
-682.266	800.000	0.009	0.036
-681.251	-200.000	0.183	-0.000
-680.237	-16.921	-0.079	0.050
-679.222	-30.257	0.176	0.100
-678.208	-145.585	-0.158	0.014
-677.193	268.664	-0.052	-0.091
-676.178	390.998	-0.024	-0.051
-675.164	-75.788	-0.280	-0.099
-674.149	-200.000	-0.016	0.146
-673.135	-0.730	-0.426	-0.302
-672.120	-111.522	0.140	0.029
-671.105	271.925	-0.052	0.092
-670.091	-93.561	-0.072	0.020
-669.076	682.594	-0.064	0.168
-668.062	200.525	-0.214	-0.329
-667.047	-200.000	0.004	0.047
-666.032	161.482	-0.128	0.179
-665.018	-200.000	-0.012	0.053
-664.003	-58.021	0.080	-0.035
-662.989	288.204	0.025	0.045
-661.974	-48.993	-0.251	-0.120
-660.959	800.000	-0.122	-0.450
-659.945	-103.491	-0.232	-0.055
-658.930	-31.059	0.024	-0.013
-657.916	-65.795	-0.168	-0.067
-656.901	-200.000	0.032	0.161
-655.886	134.630	-0.084	0.110
-654.872	303.676	0.091	-0.170
-653.857	-96.652	-0.215	-0.057
-652.843	-94.932	-0.231	-0.063
-651.828	-200.000	-0.037	0.212
-650.814	-4.905	-0.062	-0.043
-649.799	49.237	0.156	0.147
-648.784	95.969	-0.163	-0.186
-647.770	-38.406	-0.133	0.071
-646.755	268.313	-0.183	-0.321
-645.741	-53.049	-0.176	0.081
-644.726	-200.000	-0.049	0.626
-643.711	-137.551	0.280	-0.032
-642.697	800.000	-0.099	0.310
-641.682	-158.386	-0.303	0.018
-640.668	52.617	0.149	0.143
-639.653	189.222	0.180	-0.269
-638.638	800.000	-0.033	-0.142
-637.624	595.841	0.138	-0.342
-636.609	-22.754	-0.292	-0.176
-635.595	155.602	-0.127	-0.175
-634.580	408.030	-0.104	0.221
-633.565	-91.986	-0.068	0.019
-632.551	134.009	0.083	0.107
-631.536	-138.512	0.477	0.052
-630.522	-200.000	0.024	0.283
-629.507	-92.797	0.305	0.085
-628.492	-104.061	0.266	-0.062
-627.478	800.000	0.072	-0.217
-626.463	740.134	0.071	-0.190
-625.449	47.482	0.063	-0.059
-624.434	149.473	-0.119	0.161
-623.419	-85.104	-0.292	-0.091
-622.405	90.818	0.210	0.235
-621.390	289.355	-0.107	-0.195
-620.376	-69.446	0.158	0.060
-619.361	-67.157	0.211	0.083
-618.346	431.248	-0.094	-0.204
-617.332	-110.998	0.115	0.024
-616.317	-188.733	-0.103	0.001
-615.303	162.699	0.141	-0.198
-614.288	232.694	0.133	0.217
-613.273	-200.000	0.004	-0.141
-612.259	108.886	0.105	0.126
-611.244	-200.000	0.010	0.242
-610.230	135.346	-0.106	-0.137
-609.215	-0.981	0.236	0.166
-608.201	-91.891	-0.082	-0.023
-607.186	-80.309	-0.112	-0.037
-606.171	800.000	0.076	-0.312
-605.157	-26.294	-0.089	0.052
-604.142	107.203	0.140	-0.167
-603.128	75.235	-0.137	0.144
-602.113	360.975	0.119	-0.239
-601.098	-55.486	0.219	-0.098
-600.084	25.021	0.142	-0.117
-599.069	800.000	0.098	-0.412
-598.055	314.731	-0.187	-0.352
-597.040	800.000	-0.076	-0.229
-596.025	-8.737	0.237	0.159
-595.011	134.091	0.159	-0.205
-593.996	280.288	0.167	0.298
-592.982	96.616	-0.114	-0.130
-591.967	-101.913	-0.287	-0.069
-590.952	-200.000	-0.008	0.182
-589.938	-79.500	-0.404	-0.136
-588.923	-54.142	0.094	0.043
-587.909	382.486	-0.160	-0.328
-586.894	-157.344	0.159	0.010
-585.879	800.000	0.101	0.290
-584.865	-94.802	-0.211	-0.057
-583.850	-138.611	-0.180	-0.020
-582.836	35.827	0.118	0.104
-581.821	57.271	-0.232	-0.226
-580.806	273.816	-0.079	0.140
-579.792	-173.884	0.143	0.004
-578.777	-43.640	-0.118	-0.060
-577.763	-200.000	-0.014	0.089
-576.748	288.084	-0.062	-0.112
-575.733	483.820	-0.053	0.121
-574.719	2.232	0.329	-0.237
-573.704	-180.340	-0.132	-0.003
-572.690	-200.000	0.016	0.127
-571.675	-101.020	0.128	-0.031
-570.661	-200.000	0.009	-0.105
-569.646	-103.387	0.527	-0.124
-568.631	239.331	-0.176	0.292
-567.617	15.247	0.111	0.087
-566.602	-200.000	-0.007	0.317
-565.588	-102.051	-0.025	0.006
-564.573	-200.000	0.003	-0.209
-563.558	-33.594	-0.322	0.177
-562.544	-78.631	-0.234	-0.080
-561.529	81.902	-0.234	-0.253
-560.515	-116.224	0.171	-0.032
-559.500	-99.656	-0.165	-0.041
-558.485	-150.784	-0.224	-0.017
-557.471	800.000	-0.132	-0.378
-556.456	800.000	-0.072	-0.287
-555.442	-200.000	-0.005	-0.063
-554.427	-153.245	0.210	0.015
-553.412	160.392	0.098	0.136
-552.398	-115.976	0.100	-0.019
-551.383	-123.210	-0.161	0.026
-550.369	-200.000	0.036	0.255
-549.354	-161.898	0.245	0.012
-548.339	-93.161	0.593	-0.164
-547.325	107.763	0.092	0.109
-546.310	120.487	0.071	0.088
-545.296	-119.691	0.336	-0.058
-544.281	-124.986	-0.425	-0.065
-543.266	-200.000	-0.027	0.207
-542.252	-200.000	0.061	-0.439
-541.237	127.768	0.283	-0.359
-540.223	138.782	0.212	0.278
-539.208	800.000	-0.015	0.056
-538.193	-95.068	0.156	-0.042
-537.179	594.119	0.071	0.174
-536.164	-100.468	-0.349	-0.086
-535.150	800.000	0.041	0.152
-534.135	-22.235	-0.027	0.016
-533.121	-173.169	-0.134	-0.004
-532.106	-98.759	-0.106	0.027
-531.091	-200.000	0.026	0.259
-530.077	-200.000	0.027	0.256
-529.062	-200.000	-0.000	-0.241
-528.048	-30.809	-0.165	0.093
-527.033	-200.000	-0.014	-0.272
-526.018	89.047	0.243	0.269
-525.004	-200.000	0.033	-0.153
-523.989	29.177	-0.185	-0.156
-522.975	-150.859	-0.113	-0.009
-521.960	-200.000	-0.005	0.144
-520.945	-155.306	-0.327	-0.021
-519.931	-106.818	-0.080	0.018
-518.916	-138.368	0.217	-0.024
-517.902	-98.943	0.236	-0.060
-516.887	-200.000	-0.009	0.171
-515.872	-174.709	-0.335	0.009
-514.858	166.296	0.061	0.086
-513.843	125.133	0.123	-0.154
-512.829	-200.000	-0.045	0.288
-511.814	-200.000	-0.025	-0.127
-510.799	23.716	-0.414	-0.339
-509.785	800.000	-0.127	-0.362
-508.770	653.240	-0.057	-0.145
-507.756	735.429	-0.041	0.110
-506.741	-118.603	-0.376	0.066
-505.726	89.135	-0.054	0.059
-504.712	-66.395	-0.145	0.057
-503.697	35.591	0.297	-0.259
-502.683	780.091	-0.138	-0.376
-501.668	190.131	-0.092	-0.138
-500.653	-79.147	-0.448	-0.151
-499.639	-60.450	0.386	0.163
-498.624	7.000	-0.100	-0.074
-497.610	136.924	0.009	-0.012
-496.595	-147.528	0.144	0.012
-495.581	-91.455	-0.176	-0.050
-494.566	-200.000	0.056	-0.285
-493.551	114.135	-0.074	-0.089
-492.537	183.039	-0.159	0.233
-491.522	-71.606	-0.190	-0.070
-490.508	307.731	-0.034	0.063
-489.493	316.302	-0.116	-0.218
-488.478	800.000	-0.044	-0.163
-487.464	-147.052	0.298	-0.025
-486.449	-191.445	-0.067	0.001
-485.435	-56.405	-0.165	0.073
-484.420	-47.646	-0.334	-0.161
-483.405	427.745	0.162	0.348
-482.391	-34.840	0.389	0.211
-481.376	208.640	-0.120	0.186
-480.362	-128.719	0.032	-0.005
-479.347	-67.848	-0.206	-0.080
-478.332	3.952	0.234	0.170
-477.318	16.790	-0.213	-0.168
-476.303	800.000	-0.119	-0.501
-475.289	-122.547	-0.070	-0.011
-474.274	-14.028	0.117	-0.075
-473.259	-88.690	0.383	0.113
-472.245	-154.715	0.069	-0.005
-471.230	-178.256	-0.151	0.004
-470.216	2.506	0.178	0.128
-469.201	24.119	0.159	-0.130
-468.186	-123.221	0.265	-0.042
-467.172	16.079	0.070	0.055
-466.157	800.000	-0.053	-0.185
-465.143	-200.000	-0.312	0.001
-464.128	-200.000	0.006	0.040
-463.113	-172.185	0.238	-0.008
-462.099	-27.340	0.341	-0.197
-461.084	-200.000	0.007	0.302
-460.070	-128.597	-0.127	-0.018
-459.055	-57.762	-0.220	-0.096
-458.040	800.000	0.035	0.133
-457.026	88.704	0.112	0.123
-456.011	-125.074	-0.342	0.052
-454.997	-200.000	0.015	0.075
-453.982	-188.072	0.250	-0.003
-452.968	-9.274	0.149	-0.099
-451.953	194.261	-0.123	0.185
-450.938	124.629	-0.063	-0.079
-449.924	-32.881	0.236	-0.130
-448.909	800.000	-0.025	-0.085
-447.895	800.000	-0.075	0.218
-446.880	-200.000	-0.033	0.218
-445.865	25.343	-0.424	-0.350
-444.851	-33.217	-0.070	-0.038
-443.836	-144.915	-0.154	0.014
-442.822	-200.000	-0.035	0.179
-441.807	133.731	0.126	-0.162
-440.792	211.911	0.220	0.344
-439.778	-59.801	-0.272	0.116
-438.763	221.089	-0.096	-0.153
-437.749	-200.000	0.001	-0.108
-436.734	-36.429	-0.101	0.054
-435.719	-16.179	-0.156	-0.098
-434.705	-154.538	-0.196	0.013
-433.690	-67.316	0.292	-0.114
-432.676	-77.687	-0.290	-0.100
-431.661	67.911	-0.215	-0.218
-430.646	800.000	0.044	0.121
-429.632	-30.253	0.153	-0.086
-428.617	77.336	0.098	0.104
-427.603	-73.000	-0.354	-0.129
-426.588	-36.893	-0.097	0.052
-425.573	-93.532	-0.060	-0.017
-424.559	-40.856	-0.202	-0.104
-423.544	-126.477	-0.124	-0.018
-422.530	-159.467	-0.235	0.013
-421.515	-124.756	0.335	-0.051
-420.500	-195.770	0.181	0.001
-419.486	-157.423	-0.093	0.006
-418.471	-105.225	-0.071	-0.016
-417.457	-200.000	-0.046	0.351
-416.442	-200.000	0.002	0.512
-415.428	455.480	0.133	0.292
-414.413	314.897	0.144	0.268
-413.398	-117.429	0.313	-0.056
-412.384	449.895	-0.128	0.281
-411.369	-106.494	0.174	0.038
-410.355	-59.463	-0.178	0.076
-409.340	12.889	0.084	-0.064
-408.325	220.560	0.120	0.191
-407.311	731.309	-0.148	-0.391
-406.296	-190.063	0.192	-0.002
-405.282	-52.521	-0.050	-0.023
-404.267	102.097	0.370	0.428
-403.252	-200.000	-0.028	-0.129
-402.238	27.038	0.209	-0.174
-401.223	-185.470	0.044	-0.001
-400.209	-54.147	0.131	0.059
-399.194	301.703	0.067	0.123
-398.179	-200.000	0.033	-0.268
-397.165	384.402	-0.104	-0.212
-396.150	-200.000	-0.059	-0.293
-395.136	-87.127	0.199	0.060
-394.121	605.308	0.081	-0.200
-393.106	196.651	-0.230	-0.347
-392.092	-200.000	0.007	0.360
-391.077	-32.124	0.054	-0.030
-390.063	-50.957	0.074	-0.034
-389.048	6.979	-0.036	-0.026
-388.033	182.355	-0.153	-0.224
-387.019	12.339	0.153	0.117
-386.004	-48.134	0.200	-0.096
-384.990	-200.000	-0.048	-0.334
-383.975	-25.886	0.150	0.087
-382.960	122.054	0.143	-0.177
-381.946	-77.402	-0.285	0.098
-380.931	432.449	-0.154	0.330
-379.917	99.422	0.043	-0.049
-378.902	800.000	0.067	0.183
-377.888	790.621	-0.104	-0.282
-376.873	164.123	-0.077	-0.108
-375.858	800.000	0.064	0.180
-374.844	-169.186	-0.281	-0.010
-373.829	89.822	0.027	-0.030
-372.815	-200.000	0.030	0.475
-371.800	162.143	0.168	0.233
-370.785	-39.099	-0.267	-0.139
-369.771	118.574	0.107	0.130
-368.756	133.522	0.259	-0.331
-367.742	-200.000	-0.081	0.379
-366.727	-118.016	-0.217	0.038
-365.712	800.000	0.027	0.092
-364.698	-149.161	0.119	0.009
-363.683	-135.271	-0.311	0.037
-362.669	-85.528	-0.116	0.036
-361.654	-200.000	-0.015	-0.179
-360.639	-200.000	-0.006	0.262
-359.625	-200.000	-0.022	-0.183
-358.610	86.021	-0.340	0.370
-357.596	-102.417	0.180	0.043
-356.581	198.456	-0.121	0.184
-355.566	-89.714	-0.056	0.016
-354.552	-8.154	0.140	-0.093
-353.537	-85.185	-0.229	0.071
-352.523	37.828	0.184	-0.162
-351.508	422.698	-0.118	0.251
-350.493	-136.656	-0.068	-0.008
-349.479	296.057	-0.089	-0.161
-348.464	-29.454	-0.182	-0.103
-347.450	-19.893	-0.024	0.015
-346.435	-200.000	0.002	0.077
-345.420	-200.000	-0.025	0.369
-344.406	4.346	0.046	0.033
-343.391	-200.000	-0.036	-0.161
-342.377	800.000	-0.072	-0.231
-341.362	8.500	0.112	-0.083
-340.348	-80.107	0.242	0.080
-339.333	-200.000	-0.016	-0.244
-338.318	-130.913	0.170	0.022
-337.304	800.000	0.022	-0.093
-336.289	0.231	-0.105	-0.074
-335.275	-200.000	-0.004	-0.160
-334.260	-139.603	0.305	0.032
-333.245	68.954	0.073	0.074
-332.231	-137.517	-0.180	0.020
-331.216	41.626	-0.291	-0.261
-330.202	433.003	0.060	-0.129
-329.187	-200.000	-0.015	0.113
-328.172	-200.000	0.042	-0.227
-327.158	-39.367	-0.386	-0.200
-326.143	-107.605	0.257	0.056
-325.129	800.000	0.042	-0.131
-324.114	-136.759	-0.261	0.030
-323.099	-39.134	-0.250	0.130
-322.085	215.969	0.009	0.014
-321.070	345.581	0.145	0.281
-320.056	46.281	-0.203	0.186
-319.041	316.614	-0.227	-0.424
-318.026	-144.688	0.051	0.005
-317.012	254.428	0.057	-0.097
-315.997	364.375	-0.072	0.143
-314.983	-15.258	0.045	0.028
-313.968	113.268	-0.273	0.327
-312.953	-200.000	-0.010	0.287
-311.939	146.531	0.058	-0.077
-310.924	-30.302	-0.305	-0.171
-309.910	-156.921	0.185	0.011
-308.895	-200.000	0.008	0.209
-307.880	7.495	-0.270	0.199
-306.866	-125.961	0.159	-0.024
-305.851	83.894	0.100	-0.107
-304.837	-200.000	0.002	0.241
-303.822	416.481	-0.029	-0.060
-302.807	-131.017	0.058	-0.008
-301.793	800.000	0.089	0.328
-300.778	93.924	-0.118	-0.132
-299.764	146.765	0.138	-0.183
-298.749	-22.596	-0.165	0.098
-297.735	81.392	0.060	-0.064
-296.720	161.404	0.139	0.192
-295.705	-112.635	-0.349	-0.069
-294.691	3.396	0.118	0.085
-293.676	-105.473	-0.262	0.059
-292.662	129.935	-0.337	0.426
-291.647	32.956	-0.172	0.147
-290.632	-200.000	-0.007	0.316
-289.618	-137.310	0.203	-0.023
-288.603	-71.793	-0.061	0.022
-287.589	439.969	0.069	0.149
-286.574	-192.824	-0.194	0.002
-285.559	-200.000	-0.021	0.250
-284.545	800.000	-0.026	-0.111
-283.530	306.204	0.085	0.156
-282.516	32.137	-0.235	-0.200
-281.501	-200.000	-0.003	-0.031
-280.486	800.000	-0.063	-0.262
-279.472	-121.020	0.211	0.035
-278.457	109.913	-0.099	-0.118
-277.443	-200.000	-0.005	0.229
-276.428	-200.000	-0.158	0.000
-275.413	-200.000	0.011	-0.252
-274.399	693.388	-0.070	0.180
-273.384	276.681	-0.095	0.166
-272.370	-99.826	0.236	0.058
-271.355	800.000	0.031	0.107
-270.340	-27.763	-0.031	-0.018
-269.326	-86.055	0.275	0.084
-268.311	228.774	-0.130	-0.209
-267.297	137.950	-0.066	0.085
-266.282	30.864	0.234	0.197
-265.267	-200.000	0.043	-0.208
-264.253	-31.389	0.361	-0.200
-263.238	282.095	0.259	0.457
-262.224	360.402	0.147	0.290
-261.209	-94.208	0.259	-0.070
-260.195	-50.836	0.058	-0.027
-259.180	-2.206	-0.057	-0.039
-258.165	-65.967	0.171	0.067
-257.151	-200.000	-0.009	0.303
-256.136	-126.053	-0.168	0.025
-255.122	-84.387	0.206	0.064
-254.107	-162.897	0.162	-0.008
-253.092	800.000	-0.069	0.196
-252.078	38.768	0.064	-0.056
-251.063	21.228	-0.206	0.165
-250.049	-200.000	0.009	0.085
-249.034	144.340	-0.105	-0.138
-248.019	38.603	0.112	-0.099
-247.005	193.022	0.149	0.221
-245.990	77.725	-0.142	0.149
-244.976	-30.835	0.181	0.101
-243.961	-20.663	-0.083	0.050
-242.946	-44.076	0.087	0.043
-241.932	-151.144	-0.317	0.023
-240.917	234.363	-0.020	-0.033
-239.903	-200.000	0.005	-0.280
-238.888	177.568	0.045	0.064
-237.873	-30.925	0.216	0.120
-236.859	193.994	-0.136	-0.203
-235.844	-200.000	0.000	-0.091
-234.830	89.142	0.186	0.204
-233.815	16.715	-0.127	-0.099
-232.800	208.474	0.194	-0.299
-231.786	-106.917	-0.456	0.099
-230.771	-200.000	-0.018	-0.083
-229.757	2.145	0.268	0.191
-228.742	565.658	-0.102	0.242
-227.727	27.202	0.181	0.149
-226.713	-137.985	0.282	0.031
-225.698	-172.113	-0.296	-0.009
-224.684	1.497	0.105	-0.074
-223.669	-106.046	-0.173	0.038
-222.655	9.816	-0.211	-0.157
-221.640	254.614	0.098	-0.164
-220.625	265.036	-0.196	0.336
-219.611	-200.000	-0.022	0.111
-218.596	238.574	-0.133	-0.218
-217.582	522.312	0.055	-0.128
-216.567	-104.751	0.167	0.038
-215.552	600.380	0.124	0.303
-214.538	-200.000	-0.008	-0.301
-213.523	122.348	-0.157	-0.192
-212.509	426.965	-0.046	-0.097
-211.494	19.623	0.057	0.045
-210.479	229.225	-0.118	-0.189
-209.465	800.000	0.079	-0.282
-208.450	370.392	0.071	0.142
-207.436	-55.387	0.164	0.072
-206.421	-65.459	0.393	0.155
-205.406	240.964	0.157	-0.258
-204.392	85.828	0.091	-0.099
-203.377	-200.000	0.013	-0.343
-202.363	-153.808	-0.113	0.008
-201.348	-105.597	0.125	0.028
-200.333	-124.364	-0.085	-0.013
-199.319	-62.404	-0.171	-0.070
-198.304	91.505	0.071	-0.078
-197.290	83.789	0.053	-0.057
-196.275	-183.154	0.252	0.004
-195.260	-200.000	-0.005	-0.122
-194.246	528.999	0.166	-0.385
-193.231	303.173	-0.071	-0.129
-192.217	154.749	-0.016	-0.022
-191.202	-99.020	-0.064	-0.016
-190.187	307.140	-0.043	0.079
-189.173	-91.822	-0.226	-0.063
-188.158	-190.745	0.405	0.004
-187.144	-101.695	-0.388	0.092
-186.129	54.329	0.036	-0.034
-185.114	5.147	-0.155	-0.112
-184.100	118.225	0.067	0.081
-183.085	-131.022	0.120	0.016
-182.071	-172.883	0.104	-0.003
-181.056	-54.509	0.130	0.058
-180.042	48.731	-0.306	0.282
-179.027	317.890	-0.060	0.112
-178.012	238.166	-0.112	0.183
-176.998	-200.000	0.005	-0.162
-175.983	392.495	-0.161	0.330
-174.969	10.227	0.130	-0.097
-173.954	800.000	-0.074	-0.211
-172.939	173.588	0.060	-0.085
-171.925	-47.651	0.178	-0.085
-170.910	-200.000	0.090	0.000
-169.896	119.223	-0.160	0.194
-168.881	4.258	0.287	0.206
-167.866	-81.882	0.345	0.111
-166.852	800.000	0.164	-0.489
-165.837	71.733	0.131	-0.134
-164.823	254.022	-0.021	0.035
-163.808	284.705	-0.058	0.102
-162.793	-92.289	0.105	0.029
-161.779	-91.199	0.164	-0.046
-160.764	-200.000	-0.036	0.212
-159.750	-57.371	0.078	-0.034
-158.735	45.624	0.222	0.201
-157.720	-200.000	-0.067	0.331
-156.706	-92.808	0.296	0.081
-155.691	-200.000	0.032	-0.198
-154.677	-123.571	-0.146	-0.023
-153.662	800.000	-0.054	-0.224
-152.647	-17.356	0.142	0.088
-151.633	-200.000	-0.010	0.123
-150.618	105.614	-0.100	-0.116
-149.604	89.562	0.033	-0.036
-148.589	211.012	0.170	0.263
-147.574	-200.000	-0.027	0.115
-146.560	176.790	0.068	0.097
-145.545	-160.735	-0.218	-0.011
-144.531	800.000	0.072	0.235
-143.516	-63.673	0.034	0.014
-142.502	221.474	-0.081	-0.127
-141.487	168.981	0.173	-0.242
-140.472	800.000	-0.026	0.104
-139.458	-200.000	-0.022	-0.153
-138.443	-24.153	-0.474	-0.278
-137.429	328.343	0.135	-0.254
-136.414	-126.578	0.143	-0.021
-135.399	-115.841	0.179	0.033
-134.385	-114.651	0.411	-0.077
-133.370	-73.749	0.172	0.061
-132.356	177.996	-0.049	-0.070
-131.341	-46.656	-0.104	-0.050
-130.326	670.410	0.140	-0.356
-129.312	97.530	-0.186	0.209
-128.297	-64.678	0.264	-0.105
-127.283	-200.000	0.029	0.219
-126.268	-200.000	-0.007	0.088
-125.253	197.377	-0.099	0.148
-124.239	152.526	-0.205	0.274
-123.224	-104.565	0.068	0.015
-122.210	-200.000	-0.002	-0.273
-121.195	-79.137	0.392	-0.130
-120.180	-82.849	-0.246	-0.078
-119.166	-200.000	-0.003	0.146
-118.151	-55.650	-0.235	-0.103
-117.137	165.864	-0.113	0.157
-116.122	252.590	-0.114	0.191
-115.107	119.305	-0.184	-0.224
-114.093	49.950	0.307	-0.284
-113.078	147.897	-0.181	0.239
-112.064	228.025	0.181	-0.288
-111.049	-10.361	0.117	-0.076
-110.034	-200.000	-0.006	-0.070
-109.020	287.786	0.102	-0.181
-108.005	-146.922	0.287	0.024
-106.991	-39.271	-0.175	-0.090
-105.976	-20.495	0.286	0.172
-104.962	77.493	0.218	-0.227
-103.947	353.790	0.045	0.088
-102.932	164.418	0.083	-0.115
-101.918	196.526	0.199	-0.297
-100.903	-130.510	-0.408	-0.054
-99.889	0.371	0.395	0.276
-98.874	228.949	0.079	0.125
-97.859	238.606	0.180	0.293
-96.845	-200.000	-0.030	0.131
-95.830	-155.490	0.095	-0.006
-94.816	164.205	0.186	0.256
-93.801	50.673	-0.312	-0.289
-92.786	-49.231	-0.240	0.112
-91.772	-12.467	0.311	0.199
-90.757	30.717	0.165	0.139
-89.743	-92.678	-0.391	0.107
-88.728	16.867	0.313	-0.242
-87.713	-43.636	0.306	-0.151
-86.699	-91.459	0.434	0.121
-85.684	81.253	-0.021	0.022
-84.670	24.683	0.428	0.347
-83.655	-104.924	-0.419	0.094
-82.640	716.787	-0.203	0.527
-81.626	-17.068	-0.325	-0.201
-80.611	96.314	-0.117	0.131
-79.597	318.740	0.191	-0.354
-78.582	-200.000	0.003	0.025
-77.567	172.106	-0.187	0.262
-76.553	800.000	-0.097	0.340
-75.538	590.080	0.072	0.174
-74.524	145.808	-0.115	-0.151
-73.509	800.000	0.066	0.262
-72.494	66.877	0.072	-0.072
-71.480	163.678	0.247	-0.340
-70.465	-9.987	0.239	-0.155
-69.451	159.192	-0.083	0.113
-68.436	30.516	-0.067	-0.056
-67.422	232.890	0.165	-0.265
-66.407	-198.385	-0.277	0.002
-65.392	-159.047	0.232	0.013
-64.378	-88.935	0.223	-0.065
-63.363	-200.000	-0.006	0.086
-62.349	-147.545	0.350	0.029
-61.334	10.536	-1.230	-0.917
-60.319	-39.471	0.735	0.377
-59.305	-200.000	-0.169	-1.067
-58.290	633.631	0.589	1.459
-57.276	800.000	0.550	1.572
-56.261	-200.000	112.142	647.525
-55.246	491.322	1485.646	3324.522
-54.232	151.784	2646.703	3525.754
-53.217	104.768	2159.819	2488.018
-52.203	38.152	1694.280	1473.592
-51.188	30.822	1514.086	1267.159
-50.173	28.666	1489.473	1232.064
-49.159	52.986	1546.562	1446.089
-48.144	51.767	1562.524	1452.643
-47.130	31.139	1519.918	1274.005
-46.115	28.132	1504.413	1240.599
-45.100	27.830	1501.485	1236.090
-44.086	27.796	1499.449	1234.136
-43.071	27.735	1497.564	1232.126
-42.057	27.769	1495.935	1230.967
-41.042	27.705	1494.412	1229.236
-40.027	27.788	1492.795	1228.409
-39.013	27.842	1491.479	1227.644
-37.998	27.715	1490.470	1225.908
-36.984	27.723	1489.349	1224.993
-35.969	27.786	1487.871	1224.151
-34.954	27.753	1486.592	1222.829
-33.940	27.816	1484.923	1221.830
-32.925	27.888	1483.086	1220.754
-31.911	27.789	1482.362	1219.447
-30.896	27.804	1480.766	1218.183
-29.881	27.869	1479.846	1217.816
-28.867	27.890	1478.372	1216.692
-27.852	27.863	1477.088	1215.409
-26.838	27.891	1475.285	1214.064
-25.823	27.881	1473.879	1212.793
-24.809	27.871	1472.743	1211.744
-23.794	27.837	1471.447	1210.398
-22.779	27.866	1470.206	1209.527
-21.765	27.752	1469.543	1208.177
-20.750	27.931	1467.761	1207.849
-19.736	27.864	1466.743	1206.516
-18.721	27.784	1465.842	1205.198
-17.706	27.805	1464.758	1204.403
-16.692	27.813	1463.839	1203.649
-15.677	27.851	1462.551	1202.793
-14.663	27.796	1461.858	1201.814
-13.648	27.866	1460.589	1201.182
-12.633	27.838	1459.863	1200.352
-11.619	27.759	1459.453	1199.451
-10.604	27.728	1458.882	1198.727
-9.590	27.795	1457.447	1197.940
-8.575	27.753	1456.287	1196.666
-7.560	27.898	1455.174	1196.656
-6.546	27.724	1454.524	1194.932
-5.531	27.808	1453.748	1194.797
-4.517	27.766	1452.802	1193.695
-3.502	27.773	1452.045	1193.071
-2.487	27.760	1450.863	1191.968
-1.473	27.761	1449.966	1191.195
-0.458	27.726	1448.229	1189.491
0.556	26.132	1438.576	1178.854
1.571	23.017	1413.650	1138.298
2.586	19.520	1352.424	1067.322
3.600	17.852	1269.436	992.047
4.615	16.808	1223.574	950.273
5.629	15.870	1171.438	904.666
6.644	12.733	1095.511	830.163
7.659	9.942	1061.123	790.390
8.673	9.477	1056.355	784.507
9.688	9.393	1053.029	781.557
10.702	9.385	1051.298	780.165
11.717	9.335	1049.749	778.705
12.731	10.574	1049.178	784.205
13.746	13.903	1053.452	803.464
14.761	16.897	1056.920	820.549
15.775	17.728	1057.219	824.727
16.790	16.989	1055.078	819.414
17.804	15.850	1053.442	812.578
18.819	14.997	1051.402	806.819
19.834	14.556	1049.834	803.421
20.848	14.167	1048.625	800.557
21.863	13.949	1047.889	798.872
22.877	13.679	1047.484	797.197
23.892	13.547	1046.334	795.618
24.907	13.357	1045.633	794.100
25.921	13.440	1045.150	794.064
26.936	13.431	1044.108	793.156
27.950	13.465	1043.191	792.554
28.965	13.550	1042.161	792.106
29.980	13.681	1040.893	791.697
30.994	13.632	1039.943	790.671
32.009	13.764	1038.931	790.462
33.023	13.795	1038.152	789.946
34.038	13.724	1037.529	789.065
35.053	13.790	1036.571	788.581
36.067	13.634	1035.850	787.220
37.082	13.605	1034.571	786.041
38.096	13.584	1034.027	785.458
39.111	13.798	1032.952	785.589
40.126	13.674	1032.413	784.522
41.140	13.551	1031.269	783.001
42.155	13.524	1029.884	781.751
43.169	13.524	1028.740	780.818
44.184	13.512	1027.873	780.030
45.199	13.517	1026.728	779.118
46.213	13.545	1025.511	778.258
47.228	13.482	1024.611	777.210
48.242	13.525	1023.678	776.635
49.257	13.505	1023.152	776.074
50.271	13.593	1021.481	775.149
51.286	13.494	1021.331	774.504
52.301	13.714	1020.321	774.696
53.315	13.618	1019.737	773.735
54.330	13.522	1018.799	772.510
55.344	13.404	1017.946	771.245
56.359	13.536	1016.800	770.922
57.374	13.598	1015.904	770.463
58.388	13.521	1015.147	769.461
59.403	13.442	1014.597	768.611
60.417	13.529	1013.397	768.037
61.432	13.489	1013.415	767.797
62.447	13.378	1012.267	766.343
63.461	13.445	1011.284	765.845
64.476	13.377	1009.988	764.481
65.490	13.267	1009.525	763.553
66.505	13.359	1008.631	763.234
67.520	13.403	1007.575	762.572
68.534	13.472	1007.210	762.543
69.549	13.560	1006.045	761.999
70.563	13.329	1005.985	760.825
71.578	13.447	1004.685	760.318
72.593	13.300	1004.435	759.382
73.607	13.438	1002.802	758.713
74.622	13.271	1002.260	757.470
75.636	13.357	1001.281	757.058
76.651	13.367	1000.201	756.221
77.666	13.396	999.709	755.915
78.680	13.417	998.992	755.404
79.695	13.367	998.650	754.848
80.709	13.446	998.085	754.714
81.724	13.531	996.887	754.128
82.739	13.476	996.236	753.320
83.753	13.342	996.063	752.513
84.768	13.543	995.006	752.561
85.782	13.704	994.342	752.723
86.797	13.671	993.878	752.156
87.812	13.806	992.553	751.696
88.826	13.537	992.220	750.159
89.841	13.546	991.261	749.411
90.855	13.625	990.398	749.047
91.870	13.692	989.218	748.391
92.884	13.781	988.636	748.286
93.899	13.753	988.387	747.907
94.914	13.743	987.379	747.035
95.928	13.807	986.708	746.746
96.943	13.818	985.719	745.982
97.957	13.754	985.026	745.104
98.972	13.796	984.006	744.456
99.987	13.689	983.392	743.443
101.001	13.872	982.362	743.420
102.016	13.735	981.834	742.343
103.030	13.710	980.869	741.435
104.045	13.723	979.598	740.463
105.060	13.691	979.095	739.877
106.074	13.749	977.458	738.831
107.089	13.640	977.317	738.176
108.103	13.464	976.290	736.553
109.118	13.353	975.563	735.442
110.133	13.389	975.167	735.240
111.147	13.491	973.816	734.609
112.162	13.577	973.041	734.342
113.176	13.483	972.202	733.227
114.191	13.571	970.966	732.619
115.206	13.500	970.689	732.031
116.220	13.555	969.583	731.377
117.235	13.529	968.607	730.461
118.249	13.633	968.153	730.510
119.264	13.562	967.192	729.409
120.279	13.553	966.183	728.543
121.293	13.443	965.729	727.654
122.308	13.481	964.491	726.825
123.322	13.460	963.868	726.197
124.337	13.455	963.021	725.472
125.352	13.501	961.459	724.431
126.366	13.478	960.788	723.762
127.381	13.456	959.383	722.543
128.395	13.519	958.088	721.780
129.410	13.462	957.572	721.080
130.424	13.427	956.867	720.331
131.439	13.456	956.391	720.037
132.454	13.528	955.327	719.487
133.468	13.467	954.707	718.688
134.483	13.505	954.372	718.539
135.497	13.703	952.738	718.101
136.512	13.601	952.204	717.196
137.527	13.498	951.829	716.403
138.541	13.599	950.659	715.897
139.556	13.644	950.097	715.604
140.570	13.573	949.483	714.770
141.585	13.584	948.882	714.300
142.600	13.666	948.234	714.103
143.614	13.738	947.209	713.580
144.629	13.908	946.548	713.751
145.643	13.849	945.784	712.857
146.658	13.749	944.963	711.744
147.673	13.733	944.043	710.921
148.687	13.744	942.954	710.085
149.702	13.645	942.429	709.205
150.716	13.603	941.479	708.248
151.731	13.696	940.599	707.918
152.746	13.655	939.978	707.215
153.760	13.631	939.534	706.717
154.775	13.719	938.938	706.580
155.789	13.747	937.927	705.874
156.804	13.832	937.332	705.725
157.819	13.789	936.235	704.653
158.833	13.921	935.932	704.927
159.848	13.904	935.434	704.416
160.862	13.916	934.528	703.723
161.877	13.946	933.914	703.324
162.892	13.732	933.377	701.953
163.906	13.682	932.237	700.821
164.921	13.778	931.180	700.369
165.935	13.931	930.000	700.064
166.950	13.794	929.287	698.889
167.964	13.773	928.612	698.233
168.979	13.840	927.260	697.433
169.994	13.887	926.502	697.000
171.008	13.780	925.876	696.019
172.023	13.895	924.966	695.754
173.037	13.907	924.103	695.096
174.052	14.040	923.399	695.059
175.067	13.978	922.983	694.428
176.081	13.805	922.308	693.134
177.096	13.726	921.158	691.879
178.110	13.875	920.313	691.805
179.125	13.826	919.657	691.046
180.140	13.981	918.591	690.827
181.154	13.984	918.237	690.512
182.169	14.084	917.864	690.586
183.183	14.095	917.109	690.004
184.198	14.088	916.190	689.223
185.213	14.033	915.861	688.686
186.227	14.133	915.315	688.630
187.242	14.119	914.813	688.134
188.256	14.180	914.008	687.717
189.271	14.203	912.952	686.958
190.286	14.322	912.628	687.142
191.300	14.096	911.935	685.628
192.315	13.876	910.871	683.863
193.329	13.940	910.212	683.572
194.344	13.862	909.735	682.829
195.359	14.049	909.150	683.100
196.373	13.925	908.648	682.155
197.388	14.093	907.804	682.147
198.402	14.196	907.617	682.368
199.417	14.268	907.244	682.325
200.432	14.307	906.795	682.085
201.446	14.480	906.177	682.267
202.461	14.383	905.690	681.445
203.475	14.483	905.067	681.327
204.490	14.514	904.367	680.866
205.504	14.359	903.686	679.657
206.519	14.488	902.694	679.377
207.534	14.345	902.252	678.403
208.548	14.267	901.335	677.337
209.563	14.423	900.634	677.385
210.577	14.474	899.980	677.039
211.592	14.403	899.430	676.278
212.607	14.397	898.901	675.796
213.621	14.447	898.557	675.678
214.636	14.451	897.888	675.131
215.650	14.452	897.085	674.475
216.665	14.435	896.581	673.966
217.680	14.570	895.819	673.880
218.694	14.490	895.517	673.268
219.709	14.512	895.195	673.055
220.723	14.784	893.705	672.972
221.738	14.649	893.823	672.459
222.753	14.457	892.991	670.998
223.767	14.554	891.996	670.583
224.782	14.634	891.137	670.199
225.796	14.716	890.407	669.920
226.811	14.767	889.685	669.520
227.826	14.614	889.488	668.701
228.840	14.736	888.407	668.316
229.855	14.701	887.924	667.755
230.869	14.625	887.712	667.231
231.884	14.626	886.857	666.534
232.899	14.584	886.033	665.690
233.913	14.661	884.951	665.123
234.928	14.706	884.005	664.532
235.942	14.636	883.730	663.987
236.957	14.696	882.803	663.471
237.972	14.608	882.237	662.639
238.986	14.622	881.636	662.184
240.001	14.611	881.508	661.987
241.015	14.645	880.398	661.227
242.030	14.690	879.888	660.965
243.045	14.833	879.129	660.900
244.059	14.704	878.668	659.989
245.074	14.802	877.858	659.706
246.088	14.753	877.467	659.161
247.103	14.709	876.890	658.497
248.117	15.042	875.828	658.950
249.132	15.068	875.279	658.584
250.147	15.010	875.117	658.173
251.161	15.190	874.317	658.224
252.176	15.107	873.620	657.315
253.190	15.240	872.773	657.139
254.205	15.292	872.294	656.924
255.220	15.331	871.506	656.425
256.234	15.273	870.887	655.672
257.249	15.211	870.819	655.323
258.263	15.064	869.791	653.915
259.278	15.311	869.317	654.465
260.293	15.320	869.206	654.359
261.307	15.217	868.502	653.372
262.322	15.270	867.910	653.075
263.336	15.351	867.324	652.890
264.351	15.398	866.439	652.348
265.366	15.382	865.718	651.688
266.380	15.463	865.359	651.674
267.395	15.466	864.931	651.304
268.409	15.401	864.130	650.394
269.424	15.326	863.244	649.377
270.439	15.349	862.730	649.021
271.453	15.477	861.588	648.602
272.468	15.389	861.084	647.824
273.482	15.497	860.113	647.452
274.497	15.412	859.875	646.889
275.512	15.376	859.168	646.159
276.526	15.411	858.496	645.732
277.541	15.434	857.870	645.291
278.555	15.346	857.362	644.514
279.570	15.350	857.080	644.262
280.585	15.602	856.307	644.591
281.599	15.703	855.733	644.490
282.614	15.564	855.237	643.525
283.628	15.721	854.163	643.260
284.643	15.581	854.160	642.666
285.657	15.486	853.451	641.715
286.672	15.499	853.276	641.575
287.687	15.646	852.457	641.464
288.701	15.653	852.013	641.098
289.716	15.747	851.226	640.809
290.730	15.611	850.956	640.032
291.745	15.532	850.357	639.221
292.760	15.838	849.096	639.382
293.774	15.635	848.733	638.280
294.789	15.716	848.556	638.399
295.803	15.891	847.786	638.427
296.818	15.729	847.139	637.268
297.833	15.710	846.190	636.426
298.847	15.870	845.923	636.775
299.862	15.821	844.901	635.763
300.876	15.772	844.558	635.263
301.891	15.791	843.722	634.652
302.906	15.881	843.435	634.716
303.920	15.927	842.411	634.065
304.935	16.049	842.018	634.173
305.949	16.022	841.630	633.723
306.964	16.071	840.806	633.229
307.979	15.996	840.145	632.394
308.993	15.999	839.864	632.139
310.008	16.019	839.416	631.820
311.022	16.136	838.754	631.703
312.037	16.112	838.080	631.051
313.052	16.052	837.802	630.562
314.066	15.956	837.276	629.750
315.081	15.993	836.235	629.051
316.095	15.981	835.983	628.757
317.110	15.990	835.231	628.171
318.125	15.984	834.966	627.895
319.139	16.065	834.492	627.784
320.154	16.043	834.065	627.324
321.168	15.942	833.275	626.301
322.183	16.053	832.996	626.447
323.197	16.162	832.203	626.200
324.212	16.117	831.688	625.590
325.227	16.201	831.052	625.369
326.241	16.130	830.526	624.656
327.256	16.149	830.050	624.310
328.270	16.112	829.712	623.867
329.285	16.139	828.939	623.328
330.300	16.096	828.305	622.639
331.314	16.209	827.807	622.625
332.329	16.194	827.185	622.048
333.343	16.235	826.775	621.833
334.358	16.347	825.936	621.561
335.373	16.385	825.718	621.481
336.387	16.309	825.046	620.641
337.402	16.349	824.663	620.445
338.416	16.334	824.305	620.066
339.431	16.492	823.209	619.767
340.446	16.449	822.639	619.126
341.460	16.388	822.749	618.929
342.475	16.579	821.967	618.985
343.489	16.741	820.997	618.793
344.504	16.650	820.768	618.233
345.519	16.490	820.502	617.394
346.533	16.714	819.696	617.549
347.548	16.717	819.010	616.987
348.562	16.675	818.503	616.397
349.577	16.456	818.257	615.361
350.592	16.509	817.296	614.778
351.606	16.507	817.218	614.656
352.621	16.589	816.773	614.566
353.635	16.509	816.414	613.951
354.650	16.674	815.943	614.142
355.665	16.504	815.761	613.332
356.679	16.594	815.149	613.143
357.694	16.808	814.222	613.169
358.708	16.735	813.742	612.486
359.723	16.681	813.281	611.891
360.738	16.720	812.718	611.554
361.752	16.658	812.616	611.200
362.767	16.756	812.090	611.102
363.781	16.756	811.856	610.873
364.796	16.745	811.342	610.394
365.810	16.864	810.665	610.259
366.825	17.175	809.877	610.728
367.840	16.872	810.280	609.887
368.854	16.905	809.654	609.482
369.869	16.977	809.250	609.385
370.883	16.969	808.671	608.864
371.898	16.975	807.874	608.233
372.913	17.013	807.615	608.119
373.927	17.061	807.020	607.791
374.942	16.982	806.270	606.888
375.956	17.034	805.637	606.544
376.971	16.864	805.295	605.625
377.986	17.036	804.924	605.909
379.000	17.261	803.903	605.886
380.015	17.233	803.299	605.280
381.029	17.102	803.134	604.633
382.044	17.173	802.704	604.510
383.059	17.248	801.718	603.979
384.073	17.245	801.165	603.502
385.088	17.297	800.727	603.301
386.102	17.203	800.311	602.600
387.117	17.189	799.607	601.966
388.132	17.150	799.108	601.401
389.146	17.011	799.272	600.979
390.161	17.330	798.426	601.417
391.175	17.161	798.728	600.993
392.190	17.241	797.834	600.552
393.205	17.382	797.152	600.481
394.219	17.158	797.016	599.535
395.234	17.303	796.359	599.499
396.248	17.232	795.823	598.792
397.263	17.250	794.888	598.100
398.278	17.030	794.931	597.306
399.292	17.006	794.350	596.730
400.307	17.250	794.082	597.334
401.321	17.180	793.500	596.600
402.336	17.330	793.004	596.699
403.350	17.297	792.561	596.198
404.365	17.292	792.138	595.810
405.380	17.374	791.814	595.800
406.394	17.341	791.526	595.415
407.409	17.548	790.850	595.578
408.423	17.629	790.432	595.494
409.438	17.472	790.069	594.619
410.453	17.564	789.825	594.705
411.467	17.564	789.409	594.336
412.482	17.623	789.202	594.335
413.496	17.776	787.875	593.815
414.511	17.589	788.095	593.279
415.526	17.585	787.944	593.099
416.540	17.616	787.624	592.913
417.555	17.719	786.790	592.591
418.569	17.691	786.203	591.997
419.584	17.837	785.827	592.168
420.599	17.648	785.694	591.361
421.613	111.897	1293.345	1477.990
422.628	96.019	1367.281	1478.102
