DTS Sentinel unit serial number:	SN413079Multiplexer serial number:	ORYXHardware model number:	OX4-SRSoftware version number:	ORYX F/W v4.00 Oryx Data Collector v3.7.2.0data status	okinstallation	princeton_trtdifferential loss correction	single-endedforward channel	channel 3reverse channel	N/Adate	2019/09/13time	13:04:35forward acquisition time	60.00reverse acquisition time	0.00gamma	496.2192k internal	0.2304k external	0.2304temperature offset calibration	1.0150default loss term (dB/km)	0.3790temperature slope calibration	1.0000multiplexer offset coefficient	1.0000multiplexer slope coefficient	1.0000fibre end	0.00T internal ref (°C)	34.81T ext. ref 1 (°C)	4.57T ext. ref 2 (°C)	31.19length (m)	temperature (°C)	Stokes	anti-Stokes-747.200	-6.734	0.061	-0.042
-746.185	-7.838	0.126	0.087
-745.171	389.162	-0.102	-0.214
-744.156	403.476	-0.066	0.141
-743.142	800.000	-0.036	0.145
-742.127	7.346	0.098	0.075
-741.112	-82.162	0.169	-0.056
-740.098	103.416	-0.223	0.266
-739.083	-43.583	-0.196	0.101
-738.069	-122.745	0.299	-0.049
-737.054	426.301	-0.077	-0.169
-736.039	32.688	-0.126	-0.111
-735.025	11.593	0.243	0.190
-734.010	-184.017	-0.182	0.003
-732.996	-115.683	-0.353	-0.067
-731.981	800.000	0.064	-0.217
-730.966	-200.000	-0.072	0.324
-729.952	-60.221	0.262	-0.113
-728.937	800.000	-0.023	-0.098
-727.923	93.146	0.119	-0.137
-726.908	36.637	-0.168	-0.151
-725.894	-78.953	-0.419	-0.145
-724.879	-200.000	-0.027	-0.125
-723.864	-200.000	0.024	0.284
-722.850	-143.701	-0.176	0.017
-721.835	248.250	-0.108	0.186
-720.821	-81.155	-0.096	-0.032
-719.806	-200.000	-0.003	0.216
-718.791	297.722	-0.057	-0.106
-717.777	105.624	-0.084	-0.101
-716.762	150.069	0.230	0.318
-715.748	-125.205	-0.187	-0.029
-714.733	-150.710	0.139	0.011
-713.718	95.012	-0.242	0.280
-712.704	227.692	0.108	-0.179
-711.689	328.276	-0.029	-0.057
-710.675	-123.150	-0.162	-0.026
-709.660	445.668	0.080	-0.179
-708.645	-137.123	0.312	0.036
-707.631	-152.030	0.345	0.026
-706.616	-134.271	-0.338	-0.042
-705.602	-168.182	0.117	-0.005
-704.587	30.572	0.066	0.057
-703.572	161.741	0.010	-0.014
-702.558	-200.000	-0.036	0.161
-701.543	-200.000	0.012	-0.072
-700.529	4.201	0.147	-0.110
-699.514	762.364	-0.081	-0.225
-698.499	101.842	-0.124	-0.147
-697.485	800.000	0.040	-0.141
-696.470	10.342	-0.420	0.325
-695.456	187.002	-0.153	-0.232
-694.441	0.156	-0.228	-0.166
-693.426	-52.640	-0.367	0.172
-692.412	99.113	-0.178	-0.209
-691.397	37.896	-0.149	0.135
-690.383	59.556	-0.122	-0.122
-689.368	-88.938	0.343	-0.103
-688.354	55.225	0.183	-0.180
-687.339	336.003	0.019	0.038
-686.324	39.369	0.032	0.029
-685.310	800.000	0.050	-0.193
-684.295	86.564	0.076	-0.085
-683.281	-156.977	0.146	0.009
-682.266	800.000	-0.039	-0.143
-681.251	-200.000	0.073	-0.378
-680.237	-45.156	0.149	-0.075
-679.222	-112.411	-0.262	-0.053
-678.208	-200.000	0.010	-0.306
-677.193	186.593	-0.233	-0.353
-676.178	800.000	0.112	-0.328
-675.164	-125.324	-0.209	0.032
-674.149	-77.919	-0.086	0.030
-673.135	22.006	-0.026	-0.022
-672.120	-133.480	-0.199	-0.025
-671.105	-200.000	0.010	-0.101
-670.091	47.473	0.138	-0.130
-669.076	-118.456	0.184	-0.033
-668.062	-40.452	0.089	-0.047
-667.047	-72.028	0.059	-0.022
-666.032	-140.385	-0.421	0.045
-665.018	800.000	0.038	0.152
-664.003	99.138	0.120	0.141
-662.989	-59.428	0.208	0.091
-661.974	358.379	-0.185	0.375
-660.959	11.494	0.131	-0.102
-659.945	-200.000	-0.029	-0.157
-658.930	-53.989	0.280	-0.129
-657.916	800.000	-0.060	-0.189
-656.901	462.181	0.074	-0.168
-655.886	-200.000	-0.024	0.198
-654.872	-30.526	-0.163	0.094
-653.857	2.425	0.276	0.203
-652.843	77.595	-0.064	0.069
-651.828	135.172	0.062	-0.081
-650.814	-162.414	-0.153	0.008
-649.799	800.000	0.039	-0.125
-648.784	387.619	-0.127	-0.267
-647.770	-151.503	0.106	0.008
-646.755	-200.000	0.001	0.156
-645.741	59.831	-0.164	-0.164
-644.726	-200.000	-0.003	-0.198
-643.711	-120.716	0.067	-0.012
-642.697	-200.000	0.001	0.004
-641.682	111.805	-0.131	-0.161
-640.668	-6.745	-0.246	-0.170
-639.653	126.733	-0.229	-0.295
-638.638	-200.000	0.047	-0.354
-637.624	442.072	0.098	-0.217
-636.609	243.270	-0.075	-0.128
-635.595	75.256	-0.008	-0.008
-634.580	-131.580	0.264	0.035
-633.565	-81.088	0.103	0.034
-632.551	-200.000	0.078	0.424
-631.536	649.444	0.113	0.294
-630.522	-52.176	-0.020	-0.009
-629.507	800.000	-0.009	0.041
-628.492	-165.549	0.107	0.005
-627.478	-200.000	-0.022	0.220
-626.463	-173.184	0.575	-0.018
-625.449	-200.000	0.027	0.127
-624.434	-148.553	-0.163	0.014
-623.419	171.862	-0.033	0.048
-622.405	-200.000	0.027	0.230
-621.390	-200.000	0.058	0.392
-620.376	-200.000	0.009	0.332
-619.361	14.105	-0.140	-0.110
-618.346	187.586	-0.148	-0.224
-617.332	112.759	0.068	-0.084
-616.317	-152.669	-0.193	0.014
-615.303	646.533	0.065	0.168
-614.288	97.942	0.137	0.160
-613.273	-140.986	-0.175	-0.018
-612.259	235.473	0.113	-0.189
-611.244	399.495	-0.058	-0.123
-610.230	590.718	-0.060	-0.149
-609.215	-34.107	0.209	-0.116
-608.201	7.107	0.182	0.137
-607.186	-82.876	0.430	0.141
-606.171	-48.531	0.167	-0.081
-605.157	12.321	0.095	-0.074
-604.142	440.228	0.103	0.228
-603.128	-91.827	0.037	0.011
-602.113	-101.491	-0.172	0.042
-601.098	800.000	0.061	0.185
-600.084	-17.694	0.111	0.071
-599.069	-62.954	0.130	-0.054
-598.055	-137.132	-0.161	0.019
-597.040	758.018	0.098	-0.270
-596.025	60.434	-0.126	-0.126
-595.011	534.799	-0.047	-0.113
-593.996	-36.327	0.045	0.025
-592.982	-200.000	0.036	-0.275
-591.967	260.239	0.082	0.143
-590.952	-22.351	-0.287	-0.176
-589.938	710.504	-0.134	-0.359
-588.923	-79.475	0.216	0.074
-587.909	-125.427	-0.136	-0.021
-586.894	58.929	0.082	0.082
-585.879	-140.086	-0.293	0.031
-584.865	-134.322	-0.208	-0.026
-583.850	282.380	-0.023	-0.043
-582.836	-200.000	-0.008	0.086
-581.821	12.984	0.211	-0.165
-580.806	-89.311	-0.170	0.051
-579.792	52.410	0.007	-0.007
-578.777	-72.026	-0.228	-0.086
-577.763	-200.000	0.020	-0.126
-576.748	800.000	-0.051	0.157
-575.733	29.049	-0.212	-0.182
-574.719	-200.000	0.011	-0.115
-573.704	-34.350	-0.260	-0.144
-572.690	-94.584	-0.287	0.079
-571.675	296.080	0.114	0.212
-570.661	-200.000	-0.012	-0.291
-569.646	-59.171	-0.250	0.109
-568.631	456.569	0.092	-0.207
-567.617	-167.459	0.279	-0.011
-566.602	800.000	0.122	0.365
-565.588	-41.441	0.069	0.036
-564.573	-200.000	-0.019	-0.103
-563.558	31.339	-0.071	-0.062
-562.544	-1.862	-0.126	-0.090
-561.529	-200.000	-0.040	-0.225
-560.515	-116.274	-0.092	-0.017
-559.500	136.479	-0.052	0.069
-558.485	109.381	-0.208	-0.252
-557.471	-13.269	0.124	0.081
-556.456	275.235	0.172	-0.308
-555.442	-179.300	0.173	-0.004
-554.427	-139.465	0.367	-0.040
-553.412	115.827	0.105	-0.130
-552.398	-200.000	0.050	0.333
-551.383	-116.404	0.201	0.038
-550.369	118.520	-0.263	0.328
-549.354	-194.460	-0.222	-0.002
-548.339	628.964	0.130	-0.331
-547.325	29.517	0.130	0.112
-546.310	93.101	-0.177	-0.202
-545.296	-96.813	-0.227	0.060
-544.281	-1.612	0.235	-0.167
-543.266	800.000	-0.040	0.114
-542.252	-78.005	0.061	0.021
-541.237	69.976	-0.090	0.094
-540.223	-68.792	-0.239	0.093
-539.208	-156.227	0.098	-0.006
-538.193	418.939	-0.134	-0.289
-537.179	-200.000	-0.000	0.045
-536.164	248.949	-0.155	0.265
-535.150	-72.204	-0.157	-0.059
-534.135	800.000	0.060	-0.217
-533.121	36.503	-0.032	-0.028
-532.106	-53.309	-0.392	-0.181
-531.091	572.650	-0.097	-0.238
-530.077	146.589	0.102	-0.138
-529.062	-200.000	0.030	-0.146
-528.048	-200.000	0.008	-0.146
-527.033	-68.383	0.057	-0.022
-526.018	-124.243	-0.085	0.013
-525.004	-15.446	0.180	0.116
-523.989	188.432	0.095	0.144
-522.975	318.636	0.008	-0.015
-521.960	800.000	0.046	-0.178
-520.945	25.844	0.122	-0.103
-519.931	155.551	0.115	0.160
-518.916	800.000	-0.006	0.019
-517.902	90.298	-0.110	0.124
-516.887	-165.387	-0.178	-0.008
-515.872	800.000	0.068	-0.262
-514.858	-35.236	-0.011	-0.006
-513.843	-200.000	-0.004	0.047
-512.829	-165.372	-0.332	0.015
-511.814	-116.753	-0.426	0.079
-510.799	-101.649	-0.092	0.022
-509.785	86.673	0.104	-0.116
-508.770	43.054	0.065	0.060
-507.756	-161.252	-0.242	-0.013
-506.741	266.598	-0.030	0.052
-505.726	-127.524	-0.342	0.050
-504.712	128.167	0.123	-0.157
-503.697	243.854	0.164	-0.278
-502.683	91.035	0.192	0.217
-501.668	-130.167	0.235	0.032
-500.653	-8.386	0.157	0.107
-499.639	-179.225	0.341	0.008
-498.624	-27.509	-0.043	-0.025
-497.610	800.000	0.141	-0.411
-496.595	-61.918	-0.135	0.057
-495.581	-36.089	0.093	0.050
-494.566	4.837	-0.337	-0.250
-493.551	219.520	-0.129	-0.208
-492.537	261.979	-0.053	-0.092
-491.522	-67.272	-0.398	-0.158
-490.508	421.219	-0.133	0.286
-489.493	130.149	0.265	0.342
-488.478	-200.000	-0.090	-0.000
-487.464	60.121	0.029	-0.028
-486.449	229.335	-0.324	0.533
-485.435	-200.000	0.016	-0.174
-484.420	800.000	0.034	0.140
-483.405	366.751	-0.087	-0.177
-482.391	78.587	-0.228	0.245
-481.376	764.251	-0.010	0.026
-480.362	81.846	-0.138	-0.151
-479.347	-85.523	-0.054	0.017
-478.332	-56.377	-0.118	0.053
-477.318	220.621	0.104	0.168
-476.303	-116.480	0.085	0.016
-475.289	163.339	-0.023	-0.032
-474.274	-200.000	-0.012	0.205
-473.259	72.496	0.060	-0.063
-472.245	174.066	-0.135	0.196
-471.230	-49.095	-0.288	0.139
-470.216	22.135	0.089	0.074
-469.201	-28.959	0.209	-0.121
-468.186	800.000	-0.040	-0.147
-467.172	10.477	-0.116	0.089
-466.157	159.438	0.088	-0.124
-465.143	475.504	0.037	0.084
-464.128	-138.416	-0.286	0.032
-463.113	-200.000	0.003	0.056
-462.099	402.981	-0.233	-0.494
-461.084	800.000	-0.029	0.128
-460.070	-183.735	-0.105	-0.002
-459.055	167.778	0.188	-0.269
-458.040	800.000	0.068	-0.251
-457.026	45.482	-0.205	-0.191
-456.011	800.000	0.030	-0.106
-454.997	120.726	-0.248	-0.310
-453.982	800.000	0.047	-0.163
-452.968	-58.432	0.419	-0.183
-451.953	-200.000	-0.012	-0.122
-450.938	44.928	-0.242	-0.225
-449.924	55.921	0.225	-0.220
-448.909	-95.596	0.274	-0.074
-447.895	107.780	0.061	-0.073
-446.880	-200.000	0.001	-0.184
-445.865	-200.000	0.012	-0.054
-444.851	-138.029	0.191	0.021
-443.836	31.925	0.202	-0.175
-442.822	172.903	0.017	0.025
-441.807	-166.446	-0.186	0.008
-440.792	-66.124	0.027	0.011
-439.778	-95.288	-0.298	0.081
-438.763	-89.990	0.135	-0.040
-437.749	-29.302	0.239	-0.138
-436.734	-20.321	0.088	-0.054
-435.719	-149.422	-0.104	-0.008
-434.705	454.014	-0.141	-0.313
-433.690	-44.130	0.051	-0.026
-432.676	-113.006	-0.189	-0.038
-431.661	-54.414	-0.111	-0.051
-430.646	7.881	0.220	-0.166
-429.632	15.863	-0.150	0.119
-428.617	75.785	0.253	0.269
-427.603	-154.103	0.196	0.013
-426.588	-89.844	0.310	-0.091
-425.573	100.059	-0.165	0.193
-424.559	-200.000	-0.029	0.213
-423.544	-179.856	-0.350	0.008
-422.530	300.603	-0.233	-0.433
-421.515	-200.000	-0.004	-0.120
-420.500	11.827	0.084	0.065
-419.486	-40.763	0.205	-0.107
-418.471	217.726	0.126	-0.201
-417.457	-70.542	0.053	0.020
-416.442	-48.622	-0.229	0.111
-415.428	800.000	-0.035	-0.141
-414.413	156.674	-0.148	0.206
-413.398	800.000	0.034	0.103
-412.384	-150.108	0.146	-0.011
-411.369	160.387	0.123	-0.173
-410.355	272.065	-0.091	0.161
-409.340	-9.494	-0.117	0.079
-408.325	-200.000	0.060	0.407
-407.311	250.771	0.092	0.157
-406.296	183.147	-0.101	-0.150
-405.282	106.170	-0.108	0.129
-404.267	728.971	-0.105	0.282
-403.252	-200.000	0.070	0.331
-402.238	-33.834	-0.202	0.112
-401.223	-113.966	-0.121	-0.024
-400.209	375.672	0.031	-0.063
-399.194	-112.759	0.347	-0.069
-398.179	292.387	-0.056	0.103
-397.165	314.273	-0.216	-0.409
-396.150	-92.549	0.173	0.049
-395.136	-122.264	0.630	-0.103
-394.121	-49.209	0.272	0.130
-393.106	229.548	0.082	-0.134
-392.092	-145.500	0.167	-0.015
-391.077	-200.000	-0.017	0.079
-390.063	-200.000	-0.014	0.102
-389.048	-7.702	-0.142	0.096
-388.033	-200.000	-0.009	0.066
-387.019	548.660	-0.118	0.284
-386.004	12.436	-0.162	0.125
-384.990	493.803	-0.110	-0.254
-383.975	-44.523	0.310	0.156
-382.960	-53.337	-0.060	-0.027
-381.946	-99.780	0.156	0.039
-380.931	-200.000	-0.004	0.444
-379.917	67.338	-0.065	-0.067
-378.902	-49.531	0.031	0.015
-377.888	-200.000	0.004	-0.047
-376.873	-102.635	-0.480	-0.115
-375.858	267.512	-0.074	-0.130
-374.844	-30.646	0.187	-0.107
-373.829	-139.069	0.277	-0.030
-372.815	-96.358	-0.198	0.053
-371.800	412.440	-0.047	0.100
-370.785	-43.332	0.241	-0.122
-369.771	2.022	-0.105	-0.076
-368.756	61.429	-0.086	0.086
-367.742	-152.444	-0.133	0.010
-366.727	-11.556	-0.071	-0.047
-365.712	-24.751	0.163	-0.097
-364.698	-200.000	0.004	0.209
-363.683	-91.727	0.255	-0.073
-362.669	602.929	0.033	0.083
-361.654	-200.000	0.000	0.252
-360.639	-25.875	-0.023	-0.014
-359.625	800.000	-0.078	0.251
-358.610	-141.586	0.443	0.045
-357.596	74.665	0.143	0.151
-356.581	449.056	-0.109	-0.241
-355.566	800.000	0.097	0.307
-354.552	636.967	0.092	0.234
-353.537	636.244	-0.048	-0.122
-352.523	103.666	-0.154	-0.181
-351.508	800.000	0.106	-0.382
-350.493	-106.766	-0.146	0.033
-349.479	57.330	-0.009	0.009
-348.464	215.269	0.260	-0.414
-347.450	-82.701	0.306	-0.099
-346.435	38.127	0.027	-0.024
-345.420	-145.499	-0.228	0.021
-344.406	213.987	-0.184	-0.292
-343.391	800.000	0.056	0.164
-342.377	-200.000	-0.005	-0.055
-341.362	800.000	-0.028	0.093
-340.348	32.730	-0.222	0.192
-339.333	-117.536	-0.388	0.070
-338.318	15.650	0.231	0.182
-337.304	-200.000	-0.012	-0.491
-336.289	-12.187	-0.388	-0.255
-335.275	-104.683	-0.101	0.023
-334.260	-36.419	-0.138	-0.075
-333.245	-16.735	0.128	-0.081
-332.231	-200.000	0.008	-0.096
-331.216	800.000	0.084	0.268
-330.202	-78.974	0.228	0.078
-329.187	-58.997	0.156	-0.067
-328.172	210.172	0.057	-0.090
-327.158	-9.673	-0.256	0.171
-326.143	-81.027	0.333	0.110
-325.129	302.453	0.115	-0.214
-324.114	-124.896	-0.305	-0.047
-323.099	8.639	0.165	0.124
-322.085	800.000	-0.058	0.210
-321.070	-89.239	0.202	-0.060
-320.056	-72.161	0.177	0.066
-319.041	538.546	-0.015	-0.036
-318.026	-7.750	0.151	0.102
-317.012	-72.639	0.117	-0.043
-315.997	-75.181	-0.303	-0.109
-314.983	-56.911	-0.168	-0.074
-313.968	-78.732	0.175	0.060
-312.953	2.747	-0.284	0.206
-311.939	96.564	-0.157	-0.180
-310.924	-64.122	0.386	0.158
-309.910	116.518	0.192	0.236
-308.895	-200.000	-0.009	0.388
-307.880	800.000	0.062	0.245
-306.866	-56.447	-0.065	-0.029
-305.851	800.000	0.109	0.358
-304.837	81.175	-0.190	0.205
-303.822	-200.000	0.018	-0.233
-302.807	-28.721	-0.152	0.087
-301.793	93.710	-0.163	-0.185
-300.778	-139.938	-0.241	0.025
-299.764	800.000	-0.063	-0.248
-298.749	251.896	0.112	0.191
-297.735	-200.000	0.005	0.201
-296.720	-138.525	0.390	0.043
-295.705	-60.781	0.251	-0.106
-294.691	-23.014	-0.482	-0.290
-293.676	-200.000	-0.025	0.127
-292.662	-200.000	0.053	0.345
-291.647	159.825	-0.031	-0.043
-290.632	4.609	-0.309	0.227
-289.618	-200.000	0.004	-0.043
-288.603	-200.000	-0.342	0.002
-287.589	-200.000	-0.049	0.556
-286.574	47.418	0.091	0.085
-285.559	-85.249	-0.128	-0.040
-284.545	-200.000	-0.031	-0.158
-283.530	266.914	-0.066	0.115
-282.516	-50.992	0.071	0.033
-281.501	800.000	-0.098	0.405
-280.486	211.665	0.158	0.249
-279.472	-6.229	-0.077	-0.052
-278.457	-149.253	0.259	0.021
-277.443	-200.000	-0.037	-0.439
-276.428	-142.255	0.205	0.020
-275.413	1.361	-0.365	-0.262
-274.399	-36.587	-0.225	0.121
-273.384	68.013	0.028	-0.028
-272.370	-200.000	-0.021	-0.166
-271.355	-101.957	-0.218	-0.053
-270.340	-87.532	-0.297	0.090
-269.326	-200.000	-0.008	-0.182
-268.311	-132.068	0.527	0.069
-267.297	-200.000	0.029	0.226
-266.282	151.697	-0.033	0.045
-265.267	-59.368	0.212	0.091
-264.253	94.607	0.209	-0.237
-263.238	-200.000	0.050	-0.265
-262.224	800.000	-0.093	0.393
-261.209	245.485	0.222	-0.373
-260.195	800.000	-0.085	0.280
-259.180	-19.544	0.312	0.193
-258.165	-72.131	-0.459	-0.170
-257.151	-99.547	0.158	0.040
-256.136	-200.000	-0.020	0.262
-255.122	184.562	0.134	-0.198
-254.107	43.169	0.252	0.230
-253.092	-132.178	-0.112	-0.015
-252.078	-4.382	-0.098	0.068
-251.063	-6.533	0.174	-0.118
-250.049	55.215	-0.153	0.148
-249.034	-163.320	-0.317	0.015
-248.019	800.000	0.044	-0.154
-247.005	-62.091	0.214	0.089
-245.990	126.854	-0.156	0.198
-244.976	-200.000	0.051	0.377
-243.961	800.000	0.029	0.126
-242.946	-82.034	-0.251	0.082
-241.932	-66.838	0.045	0.018
-240.917	-19.358	0.378	0.234
-239.903	-200.000	-0.027	-0.367
-238.888	800.000	-0.088	0.243
-237.873	431.141	-0.052	0.112
-236.859	-68.742	0.213	-0.082
-235.844	-128.367	0.123	0.017
-234.830	-200.000	-0.024	0.136
-233.815	800.000	0.077	-0.268
-232.800	123.537	0.181	-0.227
-231.786	800.000	-0.095	-0.410
-230.771	-200.000	-0.010	-0.146
-229.757	-28.364	0.163	-0.094
-228.742	-200.000	0.048	0.260
-227.727	-13.310	0.172	0.111
-226.713	-37.050	0.209	0.112
-225.698	-200.000	0.006	0.191
-224.684	110.003	0.131	-0.157
-223.669	-144.345	-0.212	-0.020
-222.655	-133.091	-0.096	-0.012
-221.640	-105.712	-0.093	0.021
-220.625	15.335	0.118	0.093
-219.611	11.028	0.229	0.175
-218.596	-13.759	-0.292	0.188
-217.582	117.377	-0.133	0.163
-216.567	800.000	-0.070	-0.222
-215.552	567.590	-0.206	-0.500
-214.538	-98.504	0.154	0.039
-213.523	-41.721	0.208	0.107
-212.509	88.310	-0.091	0.101
-211.494	79.380	-0.121	-0.130
-210.479	84.493	0.171	0.187
-209.465	65.979	-0.060	0.061
-208.450	223.673	-0.111	-0.179
-207.436	-200.000	-0.005	-0.053
-206.421	-48.497	-0.262	-0.126
-205.406	-86.230	0.269	0.083
-204.392	-200.000	0.055	0.375
-203.377	-69.005	-0.220	0.085
-202.363	-119.988	0.500	-0.086
-201.348	223.587	0.186	0.300
-200.333	63.726	0.237	0.237
-199.319	-200.000	0.034	0.323
-198.304	442.056	0.109	-0.237
-197.290	-200.000	-0.062	0.353
-196.275	-117.760	0.132	-0.024
-195.260	-79.110	-0.369	0.125
-194.246	72.860	0.143	-0.149
-193.231	800.000	0.038	-0.161
-192.217	140.125	0.023	-0.031
-191.202	800.000	0.074	0.238
-190.187	203.411	-0.046	-0.071
-189.173	-13.485	0.083	-0.054
-188.158	-105.132	0.267	0.061
-187.144	-200.000	-0.008	-0.191
-186.129	-28.573	-0.112	0.064
-185.114	169.896	-0.069	-0.099
-184.100	-175.960	0.506	-0.013
-183.085	716.611	0.067	0.178
-182.071	-132.601	-0.239	-0.031
-181.056	339.150	-0.088	-0.171
-180.042	-68.008	0.081	0.031
-179.027	272.438	0.058	-0.102
-178.012	-4.740	-0.103	0.071
-176.998	-200.000	0.007	0.179
-175.983	-18.930	0.128	0.080
-174.969	-87.133	0.257	0.078
-173.954	-200.000	0.020	0.237
-172.939	-3.586	-0.483	-0.334
-171.925	-200.000	0.001	0.176
-170.910	-200.000	0.005	0.298
-169.896	-32.347	-0.023	0.013
-168.881	81.686	-0.078	-0.084
-167.866	3.203	0.166	0.120
-166.852	413.748	0.057	-0.120
-165.837	-200.000	0.004	0.217
-164.823	-51.654	0.283	0.131
-163.808	30.916	0.139	0.119
-162.793	-41.803	0.362	-0.185
-161.779	69.119	0.098	-0.100
-160.764	407.495	-0.113	-0.237
-159.750	418.575	-0.186	-0.396
-158.735	502.608	0.073	0.167
-157.720	-135.736	-0.206	-0.024
-156.706	-80.556	-0.291	0.097
-155.691	72.040	-0.041	-0.043
-154.677	152.075	0.047	-0.064
-153.662	108.685	-0.155	-0.184
-152.647	-98.065	-0.294	-0.075
-151.633	38.974	-0.183	0.162
-150.618	-123.029	0.140	-0.022
-149.604	800.000	0.067	-0.183
-148.589	-125.119	0.092	0.014
-147.574	-101.012	-0.036	-0.009
-146.560	456.394	-0.235	0.519
-145.545	-47.013	-0.161	-0.078
-144.531	-200.000	-0.012	-0.124
-143.516	-200.000	0.003	-0.073
-142.502	-114.798	0.125	0.024
-141.487	-200.000	0.035	-0.290
-140.472	-200.000	-0.035	-0.310
-139.458	437.486	-0.100	0.216
-138.443	-200.000	-0.015	0.085
-137.429	-200.000	-0.020	-0.114
-136.414	800.000	0.016	0.043
-135.399	-67.799	0.255	0.099
-134.385	66.912	0.358	0.362
-133.370	-105.855	-0.358	-0.080
-132.356	-99.565	0.040	0.010
-131.341	173.905	-0.038	-0.055
-130.326	57.402	0.349	0.339
-129.312	158.193	0.158	0.217
-128.297	-200.000	0.020	0.115
-127.283	33.410	0.092	-0.079
-126.268	15.059	-0.119	0.093
-125.253	146.348	-0.027	-0.036
-124.239	-200.000	-0.019	0.167
-123.224	-200.000	-0.028	0.192
-122.210	10.943	-0.195	0.148
-121.195	-11.529	-0.277	-0.181
-120.180	-169.345	0.039	-0.001
-119.166	767.509	-0.111	-0.299
-118.151	305.101	0.139	0.256
-117.137	415.273	0.079	0.167
-116.122	450.869	-0.080	-0.176
-115.107	-137.116	0.095	0.011
-114.093	53.002	0.150	-0.142
-113.078	238.082	-0.174	-0.287
-112.064	-40.172	-0.202	-0.104
-111.049	96.480	0.169	0.192
-110.034	800.000	0.135	0.403
-109.020	800.000	-0.120	-0.333
-108.005	-185.750	-0.334	0.005
-106.991	-68.413	-0.185	-0.071
-105.976	-57.874	-0.168	0.073
-104.962	-67.315	-0.295	-0.115
-103.947	209.282	0.103	0.161
-102.932	-26.971	0.340	0.197
-101.918	254.961	-0.187	0.318
-100.903	58.375	-0.150	0.146
-99.889	-121.282	0.090	0.015
-98.874	-200.000	-0.027	0.147
-97.859	-93.885	-0.259	0.071
-96.845	-165.193	0.406	-0.018
-95.830	-40.203	0.180	0.093
-94.816	319.024	0.158	-0.297
-93.801	591.179	-0.122	0.298
-92.786	64.753	-0.067	0.068
-91.772	-43.866	-0.274	0.137
-90.757	55.241	0.058	-0.056
-89.743	-60.465	-0.239	-0.101
-88.728	-98.519	0.086	-0.022
-87.713	-200.000	-0.011	-0.060
-86.699	-97.784	0.301	-0.077
-85.684	419.521	0.046	0.097
-84.670	401.794	-0.045	-0.094
-83.655	-101.435	0.113	0.027
-82.640	800.000	-0.035	0.138
-81.626	800.000	-0.064	0.277
-80.611	31.543	0.192	-0.164
-79.597	68.785	-0.142	-0.144
-78.582	-119.048	-0.150	-0.026
-77.567	800.000	-0.091	-0.287
-76.553	800.000	0.127	-0.408
-75.538	-200.000	-0.064	-0.398
-74.524	314.295	-0.096	-0.179
-73.509	-51.416	-0.094	-0.043
-72.494	-87.182	0.234	-0.071
-71.480	-116.043	-0.450	-0.083
-70.465	800.000	0.097	0.314
-69.451	800.000	0.006	0.020
-68.436	-119.554	0.188	-0.032
-67.422	800.000	0.048	0.150
-66.407	-25.214	-0.319	0.187
-65.392	-125.151	0.247	-0.038
-64.378	345.742	-0.073	-0.143
-63.363	119.945	-0.028	0.034
-62.349	-200.000	0.007	-0.186
-61.334	219.895	-0.736	-1.169
-60.319	27.664	0.424	0.354
-59.305	-200.000	-0.109	-0.956
-58.290	62.608	0.699	0.693
-57.276	800.000	0.631	1.740
-56.261	-200.000	95.198	559.940
-55.246	630.342	1385.837	3475.398
-54.232	184.579	2612.177	3836.969
-53.217	120.130	2218.740	2728.477
-52.203	45.292	1751.047	1600.714
-51.188	37.966	1560.122	1374.746
-50.173	35.367	1533.251	1332.984
-49.159	53.239	1582.314	1502.226
-48.144	56.936	1601.505	1546.498
-47.130	38.232	1557.348	1373.956
-46.115	35.068	1541.141	1337.539
-45.100	34.832	1538.007	1333.122
-44.086	34.850	1536.140	1331.575
-43.071	34.767	1534.329	1329.375
-42.057	34.770	1532.913	1328.114
-41.042	34.724	1531.240	1326.293
-40.027	34.736	1530.542	1325.722
-39.013	34.711	1529.068	1324.221
-37.998	34.813	1527.185	1323.240
-36.984	34.860	1525.608	1322.146
-35.969	34.816	1524.354	1320.706
-34.954	34.788	1522.731	1319.053
-33.940	34.776	1521.833	1318.139
-32.925	34.854	1519.808	1316.868
-31.911	34.762	1519.341	1315.783
-30.896	34.837	1517.376	1314.541
-29.881	34.852	1515.974	1313.376
-28.867	34.884	1514.144	1311.962
-27.852	34.844	1513.322	1310.922
-26.838	34.851	1511.773	1309.575
-25.823	34.863	1510.315	1308.342
-24.809	34.850	1508.546	1306.668
-23.794	34.852	1507.253	1305.509
-22.779	34.794	1506.294	1304.234
-21.765	34.830	1505.171	1303.453
-20.750	34.967	1503.481	1302.872
-19.736	34.856	1502.837	1301.510
-18.721	34.851	1501.674	1300.414
-17.706	34.876	1500.210	1299.266
-16.692	34.757	1499.266	1297.591
-15.677	34.761	1498.692	1297.070
-14.663	34.790	1497.529	1296.205
-13.648	34.705	1496.915	1295.049
-12.633	34.804	1495.534	1294.469
-11.619	34.859	1494.482	1293.882
-10.604	34.763	1494.144	1292.890
-9.590	34.764	1492.739	1291.629
-8.575	34.805	1491.496	1290.780
-7.560	34.838	1491.653	1291.082
-6.546	34.791	1490.649	1289.849
-5.531	34.835	1489.889	1289.433
-4.517	34.727	1488.612	1287.552
-3.502	34.795	1487.771	1287.231
-2.487	34.786	1486.464	1285.986
-1.473	34.683	1485.694	1284.578
-0.458	34.858	1483.904	1284.154
0.556	36.985	1475.117	1273.603
1.571	33.782	1447.521	1228.977
2.586	29.684	1383.683	1149.250
3.600	27.500	1299.290	1066.291
4.615	24.967	1251.106	1012.365
5.629	20.996	1192.914	943.744
6.644	12.510	1106.701	832.667
7.659	5.879	1064.872	768.726
8.673	4.805	1059.116	759.269
9.688	4.520	1056.001	755.585
10.702	4.328	1054.473	753.488
11.717	4.618	1053.066	753.823
12.731	7.800	1056.198	771.452
13.746	16.179	1068.330	821.191
14.761	21.977	1075.501	854.956
15.775	22.330	1074.723	855.979
16.790	21.631	1072.965	851.109
17.804	20.627	1070.732	844.390
18.819	19.605	1069.024	838.014
19.834	19.246	1067.663	835.132
20.848	19.208	1066.410	833.897
21.863	19.061	1066.139	832.896
22.877	18.990	1065.332	831.850
23.892	18.645	1064.656	829.581
24.907	18.515	1064.023	828.384
25.921	18.603	1063.014	827.951
26.936	18.540	1062.182	826.925
27.950	18.620	1060.992	826.311
28.965	18.636	1059.928	825.487
29.980	18.590	1058.909	824.398
30.994	18.857	1058.010	824.909
32.009	18.978	1057.380	824.926
33.023	18.953	1056.598	824.122
34.038	19.101	1055.034	823.538
35.053	18.758	1054.958	821.762
36.067	18.785	1053.507	820.689
37.082	18.567	1052.909	819.112
38.096	18.664	1051.908	818.723
39.111	18.782	1051.490	818.887
40.126	18.958	1050.272	818.703
41.140	18.762	1049.328	816.963
42.155	18.635	1047.409	814.794
43.169	18.302	1046.825	812.689
44.184	18.282	1045.486	811.483
45.199	18.338	1044.285	810.744
46.213	18.289	1043.728	810.006
47.228	18.388	1042.534	809.475
48.242	18.493	1042.196	809.638
49.257	18.748	1041.101	809.916
50.271	18.809	1040.465	809.639
51.286	18.802	1039.072	808.450
52.301	18.860	1038.639	808.315
53.315	18.770	1037.804	807.172
54.330	18.603	1036.981	805.678
55.344	18.516	1035.796	804.275
56.359	18.373	1035.014	802.925
57.374	18.466	1034.103	802.583
58.388	18.555	1032.857	801.964
59.403	18.363	1032.037	800.360
60.417	18.252	1031.335	799.226
61.432	18.282	1030.830	798.903
62.447	18.295	1029.850	798.134
63.461	18.298	1029.154	797.538
64.476	18.129	1027.820	795.648
65.490	17.937	1027.796	794.664
66.505	17.969	1026.169	793.484
67.520	18.082	1025.366	793.317
68.534	18.088	1024.963	792.965
69.549	18.125	1023.861	792.212
70.563	18.116	1023.374	791.721
71.578	18.013	1022.781	790.720
72.593	17.911	1021.458	789.154
73.607	17.985	1020.443	788.643
74.622	17.897	1019.402	787.359
75.636	17.921	1018.809	786.946
76.651	17.944	1017.893	786.272
77.666	18.113	1016.870	786.192
78.680	18.018	1016.775	785.612
79.695	17.959	1016.001	784.674
80.709	18.077	1015.365	784.654
81.724	18.120	1014.727	784.286
82.739	18.250	1013.842	784.128
83.753	18.408	1013.191	784.283
84.768	18.450	1012.639	783.975
85.782	18.830	1011.518	784.777
86.797	19.086	1011.223	785.648
87.812	18.977	1010.761	784.719
88.826	18.690	1009.878	782.657
89.841	18.526	1009.209	781.321
90.855	18.816	1008.092	781.705
91.870	18.761	1007.690	781.074
92.884	18.873	1006.817	780.838
93.899	18.837	1005.991	779.968
94.914	18.927	1005.066	779.586
95.928	18.911	1004.494	779.003
96.943	18.905	1003.862	778.416
97.957	18.761	1002.963	776.997
98.972	18.802	1001.900	776.294
99.987	18.763	1000.858	775.239
101.001	18.942	1000.332	775.570
102.016	18.922	999.261	774.581
103.030	18.818	998.731	773.635
104.045	18.805	997.844	772.820
105.060	18.708	997.650	772.165
106.074	18.583	995.906	770.186
107.089	18.582	994.415	768.959
108.103	18.098	994.008	766.409
109.118	18.240	992.441	765.767
110.133	18.174	991.822	764.928
111.147	18.206	990.730	764.160
112.162	18.086	989.609	762.692
113.176	18.131	989.177	762.491
114.191	18.283	988.427	762.525
115.206	18.280	987.696	761.883
116.220	18.338	987.157	761.654
117.235	18.362	985.579	760.477
118.249	18.302	984.813	759.554
119.264	18.221	983.903	758.425
120.279	18.055	983.491	757.306
121.293	18.152	982.355	756.794
122.308	18.117	981.597	755.987
123.322	17.952	980.719	754.514
124.337	18.028	979.130	753.560
125.352	17.845	978.347	752.083
126.366	17.848	977.415	751.316
127.381	17.962	976.001	750.664
128.395	17.938	974.835	749.595
129.410	18.010	974.088	749.271
130.424	18.009	973.298	748.591
131.439	18.119	972.719	748.562
132.454	18.267	971.786	748.424
133.468	18.339	971.587	748.520
134.483	18.251	970.702	747.387
135.497	18.428	969.881	747.459
136.512	18.253	969.613	746.423
137.527	18.311	968.721	745.923
138.541	18.318	967.979	745.317
139.556	18.333	967.372	744.850
140.570	18.421	966.464	744.465
141.585	18.255	966.029	743.343
142.600	18.754	965.269	744.858
143.614	18.801	964.282	744.237
144.629	18.707	963.721	743.329
145.643	19.010	963.125	744.115
146.658	18.919	961.999	742.785
147.673	18.687	961.228	741.124
148.687	18.577	959.971	739.613
149.702	18.518	958.521	738.180
150.716	18.315	958.373	737.124
151.731	18.341	957.109	736.198
152.746	18.388	956.128	735.580
153.760	18.366	956.048	735.362
154.775	18.347	955.286	734.626
155.789	18.561	954.327	734.740
156.804	18.650	953.098	734.113
157.819	18.614	952.508	733.437
158.833	18.674	952.046	733.274
159.848	18.731	951.754	733.227
160.862	18.929	951.041	733.458
161.877	18.840	950.176	732.347
162.892	18.530	949.155	730.177
163.906	18.424	947.899	728.695
164.921	18.190	947.462	727.297
165.935	18.423	945.811	726.957
166.950	18.260	945.327	725.828
167.964	18.478	944.142	725.776
168.979	18.482	943.203	725.009
169.994	18.518	941.876	724.078
171.008	18.431	941.428	723.302
172.023	18.457	940.638	722.738
173.037	18.623	939.778	722.712
174.052	18.825	938.987	722.891
175.067	18.752	938.468	722.120
176.081	18.693	937.585	721.129
177.096	18.432	936.447	719.094
178.110	18.396	935.542	718.187
179.125	18.317	935.278	717.587
180.140	18.512	933.950	717.322
181.154	18.466	933.731	716.897
182.169	18.643	933.018	717.028
183.183	18.747	932.761	717.200
184.198	18.767	932.229	716.813
185.213	18.837	931.104	716.174
186.227	18.868	930.181	715.533
187.242	18.857	929.879	715.190
188.256	19.001	929.112	715.137
189.271	19.111	928.551	715.096
190.286	19.257	927.684	714.973
191.300	18.842	927.345	712.926
192.315	18.395	925.794	709.817
193.329	18.271	924.940	708.589
194.344	18.264	924.539	708.187
195.359	18.407	923.952	708.269
196.373	18.462	923.939	708.421
197.388	18.774	923.132	709.029
198.402	18.734	922.948	708.660
199.417	19.046	922.810	709.777
200.432	19.074	922.413	709.524
201.446	19.316	921.520	709.774
202.461	19.409	921.267	709.899
203.475	19.338	921.269	709.545
204.490	19.381	920.144	708.792
205.504	19.077	919.069	706.654
206.519	19.063	917.765	705.530
207.534	18.974	917.500	704.900
208.548	18.853	916.886	703.870
209.563	18.927	915.979	703.413
210.577	19.003	915.109	702.995
211.592	19.080	914.569	702.830
212.607	19.061	914.619	702.731
213.621	19.309	913.593	702.892
214.636	19.278	912.974	702.226
215.650	19.210	912.573	701.579
216.665	19.234	912.047	701.211
217.680	19.203	911.510	700.611
218.694	19.470	910.664	700.981
219.709	19.431	910.457	700.603
220.723	19.366	909.510	699.547
221.738	19.241	909.234	698.767
222.753	19.345	908.477	698.545
223.767	19.167	907.698	697.164
224.782	19.340	907.024	697.285
225.796	19.417	906.492	697.126
226.811	19.524	905.779	696.946
227.826	19.501	904.718	695.974
228.840	19.291	904.123	694.610
229.855	19.246	903.270	693.711
230.869	19.371	902.638	693.666
231.884	19.111	902.484	692.441
232.899	19.182	901.378	691.818
233.913	19.135	900.464	690.867
234.928	19.034	900.024	690.061
235.942	18.987	899.334	689.284
236.957	19.131	898.326	689.027
237.972	19.013	897.520	687.876
238.986	19.104	896.760	687.597
240.001	18.975	896.526	686.842
241.015	19.120	895.807	686.809
242.030	19.249	895.137	686.749
243.045	19.270	894.519	686.296
244.059	19.246	894.427	686.070
245.074	19.403	893.355	685.809
246.088	19.339	892.769	685.046
247.103	19.509	892.486	685.442
248.117	19.627	891.712	685.255
249.132	19.675	891.686	685.365
250.147	19.860	890.990	685.504
251.161	20.117	890.543	686.118
252.176	19.991	890.654	685.641
253.190	20.082	889.727	685.228
254.205	20.293	888.959	685.409
255.220	20.316	888.427	685.030
256.234	20.325	887.754	684.485
257.249	20.339	886.941	683.853
258.263	20.196	886.344	682.771
259.278	20.111	885.665	681.851
260.293	20.315	885.539	682.498
261.307	20.171	885.082	681.516
262.322	20.384	884.068	681.512
263.336	20.201	883.915	680.617
264.351	20.261	883.455	680.436
265.366	20.351	882.895	680.299
266.380	20.335	882.097	679.560
267.395	20.512	880.983	679.335
268.409	20.320	880.137	677.871
269.424	20.173	879.419	676.684
270.439	20.155	878.901	676.156
271.453	20.244	877.911	675.683
272.468	20.150	876.994	674.551
273.482	20.105	876.567	673.989
274.497	20.038	876.616	673.705
275.512	20.131	875.467	673.123
276.526	19.953	874.933	671.963
277.541	20.028	874.213	671.641
278.555	20.159	873.501	671.542
279.570	20.268	873.278	671.735
280.585	20.438	873.163	672.242
281.599	20.501	872.263	671.732
282.614	20.384	871.341	670.515
283.628	20.330	870.806	669.835
284.643	20.104	870.318	668.527
285.657	20.248	869.562	668.441
286.672	20.165	869.325	667.882
287.687	20.129	868.652	667.168
288.701	20.318	868.123	667.427
289.716	20.174	867.872	666.623
290.730	20.229	866.965	666.080
291.745	20.293	866.340	665.786
292.760	20.362	865.730	665.523
293.774	20.507	864.964	665.430
294.789	20.561	864.965	665.578
295.803	20.526	864.453	664.991
296.818	20.424	863.113	663.513
297.833	20.394	862.422	662.805
298.847	20.213	862.278	661.949
299.862	20.291	861.289	661.428
300.876	20.369	860.655	661.178
301.891	20.629	859.879	661.511
302.906	20.553	859.548	660.912
303.920	20.675	858.837	660.769
304.935	20.746	858.262	660.539
305.949	20.882	858.043	660.826
306.964	20.943	857.369	660.480
307.979	20.716	856.388	658.807
308.993	20.733	855.930	658.462
310.008	20.835	855.426	658.399
311.022	20.717	855.243	657.753
312.037	20.792	854.802	657.643
313.052	20.702	853.853	656.513
314.066	20.590	853.232	655.555
315.081	20.381	852.086	653.828
316.095	20.395	851.717	653.542
317.110	20.448	851.530	653.540
318.125	20.303	851.236	652.711
319.139	20.344	850.393	652.162
320.154	20.382	850.092	652.015
321.168	20.348	849.365	651.271
322.183	20.468	848.973	651.362
323.197	20.525	848.498	651.156
324.212	20.594	847.794	650.814
325.227	20.703	846.949	650.516
326.241	20.765	846.325	650.209
327.256	20.599	846.064	649.334
328.270	20.547	845.506	648.654
329.285	20.563	844.945	648.224
330.300	20.590	844.092	647.612
331.314	20.552	843.633	647.064
332.329	20.539	842.791	646.313
333.343	20.649	842.690	646.585
334.358	20.833	841.933	646.630
335.373	20.741	841.646	646.012
336.387	20.897	841.256	646.233
337.402	20.811	840.891	645.577
338.416	20.919	840.403	645.546
339.431	21.118	839.730	645.709
340.446	21.122	839.231	645.282
341.460	21.215	838.815	645.249
342.475	21.229	838.234	644.796
343.489	21.422	837.355	644.776
344.504	21.576	836.661	644.752
345.519	21.500	836.419	644.228
346.533	21.498	835.748	643.646
347.548	21.488	835.579	643.422
348.562	21.314	835.048	642.320
349.577	21.047	834.352	640.743
350.592	20.992	833.577	639.891
351.606	20.922	833.078	639.195
352.621	20.855	832.581	638.511
353.635	20.799	831.987	637.794
354.650	21.021	831.772	638.387
355.665	21.028	831.302	637.993
356.679	21.055	831.008	637.812
357.694	21.127	830.783	637.845
358.708	21.278	829.839	637.614
359.723	21.354	828.973	637.171
360.738	21.059	828.928	636.002
361.752	21.103	828.510	635.788
362.767	21.170	827.857	635.472
363.781	21.272	828.031	635.922
364.796	21.495	827.271	636.093
365.810	21.434	826.999	635.605
366.825	21.802	826.171	636.249
367.840	21.745	826.158	635.975
368.854	21.728	825.780	635.569
369.869	21.635	824.959	634.540
370.883	21.664	824.312	634.094
371.898	21.449	824.010	633.025
372.913	21.667	823.100	633.060
373.927	21.800	822.910	633.339
374.942	21.640	822.133	632.105
375.956	21.641	821.410	631.499
376.971	21.673	820.911	631.173
377.986	21.755	820.775	631.310
379.000	21.916	819.811	631.091
380.015	22.004	819.604	631.191
381.029	21.994	818.892	630.551
382.044	21.802	818.270	629.327
383.059	21.806	817.676	628.831
384.073	22.000	817.352	629.218
385.088	21.821	816.807	628.105
386.102	21.668	816.032	626.904
387.117	21.565	815.099	625.764
388.132	21.548	814.813	625.429
389.146	21.564	814.222	624.977
390.161	21.667	814.204	625.275
391.175	21.801	813.768	625.363
392.190	21.913	813.385	625.414
393.205	21.879	812.782	624.773
394.219	21.764	812.081	623.768
395.234	21.576	811.492	622.595
396.248	21.463	811.708	622.300
397.263	21.620	810.730	622.055
398.278	21.393	810.297	620.860
399.292	21.342	809.637	620.119
400.307	21.361	809.128	619.743
401.321	21.496	808.878	619.976
402.336	21.428	808.688	619.533
403.350	21.709	808.359	620.221
404.365	21.743	807.882	619.922
405.380	21.838	807.227	619.699
406.394	22.059	807.254	620.445
407.409	22.141	806.289	619.939
408.423	22.271	806.386	620.415
409.438	22.191	806.194	619.933
410.453	22.129	806.106	619.592
411.467	22.409	804.914	619.604
412.482	22.293	804.497	618.823
413.496	22.265	803.920	618.225
414.511	22.429	803.971	618.785
415.526	22.558	803.426	618.765
416.540	22.376	803.278	617.958
417.555	22.295	802.528	617.039
418.569	22.301	802.142	616.710
419.584	22.309	801.767	616.395
420.599	22.364	801.012	615.952
421.613	159.128	1368.060	1789.357
422.628	138.160	1450.725	1789.468
