DTS Sentinel unit serial number:	SN413079Multiplexer serial number:	ORYXHardware model number:	OX4-SRSoftware version number:	ORYX F/W v4.00 Oryx Data Collector v3.7.2.0data status	okinstallation	princeton_trtdifferential loss correction	single-endedforward channel	channel 3reverse channel	N/Adate	2019/09/19time	12:56:35forward acquisition time	60.00reverse acquisition time	0.00gamma	496.2192k internal	0.2330k external	0.2330temperature offset calibration	0.9988default loss term (dB/km)	0.3790temperature slope calibration	1.0000multiplexer offset coefficient	1.0000multiplexer slope coefficient	1.0000fibre end	0.00T internal ref (°C)	28.42T ext. ref 1 (°C)	0.91T ext. ref 2 (°C)	26.72length (m)	temperature (°C)	Stokes	anti-Stokes-747.200	-200.000	-0.006	0.152
-746.185	234.455	0.092	0.152
-745.171	42.389	0.123	-0.112
-744.156	695.669	-0.139	0.366
-743.142	22.278	-0.123	0.101
-742.127	800.000	0.067	0.260
-741.112	90.801	-0.040	0.046
-740.098	800.000	0.038	-0.114
-739.083	-55.799	-0.033	0.015
-738.069	-200.000	0.052	-0.312
-737.054	-200.000	-0.004	-0.064
-736.039	800.000	-0.112	-0.399
-735.025	-13.213	0.154	0.101
-734.010	-23.000	-0.164	-0.100
-732.996	-136.006	-0.271	0.032
-731.981	-200.000	-0.006	-0.052
-730.966	-18.295	-0.119	0.075
-729.952	-3.058	0.263	-0.185
-728.937	-133.900	-0.228	0.028
-727.923	-143.106	-0.369	0.036
-726.908	-200.000	0.056	-0.533
-725.894	-81.789	0.130	0.043
-724.879	-200.000	0.035	0.178
-723.864	-200.000	-0.042	-0.251
-722.850	-200.000	0.002	-0.063
-721.835	-76.311	-0.221	-0.078
-720.821	-200.000	-0.005	-0.333
-719.806	-150.369	0.169	0.013
-718.791	34.024	-0.260	-0.228
-717.777	-200.000	-0.014	0.208
-716.762	-200.000	0.032	-0.176
-715.748	234.669	-0.119	-0.197
-714.733	-52.113	-0.167	-0.078
-713.718	-164.714	0.163	-0.007
-712.704	623.058	0.045	-0.113
-711.689	-137.805	0.528	-0.059
-710.675	110.016	-0.187	-0.225
-709.660	-171.205	0.266	-0.009
-708.645	-200.000	0.039	0.190
-707.631	28.532	0.094	0.080
-706.616	800.000	-0.046	0.139
-705.602	-200.000	-0.037	-0.207
-704.587	-144.885	-0.150	0.014
-703.572	194.970	-0.052	0.079
-702.558	186.570	0.113	-0.169
-701.543	800.000	0.067	-0.209
-700.529	112.958	-0.072	0.088
-699.514	800.000	-0.045	0.145
-698.499	-43.881	0.264	-0.133
-697.485	-200.000	0.004	-0.165
-696.470	-17.363	0.166	0.105
-695.456	148.022	0.042	0.057
-694.441	-89.249	0.130	-0.038
-693.426	7.226	0.077	0.057
-692.412	800.000	0.078	0.289
-691.397	234.953	-0.091	0.150
-690.383	301.110	-0.038	0.070
-689.368	7.250	0.179	-0.134
-688.354	122.921	-0.152	0.191
-687.339	-3.136	0.216	0.151
-686.324	-200.000	0.019	0.231
-685.310	-84.060	-0.306	0.098
-684.295	800.000	-0.066	-0.280
-683.281	-93.669	-0.333	-0.092
-682.266	-177.613	0.115	0.003
-681.251	-25.452	0.425	0.252
-680.237	-23.000	0.056	-0.034
-679.222	-109.997	-0.155	0.033
-678.208	-96.558	-0.216	0.057
-677.193	480.023	-0.108	0.246
-676.178	261.683	0.096	-0.167
-675.164	-50.056	-0.013	0.006
-674.149	-97.536	0.156	-0.041
-673.135	-111.226	0.138	0.028
-672.120	127.801	-0.281	-0.359
-671.105	-166.112	-0.204	-0.009
-670.091	275.036	0.174	0.310
-669.076	-152.779	-0.256	0.018
-668.062	66.299	-0.257	0.262
-667.047	800.000	0.106	0.379
-666.032	-60.828	0.067	-0.029
-665.018	-98.926	-0.102	-0.026
-664.003	800.000	-0.054	-0.209
-662.989	800.000	-0.051	-0.211
-661.974	-200.000	0.007	-0.151
-660.959	316.632	-0.135	-0.256
-659.945	800.000	0.081	0.285
-658.930	-40.401	0.205	-0.107
-657.916	800.000	0.092	-0.351
-656.901	-144.906	0.208	-0.019
-655.886	108.419	-0.073	-0.087
-654.872	9.789	-0.097	-0.074
-653.857	-64.862	-0.270	-0.110
-652.843	800.000	-0.102	0.329
-651.828	-200.000	-0.028	-0.298
-650.814	-87.033	0.135	0.041
-649.799	44.672	-0.273	0.252
-648.784	800.000	-0.098	0.361
-647.770	-56.588	-0.180	-0.080
-646.755	-12.717	0.065	0.042
-645.741	-3.520	0.268	-0.187
-644.726	1.157	0.107	0.077
-643.711	-131.950	0.066	-0.009
-642.697	434.180	-0.071	0.155
-641.682	-78.645	-0.177	-0.061
-640.668	800.000	-0.065	0.210
-639.653	93.168	-0.097	-0.110
-638.638	-200.000	-0.008	0.135
-637.624	17.939	-0.403	-0.322
-636.609	457.956	0.124	-0.277
-635.595	66.422	0.157	-0.160
-634.580	-66.544	0.638	0.254
-633.565	-75.690	-0.181	-0.064
-632.551	-61.549	0.341	0.143
-631.536	-200.000	-0.003	0.111
-630.522	106.825	-0.157	0.186
-629.507	44.302	0.089	-0.082
-628.492	-123.753	-0.123	0.019
-627.478	-131.897	0.214	0.028
-626.463	433.184	-0.064	-0.139
-625.449	-200.000	-0.016	-0.223
-624.434	800.000	-0.009	0.030
-623.419	-57.582	-0.100	-0.044
-622.405	392.891	0.074	-0.155
-621.390	-200.000	0.027	-0.249
-620.376	-200.000	0.003	0.321
-619.361	33.690	0.130	0.114
-618.346	-200.000	0.045	-0.329
-617.332	65.148	-0.118	0.120
-616.317	-61.289	0.370	-0.156
-615.303	-200.000	-0.016	-0.115
-614.288	-18.463	0.180	-0.113
-613.273	-52.918	-0.277	0.128
-612.259	379.897	0.107	-0.221
-611.244	-162.538	-0.105	-0.005
-610.230	-200.000	0.016	0.233
-609.215	-200.000	-0.020	0.101
-608.201	12.404	-0.199	-0.154
-607.186	170.653	0.226	-0.325
-606.171	748.427	-0.017	-0.046
-605.157	-34.369	-0.205	0.113
-604.142	-15.393	-0.118	0.076
-603.128	-200.000	-0.042	0.218
-602.113	-114.385	-0.051	0.010
-601.098	-200.000	-0.031	0.270
-600.084	157.331	-0.238	-0.330
-599.069	800.000	0.055	0.229
-598.055	-136.049	0.061	0.007
-597.040	-166.366	0.271	0.011
-596.025	-14.590	-0.126	0.081
-595.011	-86.308	-0.109	-0.034
-593.996	-98.083	0.241	-0.062
-592.982	-29.927	-0.247	-0.141
-591.967	-65.728	0.538	-0.216
-590.952	383.696	0.273	0.562
-589.938	-90.323	-0.311	0.090
-588.923	800.000	0.120	0.381
-587.909	7.100	-0.115	-0.086
-586.894	168.984	-0.140	0.199
-585.879	-0.286	0.115	0.082
-584.865	-200.000	-0.034	-0.192
-583.850	-86.276	0.209	-0.065
-582.836	-122.842	-0.249	-0.040
-581.821	34.076	0.096	0.084
-580.806	147.153	0.141	0.189
-579.792	-140.575	0.258	-0.027
-578.777	-98.299	0.237	-0.061
-577.763	-181.090	0.214	-0.004
-576.748	800.000	0.095	0.321
-575.733	88.153	0.138	0.153
-574.719	-200.000	-0.039	0.192
-573.704	-33.821	-0.095	0.053
-572.690	-102.825	0.100	-0.024
-571.675	32.724	-0.282	-0.244
-570.661	-200.000	-0.008	0.358
-569.646	182.779	-0.045	-0.066
-568.631	780.767	0.090	-0.246
-567.617	-200.000	0.003	-0.170
-566.602	-154.528	-0.117	0.008
-565.588	99.324	0.052	0.060
-564.573	-200.000	0.010	-0.066
-563.558	800.000	-0.053	0.183
-562.544	152.641	-0.054	0.073
-561.529	629.002	-0.030	-0.075
-560.515	-56.442	-0.158	-0.070
-559.500	-200.000	-0.019	0.297
-558.485	-130.689	0.207	0.028
-557.471	800.000	-0.030	0.127
-556.456	10.490	0.241	-0.183
-555.442	-200.000	-0.080	-0.401
-554.427	-37.875	-0.398	-0.211
-553.412	-200.000	0.006	0.211
-552.398	-112.929	-0.143	-0.028
-551.383	-200.000	-0.020	0.347
-550.369	800.000	0.058	-0.239
-549.354	108.808	0.146	-0.175
-548.339	148.796	0.141	0.191
-547.325	244.209	-0.124	-0.208
-546.310	-70.133	0.174	-0.066
-545.296	800.000	0.043	-0.154
-544.281	-97.483	-0.083	0.022
-543.266	-6.884	0.027	-0.019
-542.252	420.951	0.040	-0.085
-541.237	-144.165	0.261	0.024
-540.223	800.000	-0.023	0.075
-539.208	-54.519	0.368	0.167
-538.193	-65.065	0.107	-0.043
-537.179	-74.869	-0.142	-0.051
-536.164	800.000	0.077	0.265
-535.150	-53.483	0.395	0.181
-534.135	-8.067	-0.244	-0.164
-533.121	0.465	-0.195	-0.139
-532.106	-200.000	0.008	-0.265
-531.091	72.777	-0.133	-0.139
-530.077	-70.653	-0.096	-0.036
-529.062	-18.901	0.230	0.143
-528.048	-200.000	-0.041	-0.260
-527.033	-72.759	-0.235	0.086
-526.018	305.534	0.105	-0.195
-525.004	-200.000	0.052	0.233
-523.989	7.389	0.168	0.126
-522.975	287.954	0.094	-0.170
-521.960	676.179	0.076	-0.198
-520.945	29.787	-0.157	0.133
-519.931	-200.000	0.030	-0.182
-518.916	243.109	0.200	-0.335
-517.902	12.673	-0.270	0.208
-516.887	-54.812	0.133	-0.060
-515.872	-11.838	0.061	-0.040
-514.858	-188.244	0.284	0.004
-513.843	-37.855	-0.054	-0.029
-512.829	-122.924	0.246	0.039
-511.814	269.648	0.168	-0.295
-510.799	-148.462	-0.282	0.023
-509.785	36.822	0.142	-0.125
-508.770	-173.211	0.240	0.007
-507.756	-8.574	0.182	-0.122
-506.741	210.213	0.009	-0.014
-505.726	-40.193	0.027	-0.014
-504.712	-200.000	-0.043	-0.233
-503.697	-200.000	0.026	-0.213
-502.683	79.043	0.195	-0.208
-501.668	13.061	0.065	0.050
-500.653	-118.440	-0.180	-0.032
-499.639	-146.413	0.206	0.018
-498.624	-115.436	-0.139	0.026
-497.610	-83.099	-0.325	0.104
-496.595	95.668	0.179	0.203
-495.581	14.746	0.147	0.115
-494.566	-171.090	-0.210	-0.007
-493.551	-135.028	-0.166	0.020
-492.537	83.695	-0.110	-0.120
-491.522	800.000	0.189	0.538
-490.508	68.048	-0.092	0.094
-489.493	800.000	0.146	0.461
-488.478	-167.234	-0.365	0.015
-487.464	-77.955	0.106	-0.036
-486.449	-44.872	-0.120	-0.060
-485.435	-123.728	0.257	0.040
-484.420	-200.000	0.060	-0.368
-483.405	-200.000	0.020	-0.215
-482.391	25.293	0.303	0.251
-481.376	800.000	0.026	0.107
-480.362	116.480	0.117	-0.143
-479.347	242.647	0.111	-0.186
-478.332	-105.103	-0.095	-0.022
-477.318	64.361	-0.125	0.126
-476.303	-200.000	-0.080	0.526
-475.289	539.889	0.054	-0.129
-474.274	452.530	0.105	-0.232
-473.259	5.125	0.256	-0.188
-472.245	154.719	-0.233	0.319
-471.230	-2.813	-0.396	0.276
-470.216	-53.181	0.180	-0.082
-469.201	360.726	-0.115	0.230
-468.186	77.326	-0.315	-0.334
-467.172	-84.854	-0.217	-0.068
-466.157	-19.946	0.124	-0.076
-465.143	295.393	0.107	-0.196
-464.128	39.334	-0.187	0.167
-463.113	119.002	-0.058	0.072
-462.099	42.137	-0.081	-0.073
-461.084	-36.556	0.299	-0.160
-460.070	392.315	0.139	-0.287
-459.055	91.762	-0.160	0.179
-458.040	-4.707	-0.288	0.198
-457.026	-109.002	-0.345	-0.073
-456.011	-200.000	0.001	-0.235
-454.997	390.524	-0.112	-0.232
-453.982	119.398	0.154	-0.190
-452.968	166.043	-0.286	0.403
-451.953	314.690	0.194	0.364
-450.938	-54.632	0.085	0.038
-449.924	-68.160	0.144	-0.056
-448.909	-54.998	0.072	-0.032
-447.895	-0.482	-0.170	0.120
-446.880	-72.462	0.357	0.131
-445.865	-13.727	0.223	0.144
-444.851	-93.214	-0.414	-0.114
-443.836	47.037	-0.135	0.125
-442.822	-73.762	0.154	-0.056
-441.807	-200.000	-0.002	0.140
-440.792	-51.447	-0.406	-0.189
-439.778	51.995	0.106	-0.101
-438.763	-27.553	-0.158	-0.091
-437.749	246.671	0.123	0.207
-436.734	6.831	-0.429	-0.318
-435.719	278.242	-0.041	0.073
-434.705	-88.795	0.091	-0.027
-433.690	308.149	-0.157	0.291
-432.676	335.228	0.118	0.227
-431.661	185.627	0.123	0.182
-430.646	-158.073	0.101	0.006
-429.632	-78.257	0.219	0.075
-428.617	116.528	0.117	0.142
-427.603	145.846	-0.082	0.110
-426.588	-65.228	0.208	0.084
-425.573	636.313	-0.170	0.429
-424.559	-200.000	0.050	-0.350
-423.544	-138.083	0.400	-0.044
-422.530	-200.000	-0.004	-0.156
-421.515	673.468	-0.079	0.203
-420.500	-123.386	0.169	0.027
-419.486	116.902	0.089	0.108
-418.471	-11.282	0.131	0.086
-417.457	800.000	0.111	0.388
-416.442	-200.000	0.081	0.393
-415.428	-112.330	-0.247	-0.049
-414.413	75.614	0.223	0.234
-413.398	115.012	-0.025	0.030
-412.384	800.000	-0.065	-0.219
-411.369	449.966	0.041	0.091
-410.355	127.231	-0.143	-0.180
-409.340	-200.000	-0.027	-0.178
-408.325	209.977	-0.316	0.493
-407.311	-149.913	0.137	-0.011
-406.296	-168.485	0.195	0.007
-405.282	800.000	-0.033	0.110
-404.267	-29.526	-0.120	0.068
-403.252	34.565	-0.152	0.132
-402.238	-168.624	-0.126	-0.005
-401.223	-200.000	0.003	-0.180
-400.209	2.775	0.291	-0.209
-399.194	10.102	-0.262	-0.198
-398.179	254.783	0.146	0.249
-397.165	24.735	0.185	-0.152
-396.150	-200.000	-0.035	0.276
-395.136	-19.522	0.231	-0.142
-394.121	-200.000	-0.017	0.103
-393.106	117.300	0.213	-0.260
-392.092	-159.539	-0.099	0.005
-391.077	-200.000	0.003	0.133
-390.063	-0.368	0.078	-0.055
-389.048	37.930	0.066	-0.059
-388.033	-20.658	-0.114	-0.069
-387.019	16.795	-0.083	0.065
-386.004	517.274	-0.140	-0.324
-384.990	11.805	-0.166	0.126
-383.975	-200.000	0.041	0.360
-382.960	4.802	-0.048	0.035
-381.946	-143.265	-0.162	-0.015
-380.931	114.417	0.202	-0.244
-379.917	-143.050	-0.135	-0.013
-378.902	-42.343	0.071	-0.036
-377.888	-200.000	0.064	0.313
-376.873	-7.398	-0.221	0.148
-375.858	475.494	-0.066	-0.148
-374.844	177.650	0.155	0.225
-373.829	471.105	0.076	0.169
-372.815	800.000	-0.077	0.243
-371.800	374.544	-0.100	0.203
-370.785	56.265	-0.204	0.196
-369.771	-132.631	-0.398	-0.051
-368.756	-133.623	-0.238	0.030
-367.742	132.998	-0.211	0.270
-366.727	800.000	-0.036	0.144
-365.712	-105.755	0.167	-0.037
-364.698	-200.000	-0.074	-0.336
-363.683	-22.874	-0.240	-0.144
-362.669	-200.000	0.032	-0.399
-361.654	111.606	0.082	-0.098
-360.639	-188.737	0.393	0.005
-359.625	455.689	0.203	0.447
-358.610	-66.115	-0.278	0.110
-357.596	800.000	-0.025	0.099
-356.581	665.038	-0.054	-0.138
-355.566	219.269	0.127	0.201
-354.552	-70.686	0.118	-0.044
-353.537	-200.000	-0.064	0.361
-352.523	-141.195	0.175	0.018
-351.508	56.212	-0.224	-0.215
-350.493	73.742	0.101	-0.105
-349.479	-42.197	0.420	-0.213
-348.464	800.000	-0.089	-0.302
-347.450	800.000	-0.024	-0.076
-346.435	115.979	-0.070	0.085
-345.420	-108.181	0.264	-0.057
-344.406	-4.984	-0.049	-0.033
-343.391	228.350	-0.153	-0.247
-342.377	800.000	-0.062	0.231
-341.362	8.584	-0.340	-0.254
-340.348	-120.183	-0.287	0.049
-339.333	97.215	0.272	0.310
-338.318	-35.506	0.242	0.130
-337.304	102.490	0.137	-0.159
-336.289	529.630	0.044	0.103
-335.275	800.000	-0.066	0.205
-334.260	-200.000	0.035	-0.355
-333.245	-200.000	0.009	0.173
-332.231	122.966	-0.238	0.295
-331.216	175.224	0.176	-0.252
-330.202	28.750	-0.220	-0.185
-329.187	800.000	-0.105	-0.395
-328.172	-110.252	0.182	0.038
-327.158	-148.508	0.145	0.012
-326.143	-135.827	0.125	-0.015
-325.129	-200.000	-0.011	-0.122
-324.114	-85.706	0.305	-0.094
-323.099	-39.230	0.342	-0.178
-322.085	165.813	0.185	-0.260
-321.070	-79.721	0.193	-0.064
-320.056	107.081	0.084	0.099
-319.041	-200.000	0.059	0.257
-318.026	178.501	0.086	-0.124
-317.012	-102.202	0.117	-0.028
-315.997	-142.457	-0.048	0.005
-314.983	152.634	0.119	0.161
-313.968	25.229	0.102	-0.084
-312.953	-121.498	-0.165	-0.027
-311.939	-134.477	-0.253	0.031
-310.924	49.945	-0.188	-0.175
-309.910	-52.529	-0.081	0.037
-308.895	800.000	0.037	0.103
-307.880	193.965	-0.057	-0.085
-306.866	-31.604	0.175	-0.097
-305.851	-138.506	0.108	0.012
-304.837	223.942	0.127	0.204
-303.822	-200.000	-0.009	0.291
-302.807	-200.000	0.028	0.228
-301.793	-67.960	-0.154	-0.059
-300.778	16.061	-0.048	-0.038
-299.764	-200.000	0.048	-0.272
-298.749	800.000	-0.073	-0.250
-297.735	31.959	0.096	-0.082
-296.720	-131.412	0.122	0.016
-295.705	75.411	-0.089	0.093
-294.691	300.116	-0.136	-0.249
-293.676	-76.431	-0.284	-0.099
-292.662	59.785	-0.101	0.098
-291.647	-99.838	-0.041	0.010
-290.632	-121.910	0.228	-0.037
-289.618	141.483	-0.205	-0.269
-288.603	-49.117	0.284	0.135
-287.589	504.010	0.144	-0.329
-286.574	-31.794	0.075	-0.042
-285.559	-118.707	0.361	-0.063
-284.545	-187.665	-0.249	0.003
-283.530	55.424	0.157	-0.150
-282.516	191.014	-0.160	0.238
-281.501	-200.000	-0.054	-0.252
-280.486	53.474	0.161	-0.152
-279.472	-30.990	0.175	0.098
-278.457	-200.000	-0.069	0.467
-277.443	-200.000	-0.023	-0.125
-276.428	114.052	-0.217	-0.261
-275.413	421.480	-0.027	0.057
-274.399	710.733	0.016	0.041
-273.384	17.256	-0.055	0.043
-272.370	89.587	-0.071	-0.078
-271.355	800.000	-0.038	-0.110
-270.340	-137.233	0.344	0.039
-269.326	123.914	-0.259	0.322
-268.311	72.596	0.053	-0.054
-267.297	97.239	-0.011	-0.013
-266.282	735.614	0.091	0.240
-265.267	111.269	-0.192	0.229
-264.253	92.139	-0.275	-0.306
-263.238	-23.903	0.194	-0.115
-262.224	-63.981	-0.140	0.057
-261.209	-24.333	0.120	0.071
-260.195	771.925	-0.018	0.049
-259.180	-200.000	0.030	0.150
-258.165	242.885	-0.026	-0.042
-257.151	-170.450	-0.128	-0.004
-256.136	629.035	0.135	-0.336
-255.122	-150.350	-0.202	-0.015
-254.107	-137.562	0.121	0.013
-253.092	-78.336	-0.148	-0.050
-252.078	-6.507	0.168	0.113
-251.063	142.317	-0.141	0.184
-250.049	427.057	0.053	-0.114
-249.034	-200.000	-0.019	-0.235
-248.019	36.462	0.112	-0.097
-247.005	-48.823	-0.170	0.080
-245.990	54.061	-0.309	0.293
-244.976	-101.291	0.201	0.048
-243.961	-31.607	0.190	0.105
-242.946	91.491	0.136	0.150
-241.932	193.783	0.130	0.195
-240.917	66.087	0.081	0.081
-239.903	-200.000	0.061	0.394
-238.888	-147.579	-0.256	0.021
-237.873	-36.258	0.270	-0.144
-236.859	-37.342	0.193	0.102
-235.844	15.481	-0.283	-0.219
-234.830	42.175	-0.158	0.142
-233.815	800.000	-0.011	-0.045
-232.800	-49.247	-0.221	-0.104
-231.786	-172.810	-0.163	0.005
-230.771	-106.862	-0.083	-0.018
-229.757	290.538	-0.056	-0.101
-228.742	656.427	-0.082	0.207
-227.727	794.876	-0.032	-0.086
-226.713	-67.875	0.229	0.088
-225.698	-11.574	-0.300	0.194
-224.684	-63.622	0.114	-0.046
-223.669	386.832	-0.130	-0.265
-222.655	330.842	-0.078	0.149
-221.640	2.507	-0.038	-0.027
-220.625	-129.686	-0.245	-0.033
-219.611	-200.000	-0.006	-0.102
-218.596	-13.308	0.155	-0.099
-217.582	508.435	-0.096	-0.219
-216.567	-137.383	-0.259	0.029
-215.552	-200.000	0.008	-0.162
-214.538	-130.373	0.125	0.017
-213.523	-200.000	0.008	0.096
-212.509	-110.139	0.455	-0.094
-211.494	-116.213	0.473	-0.087
-210.479	-98.797	0.200	-0.050
-209.465	-72.956	0.151	0.055
-208.450	62.134	-0.197	-0.193
-207.436	225.303	-0.103	0.164
-206.421	-51.241	-0.148	0.068
-205.406	-200.000	0.004	0.095
-204.392	416.108	-0.159	-0.335
-203.377	68.538	-0.126	-0.127
-202.363	-34.462	0.117	-0.063
-201.348	-168.852	0.180	0.007
-200.333	-48.942	0.163	0.077
-199.319	800.000	-0.069	0.224
-198.304	-71.623	0.168	-0.062
-197.290	-172.220	-0.136	0.004
-196.275	-200.000	0.001	-0.006
-195.260	297.213	-0.101	-0.182
-194.246	-173.721	-0.322	-0.009
-193.231	-200.000	-0.007	-0.305
-192.217	-200.000	-0.009	-0.245
-191.202	-48.751	-0.412	0.195
-190.187	316.342	0.079	-0.148
-189.173	-111.098	0.305	-0.062
-188.158	-159.627	-0.112	0.006
-187.144	-165.263	0.225	0.010
-186.129	-137.587	-0.126	0.014
-185.114	-27.011	0.275	-0.158
-184.100	800.000	0.058	0.214
-183.085	5.871	0.171	-0.124
-182.071	-66.304	-0.076	-0.030
-181.056	-200.000	0.002	-0.175
-180.042	575.733	0.155	-0.374
-179.027	-200.000	0.010	-0.139
-178.012	-48.940	0.091	-0.043
-176.998	-97.517	-0.092	-0.024
-175.983	1.394	-0.151	-0.107
-174.969	-200.000	0.009	-0.058
-173.954	-44.464	-0.265	0.131
-172.939	-96.087	0.176	0.046
-171.925	-110.538	-0.299	-0.061
-170.910	-49.790	-0.212	0.099
-169.896	14.810	0.073	0.056
-168.881	15.737	-0.276	-0.214
-167.866	173.860	0.070	0.100
-166.852	-141.746	-0.221	0.022
-165.837	404.777	-0.115	0.239
-164.823	-200.000	0.058	0.437
-163.808	-96.480	-0.116	0.030
-162.793	-200.000	-0.036	-0.178
-161.779	65.685	-0.340	-0.339
-160.764	162.214	-0.165	-0.228
-159.750	-112.763	-0.329	0.064
-158.735	-142.542	0.175	0.017
-157.720	119.941	-0.141	0.172
-156.706	252.848	-0.171	-0.288
-155.691	-34.732	-0.428	0.230
-154.677	800.000	0.051	0.202
-153.662	800.000	-0.118	-0.344
-152.647	-96.648	-0.095	-0.025
-151.633	502.008	-0.014	-0.031
-150.618	89.401	0.109	0.119
-149.604	192.972	-0.086	-0.128
-148.589	59.799	0.206	0.200
-147.574	-150.963	0.163	-0.012
-146.560	-200.000	-0.034	0.236
-145.545	-108.395	0.342	-0.073
-144.531	-58.798	0.057	0.024
-143.516	544.187	-0.054	-0.126
-142.502	662.935	-0.090	-0.228
-141.487	-27.437	0.117	-0.067
-140.472	-81.132	-0.154	-0.050
-139.458	169.360	0.117	-0.165
-138.443	357.443	-0.145	-0.284
-137.429	-81.980	-0.174	0.056
-136.414	14.594	0.098	0.075
-135.399	800.000	0.127	0.366
-134.385	194.892	0.098	0.147
-133.370	525.471	0.118	0.273
-132.356	-62.333	0.316	-0.129
-131.341	260.341	0.095	-0.161
-130.326	-200.000	0.009	0.402
-129.312	119.884	0.213	0.259
-128.297	-80.983	0.149	0.049
-127.283	-109.624	-0.367	-0.076
-126.268	5.184	0.167	0.121
-125.253	241.981	-0.014	-0.022
-124.239	-23.823	0.105	-0.062
-123.224	-130.693	-0.220	-0.029
-122.210	145.384	-0.215	-0.283
-121.195	-54.735	0.098	0.043
-120.180	-106.097	0.399	0.088
-119.166	-151.316	-0.353	0.026
-118.151	283.950	0.127	-0.225
-117.137	800.000	-0.032	-0.095
-116.122	-66.871	0.248	-0.096
-115.107	-122.373	-0.123	0.020
-114.093	800.000	0.102	0.373
-113.078	-74.202	0.308	-0.109
-112.064	-38.131	0.141	-0.074
-111.049	641.114	-0.129	-0.324
-110.034	-43.701	-0.090	0.044
-109.020	705.745	-0.187	-0.484
-108.005	-126.287	0.180	-0.026
-106.991	669.527	0.089	0.226
-105.976	48.881	-0.201	0.185
-104.962	-131.491	0.204	-0.026
-103.947	800.000	-0.034	0.109
-102.932	533.818	-0.103	-0.239
-101.918	512.593	0.094	-0.215
-100.903	800.000	0.103	0.296
-99.889	-37.445	-0.313	-0.164
-98.874	-129.799	-0.270	-0.036
-97.859	-98.801	0.245	0.061
-96.845	47.185	0.135	-0.123
-95.830	-70.571	-0.066	-0.024
-94.816	255.232	-0.102	-0.171
-93.801	316.746	-0.118	-0.219
-92.786	522.251	-0.020	0.046
-91.772	-132.128	-0.165	-0.021
-90.757	-94.592	-0.097	-0.026
-89.743	-200.000	0.002	0.023
-88.728	-200.000	0.042	0.247
-87.713	-46.084	0.118	0.057
-86.699	-55.224	0.340	-0.150
-85.684	-200.000	0.015	-0.346
-84.670	566.992	0.110	-0.262
-83.655	-143.321	-0.338	-0.032
-82.640	733.423	-0.012	-0.031
-81.626	-116.680	0.245	0.044
-80.611	78.817	0.130	-0.137
-79.597	144.086	-0.144	-0.189
-78.582	160.863	-0.158	-0.216
-77.567	-200.000	0.048	0.397
-76.553	95.115	0.287	0.320
-75.538	-200.000	-0.055	0.331
-74.524	56.762	0.058	-0.055
-73.509	-27.578	0.118	-0.067
-72.494	-200.000	-0.005	0.334
-71.480	395.208	-0.113	-0.231
-70.465	800.000	-0.062	-0.190
-69.451	-36.267	0.362	-0.192
-68.436	217.121	0.037	-0.058
-67.422	-89.967	-0.175	-0.050
-66.407	95.034	-0.089	0.099
-65.392	65.757	0.233	0.232
-64.378	-29.715	0.307	0.172
-63.363	-194.656	-0.171	0.001
-62.349	-79.555	-0.285	-0.094
-61.334	27.835	-1.027	-0.849
-60.319	137.088	0.379	0.485
-59.305	473.777	-0.455	-1.007
-58.290	328.035	0.584	1.099
-57.276	289.269	0.739	1.314
-56.261	-200.000	108.419	588.951
-55.246	410.257	1530.110	3178.839
-54.232	137.788	2744.131	3522.492
-53.217	101.393	2228.766	2544.097
-52.203	38.664	1746.031	1526.693
-51.188	31.516	1558.591	1312.799
-50.173	29.081	1533.222	1274.546
-49.159	49.955	1589.858	1469.462
-48.144	50.048	1606.087	1485.060
-47.130	31.755	1561.447	1316.682
-46.115	28.814	1546.172	1283.243
-45.100	28.613	1543.051	1279.200
-44.086	28.470	1540.988	1276.448
-43.071	28.406	1538.583	1273.955
-42.057	28.424	1537.216	1272.901
-41.042	28.445	1536.102	1272.070
-40.027	28.369	1534.594	1270.247
-39.013	28.398	1533.080	1269.145
-37.998	28.394	1531.509	1267.769
-36.984	28.299	1530.363	1266.112
-35.969	28.358	1528.944	1265.290
-34.954	28.445	1527.627	1264.750
-33.940	28.466	1525.774	1263.313
-32.925	28.441	1524.600	1262.119
-31.911	28.482	1523.077	1261.090
-30.896	28.485	1521.824	1260.024
-29.881	28.487	1520.662	1259.027
-28.867	28.460	1519.655	1257.958
-27.852	28.457	1518.108	1256.607
-26.838	28.460	1517.030	1255.682
-25.823	28.455	1515.718	1254.515
-24.809	28.504	1513.838	1253.244
-23.794	28.405	1512.216	1251.175
-22.779	28.443	1511.168	1250.520
-21.765	28.508	1510.100	1250.030
-20.750	28.492	1508.981	1248.941
-19.736	28.403	1507.996	1247.470
-18.721	28.438	1506.670	1246.565
-17.706	28.314	1505.933	1245.064
-16.692	28.509	1503.931	1244.681
-15.677	28.404	1503.131	1243.254
-14.663	28.379	1502.330	1242.372
-13.648	28.434	1500.922	1241.537
-12.633	28.525	1499.991	1241.332
-11.619	28.419	1499.130	1239.853
-10.604	28.392	1498.227	1238.875
-9.590	28.406	1497.167	1238.038
-8.575	28.465	1496.417	1237.773
-7.560	28.494	1495.354	1237.039
-6.546	28.214	1495.425	1235.161
-5.531	28.333	1494.136	1234.846
-4.517	28.362	1492.792	1233.882
-3.502	28.485	1491.566	1233.650
-2.487	28.333	1490.947	1232.065
-1.473	28.390	1489.621	1231.301
-0.458	28.391	1488.471	1230.310
0.556	27.823	1479.173	1222.173
1.571	25.443	1454.593	1186.063
2.586	22.330	1391.456	1114.791
3.600	20.489	1304.859	1034.372
4.615	18.607	1258.180	986.469
5.629	15.727	1200.369	925.237
6.644	8.091	1113.626	819.189
7.659	1.850	1073.665	758.727
8.673	1.109	1067.790	750.840
9.688	0.889	1064.469	747.352
10.702	0.821	1063.166	746.036
11.717	0.831	1061.346	744.742
12.731	3.045	1063.215	756.897
13.746	10.157	1073.063	799.080
14.761	15.806	1080.034	832.212
15.775	17.327	1080.946	840.367
16.790	17.048	1079.752	837.982
17.804	15.954	1077.623	830.862
18.819	15.081	1075.813	825.095
19.834	14.677	1074.188	821.787
20.848	14.367	1073.354	819.551
21.863	14.073	1072.917	817.700
22.877	13.892	1071.438	815.612
23.892	13.635	1070.823	813.810
24.907	13.501	1070.645	812.947
25.921	13.599	1068.989	812.093
26.936	13.678	1068.393	811.960
27.950	13.722	1067.633	811.525
28.965	13.692	1066.954	810.789
29.980	13.774	1066.282	810.606
30.994	13.819	1064.792	809.620
32.009	13.766	1064.449	809.031
33.023	13.832	1063.735	808.740
34.038	13.891	1062.923	808.337
35.053	13.806	1061.942	807.106
36.067	13.847	1060.935	806.470
37.082	13.778	1060.331	805.603
38.096	13.760	1059.623	804.905
39.111	13.800	1058.690	804.320
40.126	13.788	1057.782	803.502
41.140	13.727	1056.996	802.537
42.155	13.602	1056.170	801.236
43.169	13.731	1054.892	800.820
44.184	13.640	1053.870	799.532
45.199	13.600	1053.021	798.623
46.213	13.575	1052.129	797.756
47.228	13.716	1050.729	797.301
48.242	13.724	1049.614	796.425
49.257	13.816	1048.353	795.841
50.271	13.664	1047.720	794.559
51.286	13.706	1047.013	794.153
52.301	13.647	1046.338	793.288
53.315	13.686	1045.299	792.620
54.330	13.807	1044.281	792.355
55.344	13.698	1043.855	791.438
56.359	13.605	1042.508	789.905
57.374	13.749	1041.537	789.784
58.388	13.669	1041.100	789.003
59.403	13.604	1040.247	787.976
60.417	13.715	1039.341	787.748
61.432	13.643	1038.511	786.707
62.447	13.732	1037.515	786.307
63.461	13.541	1037.411	785.253
64.476	13.605	1035.921	784.358
65.490	13.617	1035.097	783.724
66.505	13.646	1034.300	783.186
67.520	13.671	1033.597	782.705
68.534	13.609	1032.650	781.623
69.549	13.610	1032.205	781.222
70.563	13.618	1031.277	780.491
71.578	13.585	1030.496	779.675
72.593	13.568	1029.744	778.956
73.607	13.630	1028.526	778.256
74.622	13.603	1027.591	777.356
75.636	13.426	1026.952	775.973
76.651	13.507	1025.969	775.537
77.666	13.489	1025.618	775.119
78.680	13.501	1024.567	774.316
79.695	13.588	1023.880	774.134
80.709	13.593	1023.491	773.794
81.724	13.567	1022.806	773.089
82.739	13.653	1021.797	772.658
83.753	13.547	1021.219	771.656
84.768	13.770	1019.976	771.686
85.782	13.764	1019.668	771.357
86.797	13.856	1018.539	770.865
87.812	13.829	1017.882	770.173
88.826	13.646	1017.110	768.671
89.841	13.610	1016.691	768.120
90.855	13.733	1015.478	767.704
91.870	13.722	1014.676	766.982
92.884	13.765	1013.816	766.459
93.899	13.834	1013.242	766.276
94.914	13.846	1012.395	765.626
95.928	13.913	1011.323	765.056
96.943	13.870	1010.915	764.482
97.957	13.717	1010.665	763.517
98.972	13.772	1009.315	762.682
99.987	13.934	1008.199	762.520
101.001	13.865	1007.522	761.620
102.016	13.760	1006.840	760.559
103.030	13.848	1005.360	759.774
104.045	13.808	1004.866	759.150
105.060	13.895	1003.416	758.387
106.074	13.686	1003.077	757.107
107.089	13.764	1001.778	756.415
108.103	13.824	1001.177	756.168
109.118	13.802	999.862	755.009
110.133	13.654	999.289	753.838
111.147	13.517	998.501	752.554
112.162	13.685	997.084	752.179
113.176	13.653	996.748	751.717
114.191	13.687	995.676	750.994
115.206	13.719	994.963	750.534
116.220	13.784	994.014	750.049
117.235	13.807	993.132	749.421
118.249	13.780	992.209	748.534
119.264	13.848	991.098	747.935
120.279	13.708	990.331	746.662
121.293	13.861	989.458	746.628
122.308	13.849	988.826	746.027
123.322	13.682	988.342	744.848
124.337	13.606	987.523	743.824
125.352	13.743	985.553	742.885
126.366	13.690	984.865	742.066
127.381	13.656	983.701	740.971
128.395	13.654	982.894	740.290
129.410	13.761	981.825	739.892
130.424	13.757	980.654	738.928
131.439	13.854	979.763	738.623
132.454	13.960	978.439	738.030
133.468	13.893	978.204	737.489
134.483	13.757	977.978	736.654
135.497	13.735	977.527	736.148
136.512	13.658	976.581	735.030
137.527	13.743	976.001	734.906
138.541	13.842	974.772	734.354
139.556	13.703	974.324	733.337
140.570	13.757	973.464	732.861
141.585	13.790	972.447	732.175
142.600	13.758	971.914	731.570
143.614	13.877	971.049	731.377
144.629	13.891	970.239	730.764
145.643	13.838	969.710	730.069
146.658	13.898	968.481	729.344
147.673	13.967	967.526	728.862
148.687	13.778	966.651	727.311
149.702	13.871	965.628	726.885
150.716	13.891	964.917	726.371
151.731	13.890	963.871	725.516
152.746	13.881	963.672	725.261
153.760	13.976	962.642	724.838
154.775	13.931	961.599	723.793
155.789	13.953	961.058	723.416
156.804	13.944	960.346	722.778
157.819	13.944	959.251	721.888
158.833	13.901	959.019	721.463
159.848	13.993	958.252	721.221
160.862	13.961	957.534	720.480
161.877	13.952	956.725	719.767
162.892	14.091	955.433	719.334
163.906	14.011	954.816	718.460
164.921	13.870	954.367	717.447
165.935	13.943	952.930	716.619
166.950	13.888	952.173	715.750
167.964	13.949	951.143	715.174
168.979	13.983	950.120	714.488
169.994	14.149	948.761	714.115
171.008	14.046	948.210	713.198
172.023	14.113	947.190	712.652
173.037	14.111	947.040	712.467
174.052	14.085	946.162	711.636
175.067	14.061	945.469	710.946
176.081	13.960	944.644	709.833
177.096	14.115	943.584	709.637
178.110	14.026	943.180	708.889
179.125	14.065	942.373	708.384
180.140	13.949	941.694	707.316
181.154	14.196	940.724	707.579
182.169	14.103	940.549	706.986
183.183	14.253	939.125	706.492
184.198	14.235	938.915	706.195
185.213	14.351	937.477	705.541
186.227	14.220	937.212	704.724
187.242	14.249	936.790	704.471
188.256	14.297	936.080	704.077
189.271	14.378	935.471	703.896
190.286	14.315	934.549	702.877
191.300	14.263	934.029	702.204
192.315	14.168	932.835	700.844
193.329	14.229	932.136	700.512
194.344	14.150	931.904	699.943
195.359	14.168	931.347	699.537
196.373	14.191	930.783	699.148
197.388	14.382	930.130	699.400
198.402	14.265	930.000	698.749
199.417	14.406	929.270	698.731
200.432	14.360	928.632	697.997
201.446	14.441	927.937	697.750
202.461	14.483	927.880	697.822
203.475	14.482	927.261	697.292
204.490	14.614	926.368	697.107
205.504	14.595	925.532	696.340
206.519	14.507	924.736	695.311
207.534	14.454	924.060	694.519
208.548	14.541	923.596	694.473
209.563	14.466	923.039	693.681
210.577	14.452	922.174	692.909
211.592	14.473	921.532	692.455
212.607	14.614	921.112	692.663
213.621	14.683	920.544	692.459
214.636	14.729	919.519	691.817
215.650	14.691	918.525	690.853
216.665	14.738	918.239	690.770
217.680	14.760	917.507	690.250
218.694	14.726	917.366	689.942
219.709	14.698	916.992	689.483
220.723	14.742	915.753	688.673
221.738	14.612	915.315	687.745
222.753	14.719	914.833	687.765
223.767	14.680	914.171	687.046
224.782	14.778	912.860	686.401
225.796	14.793	912.290	685.975
226.811	14.921	911.306	685.700
227.826	14.883	910.778	685.086
228.840	14.884	909.687	684.208
229.855	14.836	909.563	683.858
230.869	14.823	908.964	683.294
231.884	14.768	908.298	682.508
232.899	14.849	907.443	682.137
233.913	14.850	906.848	681.633
234.928	14.676	906.262	680.423
235.942	14.847	905.531	680.511
236.957	14.803	904.639	679.601
237.972	14.853	903.911	679.197
238.986	14.775	903.383	678.423
240.001	14.853	902.696	678.162
241.015	14.900	901.987	677.761
242.030	14.742	901.573	676.749
243.045	14.890	900.645	676.591
244.059	14.969	900.173	676.495
245.074	14.949	899.306	675.706
246.088	15.102	898.900	675.956
247.103	14.983	898.231	674.913
248.117	15.102	897.258	674.602
249.132	15.033	897.205	674.225
250.147	15.143	896.668	674.208
251.161	15.163	895.766	673.549
252.176	15.234	895.207	673.352
253.190	15.198	894.384	672.532
254.205	15.299	893.365	672.110
255.220	15.287	893.086	671.794
256.234	15.413	892.495	671.792
257.249	15.313	891.850	670.846
258.263	15.275	890.984	669.985
259.278	15.319	890.456	669.704
260.293	15.310	890.187	669.408
261.307	15.429	889.564	669.355
262.322	15.414	888.911	668.745
263.336	15.498	888.286	668.549
264.351	15.361	888.160	667.851
265.366	15.550	887.045	667.701
266.380	15.493	886.390	666.923
267.395	15.479	885.819	666.381
268.409	15.537	884.596	665.630
269.424	15.558	884.345	665.466
270.439	15.454	883.611	664.443
271.453	15.561	882.297	663.820
272.468	15.559	882.005	663.532
273.482	15.479	881.319	662.644
274.497	15.504	880.965	662.417
275.512	15.582	880.211	662.097
276.526	15.547	879.523	661.383
277.541	15.607	878.460	660.762
278.555	15.582	878.226	660.428
279.570	15.815	877.386	660.653
280.585	15.707	876.869	659.785
281.599	15.796	876.292	659.639
282.614	15.864	875.964	659.600
283.628	15.737	875.146	658.428
284.643	15.670	874.784	657.835
285.657	15.772	874.173	657.718
286.672	15.766	873.717	657.293
287.687	15.815	873.234	657.065
288.701	15.834	872.559	656.571
289.716	15.719	872.289	655.863
290.730	15.780	871.617	655.534
291.745	15.851	870.684	655.051
292.760	15.984	869.845	654.881
293.774	15.982	869.243	654.362
294.789	15.827	869.391	653.812
295.803	15.876	868.353	653.166
296.818	15.945	867.724	652.899
297.833	15.765	867.225	651.768
298.847	15.923	866.315	651.639
299.862	15.984	865.610	651.287
300.876	15.828	865.051	650.205
301.891	15.976	864.044	649.963
302.906	16.073	863.450	649.833
303.920	16.142	862.772	649.530
304.935	16.185	862.256	649.252
305.949	16.229	861.610	648.874
306.964	16.119	860.906	647.865
307.979	16.028	860.537	647.181
308.993	16.211	859.973	647.402
310.008	16.236	859.195	646.855
311.022	16.152	858.963	646.302
312.037	16.191	858.287	645.884
313.052	16.205	858.002	645.667
314.066	16.244	857.031	645.030
315.081	16.086	856.611	644.052
316.095	16.101	856.490	643.961
317.110	16.229	855.290	643.491
318.125	16.103	855.272	642.940
319.139	16.186	854.184	642.379
320.154	16.247	854.051	642.455
321.168	16.286	853.079	641.815
322.183	16.066	853.134	640.965
323.197	16.284	852.271	641.088
324.212	16.344	851.569	640.731
325.227	16.329	850.940	640.144
326.241	16.467	850.163	640.025
327.256	16.397	849.788	639.421
328.270	16.378	849.312	638.935
329.285	16.205	848.811	637.846
330.300	16.396	848.226	638.073
331.314	16.334	847.761	637.431
332.329	16.462	847.017	637.298
333.343	16.421	846.241	636.503
334.358	16.452	845.714	636.167
335.373	16.560	845.150	636.094
336.387	16.605	844.542	635.749
337.402	16.374	844.414	634.727
338.416	16.460	843.384	634.220
339.431	16.531	843.245	634.328
340.446	16.688	842.337	634.175
341.460	16.725	841.429	633.575
342.475	16.702	841.253	633.298
343.489	16.548	840.917	632.414
344.504	16.728	840.198	632.490
345.519	16.703	839.883	632.104
346.533	16.812	839.199	631.940
347.548	16.625	838.868	630.938
348.562	16.730	838.169	630.747
349.577	16.676	837.525	630.005
350.592	16.814	837.011	630.076
351.606	16.722	836.636	629.394
352.621	16.770	836.217	629.203
353.635	16.821	835.822	629.039
354.650	16.987	835.219	629.146
355.665	16.896	834.661	628.332
356.679	16.668	834.688	627.451
357.694	16.777	833.944	627.241
358.708	16.655	833.460	626.372
359.723	16.889	832.658	626.579
360.738	16.992	832.136	626.507
361.752	16.905	831.817	625.892
362.767	16.798	831.431	625.153
363.781	16.919	831.083	625.280
364.796	16.891	830.688	624.823
365.810	17.033	829.763	624.598
366.825	17.064	829.733	624.635
367.840	17.029	829.327	624.143
368.854	17.067	828.908	623.912
369.869	17.047	828.397	623.399
370.883	17.047	827.855	622.936
371.898	17.200	827.343	623.055
372.913	17.191	826.359	622.227
373.927	17.150	825.717	621.540
374.942	17.160	825.289	621.197
375.956	17.224	824.724	620.952
376.971	17.269	824.265	620.714
377.986	17.217	823.719	620.061
379.000	17.275	822.852	619.563
380.015	17.270	822.457	619.195
381.029	17.280	822.044	618.864
382.044	17.245	821.713	618.433
383.059	17.297	820.919	617.971
384.073	17.347	820.437	617.735
385.088	17.355	820.166	617.505
386.102	17.471	819.215	617.155
387.117	17.264	818.691	615.955
388.132	17.330	818.396	615.919
389.146	17.364	817.952	615.653
390.161	17.399	817.619	615.474
391.175	17.199	817.529	614.626
392.190	17.325	816.771	614.459
393.205	17.397	816.180	614.219
394.219	17.359	816.045	613.926
395.234	17.543	815.185	613.890
396.248	17.508	814.680	613.326
397.263	17.379	814.491	612.668
398.278	17.385	813.879	612.173
399.292	17.575	813.132	612.242
400.307	17.394	813.018	611.452
401.321	17.362	812.541	610.922
402.336	17.534	812.068	611.131
403.350	17.549	811.651	610.818
404.365	17.678	810.987	610.725
405.380	17.612	810.666	610.193
406.394	17.634	810.168	609.843
407.409	17.769	809.440	609.723
408.423	17.700	809.449	609.430
409.438	17.783	808.786	609.174
410.453	17.546	808.740	608.236
411.467	17.805	807.649	608.285
412.482	17.823	807.277	608.017
413.496	17.915	806.846	607.964
414.511	17.819	807.005	607.691
415.526	17.707	806.325	606.726
416.540	17.881	805.825	606.913
417.555	17.789	805.536	606.318
418.569	17.859	805.080	606.168
419.584	17.873	804.452	605.693
420.599	17.809	804.038	605.099
421.613	111.437	1293.823	1474.698
422.628	96.117	1365.172	1474.788
