DTS Sentinel unit serial number:	SN413079Multiplexer serial number:	ORYXHardware model number:	OX4-SRSoftware version number:	ORYX F/W v4.00 Oryx Data Collector v3.7.2.0data status	okinstallation	princeton_trtdifferential loss correction	single-endedforward channel	channel 3reverse channel	N/Adate	2019/09/12time	18:22:04forward acquisition time	15.00reverse acquisition time	0.00gamma	496.2192k internal	0.2317k external	0.2317temperature offset calibration	1.0097default loss term (dB/km)	0.3790temperature slope calibration	1.0000multiplexer offset coefficient	1.0000multiplexer slope coefficient	1.0000fibre end	0.00T internal ref (°C)	33.37T ext. ref 1 (°C)	2.97T ext. ref 2 (°C)	28.07length (m)	temperature (°C)	Stokes	anti-Stokes-747.200	-80.806	0.513	-0.173
-746.185	800.000	-0.064	-0.187
-745.171	-45.900	0.860	0.430
-744.156	800.000	-0.384	1.318
-743.142	-200.000	-0.043	0.869
-742.127	-151.046	-0.596	-0.045
-741.112	402.337	0.684	1.456
-740.098	-112.918	0.204	-0.041
-739.083	8.900	-0.443	-0.338
-738.069	55.341	0.333	0.326
-737.054	-96.155	0.728	0.196
-736.039	-67.693	-0.215	-0.085
-735.025	167.138	0.479	0.688
-734.010	-200.000	-0.071	0.562
-732.996	-107.425	-0.533	-0.118
-731.981	-163.647	-0.495	0.024
-730.966	41.910	0.532	-0.488
-729.952	-109.336	0.619	-0.133
-728.937	-200.000	-0.087	-0.919
-727.923	-161.840	-0.856	-0.044
-726.908	-131.732	0.231	0.031
-725.894	72.658	-0.967	-1.021
-724.879	-200.000	0.138	-1.070
-723.864	528.938	-0.291	-0.695
-722.850	56.090	0.427	-0.419
-721.835	121.445	0.246	-0.310
-720.821	-87.303	-0.941	0.289
-719.806	-200.000	-0.037	-0.316
-718.791	-200.000	-0.016	0.627
-717.777	-31.487	0.140	0.079
-716.762	399.674	0.117	0.249
-715.748	800.000	0.212	-0.678
-714.733	800.000	-0.079	-0.276
-713.718	-200.000	-0.068	-1.108
-712.704	-200.000	-0.004	-0.407
-711.689	130.831	0.266	-0.345
-710.675	132.317	-0.339	-0.442
-709.660	246.576	0.259	0.441
-708.645	326.942	-0.217	0.421
-707.631	-200.000	0.072	-0.725
-706.616	800.000	0.155	0.612
-705.602	-200.000	-0.078	-0.380
-704.587	-193.687	-0.384	-0.003
-703.572	216.080	-0.099	-0.159
-702.558	-15.900	0.761	-0.490
-701.543	-110.497	1.107	0.232
-700.529	-136.654	0.201	-0.024
-699.514	-80.756	0.928	0.312
-698.499	-48.221	-1.091	0.532
-697.485	-200.000	-0.038	0.333
-696.470	800.000	-0.238	0.774
-695.456	-72.773	0.958	0.357
-694.441	148.853	-0.080	0.109
-693.426	-132.753	0.333	-0.043
-692.412	-97.526	0.319	-0.084
-691.397	-55.275	0.140	0.063
-690.383	-59.602	-0.321	-0.139
-689.368	-31.147	-0.419	0.239
-688.354	250.872	-0.163	0.281
-687.339	-37.038	0.382	0.207
-686.324	-127.370	0.390	-0.057
-685.310	-148.515	0.270	-0.022
-684.295	800.000	0.102	0.289
-683.281	21.323	0.351	0.288
-682.266	-36.791	-0.603	0.327
-681.251	703.871	-0.132	-0.351
-680.237	-27.341	-0.032	-0.019
-679.222	800.000	0.215	-0.935
-678.208	800.000	-0.021	-0.061
-677.193	146.649	-0.113	-0.153
-676.178	-200.000	-0.012	0.202
-675.164	-143.700	-0.339	0.032
-674.149	-29.161	0.388	-0.225
-673.135	515.947	-0.278	0.656
-672.120	110.573	0.150	-0.182
-671.105	20.422	0.128	0.104
-670.091	800.000	-0.255	-0.877
-669.076	164.581	0.099	0.141
-668.062	10.709	-0.842	0.648
-667.047	210.675	-0.361	-0.573
-666.032	357.362	-0.504	1.015
-665.018	800.000	0.277	-1.145
-664.003	-100.930	0.469	0.116
-662.989	800.000	0.181	0.514
-661.974	173.368	0.131	0.191
-660.959	-200.000	-0.201	-1.346
-659.945	-200.000	-0.060	-0.427
-658.930	675.773	0.106	-0.278
-657.916	-96.427	0.887	-0.237
-656.901	79.401	0.214	-0.232
-655.886	-200.000	0.093	0.710
-654.872	-200.000	-0.134	-1.166
-653.857	-96.649	-0.350	-0.093
-652.843	478.973	0.353	0.806
-651.828	-200.000	-0.025	0.933
-650.814	-159.717	0.557	-0.031
-649.799	-159.054	0.627	0.036
-648.784	99.813	0.112	0.131
-647.770	-200.000	0.037	-0.733
-646.755	-98.202	-0.569	-0.147
-645.741	138.393	-0.395	0.523
-644.726	111.211	-0.481	0.584
-643.711	140.600	0.196	0.261
-642.697	-200.000	-0.190	0.979
-641.682	-111.312	-0.765	0.158
-640.668	800.000	-0.154	-0.455
-639.653	-34.272	0.041	0.023
-638.638	-200.000	0.131	0.905
-637.624	800.000	-0.257	-0.796
-636.609	305.577	-0.018	0.034
-635.595	-70.530	-0.781	0.298
-634.580	50.680	0.423	0.404
-633.565	157.303	-0.340	0.474
-632.551	-94.330	0.856	0.236
-631.536	-35.620	0.471	0.257
-630.522	-200.000	-0.036	-0.272
-629.507	125.084	0.457	0.581
-628.492	-200.000	-0.014	0.074
-627.478	-21.539	-0.587	-0.361
-626.463	104.432	-0.159	-0.188
-625.449	26.283	0.278	0.234
-624.434	100.568	-0.232	0.271
-623.419	-200.000	-0.039	-0.273
-622.405	-116.537	0.073	-0.014
-621.390	295.926	-0.052	0.096
-620.376	-139.803	0.380	0.041
-619.361	-90.236	-0.353	0.103
-618.346	-200.000	0.087	-0.565
-617.332	-115.101	-0.160	-0.031
-616.317	514.623	-0.336	0.790
-615.303	800.000	0.182	-0.780
-614.288	192.152	0.318	-0.483
-613.273	800.000	0.238	-0.871
-612.259	-200.000	-0.013	-0.125
-611.244	184.634	0.244	0.365
-610.230	17.707	0.091	-0.073
-609.215	-200.000	-0.088	-0.903
-608.201	-18.521	0.765	-0.481
-607.186	800.000	-0.104	-0.395
-606.171	-131.975	-0.604	0.079
-605.157	-114.790	-0.287	0.055
-604.142	-85.606	-0.456	-0.143
-603.128	6.307	-0.156	0.116
-602.113	313.656	-0.182	-0.344
-601.098	-58.960	-0.339	0.148
-600.084	-166.989	-0.837	-0.034
-599.069	60.714	0.302	0.301
-598.055	30.022	-0.514	0.441
-597.040	388.485	0.087	-0.181
-596.025	-48.808	0.328	-0.158
-595.011	-120.428	0.353	-0.061
-593.996	-90.352	-0.443	-0.129
-592.982	15.890	0.455	-0.361
-591.967	-176.888	-0.617	-0.016
-590.952	140.924	-0.092	-0.122
-589.938	193.454	0.250	-0.381
-588.923	-35.458	-0.385	0.211
-587.909	547.613	-0.465	-1.121
-586.894	-108.416	0.626	-0.136
-585.879	58.108	0.536	0.529
-584.865	-144.441	-0.507	-0.047
-583.850	270.392	0.292	-0.517
-582.836	66.844	0.560	-0.574
-581.821	341.697	-0.195	0.383
-580.806	-95.302	-0.226	-0.061
-579.792	-200.000	-0.002	-0.226
-578.777	3.020	-0.186	-0.136
-577.763	380.634	0.139	-0.286
-576.748	-48.696	-0.315	0.152
-575.733	-48.021	0.502	0.244
-574.719	200.649	-0.227	0.352
-573.704	95.966	-0.555	-0.638
-572.690	95.533	0.357	-0.410
-571.675	708.360	-0.161	-0.428
-570.661	-44.604	-0.490	-0.246
-569.646	-139.526	0.895	-0.096
-568.631	65.187	-0.109	-0.111
-567.617	415.919	-0.141	-0.303
-566.602	-72.329	-0.458	-0.171
-565.588	-6.431	-0.657	0.451
-564.573	107.432	-0.266	0.318
-563.558	-92.656	0.558	-0.157
-562.544	-200.000	-0.076	0.529
-561.529	-70.832	0.086	0.032
-560.515	293.728	0.333	0.612
-559.500	51.336	-0.319	-0.305
-558.485	326.503	-0.238	-0.457
-557.471	-142.568	0.445	0.044
-556.456	-200.000	-0.009	0.568
-555.442	-200.000	-0.044	-0.282
-554.427	-200.000	0.007	-0.159
-553.412	67.992	-0.410	0.422
-552.398	-200.000	0.006	-0.187
-551.383	-154.092	0.915	0.062
-550.369	-165.222	-0.367	-0.016
-549.354	-179.357	0.416	-0.009
-548.339	513.943	-0.185	0.434
-547.325	-9.812	-0.234	-0.157
-546.310	-17.097	0.678	0.430
-545.296	800.000	0.137	0.569
-544.281	-33.341	-0.365	-0.203
-543.266	146.256	0.401	-0.541
-542.252	-129.319	0.162	-0.023
-541.237	35.285	0.287	0.253
-540.223	103.923	-0.397	-0.468
-539.208	-200.000	-0.015	-0.260
-538.193	442.815	-0.163	-0.358
-537.179	63.297	-0.259	-0.261
-536.164	-19.466	-0.304	0.189
-535.150	191.590	0.122	0.184
-534.135	-131.291	-0.480	-0.064
-533.121	-200.000	0.019	0.229
-532.106	-53.828	-0.362	0.166
-531.091	363.375	-0.105	0.212
-530.077	-106.104	0.808	-0.182
-529.062	152.264	0.188	0.258
-528.048	216.939	-0.265	0.424
-527.033	-70.643	-0.143	0.054
-526.018	-200.000	-0.040	-0.334
-525.004	-138.264	-1.147	-0.127
-523.989	-109.928	-0.203	-0.043
-522.975	14.767	0.200	0.157
-521.960	-154.250	0.316	0.021
-520.945	-43.162	-0.371	0.189
-519.931	-21.924	-0.260	-0.159
-518.916	-200.000	-0.038	0.783
-517.902	28.187	-0.380	0.322
-516.887	-177.181	-0.395	0.010
-515.872	44.803	0.853	-0.788
-514.858	-200.000	0.020	-0.648
-513.843	-200.000	-0.020	0.127
-512.829	12.604	0.526	0.407
-511.814	103.086	-0.496	0.583
-510.799	-84.920	-0.963	0.303
-509.785	569.053	0.172	-0.419
-508.770	-141.523	1.410	0.143
-507.756	-165.006	-0.699	-0.031
-506.741	129.055	0.453	0.580
-505.726	59.269	0.392	-0.387
-504.712	800.000	-0.175	0.512
-503.697	138.089	-0.195	0.257
-502.683	-17.601	-0.326	-0.206
-501.668	171.492	-0.163	-0.235
-500.653	27.287	0.342	-0.289
-499.639	288.226	-0.101	-0.184
-498.624	-59.364	0.613	0.264
-497.610	-29.533	0.470	-0.270
-496.595	-55.048	-0.145	0.066
-495.581	82.866	-0.674	-0.735
-494.566	-65.223	-0.436	-0.176
-493.551	9.081	0.135	-0.103
-492.537	-39.830	-0.038	-0.020
-491.522	100.140	0.587	-0.682
-490.508	-110.480	-0.327	0.068
-489.493	-47.973	-0.250	-0.121
-488.478	-14.026	-0.045	0.029
-487.464	-81.103	0.382	-0.127
-486.449	-135.923	0.625	0.074
-485.435	121.869	-0.532	-0.665
-484.420	676.742	-0.045	-0.118
-483.405	-200.000	0.040	-0.452
-482.391	800.000	-0.335	-1.103
-481.376	-92.760	0.407	-0.114
-480.362	-23.865	-0.409	-0.245
-479.347	-200.000	-0.045	1.495
-478.332	239.182	0.284	0.474
-477.318	-17.048	0.426	0.269
-476.303	-200.000	0.011	-0.123
-475.289	-63.735	0.149	0.061
-474.274	243.641	0.322	0.541
-473.259	-66.004	-1.103	0.441
-472.245	32.809	-0.287	0.249
-471.230	200.531	0.258	0.398
-470.216	-79.353	-0.882	-0.299
-469.201	-200.000	0.007	-0.426
-468.186	-36.511	0.568	-0.306
-467.172	17.467	-0.194	-0.154
-466.157	-200.000	0.033	-0.359
-465.143	730.238	-0.111	-0.298
-464.128	-152.245	-0.604	0.044
-463.113	4.104	-0.581	-0.426
-462.099	-200.000	-0.087	-0.540
-461.084	-200.000	-0.159	0.777
-460.070	-149.792	0.680	0.053
-459.055	-66.452	-0.432	0.172
-458.040	177.859	0.493	-0.720
-457.026	-20.599	0.525	0.323
-456.011	-200.000	-0.044	0.478
-454.997	-107.296	-0.289	0.064
-453.982	800.000	0.103	0.377
-452.968	800.000	-0.032	0.137
-451.953	-5.116	-0.255	0.175
-450.938	25.691	0.746	0.622
-449.924	800.000	-0.320	-1.012
-448.909	-4.362	0.506	0.350
-447.895	-117.648	-0.096	0.017
-446.880	-200.000	0.005	-0.232
-445.865	126.375	0.210	-0.266
-444.851	-61.683	-0.331	-0.139
-443.836	90.397	0.218	-0.244
-442.822	800.000	0.229	-0.782
-441.807	800.000	0.202	0.664
-440.792	-200.000	-0.064	0.300
-439.778	-200.000	-0.154	-0.817
-438.763	800.000	0.106	-0.432
-437.749	-36.041	-0.086	0.046
-436.734	243.394	0.241	-0.404
-435.719	-13.058	0.283	0.184
-434.705	-200.000	-0.050	-0.392
-433.690	-3.403	0.826	0.575
-432.676	-200.000	-0.002	-0.603
-431.661	-12.147	-0.621	-0.406
-430.646	-200.000	0.073	-1.151
-429.632	129.493	0.368	0.471
-428.617	-133.774	0.614	0.076
-427.603	-200.000	-0.005	-0.133
-426.588	-200.000	-0.010	-0.681
-425.573	96.209	0.645	-0.737
-424.559	-65.888	-0.435	-0.174
-423.544	-200.000	-0.032	-0.155
-422.530	-147.428	1.177	-0.100
-421.515	71.097	-0.406	0.421
-420.500	-200.000	-0.013	0.767
-419.486	-168.285	-0.503	-0.019
-418.471	-101.357	-0.612	0.149
-417.457	-200.000	-0.008	-0.856
-416.442	-17.580	-0.514	-0.323
-415.428	376.550	-0.418	0.852
-414.413	169.272	-0.134	0.191
-413.398	-145.248	-0.622	-0.056
-412.384	-111.825	1.096	-0.222
-411.369	212.752	0.128	-0.203
-410.355	-94.550	-0.428	0.116
-409.340	-119.983	1.016	-0.174
-408.325	-200.000	-0.042	-0.354
-407.311	-124.610	-0.181	-0.028
-406.296	726.863	0.139	-0.370
-405.282	49.841	0.574	-0.541
-404.267	-110.180	-0.720	0.150
-403.252	34.248	-0.540	-0.471
-402.238	-76.574	-0.632	0.222
-401.223	-40.117	-0.707	0.368
-400.209	26.389	0.336	0.280
-399.194	-22.925	-0.532	0.321
-398.179	-58.130	-0.729	0.317
-397.165	-103.566	0.505	-0.118
-396.150	-92.279	0.555	0.156
-395.136	-123.934	-0.653	0.103
-394.121	214.530	0.273	-0.431
-393.106	217.800	0.362	-0.577
-392.092	-191.341	-0.347	-0.004
-391.077	4.782	0.856	0.628
-390.063	23.836	0.014	-0.011
-389.048	272.611	0.122	0.215
-388.033	220.541	-0.768	1.230
-387.019	-142.249	-0.524	0.052
-386.004	-148.237	-0.566	0.047
-384.990	61.147	0.153	0.151
-383.975	213.579	-0.255	0.402
-382.960	-200.000	-0.009	0.119
-381.946	800.000	0.124	-0.395
-380.931	800.000	0.142	-0.574
-379.917	-137.522	-0.343	0.039
-378.902	-125.281	0.307	-0.047
-377.888	172.835	0.156	0.225
-376.873	47.993	-0.075	0.070
-375.858	8.832	0.887	-0.667
-374.844	164.874	-0.425	-0.598
-373.829	136.234	0.655	0.853
-372.815	28.055	-0.227	-0.191
-371.800	800.000	0.042	-0.157
-370.785	-60.649	0.787	-0.333
-369.771	256.817	0.233	-0.399
-368.756	-122.232	0.658	-0.107
-367.742	103.504	-0.189	0.221
-366.727	-20.495	-0.767	-0.471
-365.712	13.697	-0.460	-0.357
-364.698	-200.000	0.060	-0.748
-363.683	-102.019	-0.724	-0.174
-362.669	279.012	-0.307	-0.547
-361.654	49.623	-0.357	0.335
-360.639	-36.947	-0.410	0.219
-359.625	-187.109	-0.396	0.005
-358.610	-200.000	0.677	0.002
-357.596	-109.454	-0.243	-0.051
-356.581	-144.425	-0.706	-0.065
-355.566	-113.092	0.195	-0.038
-354.552	-200.000	0.032	-0.170
-353.537	-200.000	-0.018	-0.090
-352.523	-126.648	-0.919	0.136
-351.508	50.120	0.454	-0.428
-350.493	-100.885	0.668	0.164
-349.479	81.352	-0.850	-0.916
-348.464	800.000	-0.077	-0.303
-347.450	800.000	0.177	0.543
-346.435	209.374	0.262	-0.410
-345.420	57.251	0.261	0.254
-344.406	-200.000	0.071	0.424
-343.391	-95.609	-0.964	-0.257
-342.377	180.732	-0.464	0.680
-341.362	488.756	-0.285	-0.649
-340.348	-200.000	0.032	0.813
-339.333	800.000	0.290	0.941
-338.318	200.933	-0.329	-0.505
-337.304	-110.350	0.703	0.146
-336.289	9.511	0.299	0.226
-335.275	456.392	0.411	-0.910
-334.260	-78.867	-0.191	0.065
-333.245	800.000	-0.100	0.304
-332.231	118.916	-0.406	-0.500
-331.216	-146.055	0.178	-0.016
-330.202	-200.000	-0.073	0.348
-329.187	102.999	0.446	0.520
-328.172	129.771	-0.471	-0.600
-327.158	-200.000	0.087	0.964
-326.143	-65.396	0.215	-0.086
-325.129	800.000	0.227	-0.711
-324.114	-200.000	0.148	-0.729
-323.099	800.000	-0.163	0.672
-322.085	380.307	0.281	0.575
-321.070	-107.831	0.593	-0.129
-320.056	-39.999	-0.334	0.173
-319.041	13.810	0.588	-0.455
-318.026	-48.690	-0.509	-0.243
-317.012	-121.709	0.962	-0.158
-315.997	-93.083	0.437	-0.121
-314.983	-134.493	0.718	0.087
-313.968	-200.000	0.013	-1.187
-312.953	-10.421	0.557	0.367
-311.939	-161.370	0.537	0.028
-310.924	11.879	0.712	-0.545
-309.910	39.525	-0.630	-0.562
-308.895	64.378	-0.402	-0.404
-307.880	-143.964	0.375	-0.035
-306.866	26.977	0.468	0.391
-305.851	-82.814	-1.027	-0.330
-304.837	-140.033	0.915	-0.096
-303.822	156.925	-0.218	-0.300
-302.807	-39.605	-0.557	0.290
-301.793	-36.782	-0.759	0.406
-300.778	800.000	0.318	1.065
-299.764	-15.779	0.500	0.317
-298.749	-189.043	-0.595	-0.007
-297.735	-130.969	0.609	0.081
-296.720	-60.934	0.146	-0.062
-295.705	-33.832	-0.291	0.160
-294.691	-94.817	-0.545	0.147
-293.676	186.270	-0.351	-0.520
-292.662	217.747	0.109	-0.173
-291.647	392.061	-0.131	0.270
-290.632	-77.686	-0.701	-0.241
-289.618	-164.205	-0.020	0.001
-288.603	83.110	0.448	0.484
-287.589	800.000	-0.107	-0.340
-286.574	-109.065	0.419	-0.089
-285.559	-200.000	0.209	1.228
-284.545	39.955	-0.388	0.346
-283.530	-46.052	-0.329	-0.161
-282.516	-95.655	0.195	-0.052
-281.501	348.298	0.424	0.832
-280.486	-34.630	0.533	-0.290
-279.472	-156.152	0.409	-0.026
-278.457	7.578	-0.201	-0.150
-277.443	-200.000	-0.055	0.375
-276.428	129.137	0.339	0.430
-275.413	330.252	0.413	-0.790
-274.399	190.902	-0.241	0.360
-273.384	-28.095	-0.428	0.246
-272.370	-200.000	-0.118	0.770
-271.355	-200.000	0.115	0.685
-270.340	-46.455	0.333	-0.162
-269.326	-88.035	1.043	-0.311
-268.311	800.000	-0.183	0.739
-267.297	800.000	-0.081	-0.291
-266.282	10.046	0.479	0.362
-265.267	15.980	-0.231	-0.181
-264.253	-200.000	0.140	-0.841
-263.238	739.648	0.093	0.248
-262.224	-39.485	0.779	-0.406
-261.209	-165.706	0.085	-0.004
-260.195	-151.620	-0.684	-0.050
-259.180	60.942	-0.307	0.303
-258.165	-66.699	0.316	-0.124
-257.151	-158.632	-0.185	-0.011
-256.136	800.000	0.135	-0.394
-255.122	44.395	-0.676	0.617
-254.107	83.080	-0.153	-0.166
-253.092	-47.072	0.203	-0.099
-252.078	-105.426	-0.547	0.124
-251.063	-200.000	0.100	0.500
-250.049	304.681	-0.176	0.324
-249.034	-122.323	0.471	0.076
-248.019	308.806	0.175	0.324
-247.005	-143.377	-0.246	-0.023
-245.990	-86.124	-0.419	0.128
-244.976	800.000	0.342	1.013
-243.961	-96.139	0.790	0.208
-242.946	-200.000	-0.013	-0.755
-241.932	11.820	-0.409	0.312
-240.917	480.234	-0.258	-0.581
-239.903	800.000	-0.305	-0.839
-238.888	-114.532	0.415	-0.079
-237.873	473.057	-0.194	-0.434
-236.859	-200.000	0.097	0.850
-235.844	22.569	-0.705	0.573
-234.830	-85.729	0.209	0.064
-233.815	240.232	0.020	-0.032
-232.800	296.724	0.182	0.331
-231.786	-200.000	-0.092	1.057
-230.771	27.726	-0.606	-0.507
-229.757	83.448	0.375	0.406
-228.742	-111.689	-0.539	-0.108
-227.727	67.659	0.152	-0.154
-226.713	-200.000	-0.071	-0.513
-225.698	210.038	0.348	0.541
-224.684	-200.000	-0.058	0.392
-223.669	71.326	-0.446	0.459
-222.655	142.570	-0.319	0.420
-221.640	255.772	0.262	-0.445
-220.625	-71.503	-0.138	-0.051
-219.611	-100.466	-0.575	0.141
-218.596	-57.967	0.177	-0.077
-217.582	-198.725	-0.275	-0.002
-216.567	-29.621	0.402	0.228
-215.552	-92.333	0.176	0.049
-214.538	-74.395	0.666	0.238
-213.523	-200.000	0.162	-0.844
-212.509	100.744	0.193	0.222
-211.494	49.876	0.826	-0.773
-210.479	304.843	0.392	0.722
-209.465	800.000	0.106	0.406
-208.450	-121.733	0.356	0.058
-207.436	14.572	0.656	0.508
-206.421	0.499	1.156	0.819
-205.406	800.000	-0.151	-0.488
-204.392	-200.000	0.130	1.101
-203.377	800.000	0.130	-0.461
-202.363	60.884	-0.570	-0.561
-201.348	10.131	0.161	0.121
-200.333	800.000	-0.216	0.601
-199.319	800.000	-0.160	-0.470
-198.304	800.000	0.332	0.970
-197.290	105.553	-0.272	-0.318
-196.275	-54.496	0.212	0.095
-195.260	448.492	0.276	0.602
-194.246	-192.172	-0.739	-0.007
-193.231	800.000	0.194	0.713
-192.217	-110.345	0.094	-0.019
-191.202	196.729	-0.253	0.382
-190.187	-40.690	-0.285	0.147
-189.173	-32.969	-0.795	-0.437
-188.158	384.844	-0.098	-0.200
-187.144	-37.013	0.442	-0.235
-186.129	-48.539	0.603	-0.287
-185.114	-64.591	0.289	0.116
-184.100	227.822	0.385	-0.620
-183.085	62.292	-0.180	0.178
-182.071	666.965	0.325	0.832
-181.056	-77.812	0.168	-0.058
-180.042	-200.000	0.182	0.923
-179.027	-27.932	0.287	-0.165
-178.012	0.705	0.730	0.517
-176.998	266.306	-0.592	1.024
-175.983	444.418	-0.087	-0.188
-174.969	-103.287	0.875	-0.205
-173.954	-200.000	-0.121	-0.637
-172.939	28.030	0.234	0.196
-171.925	139.416	-0.290	-0.378
-170.910	-106.812	-0.176	0.039
-169.896	27.557	-0.240	-0.200
-168.881	800.000	-0.200	0.604
-167.866	33.939	0.281	0.242
-166.852	-200.000	0.059	0.709
-165.837	194.633	0.325	-0.489
-164.823	-200.000	0.042	-0.457
-163.808	-200.000	-0.014	-0.108
-162.793	529.875	0.186	0.434
-161.779	-200.000	-0.150	-1.010
-160.764	800.000	0.143	0.510
-159.750	84.842	0.247	-0.268
-158.735	-200.000	-0.073	0.662
-157.720	21.997	0.558	0.450
-156.706	95.576	-0.332	-0.375
-155.691	-3.932	-0.552	-0.379
-154.677	-200.000	0.047	-0.525
-153.662	48.359	-0.813	0.753
-152.647	698.178	-0.073	-0.190
-151.633	-91.662	-0.293	-0.083
-150.618	457.672	0.455	1.001
-149.604	-158.433	0.767	-0.044
-148.589	120.583	-0.272	-0.334
-147.574	-100.111	-0.542	0.134
-146.560	800.000	-0.066	0.239
-145.545	-200.000	-0.121	0.756
-144.531	800.000	0.124	-0.477
-143.516	38.783	0.311	0.275
-142.502	-134.621	1.036	0.125
-141.487	229.160	0.333	-0.537
-140.472	262.707	-0.452	-0.775
-139.458	-127.598	0.245	0.035
-138.443	209.353	0.221	-0.342
-137.429	283.863	-0.642	1.141
-136.414	-95.877	-0.848	-0.224
-135.399	-98.292	1.104	-0.280
-134.385	-200.000	0.081	0.655
-133.370	-122.821	0.437	0.070
-132.356	43.678	0.779	-0.704
-131.341	-200.000	-0.135	0.602
-130.326	40.336	0.327	0.291
-129.312	800.000	0.207	-0.571
-128.297	800.000	-0.297	-0.832
-127.283	-200.000	-0.166	1.175
-126.268	-200.000	-0.059	-0.726
-125.253	-172.066	0.596	-0.019
-124.239	167.172	0.282	-0.395
-123.224	-48.971	-0.466	-0.221
-122.210	-200.000	-0.035	0.778
-121.195	134.236	0.105	0.135
-120.180	89.253	0.289	-0.319
-119.166	-5.982	0.629	-0.425
-118.151	-4.443	0.530	-0.362
-117.137	-176.390	-0.572	0.015
-116.122	-200.000	-0.031	0.566
-115.107	-43.163	0.575	0.288
-114.093	199.532	-0.473	-0.717
-113.078	117.220	-0.379	-0.460
-112.064	-28.730	-0.215	0.122
-111.049	-200.000	0.069	0.705
-110.034	-151.319	0.541	-0.040
-109.020	-88.783	-0.231	0.068
-108.005	408.703	-0.085	-0.178
-106.991	-200.000	-0.075	0.816
-105.976	-173.368	0.569	-0.017
-104.962	-153.327	0.718	0.049
-103.947	-200.000	0.471	0.002
-102.932	167.100	-0.386	0.542
-101.918	179.753	0.548	0.792
-100.903	334.239	0.219	0.418
-99.889	298.318	0.175	0.318
-98.874	-141.148	0.704	-0.071
-97.859	624.516	-0.366	0.911
-96.845	-72.288	-0.511	-0.187
-95.830	20.434	0.214	0.171
-94.816	-52.616	-0.439	0.200
-93.801	142.694	0.281	-0.369
-92.786	-200.000	-0.077	-0.342
-91.772	-137.609	-0.537	0.060
-90.757	403.585	-0.127	0.263
-89.743	-200.000	-0.006	0.276
-88.728	-19.952	0.304	0.185
-87.713	121.293	-0.265	0.326
-86.699	492.332	-0.465	1.052
-85.684	55.686	0.204	-0.195
-84.670	-11.537	1.044	0.677
-83.655	-84.151	0.606	-0.190
-82.640	-118.890	-0.131	-0.023
-81.626	800.000	0.292	-0.831
-80.611	-200.000	0.011	-0.390
-79.597	609.310	-0.316	-0.778
-78.582	-200.000	0.063	0.386
-77.567	-80.575	0.625	-0.205
-76.553	-117.758	-0.390	-0.069
-75.538	800.000	-0.030	0.122
-74.524	-11.331	-0.038	-0.025
-73.509	-121.745	0.279	-0.046
-72.494	-200.000	0.021	-0.434
-71.480	-63.797	-0.663	-0.268
-70.465	14.216	-0.334	0.256
-69.451	800.000	-0.210	0.868
-68.436	-72.400	0.548	-0.200
-67.422	18.129	0.134	0.106
-66.407	108.586	0.509	0.599
-65.392	-100.979	-0.407	-0.098
-64.378	-173.556	-0.737	0.022
-63.363	-142.734	-0.809	-0.078
-62.349	43.263	0.580	0.523
-61.334	-69.541	-1.253	-0.473
-60.319	14.372	0.585	-0.450
-59.305	-104.346	-0.445	-0.102
-58.290	429.843	0.442	0.942
-57.276	534.858	0.508	1.187
-56.261	-200.000	94.878	565.822
-55.246	631.457	1370.608	3420.453
-54.232	199.234	2541.295	3839.116
-53.217	117.138	2152.015	2606.402
-52.203	43.797	1699.582	1533.734
-51.188	36.467	1514.401	1316.842
-50.173	34.040	1487.867	1277.445
-49.159	54.487	1538.335	1460.804
-48.144	55.359	1556.669	1484.112
-47.130	36.946	1514.077	1319.616
-46.115	33.792	1498.461	1284.659
-45.100	33.889	1494.234	1281.639
-44.086	33.554	1493.693	1278.864
-43.071	33.354	1491.877	1275.911
-42.057	33.234	1491.924	1275.090
-41.042	33.311	1489.428	1273.426
-40.027	33.449	1488.075	1273.143
-39.013	33.557	1485.672	1271.765
-37.998	33.311	1485.829	1270.197
-36.984	33.466	1484.280	1269.860
-35.969	33.418	1482.799	1268.223
-34.954	33.536	1481.242	1267.629
-33.940	33.276	1480.637	1265.320
-32.925	33.363	1479.027	1264.479
-31.911	33.610	1477.855	1265.071
-30.896	33.282	1477.216	1262.286
-29.881	33.473	1475.082	1261.686
-28.867	33.507	1473.055	1260.131
-27.852	33.500	1472.211	1259.309
-26.838	33.102	1471.623	1256.112
-25.823	33.276	1470.162	1255.973
-24.809	33.350	1468.279	1254.805
-23.794	33.340	1466.933	1253.538
-22.779	33.470	1463.900	1251.757
-21.765	33.436	1464.475	1251.970
-20.750	33.233	1463.657	1249.881
-19.736	33.386	1462.769	1250.086
-18.721	33.187	1461.973	1248.041
-17.706	33.439	1459.939	1247.915
-16.692	33.321	1460.619	1247.671
-15.677	33.362	1457.877	1245.548
-14.663	33.518	1456.619	1245.445
-13.648	33.501	1454.785	1243.720
-12.633	33.218	1455.612	1242.519
-11.619	33.298	1454.634	1242.158
-10.604	33.432	1453.352	1241.895
-9.590	33.258	1452.046	1239.587
-8.575	33.394	1451.717	1240.150
-7.560	33.378	1450.218	1238.714
-6.546	33.362	1449.648	1238.072
-5.531	33.434	1449.143	1238.067
-4.517	33.199	1448.432	1235.874
-3.502	33.467	1446.714	1236.106
-2.487	33.297	1445.491	1233.906
-1.473	33.173	1444.919	1232.560
-0.458	33.191	1444.427	1232.204
0.556	34.291	1433.826	1220.307
1.571	31.105	1409.663	1179.527
2.586	27.349	1349.934	1106.657
3.600	25.585	1268.724	1029.903
4.615	24.070	1223.953	985.094
5.629	20.989	1165.472	921.683
6.644	11.677	1080.541	808.589
7.659	4.296	1040.086	743.003
8.673	3.138	1033.545	732.749
9.688	3.087	1029.386	729.497
10.702	2.791	1028.452	727.365
11.717	2.864	1026.630	726.360
12.731	5.758	1031.121	743.206
13.746	15.403	1043.730	798.320
14.761	23.336	1053.556	843.706
15.775	25.624	1055.224	855.868
16.790	25.606	1054.847	855.400
17.804	25.519	1054.600	854.707
18.819	25.492	1053.091	853.282
19.834	25.319	1052.862	852.201
20.848	25.777	1052.196	853.756
21.863	25.765	1051.480	853.045
22.877	25.731	1051.356	852.709
23.892	25.651	1051.406	852.293
24.907	25.568	1050.640	851.205
25.921	25.564	1049.923	850.528
26.936	25.501	1049.141	849.523
27.950	25.299	1048.753	848.178
28.965	25.460	1046.225	846.819
29.980	25.047	1046.417	844.952
30.994	25.471	1044.938	845.678
32.009	25.507	1043.873	844.912
33.023	25.516	1043.464	844.549
34.038	25.515	1042.219	843.459
35.053	25.411	1041.950	842.678
36.067	25.726	1040.699	843.070
37.082	25.441	1039.167	840.420
38.096	25.613	1038.441	840.562
39.111	25.978	1037.926	841.778
40.126	25.920	1037.040	840.714
41.140	25.770	1036.517	839.516
42.155	25.586	1034.597	837.031
43.169	25.265	1034.714	835.556
44.184	25.208	1032.921	833.768
45.199	25.450	1031.484	833.659
46.213	25.014	1031.454	831.535
47.228	25.243	1031.528	832.584
48.242	25.394	1029.880	831.883
49.257	25.805	1027.599	831.862
50.271	25.686	1027.676	831.304
51.286	25.439	1028.000	830.350
52.301	25.797	1026.598	830.794
53.315	25.514	1026.829	829.604
54.330	25.679	1026.177	829.766
55.344	25.621	1026.003	829.282
56.359	25.622	1023.082	826.855
57.374	25.835	1022.573	827.346
58.388	25.503	1022.433	825.637
59.403	25.566	1021.849	825.379
60.417	25.452	1020.728	823.880
61.432	25.458	1019.692	822.998
62.447	25.310	1019.791	822.325
63.461	25.340	1019.088	821.823
64.476	25.144	1019.291	821.016
65.490	25.536	1016.662	820.616
66.505	25.160	1017.010	819.108
67.520	25.042	1016.705	818.250
68.534	25.590	1014.292	818.731
69.549	25.156	1013.964	816.419
70.563	25.261	1012.451	815.607
71.578	25.285	1011.067	814.530
72.593	25.135	1011.296	813.959
73.607	24.998	1010.064	812.275
74.622	24.570	1010.393	810.528
75.636	24.854	1009.039	810.654
76.651	25.058	1007.686	810.421
77.666	25.065	1007.677	810.373
78.680	24.791	1007.023	808.536
79.695	25.004	1007.159	809.537
80.709	25.310	1005.041	809.141
81.724	25.427	1004.306	809.005
82.739	25.232	1003.711	807.579
83.753	25.273	1003.900	807.840
84.768	25.459	1002.528	807.500
85.782	25.736	1002.572	808.709
86.797	26.094	1001.024	808.997
87.812	26.142	1000.490	808.710
88.826	25.987	1000.301	807.791
89.841	25.654	999.554	805.623
90.855	25.982	998.134	805.876
91.870	26.044	997.384	805.473
92.884	25.906	997.964	805.254
93.899	25.923	996.094	803.749
94.914	25.810	995.135	802.402
95.928	25.868	995.182	802.629
96.943	25.926	993.730	801.646
97.957	25.806	992.708	800.217
98.972	25.315	992.614	797.888
99.987	25.332	990.937	796.543
101.001	25.682	990.107	797.358
102.016	25.752	988.943	796.661
103.030	26.005	988.296	797.187
104.045	25.652	988.776	795.943
105.060	25.635	986.808	794.210
106.074	25.724	985.002	793.082
107.089	25.616	984.438	792.082
108.103	25.745	984.862	792.919
109.118	25.594	983.449	791.045
110.133	25.284	982.412	788.779
111.147	25.605	980.714	788.758
112.162	25.262	980.395	786.926
113.176	24.999	979.724	785.164
114.191	25.112	979.476	785.392
115.206	25.478	978.352	786.023
116.220	25.235	977.535	784.235
117.235	25.074	977.272	783.251
118.249	25.282	975.151	782.386
119.264	25.245	974.965	782.010
120.279	24.767	974.683	779.631
121.293	25.178	973.253	780.205
122.308	25.312	972.573	780.173
123.322	25.129	971.995	778.846
124.337	25.064	971.513	778.111
125.352	25.123	969.977	777.068
126.366	24.949	967.988	774.649
127.381	24.559	966.539	771.740
128.395	25.173	965.815	773.741
129.410	25.643	966.326	776.112
130.424	25.874	966.011	776.782
131.439	25.553	965.261	774.731
132.454	25.692	963.656	773.972
133.468	25.528	963.395	772.986
134.483	25.250	963.170	771.545
135.497	25.359	962.275	771.228
136.512	25.848	962.211	773.207
137.527	25.563	961.289	771.177
138.541	25.760	960.235	771.106
139.556	25.871	959.168	770.654
140.570	25.761	958.121	769.277
141.585	25.801	957.780	769.107
142.600	26.123	957.167	769.918
143.614	25.916	956.160	768.160
144.629	25.907	955.411	767.450
145.643	26.255	954.457	768.094
146.658	26.016	953.875	766.543
147.673	25.876	952.898	765.096
148.687	25.593	951.212	762.478
149.702	25.976	949.961	763.027
150.716	25.399	949.828	760.409
151.731	25.746	948.719	760.922
152.746	25.615	947.621	759.420
153.760	26.381	945.958	761.246
154.775	26.262	946.755	761.321
155.789	26.108	945.227	759.379
156.804	25.984	945.022	758.624
157.819	26.022	943.211	757.263
158.833	25.790	943.498	756.451
159.848	26.123	942.248	756.777
160.862	26.172	941.696	756.474
161.877	26.232	940.291	755.530
162.892	25.912	939.255	753.292
163.906	26.305	939.102	754.746
164.921	26.063	938.373	753.082
165.935	26.529	935.809	752.898
166.950	25.878	936.476	750.654
167.964	25.929	936.106	750.503
168.979	26.020	933.392	748.640
169.994	25.930	933.910	748.616
171.008	25.935	932.420	747.375
172.023	25.962	931.753	746.889
173.037	25.839	931.892	746.423
174.052	26.140	930.769	746.704
175.067	26.170	928.739	745.131
176.081	25.864	929.214	744.184
177.096	26.216	926.997	743.791
178.110	25.906	926.760	742.260
179.125	25.927	926.008	741.679
180.140	25.486	924.834	738.858
181.154	25.516	924.066	738.304
182.169	25.350	924.642	738.015
183.183	25.582	924.652	738.910
184.198	26.183	923.747	740.590
185.213	25.982	922.440	738.652
186.227	26.112	921.853	738.650
187.242	26.021	922.381	738.635
188.256	26.277	920.539	738.142
189.271	26.226	920.156	737.562
190.286	26.063	919.327	736.165
191.300	26.401	917.604	736.097
192.315	25.635	916.516	732.045
193.329	25.056	915.762	729.022
194.344	24.525	914.804	726.035
195.359	25.060	914.884	728.211
196.373	26.123	914.115	731.847
197.388	26.411	915.251	733.858
198.402	26.133	914.602	732.145
199.417	26.002	914.412	731.398
200.432	26.215	913.059	731.114
201.446	26.363	912.419	731.134
202.461	25.959	912.333	729.367
203.475	26.024	911.957	729.267
204.490	25.952	910.057	727.392
205.504	24.643	908.491	720.798
206.519	24.896	908.187	721.514
207.534	25.872	907.944	725.188
208.548	25.790	907.885	724.748
209.563	26.026	908.690	726.274
210.577	25.934	907.774	725.109
211.592	25.737	906.609	723.321
212.607	26.411	905.680	725.223
213.621	26.642	905.105	725.624
214.636	26.352	904.973	724.289
215.650	26.470	904.162	724.049
216.665	26.265	903.585	722.705
217.680	26.216	903.291	722.211
218.694	26.563	903.267	723.513
219.709	26.286	902.450	721.687
220.723	26.098	900.595	719.390
221.738	26.241	899.829	719.288
222.753	26.457	900.220	720.394
223.767	26.118	899.536	718.435
224.782	26.146	898.259	717.462
225.796	26.302	897.976	717.794
226.811	26.256	897.822	717.422
227.826	25.845	897.293	715.307
228.840	25.511	894.888	712.004
229.855	25.086	894.303	709.790
230.869	25.933	893.756	712.643
231.884	25.399	893.701	710.426
232.899	25.504	892.581	709.888
233.913	26.035	892.945	712.213
234.928	26.120	892.110	711.820
235.942	26.105	891.146	710.925
236.957	26.273	890.827	711.272
237.972	25.894	890.413	709.388
238.986	25.873	889.076	708.175
240.001	25.730	889.012	707.500
241.015	26.035	888.195	707.983
242.030	25.729	887.967	706.538
243.045	26.055	887.245	707.179
244.059	26.231	887.189	707.764
245.074	26.260	886.715	707.435
246.088	26.062	886.274	706.245
247.103	26.062	885.026	705.190
248.117	26.094	884.996	705.226
249.132	26.637	884.117	706.585
250.147	26.925	884.175	707.692
251.161	27.117	883.600	707.916
252.176	26.999	883.075	706.972
253.190	27.061	882.744	706.887
254.205	26.981	882.802	706.561
255.220	27.133	881.845	706.321
256.234	26.834	882.000	705.222
257.249	27.151	880.981	705.573
258.263	27.253	880.002	705.126
259.278	26.811	880.243	703.541
260.293	27.019	879.414	703.620
261.307	27.102	878.161	702.878
262.322	26.664	878.922	701.729
263.336	26.777	877.488	700.959
264.351	26.689	876.176	699.509
265.366	25.815	874.362	694.630
266.380	25.198	873.421	691.443
267.395	26.438	873.092	695.897
268.409	26.690	873.691	697.282
269.424	26.547	873.689	696.670
270.439	27.033	872.169	697.262
271.453	26.931	871.683	696.420
272.468	27.004	870.654	695.814
273.482	27.313	870.219	696.588
274.497	27.444	870.526	697.277
275.512	26.831	869.231	693.830
276.526	26.512	867.822	691.426
277.541	26.527	868.072	691.623
278.555	26.938	867.729	692.856
279.570	26.793	866.679	691.405
280.585	26.890	865.770	690.987
281.599	27.068	865.402	691.309
282.614	27.093	865.763	691.632
283.628	26.408	865.341	688.628
284.643	26.371	863.618	687.054
285.657	26.609	863.367	687.699
286.672	26.521	862.410	686.539
287.687	26.078	862.196	684.631
288.701	26.498	861.163	685.341
289.716	26.700	860.554	685.559
290.730	26.222	861.275	684.262
291.745	26.496	859.690	683.979
292.760	26.602	857.774	682.794
293.774	26.177	858.753	681.908
294.789	26.964	859.229	685.197
295.803	27.304	858.464	685.808
296.818	27.279	857.996	685.282
297.833	27.722	857.292	686.324
298.847	27.438	857.009	684.967
299.862	27.170	855.591	682.768
300.876	27.138	855.116	682.207
301.891	27.599	854.068	683.039
302.906	27.616	853.612	682.680
303.920	27.344	852.767	680.926
304.935	27.027	853.054	679.908
305.949	27.523	852.187	681.010
306.964	27.827	852.007	681.944
307.979	27.297	851.323	679.356
308.993	27.209	852.056	679.553
310.008	27.207	851.209	678.808
311.022	27.727	850.502	680.123
312.037	27.461	848.820	677.729
313.052	27.072	849.197	676.521
314.066	27.450	847.945	676.869
315.081	26.350	847.522	672.383
316.095	26.037	844.794	668.999
317.110	26.533	845.665	671.470
318.125	27.240	845.923	674.239
319.139	27.077	844.482	672.425
320.154	26.052	842.853	667.280
321.168	25.220	842.110	663.556
322.183	26.065	841.935	666.485
323.197	26.836	842.597	669.797
324.212	27.069	842.491	670.514
325.227	27.459	841.494	671.099
326.241	27.388	840.967	670.358
327.256	27.562	839.790	670.000
328.270	27.025	840.652	668.651
329.285	26.937	839.881	667.654
330.300	27.055	839.217	667.505
331.314	26.907	838.370	666.225
332.329	27.068	837.484	666.056
333.343	26.938	837.482	665.515
334.358	27.954	836.082	668.061
335.373	27.635	835.999	666.769
336.387	27.184	837.020	665.875
337.402	27.531	836.493	666.664
338.416	27.914	835.074	666.875
339.431	28.290	834.023	667.348
340.446	28.133	833.641	666.410
341.460	28.295	833.707	666.994
342.475	28.034	833.567	665.873
343.489	27.710	833.233	664.365
344.504	27.892	832.665	664.519
345.519	27.834	832.051	663.757
346.533	28.291	831.007	664.526
347.548	28.685	830.301	665.329
348.562	28.322	830.182	663.861
349.577	28.231	829.990	663.318
350.592	28.016	829.642	662.204
351.606	28.179	828.585	661.890
352.621	28.307	827.978	661.808
353.635	28.177	826.911	660.429
354.650	27.630	827.966	659.234
355.665	27.638	826.701	658.197
356.679	26.480	825.833	653.273
357.694	26.653	825.126	653.279
358.708	27.379	824.869	655.632
359.723	26.874	824.125	653.167
360.738	27.041	823.769	653.427
361.752	27.083	823.952	653.665
362.767	27.632	822.961	654.794
363.781	28.130	823.559	657.002
364.796	28.453	822.922	657.595
365.810	28.603	821.896	657.252
366.825	28.453	821.545	656.376
367.840	28.621	821.357	656.769
368.854	28.472	821.011	655.901
369.869	28.242	819.672	653.952
370.883	27.817	819.085	651.909
371.898	28.088	818.853	652.635
372.913	28.063	817.822	651.664
373.927	27.747	818.007	650.629
374.942	27.884	817.470	650.632
375.956	28.183	816.223	650.646
376.971	28.429	815.780	651.110
377.986	28.425	815.003	650.415
379.000	28.593	815.103	651.037
380.015	28.415	814.971	650.241
381.029	28.202	814.462	649.023
382.044	28.079	813.449	647.721
383.059	28.423	813.168	648.659
384.073	28.337	812.715	647.934
385.088	28.694	811.848	648.450
386.102	28.498	810.805	646.865
387.117	28.273	811.036	646.200
388.132	28.164	810.131	645.037
389.146	27.917	809.365	643.501
390.161	27.732	808.432	642.049
391.175	27.971	808.135	642.596
392.190	28.512	807.687	644.084
393.205	28.251	807.731	643.145
394.219	27.138	806.471	638.179
395.234	26.093	803.771	632.326
396.248	25.412	802.770	629.099
397.263	25.819	804.367	631.725
398.278	27.370	805.317	637.855
399.292	28.249	804.873	640.524
400.307	27.498	804.168	637.278
401.321	27.965	803.092	638.002
402.336	28.297	802.958	638.997
403.350	28.099	802.914	638.214
404.365	28.367	802.730	638.947
405.380	28.892	803.204	641.098
406.394	28.826	802.977	640.631
407.409	29.214	802.672	641.684
408.423	29.112	802.288	640.964
409.438	29.447	801.425	641.382
410.453	29.644	800.457	641.233
411.467	29.006	800.723	639.177
412.482	29.226	799.944	639.261
413.496	29.021	799.967	638.510
414.511	28.934	799.333	637.645
415.526	28.735	799.337	636.904
416.540	29.088	798.105	637.087
417.555	28.851	798.295	636.361
418.569	28.795	797.273	635.299
419.584	28.797	796.364	634.525
420.599	28.488	796.540	633.540
421.613	159.513	1370.096	1793.240
422.628	138.304	1453.713	1793.303
