DTS Sentinel unit serial number:	SN413079Multiplexer serial number:	ORYXHardware model number:	OX4-SRSoftware version number:	ORYX F/W v4.00 Oryx Data Collector v3.7.2.0data status	okinstallation	princeton_trtdifferential loss correction	single-endedforward channel	channel 3reverse channel	N/Adate	2019/09/19time	12:12:34forward acquisition time	60.00reverse acquisition time	0.00gamma	496.2192k internal	0.2340k external	0.2340temperature offset calibration	0.9985default loss term (dB/km)	0.3790temperature slope calibration	1.0000multiplexer offset coefficient	1.0000multiplexer slope coefficient	1.0000fibre end	0.00T internal ref (°C)	26.37T ext. ref 1 (°C)	0.86T ext. ref 2 (°C)	23.08length (m)	temperature (°C)	Stokes	anti-Stokes-747.200	-200.000	-0.013	0.068
-746.185	0.314	-0.144	0.103
-745.171	800.000	0.081	-0.351
-744.156	-87.842	-0.028	-0.009
-743.142	138.829	0.097	0.128
-742.127	-81.493	-0.202	-0.067
-741.112	78.213	-0.184	-0.197
-740.098	-89.244	0.083	0.025
-739.083	-155.149	0.438	-0.029
-738.069	-200.000	-0.064	0.406
-737.054	-200.000	-0.052	-0.270
-736.039	141.200	-0.091	-0.121
-735.025	105.440	0.229	0.271
-734.010	-200.000	0.001	-0.031
-732.996	2.981	-0.370	-0.270
-731.981	147.384	0.135	0.182
-730.966	295.287	0.038	-0.069
-729.952	73.688	0.237	-0.249
-728.937	-36.567	0.126	-0.068
-727.923	417.925	-0.101	0.216
-726.908	-79.082	0.119	-0.041
-725.894	155.565	0.082	-0.113
-724.879	-159.102	-0.345	-0.020
-723.864	-51.904	0.276	0.128
-722.850	157.504	0.124	0.172
-721.835	107.891	0.069	-0.082
-720.821	184.950	0.223	-0.331
-719.806	-8.185	-0.269	-0.182
-718.791	-113.903	-0.205	0.040
-717.777	-17.442	-0.097	-0.061
-716.762	366.640	0.076	0.153
-715.748	800.000	-0.062	-0.255
-714.733	-200.000	0.008	-0.183
-713.718	800.000	-0.036	-0.118
-712.704	-93.487	-0.335	-0.093
-711.689	-200.000	-0.002	-0.152
-710.675	-64.794	-0.212	0.086
-709.660	-199.216	0.117	0.001
-708.645	-200.000	-0.045	-0.221
-707.631	-169.847	-0.448	-0.016
-706.616	85.168	-0.110	0.121
-705.602	33.445	0.173	-0.150
-704.587	-53.280	0.150	-0.069
-703.572	-152.946	-0.006	-0.000
-702.558	800.000	-0.046	-0.176
-701.543	-87.450	0.159	0.048
-700.529	31.979	-0.072	0.063
-699.514	-200.000	-0.014	0.232
-698.499	-16.396	0.232	-0.147
-697.485	-200.000	-0.000	0.036
-696.470	-134.620	0.211	-0.026
-695.456	200.539	-0.126	0.194
-694.441	275.300	0.067	0.118
-693.426	-200.000	-0.016	0.301
-692.412	-57.542	-0.109	0.048
-691.397	208.759	0.145	-0.227
-690.383	-200.000	-0.017	-0.135
-689.368	545.846	-0.096	-0.231
-688.354	61.200	0.145	0.144
-687.339	698.399	0.050	0.131
-686.324	3.588	0.077	-0.056
-685.310	618.390	-0.074	0.185
-684.295	-200.000	-0.007	-0.246
-683.281	-200.000	0.070	-0.448
-682.266	6.483	-0.211	-0.157
-681.251	-104.979	-0.397	-0.091
-680.237	-200.000	-0.063	-0.286
-679.222	445.175	-0.052	0.115
-678.208	253.155	0.141	-0.241
-677.193	-200.000	-0.032	-0.270
-676.178	643.698	-0.057	-0.147
-675.164	170.941	-0.253	0.362
-674.149	-107.299	0.093	-0.020
-673.135	712.175	-0.185	-0.489
-672.120	-200.000	-0.030	-0.208
-671.105	-62.104	0.159	-0.066
-670.091	-200.000	-0.012	-0.108
-669.076	-144.083	-0.183	-0.017
-668.062	-200.000	-0.034	0.151
-667.047	-148.085	0.346	0.029
-666.032	82.145	-0.253	-0.274
-665.018	-200.000	0.000	-0.059
-664.003	-39.688	0.232	0.121
-662.989	36.271	-0.023	-0.020
-661.974	-105.943	0.138	-0.031
-660.959	-200.000	-0.028	0.185
-659.945	-103.976	-0.173	0.040
-658.930	-29.120	-0.182	0.105
-657.916	528.905	0.138	-0.324
-656.901	-157.898	0.364	0.022
-655.886	800.000	-0.048	-0.208
-654.872	800.000	0.029	-0.128
-653.857	76.173	0.229	-0.242
-652.843	-142.769	-0.142	0.014
-651.828	578.497	-0.092	0.226
-650.814	-57.545	0.091	-0.040
-649.799	-200.000	-0.020	-0.177
-648.784	-52.931	0.168	0.077
-647.770	-106.125	-0.206	-0.046
-646.755	-147.854	-0.198	0.016
-645.741	-183.791	-0.100	0.002
-644.726	596.162	0.103	-0.255
-643.711	-42.627	0.364	-0.185
-642.697	-200.000	0.013	-0.089
-641.682	-200.000	0.020	0.201
-640.668	224.756	-0.215	0.347
-639.653	-115.119	-0.076	0.014
-638.638	19.310	-0.067	0.054
-637.624	159.636	-0.111	0.155
-636.609	-59.026	0.133	0.057
-635.595	800.000	-0.114	-0.368
-634.580	800.000	-0.117	0.362
-633.565	-33.755	-0.194	0.107
-632.551	-67.614	0.044	0.017
-631.536	800.000	0.065	0.276
-630.522	-94.612	0.254	-0.069
-629.507	-11.589	0.258	-0.169
-628.492	56.825	-0.188	0.183
-627.478	800.000	0.039	-0.113
-626.463	-116.774	0.075	0.014
-625.449	38.149	-0.362	-0.322
-624.434	-70.090	-0.354	-0.135
-623.419	-85.861	0.234	-0.072
-622.405	-155.203	0.195	-0.013
-621.390	104.962	0.115	-0.135
-620.376	800.000	0.076	-0.213
-619.361	-66.429	-0.319	0.127
-618.346	-39.943	-0.194	-0.101
-617.332	-77.263	0.319	-0.111
-616.317	-32.920	-0.215	0.119
-615.303	-118.488	0.205	0.036
-614.288	800.000	0.227	0.649
-613.273	113.548	-0.171	-0.207
-612.259	-200.000	0.029	0.140
-611.244	-47.788	-0.119	0.058
-610.230	788.729	-0.107	0.294
-609.215	-130.905	0.348	-0.046
-608.201	9.412	0.300	0.227
-607.186	-200.000	-0.035	-0.215
-606.171	342.050	0.060	0.117
-605.157	-127.226	-0.301	-0.044
-604.142	-91.396	0.350	0.100
-603.128	-200.000	0.037	-0.196
-602.113	162.611	-0.097	0.136
-601.098	112.023	0.061	0.073
-600.084	-56.425	-0.103	-0.046
-599.069	800.000	-0.115	-0.396
-598.055	-200.000	0.001	-0.239
-597.040	173.365	-0.093	0.133
-596.025	65.944	0.102	0.103
-595.011	-200.000	-0.007	0.312
-593.996	-200.000	0.000	0.029
-592.982	-42.849	-0.167	-0.085
-591.967	-50.796	-0.283	-0.133
-590.952	-145.377	0.134	0.012
-589.938	-200.000	0.011	0.069
-588.923	-200.000	0.028	0.194
-587.909	46.369	-0.204	0.188
-586.894	-163.551	0.243	0.011
-585.879	-51.147	0.079	-0.037
-584.865	11.573	-0.199	-0.152
-583.850	23.888	0.106	0.087
-582.836	160.177	0.123	0.170
-581.821	65.329	-0.026	-0.027
-580.806	-93.933	0.425	-0.116
-579.792	50.652	-0.171	-0.161
-578.777	-200.000	0.007	0.071
-577.763	-200.000	0.015	0.203
-576.748	457.865	0.066	-0.145
-575.733	155.911	0.087	0.120
-574.719	-18.698	0.053	-0.033
-573.704	-200.000	0.025	0.164
-572.690	-139.969	-0.386	-0.041
-571.675	-49.706	-0.216	-0.102
-570.661	800.000	0.075	-0.208
-569.646	-153.663	0.096	0.007
-568.631	800.000	-0.159	-0.500
-567.617	-200.000	-0.011	-0.225
-566.602	44.188	0.255	-0.233
-565.588	800.000	0.053	0.150
-564.573	593.957	0.074	-0.182
-563.558	-132.821	0.122	-0.016
-562.544	-69.443	-0.251	0.096
-561.529	-153.671	0.043	-0.003
-560.515	-200.000	0.045	-0.319
-559.500	800.000	0.102	0.293
-558.485	800.000	0.051	-0.142
-557.471	-87.207	-0.232	-0.070
-556.456	40.478	0.200	-0.180
-555.442	518.335	-0.193	0.449
-554.427	-29.953	-0.223	0.127
-553.412	-200.000	0.004	0.030
-552.398	-3.771	-0.041	-0.029
-551.383	-163.472	-0.205	0.010
-550.369	-0.120	0.104	-0.074
-549.354	800.000	-0.073	0.254
-548.339	-200.000	-0.022	0.234
-547.325	-75.933	-0.252	-0.089
-546.310	-200.000	0.001	0.140
-545.296	-199.524	-0.121	0.001
-544.281	-175.757	0.120	-0.003
-543.266	-62.221	0.097	0.040
-542.252	-63.806	0.123	0.050
-541.237	-200.000	-0.010	-0.123
-540.223	42.717	-0.205	0.186
-539.208	99.376	0.184	0.212
-538.193	-119.456	-0.362	-0.063
-537.179	108.464	-0.100	0.118
-536.164	-200.000	-0.003	0.124
-535.150	-123.375	-0.259	0.041
-534.135	7.753	0.232	-0.173
-533.121	50.716	-0.197	-0.185
-532.106	-65.823	-0.154	0.061
-531.091	-200.000	-0.014	0.089
-530.077	-200.000	0.003	0.200
-529.062	-52.398	-0.061	-0.028
-528.048	-200.000	-0.007	0.213
-527.033	800.000	0.088	-0.289
-526.018	-62.358	-0.109	-0.045
-525.004	-32.119	-0.275	-0.153
-523.989	800.000	0.065	-0.204
-522.975	-200.000	0.015	0.114
-521.960	-112.446	-0.115	0.023
-520.945	222.864	0.252	-0.404
-519.931	-200.000	0.001	0.171
-518.916	605.021	0.035	0.086
-517.902	117.491	-0.060	0.073
-516.887	800.000	-0.027	-0.081
-515.872	112.035	-0.230	-0.276
-514.858	57.559	0.164	-0.159
-513.843	-60.269	-0.191	-0.081
-512.829	800.000	0.069	-0.217
-511.814	800.000	0.101	-0.346
-510.799	3.417	0.202	-0.146
-509.785	-68.485	0.282	-0.109
-508.770	310.556	0.079	-0.147
-507.756	-200.000	-0.055	0.334
-506.741	-69.934	-0.097	0.037
-505.726	-111.414	0.076	-0.015
-504.712	800.000	0.094	-0.313
-503.697	-86.642	0.149	-0.045
-502.683	-2.405	-0.160	0.112
-501.668	-200.000	0.005	0.093
-500.653	-57.407	-0.127	-0.055
-499.639	-100.038	-0.163	-0.040
-498.624	-143.893	-0.273	0.026
-497.610	-7.761	-0.110	0.073
-496.595	75.913	-0.075	-0.079
-495.581	445.172	-0.036	0.077
-494.566	-109.916	0.241	-0.050
-493.551	154.189	-0.152	-0.207
-492.537	-200.000	-0.026	-0.168
-491.522	-13.819	0.301	-0.193
-490.508	123.647	0.070	0.088
-489.493	-150.596	-0.255	0.019
-488.478	-82.216	0.211	-0.068
-487.464	103.772	-0.158	-0.184
-486.449	800.000	0.038	-0.135
-485.435	22.462	0.138	0.112
-484.420	569.698	0.088	-0.213
-483.405	-192.643	-0.348	0.003
-482.391	124.172	0.111	-0.138
-481.376	-200.000	-0.010	0.046
-480.362	-2.978	-0.157	-0.109
-479.347	-12.784	0.350	-0.227
-478.332	-170.546	-0.240	-0.008
-477.318	800.000	0.119	0.335
-476.303	-9.125	-0.234	-0.155
-475.289	1.975	0.190	0.136
-474.274	178.242	-0.078	0.113
-473.259	-22.947	0.062	-0.037
-472.245	-200.000	0.024	-0.106
-471.230	-93.803	0.192	-0.053
-470.216	800.000	0.023	-0.075
-469.201	183.705	-0.128	0.188
-468.186	21.089	-0.215	-0.173
-467.172	-200.000	-0.018	-0.123
-466.157	-110.194	0.357	-0.074
-465.143	60.876	-0.322	0.317
-464.128	144.625	-0.205	-0.271
-463.113	-32.334	0.167	-0.092
-462.099	106.318	0.409	0.481
-461.084	-167.248	0.323	0.013
-460.070	800.000	0.086	-0.310
-459.055	-200.000	0.000	-0.622
-458.040	82.645	0.193	-0.207
-457.026	800.000	-0.061	0.175
-456.011	-200.000	0.051	-0.237
-454.997	-14.090	-0.176	-0.112
-453.982	-200.000	0.018	0.136
-452.968	-84.401	-0.115	0.036
-451.953	85.919	-0.132	0.144
-450.938	-40.047	0.131	-0.068
-449.924	-170.165	-0.183	0.006
-448.909	52.823	-0.054	-0.051
-447.895	12.746	-0.031	-0.024
-446.880	-88.519	0.193	0.057
-445.865	-144.383	0.216	0.020
-444.851	800.000	-0.042	-0.139
-443.836	-124.527	0.204	-0.031
-442.822	-60.605	0.126	0.053
-441.807	-86.377	0.238	0.073
-440.792	324.515	0.079	-0.150
-439.778	-134.501	-0.054	-0.006
-438.763	69.105	-0.159	0.162
-437.749	20.295	0.171	-0.137
-436.734	-66.930	-0.325	-0.127
-435.719	-53.261	0.109	-0.050
-434.705	-74.958	-0.199	-0.071
-433.690	103.390	0.123	0.143
-432.676	143.267	-0.062	0.082
-431.661	-96.472	0.316	-0.083
-430.646	-111.433	-0.608	0.123
-429.632	85.699	0.182	-0.199
-428.617	33.418	0.218	0.188
-427.603	-122.195	0.263	0.043
-426.588	-200.000	0.031	-0.233
-425.573	-195.223	0.323	0.002
-424.559	141.366	-0.050	-0.065
-423.544	205.612	0.058	-0.090
-422.530	790.264	0.077	0.211
-421.515	-34.105	-0.089	-0.048
-420.500	56.701	0.197	0.189
-419.486	-42.494	-0.194	-0.098
-418.471	-76.493	-0.153	-0.053
-417.457	800.000	-0.084	-0.319
-416.442	-88.711	-0.388	-0.114
-415.428	25.943	-0.193	-0.160
-414.413	-200.000	-0.005	0.115
-413.398	261.055	-0.100	0.171
-412.384	-61.286	0.317	0.132
-411.369	-200.000	-0.038	0.181
-410.355	-200.000	0.021	0.288
-409.340	211.645	-0.029	-0.044
-408.325	190.468	-0.123	-0.183
-407.311	-64.936	-0.122	-0.049
-406.296	77.033	0.484	0.509
-405.282	4.911	0.202	-0.147
-404.267	-194.347	-0.084	-0.001
-403.252	79.873	-0.188	0.199
-402.238	-53.202	-0.035	-0.016
-401.223	-200.000	0.023	0.099
-400.209	-110.677	0.069	-0.014
-399.194	-59.803	-0.095	-0.040
-398.179	-70.724	-0.472	0.176
-397.165	-17.693	-0.044	-0.027
-396.150	-152.280	0.101	-0.007
-395.136	167.706	0.108	0.152
-394.121	23.221	-0.130	0.105
-393.106	121.658	-0.119	-0.146
-392.092	-6.723	-0.403	0.271
-391.077	467.633	0.264	-0.585
-390.063	-135.861	0.408	0.048
-389.048	-177.921	-0.162	-0.004
-388.033	-139.734	-0.286	-0.030
-387.019	2.876	-0.087	0.062
-386.004	-120.030	-0.117	-0.020
-384.990	-123.325	-0.104	0.016
-383.975	-34.952	0.390	0.210
-382.960	-19.126	-0.039	-0.024
-381.946	-200.000	0.094	-0.577
-380.931	-92.581	-0.349	-0.097
-379.917	-99.893	-0.345	-0.085
-378.902	-200.000	-0.007	0.409
-377.888	-200.000	0.005	0.286
-376.873	5.830	0.049	-0.036
-375.858	30.943	-0.324	-0.274
-374.844	305.383	-0.079	0.144
-373.829	-88.579	-0.162	-0.048
-372.815	-200.000	-0.008	0.057
-371.800	-114.074	0.105	-0.020
-370.785	-48.537	0.127	-0.060
-369.771	-200.000	0.011	-0.051
-368.756	800.000	0.094	-0.284
-367.742	-52.168	-0.085	-0.039
-366.727	33.795	-0.237	-0.204
-365.712	145.708	-0.048	0.063
-364.698	-72.377	-0.213	-0.078
-363.683	-165.324	0.118	-0.005
-362.669	339.539	-0.172	-0.331
-361.654	-63.020	0.273	0.111
-360.639	242.063	-0.235	0.388
-359.625	-25.862	0.198	0.115
-358.610	261.370	0.070	-0.120
-357.596	716.545	0.083	-0.216
-356.581	499.916	-0.123	0.279
-355.566	-196.644	-0.595	0.004
-354.552	-17.878	0.029	-0.018
-353.537	-53.664	0.315	0.142
-352.523	155.164	-0.071	0.097
-351.508	-41.754	-0.200	0.101
-350.493	54.747	-0.371	-0.354
-349.479	107.856	-0.079	0.093
-348.464	-121.647	-0.120	0.020
-347.450	800.000	0.069	0.274
-346.435	800.000	-0.047	-0.201
-345.420	154.543	0.163	-0.221
-344.406	-36.963	0.348	-0.184
-343.391	-200.000	0.036	-0.435
-342.377	-136.003	0.158	-0.018
-341.362	-38.716	-0.257	0.134
-340.348	-200.000	0.012	0.219
-339.333	547.737	-0.117	-0.276
-338.318	-200.000	-0.003	-0.094
-337.304	157.100	0.174	0.238
-336.289	63.312	0.054	-0.053
-335.275	218.678	0.118	0.186
-334.260	242.820	-0.119	-0.197
-333.245	60.148	-0.256	0.250
-332.231	78.432	0.290	0.305
-331.216	760.692	0.190	0.508
-330.202	-24.934	0.178	0.104
-329.187	141.376	0.051	0.067
-328.172	-59.619	-0.062	-0.026
-327.158	800.000	0.059	-0.166
-326.143	790.471	0.107	0.290
-325.129	113.184	0.190	-0.228
-324.114	-107.600	0.263	0.057
-323.099	3.681	-0.113	0.081
-322.085	-19.832	0.230	-0.140
-321.070	-36.466	-0.223	0.118
-320.056	-200.000	-0.009	0.403
-319.041	-200.000	0.018	0.302
-318.026	800.000	0.095	0.331
-317.012	-132.122	-0.386	0.049
-315.997	-34.731	-0.116	-0.063
-314.983	-118.656	0.102	0.018
-313.968	800.000	-0.115	0.354
-312.953	-83.163	0.459	-0.146
-311.939	800.000	0.057	0.196
-310.924	800.000	0.073	-0.225
-309.910	800.000	-0.066	-0.215
-308.895	-141.026	0.283	0.029
-307.880	-105.088	-0.279	-0.063
-306.866	-67.221	0.261	-0.101
-305.851	-11.155	-0.230	0.150
-304.837	40.061	-0.366	0.324
-303.822	13.843	0.195	-0.150
-302.807	-106.873	-0.529	-0.115
-301.793	-47.830	0.161	0.077
-300.778	-62.956	-0.041	0.017
-299.764	127.518	0.180	-0.225
-298.749	178.410	0.087	0.124
-297.735	366.184	-0.165	0.327
-296.720	31.957	-0.079	0.067
-295.705	192.181	-0.096	0.142
-294.691	262.100	0.138	0.236
-293.676	800.000	0.042	-0.135
-292.662	323.670	-0.142	-0.268
-291.647	800.000	-0.099	0.272
-290.632	94.845	0.093	-0.105
-289.618	-89.590	-0.116	-0.034
-288.603	-176.144	-0.049	-0.001
-287.589	359.268	0.048	0.095
-286.574	-187.007	-0.234	0.003
-285.559	180.116	0.218	-0.315
-284.545	401.876	-0.162	0.335
-283.530	-76.900	0.230	-0.079
-282.516	-31.679	-0.047	-0.026
-281.501	-119.039	-0.146	0.025
-280.486	81.056	-0.117	0.125
-279.472	-116.098	0.115	0.021
-278.457	-200.000	-0.033	-0.150
-277.443	-34.489	-0.196	-0.106
-276.428	-26.131	-0.202	-0.117
-275.413	23.794	-0.210	-0.171
-274.399	800.000	-0.013	-0.049
-273.384	125.965	0.153	0.191
-272.370	-200.000	0.015	-0.238
-271.355	129.352	-0.105	-0.132
-270.340	-200.000	0.059	0.289
-269.326	800.000	-0.056	-0.153
-268.311	-200.000	0.018	-0.251
-267.297	3.504	0.044	-0.032
-266.282	-123.770	-0.070	-0.011
-265.267	-20.502	0.164	0.099
-264.253	-84.443	0.198	-0.062
-263.238	-42.256	-0.248	0.125
-262.224	325.668	0.184	0.346
-261.209	-127.706	-0.095	-0.013
-260.195	800.000	-0.021	-0.064
-259.180	-71.474	0.033	0.012
-258.165	52.869	-0.156	0.147
-257.151	-14.712	-0.025	-0.016
-256.136	36.944	0.251	0.219
-255.122	-200.000	0.011	0.074
-254.107	30.278	0.101	-0.085
-253.092	61.804	-0.129	-0.126
-252.078	-104.930	-0.281	0.063
-251.063	-200.000	-0.005	0.099
-250.049	-126.315	-0.201	0.030
-249.034	-40.468	-0.076	0.039
-248.019	-31.011	-0.428	-0.238
-247.005	-15.401	-0.127	0.080
-245.990	-139.226	0.283	0.030
-244.976	-200.000	0.033	-0.253
-243.961	-24.101	0.170	-0.100
-242.946	-2.044	-0.195	-0.135
-241.932	78.476	0.194	0.204
-240.917	89.568	-0.143	-0.157
-239.903	800.000	-0.166	-0.514
-238.888	-200.000	-0.031	0.187
-237.873	-126.725	0.387	0.056
-236.859	93.428	0.045	-0.050
-235.844	84.861	0.085	0.091
-234.830	-104.737	0.193	-0.044
-233.815	-4.584	0.120	0.082
-232.800	77.303	0.215	0.225
-231.786	800.000	-0.080	-0.233
-230.771	-137.932	0.152	0.017
-229.757	-200.000	-0.040	0.442
-228.742	800.000	-0.023	0.084
-227.727	-68.486	0.348	0.133
-226.713	-200.000	0.069	0.346
-225.698	354.791	0.062	0.121
-224.684	-73.517	0.279	0.100
-223.669	137.201	0.186	0.240
-222.655	-174.007	-0.325	0.009
-221.640	-48.475	0.203	-0.096
-220.625	25.659	0.117	0.096
-219.611	-200.000	-0.021	0.219
-218.596	661.352	0.095	-0.239
-217.582	-84.146	0.139	0.043
-216.567	-69.365	0.183	0.069
-215.552	154.322	-0.067	0.091
-214.538	-25.806	0.180	0.104
-213.523	-118.655	-0.476	-0.083
-212.509	-200.000	-0.025	-0.175
-211.494	98.171	0.116	-0.131
-210.479	38.110	-0.061	0.054
-209.465	-137.421	0.129	-0.014
-208.450	155.061	0.081	-0.109
-207.436	800.000	-0.063	0.221
-206.421	-149.043	-0.485	0.038
-205.406	573.187	0.132	0.317
-204.392	378.127	0.196	-0.393
-203.377	-149.383	0.096	0.007
-202.363	-109.086	-0.144	-0.030
-201.348	139.413	-0.081	0.105
-200.333	-200.000	-0.032	0.208
-199.319	100.034	0.126	-0.143
-198.304	-16.627	0.039	0.024
-197.290	75.395	-0.024	0.025
-196.275	389.275	0.040	0.082
-195.260	-148.298	0.405	-0.033
-194.246	737.505	-0.143	0.375
-193.231	-92.830	-0.125	0.034
-192.217	-143.482	0.127	0.012
-191.202	73.370	-0.032	0.033
-190.187	-56.244	0.124	0.054
-189.173	-84.977	0.171	-0.053
-188.158	-87.218	-0.085	0.025
-187.144	276.208	0.122	-0.212
-186.129	-33.255	0.255	0.139
-185.114	303.761	0.035	-0.063
-184.100	241.384	-0.128	-0.210
-183.085	-19.720	0.254	0.154
-182.071	-102.886	-0.276	0.064
-181.056	248.489	-0.205	-0.341
-180.042	-48.967	-0.115	-0.054
-179.027	47.375	0.093	0.085
-178.012	-78.748	0.352	-0.118
-176.998	277.575	-0.042	0.073
-175.983	634.281	0.043	-0.106
-174.969	546.253	0.057	0.133
-173.954	138.987	0.078	-0.101
-172.939	800.000	0.065	0.191
-171.925	-126.516	0.186	-0.027
-170.910	23.612	0.257	-0.207
-169.896	-163.826	-0.074	-0.003
-168.881	-78.683	-0.420	-0.141
-167.866	-200.000	-0.002	-0.110
-166.852	-156.539	-0.330	0.020
-165.837	-200.000	-0.000	-0.197
-164.823	23.503	0.180	0.145
-163.808	105.459	-0.158	0.183
-162.793	525.816	0.065	0.151
-161.779	76.416	0.227	-0.236
-160.764	327.263	-0.089	-0.168
-159.750	-54.994	-0.260	-0.115
-158.735	216.684	0.176	-0.275
-157.720	-200.000	0.020	0.107
-156.706	-48.138	0.387	0.183
-155.691	-102.833	0.214	-0.050
-154.677	800.000	0.045	-0.177
-153.662	-200.000	0.018	0.333
-152.647	-80.809	0.180	0.058
-151.633	25.024	0.195	0.159
-150.618	-58.954	-0.208	-0.088
-149.604	138.663	0.156	0.201
-148.589	15.697	0.258	-0.199
-147.574	171.010	-0.035	-0.049
-146.560	-86.335	0.142	-0.043
-145.545	800.000	-0.095	-0.270
-144.531	-200.000	0.004	0.167
-143.516	800.000	-0.077	0.217
-142.502	-77.238	0.223	0.076
-141.487	800.000	0.012	-0.040
-140.472	-200.000	0.028	-0.165
-139.458	-118.806	0.242	-0.042
-138.443	-64.698	-0.159	-0.063
-137.429	120.516	-0.075	0.092
-136.414	-140.568	0.344	-0.035
-135.399	379.472	0.170	-0.341
-134.385	-134.701	-0.265	-0.032
-133.370	-6.783	0.055	-0.036
-132.356	617.367	-0.109	-0.267
-131.341	-200.000	-0.079	0.361
-130.326	-200.000	0.021	-0.223
-129.312	-17.860	-0.105	-0.064
-128.297	45.220	-0.059	-0.054
-127.283	279.670	-0.136	-0.238
-126.268	-29.471	0.279	0.156
-125.253	13.115	0.170	-0.129
-124.239	-104.424	-0.205	0.046
-123.224	-68.530	-0.188	0.071
-122.210	180.693	-0.115	-0.165
-121.195	-200.000	-0.045	0.235
-120.180	-200.000	0.031	-0.431
-119.166	800.000	0.020	0.054
-118.151	-70.084	-0.272	0.101
-117.137	19.615	0.191	0.150
-116.122	41.573	0.290	-0.257
-115.107	-200.000	-0.017	0.271
-114.093	-47.603	-0.268	0.127
-113.078	-55.248	-0.029	-0.013
-112.064	-53.638	0.232	0.104
-111.049	562.839	-0.116	0.274
-110.034	-37.113	-0.092	-0.048
-109.020	-200.000	0.000	-0.184
-108.005	-137.548	-0.384	-0.042
-106.991	129.206	-0.121	-0.152
-105.976	-78.573	0.133	-0.044
-104.962	314.822	0.150	0.276
-103.947	748.705	0.081	0.213
-102.932	-30.094	0.250	0.139
-101.918	-40.666	-0.219	-0.111
-100.903	617.154	-0.118	0.290
-99.889	-56.619	0.264	0.115
-98.874	303.358	-0.019	-0.034
-97.859	-31.380	-0.369	0.203
-96.845	-121.843	0.343	-0.055
-95.830	-50.592	-0.115	0.053
-94.816	800.000	0.075	0.297
-93.801	-165.885	0.323	0.014
-92.786	28.144	-0.196	-0.161
-91.772	10.010	0.310	-0.230
-90.757	-143.816	-0.280	0.026
-89.743	138.717	0.166	0.213
-88.728	134.871	-0.068	-0.086
-87.713	98.340	0.136	0.154
-86.699	-38.099	-0.112	0.058
-85.684	190.864	0.133	0.195
-84.670	346.950	-0.212	0.409
-83.655	-194.288	-0.065	0.001
-82.640	31.350	-0.274	-0.230
-81.626	108.576	0.039	-0.046
-80.611	139.870	0.306	0.393
-79.597	82.474	0.174	0.184
-78.582	65.395	-0.157	0.155
-77.567	800.000	-0.019	-0.053
-76.553	-48.722	-0.113	0.053
-75.538	333.953	-0.078	-0.147
-74.524	-11.190	-0.079	-0.051
-73.509	800.000	-0.085	-0.259
-72.494	-61.207	-0.104	-0.043
-71.480	-69.580	0.318	0.119
-70.465	151.616	0.180	-0.239
-69.451	-200.000	-0.001	0.195
-68.436	109.140	0.181	-0.212
-67.422	684.397	0.119	0.304
-66.407	-60.435	-0.167	-0.069
-65.392	-149.789	0.090	-0.007
-64.378	800.000	-0.053	0.154
-63.363	-200.000	0.036	0.252
-62.349	-77.045	0.129	0.044
-61.334	170.973	-0.901	-1.261
-60.319	54.778	0.740	0.697
-59.305	356.636	-0.613	-1.192
-58.290	293.791	0.716	1.276
-57.276	355.934	0.831	1.615
-56.261	-200.000	114.137	616.784
-55.246	433.933	1529.050	3241.655
-54.232	142.886	2720.569	3529.976
-53.217	99.322	2208.842	2492.733
-52.203	37.264	1721.610	1488.532
-51.188	29.466	1534.823	1273.425
-50.173	27.235	1509.437	1237.159
-49.159	49.533	1568.169	1440.660
-48.144	48.124	1583.414	1444.831
-47.130	29.591	1539.598	1278.054
-46.115	26.630	1524.494	1245.139
-45.100	26.495	1520.803	1241.148
-44.086	26.450	1518.883	1239.225
-43.071	26.350	1517.174	1237.102
-42.057	26.272	1515.373	1235.045
-41.042	26.325	1514.003	1234.245
-40.027	26.321	1512.058	1232.583
-39.013	26.331	1510.861	1231.625
-37.998	26.343	1509.796	1230.790
-36.984	26.286	1508.707	1229.467
-35.969	26.409	1506.613	1228.545
-34.954	26.367	1505.667	1227.443
-33.940	26.340	1504.395	1226.173
-32.925	26.387	1503.296	1225.545
-31.911	26.335	1501.669	1223.818
-30.896	26.486	1500.284	1223.666
-29.881	26.457	1498.949	1222.329
-28.867	26.413	1497.764	1221.017
-27.852	26.343	1496.660	1219.599
-26.838	26.433	1494.830	1218.667
-25.823	26.385	1492.886	1216.705
-24.809	26.490	1491.373	1216.135
-23.794	26.366	1490.369	1214.433
-22.779	26.429	1489.639	1214.216
-21.765	26.489	1487.861	1213.117
-20.750	26.463	1486.831	1212.055
-19.736	26.478	1485.607	1211.113
-18.721	26.406	1484.214	1209.442
-17.706	26.413	1483.237	1208.646
-16.692	26.339	1482.237	1207.291
-15.677	26.336	1481.601	1206.707
-14.663	26.354	1480.381	1205.786
-13.648	26.352	1479.444	1204.960
-12.633	26.411	1478.576	1204.595
-11.619	26.367	1477.770	1203.603
-10.604	26.327	1476.905	1202.583
-9.590	26.337	1476.095	1201.937
-8.575	26.343	1474.672	1200.774
-7.560	26.355	1474.484	1200.650
-6.546	26.299	1473.548	1199.468
-5.531	26.318	1472.573	1198.755
-4.517	26.245	1471.631	1197.460
-3.502	26.364	1470.648	1197.399
-2.487	26.310	1469.478	1196.043
-1.473	26.302	1468.080	1194.802
-0.458	26.352	1467.119	1194.307
0.556	25.628	1457.276	1185.049
1.571	23.036	1433.096	1148.474
2.586	19.870	1370.200	1078.275
3.600	18.077	1284.953	1000.612
4.615	16.640	1239.807	957.250
5.629	14.398	1183.035	901.222
6.644	7.425	1098.227	801.420
7.659	1.759	1060.050	745.809
8.673	0.989	1054.271	737.924
9.688	0.785	1051.402	734.860
10.702	0.810	1049.898	733.864
11.717	0.847	1047.711	732.451
12.731	3.084	1048.914	744.062
13.746	9.750	1058.114	782.972
14.761	15.438	1065.807	816.333
15.775	17.258	1067.072	826.085
16.790	17.080	1066.012	824.327
17.804	16.065	1063.582	817.454
18.819	15.244	1061.922	812.129
19.834	14.744	1060.784	808.769
20.848	14.394	1059.759	806.222
21.863	14.224	1058.733	804.545
22.877	13.895	1058.266	802.529
23.892	13.756	1057.162	800.950
24.907	13.602	1056.341	799.514
25.921	13.668	1055.482	799.113
26.936	13.682	1054.914	798.682
27.950	13.613	1054.270	797.789
28.965	13.777	1053.267	797.750
29.980	13.871	1052.247	797.358
30.994	13.799	1051.668	796.502
32.009	13.900	1050.677	796.164
33.023	13.808	1050.099	795.216
34.038	13.779	1049.349	794.438
35.053	13.861	1048.342	793.999
36.067	13.769	1047.267	792.673
37.082	13.824	1046.350	792.170
38.096	13.745	1045.819	791.324
39.111	13.820	1044.973	790.971
40.126	13.887	1043.867	790.385
41.140	13.670	1043.416	788.938
42.155	13.744	1042.229	788.323
43.169	13.604	1041.741	787.219
44.184	13.757	1040.289	786.776
45.199	13.730	1038.674	785.358
46.213	13.583	1038.257	784.280
47.228	13.791	1036.945	784.202
48.242	13.734	1036.251	783.339
49.257	13.768	1035.366	782.762
50.271	13.728	1034.572	781.901
51.286	13.678	1033.931	781.111
52.301	13.773	1032.694	780.557
53.315	13.830	1031.552	779.892
54.330	13.672	1031.186	778.805
55.344	13.709	1030.041	778.045
56.359	13.734	1029.015	777.319
57.374	13.686	1028.350	776.521
58.388	13.715	1027.498	775.944
59.403	13.682	1026.329	774.840
60.417	13.615	1025.890	774.125
61.432	13.688	1025.317	773.966
62.447	13.638	1024.579	773.107
63.461	13.598	1023.863	772.313
64.476	13.639	1022.439	771.359
65.490	13.623	1021.873	770.792
66.505	13.656	1020.783	770.054
67.520	13.643	1020.278	769.542
68.534	13.655	1019.616	769.032
69.549	13.730	1018.581	768.531
70.563	13.686	1018.005	767.825
71.578	13.621	1017.375	766.981
72.593	13.690	1016.103	766.275
73.607	13.541	1015.503	765.066
74.622	13.575	1014.173	764.154
75.636	13.474	1013.984	763.479
76.651	13.512	1012.985	762.834
77.666	13.603	1011.630	762.163
78.680	13.596	1011.325	761.835
79.695	13.526	1010.820	761.066
80.709	13.539	1010.326	760.685
81.724	13.542	1009.590	760.076
82.739	13.596	1008.496	759.433
83.753	13.621	1007.803	758.958
84.768	13.601	1007.461	758.543
85.782	13.749	1006.310	758.284
86.797	13.843	1005.148	757.772
87.812	13.902	1004.370	757.386
88.826	13.635	1004.054	755.866
89.841	13.673	1002.742	754.982
90.855	13.642	1002.269	754.418
91.870	13.621	1001.586	753.742
92.884	13.789	1000.824	753.866
93.899	13.824	999.687	753.100
94.914	13.739	999.422	752.451
95.928	13.754	998.456	751.725
96.943	13.907	997.561	751.676
97.957	13.977	996.531	751.149
98.972	13.835	995.888	749.957
99.987	13.902	995.268	749.727
101.001	13.915	994.665	749.264
102.016	13.819	993.418	747.828
103.030	13.756	992.532	746.811
104.045	13.902	991.498	746.623
105.060	13.876	990.776	745.897
106.074	13.875	989.420	744.804
107.089	13.713	989.146	743.804
108.103	13.710	988.254	743.057
109.118	13.635	987.276	741.918
110.133	13.708	986.268	741.421
111.147	13.779	985.174	740.852
112.162	13.801	984.259	740.195
113.176	13.690	983.593	739.135
114.191	13.775	982.811	738.860
115.206	13.834	981.645	738.182
116.220	13.783	981.182	737.542
117.235	13.737	980.333	736.632
118.249	13.655	979.773	735.782
119.264	13.834	978.215	735.339
120.279	13.741	978.042	734.732
121.293	13.724	976.848	733.694
122.308	13.788	976.307	733.509
123.322	13.741	975.379	732.537
124.337	13.782	974.399	731.916
125.352	13.790	973.033	730.865
126.366	13.919	971.817	730.451
127.381	13.762	971.034	729.110
128.395	13.676	970.495	728.261
129.410	13.654	969.069	727.033
130.424	13.721	968.094	726.527
131.439	13.709	967.336	725.842
132.454	13.816	966.448	725.579
133.468	13.898	965.614	725.249
134.483	13.878	964.963	724.608
135.497	13.723	964.682	723.659
136.512	13.773	963.589	722.992
137.527	13.881	962.828	722.828
138.541	13.801	962.065	721.839
139.556	13.782	961.246	721.080
140.570	13.819	960.372	720.523
141.585	13.755	960.041	719.930
142.600	13.863	958.894	719.477
143.614	13.827	958.333	718.837
144.629	13.898	957.455	718.421
145.643	13.927	956.876	718.050
146.658	13.882	955.870	717.036
147.673	13.837	954.657	715.868
148.687	13.858	954.160	715.520
149.702	13.848	953.127	714.643
150.716	13.843	952.451	714.048
151.731	13.855	951.488	713.318
152.746	13.910	950.836	713.001
153.760	14.011	949.992	712.738
154.775	13.828	949.320	711.387
155.789	13.950	948.624	711.323
156.804	13.944	947.961	710.738
157.819	14.115	946.455	710.275
158.833	13.932	946.255	709.280
159.848	13.970	945.998	709.190
160.862	13.970	945.355	708.644
161.877	14.014	944.102	707.832
162.892	13.969	943.451	707.087
163.906	14.055	942.495	706.672
164.921	14.087	941.492	705.995
165.935	13.921	940.953	704.824
166.950	14.088	939.732	704.554
167.964	14.068	939.062	703.904
168.979	13.998	938.073	702.807
169.994	14.144	936.743	702.364
171.008	13.988	935.911	701.020
172.023	14.117	935.215	700.979
173.037	14.037	934.607	700.128
174.052	14.200	933.711	700.078
175.067	14.309	932.896	699.862
176.081	14.171	932.272	698.756
177.096	14.174	931.216	697.913
178.110	14.067	930.622	696.959
179.125	14.020	930.265	696.430
180.140	14.195	928.804	696.008
181.154	14.103	928.488	695.327
182.169	14.249	927.730	695.304
183.183	14.261	927.107	694.827
184.198	14.210	925.936	693.675
185.213	14.354	925.281	693.722
186.227	14.273	925.108	693.196
187.242	14.351	924.861	693.275
188.256	14.362	924.135	692.713
189.271	14.387	923.111	691.988
190.286	14.280	922.729	691.199
191.300	14.282	921.690	690.368
192.315	14.177	921.013	689.364
193.329	14.273	920.359	689.208
194.344	14.374	919.458	688.891
195.359	14.274	919.063	688.122
196.373	14.351	918.340	687.836
197.388	14.388	917.801	687.524
198.402	14.470	917.240	687.382
199.417	14.504	916.972	687.261
200.432	14.491	916.657	686.909
201.446	14.479	916.105	686.386
202.461	14.596	915.780	686.563
203.475	14.602	915.177	686.077
204.490	14.498	914.532	685.102
205.504	14.627	913.488	684.791
206.519	14.609	912.755	684.108
207.534	14.509	911.960	683.039
208.548	14.621	911.132	682.819
209.563	14.602	910.691	682.348
210.577	14.493	910.266	681.528
211.592	14.717	909.070	681.485
212.607	14.756	908.410	681.086
213.621	14.745	908.074	680.732
214.636	14.678	907.510	679.975
215.650	14.647	906.661	679.151
216.665	14.782	906.179	679.281
217.680	14.752	905.686	678.730
218.694	14.865	904.919	678.554
219.709	14.794	904.762	678.086
220.723	14.842	903.792	677.494
221.738	14.931	902.898	677.124
222.753	14.784	902.468	676.148
223.767	14.831	901.856	675.821
224.782	14.808	901.008	675.032
225.796	14.883	899.989	674.508
226.811	14.884	899.268	673.914
227.826	14.994	898.828	673.969
228.840	14.970	898.171	673.319
229.855	14.836	897.639	672.324
230.869	14.801	897.195	671.791
231.884	14.901	896.506	671.614
232.899	14.922	895.313	670.747
233.913	14.912	894.808	670.270
234.928	14.866	894.323	669.662
235.942	14.862	893.479	668.956
236.957	14.796	892.825	668.142
237.972	14.804	892.381	667.782
238.986	14.874	891.353	667.235
240.001	15.047	890.781	667.436
241.015	15.054	889.736	666.624
242.030	15.041	889.378	666.243
243.045	15.064	888.774	665.821
244.059	14.963	888.574	665.212
245.074	15.083	887.508	664.831
246.088	14.953	886.968	663.854
247.103	15.121	886.438	664.066
248.117	15.236	884.962	663.355
249.132	15.239	884.477	662.946
250.147	15.288	884.255	662.913
251.161	15.229	884.047	662.467
252.176	15.275	883.130	661.901
253.190	15.308	882.244	661.308
254.205	15.285	881.816	660.838
255.220	15.454	881.048	660.872
256.234	15.392	880.391	660.076
257.249	15.320	879.922	659.383
258.263	15.565	879.246	659.781
259.278	15.384	878.842	658.706
260.293	15.403	878.311	658.328
261.307	15.569	877.379	658.217
262.322	15.443	877.017	657.395
263.336	15.508	876.447	657.163
264.351	15.723	875.510	657.243
265.366	15.700	874.881	656.625
266.380	15.583	874.437	655.777
267.395	15.571	873.703	655.123
268.409	15.713	872.879	654.997
269.424	15.653	872.479	654.407
270.439	15.598	871.916	653.711
271.453	15.607	870.824	652.870
272.468	15.588	870.187	652.263
273.482	15.511	869.661	651.512
274.497	15.590	868.979	651.251
275.512	15.679	868.374	651.081
276.526	15.581	867.545	650.025
277.541	15.699	866.810	649.870
278.555	15.600	866.310	649.055
279.570	15.701	865.960	649.129
280.585	15.686	865.406	648.596
281.599	15.762	864.675	648.283
282.614	15.793	864.093	647.910
283.628	15.871	863.705	647.861
284.643	15.819	862.944	647.034
285.657	15.868	862.377	646.739
286.672	15.854	861.672	646.102
287.687	15.962	861.392	646.250
288.701	15.831	861.105	645.471
289.716	15.939	860.490	645.367
290.730	15.837	859.845	644.437
291.745	15.975	859.131	644.372
292.760	15.971	858.074	643.509
293.774	15.976	857.567	643.090
294.789	16.037	857.479	643.198
295.803	15.909	856.753	642.112
296.818	15.953	855.854	641.546
297.833	16.062	855.308	641.495
298.847	16.053	854.595	640.872
299.862	15.954	854.036	640.016
300.876	16.105	853.156	639.874
301.891	16.048	852.517	639.122
302.906	16.160	851.866	639.003
303.920	16.188	851.227	638.573
304.935	16.286	850.436	638.293
305.949	16.346	849.340	637.642
306.964	16.285	849.483	637.461
307.979	16.400	848.676	637.232
308.993	16.189	848.295	636.094
310.008	16.277	847.885	636.064
311.022	16.202	847.465	635.411
312.037	16.335	846.686	635.268
313.052	16.261	846.412	634.730
314.066	16.382	845.283	634.282
315.081	16.255	844.914	633.470
316.095	16.344	844.424	633.383
317.110	16.234	844.285	632.810
318.125	16.197	843.420	631.966
319.139	16.305	842.684	631.762
320.154	16.226	842.402	631.202
321.168	16.339	841.631	630.990
322.183	16.258	841.445	630.492
323.197	16.313	840.679	630.067
324.212	16.421	840.196	630.053
325.227	16.417	839.613	629.545
326.241	16.405	839.415	629.295
327.256	16.376	838.459	628.413
328.270	16.322	838.194	627.959
329.285	16.418	837.178	627.498
330.300	16.433	836.592	627.060
331.314	16.401	836.255	626.634
332.329	16.568	834.926	626.198
333.343	16.449	834.866	625.659
334.358	16.473	833.982	625.032
335.373	16.728	833.607	625.636
336.387	16.580	833.032	624.603
337.402	16.469	833.276	624.320
338.416	16.570	832.134	623.783
339.431	16.611	831.571	623.456
340.446	16.801	830.825	623.542
341.460	16.591	830.704	622.620
342.475	16.792	829.969	622.756
343.489	16.796	828.844	621.871
344.504	16.833	828.774	621.899
345.519	16.758	828.306	621.216
346.533	16.764	827.827	620.827
347.548	16.740	827.046	620.098
348.562	16.787	826.854	620.068
349.577	16.856	826.339	619.881
350.592	16.831	825.538	619.134
351.606	16.772	824.992	618.454
352.621	16.735	824.569	617.946
353.635	16.752	824.400	617.830
354.650	16.824	823.629	617.458
355.665	17.012	823.419	617.929
356.679	16.890	823.019	617.131
357.694	16.981	822.512	617.029
358.708	16.973	821.750	616.375
359.723	16.833	821.519	615.636
360.738	16.951	820.521	615.261
361.752	16.986	820.003	614.946
362.767	17.030	819.855	614.941
363.781	16.986	819.798	614.683
364.796	16.950	819.070	613.952
365.810	17.293	818.367	614.614
366.825	17.040	818.311	613.600
367.840	17.076	818.165	613.568
368.854	17.109	817.816	613.370
369.869	17.157	816.769	612.704
370.883	17.233	816.485	612.712
371.898	17.241	815.687	612.086
372.913	17.183	814.881	611.219
373.927	17.083	814.809	610.751
374.942	17.144	814.231	610.482
375.956	17.219	813.337	610.029
376.971	17.455	812.653	610.309
377.986	17.333	812.227	609.497
379.000	17.408	811.562	609.211
380.015	17.320	811.458	608.765
381.029	17.504	810.942	608.982
382.044	17.386	810.161	607.919
383.059	17.487	809.584	607.796
384.073	17.499	809.088	607.413
385.088	17.654	808.412	607.402
386.102	17.463	807.846	606.243
387.117	17.454	807.231	605.696
388.132	17.400	807.302	605.502
389.146	17.535	806.754	605.519
390.161	17.512	806.462	605.163
391.175	17.454	805.965	604.533
392.190	17.499	805.769	604.491
393.205	17.636	805.087	604.412
394.219	17.357	805.222	603.468
395.234	17.376	804.369	602.846
396.248	17.296	804.036	602.258
397.263	17.497	803.333	602.390
398.278	17.372	803.139	601.748
399.292	17.457	802.436	601.469
400.307	17.556	801.935	601.390
401.321	17.484	801.948	601.094
402.336	17.562	801.048	600.641
403.350	17.562	801.133	600.650
404.365	17.625	800.607	600.426
405.380	17.695	799.673	599.919
406.394	17.660	799.235	599.414
407.409	17.723	798.808	599.262
408.423	17.925	798.148	599.424
409.438	17.804	798.162	598.956
410.453	17.872	797.570	598.695
411.467	17.907	797.297	598.559
412.482	17.734	796.554	597.344
413.496	17.933	796.048	597.608
414.511	17.930	795.687	597.273
415.526	17.883	795.653	597.031
416.540	18.002	795.263	597.102
417.555	17.925	794.690	596.349
418.569	17.897	794.188	595.823
419.584	17.971	793.841	595.769
420.599	18.001	793.011	595.195
421.613	113.899	1294.864	1482.383
422.628	98.045	1367.952	1482.476
