DTS Sentinel unit serial number:	SN413079Multiplexer serial number:	ORYXHardware model number:	OX4-SRSoftware version number:	ORYX F/W v4.00 Oryx Data Collector v3.7.2.0data status	okinstallation	princeton_trtdifferential loss correction	single-endedforward channel	channel 3reverse channel	N/Adate	2019/09/15time	00:28:35forward acquisition time	60.00reverse acquisition time	0.00gamma	496.2192k internal	0.2319k external	0.2319temperature offset calibration	0.9976default loss term (dB/km)	0.3790temperature slope calibration	1.0000multiplexer offset coefficient	1.0000multiplexer slope coefficient	1.0000fibre end	0.00T internal ref (°C)	32.12T ext. ref 1 (°C)	4.57T ext. ref 2 (°C)	27.18length (m)	temperature (°C)	Stokes	anti-Stokes-747.200	-200.000	0.031	0.319
-746.185	-10.477	-0.220	0.147
-745.171	-71.224	-0.244	-0.093
-744.156	272.971	0.175	0.312
-743.142	-200.000	0.028	-0.166
-742.127	40.745	0.138	0.126
-741.112	30.809	-0.140	0.121
-740.098	800.000	0.164	0.460
-739.083	-200.000	-0.037	0.226
-738.069	-200.000	-0.042	0.195
-737.054	73.092	-0.022	-0.024
-736.039	-56.020	-0.220	0.099
-735.025	-154.586	0.054	-0.004
-734.010	392.104	-0.164	-0.344
-732.996	-138.125	-0.108	0.012
-731.981	23.558	-0.012	0.010
-730.966	7.399	0.296	-0.223
-729.952	-157.111	-0.388	-0.024
-728.937	132.441	-0.128	-0.167
-727.923	-63.097	0.326	-0.136
-726.908	73.164	-0.202	0.214
-725.894	800.000	-0.081	0.334
-724.879	-179.943	-0.374	-0.008
-723.864	3.945	0.254	0.187
-722.850	-200.000	-0.015	-0.132
-721.835	4.764	0.129	-0.096
-720.821	-200.000	-0.031	-0.267
-719.806	800.000	-0.039	-0.127
-718.791	-133.243	0.184	-0.024
-717.777	-56.628	-0.103	-0.046
-716.762	-82.303	-0.093	-0.030
-715.748	85.671	0.048	0.054
-714.733	-63.622	0.102	-0.042
-713.718	40.239	-0.291	-0.264
-712.704	39.057	-0.194	-0.175
-711.689	160.038	-0.200	-0.281
-710.675	54.653	-0.254	0.248
-709.660	9.657	0.184	0.141
-708.645	16.069	-0.024	-0.019
-707.631	-50.056	0.117	-0.056
-706.616	-200.000	-0.036	-0.361
-705.602	-115.749	-0.391	0.074
-704.587	-47.477	-0.227	0.111
-703.572	-8.203	0.134	-0.091
-702.558	-34.667	0.276	-0.152
-701.543	-200.000	0.023	-0.498
-700.529	-200.000	-0.154	-0.000
-699.514	-200.000	0.006	-0.082
-698.499	783.009	-0.199	-0.552
-697.485	-61.818	-0.103	-0.043
-696.470	-200.000	0.011	0.092
-695.456	800.000	-0.029	-0.080
-694.441	-169.310	-0.369	0.014
-693.426	8.376	-0.011	0.008
-692.412	800.000	-0.098	-0.363
-691.397	-200.000	0.051	-0.385
-690.383	123.767	-0.189	-0.240
-689.368	44.247	-0.171	-0.158
-688.354	800.000	-0.094	0.278
-687.339	-51.810	-0.224	-0.105
-686.324	133.528	-0.138	0.180
-685.310	800.000	0.030	-0.092
-684.295	-173.578	0.071	-0.002
-683.281	-200.000	0.061	0.621
-682.266	-200.000	-0.035	0.158
-681.251	636.883	-0.043	-0.110
-680.237	-71.046	0.284	0.108
-679.222	-158.615	-0.176	0.010
-678.208	-200.000	-0.000	0.040
-677.193	-200.000	-0.000	0.117
-676.178	170.249	-0.050	-0.072
-675.164	-102.846	-0.143	-0.034
-674.149	800.000	-0.037	-0.147
-673.135	148.105	-0.141	-0.192
-672.120	78.620	-0.050	-0.054
-671.105	-116.500	0.132	-0.024
-670.091	144.495	-0.043	0.058
-669.076	0.996	-0.216	-0.156
-668.062	78.220	0.197	-0.212
-667.047	175.578	-0.217	0.318
-666.032	274.718	-0.160	0.287
-665.018	213.638	0.225	-0.359
-664.003	-83.711	-0.066	0.021
-662.989	800.000	-0.037	-0.114
-661.974	198.641	-0.112	-0.173
-660.959	159.194	-0.124	-0.173
-659.945	-167.892	0.182	0.007
-658.930	429.365	0.062	0.135
-657.916	800.000	0.033	-0.100
-656.901	800.000	-0.052	-0.167
-655.886	-200.000	0.011	0.137
-654.872	-200.000	0.035	-0.211
-653.857	101.395	-0.032	0.038
-652.843	-22.974	-0.247	0.150
-651.828	-21.511	-0.368	0.226
-650.814	-200.000	0.109	0.504
-649.799	-138.178	0.165	0.018
-648.784	-43.008	-0.138	-0.071
-647.770	190.716	0.203	0.308
-646.755	53.024	-0.146	0.141
-645.741	-108.498	0.093	0.020
-644.726	-95.485	-0.393	-0.106
-643.711	-200.000	-0.056	0.294
-642.697	110.208	0.171	0.207
-641.682	335.997	-0.011	0.021
-640.668	118.785	-0.112	-0.140
-639.653	-59.829	0.438	0.189
-638.638	-136.288	-0.366	0.043
-637.624	800.000	0.054	-0.191
-636.609	-100.808	0.212	-0.052
-635.595	-200.000	-0.019	-0.133
-634.580	270.918	-0.078	-0.139
-633.565	-200.000	0.021	-0.231
-632.551	-5.385	-0.277	0.191
-631.536	-200.000	0.067	-0.309
-630.522	-200.000	-0.019	-0.324
-629.507	800.000	-0.014	0.042
-628.492	211.346	0.019	0.030
-627.478	151.589	-0.019	-0.026
-626.463	-76.781	-0.209	-0.074
-625.449	-42.069	0.146	0.075
-624.434	-127.160	-0.164	-0.024
-623.419	404.924	-0.115	-0.244
-622.405	97.314	0.076	0.088
-621.390	-200.000	-0.023	0.127
-620.376	-117.009	-0.115	-0.021
-619.361	-144.997	-0.419	0.038
-618.346	213.112	0.168	0.266
-617.332	230.525	0.162	0.266
-616.317	-169.381	-0.060	-0.002
-615.303	-91.111	-0.364	0.105
-614.288	-84.383	-0.109	0.035
-613.273	-200.000	-0.030	-0.466
-612.259	96.057	-0.021	0.024
-611.244	-104.737	0.147	0.034
-610.230	-58.836	0.371	-0.161
-609.215	-110.347	0.205	0.043
-608.201	800.000	-0.059	0.227
-607.186	-200.000	0.004	0.196
-606.171	-200.000	-0.057	0.294
-605.157	18.364	-0.220	0.177
-604.142	-32.824	-0.195	0.109
-603.128	-1.622	-0.201	0.143
-602.113	34.165	-0.269	-0.236
-601.098	94.614	0.203	-0.232
-600.084	34.999	0.351	-0.309
-599.069	-25.031	-0.121	-0.072
-598.055	-6.473	0.127	-0.087
-597.040	268.708	-0.062	0.109
-596.025	160.572	-0.034	0.048
-595.011	800.000	-0.077	-0.220
-593.996	-200.000	-0.007	0.141
-592.982	800.000	-0.071	-0.233
-591.967	-26.209	0.398	0.235
-590.952	-119.337	-0.331	-0.058
-589.938	-200.000	0.064	-0.355
-588.923	-108.008	0.174	-0.038
-587.909	162.716	0.084	-0.118
-586.894	-67.063	0.065	-0.026
-585.879	37.080	0.223	-0.198
-584.865	-61.208	0.113	-0.048
-583.850	180.976	0.127	-0.187
-582.836	-200.000	0.002	-0.224
-581.821	-132.336	0.172	0.022
-580.806	17.508	0.135	-0.107
-579.792	80.642	-0.159	-0.172
-578.777	-32.505	0.267	0.149
-577.763	-141.309	0.070	0.007
-576.748	77.878	-0.024	0.026
-575.733	-200.000	0.109	-0.493
-574.719	-139.086	-0.155	-0.017
-573.704	-47.559	0.153	-0.075
-572.690	235.876	-0.085	0.142
-571.675	-144.835	0.208	0.019
-570.661	-200.000	-0.034	0.207
-569.646	129.603	0.131	-0.168
-568.631	33.980	-0.202	0.177
-567.617	-114.836	0.239	0.046
-566.602	-116.042	-0.022	-0.004
-565.588	-42.967	-0.037	-0.019
-564.573	74.831	0.133	0.141
-563.558	1.424	0.053	-0.038
-562.544	-200.000	0.024	-0.191
-561.529	-200.000	-0.029	0.141
-560.515	-128.470	0.233	0.033
-559.500	-200.000	-0.015	0.251
-558.485	-168.733	-0.326	-0.012
-557.471	93.770	-0.276	-0.314
-556.456	112.004	-0.088	-0.107
-555.442	-11.489	-0.293	-0.193
-554.427	199.566	0.111	-0.171
-553.412	142.094	-0.102	0.136
-552.398	-200.000	-0.055	-0.388
-551.383	-178.083	0.255	0.006
-550.369	130.380	0.255	0.328
-549.354	-44.551	0.246	0.123
-548.339	-86.669	-0.282	-0.087
-547.325	95.237	0.094	-0.108
-546.310	-200.000	0.010	0.229
-545.296	186.709	-0.078	0.116
-544.281	800.000	0.048	-0.142
-543.266	-200.000	0.027	-0.205
-542.252	11.696	-0.246	-0.190
-541.237	138.345	-0.237	0.313
-540.223	-74.137	-0.380	-0.138
-539.208	104.408	-0.268	0.317
-538.193	-111.968	-0.161	0.033
-537.179	-30.439	-0.069	0.039
-536.164	-35.475	0.185	-0.101
-535.150	145.841	0.019	-0.026
-534.135	-200.000	0.005	0.153
-533.121	-1.714	0.260	0.184
-532.106	-0.101	-0.104	0.074
-531.091	800.000	-0.064	-0.199
-530.077	-200.000	0.005	0.060
-529.062	198.542	0.090	0.138
-528.048	-78.844	-0.119	-0.041
-527.033	800.000	0.018	-0.067
-526.018	250.931	-0.042	-0.072
-525.004	-121.910	0.048	0.008
-523.989	-137.449	-0.010	-0.001
-522.975	78.167	-0.152	0.163
-521.960	-200.000	0.027	-0.291
-520.945	-200.000	0.033	-0.226
-519.931	-135.503	0.151	-0.018
-518.916	-36.199	0.060	0.032
-517.902	278.881	-0.165	0.296
-516.887	72.516	-0.169	-0.177
-515.872	-200.000	-0.019	0.189
-514.858	-200.000	0.009	-0.369
-513.843	-69.962	-0.144	0.055
-512.829	-200.000	-0.016	0.288
-511.814	102.903	0.079	0.093
-510.799	-43.809	-0.111	-0.056
-509.785	-140.070	-0.172	-0.018
-508.770	-200.000	-0.029	-0.446
-507.756	-67.522	0.198	-0.078
-506.741	800.000	-0.012	-0.046
-505.726	-1.492	-0.194	-0.137
-504.712	-129.063	0.177	-0.025
-503.697	-130.765	0.445	-0.060
-502.683	97.025	0.151	0.174
-501.668	800.000	0.091	0.309
-500.653	-76.146	-0.102	0.036
-499.639	-69.496	-0.274	-0.105
-498.624	-30.412	-0.237	-0.135
-497.610	-103.210	0.179	-0.042
-496.595	-90.038	0.048	-0.014
-495.581	-122.969	-0.294	0.047
-494.566	-86.895	-0.124	-0.038
-493.551	-79.353	-0.108	0.037
-492.537	-200.000	-0.013	-0.304
-491.522	464.632	0.169	0.379
-490.508	-89.334	0.427	0.126
-489.493	56.054	0.188	-0.183
-488.478	124.119	0.141	-0.178
-487.464	-200.000	0.043	-0.257
-486.449	-200.000	0.037	-0.274
-485.435	-200.000	0.001	-0.238
-484.420	-22.371	-0.030	0.018
-483.405	-10.837	0.036	-0.024
-482.391	82.848	-0.100	-0.109
-481.376	-200.000	0.007	-0.242
-480.362	-200.000	0.032	0.178
-479.347	800.000	0.102	-0.289
-478.332	448.331	-0.113	-0.249
-477.318	60.709	-0.083	0.083
-476.303	40.443	-0.083	-0.075
-475.289	-141.565	-0.478	-0.048
-474.274	-200.000	0.065	0.304
-473.259	272.690	0.129	0.229
-472.245	251.609	-0.158	-0.269
-471.230	-137.669	0.158	0.018
-470.216	328.479	0.201	0.386
-469.201	93.528	-0.177	0.200
-468.186	182.561	0.075	-0.111
-467.172	329.698	0.124	0.238
-466.157	312.003	-0.160	0.301
-465.143	-57.832	-0.094	-0.041
-464.128	-131.190	0.045	-0.006
-463.113	-200.000	0.009	0.079
-462.099	800.000	0.084	-0.270
-461.084	110.635	-0.225	-0.271
-460.070	131.349	-0.160	-0.206
-459.055	-117.545	-0.110	-0.020
-458.040	800.000	-0.088	0.291
-457.026	-200.000	0.019	0.346
-456.011	-129.441	0.291	0.040
-454.997	-113.893	-0.222	-0.043
-453.982	-60.219	0.041	0.017
-452.968	800.000	-0.095	-0.307
-451.953	-200.000	-0.034	0.161
-450.938	7.744	0.206	-0.154
-449.924	800.000	0.024	0.100
-448.909	-200.000	-0.012	0.214
-447.895	-200.000	0.066	-0.296
-446.880	-200.000	-0.007	-0.035
-445.865	383.929	0.013	0.027
-444.851	-200.000	-0.060	-0.425
-443.836	74.250	-0.068	-0.071
-442.822	800.000	0.012	0.054
-441.807	458.325	0.042	-0.092
-440.792	-141.722	-0.255	-0.026
-439.778	203.653	0.137	0.211
-438.763	440.563	0.117	0.256
-437.749	800.000	-0.051	-0.192
-436.734	-84.960	-0.081	0.025
-435.719	-114.136	0.101	0.019
-434.705	800.000	-0.008	0.029
-433.690	83.056	-0.321	-0.349
-432.676	372.067	0.073	-0.148
-431.661	131.090	0.199	0.256
-430.646	-26.489	0.236	0.138
-429.632	-5.735	0.078	-0.054
-428.617	-129.479	-0.204	-0.028
-427.603	58.179	-0.178	-0.174
-426.588	310.332	-0.072	-0.135
-425.573	-200.000	-0.014	0.185
-424.559	271.750	-0.071	-0.125
-423.544	-51.422	-0.182	-0.085
-422.530	-46.896	-0.057	-0.028
-421.515	28.094	-0.259	0.218
-420.500	90.913	0.030	0.034
-419.486	471.046	-0.034	0.077
-418.471	2.693	0.270	-0.195
-417.457	322.129	-0.081	-0.155
-416.442	75.216	-0.080	-0.084
-415.428	-200.000	-0.049	-0.219
-414.413	-93.875	-0.296	0.081
-413.398	46.767	0.293	0.271
-412.384	100.881	-0.092	0.107
-411.369	-200.000	0.033	-0.342
-410.355	-185.154	0.281	-0.004
-409.340	351.036	0.125	0.247
-408.325	406.068	0.109	-0.229
-407.311	-186.660	-0.315	0.004
-406.296	583.641	-0.028	0.069
-405.282	-128.941	0.161	0.023
-404.267	282.599	-0.048	-0.087
-403.252	487.592	-0.041	0.093
-402.238	-200.000	-0.001	0.052
-401.223	-86.415	-0.453	0.139
-400.209	-110.914	-0.182	0.037
-399.194	-200.000	-0.024	-0.238
-398.179	35.851	0.376	0.330
-397.165	-75.317	-0.382	-0.136
-396.150	180.493	-0.054	0.078
-395.136	-57.718	-0.068	-0.030
-394.121	-32.046	-0.031	0.017
-393.106	-0.559	-0.022	-0.016
-392.092	-132.352	-0.164	-0.021
-391.077	105.458	-0.158	0.187
-390.063	267.130	-0.094	-0.165
-389.048	424.406	0.028	-0.059
-388.033	81.347	0.044	-0.048
-387.019	800.000	0.053	0.156
-386.004	-55.137	0.223	0.100
-384.990	10.045	-0.271	-0.206
-383.975	-200.000	-0.025	0.259
-382.960	377.449	-0.170	0.347
-381.946	-85.262	-0.148	-0.046
-380.931	-22.398	-0.072	0.043
-379.917	800.000	0.078	-0.220
-378.902	40.425	0.135	-0.121
-377.888	-200.000	-0.034	-0.169
-376.873	800.000	0.039	0.139
-375.858	-30.920	0.105	-0.059
-374.844	146.402	0.200	-0.268
-373.829	-130.695	0.333	0.045
-372.815	-115.559	0.280	0.052
-371.800	129.634	0.307	-0.392
-370.785	95.734	0.249	0.283
-369.771	-39.195	0.050	-0.026
-368.756	-81.540	0.396	0.130
-367.742	94.502	-0.115	-0.130
-366.727	27.855	0.067	-0.056
-365.712	744.259	0.034	0.091
-364.698	77.376	-0.187	0.198
-363.683	46.893	-0.128	0.118
-362.669	87.367	0.155	0.171
-361.654	35.492	0.104	-0.091
-360.639	-149.267	0.136	0.011
-359.625	134.764	-0.194	-0.251
-358.610	800.000	-0.040	-0.121
-357.596	269.859	-0.041	0.071
-356.581	-23.084	0.135	-0.081
-355.566	278.919	-0.257	0.456
-354.552	338.156	-0.020	-0.039
-353.537	132.880	0.098	-0.126
-352.523	-200.000	-0.006	-0.079
-351.508	269.363	-0.066	0.115
-350.493	760.509	0.062	0.167
-349.479	786.767	0.161	-0.441
-348.464	-41.896	0.227	-0.116
-347.450	145.759	-0.163	0.217
-346.435	800.000	-0.050	-0.153
-345.420	278.203	0.157	-0.278
-344.406	11.215	-0.246	0.187
-343.391	-170.226	0.167	-0.006
-342.377	-153.518	0.241	0.017
-341.362	-141.440	-0.124	-0.013
-340.348	30.752	-0.088	0.075
-339.333	-45.967	-0.181	0.089
-338.318	-39.368	0.130	0.068
-337.304	-200.000	0.037	0.187
-336.289	245.229	-0.082	0.137
-335.275	-200.000	-0.021	0.354
-334.260	-19.604	-0.139	-0.086
-333.245	25.012	0.186	0.154
-332.231	-156.264	-0.088	-0.005
-331.216	-65.720	0.104	0.041
-330.202	-82.981	-0.310	0.100
-329.187	-200.000	-0.022	-0.211
-328.172	-186.879	0.300	-0.004
-327.158	-5.948	-0.199	-0.135
-326.143	-61.721	0.143	-0.060
-325.129	-48.260	0.130	0.062
-324.114	-2.377	0.146	0.102
-323.099	-190.380	0.280	-0.003
-322.085	-200.000	0.023	-0.260
-321.070	510.399	-0.072	-0.167
-320.056	-200.000	-0.000	0.052
-319.041	253.898	-0.136	0.231
-318.026	104.640	0.032	0.038
-317.012	-200.000	0.005	-0.187
-315.997	-200.000	0.010	-0.099
-314.983	-200.000	-0.020	-0.266
-313.968	-114.389	0.161	0.031
-312.953	-200.000	-0.020	-0.199
-311.939	253.249	0.063	0.107
-310.924	323.266	0.068	0.129
-309.910	-195.996	0.232	0.002
-308.895	-100.235	0.079	-0.019
-307.880	329.040	0.123	0.235
-306.866	-171.623	0.219	0.007
-305.851	-115.194	0.030	-0.006
-304.837	12.245	0.341	-0.261
-303.822	-200.000	-0.002	-0.112
-302.807	-200.000	-0.030	0.237
-301.793	-5.820	0.167	0.113
-300.778	223.327	-0.073	-0.116
-299.764	-77.082	-0.174	0.060
-298.749	-80.025	0.090	-0.030
-297.735	32.548	-0.217	-0.186
-296.720	-131.579	-0.270	0.035
-295.705	-57.641	0.206	0.090
-294.691	51.008	0.032	0.030
-293.676	30.784	-0.109	0.092
-292.662	-85.112	0.181	0.056
-291.647	800.000	0.046	-0.139
-290.632	167.891	0.217	-0.306
-289.618	800.000	-0.113	-0.377
-288.603	-29.258	0.260	0.148
-287.589	-91.138	-0.301	0.086
-286.574	-10.670	0.125	0.082
-285.559	-69.642	0.302	0.115
-284.545	-73.629	0.167	0.060
-283.530	-200.000	-0.003	0.482
-282.516	555.300	-0.053	0.127
-281.501	-107.986	-0.194	-0.042
-280.486	-60.708	-0.335	-0.141
-279.472	-7.420	0.061	0.041
-278.457	-31.235	-0.098	0.055
-277.443	-162.612	-0.133	0.007
-276.428	-90.406	0.151	-0.044
-275.413	800.000	0.037	0.132
-274.399	-107.472	0.261	0.057
-273.384	-42.362	-0.130	-0.066
-272.370	-110.484	-0.223	0.046
-271.355	-83.793	-0.083	-0.026
-270.340	-102.640	0.460	0.109
-269.326	-42.550	-0.087	0.044
-268.311	61.983	0.294	-0.291
-267.297	-83.020	-0.199	-0.064
-266.282	-28.509	-0.024	0.014
-265.267	93.541	0.162	0.182
-264.253	800.000	0.054	0.175
-263.238	-121.875	0.340	0.056
-262.224	396.477	0.031	0.065
-261.209	-158.677	-0.333	-0.019
-260.195	-32.861	0.081	-0.044
-259.180	-104.292	-0.146	-0.034
-258.165	62.923	-0.165	0.164
-257.151	-32.318	0.117	-0.065
-256.136	116.085	0.172	-0.209
-255.122	42.757	0.066	-0.060
-254.107	125.984	-0.173	-0.217
-253.092	633.652	-0.117	0.295
-252.078	-200.000	-0.037	0.248
-251.063	-61.827	0.222	0.092
-250.049	-150.452	0.554	0.042
-249.034	800.000	0.127	-0.413
-248.019	-4.563	-0.191	0.131
-247.005	-119.744	-0.237	0.040
-245.990	370.129	-0.071	-0.142
-244.976	-8.505	-0.085	0.057
-243.961	-55.586	-0.256	0.114
-242.946	-200.000	-0.019	0.256
-241.932	-119.495	-0.472	-0.081
-240.917	-95.813	-0.417	-0.110
-239.903	-200.000	0.073	0.429
-238.888	7.052	-0.265	-0.196
-237.873	93.969	-0.065	-0.073
-236.859	-147.773	-0.343	-0.028
-235.844	-68.418	0.225	0.087
-234.830	-181.505	0.284	0.005
-233.815	181.991	0.118	-0.172
-232.800	-73.241	-0.096	0.035
-231.786	-98.132	0.259	0.066
-230.771	61.193	0.047	-0.046
-229.757	212.672	0.178	-0.278
-228.742	-31.873	-0.466	-0.259
-227.727	-143.550	-0.269	0.025
-226.713	56.899	0.047	-0.045
-225.698	800.000	-0.062	-0.266
-224.684	-200.000	-0.007	0.213
-223.669	38.258	0.160	0.141
-222.655	435.226	-0.111	-0.238
-221.640	800.000	0.061	0.241
-220.625	800.000	0.047	0.165
-219.611	-200.000	-0.013	-0.102
-218.596	-73.283	0.189	0.069
-217.582	-200.000	-0.038	0.281
-216.567	430.885	-0.096	-0.205
-215.552	177.942	0.193	0.279
-214.538	-90.204	0.098	-0.028
-213.523	452.744	0.113	-0.249
-212.509	6.304	0.056	-0.042
-211.494	234.356	-0.076	-0.124
-210.479	29.383	-0.054	0.045
-209.465	17.071	0.275	0.216
-208.450	-200.000	-0.005	0.136
-207.436	-45.793	0.376	-0.184
-206.421	-54.342	0.181	-0.081
-205.406	78.385	-0.043	0.045
-204.392	66.950	-0.287	-0.289
-203.377	-56.611	0.364	0.160
-202.363	-200.000	-0.047	0.300
-201.348	-40.206	-0.249	-0.128
-200.333	-200.000	0.053	0.238
-199.319	91.615	-0.226	0.252
-198.304	286.870	0.179	0.320
-197.290	-127.831	-0.255	0.036
-196.275	-200.000	-0.007	0.093
-195.260	-71.566	-0.508	0.188
-194.246	-33.886	0.332	0.181
-193.231	306.121	0.182	0.336
-192.217	-105.860	0.104	0.023
-191.202	-135.235	-0.273	-0.032
-190.187	136.146	0.180	-0.233
-189.173	91.335	-0.083	-0.092
-188.158	38.444	-0.149	-0.131
-187.144	-76.493	-0.159	-0.055
-186.129	47.196	-0.157	0.144
-185.114	108.014	-0.020	0.024
-184.100	-200.000	-0.044	0.467
-183.085	-200.000	-0.027	0.147
-182.071	677.053	0.071	-0.182
-181.056	-115.084	-0.130	-0.024
-180.042	-117.506	0.417	0.075
-179.027	745.767	0.067	0.178
-178.012	82.346	0.033	-0.035
-176.998	156.928	-0.081	-0.111
-175.983	-29.654	-0.197	-0.111
-174.969	1.971	-0.052	0.037
-173.954	-200.000	-0.001	0.138
-172.939	-150.532	-0.244	0.018
-171.925	-19.693	0.210	-0.128
-170.910	2.270	-0.188	-0.135
-169.896	-103.346	0.229	-0.053
-168.881	276.106	-0.139	0.243
-167.866	-69.974	-0.323	0.122
-166.852	90.968	-0.138	0.153
-165.837	17.792	-0.336	0.264
-164.823	363.241	-0.082	0.162
-163.808	-200.000	-0.007	0.277
-162.793	62.648	0.033	0.032
-161.779	43.186	0.132	-0.119
-160.764	-20.049	-0.083	-0.051
-159.750	138.436	0.047	0.062
-158.735	-88.996	0.405	-0.118
-157.720	56.286	0.127	-0.122
-156.706	-200.000	0.024	-0.142
-155.691	-94.980	0.411	-0.110
-154.677	127.040	0.075	0.094
-153.662	261.521	0.152	0.261
-152.647	-200.000	0.022	0.158
-151.633	545.930	-0.133	-0.314
-150.618	-93.052	0.358	-0.099
-149.604	-67.527	0.107	0.042
-148.589	79.369	0.183	0.194
-147.574	-114.507	-0.087	0.016
-146.560	77.446	-0.181	0.190
-145.545	-72.462	0.321	0.117
-144.531	-88.788	-0.219	-0.064
-143.516	-42.744	0.402	0.202
-142.502	-58.236	0.100	0.043
-141.487	800.000	0.022	0.062
-140.472	232.840	-0.165	0.267
-139.458	104.933	-0.134	0.156
-138.443	77.647	0.187	0.197
-137.429	451.995	-0.026	0.056
-136.414	-118.230	0.263	-0.046
-135.399	210.212	-0.019	0.029
-134.385	-116.213	0.143	-0.026
-133.370	-67.477	-0.209	0.081
-132.356	34.111	0.146	0.126
-131.341	172.744	-0.068	-0.096
-130.326	-12.944	-0.077	-0.049
-129.312	800.000	-0.061	0.174
-128.297	-145.494	0.198	0.018
-127.283	-42.630	0.173	-0.087
-126.268	-178.679	0.246	0.006
-125.253	-28.785	-0.184	0.104
-124.239	47.117	0.134	-0.123
-123.224	489.057	0.077	0.174
-122.210	-107.606	-0.046	-0.010
-121.195	-44.350	-0.162	0.080
-120.180	-19.929	0.095	-0.058
-119.166	-200.000	-0.013	0.149
-118.151	-29.818	0.172	0.097
-117.137	660.365	0.151	0.384
-116.122	-200.000	-0.021	-0.170
-115.107	800.000	-0.046	0.153
-114.093	-80.671	-0.161	0.053
-113.078	-121.912	0.137	0.022
-112.064	514.116	-0.081	-0.186
-111.049	-63.006	0.248	-0.101
-110.034	-39.562	-0.094	0.048
-109.020	90.904	0.201	-0.223
-108.005	-200.000	-0.002	0.122
-106.991	-200.000	0.056	0.249
-105.976	800.000	-0.069	0.212
-104.962	-94.595	0.117	-0.031
-103.947	464.719	0.080	0.177
-102.932	324.404	0.148	0.279
-101.918	-200.000	-0.040	0.331
-100.903	-111.225	0.329	-0.066
-99.889	-123.904	-0.006	0.001
-98.874	100.439	-0.294	0.336
-97.859	538.724	0.159	0.373
-96.845	-200.000	-0.031	0.350
-95.830	68.855	0.345	0.350
-94.816	301.918	0.130	0.237
-93.801	-61.476	0.130	-0.054
-92.786	-200.000	-0.032	0.152
-91.772	-200.000	0.007	-0.156
-90.757	-200.000	-0.022	0.278
-89.743	112.013	-0.124	0.147
-88.728	301.922	0.148	0.269
-87.713	-85.597	-0.297	-0.091
-86.699	800.000	-0.116	0.420
-85.684	-86.121	0.228	-0.069
-84.670	265.950	0.060	0.104
-83.655	-55.839	-0.119	-0.052
-82.640	124.515	0.083	-0.103
-81.626	36.448	0.247	-0.215
-80.611	367.131	0.095	0.189
-79.597	-46.994	0.218	0.105
-78.582	800.000	0.091	-0.269
-77.567	-200.000	-0.018	-0.204
-76.553	126.559	-0.075	0.093
-75.538	-25.020	-0.094	-0.055
-74.524	800.000	-0.026	0.100
-73.509	-200.000	-0.010	0.134
-72.494	-160.920	0.317	-0.016
-71.480	788.630	0.037	-0.100
-70.465	-49.228	0.324	0.152
-69.451	-75.086	0.180	0.063
-68.436	377.095	-0.105	-0.212
-67.422	421.540	0.074	-0.156
-66.407	-200.000	-0.032	-0.299
-65.392	9.953	-0.156	-0.117
-64.378	-87.421	-0.335	-0.100
-63.363	-105.900	0.207	-0.046
-62.349	-15.143	0.098	0.062
-61.334	2.876	-0.973	-0.696
-60.319	65.747	0.340	0.340
-59.305	-200.000	-0.199	-1.075
-58.290	-200.000	0.274	1.204
-57.276	800.000	0.358	1.443
-56.261	-200.000	96.072	593.949
-55.246	658.592	1368.339	3465.714
-54.232	200.354	2539.628	3841.636
-53.217	119.741	2158.763	2633.604
-52.203	42.931	1705.226	1530.443
-51.188	35.336	1518.427	1311.071
-50.173	33.041	1491.757	1272.561
-49.159	52.048	1539.867	1444.049
-48.144	53.750	1557.531	1472.207
-47.130	35.499	1517.965	1311.576
-46.115	32.449	1502.985	1277.917
-45.100	32.192	1499.906	1273.503
-44.086	32.179	1498.409	1272.095
-43.071	32.107	1496.079	1269.576
-42.057	32.242	1494.143	1268.799
-41.042	32.177	1492.723	1267.104
-40.027	32.140	1491.882	1266.085
-39.013	32.043	1490.458	1264.176
-37.998	32.078	1489.389	1263.457
-36.984	32.078	1487.501	1261.803
-35.969	32.201	1485.907	1261.225
-34.954	32.223	1484.335	1259.990
-33.940	32.126	1483.544	1258.619
-32.925	32.228	1481.811	1257.784
-31.911	32.204	1480.831	1256.740
-30.896	32.283	1479.329	1255.941
-29.881	32.145	1478.455	1254.231
-28.867	32.226	1476.430	1253.004
-27.852	32.243	1475.092	1251.933
-26.838	32.173	1473.817	1250.334
-25.823	32.163	1472.711	1249.280
-24.809	32.211	1470.509	1247.678
-23.794	32.051	1469.591	1245.791
-22.779	32.119	1467.913	1244.765
-21.765	32.186	1466.646	1244.086
-20.750	32.154	1465.760	1243.074
-19.736	32.108	1464.904	1241.994
-18.721	32.120	1463.822	1241.109
-17.706	32.085	1462.038	1239.317
-16.692	32.024	1461.738	1238.609
-15.677	32.094	1460.330	1237.830
-14.663	32.102	1459.517	1237.145
-13.648	32.157	1458.392	1236.501
-12.633	32.070	1457.598	1235.209
-11.619	32.074	1456.586	1234.325
-10.604	32.108	1455.944	1233.959
-9.590	32.052	1455.256	1232.960
-8.575	32.161	1453.783	1232.376
-7.560	32.082	1453.682	1231.724
-6.546	32.084	1452.287	1230.504
-5.531	32.033	1451.801	1229.713
-4.517	32.072	1450.455	1228.775
-3.502	32.024	1449.226	1227.370
-2.487	32.132	1447.974	1226.966
-1.473	32.101	1446.965	1225.865
-0.458	32.145	1445.765	1225.084
0.556	30.894	1436.625	1213.995
1.571	28.021	1410.962	1173.789
2.586	24.599	1351.727	1103.319
3.600	22.954	1269.891	1026.880
4.615	21.544	1224.333	982.047
5.629	18.553	1168.026	920.763
6.644	11.161	1084.853	818.124
7.659	5.425	1045.313	760.411
8.673	4.622	1040.382	752.874
9.688	4.625	1037.156	750.485
10.702	4.534	1035.861	749.044
11.717	4.508	1033.691	747.285
12.731	6.517	1035.417	758.136
13.746	13.404	1044.799	798.261
14.761	18.502	1051.193	827.755
15.775	18.534	1049.793	826.733
16.790	17.463	1047.721	819.875
17.804	16.325	1045.790	812.817
18.819	15.431	1044.233	807.237
19.834	15.016	1042.344	803.712
20.848	14.788	1041.244	801.696
21.863	14.498	1041.068	800.101
22.877	14.446	1039.734	798.756
23.892	14.178	1039.129	796.936
24.907	14.119	1038.413	796.035
25.921	14.176	1037.450	795.497
26.936	14.128	1036.833	794.724
27.950	14.136	1035.888	793.970
28.965	14.254	1034.945	793.737
29.980	14.170	1034.062	792.591
30.994	14.313	1032.671	792.134
32.009	14.534	1031.346	792.100
33.023	14.402	1031.188	791.279
34.038	14.388	1030.215	790.399
35.053	14.343	1029.524	789.584
36.067	14.304	1027.891	788.076
37.082	14.228	1027.583	787.410
38.096	14.328	1026.562	787.030
39.111	14.383	1025.967	786.768
40.126	14.262	1024.873	785.288
41.140	14.334	1023.687	784.650
42.155	14.223	1022.637	783.251
43.169	14.095	1021.844	781.970
44.184	14.084	1020.708	780.983
45.199	14.095	1019.633	780.141
46.213	14.094	1018.356	779.092
47.228	14.164	1017.570	778.748
48.242	14.201	1016.323	777.900
49.257	14.173	1015.885	777.363
50.271	14.203	1014.889	776.671
51.286	14.154	1014.398	775.999
52.301	14.260	1013.135	775.457
53.315	14.232	1012.706	774.932
54.330	14.212	1011.839	774.105
55.344	14.241	1010.508	773.153
56.359	14.075	1010.238	772.109
57.374	14.124	1009.065	771.370
58.388	14.227	1008.109	771.050
59.403	14.011	1007.499	769.513
60.417	14.063	1006.611	769.009
61.432	14.028	1005.868	768.213
62.447	13.961	1005.419	767.493
63.461	13.873	1004.781	766.530
64.476	13.918	1003.789	765.913
65.490	13.942	1002.969	765.331
66.505	14.020	1001.739	764.681
67.520	14.032	1000.926	764.050
68.534	13.970	1000.502	763.375
69.549	13.919	1000.078	762.748
70.563	13.950	998.930	761.947
71.578	13.967	998.536	761.657
72.593	13.974	997.425	760.774
73.607	13.801	996.265	759.032
74.622	13.842	995.432	758.518
75.636	13.901	994.645	758.120
76.651	13.892	993.711	757.299
77.666	13.917	992.947	756.761
78.680	13.849	992.490	756.040
79.695	13.878	991.890	755.646
80.709	13.875	991.481	755.257
81.724	13.905	990.682	754.716
82.739	13.975	990.017	754.460
83.753	14.080	989.428	754.422
84.768	14.218	988.546	754.309
85.782	14.309	987.763	754.057
86.797	14.383	987.271	753.949
87.812	14.356	986.184	752.930
88.826	14.156	985.697	751.587
89.841	14.261	984.551	751.122
90.855	14.365	983.711	750.882
91.870	14.384	983.314	750.599
92.884	14.405	982.564	750.054
93.899	14.318	982.133	749.266
94.914	14.393	980.798	748.520
95.928	14.366	980.493	748.099
96.943	14.438	979.890	747.894
97.957	14.460	978.397	746.787
98.972	14.237	978.305	745.651
99.987	14.386	977.159	745.380
101.001	14.444	976.411	745.002
102.016	14.310	975.226	743.435
103.030	14.303	974.744	742.969
104.045	14.451	973.699	742.768
105.060	14.406	972.625	741.680
106.074	14.387	971.925	740.999
107.089	14.259	970.670	739.407
108.103	14.007	970.396	738.015
109.118	13.939	969.278	736.796
110.133	13.961	968.519	736.252
111.147	13.992	967.260	735.369
112.162	13.887	966.654	734.377
113.176	13.978	965.452	733.799
114.191	14.128	965.000	734.056
115.206	14.171	964.259	733.617
116.220	14.084	963.637	732.693
117.235	14.140	962.494	732.007
118.249	14.130	961.566	731.191
119.264	14.062	960.866	730.296
120.279	14.098	959.670	729.483
121.293	14.024	959.161	728.705
122.308	13.984	958.055	727.627
123.322	13.968	957.598	727.144
124.337	13.929	956.243	725.882
125.352	13.978	955.099	725.162
126.366	13.915	954.395	724.287
127.381	13.987	952.879	723.385
128.395	13.991	952.040	722.703
129.410	13.927	951.314	721.811
130.424	13.878	950.690	721.062
131.439	14.033	949.569	720.817
132.454	14.147	948.695	720.585
133.468	14.210	948.020	720.281
134.483	14.152	947.769	719.775
135.497	14.111	947.354	719.218
136.512	14.152	946.431	718.632
137.527	14.225	945.467	718.153
138.541	14.353	944.221	717.694
139.556	14.104	944.353	716.656
140.570	14.068	943.362	715.685
141.585	14.149	942.797	715.543
142.600	14.297	942.279	715.723
143.614	14.328	941.275	715.032
144.629	14.285	940.666	714.321
145.643	14.450	940.006	714.463
146.658	14.631	938.534	714.056
147.673	14.322	937.719	712.050
148.687	14.243	936.768	710.930
149.702	14.299	935.353	710.032
150.716	14.185	935.283	709.429
151.731	14.103	934.138	708.148
152.746	14.151	933.652	707.920
153.760	14.267	932.662	707.602
154.775	14.139	932.238	706.674
155.789	14.290	931.207	706.470
156.804	14.451	930.724	706.723
157.819	14.328	929.902	705.516
158.833	14.409	929.507	705.497
159.848	14.403	928.796	704.870
160.862	14.457	928.184	704.570
161.877	14.526	926.997	703.899
162.892	14.350	926.336	702.590
163.906	14.228	925.312	701.239
164.921	14.208	925.200	701.009
165.935	14.234	923.818	700.007
166.950	14.239	922.723	699.139
167.964	14.357	921.710	698.803
168.979	14.432	920.845	698.402
169.994	14.229	920.130	696.945
171.008	14.321	919.379	696.701
172.023	14.406	918.247	696.136
173.037	14.433	918.067	696.053
174.052	14.609	917.107	695.994
175.067	14.637	916.340	695.468
176.081	14.505	915.810	694.454
177.096	14.278	914.828	692.705
178.110	14.393	913.958	692.461
179.125	14.351	913.244	691.687
180.140	14.471	912.324	691.423
181.154	14.502	911.869	691.148
182.169	14.397	911.505	690.376
183.183	14.541	910.737	690.328
184.198	14.711	910.168	690.538
185.213	14.742	909.308	689.955
186.227	14.687	909.013	689.443
187.242	14.707	908.460	689.044
188.256	14.753	907.527	688.463
189.271	14.726	906.893	687.811
190.286	14.813	906.272	687.638
191.300	14.717	905.286	686.433
192.315	14.503	904.192	684.668
193.329	14.370	903.782	683.748
194.344	14.393	903.341	683.451
195.359	14.472	902.678	683.212
196.373	14.534	902.097	682.965
197.388	14.784	901.278	683.305
198.402	14.678	901.231	682.776
199.417	14.782	901.286	683.183
200.432	14.871	900.306	682.745
201.446	14.988	899.533	682.574
202.461	15.056	899.006	682.390
203.475	14.885	899.573	682.063
204.490	14.939	898.687	681.554
205.504	14.905	897.526	680.474
206.519	14.954	896.310	679.688
207.534	14.856	895.688	678.761
208.548	14.721	895.298	677.857
209.563	14.955	894.320	678.007
210.577	14.837	893.746	677.032
211.592	14.862	893.057	676.551
212.607	14.948	893.027	676.817
213.621	15.195	892.289	677.195
214.636	15.028	891.564	675.910
215.650	14.938	891.357	675.329
216.665	15.024	890.716	675.132
217.680	15.175	889.653	674.874
218.694	15.055	889.630	674.314
219.709	15.096	888.942	673.900
220.723	15.199	887.989	673.532
221.738	15.177	887.600	673.089
222.753	15.024	887.202	672.111
223.767	15.075	886.366	671.625
224.782	15.195	885.108	671.091
225.796	15.351	884.203	670.970
226.811	15.145	884.172	670.063
227.826	15.225	883.589	669.881
228.840	15.243	882.280	668.904
229.855	15.091	881.983	668.014
230.869	15.169	881.346	667.781
231.884	15.081	880.747	666.916
232.899	15.144	880.158	666.662
233.913	15.155	879.142	665.878
234.928	15.170	878.651	665.507
235.942	15.147	877.563	664.533
236.957	15.170	877.165	664.263
237.972	15.114	876.173	663.233
238.986	15.020	875.868	662.570
240.001	15.158	875.026	662.422
241.015	15.052	874.610	661.628
242.030	15.154	874.032	661.534
243.045	15.160	873.513	661.109
244.059	15.312	872.471	660.861
245.074	15.360	871.786	660.472
246.088	15.308	871.617	660.082
247.103	15.371	870.901	659.729
248.117	15.376	870.227	659.177
249.132	15.460	869.790	659.118
250.147	15.546	869.568	659.229
251.161	15.761	868.883	659.493
252.176	15.774	868.178	658.951
253.190	15.890	867.233	658.629
254.205	15.781	866.860	657.865
255.220	15.797	866.619	657.684
256.234	15.635	866.029	656.546
257.249	15.701	865.683	656.483
258.263	15.826	864.779	656.226
259.278	15.754	864.214	655.459
260.293	15.780	863.531	654.984
261.307	15.857	863.050	654.863
262.322	15.911	862.411	654.530
263.336	16.012	861.815	654.409
264.351	16.015	861.124	653.838
265.366	16.082	860.358	653.460
266.380	16.120	859.934	653.228
267.395	15.956	859.281	652.038
268.409	15.853	858.897	651.290
269.424	15.971	857.963	650.982
270.439	15.894	857.403	650.201
271.453	15.917	856.691	649.692
272.468	15.890	855.458	648.595
273.482	15.927	854.822	648.199
274.497	15.918	854.742	648.047
275.512	15.800	854.005	646.975
276.526	15.880	853.020	646.481
277.541	15.890	852.696	646.218
278.555	16.044	851.792	646.066
279.570	15.940	851.671	645.518
280.585	16.070	851.145	645.558
281.599	16.237	850.317	645.513
282.614	16.093	849.851	644.550
283.628	16.103	848.617	643.598
284.643	16.098	848.328	643.303
285.657	16.189	848.098	643.416
286.672	16.147	847.297	642.591
287.687	16.050	847.293	642.161
288.701	16.041	846.572	641.524
289.716	16.020	846.144	641.065
290.730	16.219	845.142	641.005
291.745	16.089	844.997	640.342
292.760	16.114	844.538	640.032
293.774	16.133	843.693	639.410
294.789	16.214	843.271	639.339
295.803	16.429	842.269	639.337
296.818	16.427	841.412	638.622
297.833	16.172	841.077	637.349
298.847	16.298	840.229	637.126
299.862	16.306	839.650	636.660
300.876	16.196	839.424	636.016
301.891	16.355	838.267	635.681
302.906	16.408	837.907	635.553
303.920	16.357	837.475	634.977
304.935	16.577	836.535	635.035
305.949	16.714	835.994	635.079
306.964	16.499	835.648	633.956
307.979	16.611	834.533	633.472
308.993	16.369	834.659	632.608
310.008	16.642	833.434	632.642
311.022	16.550	833.499	632.294
312.037	16.533	833.238	631.975
313.052	16.582	832.586	631.607
314.066	16.457	831.879	630.550
315.081	16.480	830.972	629.893
316.095	16.328	830.517	628.926
317.110	16.402	830.204	628.907
318.125	16.479	829.004	628.230
319.139	16.454	828.628	627.797
320.154	16.478	828.318	627.595
321.168	16.405	828.034	627.052
322.183	16.441	827.452	626.691
323.197	16.613	826.972	626.910
324.212	16.567	826.410	626.257
325.227	16.656	825.824	626.085
326.241	16.538	825.416	625.287
327.256	16.515	824.993	624.824
328.270	16.509	824.585	624.440
329.285	16.537	823.781	623.878
330.300	16.581	823.050	623.430
331.314	16.507	822.288	622.526
332.329	16.793	821.454	622.890
333.343	16.544	821.472	621.933
334.358	16.800	820.913	622.397
335.373	16.826	820.280	621.957
336.387	16.777	819.426	621.075
337.402	16.767	819.515	621.050
338.416	16.840	818.850	620.758
339.431	16.961	818.224	620.672
340.446	16.923	817.597	620.002
341.460	17.009	817.038	619.837
342.475	17.052	816.709	619.692
343.489	17.042	816.229	619.234
344.504	17.091	815.552	618.845
345.519	17.219	814.599	618.534
346.533	17.092	814.403	617.867
347.548	17.072	813.982	617.420
348.562	17.132	813.470	617.197
349.577	16.952	812.931	616.078
350.592	16.997	812.546	615.897
351.606	17.096	811.818	615.647
352.621	16.886	811.473	614.570
353.635	16.938	811.056	614.391
354.650	17.021	810.668	614.342
355.665	16.985	810.028	613.672
356.679	16.973	809.732	613.349
357.694	17.178	808.990	613.475
358.708	17.144	808.652	613.041
359.723	17.114	808.179	612.521
360.738	17.270	807.623	612.607
361.752	17.249	806.745	611.811
362.767	17.033	807.060	611.217
363.781	17.360	806.243	611.720
364.796	17.284	806.104	611.290
365.810	17.323	805.572	610.970
366.825	17.539	805.324	611.503
367.840	17.448	804.899	610.801
368.854	17.548	804.369	610.704
369.869	17.406	803.844	609.743
370.883	17.425	803.155	609.235
371.898	17.429	802.692	608.841
372.913	17.431	801.778	608.102
373.927	17.560	801.721	608.467
374.942	17.398	801.027	607.307
375.956	17.576	800.062	607.157
376.971	17.516	799.760	606.659
377.986	17.561	799.449	606.530
379.000	17.722	799.209	606.869
380.015	17.651	798.572	606.080
381.029	17.600	797.976	605.393
382.044	17.690	797.291	605.136
383.059	17.723	796.546	604.635
384.073	17.733	796.233	604.380
385.088	17.656	795.951	603.840
386.102	17.634	795.026	603.007
387.117	17.604	794.471	602.427
388.132	17.662	794.100	602.298
389.146	17.374	794.077	601.208
390.161	17.702	793.270	601.702
391.175	17.676	793.147	601.464
392.190	17.730	792.779	601.321
393.205	17.664	792.281	600.656
394.219	17.734	791.772	600.464
395.234	17.652	791.115	599.624
396.248	17.683	790.717	599.379
397.263	17.593	790.106	598.549
398.278	17.645	789.863	598.492
399.292	17.437	789.352	597.323
400.307	17.487	789.243	597.363
401.321	17.597	788.403	597.061
402.336	17.549	788.124	596.627
403.350	17.635	787.735	596.580
404.365	17.799	787.438	596.876
405.380	17.802	787.058	596.546
406.394	17.854	786.593	596.323
407.409	18.016	785.746	596.192
408.423	18.071	785.543	596.180
409.438	17.803	785.515	595.171
410.453	17.983	784.789	595.195
411.467	18.039	784.182	594.875
412.482	17.950	783.869	594.276
413.496	18.084	783.576	594.468
414.511	18.129	783.092	594.205
415.526	18.153	782.656	593.904
416.540	18.105	782.491	593.561
417.555	18.100	781.833	592.993
418.569	18.249	781.292	593.046
419.584	18.130	780.948	592.319
420.599	18.070	780.880	592.006
421.613	155.926	1369.140	1794.347
422.628	134.574	1454.850	1794.469
