DTS Sentinel unit serial number:	SN413079Multiplexer serial number:	ORYXHardware model number:	OX4-SRSoftware version number:	ORYX F/W v4.00 Oryx Data Collector v3.7.2.0data status	okinstallation	princeton_trtdifferential loss correction	single-endedforward channel	channel 3reverse channel	N/Adate	2019/09/12time	10:26:10forward acquisition time	60.00reverse acquisition time	0.00gamma	496.2192k internal	0.2298k external	0.2298temperature offset calibration	1.0027default loss term (dB/km)	0.3790temperature slope calibration	1.0000multiplexer offset coefficient	1.0000multiplexer slope coefficient	1.0000fibre end	0.00T internal ref (°C)	36.94T ext. ref 1 (°C)	1.87T ext. ref 2 (°C)	34.63length (m)	temperature (°C)	Stokes	anti-Stokes-747.200	-30.719	0.081	0.047
-746.185	56.136	0.159	0.157
-745.171	-106.864	-0.217	0.049
-744.156	150.475	-0.280	0.388
-743.142	207.252	0.079	0.126
-742.127	800.000	0.055	0.194
-741.112	138.571	0.032	-0.043
-740.098	-200.000	-0.004	-0.189
-739.083	-200.000	-0.050	0.435
-738.069	283.157	-0.238	0.435
-737.054	-200.000	0.025	0.385
-736.039	-140.784	0.276	0.029
-735.025	143.780	0.137	0.186
-734.010	-35.079	-0.137	-0.076
-732.996	-8.701	-0.306	-0.209
-731.981	88.313	0.044	0.050
-730.966	255.176	-0.061	-0.107
-729.952	800.000	-0.078	-0.338
-728.937	563.889	-0.264	-0.651
-727.923	18.275	0.187	-0.152
-726.908	7.505	-0.071	0.054
-725.894	330.357	0.111	0.219
-724.879	311.285	-0.119	-0.227
-723.864	389.669	-0.091	-0.193
-722.850	218.792	0.142	-0.231
-721.835	800.000	-0.129	-0.427
-720.821	630.343	-0.072	0.187
-719.806	183.436	0.172	0.259
-718.791	-76.831	-0.199	0.071
-717.777	-54.249	0.059	-0.027
-716.762	-195.944	0.118	0.001
-715.748	49.326	0.229	-0.220
-714.733	-49.829	-0.025	-0.012
-713.718	190.755	-0.168	-0.258
-712.704	800.000	-0.114	0.402
-711.689	131.730	0.162	0.213
-710.675	800.000	-0.128	0.402
-709.660	-200.000	-0.028	-0.250
-708.645	-160.378	0.189	0.010
-707.631	-51.874	0.246	0.117
-706.616	800.000	-0.125	0.480
-705.602	-44.047	0.275	0.141
-704.587	-121.644	-0.316	-0.053
-703.572	-200.000	-0.007	-0.062
-702.558	94.785	0.097	0.112
-701.543	23.847	-0.253	0.213
-700.529	25.807	0.191	0.162
-699.514	-142.580	0.190	-0.019
-698.499	96.556	0.044	-0.051
-697.485	460.911	0.093	-0.210
-696.470	112.420	0.133	-0.164
-695.456	-74.829	-0.268	-0.098
-694.441	-119.089	-0.349	-0.062
-693.426	-200.000	-0.015	0.102
-692.412	-21.838	0.134	-0.083
-691.397	159.434	-0.225	-0.319
-690.383	52.158	-0.181	-0.176
-689.368	-84.249	-0.169	-0.055
-688.354	-85.157	0.122	-0.039
-687.339	24.303	0.233	0.196
-686.324	14.180	-0.097	-0.077
-685.310	-200.000	0.007	-0.036
-684.295	-116.292	-0.278	-0.053
-683.281	-12.917	0.258	0.171
-682.266	26.043	0.080	0.068
-681.251	182.430	0.101	-0.152
-680.237	-200.000	0.035	-0.305
-679.222	-110.979	-0.328	-0.069
-678.208	269.045	-0.078	0.140
-677.193	-143.537	-0.168	-0.016
-676.178	116.989	-0.075	0.093
-675.164	240.402	0.222	0.377
-674.149	644.662	0.108	0.280
-673.135	476.355	-0.165	0.380
-672.120	327.859	-0.130	0.254
-671.105	-45.235	-0.248	-0.125
-670.091	-200.000	-0.054	0.370
-669.076	374.730	-0.046	0.096
-668.062	800.000	0.106	0.433
-667.047	444.994	0.051	0.113
-666.032	225.040	0.038	0.063
-665.018	-200.000	-0.005	0.295
-664.003	-165.154	-0.292	0.013
-662.989	-35.851	0.163	0.090
-661.974	-46.681	0.168	0.084
-660.959	211.372	-0.150	0.240
-659.945	-68.855	0.140	0.055
-658.930	-107.352	-0.173	0.039
-657.916	95.669	0.159	0.185
-656.901	-71.705	-0.341	-0.129
-655.886	454.476	0.049	0.111
-654.872	-103.610	-0.236	0.056
-653.857	184.046	-0.204	-0.307
-652.843	-85.660	-0.268	-0.085
-651.828	-200.000	-0.009	0.239
-650.814	158.731	0.133	-0.188
-649.799	-181.423	-0.072	0.001
-648.784	-148.199	-0.150	-0.013
-647.770	-200.000	0.014	-0.082
-646.755	-200.000	0.004	-0.236
-645.741	-72.958	0.189	0.071
-644.726	535.529	0.068	-0.165
-643.711	563.667	0.039	-0.097
-642.697	-33.840	-0.183	0.102
-641.682	-200.000	0.028	-0.155
-640.668	-200.000	-0.003	-0.162
-639.653	-99.318	-0.247	-0.063
-638.638	-134.110	-0.005	0.001
-637.624	-200.000	-0.012	-0.296
-636.609	-48.336	0.297	-0.146
-635.595	248.867	-0.150	-0.259
-634.580	800.000	0.086	-0.292
-633.565	-86.507	0.056	-0.018
-632.551	-73.708	0.368	0.136
-631.536	-135.403	0.165	0.020
-630.522	449.883	-0.098	0.219
-629.507	-15.493	0.061	0.040
-628.492	-155.065	0.171	-0.011
-627.478	-200.000	0.001	0.272
-626.463	-87.579	0.321	0.099
-625.449	1.086	-0.160	-0.116
-624.434	2.847	0.162	-0.120
-623.419	581.447	0.097	-0.242
-622.405	274.133	-0.141	0.253
-621.390	800.000	-0.060	0.219
-620.376	-45.695	-0.140	0.070
-619.361	596.316	0.053	-0.133
-618.346	-200.000	0.021	-0.151
-617.332	54.759	0.210	0.205
-616.317	106.922	0.162	0.195
-615.303	125.893	-0.117	0.150
-614.288	-134.596	-0.281	-0.035
-613.273	474.414	-0.095	0.217
-612.259	-80.958	-0.195	-0.066
-611.244	179.973	0.145	0.216
-610.230	-59.345	-0.227	-0.099
-609.215	-128.921	-0.317	-0.045
-608.201	424.460	0.134	-0.294
-607.186	115.932	-0.122	-0.152
-606.171	-135.302	-0.310	-0.038
-605.157	60.147	-0.075	0.075
-604.142	422.450	-0.078	0.171
-603.128	-105.903	-0.014	-0.003
-602.113	120.913	-0.104	0.131
-601.098	231.806	0.138	0.229
-600.084	-0.990	-0.198	0.142
-599.069	4.428	-0.145	-0.108
-598.055	-51.101	-0.257	-0.122
-597.040	-200.000	0.026	0.144
-596.025	-16.750	-0.212	-0.136
-595.011	-153.222	0.200	0.014
-593.996	800.000	0.008	-0.028
-592.982	86.340	-0.195	-0.218
-591.967	198.035	-0.079	-0.123
-590.952	20.835	-0.293	0.241
-589.938	222.348	-0.116	-0.189
-588.923	-200.000	0.002	0.036
-587.909	84.748	0.021	0.023
-586.894	-140.388	-0.314	-0.033
-585.879	126.476	0.176	0.226
-584.865	115.319	0.117	-0.145
-583.850	202.620	0.063	0.099
-582.836	-2.099	-0.177	-0.126
-581.821	-200.000	-0.063	0.380
-580.806	-87.378	-0.296	-0.091
-579.792	-200.000	0.001	0.116
-578.777	-136.833	-0.219	-0.026
-577.763	90.805	-0.132	-0.150
-576.748	73.041	-0.131	0.139
-575.733	-140.868	0.058	0.006
-574.719	800.000	-0.055	0.200
-573.704	-121.437	0.184	0.031
-572.690	306.905	0.103	0.195
-571.675	-112.947	0.154	0.031
-570.661	39.866	0.267	-0.243
-569.646	-92.335	0.103	-0.029
-568.631	-106.616	-0.328	0.074
-567.617	-5.271	0.194	-0.135
-566.602	-55.713	-0.091	0.041
-565.588	-200.000	0.026	-0.139
-564.573	-99.392	0.485	0.124
-563.558	81.139	-0.351	-0.384
-562.544	800.000	-0.094	-0.298
-561.529	215.279	-0.055	0.089
-560.515	3.822	-0.078	-0.058
-559.500	126.306	0.145	-0.186
-558.485	278.625	-0.062	-0.111
-557.471	-94.866	-0.133	0.037
-556.456	26.266	0.190	0.161
-555.442	26.965	0.232	-0.197
-554.427	-54.733	0.138	-0.063
-553.412	-58.394	0.030	-0.013
-552.398	130.662	0.186	0.242
-551.383	-149.219	-0.430	-0.035
-550.369	800.000	0.059	-0.221
-549.354	-200.000	0.067	-0.417
-548.339	800.000	-0.048	-0.174
-547.325	157.670	-0.090	-0.127
-546.310	-200.000	0.026	-0.231
-545.296	-143.908	0.068	-0.007
-544.281	800.000	0.080	-0.263
-543.266	-200.000	-0.019	-0.222
-542.252	626.924	0.127	-0.323
-541.237	-60.280	-0.254	0.110
-540.223	138.167	-0.331	-0.439
-539.208	11.603	0.059	-0.046
-538.193	324.647	0.072	-0.140
-537.179	-132.940	0.299	-0.039
-536.164	-200.000	0.014	-0.285
-535.150	194.686	-0.271	0.417
-534.135	749.387	0.090	-0.245
-533.121	-140.975	0.248	-0.026
-532.106	-146.270	0.201	-0.018
-531.091	-200.000	0.015	-0.187
-530.077	800.000	-0.099	0.380
-529.062	55.687	0.180	-0.177
-528.048	97.539	-0.132	-0.154
-527.033	-47.078	-0.102	-0.050
-526.018	-200.000	-0.008	-0.126
-525.004	41.811	-0.190	-0.174
-523.989	34.416	-0.213	-0.188
-522.975	-36.057	-0.062	0.034
-521.960	-52.869	0.135	-0.063
-520.945	599.271	-0.067	-0.168
-519.931	-23.688	-0.103	-0.062
-518.916	-54.603	0.164	0.075
-517.902	39.013	0.164	-0.148
-516.887	-200.000	0.036	-0.187
-515.872	-200.000	-0.016	0.127
-514.858	-127.521	-0.177	0.026
-513.843	76.023	0.198	0.212
-512.829	48.073	-0.304	-0.288
-511.814	-67.484	0.362	-0.144
-510.799	-31.372	-0.102	-0.058
-509.785	-152.173	0.053	-0.004
-508.770	524.805	-0.056	0.133
-507.756	-200.000	0.052	0.320
-506.741	800.000	-0.066	0.199
-505.726	-40.539	0.258	0.135
-504.712	18.341	0.249	-0.201
-503.697	-200.000	-0.005	-0.051
-502.683	-127.475	-0.162	0.024
-501.668	-33.446	-0.193	-0.108
-500.653	21.270	-0.306	-0.252
-499.639	647.689	0.067	-0.174
-498.624	92.388	0.131	0.149
-497.610	-200.000	-0.016	-0.089
-496.595	800.000	-0.037	-0.134
-495.581	-200.000	0.054	-0.357
-494.566	-22.806	-0.220	-0.134
-493.551	-200.000	0.010	0.509
-492.537	196.438	-0.166	0.256
-491.522	800.000	-0.071	0.286
-490.508	-200.000	0.042	0.258
-489.493	-123.269	0.324	0.052
-488.478	11.290	-0.270	0.209
-487.464	-140.179	0.138	0.015
-486.449	103.066	-0.083	-0.099
-485.435	242.148	-0.081	-0.136
-484.420	178.323	0.034	-0.050
-483.405	-59.675	-0.189	0.082
-482.391	-98.555	0.144	0.037
-481.376	-85.570	-0.301	0.095
-480.362	-69.452	-0.287	0.111
-479.347	65.236	0.302	0.309
-478.332	13.425	-0.164	0.129
-477.318	-64.643	-0.133	-0.055
-476.303	60.614	0.116	-0.116
-475.289	706.791	0.141	-0.377
-474.274	-88.635	-0.333	-0.100
-473.259	-157.495	-0.286	0.017
-472.245	-85.428	0.150	0.047
-471.230	-200.000	-0.040	-0.229
-470.216	124.336	-0.119	-0.151
-469.201	-151.815	0.284	0.021
-468.186	-200.000	0.014	0.179
-467.172	-200.000	0.001	0.197
-466.157	-119.505	-0.099	-0.017
-465.143	-107.758	0.086	0.019
-464.128	-59.222	0.321	0.140
-463.113	-200.000	0.012	0.232
-462.099	640.674	0.171	0.440
-461.084	-193.074	0.251	-0.002
-460.070	609.140	-0.154	-0.389
-459.055	-200.000	-0.045	0.247
-458.040	-128.805	0.286	0.041
-457.026	180.296	0.030	-0.044
-456.011	119.035	0.060	0.074
-454.997	141.457	0.047	0.063
-453.982	625.609	0.076	-0.192
-452.968	-200.000	0.037	-0.426
-451.953	310.501	0.072	0.137
-450.938	-149.992	0.198	-0.016
-449.924	43.839	-0.255	0.236
-448.909	286.431	0.056	0.102
-447.895	-129.500	0.293	-0.041
-446.880	614.656	0.186	0.469
-445.865	241.765	0.082	-0.139
-444.851	-18.873	-0.265	0.166
-443.836	-162.134	-0.161	-0.008
-442.822	93.960	-0.214	-0.244
-441.807	-95.506	0.330	0.089
-440.792	-200.000	0.003	-0.135
-439.778	77.629	-0.221	0.238
-438.763	124.265	0.123	0.156
-437.749	71.100	-0.392	0.410
-436.734	-200.000	0.049	0.247
-435.719	-200.000	-0.062	-0.301
-434.705	-200.000	-0.048	-0.252
-433.690	61.724	0.170	-0.170
-432.676	800.000	-0.037	-0.152
-431.661	-79.460	-0.153	0.052
-430.646	-37.659	-0.267	-0.143
-429.632	-125.392	-0.132	-0.020
-428.617	-23.165	-0.194	0.118
-427.603	-200.000	0.013	0.089
-426.588	-55.753	-0.280	-0.126
-425.573	193.487	-0.216	0.330
-424.559	-45.027	-0.115	0.058
-423.544	800.000	-0.081	0.313
-422.530	360.329	-0.066	0.134
-421.515	-146.543	-0.514	-0.045
-420.500	800.000	0.036	-0.158
-419.486	-47.839	0.166	0.081
-418.471	399.253	0.118	0.249
-417.457	751.026	-0.037	-0.100
-416.442	-200.000	-0.026	0.153
-415.428	-50.516	0.053	0.025
-414.413	-130.536	0.220	-0.030
-413.398	-85.228	0.229	0.072
-412.384	444.617	-0.032	0.070
-411.369	27.727	0.184	0.156
-410.355	204.630	-0.084	0.131
-409.340	-100.795	-0.327	-0.081
-408.325	-155.429	-0.114	-0.007
-407.311	800.000	-0.077	0.292
-406.296	-200.000	-0.009	-0.091
-405.282	137.503	0.032	-0.042
-404.267	-161.748	-0.226	-0.012
-403.252	32.258	0.060	0.052
-402.238	-50.458	0.056	0.027
-401.223	-74.572	0.264	-0.096
-400.209	122.270	-0.049	-0.062
-399.194	193.074	0.076	-0.116
-398.179	800.000	-0.076	0.266
-397.165	-34.882	-0.365	0.201
-396.150	800.000	0.083	0.279
-395.136	-116.072	-0.123	-0.023
-394.121	260.843	0.082	-0.143
-393.106	-200.000	0.053	-0.383
-392.092	-136.099	-0.478	0.056
-391.077	-200.000	-0.004	-0.079
-390.063	-200.000	0.007	0.094
-389.048	288.769	0.140	0.255
-388.033	-161.138	0.561	0.029
-387.019	800.000	0.089	0.275
-386.004	-82.844	0.180	0.059
-384.990	-172.680	0.136	-0.004
-383.975	-91.404	0.163	0.047
-382.960	137.414	0.104	-0.137
-381.946	-154.398	0.089	0.006
-380.931	-51.114	0.402	0.190
-379.917	507.006	0.112	-0.262
-378.902	800.000	0.079	-0.259
-377.888	-18.646	-0.196	-0.123
-376.873	-86.503	0.098	0.030
-375.858	-200.000	0.020	0.124
-374.844	-4.802	0.298	-0.207
-373.829	-52.533	-0.130	-0.060
-372.815	42.475	0.167	0.153
-371.800	-120.732	-0.095	0.016
-370.785	199.026	-0.062	-0.096
-369.771	-161.261	-0.083	-0.004
-368.756	-200.000	0.009	0.115
-367.742	-97.467	0.286	0.075
-366.727	224.661	0.100	0.163
-365.712	-200.000	0.087	0.384
-364.698	29.714	0.286	-0.245
-363.683	-200.000	0.005	-0.156
-362.669	415.447	0.165	-0.353
-361.654	157.868	0.012	-0.016
-360.639	-167.559	-0.218	-0.009
-359.625	-154.111	-0.216	-0.015
-358.610	-51.849	-0.207	0.097
-357.596	45.701	-0.174	0.162
-356.581	307.245	-0.109	-0.204
-355.566	167.781	0.085	0.122
-354.552	-200.000	-0.057	0.273
-353.537	-165.111	0.511	0.023
-352.523	-140.508	-0.145	0.015
-351.508	81.814	0.206	0.224
-350.493	137.575	0.109	-0.143
-349.479	-200.000	0.002	0.044
-348.464	-60.876	0.061	0.026
-347.450	153.005	-0.143	0.196
-346.435	-78.318	-0.212	-0.073
-345.420	-68.248	-0.161	-0.063
-344.406	-200.000	0.062	-0.381
-343.391	154.604	-0.163	-0.225
-342.377	800.000	-0.036	-0.146
-341.362	69.929	0.143	-0.148
-340.348	-186.852	0.095	0.001
-339.333	800.000	-0.060	-0.237
-338.318	-72.902	0.201	-0.074
-337.304	-102.251	0.065	-0.016
-336.289	-200.000	-0.030	-0.177
-335.275	272.529	0.083	-0.147
-334.260	-200.000	-0.005	-0.159
-333.245	502.085	-0.073	0.169
-332.231	-108.260	0.397	0.086
-331.216	252.319	0.236	0.404
-330.202	176.213	-0.096	0.140
-329.187	-158.268	-0.174	0.010
-328.172	23.998	0.213	0.176
-327.158	-2.252	-0.143	-0.101
-326.143	-195.155	0.333	-0.003
-325.129	101.275	-0.124	0.144
-324.114	-71.355	0.237	-0.089
-323.099	516.850	-0.041	-0.096
-322.085	-178.435	0.515	-0.012
-321.070	233.051	0.047	0.078
-320.056	37.249	0.101	-0.090
-319.041	800.000	0.077	-0.301
-318.026	66.723	0.307	0.314
-317.012	620.308	-0.056	0.141
-315.997	282.721	-0.136	0.245
-314.983	-200.000	0.015	0.289
-313.968	150.695	0.120	-0.164
-312.953	25.059	-0.193	0.160
-311.939	-115.573	0.322	0.061
-310.924	800.000	-0.125	0.397
-309.910	719.440	0.015	0.041
-308.895	376.577	0.129	0.265
-307.880	-83.744	0.137	0.044
-306.866	-200.000	-0.018	0.088
-305.851	60.057	-0.168	-0.167
-304.837	291.941	0.135	0.247
-303.822	-89.623	0.016	-0.005
-302.807	31.601	0.111	0.095
-301.793	-84.376	0.260	0.083
-300.778	15.916	-0.112	0.089
-299.764	16.250	0.211	0.167
-298.749	-36.105	0.267	-0.144
-297.735	-21.534	0.101	0.062
-296.720	-127.812	-0.072	-0.010
-295.705	-200.000	-0.039	-0.233
-294.691	79.832	0.156	0.168
-293.676	-87.602	-0.147	-0.045
-292.662	-8.864	0.054	0.036
-291.647	125.519	0.163	0.206
-290.632	215.270	0.296	-0.470
-289.618	-95.265	-0.310	0.084
-288.603	438.036	-0.087	0.189
-287.589	729.467	-0.115	-0.307
-286.574	-199.625	-0.079	0.000
-285.559	230.908	-0.130	-0.214
-284.545	-200.000	0.002	0.089
-283.530	-77.448	0.255	0.089
-282.516	30.051	-0.155	0.132
-281.501	-200.000	0.057	0.570
-280.486	-200.000	-0.031	0.167
-279.472	-74.653	0.255	-0.092
-278.457	-200.000	0.025	0.113
-277.443	-127.517	-0.143	-0.021
-276.428	23.768	-0.083	-0.069
-275.413	-200.000	-0.079	-0.354
-274.399	-200.000	-0.001	-0.136
-273.384	800.000	0.040	0.136
-272.370	-77.192	-0.136	-0.047
-271.355	92.873	-0.065	-0.073
-270.340	28.411	0.101	0.086
-269.326	513.525	0.064	-0.148
-268.311	47.998	0.234	0.219
-267.297	601.900	0.120	0.298
-266.282	49.471	-0.209	-0.197
-265.267	9.912	0.080	0.060
-264.253	-122.762	-0.091	0.015
-263.238	78.392	0.080	-0.085
-262.224	-200.000	0.006	0.134
-261.209	79.135	-0.249	0.267
-260.195	149.914	0.154	-0.209
-259.180	14.370	0.067	-0.053
-258.165	-29.086	-0.142	0.082
-257.151	-164.869	0.182	-0.008
-256.136	-101.021	0.424	-0.104
-255.122	-68.417	-0.069	0.027
-254.107	331.002	-0.052	-0.100
-253.092	18.697	0.077	-0.062
-252.078	-200.000	0.009	-0.117
-251.063	270.758	0.131	0.230
-250.049	92.629	-0.187	0.212
-249.034	800.000	-0.073	0.209
-248.019	800.000	0.044	0.161
-247.005	42.199	-0.130	0.118
-245.990	-4.352	-0.071	-0.049
-244.976	800.000	0.030	-0.123
-243.961	-77.427	-0.275	-0.096
-242.946	384.410	0.034	-0.070
-241.932	-200.000	-0.008	0.157
-240.917	45.281	0.049	0.045
-239.903	-30.194	0.241	-0.137
-238.888	-200.000	-0.000	0.100
-237.873	-133.523	-0.084	0.010
-236.859	102.132	-0.094	-0.109
-235.844	-114.333	0.128	0.025
-234.830	800.000	-0.049	0.141
-233.815	-200.000	0.045	-0.353
-232.800	33.492	0.019	-0.016
-231.786	221.590	-0.080	-0.129
-230.771	-169.109	-0.048	0.002
-229.757	-200.000	0.026	-0.150
-228.742	-200.000	-0.003	-0.052
-227.727	-200.000	0.011	-0.204
-226.713	-200.000	0.058	-0.295
-225.698	148.815	-0.116	-0.157
-224.684	245.667	0.199	-0.335
-223.669	-34.926	0.172	-0.094
-222.655	-97.453	-0.175	-0.046
-221.640	-200.000	0.022	0.327
-220.625	-200.000	0.012	-0.107
-219.611	-119.365	0.196	0.034
-218.596	-200.000	0.001	0.024
-217.582	-85.189	0.138	0.043
-216.567	-65.232	0.126	0.051
-215.552	-121.524	0.355	0.059
-214.538	207.352	-0.154	0.241
-213.523	245.543	-0.154	-0.259
-212.509	386.125	0.098	0.202
-211.494	346.252	-0.067	-0.133
-210.479	132.573	-0.094	-0.121
-209.465	113.627	0.079	0.096
-208.450	-32.570	0.140	0.078
-207.436	-0.007	0.270	-0.192
-206.421	-141.162	-0.368	-0.038
-205.406	-200.000	0.002	-0.158
-204.392	-91.572	0.292	-0.083
-203.377	-200.000	-0.005	0.263
-202.363	69.317	-0.239	0.246
-201.348	230.919	0.049	0.080
-200.333	-120.529	-0.311	0.053
-199.319	478.983	-0.042	-0.095
-198.304	800.000	0.043	0.185
-197.290	800.000	-0.045	-0.152
-196.275	582.094	-0.027	0.065
-195.260	307.512	-0.047	0.088
-194.246	61.247	-0.131	0.130
-193.231	800.000	-0.117	-0.443
-192.217	-107.279	-0.312	-0.069
-191.202	-200.000	-0.056	0.315
-190.187	250.871	0.042	0.072
-189.173	2.543	0.089	0.064
-188.158	335.258	0.148	0.287
-187.144	800.000	-0.110	0.313
-186.129	-22.942	-0.042	0.026
-185.114	800.000	0.074	-0.307
-184.100	-45.484	0.020	-0.010
-183.085	5.438	-0.212	-0.156
-182.071	281.101	-0.155	0.278
-181.056	30.477	-0.304	0.259
-180.042	-36.842	0.196	0.105
-179.027	-8.680	0.184	-0.123
-178.012	12.853	-0.259	-0.200
-176.998	-88.660	-0.121	0.036
-175.983	530.307	0.056	-0.133
-174.969	800.000	0.066	0.185
-173.954	800.000	0.089	0.348
-172.939	-143.858	-0.096	0.009
-171.925	506.733	0.019	-0.044
-170.910	-130.046	-0.129	-0.018
-169.896	318.271	0.090	0.170
-168.881	-200.000	-0.037	-0.315
-167.866	-200.000	-0.011	-0.387
-166.852	800.000	0.024	-0.094
-165.837	97.091	-0.097	-0.111
-164.823	-91.327	0.140	0.040
-163.808	-100.428	-0.319	-0.079
-162.793	-16.028	-0.226	0.144
-161.779	-84.176	-0.369	-0.117
-160.764	254.709	0.223	-0.380
-159.750	-200.000	0.019	-0.195
-158.735	800.000	-0.102	-0.305
-157.720	-89.991	0.166	0.048
-156.706	-120.379	0.137	0.023
-155.691	263.411	-0.132	0.229
-154.677	750.358	-0.052	-0.139
-153.662	-200.000	0.013	0.148
-152.647	23.955	-0.439	0.361
-151.633	-51.657	0.035	-0.016
-150.618	21.806	0.211	0.172
-149.604	800.000	-0.007	0.020
-148.589	800.000	-0.048	-0.168
-147.574	800.000	0.041	-0.131
-146.560	519.190	0.241	0.562
-145.545	-89.289	0.135	-0.040
-144.531	375.532	-0.058	0.119
-143.516	125.526	-0.212	-0.266
-142.502	800.000	0.026	0.105
-141.487	-200.000	0.020	0.126
-140.472	22.703	-0.151	0.123
-139.458	13.112	-0.139	-0.108
-138.443	-36.002	-0.140	0.076
-137.429	-13.822	0.098	0.063
-136.414	-200.000	-0.009	0.217
-135.399	277.348	0.056	0.098
-134.385	-146.148	0.220	-0.019
-133.370	-200.000	-0.025	0.160
-132.356	-200.000	0.004	-0.244
-131.341	162.331	-0.053	0.074
-130.326	31.714	0.209	0.179
-129.312	800.000	-0.056	0.203
-128.297	-166.189	0.277	0.012
-127.283	108.313	-0.093	-0.111
-126.268	-90.686	0.116	0.033
-125.253	-3.760	0.139	0.096
-124.239	800.000	0.106	0.359
-123.224	156.902	-0.149	0.204
-122.210	-200.000	0.069	-0.326
-121.195	20.976	-0.256	0.207
-120.180	-173.878	0.361	0.011
-119.166	-200.000	-0.022	0.109
-118.151	5.957	0.326	0.240
-117.137	-141.927	0.218	-0.022
-116.122	128.178	-0.095	0.121
-115.107	-200.000	0.004	0.194
-114.093	-200.000	-0.020	-0.230
-113.078	-160.852	0.172	0.009
-112.064	37.072	-0.387	0.341
-111.049	800.000	-0.032	-0.100
-110.034	-170.363	-0.054	0.002
-109.020	-200.000	-0.000	-0.189
-108.005	800.000	-0.089	-0.270
-106.991	-92.284	0.305	-0.086
-105.976	-24.142	-0.229	-0.136
-104.962	800.000	-0.074	-0.283
-103.947	-52.111	0.212	0.098
-102.932	307.665	-0.143	-0.266
-101.918	-104.673	-0.179	-0.041
-100.903	-176.330	0.171	0.004
-99.889	-200.000	-0.001	0.355
-98.874	-25.798	0.198	0.116
-97.859	-115.473	-0.198	0.037
-96.845	312.947	0.119	-0.222
-95.830	-56.453	-0.129	-0.057
-94.816	-131.609	0.242	0.032
-93.801	-200.000	-0.072	0.434
-92.786	-50.511	-0.108	0.051
-91.772	691.750	-0.026	-0.067
-90.757	-61.140	0.231	0.097
-89.743	11.468	0.105	-0.080
-88.728	-108.490	-0.117	-0.025
-87.713	800.000	-0.058	-0.228
-86.699	296.274	-0.037	-0.067
-85.684	-51.396	-0.196	-0.091
-84.670	-142.311	-0.328	-0.032
-83.655	-21.505	-0.107	0.065
-82.640	47.451	0.139	0.129
-81.626	56.760	0.084	-0.081
-80.611	254.548	-0.184	-0.313
-79.597	-18.061	-0.128	0.080
-78.582	-37.854	0.364	-0.192
-77.567	800.000	0.092	0.310
-76.553	248.072	-0.185	0.311
-75.538	-200.000	0.009	-0.236
-74.524	-105.968	-0.339	-0.076
-73.509	-88.488	0.337	-0.100
-72.494	-86.395	0.261	-0.080
-71.480	-95.167	0.149	0.040
-70.465	800.000	-0.068	-0.265
-69.451	800.000	0.060	-0.186
-68.436	-15.501	0.222	0.141
-67.422	-56.072	-0.273	0.121
-66.407	-200.000	0.008	0.109
-65.392	99.772	-0.206	-0.238
-64.378	-8.928	0.109	-0.073
-63.363	800.000	-0.095	0.269
-62.349	-17.785	0.260	0.162
-61.334	41.064	-0.674	-0.605
-60.319	116.083	0.356	0.433
-59.305	800.000	0.326	-1.054
-58.290	104.001	0.617	0.721
-57.276	800.000	0.571	1.672
-56.261	-200.000	87.022	493.790
-55.246	445.071	1399.254	3052.709
-54.232	144.857	2612.957	3470.591
-53.217	108.443	2242.803	2659.794
-52.203	46.312	1765.883	1626.168
-51.188	39.757	1571.862	1401.098
-50.173	37.505	1543.022	1359.620
-49.159	54.106	1588.379	1517.650
-48.144	57.723	1608.579	1562.579
-47.130	40.533	1566.545	1401.623
-46.115	37.155	1551.026	1363.995
-45.100	37.009	1547.977	1360.236
-44.086	36.935	1546.167	1358.068
-43.071	36.828	1544.435	1355.748
-42.057	36.910	1542.148	1354.259
-41.042	36.914	1540.819	1353.064
-40.027	36.863	1539.902	1351.850
-39.013	36.989	1537.774	1350.807
-37.998	36.908	1536.727	1349.270
-36.984	36.856	1535.493	1347.770
-35.969	36.905	1534.133	1346.863
-34.954	36.916	1532.123	1345.121
-33.940	36.878	1531.160	1343.960
-32.925	36.899	1529.833	1342.885
-31.911	37.027	1528.592	1342.631
-30.896	37.019	1526.806	1340.952
-29.881	37.045	1525.784	1340.185
-28.867	37.043	1523.828	1338.396
-27.852	36.917	1522.986	1336.735
-26.838	37.033	1520.971	1335.711
-25.823	37.109	1519.090	1334.527
-24.809	36.918	1517.888	1332.105
-23.794	36.893	1516.748	1330.885
-22.779	36.963	1515.753	1330.438
-21.765	37.031	1514.488	1329.744
-20.750	36.976	1513.131	1328.122
-19.736	36.975	1512.351	1327.374
-18.721	37.143	1510.550	1326.890
-17.706	36.972	1510.051	1325.232
-16.692	36.928	1508.927	1323.890
-15.677	37.028	1507.504	1323.275
-14.663	36.848	1506.883	1321.447
-13.648	36.893	1505.400	1320.402
-12.633	36.986	1504.042	1319.792
-11.619	36.849	1503.770	1318.571
-10.604	36.823	1503.219	1317.857
-9.590	36.833	1502.214	1316.989
-8.575	36.930	1500.782	1316.338
-7.560	36.863	1500.142	1315.274
-6.546	36.818	1499.532	1314.381
-5.531	36.894	1498.366	1313.819
-4.517	36.844	1497.602	1312.756
-3.502	36.903	1496.335	1311.995
-2.487	36.983	1495.023	1311.337
-1.473	36.814	1494.346	1309.545
-0.458	36.895	1492.782	1308.673
0.556	37.013	1483.933	1300.087
1.571	34.592	1457.492	1260.837
2.586	31.295	1395.309	1186.045
3.600	29.582	1311.932	1104.839
4.615	27.860	1263.260	1053.826
5.629	23.046	1203.517	977.359
6.644	11.662	1111.693	844.242
7.659	3.263	1066.756	768.277
8.673	2.231	1060.521	758.597
9.688	1.870	1057.586	754.642
10.702	1.739	1055.738	752.612
11.717	1.631	1054.052	750.811
12.731	4.911	1057.877	769.691
13.746	15.424	1073.647	833.561
14.761	23.587	1083.911	882.220
15.775	25.132	1085.236	890.902
16.790	25.209	1084.991	891.002
17.804	25.142	1083.548	889.406
18.819	24.935	1082.978	887.836
19.834	25.008	1082.449	887.684
20.848	25.212	1081.723	888.022
21.863	25.305	1081.839	888.497
22.877	25.282	1081.249	887.818
23.892	25.068	1080.855	886.359
24.907	25.060	1079.726	885.315
25.921	25.079	1079.206	884.905
26.936	25.083	1078.335	884.133
27.950	25.003	1077.028	882.587
28.965	24.955	1076.037	881.460
29.980	24.926	1074.755	880.194
30.994	24.868	1072.963	878.362
32.009	25.093	1072.609	879.097
33.023	25.164	1071.895	878.784
34.038	25.105	1070.732	877.460
35.053	24.902	1070.341	876.073
36.067	25.120	1069.258	876.174
37.082	25.179	1068.324	875.616
38.096	25.245	1067.458	875.153
39.111	25.292	1067.334	875.205
40.126	25.407	1066.272	874.815
41.140	25.226	1065.416	873.156
42.155	25.014	1063.780	870.707
43.169	24.708	1062.383	868.001
44.184	24.691	1061.783	867.352
45.199	24.744	1060.932	866.837
46.213	24.746	1059.143	865.306
47.228	24.701	1058.665	864.624
48.242	24.842	1058.050	864.723
49.257	25.073	1056.758	864.709
50.271	25.097	1056.308	864.380
51.286	25.227	1055.481	864.251
52.301	25.186	1054.760	863.384
53.315	25.159	1054.079	862.624
54.330	25.205	1053.483	862.278
55.344	25.021	1052.576	860.576
56.359	25.096	1051.861	860.276
57.374	25.131	1051.164	859.799
58.388	24.836	1050.244	857.558
59.403	24.825	1049.531	856.847
60.417	24.782	1048.585	855.791
61.432	24.652	1048.314	854.872
62.447	24.645	1047.272	853.914
63.461	24.833	1046.700	854.271
64.476	24.913	1045.511	853.606
65.490	24.883	1044.675	852.705
66.505	24.643	1044.136	851.047
67.520	24.802	1042.862	850.690
68.534	24.932	1042.214	850.701
69.549	24.693	1041.651	849.033
70.563	24.322	1040.363	846.147
71.578	24.351	1039.358	845.396
72.593	24.399	1038.628	844.952
73.607	24.239	1037.455	843.167
74.622	24.345	1036.411	842.744
75.636	24.450	1035.884	842.737
76.651	24.623	1035.035	842.788
77.666	24.575	1034.127	841.748
78.680	24.486	1033.267	840.554
79.695	24.381	1032.991	839.763
80.709	24.567	1032.437	840.113
81.724	24.713	1031.483	839.947
82.739	24.619	1031.052	839.079
83.753	24.553	1030.010	837.850
84.768	24.840	1029.430	838.646
85.782	25.242	1028.517	839.710
86.797	25.461	1027.810	840.084
87.812	25.504	1026.778	839.367
88.826	25.100	1026.107	836.857
89.841	25.269	1025.247	836.873
90.855	25.365	1024.532	836.661
91.870	25.310	1023.901	835.817
92.884	25.328	1022.924	835.028
93.899	25.254	1022.139	833.968
94.914	25.250	1021.226	833.132
95.928	25.191	1020.610	832.281
96.943	25.305	1019.577	831.894
97.957	25.048	1018.590	829.825
98.972	24.792	1017.422	827.617
99.987	24.611	1016.189	825.702
101.001	24.635	1015.655	825.305
102.016	25.065	1015.406	827.018
103.030	24.976	1014.649	825.919
104.045	25.042	1013.282	825.035
105.060	24.843	1012.420	823.346
106.074	24.684	1010.936	821.336
107.089	24.655	1010.532	820.798
108.103	25.047	1009.959	822.061
109.118	25.083	1009.320	821.636
110.133	24.827	1008.090	819.388
111.147	24.871	1006.820	818.485
112.162	24.739	1005.822	816.997
113.176	24.601	1004.280	815.044
114.191	24.350	1004.273	813.821
115.206	24.722	1002.978	814.391
116.220	24.373	1001.870	811.831
117.235	24.344	1000.794	810.760
118.249	24.396	1000.312	810.533
119.264	24.531	999.499	810.413
120.279	24.337	998.530	808.679
121.293	24.176	998.307	807.696
122.308	24.335	997.216	807.458
123.322	24.437	996.381	807.173
124.337	24.519	995.113	806.444
125.352	24.321	993.881	804.484
126.366	23.974	992.226	801.512
127.381	23.656	991.217	799.193
128.395	24.006	991.320	800.781
129.410	24.741	990.843	803.627
130.424	24.884	990.008	803.521
131.439	25.005	988.842	803.047
132.454	24.989	987.982	802.204
133.468	25.008	987.144	801.538
134.483	24.739	986.017	799.352
135.497	25.010	985.784	800.302
136.512	25.062	985.409	800.159
137.527	25.179	984.236	799.660
138.541	25.192	983.510	799.056
139.556	25.213	983.098	798.744
140.570	25.060	982.193	797.257
141.585	25.244	981.345	797.317
142.600	25.197	980.909	796.681
143.614	25.199	979.485	795.464
144.629	25.329	978.787	795.401
145.643	25.558	978.098	795.786
146.658	25.495	976.924	794.482
147.673	25.135	975.845	791.942
148.687	25.182	974.573	791.049
149.702	25.132	973.619	789.985
150.716	24.915	972.714	788.227
151.731	24.862	971.904	787.268
152.746	24.980	971.306	787.229
153.760	25.163	970.521	787.327
154.775	25.501	969.396	787.829
155.789	25.415	968.738	786.848
156.804	25.325	968.297	786.024
157.819	25.357	966.751	784.839
158.833	25.356	966.240	784.350
159.848	25.414	965.680	784.082
160.862	25.638	964.431	783.975
161.877	25.409	963.589	782.224
162.892	25.212	962.988	780.806
163.906	25.507	961.706	780.983
164.921	25.283	961.019	779.382
165.935	25.186	959.970	778.041
166.950	25.228	958.920	777.303
167.964	25.291	958.156	776.890
168.979	25.390	956.819	776.162
169.994	25.253	955.903	774.762
171.008	24.992	954.696	772.587
172.023	25.177	954.306	773.000
173.037	25.315	953.998	773.280
174.052	25.151	952.481	771.275
175.067	24.906	951.610	769.447
176.081	24.929	950.965	768.958
177.096	25.021	949.964	768.473
178.110	25.009	948.983	767.562
179.125	24.894	948.009	766.213
180.140	24.712	946.767	764.364
181.154	24.645	946.411	763.721
182.169	24.657	946.031	763.401
183.183	25.042	945.730	764.732
184.198	25.308	944.919	765.144
185.213	25.217	944.537	764.376
186.227	25.283	943.733	763.943
187.242	25.210	943.299	763.211
188.256	25.411	942.539	763.383
189.271	25.189	941.889	761.849
190.286	25.356	941.438	762.124
191.300	25.223	940.490	760.725
192.315	24.623	938.970	756.890
193.329	23.889	937.317	752.385
194.344	23.403	935.974	749.187
195.359	24.073	936.359	752.257
196.373	24.970	936.761	756.304
197.388	25.287	936.371	757.261
198.402	25.141	936.346	756.558
199.417	25.074	935.619	755.619
200.432	25.168	934.985	755.440
201.446	25.097	934.443	754.634
202.461	24.786	933.154	752.220
203.475	24.855	933.153	752.444
204.490	24.400	931.542	749.167
205.504	23.425	929.086	743.038
206.519	23.543	929.280	743.625
207.534	24.540	929.728	748.097
208.548	24.758	929.020	748.374
209.563	25.203	928.617	749.840
210.577	25.099	927.964	748.814
211.592	24.757	927.427	746.887
212.607	25.336	927.184	749.040
213.621	25.384	926.602	748.705
214.636	25.268	925.836	747.535
215.650	25.397	925.523	747.754
216.665	25.313	924.663	746.643
217.680	25.277	924.573	746.354
218.694	25.355	924.016	746.162
219.709	25.232	922.797	744.603
220.723	24.854	921.638	742.034
221.738	24.876	921.711	742.119
222.753	25.102	921.361	742.709
223.767	24.946	920.763	741.515
224.782	25.085	919.663	741.136
225.796	25.269	919.006	741.303
226.811	25.412	918.505	741.423
227.826	25.145	917.091	739.116
228.840	24.171	915.793	733.995
229.855	24.157	915.231	733.422
230.869	24.463	914.543	734.063
231.884	24.201	913.248	731.884
232.899	24.180	913.078	731.594
233.913	24.858	913.499	734.652
234.928	25.127	913.084	735.358
235.942	24.975	912.642	734.311
236.957	25.150	911.398	733.962
237.972	24.908	910.185	731.931
238.986	24.591	909.909	730.352
240.001	24.861	909.251	730.860
241.015	24.850	908.507	730.151
242.030	24.954	908.141	730.217
243.045	25.142	907.546	730.439
244.059	25.008	907.281	729.616
245.074	25.262	906.800	730.198
246.088	25.212	906.292	729.524
247.103	24.835	905.471	727.263
248.117	24.880	904.655	726.726
249.132	25.463	904.280	728.728
250.147	25.769	904.382	729.985
251.161	26.049	903.602	730.424
252.176	26.098	903.128	730.176
253.190	26.129	902.734	729.916
254.205	25.966	902.418	728.941
255.220	26.314	902.106	730.029
256.234	26.242	901.053	728.823
257.249	26.245	900.139	728.029
258.263	26.056	899.520	726.704
259.278	25.875	899.256	725.698
260.293	25.968	899.117	725.894
261.307	26.167	898.258	725.939
262.322	26.023	897.460	724.651
263.336	26.012	896.681	723.912
264.351	25.463	895.669	720.831
265.366	24.485	893.496	715.101
266.380	23.848	892.808	711.938
267.395	24.765	892.839	715.571
268.409	25.520	893.191	718.809
269.424	25.583	892.503	718.443
270.439	25.766	891.880	718.607
271.453	25.920	891.080	718.515
272.468	25.818	890.722	717.755
273.482	25.938	890.314	717.843
274.497	25.996	890.408	718.084
275.512	25.919	888.992	716.574
276.526	25.354	887.434	713.013
277.541	25.517	886.888	713.156
278.555	25.783	887.121	714.336
279.570	25.711	886.588	713.560
280.585	25.530	885.770	712.120
281.599	25.542	885.126	711.587
282.614	25.864	884.483	712.279
283.628	25.287	883.489	709.138
284.643	24.956	882.385	706.880
285.657	25.256	882.918	708.432
286.672	25.448	881.551	708.030
287.687	24.741	880.994	704.733
288.701	25.155	880.890	706.219
289.716	25.547	880.733	707.572
290.730	25.242	879.857	705.608
291.745	25.193	878.777	704.488
292.760	24.953	877.731	702.645
293.774	24.926	877.276	702.113
294.789	25.792	878.010	706.032
295.803	26.441	878.157	708.632
296.818	26.374	877.816	708.032
297.833	26.634	877.033	708.355
298.847	26.307	875.687	705.930
299.862	25.985	874.613	703.744
300.876	25.945	874.489	703.427
301.891	26.309	874.222	704.569
302.906	26.434	873.559	704.460
303.920	25.987	872.519	701.816
304.935	25.790	871.898	700.491
305.949	26.206	871.846	702.003
306.964	26.284	871.277	701.787
307.979	26.154	870.617	700.690
308.993	26.052	870.138	699.847
310.008	26.306	869.606	700.340
311.022	26.669	869.169	701.331
312.037	26.434	868.596	699.899
313.052	26.032	868.027	697.822
314.066	25.990	867.236	696.964
315.081	25.411	865.569	693.329
316.095	24.572	864.468	689.148
317.110	25.098	864.241	690.936
318.125	26.023	864.835	694.916
319.139	25.581	863.623	692.179
320.154	24.531	861.853	686.663
321.168	23.975	860.526	683.410
322.183	24.518	861.348	686.091
323.197	25.468	861.938	690.148
324.212	25.875	861.532	691.324
325.227	25.983	861.074	691.309
326.241	26.203	860.663	691.763
327.256	26.030	859.982	690.492
328.270	25.923	859.331	689.497
329.285	25.812	858.775	688.566
330.300	25.729	857.417	687.102
331.314	25.419	856.836	685.392
332.329	25.361	856.685	684.990
333.343	25.950	856.077	686.686
334.358	26.172	855.865	687.301
335.373	26.221	855.316	686.986
336.387	26.328	854.676	686.818
337.402	26.481	854.705	687.359
338.416	26.705	854.451	687.947
339.431	26.699	853.591	687.169
340.446	26.763	852.658	686.600
341.460	26.968	852.658	687.315
342.475	26.924	851.744	686.354
343.489	26.612	851.266	684.728
344.504	26.755	850.213	684.361
345.519	26.815	850.481	684.740
346.533	26.921	850.217	684.866
347.548	26.974	849.722	684.608
348.562	27.049	849.376	684.552
349.577	26.950	848.752	683.614
350.592	26.907	848.186	682.937
351.606	26.899	847.417	682.227
352.621	26.992	847.093	682.256
353.635	26.963	846.670	681.744
354.650	26.701	845.970	680.140
355.665	26.551	844.595	678.410
356.679	25.431	843.351	673.156
357.694	25.388	842.621	672.353
358.708	25.966	842.558	674.407
359.723	25.935	842.080	673.848
360.738	26.172	842.079	674.676
361.752	26.616	841.630	675.914
362.767	26.655	841.507	675.901
363.781	27.007	841.022	676.762
364.796	27.080	841.323	677.219
365.810	27.373	840.630	677.691
366.825	27.519	840.218	677.842
367.840	27.345	840.357	677.246
368.854	27.265	839.280	676.023
369.869	26.952	838.064	673.820
370.883	26.701	837.772	672.594
371.898	26.702	837.384	672.226
372.913	26.773	836.400	671.641
373.927	26.679	835.775	670.731
374.942	26.806	835.315	670.773
375.956	26.846	834.636	670.317
376.971	27.147	833.900	670.776
377.986	27.163	833.939	670.806
379.000	27.251	833.964	671.093
380.015	27.313	833.398	670.808
381.029	27.257	832.502	669.819
382.044	27.074	831.752	668.483
383.059	27.289	831.390	668.923
384.073	27.358	830.666	668.535
385.088	27.227	830.247	667.661
386.102	27.300	829.655	667.390
387.117	27.324	828.757	666.700
388.132	27.071	828.070	665.160
389.146	26.863	827.312	663.732
390.161	26.261	826.529	660.843
391.175	26.356	826.327	660.972
392.190	26.930	826.502	663.152
393.205	27.074	825.796	663.050
394.219	26.051	823.865	657.715
395.234	24.333	821.734	649.704
396.248	23.439	820.610	645.502
397.263	24.592	821.450	650.308
398.278	26.527	822.819	658.380
399.292	26.996	822.770	659.987
400.307	26.661	821.965	658.066
401.321	26.633	821.607	657.621
402.336	26.613	821.418	657.338
403.350	26.671	821.628	657.657
404.365	27.380	821.214	659.842
405.380	27.526	821.210	660.307
406.394	27.780	821.109	661.089
407.409	28.131	820.464	661.779
408.423	28.024	820.222	661.138
409.438	27.903	819.154	659.784
410.453	27.965	818.728	659.606
411.467	27.953	818.505	659.325
412.482	28.027	817.504	658.727
413.496	28.164	816.914	658.687
414.511	28.223	816.795	658.742
415.526	28.048	816.570	657.873
416.540	28.260	816.089	658.193
417.555	27.816	815.629	656.166
418.569	27.639	814.912	654.895
419.584	27.838	813.849	654.696
420.599	27.591	814.255	654.079
421.613	101.764	1277.903	1422.651
422.628	87.761	1345.451	1422.744
