DTS Sentinel unit serial number:	SN413079Multiplexer serial number:	ORYXHardware model number:	OX4-SRSoftware version number:	ORYX F/W v4.00 Oryx Data Collector v3.7.2.0data status	okinstallation	princeton_trtdifferential loss correction	single-endedforward channel	channel 3reverse channel	N/Adate	2019/09/14time	00:00:35forward acquisition time	60.00reverse acquisition time	0.00gamma	496.2192k internal	0.2340k external	0.2340temperature offset calibration	1.0059default loss term (dB/km)	0.3790temperature slope calibration	1.0000multiplexer offset coefficient	1.0000multiplexer slope coefficient	1.0000fibre end	0.00T internal ref (°C)	26.52T ext. ref 1 (°C)	3.16T ext. ref 2 (°C)	21.38length (m)	temperature (°C)	Stokes	anti-Stokes-747.200	201.079	0.149	0.230
-746.185	13.752	0.045	0.035
-745.171	-125.270	-0.427	0.065
-744.156	-98.159	-0.407	0.105
-743.142	-187.865	-0.430	0.006
-742.127	-32.740	0.117	-0.065
-741.112	265.233	0.102	0.178
-740.098	-27.129	-0.175	0.102
-739.083	188.733	0.115	-0.173
-738.069	800.000	0.028	-0.111
-737.054	109.047	0.211	0.253
-736.039	-141.342	-0.535	-0.054
-735.025	800.000	0.067	-0.239
-734.010	448.895	0.039	0.085
-732.996	-39.832	-0.348	-0.182
-731.981	800.000	0.073	-0.240
-730.966	800.000	-0.080	-0.243
-729.952	-183.832	0.099	0.002
-728.937	-34.563	0.265	0.145
-727.923	-200.000	0.002	0.340
-726.908	106.551	-0.062	-0.074
-725.894	-200.000	-0.009	0.272
-724.879	-200.000	-0.060	0.273
-723.864	-200.000	-0.006	0.033
-722.850	90.582	-0.137	-0.154
-721.835	-68.268	-0.348	-0.135
-720.821	-4.840	-0.314	-0.217
-719.806	-103.076	0.203	-0.048
-718.791	649.472	-0.098	0.250
-717.777	-16.998	0.146	0.092
-716.762	-76.815	0.177	0.062
-715.748	-20.074	0.176	0.108
-714.733	-162.375	-0.332	-0.016
-713.718	-65.463	0.330	0.133
-712.704	-38.466	-0.091	0.048
-711.689	-44.052	-0.127	-0.064
-710.675	520.186	0.090	-0.212
-709.660	133.330	0.368	-0.476
-708.645	-200.000	-0.054	-0.282
-707.631	76.287	-0.198	-0.210
-706.616	96.942	-0.270	-0.310
-705.602	-119.059	0.071	-0.012
-704.587	-36.324	0.390	0.211
-703.572	-17.274	0.094	0.059
-702.558	25.668	-0.171	0.142
-701.543	23.875	0.298	-0.246
-700.529	-200.000	0.006	-0.455
-699.514	-200.000	0.009	-0.248
-698.499	-59.357	-0.303	-0.130
-697.485	-200.000	-0.055	-0.352
-696.470	-14.369	0.188	-0.121
-695.456	295.584	-0.145	0.266
-694.441	101.139	-0.204	0.238
-693.426	-121.237	0.109	0.018
-692.412	3.335	0.160	-0.116
-691.397	800.000	0.039	0.107
-690.383	800.000	0.075	-0.289
-689.368	-200.000	-0.019	-0.266
-688.354	781.557	-0.121	-0.332
-687.339	-200.000	0.030	0.359
-686.324	37.120	0.127	-0.113
-685.310	760.260	-0.038	-0.102
-684.295	324.534	-0.160	-0.306
-683.281	241.912	-0.092	-0.154
-682.266	-15.060	-0.117	-0.075
-681.251	-200.000	-0.006	0.039
-680.237	167.177	-0.157	0.223
-679.222	-122.103	0.163	-0.027
-678.208	35.021	0.223	-0.196
-677.193	-16.145	0.276	-0.175
-676.178	-93.786	-0.101	-0.028
-675.164	-35.780	-0.314	-0.170
-674.149	-151.865	-0.144	0.011
-673.135	-69.783	-0.051	0.019
-672.120	53.537	0.104	0.100
-671.105	-132.679	0.041	-0.005
-670.091	-94.742	-0.205	0.056
-669.076	-129.476	-0.268	0.037
-668.062	-31.532	0.115	-0.065
-667.047	73.078	-0.083	0.087
-666.032	-98.293	-0.338	-0.087
-665.018	157.226	0.045	0.062
-664.003	-109.211	0.087	0.018
-662.989	800.000	-0.070	0.206
-661.974	800.000	0.067	0.285
-660.959	-27.897	0.256	0.148
-659.945	86.582	-0.091	-0.100
-658.930	800.000	0.059	0.190
-657.916	-200.000	-0.009	0.063
-656.901	-109.260	0.258	0.055
-655.886	800.000	-0.039	0.125
-654.872	17.250	-0.036	0.028
-653.857	50.314	-0.165	-0.156
-652.843	-128.560	0.368	-0.052
-651.828	-48.349	-0.314	0.151
-650.814	54.776	0.157	0.151
-649.799	-200.000	0.005	0.083
-648.784	-59.228	0.486	0.209
-647.770	20.384	0.038	0.031
-646.755	-128.808	-0.265	0.037
-645.741	-86.198	-0.200	-0.061
-644.726	800.000	-0.080	-0.340
-643.711	13.823	-0.177	-0.137
-642.697	106.418	0.207	0.245
-641.682	-126.101	-0.103	-0.015
-640.668	-200.000	0.017	0.147
-639.653	137.509	0.138	-0.181
-638.638	-200.000	-0.011	0.208
-637.624	-200.000	0.019	-0.285
-636.609	39.554	-0.124	-0.111
-635.595	-200.000	-0.003	-0.091
-634.580	473.700	0.145	-0.326
-633.565	-110.322	-0.468	-0.097
-632.551	254.395	-0.162	-0.277
-631.536	514.930	0.076	-0.176
-630.522	-200.000	0.026	-0.356
-629.507	74.729	-0.125	0.132
-628.492	-126.305	-0.211	0.031
-627.478	-126.188	0.151	-0.023
-626.463	-37.298	0.236	-0.126
-625.449	800.000	-0.123	-0.428
-624.434	435.002	0.160	0.348
-623.419	-39.478	0.155	-0.081
-622.405	77.683	-0.141	-0.149
-621.390	28.586	-0.229	0.193
-620.376	38.223	0.156	0.138
-619.361	417.884	0.053	-0.113
-618.346	-200.000	-0.027	-0.144
-617.332	30.921	0.131	-0.112
-616.317	14.463	0.423	0.329
-615.303	-133.775	0.266	0.033
-614.288	30.720	-0.077	-0.066
-613.273	48.448	0.039	-0.037
-612.259	-51.323	0.078	0.036
-611.244	218.757	0.179	-0.286
-610.230	-48.538	0.183	0.088
-609.215	-200.000	0.004	0.132
-608.201	67.569	-0.072	0.074
-607.186	-54.233	0.191	-0.086
-606.171	157.836	0.028	0.039
-605.157	800.000	-0.038	0.166
-604.142	143.586	0.032	-0.043
-603.128	-127.480	-0.389	0.056
-602.113	93.678	-0.125	-0.142
-601.098	-200.000	0.021	-0.166
-600.084	-85.857	-0.216	-0.067
-599.069	-177.009	-0.428	-0.011
-598.055	-28.034	0.171	-0.098
-597.040	93.040	-0.055	-0.062
-596.025	-152.907	-0.459	-0.032
-595.011	-165.618	0.114	-0.005
-593.996	-26.968	-0.133	0.077
-592.982	-113.598	0.241	-0.047
-591.967	250.156	0.153	0.258
-590.952	800.000	-0.094	-0.385
-589.938	-72.954	-0.285	0.104
-588.923	-26.506	0.237	-0.138
-587.909	67.618	0.193	-0.196
-586.894	183.126	0.044	0.065
-585.879	252.766	-0.067	-0.114
-584.865	275.159	-0.022	-0.039
-583.850	172.228	-0.244	0.349
-582.836	334.626	0.077	-0.149
-581.821	-200.000	0.012	0.173
-580.806	-112.580	0.155	-0.031
-579.792	94.547	0.163	-0.185
-578.777	-22.430	0.280	0.169
-577.763	-151.661	-0.262	-0.019
-576.748	-23.748	0.157	0.094
-575.733	-200.000	0.043	0.209
-574.719	-200.000	-0.003	-0.036
-573.704	-19.813	0.182	-0.112
-572.690	-22.687	-0.175	0.105
-571.675	-200.000	-0.082	0.000
-570.661	-35.639	-0.131	-0.071
-569.646	200.104	-0.097	0.148
-568.631	-200.000	-0.011	0.121
-567.617	800.000	0.035	0.147
-566.602	-35.125	-0.330	0.179
-565.588	-108.111	-0.194	-0.042
-564.573	-25.357	0.321	0.189
-563.558	35.475	0.197	-0.172
-562.544	-200.000	-0.002	0.103
-561.529	294.424	0.183	-0.333
-560.515	-22.640	-0.432	-0.260
-559.500	-200.000	-0.004	0.179
-558.485	-39.463	-0.059	0.031
-557.471	-39.495	0.062	0.033
-556.456	800.000	0.083	0.263
-555.442	-89.942	0.233	0.068
-554.427	32.994	0.128	0.110
-553.412	800.000	-0.075	0.213
-552.398	294.695	0.050	0.090
-551.383	322.174	0.119	0.226
-550.369	27.951	-0.034	-0.029
-549.354	-140.088	-0.157	-0.016
-548.339	-56.646	-0.208	0.092
-547.325	4.706	0.155	0.113
-546.310	-21.163	-0.173	-0.105
-545.296	-35.964	-0.333	0.179
-544.281	63.836	0.120	-0.120
-543.266	-200.000	-0.012	-0.147
-542.252	-39.587	-0.222	-0.115
-541.237	-200.000	-0.005	0.043
-540.223	-200.000	-0.010	0.227
-539.208	-67.829	-0.329	-0.128
-538.193	-41.960	0.215	0.109
-537.179	6.749	0.086	-0.064
-536.164	-200.000	0.000	0.107
-535.150	-23.518	-0.139	-0.083
-534.135	800.000	0.043	-0.136
-533.121	84.870	0.139	0.151
-532.106	3.757	-0.220	0.159
-531.091	267.833	-0.155	-0.270
-530.077	-200.000	-0.207	0.000
-529.062	322.213	0.186	-0.352
-528.048	-200.000	0.006	-0.059
-527.033	279.041	0.148	-0.263
-526.018	741.684	0.026	0.071
-525.004	599.808	0.037	0.090
-523.989	-85.334	0.239	0.074
-522.975	460.040	0.055	-0.122
-521.960	419.759	0.052	0.111
-520.945	62.829	-0.027	0.027
-519.931	-79.142	-0.407	-0.137
-518.916	54.306	-0.109	-0.104
-517.902	106.540	-0.108	0.127
-516.887	-111.043	-0.296	-0.060
-515.872	227.184	0.074	-0.119
-514.858	171.833	0.073	-0.104
-513.843	-19.197	0.059	0.036
-512.829	-9.525	-0.244	-0.162
-511.814	60.578	-0.173	0.170
-510.799	-200.000	0.007	0.238
-509.785	72.816	-0.158	0.164
-508.770	800.000	-0.125	0.373
-507.756	800.000	-0.025	-0.070
-506.741	-62.750	0.255	-0.105
-505.726	-0.940	0.221	-0.155
-504.712	800.000	-0.048	-0.163
-503.697	-91.063	-0.298	-0.085
-502.683	28.040	0.255	-0.214
-501.668	197.947	0.055	0.084
-500.653	-127.688	-0.160	-0.023
-499.639	49.402	0.146	0.136
-498.624	68.860	-0.207	-0.211
-497.610	-120.973	-0.311	-0.052
-496.595	221.147	0.197	0.314
-495.581	-163.390	0.480	-0.023
-494.566	-113.108	-0.234	0.046
-493.551	85.915	-0.095	-0.103
-492.537	-138.915	-0.125	-0.013
-491.522	22.438	-0.116	0.094
-490.508	585.961	-0.043	0.105
-489.493	-200.000	-0.020	0.219
-488.478	-104.160	-0.233	0.054
-487.464	-28.233	0.330	-0.189
-486.449	-102.956	-0.166	-0.039
-485.435	-51.525	0.299	0.139
-484.420	113.840	-0.020	-0.024
-483.405	-200.000	0.026	0.165
-482.391	-10.031	0.540	-0.356
-481.376	-1.934	0.282	0.196
-480.362	-200.000	-0.030	0.276
-479.347	-200.000	0.000	-0.018
-478.332	116.659	-0.072	0.087
-477.318	21.713	0.342	-0.276
-476.303	-68.491	-0.187	-0.072
-475.289	-29.076	-0.199	0.113
-474.274	-133.967	-0.445	-0.055
-473.259	59.776	-0.101	-0.099
-472.245	-127.748	0.412	0.059
-471.230	-48.132	-0.301	-0.144
-470.216	-200.000	0.018	-0.210
-469.201	-200.000	-0.010	-0.055
-468.186	305.955	0.018	0.033
-467.172	-158.767	-0.525	0.030
-466.157	33.348	-0.187	-0.161
-465.143	-22.740	0.279	0.167
-464.128	-138.396	-0.224	0.025
-463.113	-26.080	0.227	-0.132
-462.099	-59.528	-0.080	0.034
-461.084	42.847	0.235	0.212
-460.070	-27.604	-0.300	0.173
-459.055	-200.000	0.005	-0.306
-458.040	754.977	0.100	0.267
-457.026	800.000	0.106	0.333
-456.011	103.487	-0.255	0.296
-454.997	-137.281	0.261	0.029
-453.982	-51.930	0.220	0.101
-452.968	324.308	0.087	0.165
-451.953	800.000	0.032	-0.128
-450.938	-148.255	0.118	-0.010
-449.924	-100.144	0.146	0.036
-448.909	-157.577	-0.182	0.011
-447.895	19.488	0.226	0.180
-446.880	-200.000	-0.057	0.323
-445.865	332.591	0.034	-0.064
-444.851	139.770	0.058	-0.075
-443.836	90.255	0.127	0.141
-442.822	164.922	-0.282	0.394
-441.807	18.981	-0.231	-0.184
-440.792	-101.028	0.236	-0.057
-439.778	224.166	0.078	0.124
-438.763	101.557	-0.075	0.087
-437.749	-38.697	-0.251	-0.131
-436.734	269.956	0.150	0.261
-435.719	-31.307	-0.198	-0.111
-434.705	195.654	0.125	-0.189
-433.690	6.119	-0.419	0.308
-432.676	-200.000	0.032	-0.251
-431.661	-114.775	0.338	-0.064
-430.646	698.392	0.121	0.316
-429.632	-200.000	0.002	-0.536
-428.617	509.047	-0.171	0.394
-427.603	85.000	-0.130	0.141
-426.588	-185.806	0.069	0.001
-425.573	128.638	-0.104	0.131
-424.559	260.350	0.159	0.273
-423.544	61.564	-0.158	0.156
-422.530	68.506	0.399	0.405
-421.515	650.705	-0.063	0.161
-420.500	800.000	0.014	-0.044
-419.486	11.421	-0.098	0.075
-418.471	-200.000	-0.018	0.207
-417.457	-79.117	-0.118	-0.040
-416.442	-164.247	-0.101	0.005
-415.428	-200.000	-0.015	0.190
-414.413	107.507	0.065	0.076
-413.398	625.064	0.073	0.182
-412.384	60.088	-0.158	-0.154
-411.369	166.287	-0.037	0.051
-410.355	-32.197	0.175	-0.097
-409.340	-52.938	-0.151	-0.069
-408.325	800.000	-0.063	-0.253
-407.311	322.459	-0.221	-0.416
-406.296	32.626	0.115	0.098
-405.282	277.965	0.177	-0.312
-404.267	766.938	0.069	0.185
-403.252	229.829	-0.140	-0.226
-402.238	-200.000	-0.054	0.300
-401.223	160.423	-0.151	-0.208
-400.209	33.312	0.066	0.056
-399.194	-19.166	-0.232	-0.142
-398.179	-156.912	0.226	-0.014
-397.165	-200.000	0.072	-0.339
-396.150	-134.650	-0.208	-0.025
-395.136	-41.588	-0.200	0.101
-394.121	-200.000	0.016	-0.398
-393.106	-58.283	0.252	0.109
-392.092	-92.196	0.112	-0.031
-391.077	-17.996	0.095	-0.059
-390.063	-76.095	-0.318	-0.111
-389.048	800.000	-0.055	-0.219
-388.033	800.000	0.047	-0.176
-387.019	-137.636	0.154	-0.017
-386.004	15.733	0.124	0.097
-384.990	122.732	0.123	-0.152
-383.975	-39.962	-0.051	-0.026
-382.960	18.020	0.160	0.126
-381.946	-141.054	-0.237	0.024
-380.931	164.086	0.249	-0.347
-379.917	131.854	-0.231	-0.294
-378.902	323.337	0.112	0.210
-377.888	-200.000	0.050	0.278
-376.873	-85.113	0.265	-0.082
-375.858	-200.000	0.010	0.282
-374.844	-46.573	-0.239	-0.116
-373.829	-200.000	0.068	0.350
-372.815	-200.000	-0.030	-0.287
-371.800	-157.253	-0.354	0.021
-370.785	165.761	-0.087	-0.121
-369.771	-184.369	-0.258	-0.004
-368.756	800.000	0.102	0.404
-367.742	-134.292	-0.061	0.007
-366.727	3.391	0.142	-0.102
-365.712	-31.545	-0.233	-0.129
-364.698	800.000	0.079	-0.261
-363.683	-126.788	0.297	-0.043
-362.669	800.000	0.090	-0.382
-361.654	-118.790	0.095	-0.016
-360.639	294.175	-0.138	0.250
-359.625	-200.000	0.028	-0.238
-358.610	16.177	0.306	-0.238
-357.596	-181.767	-0.119	-0.002
-356.581	-58.690	-0.149	-0.064
-355.566	-162.541	-0.217	-0.011
-354.552	385.732	-0.110	0.225
-353.537	-52.690	-0.154	-0.070
-352.523	800.000	0.084	0.312
-351.508	-121.620	0.159	-0.026
-350.493	-3.958	-0.287	-0.197
-349.479	-49.144	0.064	-0.030
-348.464	-73.151	-0.132	-0.048
-347.450	-62.324	-0.145	0.059
-346.435	-7.577	0.160	-0.107
-345.420	-48.802	-0.246	0.116
-344.406	-181.723	0.143	0.003
-343.391	-94.826	-0.213	0.057
-342.377	-147.660	0.245	-0.020
-341.362	287.617	-0.056	0.100
-340.348	-65.936	0.185	0.073
-339.333	49.719	0.252	-0.234
-338.318	-139.399	0.395	0.042
-337.304	-99.523	0.331	0.082
-336.289	800.000	0.013	0.055
-335.275	585.179	0.090	-0.219
-334.260	-186.933	-0.427	0.006
-333.245	192.126	0.060	0.090
-332.231	128.280	0.130	-0.163
-331.216	-53.587	0.248	0.112
-330.202	151.936	-0.100	-0.135
-329.187	-15.792	0.261	-0.164
-328.172	30.068	-0.189	0.159
-327.158	-98.890	0.202	-0.051
-326.143	108.797	0.140	0.165
-325.129	800.000	-0.050	-0.202
-324.114	-174.938	0.233	0.006
-323.099	-110.199	0.359	0.074
-322.085	-200.000	0.039	0.167
-321.070	188.562	-0.053	-0.079
-320.056	-200.000	-0.027	-0.367
-319.041	145.636	0.059	-0.077
-318.026	201.234	-0.074	0.112
-317.012	-200.000	0.034	0.519
-315.997	133.510	-0.273	0.348
-314.983	-149.925	-0.335	0.026
-313.968	0.512	0.193	0.136
-312.953	-200.000	0.122	-0.527
-311.939	-200.000	0.002	-0.119
-310.924	195.393	-0.246	-0.369
-309.910	800.000	0.040	0.110
-308.895	147.766	-0.072	0.096
-307.880	-144.624	0.238	-0.022
-306.866	387.727	-0.099	-0.202
-305.851	-200.000	0.015	0.203
-304.837	-18.489	0.218	-0.134
-303.822	58.258	0.241	0.233
-302.807	800.000	0.052	0.208
-301.793	-200.000	0.036	0.298
-300.778	244.408	0.030	0.050
-299.764	-4.323	0.126	0.086
-298.749	425.595	-0.044	-0.094
-297.735	800.000	0.080	-0.259
-296.720	423.944	-0.139	-0.293
-295.705	-58.475	-0.207	0.089
-294.691	-95.936	-0.182	0.048
-293.676	-200.000	0.004	-0.050
-292.662	420.773	-0.166	-0.351
-291.647	800.000	0.101	0.342
-290.632	-88.574	0.152	-0.045
-289.618	15.493	-0.198	-0.153
-288.603	711.252	0.047	0.124
-287.589	-42.494	0.040	0.020
-286.574	637.478	-0.094	0.236
-285.559	693.451	-0.108	0.278
-284.545	-129.790	0.354	-0.048
-283.530	-92.491	-0.090	0.025
-282.516	2.931	0.209	-0.150
-281.501	79.679	-0.221	0.234
-280.486	35.430	0.037	-0.032
-279.472	-44.375	0.066	-0.033
-278.457	-81.838	-0.112	0.036
-277.443	-12.501	0.200	-0.129
-276.428	283.851	-0.153	0.270
-275.413	-7.055	-0.316	0.211
-274.399	399.270	0.106	-0.219
-273.384	-200.000	-0.027	-0.147
-272.370	9.821	-0.118	-0.088
-271.355	258.879	0.077	0.131
-270.340	-200.000	-0.004	0.061
-269.326	-148.966	0.275	-0.022
-268.311	-142.327	-0.174	-0.017
-267.297	-88.340	-0.326	-0.096
-266.282	112.099	0.167	0.199
-265.267	-200.000	0.031	0.400
-264.253	17.374	0.221	0.173
-263.238	-44.593	0.250	-0.123
-262.224	30.291	0.215	-0.180
-261.209	522.089	-0.063	-0.146
-260.195	-88.715	-0.193	-0.057
-259.180	80.374	-0.070	0.075
-258.165	-53.756	0.141	-0.063
-257.151	800.000	-0.022	0.069
-256.136	-84.737	0.315	-0.098
-255.122	272.547	0.160	-0.277
-254.107	-59.840	-0.178	-0.075
-253.092	-165.165	0.161	0.007
-252.078	-200.000	0.043	0.250
-251.063	127.713	0.118	0.148
-250.049	-82.645	-0.146	0.047
-249.034	-30.592	0.047	-0.026
-248.019	18.706	0.176	-0.139
-247.005	-25.052	0.225	-0.131
-245.990	-32.030	-0.452	0.249
-244.976	252.551	0.153	0.256
-243.961	74.703	-0.046	-0.048
-242.946	315.707	0.092	0.170
-241.932	-35.064	-0.211	-0.113
-240.917	-58.071	0.125	-0.054
-239.903	51.746	0.081	-0.076
-238.888	800.000	-0.145	-0.424
-237.873	-200.000	-0.039	0.258
-236.859	-29.066	-0.289	0.163
-235.844	-197.835	0.029	-0.000
-234.830	484.135	0.113	-0.254
-233.815	-142.759	-0.084	-0.008
-232.800	-151.094	0.003	-0.000
-231.786	402.983	0.065	-0.134
-230.771	382.317	-0.130	-0.263
-229.757	-74.291	0.354	0.126
-228.742	123.449	0.110	0.135
-227.727	-200.000	0.037	-0.305
-226.713	299.301	-0.132	0.240
-225.698	145.154	-0.050	0.066
-224.684	-108.023	-0.064	0.014
-223.669	116.749	-0.255	0.308
-222.655	-200.000	0.011	0.151
-221.640	670.686	-0.063	0.161
-220.625	-30.163	-0.391	0.218
-219.611	131.937	0.115	0.145
-218.596	407.621	-0.172	-0.357
-217.582	-129.158	0.062	0.008
-216.567	-173.621	-0.299	0.009
-215.552	713.562	0.011	-0.030
-214.538	-7.874	0.277	-0.184
-213.523	-0.860	0.194	-0.135
-212.509	800.000	0.054	0.218
-211.494	18.714	-0.225	-0.176
-210.479	5.088	0.116	0.084
-209.465	23.888	-0.157	-0.127
-208.450	238.857	0.050	0.082
-207.436	-200.000	-0.030	-0.315
-206.421	-200.000	0.032	0.185
-205.406	-90.628	0.073	-0.021
-204.392	-30.755	-0.237	0.132
-203.377	-57.656	-0.250	-0.108
-202.363	-117.138	0.138	-0.025
-201.348	-200.000	-0.004	-0.043
-200.333	711.478	0.099	-0.257
-199.319	-200.000	-0.058	-0.336
-198.304	800.000	-0.072	-0.236
-197.290	-200.000	-0.001	0.016
-196.275	800.000	0.117	-0.420
-195.260	31.869	0.200	-0.169
-194.246	-158.839	-0.335	0.019
-193.231	-84.460	-0.203	-0.063
-192.217	-16.820	0.439	-0.272
-191.202	-160.371	-0.192	-0.010
-190.187	-48.912	-0.403	-0.189
-189.173	-200.000	0.028	-0.130
-188.158	746.793	-0.051	0.133
-187.144	-71.678	-0.137	-0.050
-186.129	116.172	-0.074	0.089
-185.114	-82.065	0.151	-0.048
-184.100	71.450	0.268	0.273
-183.085	35.810	-0.100	0.086
-182.071	-200.000	0.062	-0.306
-181.056	-77.599	-0.257	0.087
-180.042	-76.981	-0.178	0.061
-179.027	800.000	0.071	-0.288
-178.012	2.341	0.126	0.090
-176.998	564.363	-0.108	-0.258
-175.983	-86.948	0.358	-0.107
-174.969	-72.729	-0.137	0.049
-173.954	-111.415	0.131	0.026
-172.939	180.760	0.102	0.146
-171.925	-78.760	0.191	0.064
-170.910	-155.419	-0.243	0.015
-169.896	-91.775	0.155	0.043
-168.881	-200.000	-0.012	-0.156
-167.866	673.587	0.149	0.379
-166.852	139.046	0.195	0.251
-165.837	800.000	0.121	-0.485
-164.823	66.111	0.046	0.046
-163.808	755.671	-0.137	0.362
-162.793	28.419	-0.318	0.263
-161.779	-121.820	0.198	0.032
-160.764	278.363	0.120	-0.210
-159.750	-161.636	0.152	0.008
-158.735	46.173	-0.221	0.200
-157.720	-129.807	-0.098	-0.013
-156.706	130.578	0.228	0.286
-155.691	-180.411	-0.090	0.002
-154.677	-43.486	0.584	0.289
-153.662	800.000	-0.027	0.087
-152.647	-31.616	0.108	0.060
-151.633	-200.000	-0.026	0.236
-150.618	800.000	0.041	0.122
-149.604	-109.084	0.083	-0.017
-148.589	800.000	0.043	-0.169
-147.574	39.611	-0.219	0.192
-146.560	141.051	-0.028	-0.036
-145.545	-15.350	-0.179	0.112
-144.531	-200.000	0.380	-0.000
-143.516	-43.705	0.045	0.022
-142.502	-82.539	0.198	-0.063
-141.487	-200.000	0.012	-0.506
-140.472	243.633	-0.182	-0.298
-139.458	16.003	0.169	0.131
-138.443	-126.313	0.222	0.032
-137.429	77.344	0.043	-0.045
-136.414	721.218	-0.176	-0.459
-135.399	-176.911	-0.056	0.001
-134.385	107.876	0.124	0.144
-133.370	-88.067	-0.235	-0.069
-132.356	-200.000	0.022	0.143
-131.341	800.000	-0.046	-0.196
-130.326	13.976	-0.305	0.232
-129.312	62.393	0.015	0.015
-128.297	-113.419	-0.184	0.035
-127.283	800.000	0.066	-0.180
-126.268	-150.851	-0.182	-0.014
-125.253	117.507	-0.152	-0.183
-124.239	-200.000	-0.043	0.242
-123.224	-200.000	0.046	0.227
-122.210	-200.000	0.013	0.118
-121.195	130.348	0.030	-0.037
-120.180	-125.527	-0.256	0.038
-119.166	-200.000	-0.025	-0.113
-118.151	-0.547	-0.188	0.130
-117.137	6.293	0.136	0.099
-116.122	384.734	0.026	0.052
-115.107	-145.156	0.476	-0.042
-114.093	-178.862	-0.215	-0.005
-113.078	-20.876	0.126	-0.075
-112.064	-16.168	-0.092	-0.057
-111.049	-33.770	0.140	0.076
-110.034	800.000	0.132	0.364
-109.020	-200.000	-0.003	0.474
-108.005	0.833	-0.173	0.121
-106.991	427.679	-0.029	0.061
-105.976	67.790	0.187	0.187
-104.962	-70.013	-0.353	0.132
-103.947	-33.799	0.258	0.139
-102.932	300.499	-0.061	0.110
-101.918	-125.289	-0.294	0.044
-100.903	-200.000	-0.004	0.110
-99.889	-187.474	-0.240	-0.003
-98.874	-111.474	0.296	-0.059
-97.859	70.337	0.039	-0.039
-96.845	-200.000	-0.036	0.232
-95.830	-43.240	0.143	-0.071
-94.816	-59.827	-0.182	-0.076
-93.801	800.000	0.016	0.057
-92.786	585.753	0.192	0.461
-91.772	100.529	0.221	0.250
-90.757	800.000	-0.034	0.132
-89.743	-124.220	-0.100	-0.015
-88.728	42.255	0.320	0.284
-87.713	21.007	-0.290	0.230
-86.699	70.432	-0.154	-0.155
-85.684	-34.533	0.065	-0.035
-84.670	-159.855	-0.129	-0.007
-83.655	-64.272	-0.113	-0.045
-82.640	800.000	0.044	0.148
-81.626	-152.598	-0.402	-0.028
-80.611	55.802	0.127	0.120
-79.597	-78.743	0.290	0.097
-78.582	800.000	0.015	0.055
-77.567	-166.119	-0.362	-0.015
-76.553	-125.006	0.066	0.010
-75.538	-144.046	-0.272	0.025
-74.524	-200.000	-0.021	-0.094
-73.509	663.333	-0.060	-0.150
-72.494	-43.827	0.148	0.073
-71.480	-200.000	0.080	-0.444
-70.465	-200.000	-0.018	0.312
-69.451	-200.000	0.054	0.315
-68.436	-200.000	-0.073	0.382
-67.422	-200.000	0.003	-0.167
-66.407	412.107	-0.087	-0.180
-65.392	-200.000	-0.052	0.237
-64.378	-190.172	0.201	-0.002
-63.363	358.566	-0.036	0.070
-62.349	-12.327	-0.103	0.066
-61.334	22.579	-1.095	-0.874
-60.319	19.154	0.651	0.510
-59.305	332.216	-0.684	-1.288
-58.290	460.795	0.652	1.418
-57.276	800.000	0.341	1.450
-56.261	-200.000	116.338	644.528
-55.246	504.494	1535.950	3469.286
-54.232	177.572	2702.812	3842.855
-53.217	104.756	2167.134	2492.180
-52.203	37.131	1685.240	1455.628
-51.188	29.788	1501.116	1247.240
-50.173	27.430	1476.477	1211.060
-49.159	49.547	1537.142	1411.800
-48.144	48.123	1551.643	1415.387
-47.130	29.763	1506.831	1251.621
-46.115	26.792	1491.826	1219.164
-45.100	26.502	1489.082	1214.924
-44.086	26.506	1486.442	1212.752
-43.071	26.476	1484.646	1211.036
-42.057	26.456	1483.512	1209.931
-41.042	26.481	1481.915	1208.744
-40.027	26.506	1480.181	1207.454
-39.013	26.426	1478.922	1205.842
-37.998	26.455	1477.991	1205.230
-36.984	26.429	1477.068	1204.253
-35.969	26.513	1475.538	1203.516
-34.954	26.568	1473.708	1202.347
-33.940	26.518	1472.522	1200.994
-32.925	26.512	1470.933	1199.610
-31.911	26.519	1469.992	1198.846
-30.896	26.536	1468.339	1197.563
-29.881	26.436	1467.359	1196.053
-28.867	26.617	1465.866	1195.987
-27.852	26.587	1464.809	1194.876
-26.838	26.585	1463.503	1193.751
-25.823	26.590	1462.146	1192.633
-24.809	26.595	1460.247	1191.067
-23.794	26.505	1459.040	1189.441
-22.779	26.601	1457.695	1188.927
-21.765	26.517	1457.029	1187.787
-20.750	26.551	1455.402	1186.638
-19.736	26.568	1454.489	1185.959
-18.721	26.556	1453.319	1184.876
-17.706	26.553	1451.995	1183.733
-16.692	26.510	1451.450	1182.961
-15.677	26.531	1450.604	1182.361
-14.663	26.613	1449.014	1181.552
-13.648	26.398	1448.727	1179.871
-12.633	26.564	1447.132	1179.606
-11.619	26.530	1446.867	1179.119
-10.604	26.463	1446.220	1178.108
-9.590	26.501	1444.445	1176.865
-8.575	26.482	1443.594	1175.998
-7.560	26.464	1443.045	1175.393
-6.546	26.563	1442.344	1175.412
-5.531	26.409	1441.811	1173.936
-4.517	26.430	1440.842	1173.234
-3.502	26.478	1439.439	1172.358
-2.487	26.515	1438.843	1172.064
-1.473	26.479	1437.566	1170.746
-0.458	26.535	1436.242	1169.986
0.556	26.821	1426.235	1158.523
1.571	23.802	1401.853	1119.629
2.586	20.377	1340.654	1049.985
3.600	18.795	1259.171	977.088
4.615	17.544	1215.965	936.601
5.629	15.225	1159.657	880.975
6.644	8.772	1078.919	787.914
7.659	3.850	1043.060	738.209
8.673	3.246	1037.638	731.437
9.688	3.199	1034.263	728.769
10.702	3.011	1033.394	727.201
11.717	3.204	1031.680	726.844
12.731	5.000	1032.175	735.609
13.746	11.769	1041.504	774.323
14.761	18.072	1049.652	810.285
15.775	19.689	1051.693	819.465
16.790	19.299	1049.761	816.041
17.804	18.327	1047.502	809.618
18.819	17.492	1045.990	804.434
19.834	17.075	1044.292	801.087
20.848	16.856	1043.639	799.486
21.863	16.773	1042.923	798.475
22.877	16.529	1042.182	796.688
23.892	16.423	1041.517	795.609
24.907	16.416	1040.548	794.766
25.921	16.443	1039.877	794.310
26.936	16.309	1039.143	793.049
27.950	16.346	1038.469	792.640
28.965	16.488	1036.979	792.098
29.980	16.635	1035.973	791.946
30.994	16.641	1034.891	791.075
32.009	16.715	1033.921	790.612
33.023	16.622	1033.645	789.897
34.038	16.695	1032.701	789.444
35.053	16.587	1031.621	788.046
36.067	16.574	1030.621	787.150
37.082	16.510	1029.896	786.231
38.096	16.498	1029.060	785.468
39.111	16.720	1028.234	785.796
40.126	16.689	1027.893	785.326
41.140	16.578	1026.302	783.525
42.155	16.312	1025.209	781.391
43.169	16.178	1023.994	779.777
44.184	16.130	1022.943	778.684
45.199	16.088	1021.909	777.636
46.213	16.084	1020.759	776.674
47.228	16.227	1019.886	776.598
48.242	16.463	1019.002	776.939
49.257	16.488	1018.351	776.491
50.271	16.500	1017.004	775.449
51.286	16.496	1016.295	774.823
52.301	16.516	1015.448	774.199
53.315	16.522	1015.042	773.849
54.330	16.436	1013.798	772.437
55.344	16.318	1013.334	771.478
56.359	16.460	1011.510	770.667
57.374	16.259	1011.313	769.533
58.388	16.147	1010.991	768.711
59.403	16.165	1009.682	767.730
60.417	16.067	1008.806	766.550
61.432	16.140	1008.367	766.481
62.447	16.135	1007.688	765.872
63.461	15.972	1006.658	764.284
64.476	16.085	1005.621	763.940
65.490	16.020	1004.960	763.077
66.505	16.019	1004.183	762.413
67.520	16.092	1003.464	762.130
68.534	16.071	1002.663	761.360
69.549	16.147	1002.110	761.216
70.563	16.224	1000.937	760.605
71.578	16.090	1000.228	759.393
72.593	16.031	999.286	758.347
73.607	15.761	999.069	756.903
74.622	15.854	997.623	756.155
75.636	16.007	996.367	755.824
76.651	15.874	995.877	754.788
77.666	15.870	995.293	754.261
78.680	15.833	994.816	753.668
79.695	16.037	993.912	753.828
80.709	16.185	993.175	753.864
81.724	16.200	992.218	753.137
82.739	16.194	991.882	752.792
83.753	16.224	991.378	752.476
84.768	16.430	990.710	752.817
85.782	16.524	990.258	752.828
86.797	16.737	989.587	753.196
87.812	16.632	989.026	752.236
88.826	16.686	987.479	751.235
89.841	16.470	987.167	749.971
90.855	16.633	986.097	749.815
91.870	16.577	985.548	749.082
92.884	16.759	984.722	749.197
93.899	16.757	983.395	748.111
94.914	16.768	982.990	747.785
95.928	16.788	982.220	747.220
96.943	16.805	981.663	746.807
97.957	16.863	980.488	746.099
98.972	16.699	980.028	744.962
99.987	16.524	979.649	743.838
101.001	16.806	978.222	743.927
102.016	16.502	978.136	742.464
103.030	16.587	977.112	741.992
104.045	16.705	975.934	741.550
105.060	16.657	974.904	740.492
106.074	16.541	973.930	739.178
107.089	16.331	972.998	737.488
108.103	16.256	971.977	736.321
109.118	16.044	971.604	735.051
110.133	16.041	970.843	734.398
111.147	16.158	969.411	733.758
112.162	16.115	968.726	732.988
113.176	16.009	968.215	732.073
114.191	16.197	967.505	732.290
115.206	16.286	966.620	731.939
116.220	16.245	965.888	731.142
117.235	16.274	964.708	730.314
118.249	16.188	963.941	729.294
119.264	16.168	963.013	728.440
120.279	16.149	962.170	727.657
121.293	16.138	961.440	726.992
122.308	16.131	960.430	726.135
123.322	16.095	959.666	725.338
124.337	15.949	958.597	723.839
125.352	15.913	957.501	722.794
126.366	15.917	956.449	721.951
127.381	15.930	955.488	721.218
128.395	15.973	954.266	720.417
129.410	16.041	953.404	719.994
130.424	16.068	953.225	719.910
131.439	15.994	951.982	718.590
132.454	16.159	951.366	718.765
133.468	16.225	950.688	718.470
134.483	16.281	949.834	718.000
135.497	16.311	949.130	717.532
136.512	16.178	948.511	716.433
137.527	16.255	947.993	716.305
138.541	16.231	947.311	715.627
139.556	16.239	946.334	714.860
140.570	16.194	946.112	714.438
141.585	16.408	945.017	714.452
142.600	16.395	944.644	714.051
143.614	16.650	943.407	714.132
144.629	16.619	942.928	713.574
145.643	16.560	942.394	712.860
146.658	16.756	941.237	712.746
147.673	16.681	940.415	711.744
148.687	16.493	939.207	709.977
149.702	16.434	938.297	708.981
150.716	16.340	937.255	707.736
151.731	16.250	936.661	706.849
152.746	16.261	936.451	706.674
153.760	16.334	935.524	706.217
154.775	16.395	934.634	705.735
155.789	16.522	933.764	705.547
156.804	16.445	933.456	704.931
157.819	16.557	932.043	704.266
158.833	16.623	931.700	704.221
159.848	16.743	931.046	704.165
160.862	16.851	930.334	704.011
161.877	16.709	929.850	702.991
162.892	16.581	928.720	701.546
163.906	16.470	927.528	700.123
164.921	16.273	927.122	698.939
165.935	16.234	926.061	697.917
166.950	16.425	925.012	697.855
167.964	16.580	924.001	697.666
168.979	16.530	923.328	696.891
169.994	16.517	921.819	695.636
171.008	16.415	921.449	694.879
172.023	16.674	920.673	695.295
173.037	16.593	920.398	694.694
174.052	16.689	919.479	694.332
175.067	16.679	919.017	693.879
176.081	16.666	917.620	692.712
177.096	16.484	916.662	691.184
178.110	16.366	915.734	689.938
179.125	16.371	915.385	689.637
180.140	16.654	914.234	689.863
181.154	16.561	913.859	689.137
182.169	16.564	913.544	688.852
183.183	16.734	913.217	689.237
184.198	16.880	912.448	689.190
185.213	16.823	911.578	688.239
186.227	16.818	910.944	687.680
187.242	16.869	910.595	687.560
188.256	17.000	910.026	687.602
189.271	17.022	909.288	687.074
190.286	17.137	908.531	686.908
191.300	16.833	907.334	684.714
192.315	16.489	906.809	682.864
193.329	16.309	905.870	681.371
194.344	16.369	905.108	680.982
195.359	16.553	904.861	681.474
196.373	16.555	904.616	681.237
197.388	16.754	904.094	681.587
198.402	16.857	903.332	681.367
199.417	16.908	903.414	681.571
200.432	17.093	902.682	681.703
201.446	17.232	902.785	682.278
202.461	17.172	902.088	681.449
203.475	17.281	901.409	681.314
204.490	17.393	900.357	680.906
205.504	17.134	900.058	679.585
206.519	17.019	899.254	678.456
207.534	16.986	898.222	677.487
208.548	16.947	897.466	676.702
209.563	17.111	896.578	676.627
210.577	17.056	895.785	675.749
211.592	16.945	895.806	675.262
212.607	17.195	895.015	675.602
213.621	17.169	894.665	675.171
214.636	17.225	894.204	674.988
215.650	17.164	893.647	674.267
216.665	17.181	892.849	673.671
217.680	17.134	892.669	673.289
218.694	17.366	892.133	673.744
219.709	17.459	891.533	673.599
220.723	17.441	890.881	672.976
221.738	17.202	890.209	671.466
222.753	17.221	889.125	670.662
223.767	17.193	888.689	670.166
224.782	17.410	887.547	670.100
225.796	17.480	887.231	670.076
226.811	17.544	886.147	669.451
227.826	17.441	885.724	668.665
228.840	17.349	885.228	667.871
229.855	17.349	884.517	667.277
230.869	17.259	883.948	666.435
231.884	17.291	883.209	665.944
232.899	17.341	882.117	665.257
233.913	17.238	881.809	664.564
234.928	17.128	881.099	663.539
235.942	17.191	880.389	663.194
236.957	17.061	879.683	662.095
237.972	17.147	878.943	661.816
238.986	17.185	878.306	661.424
240.001	17.149	877.775	660.826
241.015	17.322	877.394	661.153
242.030	17.246	876.533	660.150
243.045	17.452	875.901	660.415
244.059	17.425	875.354	659.840
245.074	17.468	874.892	659.602
246.088	17.467	874.209	659.023
247.103	17.485	873.705	658.656
248.117	17.706	873.045	658.953
249.132	17.633	872.919	658.517
250.147	17.748	872.646	658.696
251.161	18.026	871.826	659.091
252.176	18.020	871.345	658.646
253.190	18.163	870.509	658.508
254.205	18.120	870.001	657.901
255.220	18.167	869.944	657.979
256.234	18.023	869.297	656.877
257.249	18.187	867.966	656.443
258.263	18.151	867.711	656.054
259.278	18.048	867.133	655.164
260.293	18.270	866.494	655.475
261.307	18.137	866.179	654.669
262.322	18.130	865.912	654.383
263.336	18.285	865.403	654.534
264.351	18.335	864.348	653.868
265.366	18.266	863.516	652.919
266.380	18.307	863.234	652.802
267.395	18.256	862.812	652.233
268.409	18.210	861.728	651.180
269.424	18.283	860.886	650.763
270.439	18.218	860.217	649.952
271.453	18.199	859.432	649.229
272.468	18.076	859.020	648.396
273.482	18.037	858.264	647.621
274.497	18.134	858.097	647.803
275.512	18.059	857.427	646.956
276.526	18.082	856.705	646.442
277.541	18.037	856.189	645.825
278.555	18.180	855.461	645.758
279.570	18.273	854.740	645.510
280.585	18.321	854.390	645.367
281.599	18.445	853.772	645.308
282.614	18.287	853.362	644.348
283.628	18.199	852.492	643.303
284.643	18.190	852.071	642.895
285.657	18.357	851.325	642.902
286.672	18.191	850.960	641.946
287.687	18.354	850.430	642.102
288.701	18.210	849.644	640.910
289.716	18.299	849.237	640.881
290.730	18.324	848.815	640.601
291.745	18.284	848.236	639.958
292.760	18.428	847.625	639.977
293.774	18.480	846.899	639.567
294.789	18.442	846.849	639.330
295.803	18.491	845.935	638.767
296.818	18.332	845.020	637.427
297.833	18.492	844.019	637.211
298.847	18.359	843.458	636.235
299.862	18.453	842.981	636.169
300.876	18.432	842.478	635.655
301.891	18.614	841.735	635.711
302.906	18.558	841.275	635.103
303.920	18.720	840.586	635.127
304.935	18.874	839.872	635.096
305.949	19.068	839.157	635.220
306.964	18.899	839.068	634.470
307.979	18.670	838.499	633.140
308.993	18.697	837.775	632.637
310.008	18.831	837.510	632.872
311.022	18.808	836.784	632.183
312.037	18.734	836.185	631.403
313.052	18.741	835.648	630.968
314.066	18.606	835.050	629.965
315.081	18.415	834.600	628.867
316.095	18.501	833.915	628.614
317.110	18.510	833.207	628.054
318.125	18.463	832.834	627.548
319.139	18.531	832.292	627.330
320.154	18.426	832.063	626.719
321.168	18.323	831.566	625.912
322.183	18.515	830.938	626.089
323.197	18.645	830.326	626.044
324.212	18.669	829.795	625.676
325.227	18.766	829.228	625.549
326.241	18.751	828.690	625.032
327.256	18.540	828.131	623.785
328.270	18.604	827.455	623.453
329.285	18.612	827.043	623.120
330.300	18.664	825.878	622.374
331.314	18.705	825.830	622.431
332.329	18.669	825.361	621.891
333.343	18.800	824.858	621.932
334.358	18.771	824.029	621.148
335.373	18.812	823.786	621.057
336.387	18.845	823.477	620.888
337.402	18.914	823.053	620.765
338.416	19.016	822.452	620.624
339.431	18.993	822.402	620.447
340.446	19.189	821.273	620.248
341.460	19.208	821.057	620.099
342.475	19.221	820.203	619.443
343.489	19.356	819.686	619.485
344.504	19.262	819.316	618.812
345.519	19.417	818.913	619.008
346.533	19.399	818.525	618.598
347.548	19.417	817.889	618.127
348.562	19.309	816.885	616.924
349.577	19.168	816.338	615.953
350.592	19.004	815.895	614.980
351.606	18.924	815.670	614.469
352.621	19.009	814.707	613.992
353.635	19.279	814.192	614.512
354.650	19.183	814.079	614.033
355.665	19.240	813.413	613.676
356.679	19.322	813.029	613.624
357.694	19.309	812.522	613.144
358.708	19.403	812.531	613.431
359.723	19.258	811.766	612.283
360.738	19.236	811.081	611.633
361.752	19.303	810.690	611.522
362.767	19.340	810.323	611.320
363.781	19.299	810.315	611.118
364.796	19.601	809.388	611.434
365.810	19.534	809.105	610.927
366.825	19.759	808.765	611.413
367.840	19.774	808.465	611.185
368.854	19.771	808.027	610.788
369.869	19.711	807.488	610.116
370.883	19.470	806.806	608.697
371.898	19.507	806.317	608.403
372.913	19.835	805.467	608.864
373.927	19.678	805.423	608.223
374.942	19.655	804.723	607.560
375.956	19.765	804.137	607.451
376.971	19.761	803.404	606.830
377.986	19.786	802.785	606.395
379.000	19.823	802.517	606.270
380.015	19.925	801.869	606.083
381.029	19.805	801.552	605.371
382.044	19.841	800.803	604.876
383.059	19.999	800.171	604.898
384.073	19.851	799.979	604.182
385.088	19.915	799.146	603.722
386.102	19.752	798.593	602.684
387.117	19.661	798.046	601.901
388.132	19.571	797.840	601.380
389.146	19.601	797.320	601.037
390.161	19.595	797.238	600.902
391.175	19.931	796.560	601.507
392.190	20.019	796.204	601.488
393.205	19.835	795.573	600.319
394.219	19.753	795.337	599.805
395.234	19.757	794.686	599.273
396.248	19.524	794.105	597.977
397.263	19.688	793.507	598.039
398.278	19.646	792.853	597.351
399.292	19.529	792.520	596.640
400.307	19.588	792.190	596.546
401.321	19.743	791.496	596.505
402.336	19.776	791.043	596.223
403.350	19.615	791.153	595.697
404.365	19.920	790.703	596.358
405.380	19.910	790.224	595.909
406.394	19.966	789.758	595.696
407.409	19.980	789.344	595.380
408.423	20.029	789.411	595.548
409.438	20.270	788.447	595.593
410.453	20.206	788.253	595.177
411.467	20.202	787.814	594.779
412.482	20.320	787.270	594.720
413.496	20.444	786.897	594.811
414.511	20.519	786.204	594.490
415.526	20.454	786.172	594.190
416.540	20.335	785.823	593.466
417.555	20.211	785.487	592.736
418.569	20.242	784.798	592.270
419.584	20.440	784.023	592.307
420.599	20.428	784.042	592.230
421.613	162.921	1370.434	1798.200
422.628	140.954	1455.892	1798.266
