DTS Sentinel unit serial number:	SN413079Multiplexer serial number:	ORYXHardware model number:	OX4-SRSoftware version number:	ORYX F/W v4.00 Oryx Data Collector v3.7.2.0data status	okinstallation	princeton_trtdifferential loss correction	single-endedforward channel	channel 3reverse channel	N/Adate	2019/09/15time	02:32:35forward acquisition time	60.00reverse acquisition time	0.00gamma	496.2192k internal	0.2322k external	0.2322temperature offset calibration	0.9968default loss term (dB/km)	0.3790temperature slope calibration	1.0000multiplexer offset coefficient	1.0000multiplexer slope coefficient	1.0000fibre end	0.00T internal ref (°C)	31.50T ext. ref 1 (°C)	4.57T ext. ref 2 (°C)	25.85length (m)	temperature (°C)	Stokes	anti-Stokes-747.200	800.000	0.144	0.473
-746.185	121.343	-0.051	0.064
-745.171	-155.189	0.081	0.005
-744.156	800.000	-0.032	0.094
-743.142	-175.102	-0.380	0.011
-742.127	-55.018	-0.181	0.083
-741.112	670.482	-0.031	-0.080
-740.098	-25.902	-0.429	0.255
-739.083	-35.630	0.227	0.125
-738.069	-106.528	-0.266	-0.060
-737.054	144.172	0.054	-0.073
-736.039	-168.908	-0.273	0.010
-735.025	747.160	-0.055	-0.151
-734.010	800.000	0.119	0.340
-732.996	626.195	-0.051	0.130
-731.981	246.642	0.075	0.127
-730.966	495.540	-0.072	-0.167
-729.952	-79.503	-0.353	-0.120
-728.937	315.285	0.085	0.161
-727.923	800.000	-0.064	-0.237
-726.908	139.542	-0.181	-0.240
-725.894	589.975	0.035	-0.086
-724.879	12.786	0.065	-0.051
-723.864	800.000	-0.084	-0.235
-722.850	76.445	0.074	0.079
-721.835	100.163	-0.063	-0.074
-720.821	186.459	0.045	-0.067
-719.806	412.568	0.020	0.044
-718.791	444.816	-0.096	-0.213
-717.777	-200.000	0.034	-0.372
-716.762	-83.177	-0.278	-0.090
-715.748	14.163	0.138	-0.108
-714.733	6.229	0.083	-0.062
-713.718	-200.000	-0.021	-0.182
-712.704	-4.722	0.410	0.285
-711.689	417.861	0.098	-0.212
-710.675	69.332	0.160	-0.166
-709.660	-200.000	-0.009	-0.081
-708.645	167.529	-0.087	-0.125
-707.631	-13.479	-0.107	-0.070
-706.616	-119.046	0.187	0.033
-705.602	-200.000	0.011	-0.138
-704.587	-114.537	-0.301	0.058
-703.572	-110.677	-0.058	0.012
-702.558	-200.000	-0.024	-0.178
-701.543	235.725	0.094	0.157
-700.529	132.254	-0.193	-0.250
-699.514	285.027	0.149	0.270
-698.499	-97.307	-0.223	0.059
-697.485	57.854	-0.173	-0.171
-696.470	-45.520	0.101	-0.050
-695.456	-71.665	-0.130	0.049
-694.441	-200.000	0.015	-0.183
-693.426	425.847	0.036	-0.077
-692.412	-162.219	-0.118	-0.006
-691.397	681.244	-0.034	-0.090
-690.383	-40.600	-0.357	0.187
-689.368	-154.461	-0.036	-0.002
-688.354	-46.202	0.079	0.039
-687.339	166.273	0.152	0.217
-686.324	148.650	-0.176	-0.239
-685.310	800.000	-0.154	-0.433
-684.295	-161.541	0.160	0.008
-683.281	299.576	0.126	-0.234
-682.266	17.809	0.109	0.087
-681.251	-148.016	-0.172	0.014
-680.237	60.978	0.448	-0.449
-679.222	22.551	0.166	-0.137
-678.208	157.975	0.028	0.039
-677.193	-1.032	0.377	0.269
-676.178	429.118	-0.112	-0.245
-675.164	-65.815	-0.137	-0.055
-674.149	-200.000	-0.031	0.181
-673.135	-168.824	0.188	-0.007
-672.120	-89.280	-0.073	0.022
-671.105	293.972	-0.061	0.113
-670.091	207.972	-0.125	0.197
-669.076	-56.119	-0.049	-0.022
-668.062	6.527	-0.019	-0.014
-667.047	121.512	-0.018	0.023
-666.032	-200.000	0.054	-0.266
-665.018	364.396	0.119	-0.242
-664.003	-66.428	-0.209	0.084
-662.989	-80.507	-0.181	0.061
-661.974	-14.639	-0.231	-0.149
-660.959	-154.320	0.221	0.015
-659.945	-200.000	0.018	0.335
-658.930	212.046	-0.203	-0.323
-657.916	-117.672	-0.524	-0.095
-656.901	800.000	-0.083	0.323
-655.886	18.779	0.209	-0.169
-654.872	-200.000	-0.009	-0.185
-653.857	800.000	0.019	-0.054
-652.843	-200.000	-0.082	0.000
-651.828	105.328	-0.225	-0.268
-650.814	-96.598	0.102	-0.027
-649.799	-92.129	0.199	-0.057
-648.784	59.481	0.031	0.031
-647.770	-104.261	0.254	0.059
-646.755	-116.153	-0.199	0.037
-645.741	115.503	0.082	-0.101
-644.726	-55.351	0.060	0.027
-643.711	-200.000	-0.003	-0.135
-642.697	686.088	0.090	-0.235
-641.682	126.851	-0.131	-0.167
-640.668	-200.000	0.011	-0.297
-639.653	108.785	0.170	-0.205
-638.638	-157.901	0.167	0.010
-637.624	-63.678	-0.180	0.074
-636.609	-200.000	0.019	-0.161
-635.595	-144.925	-0.200	0.018
-634.580	250.042	0.022	-0.038
-633.565	147.910	-0.228	0.309
-632.551	-37.543	-0.403	-0.216
-631.536	79.898	0.211	-0.228
-630.522	-131.824	0.191	-0.025
-629.507	-53.195	-0.119	0.055
-628.492	-200.000	0.062	0.332
-627.478	-159.147	-0.230	0.013
-626.463	-200.000	-0.030	-0.139
-625.449	-113.197	0.282	0.056
-624.434	-80.411	-0.334	0.112
-623.419	-34.785	-0.087	-0.048
-622.405	256.635	0.110	-0.189
-621.390	-200.000	-0.006	-0.098
-620.376	370.394	-0.087	-0.178
-619.361	139.775	-0.084	-0.111
-618.346	-200.000	-0.004	0.061
-617.332	471.248	-0.031	0.070
-616.317	-200.000	-0.008	0.232
-615.303	-130.196	-0.210	-0.029
-614.288	59.013	-0.216	-0.214
-613.273	800.000	0.018	-0.060
-612.259	139.904	-0.107	-0.141
-611.244	149.426	0.221	-0.301
-610.230	-154.458	-0.152	-0.010
-609.215	800.000	-0.065	0.192
-608.201	-158.738	-0.129	-0.007
-607.186	800.000	0.047	-0.140
-606.171	144.855	-0.199	-0.267
-605.157	800.000	-0.064	-0.270
-604.142	19.505	0.031	0.025
-603.128	800.000	0.017	0.069
-602.113	581.960	0.101	-0.249
-601.098	241.741	-0.076	0.127
-600.084	113.962	0.131	0.160
-599.069	-125.261	-0.329	0.051
-598.055	-68.366	-0.233	-0.091
-597.040	-64.983	-0.140	-0.057
-596.025	258.577	0.199	-0.345
-595.011	-9.379	-0.188	0.126
-593.996	143.735	-0.080	0.108
-592.982	-76.407	-0.244	0.086
-591.967	-200.000	0.019	0.130
-590.952	244.423	0.106	-0.180
-589.938	800.000	-0.029	0.091
-588.923	89.877	-0.111	-0.125
-587.909	-200.000	0.338	0.000
-586.894	313.144	0.030	0.057
-585.879	-200.000	-0.029	-0.399
-584.865	26.112	0.192	0.161
-583.850	174.668	0.273	0.397
-582.836	-105.165	-0.401	-0.092
-581.821	536.909	0.169	-0.404
-580.806	800.000	-0.122	0.362
-579.792	-75.668	-0.130	0.046
-578.777	23.693	-0.391	-0.323
-577.763	-200.000	-0.057	0.254
-576.748	2.218	0.312	-0.226
-575.733	94.598	-0.209	-0.239
-574.719	-104.163	-0.137	-0.032
-573.704	157.805	-0.114	-0.158
-572.690	-156.756	-0.154	-0.010
-571.675	-200.000	-0.011	-0.331
-570.661	-58.702	-0.086	0.037
-569.646	663.956	-0.076	0.198
-568.631	26.714	-0.283	0.238
-567.617	-200.000	-0.055	-0.247
-566.602	146.127	-0.175	0.236
-565.588	105.164	-0.173	0.204
-564.573	-45.824	0.225	-0.111
-563.558	-64.621	-0.067	-0.027
-562.544	-200.000	-0.012	0.121
-561.529	45.245	-0.278	-0.257
-560.515	800.000	0.035	-0.118
-559.500	154.652	0.067	-0.093
-558.485	576.245	-0.043	-0.107
-557.471	-24.306	0.248	-0.148
-556.456	-147.351	0.061	-0.005
-555.442	800.000	0.147	-0.418
-554.427	-29.997	0.156	-0.089
-553.412	-119.476	-0.184	-0.032
-552.398	143.076	-0.275	0.367
-551.383	800.000	0.053	0.188
-550.369	-200.000	-0.019	-0.273
-549.354	-200.000	-0.008	-0.226
-548.339	-31.929	-0.187	-0.105
-547.325	-79.695	0.196	-0.066
-546.310	61.216	0.327	0.325
-545.296	153.102	0.088	-0.121
-544.281	97.265	0.225	-0.259
-543.266	45.034	0.160	0.148
-542.252	602.938	-0.119	0.296
-541.237	-49.434	0.091	-0.043
-540.223	-200.000	-0.010	0.143
-539.208	178.297	-0.109	-0.159
-538.193	-119.461	-0.268	-0.047
-537.179	-200.000	-0.024	-0.177
-536.164	-40.890	0.162	-0.084
-535.150	800.000	0.009	0.036
-534.135	516.569	0.101	0.236
-533.121	-200.000	-0.014	-0.345
-532.106	-111.002	-0.334	0.069
-531.091	-57.208	0.069	-0.031
-530.077	-61.552	0.021	-0.009
-529.062	-131.066	-0.151	-0.020
-528.048	135.105	0.117	-0.152
-527.033	30.650	0.336	-0.288
-526.018	-27.829	0.102	0.059
-525.004	58.744	0.077	-0.076
-523.989	-200.000	-0.006	-0.271
-522.975	-133.943	-0.221	-0.027
-521.960	181.792	0.190	-0.280
-520.945	-200.000	-0.042	-0.228
-519.931	355.270	0.076	0.152
-518.916	-200.000	-0.003	0.170
-517.902	159.107	-0.117	-0.163
-516.887	-117.843	0.141	0.025
-515.872	40.912	-0.088	0.080
-514.858	305.773	0.130	0.242
-513.843	-63.526	-0.215	-0.088
-512.829	-200.000	-0.012	0.241
-511.814	-61.031	-0.230	-0.097
-510.799	-200.000	-0.154	-0.001
-509.785	138.040	0.111	-0.145
-508.770	-156.504	-0.364	0.023
-507.756	8.943	-0.037	-0.028
-506.741	800.000	-0.013	0.054
-505.726	-25.520	0.222	0.131
-504.712	-18.261	0.242	0.152
-503.697	-104.528	-0.202	-0.047
-502.683	-38.434	-0.178	-0.094
-501.668	235.043	0.128	0.212
-500.653	174.141	-0.257	-0.372
-499.639	-173.734	0.243	0.007
-498.624	-151.537	-0.106	-0.008
-497.610	228.292	-0.174	0.284
-496.595	610.064	-0.017	0.042
-495.581	586.322	-0.145	-0.357
-494.566	15.051	-0.028	-0.022
-493.551	176.383	0.361	0.525
-492.537	81.242	-0.038	-0.041
-491.522	197.452	-0.125	0.190
-490.508	-144.305	0.232	0.022
-489.493	-55.217	-0.305	-0.137
-488.478	123.949	-0.234	-0.294
-487.464	98.820	-0.061	0.071
-486.449	-200.000	0.001	0.075
-485.435	154.671	0.107	-0.147
-484.420	351.157	-0.130	0.258
-483.405	-200.000	0.056	0.419
-482.391	-144.078	0.272	-0.026
-481.376	-165.886	-0.125	-0.005
-480.362	-200.000	0.002	0.218
-479.347	-166.178	0.266	0.011
-478.332	423.408	-0.078	0.167
-477.318	-74.058	0.105	0.038
-476.303	155.181	0.021	-0.029
-475.289	128.176	0.082	-0.104
-474.274	325.071	-0.095	-0.181
-473.259	-60.883	-0.165	0.070
-472.245	-14.595	-0.018	0.011
-471.230	93.243	0.090	0.101
-470.216	-200.000	0.001	0.229
-469.201	-142.979	-0.159	0.015
-468.186	-26.118	-0.225	0.132
-467.172	-21.735	0.097	0.059
-466.157	800.000	0.103	0.320
-465.143	430.377	0.122	0.264
-464.128	-68.407	0.029	0.011
-463.113	2.190	-0.077	-0.055
-462.099	-72.280	0.255	-0.094
-461.084	306.064	0.052	-0.097
-460.070	29.740	0.095	0.081
-459.055	96.230	-0.225	-0.257
-458.040	-32.578	-0.273	-0.152
-457.026	175.613	0.219	-0.318
-456.011	604.833	-0.147	0.366
-454.997	81.932	0.064	-0.069
-453.982	-55.579	-0.217	-0.097
-452.968	-200.000	-0.074	0.393
-451.953	153.762	0.182	0.250
-450.938	398.282	-0.047	0.099
-449.924	-30.775	0.188	0.106
-448.909	-119.082	-0.225	0.039
-447.895	800.000	-0.090	-0.280
-446.880	125.362	-0.150	0.188
-445.865	-200.000	-0.022	-0.121
-444.851	-200.000	0.007	0.070
-443.836	-93.725	-0.207	0.057
-442.822	800.000	0.028	0.093
-441.807	-109.269	-0.325	0.069
-440.792	91.422	0.141	0.159
-439.778	77.202	-0.117	0.124
-438.763	-159.103	-0.198	-0.011
-437.749	-19.009	0.200	-0.124
-436.734	-5.013	0.011	0.008
-435.719	-200.000	0.168	0.000
-434.705	-58.254	0.286	-0.124
-433.690	-168.636	0.052	-0.002
-432.676	43.288	0.280	0.255
-431.661	54.634	-0.093	0.090
-430.646	21.639	-0.088	-0.071
-429.632	-63.717	-0.289	0.118
-428.617	56.888	0.143	-0.139
-427.603	59.214	0.208	0.205
-426.588	800.000	-0.048	0.138
-425.573	67.573	0.237	0.241
-424.559	379.340	-0.054	-0.111
-423.544	800.000	-0.023	-0.086
-422.530	-150.284	0.195	-0.015
-421.515	-74.011	-0.318	-0.115
-420.500	-200.000	0.002	-0.073
-419.486	-181.426	-0.077	-0.002
-418.471	185.340	-0.118	0.175
-417.457	800.000	-0.080	0.224
-416.442	261.946	-0.065	0.113
-415.428	-200.000	0.025	0.125
-414.413	51.995	-0.195	-0.186
-413.398	-153.858	-0.367	0.025
-412.384	312.356	-0.120	-0.224
-411.369	49.922	-0.264	0.248
-410.355	-185.320	0.281	-0.004
-409.340	-35.838	0.093	0.050
-408.325	-200.000	-0.033	-0.206
-407.311	-200.000	0.009	0.136
-406.296	800.000	-0.002	-0.006
-405.282	-150.074	-0.268	-0.021
-404.267	-110.513	0.315	-0.065
-403.252	106.831	0.150	0.177
-402.238	15.638	0.255	-0.200
-401.223	-1.618	0.034	-0.024
-400.209	-200.000	0.006	0.086
-399.194	-50.697	0.428	-0.201
-398.179	452.168	0.071	0.157
-397.165	134.978	-0.142	0.183
-396.150	800.000	0.048	-0.192
-395.136	18.492	-0.052	0.042
-394.121	32.577	-0.164	0.141
-393.106	-145.051	0.200	-0.018
-392.092	-15.224	-0.464	0.296
-391.077	-18.129	0.168	-0.105
-390.063	800.000	0.156	-0.552
-389.048	-6.473	0.130	-0.088
-388.033	92.574	0.180	-0.202
-387.019	58.684	0.237	-0.232
-386.004	15.997	-0.099	0.077
-384.990	760.462	0.046	-0.125
-383.975	-116.850	-0.238	0.043
-382.960	151.730	0.265	0.360
-381.946	-58.332	0.223	0.097
-380.931	15.469	-0.080	-0.062
-379.917	-200.000	0.036	-0.346
-378.902	87.528	-0.046	-0.050
-377.888	21.315	-0.036	0.029
-376.873	110.649	0.114	-0.136
-375.858	285.218	-0.115	0.206
-374.844	-33.464	0.286	0.157
-373.829	556.274	-0.126	0.301
-372.815	-35.701	0.084	0.046
-371.800	-113.502	0.091	0.018
-370.785	240.242	0.171	0.284
-369.771	-200.000	-0.005	0.137
-368.756	-101.282	0.356	0.087
-367.742	-160.459	-0.298	-0.016
-366.727	30.914	-0.063	0.054
-365.712	-95.545	0.342	-0.091
-364.698	70.901	-0.212	0.218
-363.683	-73.656	0.250	0.091
-362.669	-200.000	0.023	-0.299
-361.654	800.000	0.123	0.400
-360.639	85.740	-0.149	-0.163
-359.625	7.348	0.234	-0.174
-358.610	-23.916	0.174	-0.104
-357.596	46.316	-0.185	-0.171
-356.581	-127.468	0.226	-0.033
-355.566	-167.582	-0.071	0.003
-354.552	-200.000	0.023	0.113
-353.537	183.092	0.162	0.238
-352.523	-200.000	0.012	-0.254
-351.508	-200.000	0.010	0.112
-350.493	-192.161	-0.184	0.002
-349.479	616.545	-0.068	-0.170
-348.464	-200.000	-0.031	-0.155
-347.450	-128.456	-0.277	-0.039
-346.435	184.872	-0.072	-0.107
-345.420	800.000	-0.066	0.183
-344.406	800.000	0.057	-0.166
-343.391	-110.066	0.134	-0.028
-342.377	-200.000	0.012	0.080
-341.362	-200.000	-0.017	0.146
-340.348	-102.437	0.423	0.101
-339.333	589.392	0.068	0.167
-338.318	800.000	-0.054	0.202
-337.304	45.336	-0.257	0.236
-336.289	-200.000	-0.019	0.137
-335.275	-45.080	0.296	-0.147
-334.260	-200.000	-0.017	-0.177
-333.245	-182.806	0.315	-0.006
-332.231	-121.375	0.278	-0.046
-331.216	-200.000	0.010	-0.339
-330.202	-130.948	-0.058	-0.008
-329.187	462.437	0.122	-0.271
-328.172	800.000	0.120	-0.341
-327.158	-108.591	-0.137	0.029
-326.143	-200.000	0.015	0.335
-325.129	-171.278	-0.183	-0.006
-324.114	-22.303	-0.070	0.042
-323.099	-200.000	-0.021	-0.116
-322.085	384.864	-0.086	-0.176
-321.070	-24.412	-0.317	0.188
-320.056	-200.000	-0.017	-0.083
-319.041	52.061	0.275	-0.260
-318.026	296.306	0.120	-0.219
-317.012	177.099	-0.182	-0.263
-315.997	269.910	-0.097	-0.169
-314.983	-98.529	0.357	0.091
-313.968	238.036	-0.162	0.268
-312.953	467.550	0.084	-0.186
-311.939	565.667	0.052	0.125
-310.924	-94.175	-0.187	0.051
-309.910	800.000	0.063	0.221
-308.895	-49.861	0.233	0.110
-307.880	130.400	-0.040	-0.050
-306.866	372.075	0.053	0.107
-305.851	800.000	-0.078	0.229
-304.837	800.000	-0.119	-0.435
-303.822	-103.697	0.467	-0.109
-302.807	28.443	-0.129	-0.109
-301.793	144.722	0.095	-0.126
-300.778	-200.000	0.016	-0.130
-299.764	177.073	-0.151	0.218
-298.749	-108.661	0.312	-0.066
-297.735	102.308	-0.152	-0.176
-296.720	116.469	-0.081	-0.099
-295.705	1.362	0.030	-0.022
-294.691	800.000	0.027	-0.096
-293.676	-198.630	0.288	0.002
-292.662	800.000	-0.123	0.414
-291.647	152.803	-0.124	-0.168
-290.632	-200.000	-0.021	0.445
-289.618	213.007	0.030	0.047
-288.603	150.102	-0.122	0.164
-287.589	51.414	-0.298	-0.281
-286.574	-37.630	-0.172	0.091
-285.559	-183.856	-0.405	0.007
-284.545	127.783	0.159	-0.201
-283.530	-161.616	-0.036	-0.002
-282.516	736.059	-0.091	-0.242
-281.501	69.064	0.228	0.233
-280.486	-109.530	0.222	-0.046
-279.472	-200.000	0.002	0.040
-278.457	223.218	0.055	-0.088
-277.443	800.000	-0.077	0.297
-276.428	736.107	-0.036	0.095
-275.413	-200.000	0.040	0.307
-274.399	14.114	-0.168	0.130
-273.384	433.193	0.247	0.531
-272.370	187.804	-0.142	0.211
-271.355	-200.000	0.008	0.157
-270.340	450.042	0.070	-0.154
-269.326	-154.790	0.255	0.017
-268.311	-13.805	0.182	0.116
-267.297	-200.000	-0.004	0.163
-266.282	342.980	0.137	0.267
-265.267	-65.196	-0.170	-0.068
-264.253	-200.000	-0.034	-0.292
-263.238	-14.387	0.343	-0.219
-262.224	-1.108	0.261	-0.183
-261.209	-104.359	0.070	0.016
-260.195	-200.000	0.010	-0.072
-259.180	-79.182	0.490	-0.165
-258.165	-200.000	-0.040	-0.288
-257.151	-47.687	-0.197	0.095
-256.136	-48.480	0.274	-0.131
-255.122	800.000	-0.076	-0.246
-254.107	800.000	-0.037	-0.110
-253.092	-60.425	-0.190	-0.080
-252.078	210.758	0.045	0.070
-251.063	248.771	0.053	0.089
-250.049	-132.510	0.182	-0.023
-249.034	638.713	-0.064	0.161
-248.019	510.300	0.220	0.506
-247.005	-152.088	0.319	0.023
-245.990	797.262	-0.076	-0.208
-244.976	14.053	-0.142	0.109
-243.961	135.151	-0.218	0.281
-242.946	233.993	0.210	0.343
-241.932	30.688	-0.060	0.051
-240.917	-110.889	-0.300	-0.061
-239.903	112.858	-0.042	-0.051
-238.888	-200.000	0.004	0.186
-237.873	-155.391	-0.132	-0.008
-236.859	-71.988	-0.110	0.041
-235.844	122.731	-0.182	0.226
-234.830	-33.701	0.083	-0.045
-233.815	0.507	0.172	-0.122
-232.800	80.386	0.277	-0.296
-231.786	165.021	0.162	0.227
-230.771	394.602	0.189	0.389
-229.757	15.537	0.316	-0.246
-228.742	195.322	-0.153	-0.230
-227.727	-68.538	-0.335	-0.129
-226.713	-108.123	-0.193	-0.041
-225.698	20.227	-0.113	-0.090
-224.684	-149.192	0.232	0.018
-223.669	-60.144	-0.184	-0.078
-222.655	-28.191	-0.242	0.138
-221.640	115.078	0.106	-0.128
-220.625	111.734	0.257	0.307
-219.611	114.043	0.135	0.163
-218.596	-200.000	-0.018	0.116
-217.582	72.384	0.166	-0.171
-216.567	-83.975	-0.558	0.176
-215.552	800.000	0.090	0.247
-214.538	-29.979	-0.352	0.198
-213.523	-200.000	-0.013	-0.250
-212.509	-29.643	-0.300	-0.169
-211.494	800.000	-0.045	-0.161
-210.479	-97.641	-0.171	-0.044
-209.465	25.452	-0.093	-0.076
-208.450	31.355	0.201	-0.170
-207.436	800.000	0.038	0.145
-206.421	-200.000	0.006	-0.061
-205.406	90.144	-0.146	-0.161
-204.392	-200.000	-0.048	0.311
-203.377	-65.733	0.438	-0.173
-202.363	800.000	0.087	-0.336
-201.348	73.301	0.213	0.221
-200.333	800.000	-0.051	-0.191
-199.319	479.589	-0.149	0.334
-198.304	-200.000	0.033	0.281
-197.290	-80.864	0.202	0.066
-196.275	800.000	0.100	-0.323
-195.260	-200.000	0.003	0.188
-194.246	268.685	-0.137	0.237
-193.231	4.208	-0.067	-0.048
-192.217	521.400	0.006	-0.014
-191.202	-136.377	0.125	-0.014
-190.187	184.946	0.116	0.170
-189.173	-38.653	0.053	0.028
-188.158	522.913	0.129	0.300
-187.144	-99.268	-0.241	0.060
-186.129	166.171	0.302	0.422
-185.114	233.041	-0.084	0.136
-184.100	800.000	0.067	-0.270
-183.085	-91.975	0.179	0.050
-182.071	148.229	-0.126	-0.169
-181.056	96.800	-0.076	0.086
-180.042	-2.924	0.312	0.215
-179.027	-73.685	0.141	0.051
-178.012	183.060	-0.102	0.148
-176.998	-149.268	-0.096	0.008
-175.983	-22.879	0.180	-0.108
-174.969	30.428	0.133	0.113
-173.954	-140.729	-0.112	0.011
-172.939	347.835	0.112	0.217
-171.925	505.772	0.197	-0.451
-170.910	-4.335	0.127	0.086
-169.896	-6.829	-0.272	0.183
-168.881	-3.713	-0.198	-0.136
-167.866	17.973	0.057	0.045
-166.852	7.989	0.094	-0.070
-165.837	-200.000	-0.053	-0.371
-164.823	-25.080	-0.075	-0.044
-163.808	70.166	-0.057	-0.058
-162.793	23.581	-0.085	-0.069
-161.779	-148.406	-0.297	-0.024
-160.764	158.205	-0.115	0.158
-159.750	271.093	0.079	-0.138
-158.735	-22.651	0.261	-0.156
-157.720	-134.723	-0.168	0.020
-156.706	-200.000	-0.092	-0.491
-155.691	-110.343	0.373	0.077
-154.677	617.679	-0.065	-0.162
-153.662	-200.000	-0.009	-0.126
-152.647	630.330	-0.109	0.273
-151.633	285.201	-0.245	0.436
-150.618	-200.000	-0.199	0.000
-149.604	-200.000	-0.017	0.433
-148.589	-7.115	0.254	0.170
-147.574	-135.797	0.169	0.020
-146.560	-109.189	0.326	0.068
-145.545	-173.457	0.185	-0.006
-144.531	-20.003	0.215	-0.131
-143.516	-200.000	0.048	-0.231
-142.502	391.687	-0.121	0.248
-141.487	-200.000	-0.002	0.208
-140.472	-200.000	-0.039	-0.224
-139.458	14.392	-0.246	-0.190
-138.443	354.987	0.051	0.100
-137.429	13.975	0.152	0.117
-136.414	26.591	-0.164	0.136
-135.399	39.633	-0.077	0.068
-134.385	133.066	-0.062	-0.079
-133.370	-58.978	0.039	0.017
-132.356	-113.053	0.340	0.066
-131.341	391.911	-0.146	0.300
-130.326	-61.714	0.330	0.136
-129.312	675.539	0.102	-0.260
-128.297	-68.351	0.322	-0.123
-127.283	-200.000	0.037	0.165
-126.268	-136.482	0.254	0.029
-125.253	-200.000	-0.001	0.158
-124.239	166.671	-0.102	0.143
-123.224	659.942	-0.065	-0.164
-122.210	92.072	0.277	-0.308
-121.195	128.883	-0.219	0.276
-120.180	23.619	0.300	-0.244
-119.166	800.000	0.146	0.403
-118.151	-65.161	0.155	-0.062
-117.137	205.939	-0.100	-0.153
-116.122	800.000	0.052	0.200
-115.107	7.832	-0.353	0.261
-114.093	-28.616	0.195	0.111
-113.078	492.326	0.137	-0.309
-112.064	38.568	0.219	-0.193
-111.049	-200.000	-0.045	0.322
-110.034	33.961	0.225	-0.193
-109.020	207.970	0.103	-0.159
-108.005	-5.647	-0.258	0.175
-106.991	8.082	-0.221	0.164
-105.976	800.000	0.032	-0.116
-104.962	-112.041	0.218	-0.043
-103.947	-139.789	0.153	0.016
-102.932	-200.000	0.011	-0.071
-101.918	-200.000	0.005	0.196
-100.903	91.813	-0.088	-0.098
-99.889	736.472	-0.098	0.260
-98.874	105.494	0.163	0.190
-97.859	156.503	0.100	0.136
-96.845	-23.733	0.117	-0.069
-95.830	5.892	0.144	0.105
-94.816	438.456	-0.065	0.141
-93.801	277.767	0.213	-0.373
-92.786	171.932	0.221	-0.313
-91.772	289.476	-0.278	-0.497
-90.757	179.486	0.123	0.177
-89.743	-154.139	-0.216	-0.014
-88.728	-200.000	0.042	0.338
-87.713	248.001	-0.030	-0.049
-86.699	193.832	0.079	0.117
-85.684	750.638	0.019	0.052
-84.670	-200.000	0.001	0.038
-83.655	800.000	0.131	-0.361
-82.640	-200.000	-0.049	-0.387
-81.626	6.221	-0.157	0.114
-80.611	-200.000	0.027	0.318
-79.597	-200.000	0.020	0.192
-78.582	21.789	0.080	-0.064
-77.567	-147.567	0.415	0.034
-76.553	-68.581	0.168	0.064
-75.538	114.486	0.166	0.198
-74.524	-111.825	0.248	0.049
-73.509	140.265	-0.124	0.161
-72.494	-29.484	-0.283	-0.159
-71.480	-32.582	0.469	0.257
-70.465	-88.077	-0.101	0.030
-69.451	191.362	-0.082	0.121
-68.436	-125.677	0.160	-0.024
-67.422	141.579	0.008	0.011
-66.407	-127.999	-0.455	-0.064
-65.392	-105.496	-0.009	0.002
-64.378	-123.955	-0.306	0.047
-63.363	-200.000	-0.000	0.338
-62.349	-200.000	0.007	0.038
-61.334	80.554	-0.824	-0.873
-60.319	10.199	0.447	0.334
-59.305	800.000	-0.352	-1.211
-58.290	293.208	0.733	1.315
-57.276	679.588	0.706	1.807
-56.261	-200.000	98.065	603.707
-55.246	614.708	1391.345	3428.406
-54.232	195.383	2571.568	3842.431
-53.217	118.295	2159.961	2619.729
-52.203	42.345	1699.764	1519.318
-51.188	34.754	1511.907	1299.952
-50.173	32.380	1485.096	1260.963
-49.159	52.144	1535.585	1438.996
-48.144	53.706	1553.178	1466.070
-47.130	34.901	1512.060	1300.877
-46.115	31.793	1497.370	1267.212
-45.100	31.626	1494.026	1263.205
-44.086	31.479	1492.100	1260.535
-43.071	31.476	1489.793	1258.520
-42.057	31.539	1488.409	1257.723
-41.042	31.555	1486.896	1256.502
-40.027	31.435	1485.634	1254.581
-39.013	31.505	1483.908	1253.540
-37.998	31.462	1482.812	1252.276
-36.984	31.541	1481.375	1251.540
-35.969	31.493	1480.082	1250.082
-34.954	31.435	1478.751	1248.521
-33.940	31.483	1477.761	1247.956
-32.925	31.527	1476.221	1246.898
-31.911	31.580	1474.432	1245.689
-30.896	31.531	1473.724	1244.717
-29.881	31.509	1472.534	1243.516
-28.867	31.569	1470.889	1242.475
-27.852	31.511	1469.613	1240.960
-26.838	31.549	1467.977	1239.781
-25.823	31.537	1466.957	1238.793
-24.809	31.576	1464.674	1237.075
-23.794	31.549	1463.323	1235.708
-22.779	31.549	1462.111	1234.633
-21.765	31.515	1461.388	1233.747
-20.750	31.580	1459.853	1232.835
-19.736	31.520	1459.310	1231.932
-18.721	31.558	1458.008	1231.029
-17.706	31.491	1456.877	1229.588
-16.692	31.563	1455.707	1229.023
-15.677	31.438	1454.373	1227.031
-14.663	31.531	1453.358	1226.736
-13.648	31.359	1452.657	1224.965
-12.633	31.507	1451.632	1225.024
-11.619	31.522	1450.794	1224.367
-10.604	31.499	1450.086	1223.569
-9.590	31.472	1449.281	1222.662
-8.575	31.484	1448.643	1222.153
-7.560	31.418	1447.560	1220.761
-6.546	31.479	1446.698	1220.383
-5.531	31.402	1445.721	1219.010
-4.517	31.539	1444.456	1218.789
-3.502	31.324	1444.085	1217.026
-2.487	31.579	1441.963	1216.850
-1.473	31.416	1441.637	1215.464
-0.458	31.496	1440.279	1214.789
0.556	30.022	1431.302	1203.292
1.571	27.029	1405.537	1162.399
2.586	23.531	1346.496	1091.981
3.600	21.909	1265.503	1016.817
4.615	20.436	1220.919	972.665
5.629	17.749	1165.050	913.697
6.644	10.731	1083.057	814.246
7.659	5.417	1044.720	759.601
8.673	4.723	1039.688	752.519
9.688	4.584	1036.360	749.375
10.702	4.625	1034.739	748.331
11.717	4.368	1033.595	746.206
12.731	6.394	1034.614	756.613
13.746	13.064	1043.832	795.526
14.761	18.095	1049.428	824.032
15.775	18.267	1049.158	824.575
16.790	17.318	1047.143	818.354
17.804	16.308	1045.029	811.778
18.819	15.415	1042.803	805.691
19.834	14.972	1041.296	802.332
20.848	14.702	1040.868	800.634
21.863	14.509	1040.107	799.055
22.877	14.300	1038.738	796.931
23.892	14.074	1038.170	795.346
24.907	13.997	1037.792	794.616
25.921	13.987	1037.289	794.110
26.936	13.932	1036.213	792.956
27.950	14.053	1035.259	792.731
28.965	14.158	1034.036	792.225
29.980	14.097	1033.028	791.092
30.994	14.138	1032.076	790.491
32.009	14.345	1030.694	790.344
33.023	14.341	1030.299	789.952
34.038	14.330	1029.231	789.013
35.053	14.285	1028.363	788.062
36.067	14.161	1027.621	786.839
37.082	14.154	1026.662	786.001
38.096	14.337	1025.416	785.844
39.111	14.146	1025.293	784.775
40.126	14.251	1024.318	784.455
41.140	14.161	1023.020	782.970
42.155	14.065	1021.980	781.651
43.169	13.905	1021.315	780.322
44.184	14.011	1020.124	779.840
45.199	13.906	1018.830	778.292
46.213	13.972	1018.029	777.920
47.228	13.923	1017.196	776.986
48.242	14.092	1016.328	777.042
49.257	14.055	1015.003	775.787
50.271	14.105	1014.235	775.363
51.286	13.985	1013.833	774.432
52.301	14.201	1012.813	774.586
53.315	14.103	1012.144	773.552
54.330	14.024	1011.288	772.461
55.344	13.962	1010.030	771.146
56.359	13.976	1008.774	770.184
57.374	14.000	1008.425	769.960
58.388	14.012	1007.635	769.343
59.403	13.956	1007.039	768.560
60.417	13.908	1006.036	767.505
61.432	13.912	1005.358	766.937
62.447	13.932	1004.325	766.176
63.461	13.888	1003.790	765.496
64.476	13.854	1002.674	764.423
65.490	13.841	1001.516	763.410
66.505	13.832	1001.227	763.084
67.520	13.766	1000.700	762.312
68.534	13.930	999.375	761.987
69.549	13.864	998.689	761.090
70.563	13.861	997.794	760.328
71.578	13.847	997.324	759.841
72.593	13.783	996.360	758.743
73.607	13.836	995.140	757.994
74.622	13.800	994.338	757.149
75.636	13.713	993.582	756.109
76.651	13.651	993.052	755.356
77.666	13.815	992.148	755.349
78.680	13.858	991.181	754.743
79.695	13.791	991.019	754.249
80.709	13.872	990.496	754.149
81.724	13.916	989.568	753.575
82.739	13.969	988.704	753.090
83.753	13.914	988.212	752.403
84.768	13.994	987.667	752.284
85.782	14.239	986.784	752.650
86.797	14.249	986.165	752.157
87.812	14.181	985.370	751.178
88.826	14.135	984.633	750.342
89.841	14.147	983.621	749.557
90.855	14.261	982.756	749.346
91.870	14.186	982.141	748.473
92.884	14.289	981.504	748.387
93.899	14.139	981.073	747.315
94.914	14.176	980.320	746.845
95.928	14.279	979.777	746.824
96.943	14.322	978.842	746.240
97.957	14.203	977.978	744.982
98.972	14.226	976.947	744.235
99.987	14.149	976.511	743.493
101.001	14.208	975.642	743.029
102.016	14.208	974.845	742.356
103.030	14.266	973.350	741.410
104.045	14.256	972.754	740.845
105.060	14.324	971.858	740.399
106.074	14.010	971.400	738.589
107.089	14.114	970.243	738.106
108.103	13.929	969.251	736.467
109.118	13.881	968.415	735.552
110.133	13.941	967.329	734.927
111.147	14.003	966.604	734.585
112.162	13.889	965.704	733.333
113.176	13.891	964.871	732.645
114.191	13.893	964.444	732.266
115.206	14.143	963.126	732.301
116.220	14.066	962.356	731.313
117.235	14.038	961.686	730.616
118.249	13.912	961.007	729.480
119.264	13.918	960.232	728.854
120.279	13.886	959.297	727.939
121.293	13.942	958.676	727.647
122.308	13.989	957.444	726.854
123.322	13.906	956.977	726.076
124.337	13.909	955.892	725.200
125.352	13.803	955.309	724.231
126.366	13.880	953.630	723.227
127.381	13.969	952.155	722.434
128.395	13.919	951.966	722.008
129.410	13.785	951.427	720.955
130.424	13.835	950.560	720.451
131.439	13.941	949.490	720.033
132.454	13.978	948.453	719.347
133.468	14.006	947.722	718.847
134.483	14.039	947.374	718.664
135.497	14.069	946.544	718.101
136.512	14.086	945.344	717.198
137.527	14.014	945.072	716.618
138.541	14.063	944.169	716.080
139.556	13.973	943.749	715.314
140.570	14.015	942.906	714.791
141.585	14.142	941.714	714.369
142.600	14.240	940.962	714.154
143.614	14.310	940.290	713.884
144.629	14.297	939.896	713.467
145.643	14.300	939.287	712.954
146.658	14.239	938.279	711.862
147.673	14.375	936.807	711.264
148.687	14.125	936.220	709.687
149.702	14.144	935.226	708.955
150.716	14.039	934.941	708.226
151.731	13.942	934.060	707.086
152.746	14.080	933.096	706.878
153.760	14.129	932.561	706.621
154.775	14.168	931.755	706.112
155.789	14.162	930.906	705.381
156.804	14.160	930.434	704.951
157.819	14.309	929.532	704.837
158.833	14.164	928.876	703.665
159.848	14.334	928.145	703.767
160.862	14.374	927.555	703.426
161.877	14.369	926.533	702.568
162.892	14.333	925.906	701.879
163.906	14.154	925.030	700.399
164.921	14.275	923.773	699.892
165.935	14.231	922.833	698.933
166.950	14.315	922.152	698.709
167.964	14.341	921.205	698.040
168.979	14.276	920.279	697.004
169.994	14.257	919.416	696.208
171.008	14.155	918.759	695.225
172.023	14.264	918.213	695.203
173.037	14.368	917.281	694.869
174.052	14.323	916.687	694.171
175.067	14.454	915.852	694.025
176.081	14.327	914.866	692.685
177.096	14.212	914.087	691.556
178.110	14.157	913.693	690.971
179.125	14.278	912.671	690.636
180.140	14.226	911.910	689.787
181.154	14.275	911.389	689.531
182.169	14.338	911.025	689.455
183.183	14.277	910.316	688.606
184.198	14.608	909.452	689.262
185.213	14.563	908.529	688.313
186.227	14.513	908.090	687.715
187.242	14.470	907.660	687.152
188.256	14.511	907.273	686.968
189.271	14.681	906.188	686.781
190.286	14.573	905.716	685.920
191.300	14.649	904.676	685.383
192.315	14.257	903.872	683.107
193.329	14.341	902.987	682.719
194.344	14.257	902.716	682.112
195.359	14.229	902.535	681.801
196.373	14.494	901.560	682.085
197.388	14.547	901.263	682.021
198.402	14.562	901.149	681.932
199.417	14.678	900.754	682.048
200.432	14.814	900.014	681.981
201.446	14.859	899.512	681.726
202.461	14.995	898.699	681.603
203.475	14.832	898.542	680.760
204.490	14.913	898.148	680.731
205.504	14.771	896.812	679.081
206.519	14.712	895.800	678.013
207.534	14.754	894.970	677.495
208.548	14.730	894.547	677.021
209.563	14.836	893.748	676.786
210.577	14.651	893.103	675.488
211.592	14.707	892.876	675.481
212.607	14.841	892.413	675.616
213.621	14.867	891.628	675.063
214.636	14.897	890.681	674.408
215.650	14.916	890.480	674.275
216.665	14.850	889.845	673.466
217.680	14.941	889.507	673.520
218.694	15.025	888.687	673.177
219.709	15.006	888.611	672.982
220.723	15.105	887.467	672.453
221.738	15.016	886.594	671.376
222.753	15.139	886.019	671.376
223.767	14.952	885.633	670.275
224.782	15.124	884.608	670.124
225.796	15.135	883.889	669.566
226.811	15.194	883.790	669.668
227.826	15.096	882.671	668.368
228.840	15.077	881.866	667.627
229.855	14.993	881.487	666.945
230.869	15.093	880.674	666.670
231.884	15.028	880.279	666.052
232.899	14.919	879.595	665.040
233.913	15.038	878.478	664.611
234.928	14.969	878.129	664.016
235.942	14.822	877.405	662.826
236.957	15.001	877.041	663.199
237.972	14.843	876.380	662.017
238.986	14.963	875.695	661.917
240.001	15.057	874.796	661.548
241.015	15.073	874.104	661.029
242.030	15.138	873.353	660.661
243.045	15.140	873.101	660.418
244.059	15.223	872.429	660.177
245.074	15.218	871.572	659.453
246.088	15.098	871.375	658.772
247.103	15.169	870.463	658.305
248.117	15.269	870.269	658.495
249.132	15.296	869.520	657.972
250.147	15.374	869.478	658.188
251.161	15.646	868.175	658.210
252.176	15.611	868.172	658.011
253.190	15.671	867.117	657.388
254.205	15.735	866.594	657.183
255.220	15.665	866.084	656.466
256.234	15.653	865.281	655.752
257.249	15.762	864.651	655.641
258.263	15.650	864.788	655.252
259.278	15.792	863.751	654.963
260.293	15.722	863.059	654.107
261.307	15.864	861.993	653.794
262.322	15.851	861.947	653.648
263.336	15.704	861.585	652.745
264.351	15.772	861.225	652.680
265.366	15.823	860.543	652.302
266.380	15.807	859.802	651.619
267.395	15.871	859.210	651.361
268.409	15.847	858.370	650.575
269.424	15.730	857.571	649.460
270.439	15.820	856.802	649.169
271.453	15.847	856.125	648.703
272.468	15.867	855.256	648.064
273.482	15.914	854.685	647.753
274.497	15.960	854.099	647.429
275.512	15.804	853.500	646.320
276.526	15.874	852.852	646.038
277.541	15.884	852.116	645.460
278.555	15.847	851.543	644.829
279.570	16.035	851.251	645.273
280.585	16.109	850.518	644.941
281.599	16.166	849.978	644.693
282.614	15.788	850.203	643.361
283.628	15.830	849.140	642.659
284.643	15.980	848.453	642.657
285.657	16.042	847.815	642.351
286.672	16.193	847.093	642.321
287.687	16.137	846.860	641.876
288.701	15.928	846.763	640.949
289.716	15.962	846.085	640.510
290.730	15.994	845.368	640.031
291.745	16.028	844.678	639.583
292.760	16.174	843.586	639.253
293.774	16.224	842.972	638.921
294.789	16.313	842.668	638.971
295.803	16.166	842.095	637.923
296.818	16.013	841.554	636.878
297.833	16.072	840.880	636.534
298.847	16.180	839.688	635.983
299.862	16.167	839.348	635.619
300.876	16.277	838.485	635.325
301.891	16.284	838.261	635.123
302.906	16.283	837.655	634.607
303.920	16.328	837.054	634.263
304.935	16.425	836.526	634.171
305.949	16.536	835.578	633.813
306.964	16.388	835.475	633.125
307.979	16.400	834.622	632.466
308.993	16.415	834.300	632.221
310.008	16.434	833.683	631.768
311.022	16.526	833.008	631.544
312.037	16.461	832.677	630.995
313.052	16.322	832.425	630.229
314.066	16.363	831.557	629.670
315.081	16.338	830.870	629.000
316.095	16.316	830.227	628.376
317.110	16.319	829.426	627.725
318.125	16.385	829.349	627.859
319.139	16.288	828.711	626.958
320.154	16.277	828.470	626.680
321.168	16.417	827.537	626.437
322.183	16.527	827.102	626.460
323.197	16.555	826.460	626.024
324.212	16.362	826.203	625.057
325.227	16.471	825.800	625.101
326.241	16.423	825.100	624.340
327.256	16.427	824.719	624.010
328.270	16.569	824.054	623.975
329.285	16.343	823.480	622.654
330.300	16.474	822.863	622.615
331.314	16.373	822.404	621.841
332.329	16.445	821.768	621.567
333.343	16.458	821.008	620.986
334.358	16.671	820.264	621.152
335.373	16.597	820.200	620.777
336.387	16.718	819.606	620.715
337.402	16.639	818.850	619.797
338.416	16.787	818.347	619.903
339.431	16.777	817.546	619.204
340.446	16.907	817.401	619.516
341.460	16.954	816.434	618.900
342.475	16.826	816.475	618.409
343.489	16.971	815.931	618.471
344.504	16.949	815.357	617.901
345.519	16.995	814.948	617.703
346.533	17.196	813.724	617.453
347.548	17.206	813.283	617.101
348.562	16.896	813.259	615.899
349.577	17.028	812.290	615.591
350.592	16.952	811.895	614.962
351.606	16.880	811.462	614.317
352.621	16.693	811.178	613.371
353.635	16.900	810.672	613.683
354.650	16.961	810.239	613.523
355.665	16.825	809.979	612.778
356.679	16.933	809.270	612.580
357.694	16.947	809.165	612.496
358.708	17.086	808.122	612.153
359.723	16.906	807.777	611.188
360.738	17.088	806.827	611.070
361.752	16.991	806.601	610.499
362.767	17.056	806.595	610.674
363.781	17.078	806.054	610.290
364.796	17.263	805.615	610.568
365.810	17.288	805.244	610.322
366.825	17.278	804.697	609.816
367.840	17.462	804.339	610.152
368.854	17.432	803.880	609.640
369.869	17.247	803.696	608.786
370.883	17.359	802.897	608.526
371.898	17.320	802.402	607.958
372.913	17.364	801.865	607.655
373.927	17.275	801.081	606.689
374.942	17.401	800.874	606.927
375.956	17.247	799.977	605.648
376.971	17.370	799.228	605.464
377.986	17.500	799.124	605.793
379.000	17.534	798.362	605.284
380.015	17.534	798.042	604.988
381.029	17.447	797.721	604.380
382.044	17.503	796.825	603.846
383.059	17.583	796.163	603.577
384.073	17.481	795.857	602.929
385.088	17.714	795.174	603.184
386.102	17.493	794.858	602.109
387.117	17.527	794.126	601.622
388.132	17.539	793.571	601.189
389.146	17.531	793.274	600.883
390.161	17.475	792.842	600.304
391.175	17.550	792.782	600.470
392.190	17.631	792.215	600.274
393.205	17.541	791.852	599.629
394.219	17.511	791.530	599.225
395.234	17.639	790.761	599.040
396.248	17.385	790.470	597.874
397.263	17.524	789.758	597.772
398.278	17.499	788.964	597.032
399.292	17.380	789.249	596.775
400.307	17.398	788.582	596.282
401.321	17.322	788.326	595.769
402.336	17.420	787.839	595.690
403.350	17.658	787.214	596.000
404.365	17.609	786.746	595.421
405.380	17.708	786.630	595.627
406.394	17.778	785.959	595.308
407.409	17.683	785.715	594.740
408.423	17.826	785.330	594.895
409.438	17.904	784.640	594.593
410.453	17.946	784.162	594.324
411.467	17.965	784.024	594.231
412.482	17.956	783.447	593.709
413.496	18.014	782.835	593.395
414.511	18.142	782.692	593.677
415.526	18.107	782.077	593.039
416.540	18.001	781.692	592.325
417.555	18.010	781.382	592.070
418.569	18.030	781.146	591.907
419.584	18.080	780.609	591.622
420.599	18.042	780.208	591.134
421.613	156.328	1368.897	1795.159
422.628	134.913	1454.659	1795.235
