DTS Sentinel unit serial number:	SN413079Multiplexer serial number:	ORYXHardware model number:	OX4-SRSoftware version number:	ORYX F/W v4.00 Oryx Data Collector v3.7.2.0data status	okinstallation	princeton_trtdifferential loss correction	single-endedforward channel	channel 3reverse channel	N/Adate	2019/09/17time	12:20:35forward acquisition time	60.00reverse acquisition time	0.00gamma	496.2192k internal	0.2319k external	0.2319temperature offset calibration	0.9961default loss term (dB/km)	0.3790temperature slope calibration	1.0000multiplexer offset coefficient	1.0000multiplexer slope coefficient	1.0000fibre end	0.00T internal ref (°C)	31.59T ext. ref 1 (°C)	0.43T ext. ref 2 (°C)	28.50length (m)	temperature (°C)	Stokes	anti-Stokes-747.200	800.000	0.056	0.163
-746.185	-20.350	-0.234	0.145
-745.171	-200.000	0.041	-0.293
-744.156	-200.000	-0.024	-0.113
-743.142	-200.000	0.054	0.369
-742.127	800.000	0.141	0.474
-741.112	-65.504	0.105	0.043
-740.098	-200.000	0.022	0.221
-739.083	-139.111	0.288	0.031
-738.069	179.868	0.039	0.057
-737.054	219.008	-0.159	0.258
-736.039	708.946	-0.119	-0.318
-735.025	-155.935	0.011	-0.001
-734.010	369.354	-0.148	-0.303
-732.996	-200.000	-0.000	0.202
-731.981	-111.701	-0.244	-0.050
-730.966	-200.000	0.008	-0.249
-729.952	26.058	0.096	-0.081
-728.937	-200.000	0.013	0.109
-727.923	-54.836	-0.220	-0.100
-726.908	-200.000	0.007	-0.409
-725.894	16.654	-0.224	-0.179
-724.879	-200.000	0.012	-0.109
-723.864	74.599	-0.165	-0.176
-722.850	-126.620	-0.190	0.028
-721.835	-110.069	-0.100	0.021
-720.821	-200.000	-0.014	-0.218
-719.806	16.418	-0.156	-0.125
-718.791	-163.206	-0.073	-0.004
-717.777	147.078	0.188	-0.255
-716.762	10.674	-0.279	-0.215
-715.748	-200.000	0.026	-0.388
-714.733	98.253	0.232	-0.270
-713.718	-105.285	0.187	0.043
-712.704	501.484	0.100	0.233
-711.689	800.000	0.002	-0.007
-710.675	-75.292	-0.303	0.109
-709.660	-114.879	0.320	0.062
-708.645	257.586	0.142	-0.247
-707.631	88.266	0.208	0.233
-706.616	800.000	-0.030	0.086
-705.602	13.874	0.185	0.145
-704.587	-200.000	-0.016	0.195
-703.572	148.712	0.124	-0.169
-702.558	-55.390	0.213	0.097
-701.543	-95.388	-0.283	0.077
-700.529	229.452	0.075	0.124
-699.514	176.594	-0.075	-0.109
-698.499	-108.845	-0.230	0.050
-697.485	312.699	0.031	0.058
-696.470	201.150	-0.010	0.016
-695.456	27.682	0.117	-0.099
-694.441	78.652	0.083	0.089
-693.426	-194.837	-0.208	0.002
-692.412	-77.929	-0.410	0.143
-691.397	-200.000	0.028	0.124
-690.383	75.403	0.217	-0.231
-689.368	158.307	-0.226	0.317
-688.354	-116.211	-0.295	0.055
-687.339	18.834	0.080	0.065
-686.324	37.515	-0.244	-0.218
-685.310	-48.738	-0.147	-0.071
-684.295	445.359	-0.037	0.082
-683.281	63.311	0.175	0.178
-682.266	-45.947	-0.068	0.034
-681.251	-103.479	-0.154	-0.037
-680.237	-17.897	-0.191	0.121
-679.222	-35.637	0.083	0.045
-678.208	162.073	0.233	-0.329
-677.193	12.310	-0.092	-0.072
-676.178	24.449	-0.236	0.197
-675.164	10.009	-0.056	0.043
-674.149	58.479	0.158	-0.157
-673.135	-16.629	0.103	0.066
-672.120	-200.000	0.058	0.330
-671.105	-8.964	-0.165	-0.112
-670.091	509.428	0.040	0.093
-669.076	-200.000	0.011	-0.295
-668.062	800.000	-0.113	0.391
-667.047	-110.521	0.190	0.040
-666.032	-200.000	-0.098	0.440
-665.018	-200.000	-0.039	-0.244
-664.003	428.414	0.152	-0.331
-662.989	-200.000	-0.047	-0.223
-661.974	237.135	-0.074	-0.124
-660.959	-107.595	-0.197	-0.043
-659.945	-101.030	0.348	-0.086
-658.930	300.516	-0.098	-0.182
-657.916	602.997	-0.095	-0.239
-656.901	-95.021	-0.192	-0.052
-655.886	-200.000	-0.039	-0.258
-654.872	355.358	-0.094	-0.188
-653.857	-23.919	0.231	0.139
-652.843	26.325	-0.068	0.058
-651.828	-52.829	-0.079	0.037
-650.814	-200.000	-0.049	0.266
-649.799	22.059	-0.236	0.194
-648.784	491.602	0.035	-0.080
-647.770	89.130	-0.115	0.129
-646.755	800.000	-0.061	0.193
-645.741	800.000	0.072	0.276
-644.726	-92.512	-0.187	-0.053
-643.711	-200.000	-0.007	-0.210
-642.697	800.000	0.043	0.165
-641.682	-200.000	-0.016	0.090
-640.668	-75.373	-0.183	0.066
-639.653	-103.085	0.080	0.019
-638.638	800.000	0.037	0.125
-637.624	-145.745	0.050	0.004
-636.609	105.727	0.043	-0.051
-635.595	238.974	-0.057	0.096
-634.580	0.768	-0.152	0.110
-633.565	212.179	0.009	-0.014
-632.551	-36.298	0.212	0.115
-631.536	124.976	0.205	-0.261
-630.522	-38.143	-0.455	0.243
-629.507	-90.445	0.079	0.023
-628.492	800.000	-0.057	-0.233
-627.478	-69.673	-0.222	0.085
-626.463	189.529	-0.210	-0.316
-625.449	-105.849	0.052	-0.012
-624.434	-200.000	-0.014	0.107
-623.419	800.000	0.105	0.340
-622.405	224.098	0.089	0.144
-621.390	311.888	0.067	-0.127
-620.376	149.343	-0.184	0.251
-619.361	417.595	0.076	0.164
-618.346	-200.000	0.018	-0.153
-617.332	-200.000	0.020	-0.252
-616.317	-169.157	0.219	-0.008
-615.303	-57.761	-0.037	0.016
-614.288	-174.401	-0.215	-0.006
-613.273	-122.720	-0.102	0.017
-612.259	-200.000	-0.015	0.227
-611.244	-200.000	0.065	0.403
-610.230	76.963	0.054	0.057
-609.215	-200.000	-0.035	0.313
-608.201	176.889	0.156	0.228
-607.186	-4.840	0.128	0.089
-606.171	272.869	0.039	-0.070
-605.157	-75.906	-0.276	-0.098
-604.142	122.174	-0.131	-0.164
-603.128	-120.648	0.226	0.038
-602.113	-57.047	-0.237	-0.105
-601.098	245.625	-0.030	0.051
-600.084	800.000	-0.130	-0.486
-599.069	-59.583	-0.113	0.049
-598.055	24.092	0.119	0.099
-597.040	95.896	-0.038	-0.043
-596.025	-134.702	0.107	0.013
-595.011	-72.020	0.175	0.066
-593.996	-200.000	0.002	-0.122
-592.982	369.013	0.105	-0.214
-591.967	-132.545	0.306	0.040
-590.952	50.810	0.046	0.044
-589.938	284.145	0.168	-0.304
-588.923	-200.000	0.029	-0.239
-587.909	-200.000	0.012	-0.141
-586.894	100.560	-0.189	0.220
-585.879	-61.960	-0.385	-0.162
-584.865	342.624	0.094	-0.185
-583.850	800.000	0.045	-0.162
-582.836	58.084	0.036	0.035
-581.821	-72.206	-0.211	-0.079
-580.806	800.000	0.013	-0.044
-579.792	-20.754	0.234	0.144
-578.777	800.000	-0.041	0.144
-577.763	117.626	-0.060	0.074
-576.748	274.704	-0.093	-0.165
-575.733	69.479	0.167	-0.173
-574.719	109.938	-0.180	0.217
-573.704	-126.067	0.275	0.042
-572.690	446.857	0.095	0.210
-571.675	179.751	-0.114	0.168
-570.661	-127.059	-0.310	-0.046
-569.646	-44.073	0.128	0.065
-568.631	48.653	-0.212	-0.199
-567.617	-200.000	0.022	-0.178
-566.602	-121.090	-0.103	0.017
-565.588	100.404	-0.080	-0.093
-564.573	683.260	-0.045	-0.117
-563.558	-73.964	0.137	-0.050
-562.544	-87.222	-0.099	-0.030
-561.529	209.129	0.062	-0.097
-560.515	800.000	0.094	0.283
-559.500	108.263	0.252	-0.301
-558.485	355.678	-0.147	-0.294
-557.471	-89.976	0.250	0.073
-556.456	135.063	-0.113	-0.148
-555.442	-81.848	0.087	-0.028
-554.427	800.000	-0.029	-0.084
-553.412	-100.712	-0.025	-0.006
-552.398	-200.000	0.027	0.416
-551.383	800.000	0.090	0.307
-550.369	-158.836	-0.199	0.011
-549.354	10.760	0.025	-0.019
-548.339	800.000	0.025	-0.083
-547.325	-200.000	-0.002	-0.087
-546.310	23.290	0.245	0.202
-545.296	-48.430	-0.332	0.161
-544.281	-68.111	0.128	-0.050
-543.266	85.256	-0.150	0.165
-542.252	800.000	-0.103	-0.290
-541.237	800.000	0.101	-0.393
-540.223	-19.835	-0.116	-0.072
-539.208	158.104	-0.049	-0.069
-538.193	135.034	-0.064	0.083
-537.179	166.993	0.153	0.218
-536.164	9.510	0.103	0.078
-535.150	-44.811	-0.058	-0.029
-534.135	502.453	0.062	-0.143
-533.121	96.038	0.190	-0.217
-532.106	-200.000	0.005	-0.192
-531.091	-167.515	-0.259	0.010
-530.077	420.874	-0.098	0.210
-529.062	-61.113	0.088	-0.037
-528.048	484.561	0.064	0.147
-527.033	-95.739	0.189	-0.051
-526.018	-152.211	0.164	0.012
-525.004	41.791	-0.208	0.190
-523.989	-46.716	-0.083	0.041
-522.975	-176.121	-0.023	-0.001
-521.960	539.280	-0.088	-0.210
-520.945	800.000	0.024	-0.074
-519.931	1.601	-0.134	0.097
-518.916	-64.262	-0.094	-0.038
-517.902	16.211	-0.131	0.104
-516.887	-200.000	-0.011	-0.281
-515.872	194.812	0.136	0.206
-514.858	-55.600	0.194	-0.087
-513.843	-143.488	-0.183	-0.017
-512.829	401.171	-0.065	-0.136
-511.814	95.265	0.180	0.205
-510.799	-200.000	0.028	0.157
-509.785	384.360	-0.105	-0.216
-508.770	-135.465	0.231	0.028
-507.756	33.471	-0.213	0.185
-506.741	28.719	-0.178	-0.151
-505.726	-53.492	0.155	0.071
-504.712	290.726	0.044	0.081
-503.697	140.090	-0.061	-0.081
-502.683	134.699	-0.134	0.175
-501.668	800.000	0.056	0.218
-500.653	800.000	-0.038	0.141
-499.639	117.599	-0.178	-0.219
-498.624	-50.585	-0.183	-0.087
-497.610	-200.000	0.018	0.116
-496.595	157.030	-0.065	0.090
-495.581	-70.947	-0.447	-0.169
-494.566	800.000	0.053	-0.147
-493.551	-200.000	0.011	-0.066
-492.537	105.947	0.129	-0.153
-491.522	-151.266	0.168	-0.013
-490.508	51.897	-0.206	0.197
-489.493	6.298	-0.042	-0.031
-488.478	-200.000	-0.016	-0.613
-487.464	321.115	-0.048	-0.092
-486.449	87.647	-0.135	-0.150
-485.435	-26.665	-0.172	0.101
-484.420	-24.666	0.088	-0.052
-483.405	233.645	-0.076	0.124
-482.391	-49.557	0.355	0.169
-481.376	58.654	-0.169	-0.167
-480.362	-200.000	0.066	0.412
-479.347	219.246	0.162	0.259
-478.332	258.948	-0.070	0.120
-477.318	331.901	-0.048	0.093
-476.303	67.557	-0.323	-0.330
-475.289	-112.476	-0.119	-0.024
-474.274	800.000	0.050	-0.176
-473.259	421.989	0.033	0.070
-472.245	-200.000	-0.024	-0.121
-471.230	655.389	0.132	-0.339
-470.216	-2.953	0.203	-0.142
-469.201	-200.000	-0.009	0.097
-468.186	130.084	-0.189	0.242
-467.172	-152.608	-0.237	0.017
-466.157	302.271	0.142	0.264
-465.143	-109.634	-0.453	0.096
-464.128	115.006	-0.109	-0.133
-463.113	-200.000	0.025	0.110
-462.099	-101.959	0.198	0.048
-461.084	800.000	0.065	-0.220
-460.070	-200.000	-0.003	-0.131
-459.055	321.997	0.129	0.245
-458.040	343.881	0.089	0.174
-457.026	-32.796	0.129	0.072
-456.011	800.000	-0.047	-0.154
-454.997	114.656	-0.205	0.249
-453.982	19.885	-0.361	0.291
-452.968	800.000	-0.016	-0.071
-451.953	-144.416	0.272	-0.025
-450.938	-200.000	-0.046	-0.390
-449.924	-30.469	0.154	-0.087
-448.909	-103.143	0.281	-0.067
-447.895	-200.000	-0.018	-0.163
-446.880	89.640	-0.134	-0.150
-445.865	-200.000	0.040	-0.227
-444.851	111.910	0.105	-0.126
-443.836	48.059	-0.228	0.213
-442.822	39.144	-0.091	-0.082
-441.807	-3.787	-0.078	-0.054
-440.792	-67.665	-0.089	-0.035
-439.778	800.000	-0.095	0.322
-438.763	-200.000	0.045	0.209
-437.749	-186.228	0.163	0.002
-436.734	211.928	0.138	-0.218
-435.719	-200.000	0.004	0.114
-434.705	800.000	0.107	0.334
-433.690	-118.811	-0.360	0.063
-432.676	-143.631	-0.069	0.007
-431.661	-86.407	0.188	-0.058
-430.646	22.893	0.160	-0.131
-429.632	-59.451	-0.091	0.039
-428.617	-200.000	0.036	-0.558
-427.603	24.429	-0.163	-0.134
-426.588	762.449	0.088	-0.238
-425.573	61.992	-0.065	0.065
-424.559	69.144	-0.186	0.191
-423.544	-153.458	0.235	0.016
-422.530	257.335	0.108	-0.185
-421.515	192.140	0.240	-0.361
-420.500	76.414	-0.229	-0.242
-419.486	-63.423	-0.036	0.015
-418.471	-53.724	0.234	-0.107
-417.457	-200.000	-0.019	0.129
-416.442	239.770	-0.166	0.275
-415.428	-200.000	0.028	0.227
-414.413	-200.000	0.013	-0.094
-413.398	9.691	-0.104	0.079
-412.384	59.259	0.130	0.128
-411.369	600.236	-0.128	0.318
-410.355	-32.106	-0.015	-0.008
-409.340	-72.064	0.277	-0.103
-408.325	-200.000	-0.015	-0.120
-407.311	384.155	-0.184	-0.379
-406.296	-128.705	-0.298	-0.042
-405.282	-10.973	-0.139	0.092
-404.267	-200.000	-0.077	-0.525
-403.252	800.000	0.007	-0.021
-402.238	-174.723	0.410	0.012
-401.223	228.233	0.043	0.070
-400.209	405.634	0.121	-0.254
-399.194	-200.000	-0.019	0.178
-398.179	-5.018	0.270	-0.186
-397.165	-54.268	0.126	-0.057
-396.150	-170.936	0.231	0.008
-395.136	-144.825	0.222	-0.020
-394.121	436.934	0.170	-0.369
-393.106	-82.108	-0.063	0.020
-392.092	42.192	-0.144	-0.131
-391.077	-121.453	-0.496	-0.082
-390.063	-41.827	0.275	-0.141
-389.048	-30.001	0.260	0.148
-388.033	98.882	0.165	-0.190
-387.019	179.489	-0.120	-0.175
-386.004	131.229	0.067	0.086
-384.990	505.113	0.031	-0.073
-383.975	1.816	-0.166	-0.119
-382.960	-147.776	-0.053	-0.004
-381.946	208.496	0.217	-0.339
-380.931	-200.000	0.108	-0.000
-379.917	-39.761	-0.205	-0.107
-378.902	-6.430	0.269	0.183
-377.888	-61.768	-0.205	0.085
-376.873	300.968	-0.142	-0.261
-375.858	182.556	-0.229	-0.337
-374.844	-63.670	0.234	0.095
-373.829	74.624	-0.180	0.188
-372.815	388.599	-0.043	0.088
-371.800	-102.658	0.263	0.063
-370.785	-100.426	0.340	0.084
-369.771	-129.340	0.061	0.008
-368.756	-200.000	-0.038	0.326
-367.742	301.649	0.100	0.184
-366.727	-115.409	-0.134	-0.025
-365.712	-145.067	-0.252	-0.023
-364.698	-77.283	-0.231	-0.080
-363.683	510.734	-0.081	-0.188
-362.669	-116.754	0.206	-0.038
-361.654	-14.661	-0.294	0.188
-360.639	-146.800	0.090	-0.008
-359.625	366.243	-0.077	0.154
-358.610	-52.115	-0.262	-0.121
-357.596	-200.000	0.051	-0.281
-356.581	40.195	0.211	-0.189
-355.566	-200.000	0.016	0.381
-354.552	-110.093	-0.142	0.030
-353.537	250.460	0.066	-0.112
-352.523	-145.677	-0.143	-0.013
-351.508	800.000	0.127	0.353
-350.493	-29.155	0.098	0.056
-349.479	-47.440	0.108	-0.052
-348.464	-141.594	0.018	0.002
-347.450	-18.945	0.182	0.113
-346.435	800.000	-0.051	-0.186
-345.420	197.806	0.138	0.210
-344.406	75.362	-0.112	0.117
-343.391	800.000	0.034	-0.139
-342.377	78.051	0.095	-0.101
-341.362	189.850	-0.254	0.380
-340.348	-200.000	-0.026	0.427
-339.333	-31.207	0.077	-0.043
-338.318	-200.000	0.034	0.166
-337.304	249.490	-0.057	0.096
-336.289	800.000	0.046	-0.138
-335.275	292.535	-0.134	-0.244
-334.260	-50.142	-0.366	-0.172
-333.245	-200.000	0.005	0.089
-332.231	28.586	-0.089	0.075
-331.216	516.123	0.091	0.212
-330.202	-12.690	0.175	-0.114
-329.187	-148.786	0.141	-0.011
-328.172	-17.936	-0.123	0.077
-327.158	301.697	0.157	0.289
-326.143	322.292	0.058	-0.110
-325.129	-200.000	-0.038	0.196
-324.114	-154.524	0.210	0.014
-323.099	800.000	-0.042	0.131
-322.085	-40.216	0.439	0.227
-321.070	141.100	-0.226	0.297
-320.056	-30.588	-0.053	0.030
-319.041	167.954	0.092	-0.130
-318.026	-200.000	-0.024	0.308
-317.012	-97.606	-0.074	0.019
-315.997	800.000	0.054	0.185
-314.983	-200.000	-0.023	0.251
-313.968	231.806	0.004	-0.006
-312.953	-155.384	0.412	-0.027
-311.939	-200.000	-0.009	-0.321
-310.924	-66.159	-0.282	-0.112
-309.910	-96.788	0.185	0.048
-308.895	-95.154	-0.209	-0.056
-307.880	-25.406	0.153	0.090
-306.866	98.029	-0.101	-0.116
-305.851	-200.000	0.014	0.253
-304.837	-65.636	0.405	0.162
-303.822	-0.390	-0.189	-0.133
-302.807	32.739	-0.174	-0.150
-301.793	113.047	-0.185	-0.223
-300.778	423.663	-0.096	-0.205
-299.764	46.160	0.165	-0.152
-298.749	223.086	0.170	0.273
-297.735	-61.805	0.059	0.025
-296.720	-52.810	0.095	0.043
-295.705	800.000	0.067	0.249
-294.691	220.897	0.152	0.243
-293.676	36.764	0.162	-0.142
-292.662	-144.387	-0.063	0.006
-291.647	178.459	0.117	-0.170
-290.632	-41.062	-0.261	-0.134
-289.618	-71.628	-0.051	0.019
-288.603	-115.573	0.210	-0.039
-287.589	111.413	0.139	-0.167
-286.574	117.784	-0.082	0.100
-285.559	-61.712	-0.249	0.104
-284.545	-120.924	-0.432	0.072
-283.530	-93.405	-0.141	-0.039
-282.516	-181.142	0.150	0.003
-281.501	-15.679	0.183	-0.116
-280.486	-200.000	0.012	0.328
-279.472	87.872	0.097	0.106
-278.457	417.194	-0.082	0.174
-277.443	800.000	0.059	-0.175
-276.428	85.956	-0.225	0.246
-275.413	106.375	-0.013	-0.015
-274.399	621.728	0.090	-0.226
-273.384	447.269	-0.057	-0.125
-272.370	800.000	-0.036	-0.099
-271.355	-79.200	0.251	0.085
-270.340	-32.492	-0.226	-0.125
-269.326	40.109	0.082	0.073
-268.311	-25.082	0.408	0.240
-267.297	-200.000	0.037	0.186
-266.282	90.576	-0.115	0.128
-265.267	611.758	-0.078	0.193
-264.253	-174.263	0.180	-0.005
-263.238	664.060	0.077	-0.196
-262.224	29.729	0.111	0.094
-261.209	-167.635	-0.233	-0.009
-260.195	-200.000	0.022	0.312
-259.180	-200.000	-0.021	0.110
-258.165	-111.210	-0.188	0.038
-257.151	-30.988	-0.153	0.086
-256.136	800.000	0.092	0.289
-255.122	-72.814	0.197	0.072
-254.107	-200.000	0.041	-0.234
-253.092	132.959	0.060	-0.077
-252.078	101.907	-0.210	-0.243
-251.063	151.150	0.055	0.074
-250.049	363.911	-0.038	0.075
-249.034	146.965	0.079	0.105
-248.019	792.796	-0.155	-0.422
-247.005	-127.840	0.246	0.035
-245.990	-127.005	-0.225	-0.033
-244.976	-27.793	-0.186	0.107
-243.961	108.524	0.195	0.231
-242.946	-54.937	0.253	-0.113
-241.932	-200.000	0.016	0.073
-240.917	-43.636	-0.167	-0.084
-239.903	-118.796	0.496	0.087
-238.888	107.231	-0.217	-0.255
-237.873	-53.703	0.215	0.097
-236.859	-25.440	0.073	-0.043
-235.844	358.926	0.150	-0.296
-234.830	-58.881	0.212	0.091
-233.815	800.000	0.041	0.115
-232.800	646.880	-0.060	0.152
-231.786	-148.737	0.160	0.013
-230.771	-80.874	-0.444	0.146
-229.757	312.768	-0.185	-0.344
-228.742	301.537	-0.084	-0.154
-227.727	17.064	0.149	0.117
-226.713	43.125	-0.143	0.129
-225.698	82.949	0.157	0.169
-224.684	-34.763	0.129	0.070
-223.669	247.350	0.210	0.351
-222.655	800.000	0.052	-0.178
-221.640	195.415	-0.071	0.107
-220.625	-59.517	0.158	0.067
-219.611	4.621	-0.365	-0.266
-218.596	-113.624	-0.182	-0.035
-217.582	0.580	0.145	0.103
-216.567	-200.000	-0.005	0.030
-215.552	42.447	0.148	0.133
-214.538	116.210	-0.276	0.335
-213.523	23.409	-0.234	-0.190
-212.509	68.286	0.019	-0.019
-211.494	-104.927	0.221	0.050
-210.479	-95.214	-0.368	0.098
-209.465	-115.647	0.311	-0.058
-208.450	55.322	0.082	-0.078
-207.436	-24.494	-0.126	-0.074
-206.421	65.559	0.102	-0.102
-205.406	-200.000	0.005	0.055
-204.392	60.136	0.107	-0.105
-203.377	800.000	0.072	-0.236
-202.363	331.857	0.020	0.039
-201.348	434.287	0.055	0.119
-200.333	-104.810	0.093	0.021
-199.319	-128.963	-0.415	-0.058
-198.304	155.072	0.197	-0.268
-197.290	-115.542	0.404	-0.075
-196.275	-200.000	-0.014	0.157
-195.260	-200.000	0.005	0.038
-194.246	-59.807	-0.293	0.124
-193.231	103.789	0.026	-0.030
-192.217	-200.000	0.029	-0.148
-191.202	-76.223	-0.442	0.154
-190.187	800.000	0.086	-0.273
-189.173	-200.000	0.091	-0.401
-188.158	-79.824	-0.099	-0.033
-187.144	67.435	-0.084	-0.085
-186.129	800.000	-0.051	0.218
-185.114	800.000	-0.033	0.143
-184.100	-104.205	0.314	0.072
-183.085	55.539	0.045	0.043
-182.071	-200.000	0.008	0.151
-181.056	-131.437	0.217	0.028
-180.042	124.075	0.120	-0.149
-179.027	800.000	-0.118	-0.355
-178.012	-134.069	-0.215	0.026
-176.998	-63.401	0.231	0.094
-175.983	800.000	-0.146	-0.513
-174.969	-17.511	0.316	-0.197
-173.954	-32.209	-0.151	0.083
-172.939	-163.991	0.400	0.018
-171.925	168.032	-0.083	-0.116
-170.910	48.933	0.101	0.094
-169.896	-90.208	0.038	0.011
-168.881	103.894	0.237	-0.276
-167.866	-125.166	-0.233	-0.035
-166.852	-15.892	-0.083	0.052
-165.837	27.761	0.105	0.087
-164.823	-200.000	0.001	0.237
-163.808	67.018	-0.264	0.266
-162.793	-131.075	0.163	-0.021
-161.779	800.000	0.053	0.181
-160.764	72.211	-0.179	-0.184
-159.750	225.025	0.056	0.090
-158.735	19.641	-0.175	-0.139
-157.720	-62.785	0.188	-0.077
-156.706	-200.000	-0.004	-0.124
-155.691	-200.000	-0.026	0.355
-154.677	196.445	-0.308	-0.464
-153.662	-101.724	0.309	-0.074
-152.647	-200.000	0.002	0.105
-151.633	-43.146	-0.347	0.174
-150.618	-200.000	0.027	-0.148
-149.604	-17.073	0.139	-0.087
-148.589	-200.000	-0.008	-0.189
-147.574	-196.197	-0.172	0.001
-146.560	-141.820	0.250	-0.025
-145.545	-156.604	0.445	0.027
-144.531	-10.582	0.141	-0.092
-143.516	-149.119	0.299	0.024
-142.502	800.000	-0.019	-0.057
-141.487	248.383	0.125	-0.209
-140.472	-200.000	0.008	0.059
-139.458	159.221	0.109	0.150
-138.443	-42.794	0.110	-0.055
-137.429	-200.000	-0.005	0.058
-136.414	-161.987	-0.232	0.012
-135.399	-3.732	-0.350	0.240
-134.385	26.435	-0.110	0.091
-133.370	420.040	0.125	-0.264
-132.356	101.917	0.031	-0.036
-131.341	-95.488	0.116	0.031
-130.326	-100.480	0.268	0.065
-129.312	-147.370	0.112	0.009
-128.297	-200.000	0.000	0.180
-127.283	-200.000	0.001	-0.178
-126.268	11.015	-0.184	0.139
-125.253	174.001	0.072	0.102
-124.239	-200.000	0.009	0.361
-123.224	-51.151	-0.105	-0.048
-122.210	8.449	-0.061	0.045
-121.195	-200.000	0.002	-0.109
-120.180	-123.740	0.281	0.044
-119.166	-64.374	0.210	-0.084
-118.151	145.751	0.098	0.130
-117.137	50.668	-0.047	-0.044
-116.122	694.095	-0.007	-0.019
-115.107	-69.247	-0.177	0.067
-114.093	-200.000	0.006	0.224
-113.078	528.085	0.103	0.240
-112.064	-200.000	-0.013	0.127
-111.049	-200.000	0.039	-0.173
-110.034	-121.790	-0.070	-0.011
-109.020	-35.347	-0.066	-0.035
-108.005	-90.925	0.278	0.079
-106.991	-70.195	-0.148	0.055
-105.976	800.000	-0.063	0.222
-104.962	-151.118	-0.158	0.012
-103.947	166.219	-0.057	-0.079
-102.932	446.694	0.089	-0.193
-101.918	-17.791	0.074	-0.046
-100.903	13.106	0.105	0.081
-99.889	-106.375	-0.241	-0.053
-98.874	142.242	0.159	0.209
-97.859	466.398	0.170	0.375
-96.845	-11.678	0.158	0.102
-95.830	800.000	0.057	0.164
-94.816	-200.000	0.020	0.116
-93.801	800.000	0.136	0.525
-92.786	-25.457	0.430	0.251
-91.772	47.940	0.109	-0.100
-90.757	-120.481	0.097	-0.016
-89.743	108.661	-0.290	-0.342
-88.728	-200.000	-0.006	-0.119
-87.713	-200.000	-0.047	-0.311
-86.699	52.059	0.039	0.037
-85.684	-70.666	0.160	0.059
-84.670	-123.798	0.474	0.074
-83.655	218.927	-0.182	-0.287
-82.640	331.231	0.265	0.503
-81.626	263.856	0.018	0.031
-80.611	535.748	-0.071	0.166
-79.597	-104.455	0.077	-0.018
-78.582	32.620	-0.151	0.129
-77.567	160.956	-0.074	0.101
-76.553	171.996	0.168	0.239
-75.538	476.009	0.107	0.239
-74.524	-200.000	0.074	-0.321
-73.509	-39.952	-0.109	-0.056
-72.494	-200.000	-0.009	0.057
-71.480	73.586	0.117	-0.121
-70.465	427.853	0.066	0.141
-69.451	-200.000	-0.023	0.182
-68.436	-200.000	0.075	-0.415
-67.422	-144.320	0.270	-0.025
-66.407	72.344	0.219	-0.225
-65.392	-199.930	-0.183	0.001
-64.378	-72.440	0.245	-0.089
-63.363	-200.000	0.019	0.139
-62.349	800.000	0.047	-0.173
-61.334	51.470	-0.894	-0.837
-60.319	-50.046	0.463	0.216
-59.305	-200.000	-0.001	-1.171
-58.290	326.192	0.478	0.902
-57.276	800.000	0.429	1.379
-56.261	-200.000	95.303	593.388
-55.246	546.270	1402.253	3301.392
-54.232	156.670	2580.226	3508.511
-53.217	112.518	2187.302	2605.898
-52.203	42.598	1722.917	1543.684
-51.188	34.788	1532.705	1319.544
-50.173	32.402	1505.629	1279.977
-49.159	52.197	1553.850	1458.098
-48.144	53.741	1571.424	1485.195
-47.130	35.090	1531.845	1320.675
-46.115	31.935	1517.411	1286.581
-45.100	31.748	1513.804	1282.197
-44.086	31.746	1512.046	1280.639
-43.071	31.765	1510.177	1279.135
-42.057	31.709	1508.528	1277.308
-41.042	31.626	1507.476	1275.800
-40.027	31.590	1505.656	1273.965
-39.013	31.562	1504.467	1272.717
-37.998	31.585	1502.889	1271.490
-36.984	31.564	1501.587	1270.192
-35.969	31.617	1500.267	1269.390
-34.954	31.618	1499.299	1268.524
-33.940	31.643	1497.643	1267.242
-32.925	31.626	1496.394	1266.022
-31.911	31.713	1494.749	1265.164
-30.896	31.625	1493.454	1263.426
-29.881	31.684	1491.894	1262.456
-28.867	31.687	1490.480	1261.225
-27.852	31.624	1489.139	1259.618
-26.838	31.657	1487.919	1258.759
-25.823	31.627	1486.376	1257.199
-24.809	31.631	1484.331	1255.449
-23.794	31.715	1482.896	1254.750
-22.779	31.621	1481.673	1253.033
-21.765	31.612	1480.900	1252.273
-20.750	31.599	1479.844	1251.242
-19.736	31.586	1478.657	1250.099
-18.721	31.562	1477.698	1249.078
-17.706	31.628	1476.671	1248.600
-16.692	31.628	1475.370	1247.452
-15.677	31.632	1473.819	1246.121
-14.663	31.614	1472.924	1245.191
-13.648	31.439	1472.790	1243.868
-12.633	31.530	1471.458	1243.298
-11.619	31.619	1470.270	1242.834
-10.604	31.551	1469.883	1242.009
-9.590	31.498	1469.219	1241.046
-8.575	31.525	1467.862	1240.030
-7.560	31.625	1466.435	1239.437
-6.546	31.535	1466.029	1238.450
-5.531	31.435	1465.351	1237.161
-4.517	31.507	1463.908	1236.373
-3.502	31.573	1462.601	1235.652
-2.487	31.539	1461.881	1234.776
-1.473	31.571	1460.706	1233.945
-0.458	31.542	1459.807	1232.945
0.556	30.328	1450.692	1223.891
1.571	28.066	1425.124	1187.543
2.586	24.755	1364.334	1116.164
3.600	22.938	1281.423	1037.579
4.615	21.455	1237.101	993.189
5.629	18.566	1180.263	931.803
6.644	9.599	1093.042	817.551
7.659	1.879	1050.732	748.063
8.673	0.596	1045.133	737.743
9.688	0.416	1041.805	734.451
10.702	0.307	1040.550	732.970
11.717	0.402	1038.668	732.044
12.731	3.237	1041.556	747.800
13.746	12.082	1053.518	799.624
14.761	17.785	1060.325	832.632
15.775	17.719	1059.268	831.409
16.790	16.841	1056.870	825.179
17.804	15.710	1054.858	818.035
18.819	14.724	1053.147	811.844
19.834	14.469	1051.147	808.995
20.848	14.080	1050.379	806.447
21.863	13.826	1049.825	804.720
22.877	13.525	1049.225	802.727
23.892	13.369	1048.039	800.997
24.907	13.280	1047.151	799.816
25.921	13.385	1046.194	799.522
26.936	13.338	1046.566	799.508
27.950	13.407	1045.646	799.069
28.965	13.485	1044.775	798.708
29.980	13.513	1044.107	798.262
30.994	13.405	1043.822	797.450
32.009	13.656	1042.095	797.267
33.023	13.686	1041.303	796.738
34.038	13.672	1040.622	796.079
35.053	13.552	1039.852	794.843
36.067	13.593	1038.786	794.154
37.082	13.515	1037.947	793.068
38.096	13.558	1037.361	792.757
39.111	13.622	1036.892	792.633
40.126	13.658	1035.962	792.024
41.140	13.466	1034.815	790.163
42.155	13.361	1033.758	788.784
43.169	13.398	1032.659	788.053
44.184	13.219	1031.942	786.584
45.199	13.323	1030.646	786.017
46.213	13.244	1030.107	785.166
47.228	13.312	1029.056	784.617
48.242	13.499	1027.352	784.133
49.257	13.563	1026.654	783.835
50.271	13.469	1025.923	782.760
51.286	13.389	1025.212	781.772
52.301	13.645	1023.541	781.634
53.315	13.460	1023.553	780.704
54.330	13.452	1022.787	780.012
55.344	13.458	1021.701	779.143
56.359	13.383	1020.754	778.000
57.374	13.456	1019.578	777.380
58.388	13.355	1019.007	776.397
59.403	13.329	1018.519	775.836
60.417	13.323	1017.473	774.942
61.432	13.411	1016.846	774.808
62.447	13.361	1016.380	774.154
63.461	13.274	1015.771	773.213
64.476	13.308	1014.288	772.172
65.490	13.161	1013.696	770.967
66.505	13.275	1012.606	770.605
67.520	13.234	1011.710	769.662
68.534	13.248	1011.289	769.340
69.549	13.267	1010.419	768.696
70.563	13.323	1009.418	768.129
71.578	13.282	1008.852	767.441
72.593	13.314	1008.046	766.905
73.607	13.203	1007.348	765.794
74.622	13.186	1006.334	764.877
75.636	13.179	1005.190	763.907
76.651	13.130	1004.584	763.151
77.666	13.180	1003.843	762.755
78.680	13.143	1003.275	762.083
79.695	13.300	1002.495	762.145
80.709	13.278	1001.754	761.414
81.724	13.296	1001.024	760.873
82.739	13.359	1000.075	760.375
83.753	13.330	999.400	759.662
84.768	13.532	998.467	759.814
85.782	13.413	997.916	758.778
86.797	13.513	997.196	758.623
87.812	13.596	996.124	758.121
88.826	13.428	995.563	756.857
89.841	13.427	994.752	756.171
90.855	13.440	994.062	755.640
91.870	13.577	993.003	755.391
92.884	13.438	992.465	754.283
93.899	13.596	991.476	754.182
94.914	13.581	990.840	753.564
95.928	13.556	990.213	752.907
96.943	13.553	989.370	752.186
97.957	13.671	988.421	751.934
98.972	13.584	987.880	751.059
99.987	13.519	986.957	749.999
101.001	13.515	986.172	749.315
102.016	13.441	985.834	748.661
103.030	13.658	984.348	748.442
104.045	13.584	983.778	747.610
105.060	13.473	982.537	746.100
106.074	13.372	981.646	744.903
107.089	13.490	980.595	744.569
108.103	13.402	980.096	743.732
109.118	13.383	979.201	742.898
110.133	13.332	978.537	742.100
111.147	13.345	977.597	741.382
112.162	13.397	976.708	740.874
113.176	13.331	976.025	739.998
114.191	13.324	975.161	739.242
115.206	13.561	973.660	739.098
116.220	13.547	973.025	738.488
117.235	13.453	972.607	737.688
118.249	13.522	971.563	737.138
119.264	13.443	970.485	735.906
120.279	13.512	969.726	735.570
121.293	13.254	969.386	734.101
122.308	13.504	968.087	734.160
123.322	13.313	967.686	732.945
124.337	13.439	966.570	732.592
125.352	13.522	964.859	731.599
126.366	13.420	964.089	730.498
127.381	13.372	963.192	729.541
128.395	13.278	961.883	728.072
129.410	13.428	961.070	728.052
130.424	13.425	960.560	727.587
131.439	13.546	959.220	727.039
132.454	13.394	958.712	725.924
133.468	13.448	957.906	725.487
134.483	13.546	957.544	725.576
135.497	13.563	956.273	724.627
136.512	13.554	955.447	723.896
137.527	13.507	955.083	723.352
138.541	13.572	954.097	722.821
139.556	13.451	953.362	721.676
140.570	13.427	952.551	720.891
141.585	13.528	951.700	720.625
142.600	13.479	951.387	720.110
143.614	13.597	950.458	719.858
144.629	13.690	949.602	719.548
145.643	13.841	948.417	719.240
146.658	13.744	948.067	718.491
147.673	13.776	947.170	717.887
148.687	13.568	945.825	715.903
149.702	13.563	945.370	715.477
150.716	13.513	944.678	714.672
151.731	13.499	943.733	713.835
152.746	13.511	942.728	713.064
153.760	13.510	942.438	712.777
154.775	13.655	941.386	712.542
155.789	13.506	941.106	711.625
156.804	13.677	939.759	711.277
157.819	13.723	939.018	710.851
158.833	13.623	938.861	710.239
159.848	13.640	938.215	709.760
160.862	13.688	937.342	709.243
161.877	13.731	936.399	708.650
162.892	13.728	935.553	707.937
163.906	13.624	934.741	706.817
164.921	13.653	933.621	706.031
165.935	13.656	932.475	705.113
166.950	13.694	931.936	704.804
167.964	13.616	931.353	703.969
168.979	13.706	930.401	703.569
169.994	13.668	929.222	702.454
171.008	13.673	928.674	702.001
172.023	13.652	928.114	701.424
173.037	13.720	927.114	700.894
174.052	13.749	926.533	700.517
175.067	13.844	925.431	700.024
176.081	13.734	924.820	699.034
177.096	13.726	924.094	698.390
178.110	13.678	923.234	697.477
179.125	13.783	922.716	697.464
180.140	13.850	921.725	696.935
181.154	13.684	921.451	695.971
182.169	13.719	921.044	695.746
183.183	13.921	919.773	695.571
184.198	13.878	919.379	695.032
185.213	13.931	918.531	694.553
186.227	13.942	917.966	694.107
187.242	14.014	917.627	694.091
188.256	13.917	916.886	693.067
189.271	14.020	916.195	692.911
190.286	13.988	915.284	692.029
191.300	13.836	914.679	690.877
192.315	13.902	913.656	690.318
193.329	13.664	913.499	689.149
194.344	13.797	912.483	688.871
195.359	13.968	911.524	688.798
196.373	13.942	911.039	688.260
197.388	13.916	911.074	688.120
198.402	14.065	910.333	688.117
199.417	14.058	909.999	687.772
200.432	14.020	910.140	687.660
201.446	14.153	909.095	687.362
202.461	14.262	908.945	687.636
203.475	14.250	908.197	686.962
204.490	14.211	907.278	686.044
205.504	14.292	906.220	685.515
206.519	14.310	905.494	684.979
207.534	14.194	904.980	684.054
208.548	14.218	904.501	683.732
209.563	14.182	903.644	682.876
210.577	14.371	902.609	682.806
211.592	14.241	902.421	682.071
212.607	14.218	902.094	681.670
213.621	14.440	900.878	681.600
214.636	14.387	900.593	681.108
215.650	14.335	899.724	680.177
216.665	14.248	899.697	679.742
217.680	14.395	898.843	679.635
218.694	14.408	898.495	679.364
219.709	14.607	897.405	679.290
220.723	14.586	896.822	678.703
221.738	14.374	896.719	677.704
222.753	14.477	895.288	676.980
223.767	14.539	894.656	676.694
224.782	14.516	894.346	676.306
225.796	14.554	893.426	675.704
226.811	14.438	893.041	674.882
227.826	14.643	891.982	674.853
228.840	14.550	891.645	674.164
229.855	14.486	890.804	673.207
230.869	14.513	890.156	672.766
231.884	14.456	889.505	671.985
232.899	14.554	889.125	672.035
233.913	14.542	888.466	671.429
234.928	14.418	887.619	670.230
235.942	14.567	886.675	670.056
236.957	14.626	885.740	669.527
237.972	14.473	885.637	668.776
238.986	14.541	884.564	668.179
240.001	14.558	884.424	668.085
241.015	14.623	883.632	667.688
242.030	14.581	882.997	666.980
243.045	14.604	882.233	666.436
244.059	14.694	881.730	666.357
245.074	14.797	880.485	665.768
246.088	14.734	879.934	665.042
247.103	14.765	879.811	665.009
248.117	14.686	879.365	664.302
249.132	14.847	878.597	664.301
250.147	14.899	877.998	663.995
251.161	14.903	877.332	663.449
252.176	14.894	876.917	663.042
253.190	14.798	876.464	662.261
254.205	15.057	875.571	662.552
255.220	15.025	875.056	661.976
256.234	15.175	874.356	661.980
257.249	15.028	873.491	660.687
258.263	15.169	873.160	660.937
259.278	15.140	872.525	660.283
260.293	15.169	871.874	659.846
261.307	15.192	871.376	659.501
262.322	15.119	870.948	658.831
263.336	15.252	870.385	658.868
264.351	15.240	869.711	658.253
265.366	15.249	869.239	657.874
266.380	15.281	868.342	657.261
267.395	15.218	868.041	656.729
268.409	15.287	867.136	656.258
269.424	15.202	866.458	655.355
270.439	15.259	866.024	655.189
271.453	15.240	864.970	654.260
272.468	15.178	864.239	653.407
273.482	15.267	863.504	653.139
274.497	15.341	863.037	653.016
275.512	15.410	862.050	652.483
276.526	15.148	861.863	651.264
277.541	15.231	861.507	651.260
278.555	15.439	860.302	651.098
279.570	15.334	859.942	650.362
280.585	15.373	860.030	650.519
281.599	15.570	858.849	650.334
282.614	15.390	858.722	649.482
283.628	15.335	857.774	648.496
284.643	15.401	856.877	648.016
285.657	15.428	856.436	647.730
286.672	15.373	856.246	647.317
287.687	15.347	855.625	646.688
288.701	15.465	855.247	646.800
289.716	15.413	854.258	645.796
290.730	15.561	853.718	645.897
291.745	15.606	853.008	645.475
292.760	15.644	852.343	645.061
293.774	15.641	851.491	644.349
294.789	15.574	851.499	644.043
295.803	15.698	850.816	643.942
296.818	15.550	850.489	643.071
297.833	15.574	849.521	642.373
298.847	15.666	848.892	642.193
299.862	15.589	848.263	641.365
300.876	15.688	847.192	640.879
301.891	15.761	846.542	640.609
302.906	15.837	846.036	640.455
303.920	15.830	845.462	639.939
304.935	15.797	844.796	639.251
305.949	15.880	844.287	639.128
306.964	15.791	843.685	638.276
307.979	16.023	842.730	638.377
308.993	15.876	843.016	637.980
310.008	15.979	841.703	637.317
311.022	15.894	841.432	636.735
312.037	16.023	840.894	636.760
313.052	15.967	840.559	636.238
314.066	15.866	840.088	635.445
315.081	15.759	839.255	634.356
316.095	15.846	839.087	634.498
317.110	15.896	838.383	634.099
318.125	15.879	837.734	633.488
319.139	15.982	837.312	633.502
320.154	15.843	836.949	632.647
321.168	15.998	835.797	632.302
322.183	16.061	835.477	632.242
323.197	16.039	835.178	631.876
324.212	15.953	834.170	630.736
325.227	16.046	833.870	630.803
326.241	15.937	833.411	629.992
327.256	15.902	833.203	629.647
328.270	16.101	832.273	629.632
329.285	15.863	832.387	628.771
330.300	15.863	831.576	628.105
331.314	16.007	830.696	627.919
332.329	16.186	829.948	627.967
333.343	16.020	829.683	627.091
334.358	16.204	828.592	626.898
335.373	16.151	828.288	626.413
336.387	16.231	827.743	626.242
337.402	16.190	827.652	625.967
338.416	16.263	826.885	625.601
339.431	16.411	826.067	625.477
340.446	16.266	825.453	624.419
341.460	16.407	824.969	624.520
342.475	16.401	824.394	624.004
343.489	16.483	823.593	623.646
344.504	16.385	823.706	623.316
345.519	16.473	822.677	622.805
346.533	16.570	822.346	622.858
347.548	16.589	821.706	622.388
348.562	16.599	821.212	621.997
349.577	16.483	820.976	621.337
350.592	16.297	820.388	620.152
351.606	16.335	820.099	620.018
352.621	16.438	819.434	619.838
353.635	16.374	819.120	619.312
354.650	16.362	818.851	619.010
355.665	16.567	818.252	619.252
356.679	16.266	818.256	618.097
357.694	16.541	817.402	618.404
358.708	16.568	816.286	617.606
359.723	16.499	816.076	617.137
360.738	16.499	815.600	616.723
361.752	16.602	815.310	616.824
362.767	16.548	814.998	616.340
363.781	16.603	814.624	616.203
364.796	16.703	813.967	616.014
365.810	16.909	813.228	616.147
366.825	16.832	812.929	615.589
367.840	16.791	812.800	615.287
368.854	16.773	812.638	615.043
369.869	16.702	811.677	614.006
370.883	16.818	811.279	614.070
371.898	16.854	810.619	613.646
372.913	16.810	810.255	613.158
373.927	16.801	809.841	612.757
374.942	16.927	809.023	612.540
375.956	16.869	808.410	611.812
376.971	16.813	807.883	611.158
377.986	16.938	807.355	611.152
379.000	16.992	806.765	610.848
380.015	16.968	806.284	610.342
381.029	16.988	805.698	609.917
382.044	17.132	805.113	609.936
383.059	16.902	804.697	608.741
384.073	16.934	804.421	608.595
385.088	17.060	803.698	608.446
386.102	17.000	803.272	607.856
387.117	17.135	802.231	607.497
388.132	17.073	802.120	607.137
389.146	17.080	801.578	606.697
390.161	17.145	801.447	606.777
391.175	17.096	801.023	606.228
392.190	17.190	800.190	605.878
393.205	17.135	800.124	605.579
394.219	17.209	799.399	605.241
395.234	17.060	799.390	604.649
396.248	17.001	798.944	604.048
397.263	17.205	797.749	603.816
398.278	17.193	797.433	603.483
399.292	17.142	796.936	602.869
400.307	17.098	796.560	602.376
401.321	17.149	796.328	602.327
402.336	16.998	796.287	601.709
403.350	17.167	795.602	601.737
404.365	17.197	795.193	601.481
405.380	17.301	794.369	601.173
406.394	17.331	794.079	601.004
407.409	17.346	793.828	600.813
408.423	17.373	793.384	600.519
409.438	17.456	792.750	600.281
410.453	17.397	792.421	599.769
411.467	17.464	792.067	599.685
412.482	17.454	791.458	599.134
413.496	17.628	790.692	599.117
414.511	17.569	790.547	598.746
415.526	17.533	790.404	598.456
416.540	17.723	789.890	598.682
417.555	17.592	789.428	597.818
418.569	17.508	788.945	597.105
419.584	17.643	788.408	597.121
420.599	17.580	788.174	596.669
421.613	107.915	1287.359	1460.475
422.628	92.533	1360.076	1460.599
