DTS Sentinel unit serial number:	SN413079Multiplexer serial number:	ORYXHardware model number:	OX4-SRSoftware version number:	ORYX F/W v4.00 Oryx Data Collector v3.7.2.0data status	okinstallation	princeton_trtdifferential loss correction	single-endedforward channel	channel 3reverse channel	N/Adate	2019/09/14time	05:00:35forward acquisition time	60.00reverse acquisition time	0.00gamma	496.2192k internal	0.2338k external	0.2338temperature offset calibration	1.0053default loss term (dB/km)	0.3790temperature slope calibration	1.0000multiplexer offset coefficient	1.0000multiplexer slope coefficient	1.0000fibre end	0.00T internal ref (°C)	26.87T ext. ref 1 (°C)	3.37T ext. ref 2 (°C)	22.01length (m)	temperature (°C)	Stokes	anti-Stokes-747.200	111.548	-0.214	0.259
-746.185	13.876	0.070	0.055
-745.171	-95.246	0.303	-0.082
-744.156	223.910	0.062	-0.100
-743.142	-87.072	0.174	0.053
-742.127	-12.196	-0.271	0.178
-741.112	-200.000	-0.057	0.000
-740.098	-40.849	-0.311	0.161
-739.083	800.000	0.073	0.265
-738.069	120.350	0.179	-0.223
-737.054	220.187	0.100	-0.161
-736.039	14.605	-0.069	-0.054
-735.025	546.103	0.069	0.167
-734.010	288.532	-0.092	-0.168
-732.996	-72.994	-0.375	-0.138
-731.981	45.919	0.016	0.015
-730.966	161.189	-0.054	0.076
-729.952	611.450	0.095	0.237
-728.937	529.652	-0.053	0.127
-727.923	339.778	-0.102	0.199
-726.908	-7.574	-0.202	0.137
-725.894	800.000	-0.115	-0.322
-724.879	-23.790	-0.252	0.151
-723.864	-54.040	0.202	0.092
-722.850	-156.008	-0.444	0.028
-721.835	485.693	0.168	0.383
-720.821	560.173	0.046	-0.111
-719.806	-131.624	-0.312	-0.041
-718.791	-200.000	-0.015	-0.291
-717.777	-200.000	-0.051	0.305
-716.762	468.895	0.035	-0.080
-715.748	-200.000	0.030	0.428
-714.733	-88.766	0.120	-0.036
-713.718	-57.991	-0.215	-0.094
-712.704	-105.641	-0.232	-0.053
-711.689	-83.645	-0.103	0.033
-710.675	800.000	0.040	0.131
-709.660	-57.875	0.134	-0.059
-708.645	83.622	-0.215	-0.235
-707.631	285.634	-0.061	-0.109
-706.616	-135.832	-0.184	-0.022
-705.602	81.472	-0.177	-0.192
-704.587	-200.000	-0.014	-0.066
-703.572	-20.742	0.222	-0.137
-702.558	609.481	-0.087	-0.217
-701.543	113.867	-0.126	0.153
-700.529	-81.151	-0.285	0.095
-699.514	800.000	-0.092	-0.295
-698.499	-141.405	0.170	-0.017
-697.485	154.957	0.104	-0.144
-696.470	800.000	0.022	-0.082
-695.456	722.854	0.031	-0.082
-694.441	1.537	-0.215	0.155
-693.426	800.000	0.052	-0.218
-692.412	800.000	-0.085	-0.255
-691.397	56.187	0.229	-0.223
-690.383	92.075	-0.131	0.147
-689.368	6.432	-0.262	0.195
-688.354	-100.268	0.259	-0.064
-687.339	-109.340	-0.328	0.070
-686.324	-182.337	0.308	-0.006
-685.310	-110.285	0.405	0.084
-684.295	-107.800	0.115	0.025
-683.281	-200.000	-0.040	0.217
-682.266	-12.432	0.175	-0.114
-681.251	-160.865	0.252	0.013
-680.237	800.000	0.050	-0.207
-679.222	-132.555	0.122	0.016
-678.208	671.874	0.085	-0.221
-677.193	-136.739	0.194	0.022
-676.178	-172.029	-0.299	0.010
-675.164	-141.897	-0.297	-0.030
-674.149	-109.121	-0.382	0.081
-673.135	-200.000	-0.046	-0.372
-672.120	-51.660	-0.102	0.048
-671.105	-200.000	-0.015	-0.263
-670.091	226.769	-0.186	-0.303
-669.076	-39.132	-0.091	0.048
-668.062	-200.000	0.003	0.030
-667.047	-11.486	0.217	0.143
-666.032	82.105	-0.164	0.178
-665.018	-60.618	0.239	0.101
-664.003	-86.052	-0.129	0.040
-662.989	-110.624	-0.395	-0.082
-661.974	152.369	0.076	0.104
-660.959	-200.000	0.010	-0.108
-659.945	-200.000	0.045	-0.332
-658.930	-78.312	0.094	0.032
-657.916	26.673	-0.101	0.084
-656.901	5.704	-0.171	0.126
-655.886	451.124	-0.148	0.328
-654.872	-154.755	-0.298	-0.020
-653.857	-109.454	-0.263	-0.056
-652.843	-142.765	-0.224	-0.022
-651.828	35.180	-0.106	-0.093
-650.814	271.893	-0.038	0.067
-649.799	-200.000	-0.023	-0.105
-648.784	165.606	0.085	0.120
-647.770	206.833	0.119	-0.186
-646.755	-167.181	-0.186	0.008
-645.741	-155.036	-0.071	-0.005
-644.726	800.000	-0.061	0.245
-643.711	-85.758	0.141	-0.044
-642.697	-200.000	0.076	-0.558
-641.682	31.275	-0.149	-0.127
-640.668	-80.499	-0.260	0.087
-639.653	-157.214	0.158	0.010
-638.638	92.335	0.033	-0.037
-637.624	180.795	0.269	-0.394
-636.609	-86.102	-0.098	0.030
-635.595	690.152	-0.022	0.057
-634.580	-35.981	-0.204	0.110
-633.565	223.645	0.055	0.089
-632.551	-132.740	-0.048	-0.006
-631.536	-177.149	0.068	0.002
-630.522	-107.490	0.410	0.090
-629.507	-200.000	-0.029	-0.397
-628.492	105.885	-0.225	-0.266
-627.478	90.536	0.028	0.031
-626.463	800.000	0.069	0.198
-625.449	1.096	-0.079	0.056
-624.434	265.357	0.154	-0.268
-623.419	800.000	0.032	0.122
-622.405	37.101	-0.350	-0.309
-621.390	156.097	-0.133	0.183
-620.376	-21.696	0.169	-0.103
-619.361	800.000	0.079	0.281
-618.346	35.839	0.198	-0.174
-617.332	-200.000	-0.012	-0.157
-616.317	252.726	-0.169	0.288
-615.303	-140.149	-0.201	0.021
-614.288	212.266	-0.080	0.126
-613.273	-36.195	-0.238	0.128
-612.259	-1.909	0.096	-0.067
-611.244	-65.080	0.095	0.038
-610.230	-200.000	0.002	-0.121
-609.215	-96.422	-0.100	-0.026
-608.201	249.256	0.136	-0.230
-607.186	-126.730	-0.376	0.056
-606.171	268.277	0.088	0.153
-605.157	273.510	-0.131	-0.232
-604.142	-47.039	0.348	0.169
-603.128	-88.180	-0.156	-0.047
-602.113	-7.424	0.108	-0.073
-601.098	-200.000	-0.005	0.197
-600.084	-200.000	-0.016	-0.156
-599.069	-37.132	-0.089	0.048
-598.055	-74.746	0.241	0.086
-597.040	69.567	-0.064	-0.065
-596.025	-75.745	-0.094	-0.033
-595.011	177.628	-0.147	-0.214
-593.996	32.775	0.108	-0.093
-592.982	-47.089	-0.201	0.098
-591.967	-45.435	-0.262	-0.130
-590.952	109.691	0.180	-0.215
-589.938	-200.000	0.041	0.317
-588.923	-95.801	-0.199	-0.053
-587.909	12.772	-0.062	0.048
-586.894	-200.000	-0.006	0.062
-585.879	100.563	-0.082	0.095
-584.865	89.097	0.291	0.323
-583.850	800.000	0.050	-0.174
-582.836	-200.000	0.036	-0.269
-581.821	-161.367	0.182	-0.009
-580.806	-49.366	-0.225	-0.107
-579.792	187.087	-0.226	0.336
-578.777	76.469	0.131	-0.139
-577.763	244.390	-0.106	0.177
-576.748	800.000	-0.115	0.454
-575.733	74.094	0.018	-0.019
-574.719	-200.000	0.022	0.406
-573.704	86.986	-0.190	-0.209
-572.690	-53.632	-0.118	-0.054
-571.675	26.085	-0.127	0.106
-570.661	-16.094	0.043	-0.027
-569.646	-57.489	0.452	0.198
-568.631	98.129	0.087	0.099
-567.617	555.356	0.015	0.036
-566.602	-66.075	-0.068	0.027
-565.588	213.996	0.053	0.084
-564.573	48.691	-0.098	0.092
-563.558	-98.458	-0.515	-0.131
-562.544	-180.062	0.201	-0.004
-561.529	-111.129	-0.132	-0.027
-560.515	123.898	0.190	0.237
-559.500	254.830	-0.107	0.183
-558.485	-94.540	-0.177	-0.048
-557.471	800.000	-0.042	0.144
-556.456	-9.100	-0.170	0.114
-555.442	508.715	0.068	-0.157
-554.427	8.944	-0.358	-0.269
-553.412	43.441	0.081	0.073
-552.398	46.562	-0.063	0.059
-551.383	-39.689	-0.024	-0.013
-550.369	16.396	0.353	0.278
-549.354	-13.907	0.200	0.129
-548.339	-158.774	-0.262	-0.015
-547.325	-200.000	-0.005	-0.203
-546.310	88.329	-0.160	-0.177
-545.296	-200.000	-0.023	0.279
-544.281	-29.812	-0.397	0.225
-543.266	-133.952	-0.230	-0.028
-542.252	297.350	-0.050	0.092
-541.237	350.047	0.134	0.263
-540.223	235.415	-0.017	-0.028
-539.208	-61.407	-0.052	-0.022
-538.193	62.903	0.242	0.241
-537.179	-200.000	0.084	0.430
-536.164	-166.803	0.295	-0.012
-535.150	-200.000	0.000	-0.269
-534.135	149.678	-0.076	-0.103
-533.121	27.284	0.185	0.155
-532.106	334.948	0.073	0.141
-531.091	-18.720	-0.325	-0.202
-530.077	198.938	0.009	0.013
-529.062	-200.000	-0.012	0.225
-528.048	-198.282	-0.036	0.000
-527.033	143.261	0.138	-0.182
-526.018	120.493	0.061	0.075
-525.004	2.141	-0.307	0.221
-523.989	236.028	-0.068	-0.113
-522.975	262.110	-0.065	0.113
-521.960	106.494	0.073	-0.086
-520.945	0.163	-0.273	-0.194
-519.931	-172.545	-0.201	-0.006
-518.916	555.409	0.041	-0.099
-517.902	560.580	0.115	0.275
-516.887	51.994	0.225	0.213
-515.872	800.000	-0.086	-0.277
-514.858	155.059	0.105	0.144
-513.843	-96.690	0.248	0.065
-512.829	-200.000	-0.249	0.000
-511.814	-200.000	0.010	-0.262
-510.799	47.943	0.191	-0.177
-509.785	55.173	-0.318	-0.306
-508.770	47.338	0.201	0.186
-507.756	-26.559	0.165	-0.096
-506.741	-103.729	0.053	0.012
-505.726	36.173	0.096	-0.084
-504.712	150.014	0.136	-0.183
-503.697	-9.145	-0.126	0.084
-502.683	-66.224	-0.295	0.117
-501.668	457.136	-0.079	0.175
-500.653	-69.404	-0.233	-0.089
-499.639	499.854	0.090	0.207
-498.624	131.224	-0.143	0.183
-497.610	19.322	-0.316	-0.252
-496.595	-200.000	-0.011	0.124
-495.581	-200.000	0.044	-0.451
-494.566	74.467	-0.077	0.080
-493.551	-187.746	0.527	0.007
-492.537	-112.913	0.172	0.034
-491.522	4.597	-0.053	0.039
-490.508	188.434	-0.107	-0.159
-489.493	-106.491	-0.387	-0.086
-488.478	-200.000	0.017	-0.158
-487.464	-78.688	-0.124	-0.042
-486.449	111.434	-0.111	-0.132
-485.435	-80.507	0.247	-0.082
-484.420	800.000	-0.097	-0.364
-483.405	52.223	-0.054	-0.051
-482.391	556.013	0.159	-0.381
-481.376	-33.477	0.101	0.055
-480.362	-200.000	-0.045	-0.201
-479.347	800.000	-0.027	-0.104
-478.332	-200.000	0.013	-0.349
-477.318	294.096	0.039	0.071
-476.303	459.178	0.090	0.198
-475.289	-200.000	0.013	0.232
-474.274	-200.000	-0.027	-0.258
-473.259	446.706	-0.132	0.289
-472.245	-13.384	-0.091	-0.059
-471.230	-36.244	0.242	0.130
-470.216	111.390	0.151	0.180
-469.201	-200.000	-0.023	-0.406
-468.186	355.938	-0.082	-0.163
-467.172	-30.090	-0.418	-0.236
-466.157	-111.366	-0.385	-0.078
-465.143	-200.000	-0.041	0.219
-464.128	800.000	-0.023	-0.086
-463.113	-50.083	-0.298	-0.140
-462.099	44.437	-0.299	-0.273
-461.084	199.238	0.083	0.127
-460.070	800.000	0.051	0.209
-459.055	-154.460	-0.249	0.017
-458.040	-33.716	-0.260	-0.142
-457.026	40.095	-0.208	0.185
-456.011	800.000	0.056	0.189
-454.997	115.952	0.013	0.015
-453.982	554.587	-0.084	0.202
-452.968	-200.000	-0.012	-0.081
-451.953	-111.960	0.372	0.074
-450.938	800.000	0.069	-0.203
-449.924	69.257	-0.272	-0.277
-448.909	-5.667	0.443	0.301
-447.895	-200.000	-0.016	-0.198
-446.880	-113.795	0.087	-0.017
-445.865	68.664	0.169	0.172
-444.851	358.804	-0.139	-0.275
-443.836	8.834	-0.136	0.102
-442.822	91.834	-0.025	-0.028
-441.807	-34.214	0.277	0.151
-440.792	391.719	0.167	-0.345
-439.778	30.759	-0.141	-0.120
-438.763	497.477	-0.037	-0.084
-437.749	-200.000	-0.052	-0.258
-436.734	32.396	-0.197	-0.169
-435.719	15.639	0.178	-0.138
-434.705	-7.042	0.154	-0.104
-433.690	-131.150	0.099	0.013
-432.676	-91.163	0.182	-0.052
-431.661	-200.000	-0.049	0.349
-430.646	49.354	0.187	0.174
-429.632	-200.000	0.042	0.187
-428.617	-200.000	-0.004	0.232
-427.603	-145.212	-0.076	-0.007
-426.588	-200.000	0.025	0.205
-425.573	75.631	-0.141	-0.148
-424.559	-200.000	0.007	-0.237
-423.544	760.481	0.136	-0.367
-422.530	48.004	-0.079	0.073
-421.515	96.422	-0.062	0.071
-420.500	-63.175	-0.074	0.030
-419.486	11.650	-0.245	-0.186
-418.471	44.426	0.086	0.078
-417.457	-148.485	0.182	0.015
-416.442	-92.797	-0.075	-0.021
-415.428	-20.255	-0.228	-0.139
-414.413	9.016	0.219	0.164
-413.398	531.574	-0.053	0.123
-412.384	-136.567	-0.307	-0.035
-411.369	8.211	0.201	0.150
-410.355	-66.635	0.237	0.093
-409.340	800.000	0.033	0.136
-408.325	-200.000	0.032	0.144
-407.311	-97.048	-0.213	-0.055
-406.296	-200.000	-0.026	-0.443
-405.282	-136.797	0.094	-0.011
-404.267	-132.556	-0.043	-0.005
-403.252	-200.000	-0.046	-0.315
-402.238	-200.000	-0.015	-0.206
-401.223	-200.000	0.042	0.310
-400.209	-69.328	0.046	-0.017
-399.194	-200.000	0.001	-0.111
-398.179	12.735	-0.051	-0.039
-397.165	-128.514	-0.138	0.019
-396.150	174.864	0.186	0.267
-395.136	-52.286	-0.325	-0.149
-394.121	343.848	-0.042	-0.082
-393.106	188.315	0.151	0.223
-392.092	-200.000	-0.019	0.398
-391.077	177.317	0.032	-0.045
-390.063	284.867	0.089	-0.158
-389.048	-88.182	0.238	0.071
-388.033	442.307	0.152	-0.330
-387.019	-174.173	0.119	-0.003
-386.004	120.218	0.305	-0.375
-384.990	-200.000	-0.015	-0.383
-383.975	-117.201	0.177	0.032
-382.960	181.798	-0.064	-0.093
-381.946	-200.000	0.020	-0.126
-380.931	280.970	-0.051	0.090
-379.917	236.937	-0.075	0.123
-378.902	-120.139	-0.131	-0.022
-377.888	-19.261	0.301	-0.185
-376.873	-13.838	0.227	-0.145
-375.858	-133.913	-0.131	0.016
-374.844	75.268	0.090	0.094
-373.829	384.672	-0.135	0.275
-372.815	-170.344	-0.127	0.004
-371.800	800.000	0.126	0.509
-370.785	800.000	-0.026	-0.086
-369.771	-111.488	0.040	-0.008
-368.756	7.876	0.086	0.064
-367.742	252.778	0.030	-0.051
-366.727	800.000	0.094	0.276
-365.712	-115.732	-0.160	0.030
-364.698	17.927	-0.088	-0.069
-363.683	-200.000	-0.037	0.185
-362.669	800.000	-0.129	0.366
-361.654	624.308	-0.054	0.135
-360.639	-188.751	-0.303	0.004
-359.625	109.891	0.248	-0.294
-358.610	50.266	0.370	0.345
-357.596	800.000	0.095	-0.298
-356.581	490.338	-0.068	-0.154
-355.566	-83.057	-0.274	-0.087
-354.552	800.000	-0.080	0.225
-353.537	644.065	-0.046	0.117
-352.523	-15.318	-0.429	-0.271
-351.508	-2.735	0.008	-0.006
-350.493	216.990	0.179	0.282
-349.479	377.962	-0.086	0.173
-348.464	-55.655	0.138	0.061
-347.450	-13.400	0.264	0.169
-346.435	478.548	-0.107	0.238
-345.420	-48.814	0.227	0.108
-344.406	239.104	0.168	-0.276
-343.391	-175.076	-0.229	0.006
-342.377	-95.241	-0.247	-0.066
-341.362	2.265	-0.183	0.131
-340.348	195.845	-0.167	0.251
-339.333	800.000	0.062	-0.255
-338.318	-133.350	0.127	0.016
-337.304	-59.014	0.184	0.079
-336.289	-200.000	-0.016	-0.123
-335.275	-160.727	0.061	-0.003
-334.260	63.945	0.237	-0.236
-333.245	-65.823	-0.303	0.120
-332.231	800.000	0.045	0.177
-331.216	-22.356	-0.260	0.156
-330.202	800.000	0.130	0.392
-329.187	800.000	0.057	0.233
-328.172	-200.000	0.021	-0.159
-327.158	-142.684	-0.162	0.016
-326.143	9.874	0.339	0.254
-325.129	-17.290	-0.297	-0.185
-324.114	-24.859	0.126	0.074
-323.099	-171.113	0.216	-0.007
-322.085	249.452	-0.084	-0.140
-321.070	-101.286	-0.294	0.071
-320.056	-200.000	-0.014	-0.194
-319.041	-63.106	-0.284	0.116
-318.026	81.721	0.326	0.349
-317.012	800.000	0.075	0.238
-315.997	505.676	-0.029	-0.066
-314.983	186.796	0.214	0.315
-313.968	15.352	-0.009	-0.007
-312.953	33.975	0.098	-0.084
-311.939	800.000	-0.035	0.108
-310.924	-23.401	-0.317	-0.188
-309.910	-55.465	-0.150	-0.066
-308.895	485.535	-0.098	0.219
-307.880	-4.500	-0.231	-0.158
-306.866	800.000	0.043	0.165
-305.851	-200.000	-0.017	-0.204
-304.837	-29.514	0.314	0.177
-303.822	-200.000	-0.010	0.153
-302.807	-117.269	0.454	-0.081
-301.793	-200.000	0.028	0.193
-300.778	-137.553	-0.402	0.045
-299.764	-200.000	0.004	-0.088
-298.749	-21.728	0.129	0.077
-297.735	261.286	-0.096	0.164
-296.720	-125.132	0.270	-0.041
-295.705	-70.500	-0.183	-0.068
-294.691	-29.381	0.403	0.227
-293.676	-200.000	0.014	0.352
-292.662	-31.085	0.120	-0.067
-291.647	-78.275	-0.168	0.057
-290.632	-52.235	0.107	-0.049
-289.618	222.966	-0.287	-0.457
-288.603	-127.909	0.152	0.022
-287.589	480.419	0.175	-0.391
-286.574	-200.000	0.010	0.171
-285.559	-200.000	0.020	0.091
-284.545	-195.556	0.214	0.002
-283.530	115.274	0.221	-0.266
-282.516	800.000	-0.046	-0.157
-281.501	129.840	0.090	-0.113
-280.486	502.564	-0.091	-0.207
-279.472	-51.247	0.129	-0.060
-278.457	56.124	-0.192	-0.184
-277.443	-200.000	-0.006	0.288
-276.428	-40.190	-0.269	-0.138
-275.413	-87.684	-0.308	0.092
-274.399	800.000	-0.027	-0.113
-273.384	614.361	0.022	0.055
-272.370	-31.794	-0.149	-0.082
-271.355	-88.655	0.144	0.042
-270.340	680.854	0.128	0.329
-269.326	178.027	-0.178	0.256
-268.311	227.742	0.112	0.179
-267.297	-200.000	0.005	0.203
-266.282	-200.000	-0.027	-0.338
-265.267	-64.705	0.367	-0.147
-264.253	-200.000	0.001	-0.089
-263.238	-165.258	0.233	-0.010
-262.224	-125.324	-0.390	-0.059
-261.209	122.867	-0.225	0.278
-260.195	-61.063	0.144	-0.060
-259.180	-29.939	-0.096	0.054
-258.165	800.000	-0.038	0.109
-257.151	367.905	0.058	0.116
-256.136	-166.130	0.190	-0.008
-255.122	0.369	0.213	-0.150
-254.107	243.718	0.108	-0.179
-253.092	19.358	0.119	-0.094
-252.078	-13.945	-0.112	-0.071
-251.063	-200.000	-0.028	-0.379
-250.049	-34.124	0.263	0.142
-249.034	26.270	0.157	-0.129
-248.019	79.161	-0.081	-0.086
-247.005	-200.000	0.059	-0.272
-245.990	150.134	-0.175	0.234
-244.976	-15.010	0.483	0.305
-243.961	-103.324	-0.274	-0.064
-242.946	58.420	0.087	-0.084
-241.932	-86.617	0.442	0.133
-240.917	-70.143	0.196	-0.073
-239.903	-169.746	-0.048	-0.002
-238.888	60.852	-0.208	0.203
-237.873	167.601	0.158	-0.220
-236.859	1.839	-0.067	-0.047
-235.844	506.406	0.142	-0.324
-234.830	800.000	0.046	-0.135
-233.815	-107.428	0.086	-0.018
-232.800	800.000	-0.036	0.124
-231.786	99.247	-0.160	-0.182
-230.771	-9.632	-0.150	-0.099
-229.757	-14.924	-0.030	-0.019
-228.742	304.669	-0.077	-0.140
-227.727	98.500	-0.071	0.080
-226.713	-200.000	-0.038	0.258
-225.698	-73.021	-0.195	0.071
-224.684	-90.419	0.224	-0.064
-223.669	36.258	0.208	-0.180
-222.655	197.495	-0.103	-0.155
-221.640	-102.491	-0.267	0.063
-220.625	-154.696	-0.082	-0.005
-219.611	326.821	0.060	0.114
-218.596	-20.912	-0.298	-0.180
-217.582	324.296	0.221	-0.415
-216.567	529.856	-0.098	-0.227
-215.552	268.014	-0.231	-0.398
-214.538	409.584	0.097	0.202
-213.523	-6.661	-0.176	0.118
-212.509	-140.692	-0.165	-0.017
-211.494	-200.000	-0.029	-0.182
-210.479	59.180	0.172	0.167
-209.465	-192.556	0.221	-0.002
-208.450	-21.424	-0.082	-0.049
-207.436	-35.683	-0.296	0.158
-206.421	-98.772	0.159	0.040
-205.406	112.918	-0.246	-0.293
-204.392	74.835	0.149	-0.155
-203.377	-8.795	0.250	0.165
-202.363	314.716	0.153	-0.283
-201.348	89.909	0.096	-0.106
-200.333	-37.825	-0.337	-0.176
-199.319	48.158	-0.163	-0.150
-198.304	-77.082	0.348	-0.119
-197.290	178.968	0.243	-0.349
-196.275	-168.208	-0.246	-0.009
-195.260	-200.000	0.055	0.263
-194.246	800.000	0.058	-0.209
-193.231	-71.693	0.156	-0.057
-192.217	250.884	-0.079	0.131
-191.202	-200.000	-0.009	0.151
-190.187	-55.876	0.311	-0.136
-189.173	261.836	0.268	0.457
-188.158	345.167	-0.045	-0.088
-187.144	483.691	-0.060	0.135
-186.129	152.407	-0.041	0.055
-185.114	465.184	0.211	0.463
-184.100	-97.892	0.175	0.044
-183.085	253.021	0.110	-0.184
-182.071	-200.000	-0.022	0.198
-181.056	-200.000	-0.009	-0.474
-180.042	-148.190	0.111	0.009
-179.027	17.297	-0.186	0.145
-178.012	800.000	-0.077	0.320
-176.998	52.409	-0.082	-0.077
-175.983	800.000	0.045	0.154
-174.969	67.187	0.060	-0.060
-173.954	-72.621	-0.094	0.034
-172.939	54.088	-0.062	0.058
-171.925	-63.777	0.379	-0.152
-170.910	-88.488	0.191	0.056
-169.896	36.656	0.118	-0.102
-168.881	-34.678	-0.241	-0.130
-167.866	-79.672	0.230	-0.076
-166.852	800.000	-0.093	-0.356
-165.837	-48.353	-0.076	0.036
-164.823	420.873	0.100	0.211
-163.808	143.609	0.092	0.121
-162.793	39.604	0.389	0.342
-161.779	-24.254	-0.221	0.130
-160.764	314.766	-0.185	0.341
-159.750	-117.930	-0.199	0.035
-158.735	767.512	0.093	-0.249
-157.720	800.000	-0.025	0.079
-156.706	-182.502	-0.324	0.006
-155.691	-6.270	0.169	0.113
-154.677	-59.988	0.475	0.199
-153.662	-24.325	0.081	0.048
-152.647	800.000	0.104	0.299
-151.633	244.745	0.147	0.243
-150.618	-131.281	0.131	-0.017
-149.604	306.771	0.074	0.136
-148.589	248.003	-0.129	-0.213
-147.574	-114.027	0.090	-0.017
-146.560	3.343	-0.120	-0.086
-145.545	-34.104	0.431	-0.232
-144.531	-15.283	0.060	0.038
-143.516	-167.131	-0.295	-0.012
-142.502	-200.000	-0.012	0.132
-141.487	-200.000	-0.009	-0.086
-140.472	-34.375	-0.246	-0.132
-139.458	9.431	0.336	0.250
-138.443	7.209	0.284	0.208
-137.429	-30.148	0.163	0.091
-136.414	-119.181	-0.104	0.018
-135.399	3.487	-0.174	0.124
-134.385	-151.009	0.561	-0.041
-133.370	120.565	-0.015	-0.018
-132.356	-200.000	0.086	-0.399
-131.341	448.855	0.068	-0.147
-130.326	-200.000	-0.001	-0.140
-129.312	-200.000	-0.001	0.231
-128.297	197.281	0.129	-0.193
-127.283	-81.124	0.072	-0.023
-126.268	-43.930	0.031	-0.015
-125.253	302.946	-0.107	-0.194
-124.239	53.080	0.224	0.210
-123.224	447.062	-0.067	0.144
-122.210	525.476	0.113	-0.261
-121.195	-0.975	-0.135	0.093
-120.180	-134.298	0.233	0.028
-119.166	-200.000	-0.043	0.199
-118.151	-78.608	-0.083	0.028
-117.137	113.431	0.181	-0.215
-116.122	-200.000	-0.000	0.143
-115.107	-122.698	0.362	-0.057
-114.093	-200.000	-0.032	0.203
-113.078	-144.294	0.367	0.033
-112.064	-2.314	0.260	-0.178
-111.049	-22.418	0.358	-0.212
-110.034	46.386	0.344	-0.312
-109.020	604.678	-0.094	-0.229
-108.005	-52.298	-0.224	-0.102
-106.991	-200.000	0.010	0.057
-105.976	81.509	0.170	0.180
-104.962	-128.728	-0.431	-0.060
-103.947	-200.000	-0.005	0.049
-102.932	-54.269	0.140	0.062
-101.918	-200.000	0.002	0.135
-100.903	32.216	0.278	0.235
-99.889	-36.959	-0.259	0.136
-98.874	52.699	0.091	0.085
-97.859	-66.018	-0.195	-0.076
-96.845	-81.600	-0.121	-0.039
-95.830	167.809	0.052	-0.073
-94.816	-108.447	-0.288	0.061
-93.801	-0.592	0.154	0.107
-92.786	800.000	0.084	-0.283
-91.772	281.530	-0.090	-0.158
-90.757	4.697	0.174	0.125
-89.743	800.000	-0.013	0.054
-88.728	168.087	0.034	0.048
-87.713	626.733	0.117	-0.288
-86.699	5.715	-0.135	-0.098
-85.684	156.667	0.193	-0.261
-84.670	79.411	-0.140	0.147
-83.655	-16.650	0.081	0.050
-82.640	16.262	0.168	-0.130
-81.626	-24.388	-0.171	0.100
-80.611	14.335	0.369	-0.281
-79.597	800.000	-0.099	-0.305
-78.582	28.453	0.228	-0.188
-77.567	6.209	0.136	0.099
-76.553	1.746	0.115	-0.081
-75.538	-63.868	0.246	0.098
-74.524	-7.032	0.123	-0.082
-73.509	-200.000	-0.033	0.148
-72.494	-200.000	-0.006	0.024
-71.480	-200.000	0.007	-0.060
-70.465	92.706	0.190	0.210
-69.451	-54.713	-0.063	-0.028
-68.436	-200.000	-0.043	-0.337
-67.422	800.000	0.043	0.143
-66.407	-200.000	0.005	-0.154
-65.392	420.592	0.138	0.289
-64.378	-143.892	0.310	0.029
-63.363	-16.544	-0.323	-0.200
-62.349	-200.000	0.015	0.207
-61.334	110.797	-0.726	-0.853
-60.319	51.561	0.734	0.682
-59.305	800.000	-0.355	-1.067
-58.290	282.338	0.742	1.300
-57.276	800.000	0.491	1.622
-56.261	-200.000	116.333	661.823
-55.246	533.517	1531.892	3544.662
-54.232	176.676	2705.494	3842.781
-53.217	108.334	2182.851	2544.360
-52.203	37.825	1701.186	1476.398
-51.188	29.953	1517.443	1263.424
-50.173	27.739	1492.212	1227.487
-49.159	52.529	1551.619	1447.016
-48.144	50.330	1566.933	1446.184
-47.130	30.262	1521.995	1269.126
-46.115	27.185	1506.785	1235.517
-45.100	26.970	1503.360	1231.199
-44.086	26.944	1501.792	1229.691
-43.071	26.744	1499.848	1226.698
-42.057	26.886	1498.114	1226.187
-41.042	26.788	1496.993	1224.560
-40.027	26.836	1495.202	1223.369
-39.013	26.811	1493.737	1221.959
-37.998	26.791	1492.546	1220.798
-36.984	26.847	1491.508	1220.281
-35.969	26.860	1489.985	1219.074
-34.954	26.800	1488.805	1217.657
-33.940	26.793	1487.351	1216.372
-32.925	26.849	1486.108	1215.680
-31.911	26.902	1484.400	1214.591
-30.896	26.878	1483.367	1213.536
-29.881	26.931	1482.392	1213.042
-28.867	26.930	1480.535	1211.468
-27.852	26.817	1480.180	1210.374
-26.838	26.984	1478.326	1209.926
-25.823	26.946	1476.638	1208.245
-24.809	27.001	1474.645	1206.929
-23.794	26.852	1473.821	1205.221
-22.779	26.921	1472.348	1204.423
-21.765	26.885	1471.575	1203.506
-20.750	26.984	1469.894	1202.738
-19.736	26.930	1469.262	1201.817
-18.721	26.983	1467.671	1200.819
-17.706	26.929	1466.835	1199.732
-16.692	26.943	1465.848	1198.967
-15.677	26.896	1465.142	1198.032
-14.663	26.891	1463.684	1196.757
-13.648	26.884	1463.149	1196.228
-12.633	26.748	1462.898	1195.077
-11.619	26.828	1461.965	1194.797
-10.604	26.891	1460.676	1194.112
-9.590	26.849	1459.560	1192.874
-8.575	26.848	1459.116	1192.456
-7.560	26.869	1457.553	1191.273
-6.546	26.849	1456.955	1190.599
-5.531	26.869	1456.093	1189.979
-4.517	26.875	1455.114	1189.173
-3.502	26.942	1454.608	1189.152
-2.487	26.782	1453.406	1187.076
-1.473	26.837	1452.614	1186.743
-0.458	26.962	1450.402	1185.701
0.556	27.037	1441.008	1174.065
1.571	24.121	1416.674	1135.574
2.586	20.930	1354.576	1066.213
3.600	19.231	1271.632	991.068
4.615	17.932	1227.003	948.987
5.629	15.398	1170.487	891.749
6.644	8.930	1088.913	797.452
7.659	4.066	1052.008	746.943
8.673	3.362	1046.880	739.857
9.688	3.356	1043.775	737.567
10.702	3.361	1041.968	736.247
11.717	3.421	1040.140	735.180
12.731	5.109	1041.558	744.172
13.746	11.714	1050.375	782.085
14.761	17.808	1058.489	817.340
15.775	19.545	1059.847	826.636
16.790	19.072	1058.524	823.272
17.804	18.133	1056.102	816.833
18.819	17.279	1054.218	811.228
19.834	16.791	1052.895	807.810
20.848	16.658	1052.271	806.627
21.863	16.389	1051.580	804.743
22.877	16.277	1050.614	803.399
23.892	16.144	1049.628	801.944
24.907	16.060	1049.111	801.077
25.921	16.065	1048.765	800.767
26.936	15.999	1047.621	799.511
27.950	16.051	1046.322	798.697
28.965	16.061	1045.893	798.345
29.980	16.209	1044.324	797.778
30.994	16.253	1043.272	797.108
32.009	16.433	1042.873	797.582
33.023	16.417	1041.967	796.742
34.038	16.438	1040.962	796.004
35.053	16.384	1039.827	794.811
36.067	16.287	1039.053	793.692
37.082	16.198	1038.262	792.603
38.096	16.227	1037.530	792.107
39.111	16.268	1037.002	791.829
40.126	16.300	1036.393	791.443
41.140	16.153	1035.218	789.785
42.155	15.944	1033.953	787.776
43.169	15.818	1032.958	786.356
44.184	15.822	1031.613	785.284
45.199	15.876	1030.412	784.550
46.213	15.824	1029.294	783.387
47.228	15.947	1028.445	783.245
48.242	16.109	1027.505	783.213
49.257	16.211	1026.667	782.977
50.271	16.229	1025.406	782.032
51.286	16.221	1024.886	781.528
52.301	16.243	1023.985	780.874
53.315	16.239	1022.990	780.029
54.330	16.239	1022.241	779.388
55.344	15.973	1021.432	777.472
56.359	15.986	1020.459	776.725
57.374	15.883	1019.902	775.756
58.388	15.920	1018.897	775.096
59.403	16.024	1017.918	774.759
60.417	15.856	1017.226	773.390
61.432	15.913	1016.217	772.816
62.447	15.738	1016.313	772.019
63.461	15.804	1015.148	771.366
64.476	15.744	1014.169	770.283
65.490	15.775	1013.002	769.471
66.505	15.718	1012.591	768.830
67.520	15.820	1011.045	768.051
68.534	15.648	1011.168	767.291
69.549	15.752	1009.955	766.777
70.563	15.834	1008.817	766.222
71.578	15.830	1008.828	766.141
72.593	15.705	1007.692	764.642
73.607	15.632	1006.317	763.202
74.622	15.621	1005.809	762.699
75.636	15.508	1005.184	761.645
76.651	15.710	1003.995	761.589
77.666	15.723	1003.149	760.940
78.680	15.688	1003.198	760.754
79.695	15.714	1002.445	760.231
80.709	15.736	1001.910	759.856
81.724	15.816	1000.730	759.258
82.739	15.940	999.723	758.985
83.753	15.945	999.098	758.464
84.768	16.067	998.639	758.596
85.782	16.129	997.926	758.268
86.797	16.369	997.193	758.721
87.812	16.263	996.513	757.661
88.826	16.259	995.320	756.670
89.841	16.101	994.686	755.413
90.855	16.213	993.444	754.903
91.870	16.246	993.166	754.773
92.884	16.399	992.518	754.897
93.899	16.376	991.835	754.208
94.914	16.405	991.057	753.679
95.928	16.370	990.761	753.234
96.943	16.433	989.981	752.854
97.957	16.403	988.867	751.805
98.972	16.247	988.036	750.417
99.987	16.316	987.171	749.999
101.001	16.342	986.515	749.550
102.016	16.367	985.595	748.896
103.030	16.121	984.756	747.101
104.045	16.310	984.004	747.300
105.060	16.324	983.080	746.595
106.074	16.218	982.222	745.410
107.089	16.094	980.930	743.813
108.103	15.972	979.846	742.389
109.118	15.841	978.637	740.830
110.133	15.887	978.001	740.486
111.147	15.814	977.349	739.606
112.162	15.817	976.447	738.873
113.176	15.870	975.715	738.486
114.191	15.896	975.204	738.146
115.206	15.931	974.154	737.441
116.220	15.948	973.640	737.061
117.235	15.908	972.487	735.947
118.249	15.861	971.696	735.078
119.264	15.974	970.827	734.850
120.279	15.818	970.750	734.045
121.293	15.923	969.200	733.264
122.308	15.857	968.303	732.233
123.322	15.733	967.985	731.388
124.337	15.721	966.888	730.446
125.352	15.711	965.262	729.108
126.366	15.672	964.366	728.200
127.381	15.838	962.982	727.804
128.395	15.674	962.069	726.344
129.410	15.739	961.135	725.857
130.424	15.808	960.542	725.639
131.439	15.888	959.540	725.162
132.454	15.859	958.733	724.364
133.468	16.022	957.788	724.288
134.483	15.958	957.380	723.638
135.497	15.874	957.022	722.945
136.512	15.957	956.234	722.643
137.527	15.941	955.134	721.680
138.541	15.983	954.920	721.631
139.556	16.052	953.640	720.896
140.570	15.885	953.622	720.103
141.585	16.050	952.813	720.137
142.600	16.125	952.264	719.977
143.614	16.270	951.628	720.052
144.629	16.361	950.812	719.758
145.643	16.331	950.174	719.082
146.658	16.192	949.016	717.550
147.673	16.312	947.920	717.170
148.687	16.099	947.119	715.596
149.702	16.262	945.655	715.116
150.716	16.051	945.197	713.815
151.731	16.014	944.277	712.898
152.746	16.079	943.795	712.746
153.760	16.109	943.346	712.472
154.775	16.141	942.671	712.032
155.789	16.272	941.514	711.650
156.804	16.351	940.673	711.285
157.819	16.143	940.303	710.067
158.833	16.365	939.330	710.201
159.848	16.435	938.882	710.094
160.862	16.313	938.404	709.156
161.877	16.451	937.669	709.118
162.892	16.196	936.545	707.136
163.906	16.114	935.575	705.997
164.921	15.979	935.055	704.980
165.935	15.991	934.022	704.187
166.950	16.324	932.469	704.343
167.964	16.160	931.855	703.135
168.979	16.123	930.855	702.165
169.994	16.229	929.483	701.506
171.008	16.218	929.009	701.043
172.023	16.210	928.395	700.480
173.037	16.289	927.813	700.307
174.052	16.352	927.227	700.066
175.067	16.446	926.085	699.532
176.081	16.203	925.468	697.998
177.096	16.061	924.797	696.844
178.110	16.147	923.601	696.237
179.125	16.127	923.254	695.828
180.140	16.300	922.264	695.733
181.154	16.196	921.601	694.745
182.169	16.306	921.130	694.781
183.183	16.412	920.518	694.695
184.198	16.440	919.939	694.311
185.213	16.564	919.127	694.147
186.227	16.469	918.608	693.304
187.242	16.499	917.957	692.874
188.256	16.571	917.742	692.944
189.271	16.657	917.320	692.918
190.286	16.851	916.072	692.706
191.300	16.589	914.821	690.629
192.315	16.288	913.854	688.609
193.329	16.134	913.571	687.709
194.344	16.089	912.957	686.999
195.359	16.282	912.331	687.256
196.373	16.409	911.811	687.319
197.388	16.540	911.528	687.579
198.402	16.689	910.897	687.646
199.417	16.729	910.899	687.747
200.432	16.747	910.512	687.469
201.446	16.908	909.764	687.495
202.461	16.874	909.235	686.897
203.475	16.963	909.103	687.096
204.490	17.001	908.379	686.645
205.504	16.942	907.178	685.437
206.519	16.619	906.348	683.446
207.534	16.718	905.719	683.307
208.548	16.703	904.753	682.459
209.563	16.642	904.092	681.655
210.577	16.713	903.527	681.454
211.592	16.678	902.739	680.659
212.607	16.993	902.282	681.521
213.621	16.929	902.213	681.152
214.636	16.931	901.451	680.522
215.650	16.893	900.483	679.580
216.665	16.869	900.225	679.230
217.680	16.901	899.749	678.937
218.694	17.101	899.292	679.335
219.709	17.048	899.051	678.877
220.723	17.020	898.270	678.118
221.738	17.095	897.484	677.764
222.753	17.120	896.273	676.890
223.767	17.018	896.225	676.384
224.782	17.017	895.345	675.657
225.796	17.300	894.278	675.917
226.811	17.290	893.606	675.309
227.826	17.112	893.240	674.266
228.840	17.110	892.547	673.678
229.855	16.953	891.968	672.557
230.869	17.054	891.162	672.289
231.884	16.984	890.310	671.312
232.899	17.056	889.650	671.038
233.913	16.916	889.295	670.156
234.928	16.965	888.454	669.657
235.942	16.948	887.575	668.870
236.957	17.030	886.543	668.357
237.972	16.819	886.390	667.351
238.986	16.933	885.584	667.133
240.001	16.775	885.430	666.338
241.015	16.937	884.409	666.146
242.030	16.986	883.737	665.773
243.045	17.112	883.314	665.891
244.059	17.017	882.665	664.968
245.074	17.197	881.838	664.993
246.088	17.131	881.429	664.365
247.103	17.183	881.168	664.316
248.117	17.352	880.321	664.276
249.132	17.289	880.471	664.086
250.147	17.627	879.740	664.795
251.161	17.715	878.917	664.455
252.176	17.701	878.389	663.946
253.190	17.773	877.322	663.360
254.205	17.818	877.011	663.239
255.220	17.905	876.196	662.901
256.234	17.824	876.036	662.407
257.249	17.806	875.194	661.643
258.263	17.786	875.162	661.483
259.278	17.729	874.090	660.393
260.293	17.848	873.825	660.596
261.307	17.881	873.187	660.182
262.322	18.040	872.461	660.187
263.336	17.907	872.073	659.324
264.351	17.966	871.235	658.858
265.366	17.982	870.616	658.395
266.380	17.918	870.356	657.893
267.395	17.937	869.507	657.268
268.409	17.957	868.330	656.396
269.424	17.905	867.953	655.854
270.439	17.932	866.722	654.968
271.453	17.900	866.264	654.443
272.468	17.925	865.331	653.776
273.482	17.681	865.466	652.884
274.497	17.700	864.570	652.223
275.512	17.807	863.720	651.935
276.526	17.831	862.707	651.204
277.541	17.759	862.334	650.589
278.555	17.866	861.441	650.266
279.570	17.929	861.222	650.280
280.585	18.069	860.860	650.484
281.599	18.170	859.998	650.159
282.614	18.050	859.679	649.404
283.628	17.997	858.900	648.559
284.643	18.019	858.445	648.240
285.657	17.954	857.955	647.564
286.672	17.924	857.778	647.262
287.687	17.955	857.038	646.762
288.701	17.941	856.628	646.345
289.716	18.148	855.685	646.358
290.730	18.048	854.894	645.324
291.745	18.114	854.717	645.384
292.760	17.998	853.942	644.303
293.774	18.164	853.470	644.517
294.789	18.277	852.652	644.266
295.803	18.285	852.211	643.906
296.818	18.086	851.825	642.810
297.833	18.063	850.800	641.894
298.847	18.193	849.769	641.545
299.862	18.162	849.485	641.159
300.876	18.201	848.791	640.726
301.891	18.196	848.192	640.196
302.906	18.246	847.675	639.939
303.920	18.402	847.271	640.158
304.935	18.419	846.587	639.648
305.949	18.469	846.052	639.374
306.964	18.552	845.431	639.156
307.979	18.437	844.867	638.245
308.993	18.442	844.099	637.627
310.008	18.555	843.579	637.599
311.022	18.520	842.982	636.960
312.037	18.471	842.804	636.589
313.052	18.250	842.362	635.376
314.066	18.324	841.508	634.952
315.081	18.362	840.674	634.406
316.095	18.077	840.130	632.885
317.110	18.268	839.763	633.259
318.125	18.359	839.355	633.234
319.139	18.265	838.840	632.442
320.154	18.330	838.168	632.117
321.168	18.254	837.940	631.610
322.183	18.321	837.265	631.292
323.197	18.360	836.727	630.973
324.212	18.436	836.022	630.667
325.227	18.474	835.303	630.209
326.241	18.467	835.011	629.906
327.256	18.452	834.401	629.334
328.270	18.391	833.673	628.506
329.285	18.502	833.150	628.465
330.300	18.459	832.286	627.598
331.314	18.516	832.108	627.619
332.329	18.472	831.465	626.917
333.343	18.429	831.176	626.484
334.358	18.579	830.705	626.624
335.373	18.753	829.863	626.567
336.387	18.630	829.410	625.722
337.402	18.693	829.030	625.608
338.416	18.911	828.116	625.657
339.431	18.730	828.138	624.960
340.446	18.933	827.164	624.907
341.460	18.949	827.277	624.996
342.475	19.052	826.146	624.460
343.489	19.004	825.793	623.966
344.504	19.132	825.453	624.116
345.519	19.213	824.600	623.710
346.533	19.101	824.524	623.189
347.548	19.051	823.848	622.443
348.562	18.874	823.366	621.383
349.577	18.814	822.584	620.522
350.592	18.815	822.181	620.169
351.606	18.782	821.545	619.514
352.621	18.740	821.152	619.012
353.635	18.859	820.321	618.759
354.650	18.905	820.380	618.913
355.665	18.948	819.745	618.537
356.679	18.975	819.227	618.185
357.694	19.026	818.885	618.056
358.708	19.127	818.363	617.972
359.723	18.891	818.051	616.832
360.738	18.961	817.125	616.332
361.752	18.882	816.860	615.796
362.767	19.090	816.349	616.099
363.781	19.070	816.318	615.950
364.796	19.091	815.932	615.681
365.810	19.275	815.450	615.918
366.825	19.487	814.600	615.980
367.840	19.412	814.710	615.742
368.854	19.464	814.007	615.340
369.869	19.221	813.655	614.152
370.883	19.292	812.914	613.791
371.898	19.327	812.295	613.395
372.913	19.359	812.190	613.377
373.927	19.389	811.590	612.973
374.942	19.456	810.654	612.449
375.956	19.267	809.862	611.129
376.971	19.534	809.575	611.804
377.986	19.487	809.390	611.445
379.000	19.593	808.695	611.240
380.015	19.702	807.982	611.031
381.029	19.628	807.605	610.431
382.044	19.555	806.669	609.413
383.059	19.562	806.332	609.130
384.073	19.699	805.696	609.075
385.088	19.637	805.369	608.557
386.102	19.466	804.870	607.526
387.117	19.546	804.091	607.164
388.132	19.463	803.668	606.500
389.146	19.422	803.189	605.941
390.161	19.377	802.976	605.567
391.175	19.565	802.800	606.041
392.190	19.682	802.375	606.077
393.205	19.611	801.478	605.098
394.219	19.587	801.433	604.924
395.234	19.552	800.853	604.311
396.248	19.402	800.364	603.364
397.263	19.361	799.555	602.559
398.278	19.391	799.223	602.359
399.292	19.301	798.503	601.451
400.307	19.503	798.638	602.202
401.321	19.405	797.985	601.316
402.336	19.203	798.038	600.598
403.350	19.462	796.972	600.645
404.365	19.439	796.790	600.372
405.380	19.497	796.318	600.166
406.394	19.829	795.816	600.888
407.409	19.762	795.656	600.484
408.423	19.772	795.558	600.389
409.438	20.001	794.636	600.434
410.453	19.936	794.150	599.789
411.467	19.771	794.310	599.285
412.482	19.958	793.430	599.216
413.496	20.105	792.794	599.191
414.511	20.144	792.631	599.149
415.526	20.167	791.994	598.695
416.540	20.066	791.759	598.114
417.555	20.092	791.236	597.756
418.569	19.976	790.887	597.039
419.584	20.154	790.260	597.128
420.599	20.220	789.655	596.844
421.613	162.004	1370.030	1796.639
422.628	140.335	1454.610	1796.741
