DTS Sentinel unit serial number:	SN413079Multiplexer serial number:	ORYXHardware model number:	OX4-SRSoftware version number:	ORYX F/W v4.00 Oryx Data Collector v3.7.2.0data status	okinstallation	princeton_trtdifferential loss correction	single-endedforward channel	channel 3reverse channel	N/Adate	2019/09/18time	19:32:34forward acquisition time	60.00reverse acquisition time	0.00gamma	496.2192k internal	0.2323k external	0.2323temperature offset calibration	1.0006default loss term (dB/km)	0.3790temperature slope calibration	1.0000multiplexer offset coefficient	1.0000multiplexer slope coefficient	1.0000fibre end	0.00T internal ref (°C)	32.66T ext. ref 1 (°C)	1.02T ext. ref 2 (°C)	22.65length (m)	temperature (°C)	Stokes	anti-Stokes-747.200	-200.000	-0.022	0.134
-746.185	-200.000	-0.009	-0.083
-745.171	800.000	0.153	0.521
-744.156	105.562	-0.088	0.105
-743.142	-199.074	0.292	0.002
-742.127	193.657	-0.017	0.026
-741.112	127.768	0.182	-0.234
-740.098	800.000	-0.082	0.362
-739.083	800.000	-0.075	0.268
-738.069	72.376	-0.254	0.267
-737.054	-96.290	-0.124	-0.033
-736.039	800.000	0.050	0.155
-735.025	110.274	-0.163	0.197
-734.010	-142.895	0.169	-0.017
-732.996	-115.474	0.333	-0.063
-731.981	-56.468	-0.211	-0.095
-730.966	-120.446	-0.363	0.062
-729.952	-200.000	-0.008	0.153
-728.937	-58.519	-0.405	-0.177
-727.923	39.073	-0.179	-0.161
-726.908	-200.000	0.012	-0.277
-725.894	800.000	0.054	0.201
-724.879	-17.535	0.100	0.064
-723.864	-200.000	0.026	-0.425
-722.850	-43.859	0.151	0.077
-721.835	-83.979	-0.383	0.123
-720.821	162.913	0.135	0.191
-719.806	-137.580	-0.363	0.041
-718.791	800.000	-0.116	-0.385
-717.777	800.000	-0.081	-0.253
-716.762	210.657	0.159	-0.251
-715.748	800.000	-0.034	0.140
-714.733	-168.735	0.302	0.012
-713.718	-36.601	-0.312	-0.169
-712.704	412.095	-0.114	-0.244
-711.689	91.971	0.143	-0.162
-710.675	-200.000	-0.012	0.185
-709.660	-200.000	-0.018	0.220
-708.645	37.302	0.041	-0.037
-707.631	-200.000	-0.028	-0.317
-706.616	157.906	-0.074	0.103
-705.602	-43.173	0.231	-0.118
-704.587	-173.263	-0.247	-0.008
-703.572	-153.112	-0.111	-0.008
-702.558	-108.492	0.171	0.037
-701.543	-145.327	0.173	0.016
-700.529	121.275	0.110	-0.138
-699.514	199.153	-0.138	-0.213
-698.499	702.538	0.050	0.132
-697.485	200.726	0.023	-0.035
-696.470	-77.433	-0.108	-0.038
-695.456	-122.830	0.310	0.050
-694.441	-200.000	-0.001	0.035
-693.426	590.512	0.030	-0.076
-692.412	800.000	-0.041	-0.129
-691.397	-200.000	-0.017	-0.186
-690.383	-73.891	0.055	-0.020
-689.368	234.734	0.184	-0.305
-688.354	-89.770	-0.236	0.070
-687.339	195.759	0.248	-0.380
-686.324	-200.000	-0.036	0.197
-685.310	-200.000	-0.006	0.201
-684.295	355.995	-0.178	-0.356
-683.281	-87.128	0.069	-0.021
-682.266	96.022	-0.050	-0.057
-681.251	-200.000	0.033	-0.183
-680.237	141.747	-0.217	0.289
-679.222	-138.881	0.313	-0.034
-678.208	800.000	0.047	0.190
-677.193	59.403	-0.110	-0.109
-676.178	-140.650	0.148	-0.015
-675.164	800.000	0.068	-0.192
-674.149	-47.166	0.133	-0.065
-673.135	800.000	-0.021	-0.062
-672.120	-200.000	0.042	-0.207
-671.105	-67.128	-0.228	-0.091
-670.091	-88.421	-0.190	-0.057
-669.076	-200.000	-0.028	0.302
-668.062	-52.580	-0.117	0.054
-667.047	-200.000	0.037	0.439
-666.032	-158.384	0.167	0.010
-665.018	-74.075	-0.068	-0.025
-664.003	107.779	-0.037	-0.045
-662.989	-95.211	-0.114	0.031
-661.974	-200.000	-0.032	-0.173
-660.959	800.000	0.038	0.156
-659.945	-80.351	-0.246	0.083
-658.930	-116.576	0.154	-0.028
-657.916	-200.000	-0.036	0.172
-656.901	-31.731	-0.202	0.114
-655.886	50.637	-0.088	-0.084
-654.872	44.890	-0.289	0.268
-653.857	-78.997	0.183	-0.063
-652.843	-92.913	-0.198	-0.056
-651.828	24.534	-0.017	-0.014
-650.814	60.807	0.100	0.100
-649.799	-89.273	0.144	-0.043
-648.784	-111.864	-0.112	-0.023
-647.770	800.000	0.026	0.072
-646.755	132.810	0.142	-0.184
-645.741	-135.266	-0.396	-0.048
-644.726	-59.323	0.321	0.139
-643.711	105.678	0.213	0.253
-642.697	-121.973	-0.462	-0.077
-641.682	800.000	0.073	-0.206
-640.668	110.898	0.135	-0.164
-639.653	800.000	-0.043	0.186
-638.638	242.261	0.121	-0.204
-637.624	-30.490	0.213	-0.122
-636.609	196.317	-0.163	0.249
-635.595	127.322	0.011	0.014
-634.580	-36.836	-0.085	0.046
-633.565	-19.049	-0.222	-0.139
-632.551	103.451	0.122	0.144
-631.536	-161.316	-0.052	-0.003
-630.522	185.320	-0.214	0.320
-629.507	-200.000	-0.039	0.183
-628.492	122.524	-0.126	-0.159
-627.478	-149.388	-0.320	-0.026
-626.463	-11.409	0.145	0.096
-625.449	321.846	0.062	0.119
-624.434	88.073	0.166	-0.185
-623.419	800.000	-0.049	0.189
-622.405	79.032	-0.046	0.049
-621.390	-62.470	0.227	-0.095
-620.376	266.008	0.190	-0.333
-619.361	151.534	-0.072	0.098
-618.346	-200.000	0.030	-0.180
-617.332	63.050	-0.135	-0.136
-616.317	220.328	-0.176	-0.283
-615.303	599.839	0.054	0.134
-614.288	44.502	-0.271	0.250
-613.273	702.953	-0.059	0.156
-612.259	800.000	-0.037	0.143
-611.244	-87.359	-0.079	-0.024
-610.230	-27.712	-0.107	-0.062
-609.215	426.479	0.109	0.236
-608.201	-63.116	0.118	0.049
-607.186	800.000	0.132	-0.373
-606.171	-94.344	0.215	-0.059
-605.157	-182.429	-0.114	-0.002
-604.142	84.458	-0.074	0.082
-603.128	-96.637	0.166	-0.044
-602.113	-157.416	-0.316	-0.019
-601.098	800.000	-0.067	0.248
-600.084	301.827	0.162	0.301
-599.069	360.320	0.145	-0.292
-598.055	-200.000	-0.004	0.188
-597.040	-71.057	-0.174	0.066
-596.025	800.000	0.069	-0.218
-595.011	-152.916	0.291	-0.021
-593.996	-28.957	0.235	0.135
-592.982	800.000	0.048	-0.146
-591.967	-74.695	0.380	-0.137
-590.952	-154.232	-0.165	-0.011
-589.938	-4.646	-0.200	0.138
-588.923	30.105	-0.223	0.191
-587.909	48.077	-0.170	-0.159
-586.894	-57.863	0.348	0.153
-585.879	-200.000	-0.012	-0.116
-584.865	-76.073	0.224	-0.079
-583.850	-200.000	-0.001	0.020
-582.836	-200.000	-0.008	0.254
-581.821	54.557	0.066	-0.064
-580.806	171.224	0.167	0.240
-579.792	112.186	-0.187	-0.227
-578.777	-200.000	0.019	-0.199
-577.763	-200.000	0.051	0.243
-576.748	-45.320	-0.248	-0.124
-575.733	800.000	-0.016	0.069
-574.719	324.207	0.054	-0.104
-573.704	-170.046	-0.453	0.016
-572.690	-66.254	-0.204	0.082
-571.675	8.479	-0.194	0.146
-570.661	-116.238	0.172	-0.032
-569.646	-50.533	0.164	0.077
-568.631	-85.118	0.229	-0.072
-567.617	34.063	0.171	0.149
-566.602	-73.013	-0.248	0.091
-565.588	-127.202	-0.171	0.025
-564.573	-200.000	-0.027	0.240
-563.558	-82.506	0.360	-0.117
-562.544	800.000	-0.095	0.270
-561.529	-200.000	0.029	-0.411
-560.515	-76.376	-0.249	-0.088
-559.500	-200.000	-0.003	0.039
-558.485	-200.000	-0.022	0.345
-557.471	6.550	0.221	-0.165
-556.456	-45.937	-0.371	0.183
-555.442	-30.358	-0.328	0.187
-554.427	210.536	0.121	0.191
-553.412	169.491	-0.017	0.024
-552.398	800.000	0.022	0.064
-551.383	-200.000	-0.039	0.317
-550.369	-39.249	0.039	0.021
-549.354	257.361	0.173	-0.298
-548.339	-148.264	-0.061	0.005
-547.325	46.176	0.115	0.107
-546.310	416.134	0.058	0.123
-545.296	-200.000	-0.004	-0.259
-544.281	299.966	0.256	0.472
-543.266	-120.460	0.107	0.018
-542.252	-126.190	0.467	-0.070
-541.237	-129.627	-0.259	0.036
-540.223	-120.187	0.179	-0.031
-539.208	800.000	-0.121	0.525
-538.193	121.172	0.269	0.335
-537.179	-5.695	0.094	-0.065
-536.164	800.000	-0.054	-0.177
-535.150	-16.061	0.166	0.106
-534.135	-200.000	-0.008	-0.069
-533.121	800.000	0.059	-0.184
-532.106	-67.528	0.253	-0.100
-531.091	-172.505	-0.267	-0.008
-530.077	130.548	-0.080	0.103
-529.062	34.765	-0.045	0.039
-528.048	-166.955	0.258	-0.011
-527.033	-112.656	0.100	0.020
-526.018	-92.128	0.326	-0.092
-525.004	-200.000	0.066	-0.350
-523.989	24.193	-0.044	-0.036
-522.975	-182.314	-0.350	-0.007
-521.960	478.802	-0.064	0.144
-520.945	800.000	0.137	0.452
-519.931	-32.243	-0.382	-0.214
-518.916	800.000	-0.108	-0.344
-517.902	-83.947	0.217	0.069
-516.887	514.915	-0.040	0.094
-515.872	-132.388	-0.155	-0.020
-514.858	-200.000	-0.067	0.411
-513.843	-129.655	-0.081	0.011
-512.829	-200.000	0.035	0.317
-511.814	12.728	-0.087	-0.067
-510.799	365.078	-0.050	0.100
-509.785	95.807	-0.126	0.144
-508.770	-200.000	0.026	0.284
-507.756	62.472	-0.051	-0.051
-506.741	800.000	-0.058	-0.228
-505.726	-25.869	0.123	0.072
-504.712	2.704	-0.230	0.167
-503.697	317.717	-0.231	-0.436
-502.683	-199.030	-0.163	-0.001
-501.668	75.359	0.194	-0.205
-500.653	181.287	0.055	-0.081
-499.639	-200.000	-0.007	0.154
-498.624	106.389	0.048	0.056
-497.610	313.036	0.107	0.200
-496.595	783.641	0.087	0.237
-495.581	152.602	0.111	0.152
-494.566	-92.956	-0.319	-0.089
-493.551	-151.449	0.078	-0.006
-492.537	-200.000	0.011	-0.173
-491.522	800.000	0.061	0.203
-490.508	-148.274	-0.173	0.014
-489.493	134.153	0.038	0.049
-488.478	-36.649	-0.238	-0.128
-487.464	-200.000	0.018	-0.417
-486.449	103.438	0.198	0.232
-485.435	800.000	-0.022	-0.065
-484.420	257.358	-0.180	0.309
-483.405	58.147	-0.041	0.040
-482.391	800.000	-0.034	0.120
-481.376	199.272	0.083	0.126
-480.362	-200.000	-0.044	-0.310
-479.347	-63.391	-0.381	-0.156
-478.332	-11.920	0.287	0.188
-477.318	800.000	-0.053	0.204
-476.303	7.241	-0.183	0.137
-475.289	-200.000	-0.006	-0.035
-474.274	-82.664	0.134	0.043
-473.259	-200.000	-0.015	-0.115
-472.245	-163.797	-0.332	-0.016
-471.230	353.397	-0.154	-0.305
-470.216	80.520	-0.252	-0.271
-469.201	111.499	-0.036	0.044
-468.186	0.016	0.095	0.068
-467.172	-33.987	-0.219	-0.121
-466.157	-200.000	-0.020	0.178
-465.143	119.865	0.283	0.351
-464.128	49.084	-0.273	0.256
-463.113	30.698	-0.022	0.019
-462.099	800.000	-0.087	-0.335
-461.084	93.073	-0.123	0.139
-460.070	-200.000	0.002	-0.020
-459.055	104.190	0.047	-0.056
-458.040	93.760	0.037	-0.041
-457.026	264.429	-0.106	0.184
-456.011	-13.436	-0.250	0.162
-454.997	44.748	0.319	-0.293
-453.982	92.524	0.049	0.055
-452.968	176.307	-0.068	-0.099
-451.953	580.618	-0.127	0.310
-450.938	-200.000	0.016	0.205
-449.924	800.000	-0.039	-0.122
-448.909	79.660	-0.157	-0.168
-447.895	412.202	0.074	0.156
-446.880	-45.509	-0.323	-0.160
-445.865	-200.000	-0.019	-0.083
-444.851	-47.895	-0.309	0.149
-443.836	-146.977	-0.317	0.027
-442.822	231.795	0.067	-0.109
-441.807	62.866	-0.052	0.052
-440.792	157.808	0.074	0.102
-439.778	195.554	-0.024	-0.037
-438.763	-112.550	-0.290	0.058
-437.749	295.796	-0.028	0.050
-436.734	800.000	0.107	0.336
-435.719	-200.000	0.029	0.409
-434.705	-200.000	0.031	-0.174
-433.690	-14.713	0.368	-0.236
-432.676	-139.635	0.172	-0.018
-431.661	33.799	0.092	0.079
-430.646	-86.962	0.516	0.157
-429.632	-45.273	-0.228	0.113
-428.617	-35.742	-0.256	-0.139
-427.603	-153.222	0.170	-0.012
-426.588	-89.467	0.098	0.029
-425.573	15.792	-0.153	-0.120
-424.559	-200.000	0.065	-0.312
-423.544	-20.237	-0.127	-0.078
-422.530	-102.475	-0.129	-0.031
-421.515	19.436	0.056	-0.045
-420.500	-55.698	0.250	0.112
-419.486	21.845	0.091	-0.074
-418.471	-118.623	-0.186	-0.033
-417.457	53.687	-0.168	0.161
-416.442	-200.000	0.003	0.273
-415.428	148.169	-0.037	-0.050
-414.413	447.362	-0.039	0.085
-413.398	-38.171	0.203	0.107
-412.384	-82.710	-0.116	0.037
-411.369	-61.944	0.323	-0.135
-410.355	-200.000	0.010	-0.253
-409.340	-42.136	0.345	-0.176
-408.325	9.219	-0.140	-0.106
-407.311	-96.556	0.477	0.125
-406.296	475.897	-0.079	-0.177
-405.282	-140.918	0.175	0.018
-404.267	669.997	0.123	0.316
-403.252	-50.106	-0.165	0.078
-402.238	-74.950	-0.140	-0.050
-401.223	99.402	-0.088	-0.101
-400.209	36.412	-0.092	-0.081
-399.194	-200.000	-0.027	-0.195
-398.179	-200.000	-0.032	-0.152
-397.165	-200.000	0.008	-0.100
-396.150	-23.034	-0.215	0.129
-395.136	661.811	-0.083	-0.213
-394.121	-200.000	-0.011	0.192
-393.106	-14.257	-0.185	-0.118
-392.092	-143.989	0.210	0.020
-391.077	178.769	-0.014	-0.021
-390.063	405.510	0.118	-0.248
-389.048	-128.128	-0.395	0.056
-388.033	148.230	-0.202	-0.271
-387.019	168.246	-0.061	-0.086
-386.004	-152.088	-0.075	0.005
-384.990	322.808	0.161	0.305
-383.975	-98.827	-0.189	-0.048
-382.960	-137.232	0.205	-0.023
-381.946	-200.000	0.033	-0.228
-380.931	-81.920	-0.107	-0.035
-379.917	193.971	0.072	0.109
-378.902	-60.628	0.097	0.041
-377.888	115.852	-0.142	0.173
-376.873	123.485	-0.214	0.267
-375.858	106.592	0.120	0.142
-374.844	38.409	-0.081	-0.072
-373.829	23.555	-0.241	0.198
-372.815	-172.682	0.223	0.007
-371.800	-133.077	0.128	0.016
-370.785	-109.165	0.379	-0.080
-369.771	127.792	0.062	0.079
-368.756	230.477	0.038	-0.062
-367.742	-71.620	0.313	0.116
-366.727	-110.131	0.151	-0.031
-365.712	-180.636	0.122	0.002
-364.698	-107.943	-0.116	0.025
-363.683	24.575	-0.266	0.219
-362.669	191.520	0.127	0.190
-361.654	13.260	0.379	0.292
-360.639	-7.660	-0.229	-0.154
-359.625	341.573	-0.079	-0.154
-358.610	15.514	-0.284	-0.222
-357.596	-75.738	0.293	-0.103
-356.581	202.739	0.174	0.268
-355.566	473.720	-0.065	-0.146
-354.552	-9.172	0.131	0.087
-353.537	14.159	0.350	-0.271
-352.523	-79.650	0.371	-0.124
-351.508	800.000	0.030	-0.117
-350.493	106.165	0.131	0.155
-349.479	427.224	-0.195	0.418
-348.464	38.929	-0.026	0.023
-347.450	24.304	0.229	0.188
-346.435	-200.000	0.029	0.155
-345.420	151.758	0.143	0.194
-344.406	800.000	-0.117	0.325
-343.391	-57.480	0.337	0.147
-342.377	800.000	-0.027	0.096
-341.362	9.594	-0.138	-0.104
-340.348	-76.345	-0.382	0.134
-339.333	109.067	-0.199	-0.237
-338.318	249.320	-0.094	-0.159
-337.304	-200.000	0.043	-0.356
-336.289	131.070	0.340	0.434
-335.275	-41.996	-0.415	0.211
-334.260	-72.565	0.288	0.106
-333.245	-200.000	0.018	-0.395
-332.231	800.000	-0.070	-0.252
-331.216	-123.526	0.219	-0.035
-330.202	-189.086	0.437	0.005
-329.187	208.321	-0.048	0.074
-328.172	100.333	-0.040	0.046
-327.158	-147.111	0.384	0.033
-326.143	9.029	0.172	-0.129
-325.129	150.383	0.073	0.098
-324.114	-200.000	-0.022	0.154
-323.099	333.844	-0.128	-0.247
-322.085	-200.000	0.038	-0.408
-321.070	348.007	-0.106	0.208
-320.056	646.541	0.078	0.198
-319.041	-7.524	0.286	0.192
-318.026	-135.591	0.234	-0.028
-317.012	-12.457	-0.176	-0.114
-315.997	275.487	0.024	-0.042
-314.983	170.142	-0.159	-0.225
-313.968	-66.235	-0.025	0.010
-312.953	56.218	-0.339	-0.327
-311.939	215.961	-0.087	0.137
-310.924	226.259	0.280	0.451
-309.910	67.819	0.063	-0.064
-308.895	31.746	0.037	-0.032
-307.880	-200.000	-0.000	-0.060
-306.866	198.017	-0.158	0.240
-305.851	123.719	0.167	-0.208
-304.837	-40.238	0.369	-0.191
-303.822	-94.154	-0.268	-0.073
-302.807	32.051	-0.200	-0.171
-301.793	-25.083	-0.265	-0.156
-300.778	96.835	-0.123	-0.140
-299.764	-157.196	0.185	0.011
-298.749	-129.696	0.478	-0.065
-297.735	300.515	-0.159	-0.291
-296.720	4.724	0.152	-0.111
-295.705	-125.442	0.191	0.029
-294.691	800.000	0.047	-0.186
-293.676	26.518	-0.164	-0.136
-292.662	800.000	0.124	-0.492
-291.647	466.513	-0.094	0.209
-290.632	-105.864	-0.166	-0.037
-289.618	-41.296	0.212	-0.108
-288.603	-138.090	-0.385	-0.042
-287.589	-130.485	0.232	0.031
-286.574	-200.000	0.062	-0.390
-285.559	-0.904	0.155	0.109
-284.545	800.000	-0.120	-0.360
-283.530	-112.059	-0.142	-0.028
-282.516	-29.605	-0.300	0.170
-281.501	800.000	0.004	0.013
-280.486	800.000	-0.028	0.093
-279.472	1.823	-0.167	-0.119
-278.457	325.500	-0.194	0.368
-277.443	393.388	-0.119	-0.245
-276.428	-27.675	-0.161	-0.093
-275.413	2.438	-0.198	-0.142
-274.399	116.346	-0.041	-0.049
-273.384	800.000	0.052	-0.205
-272.370	800.000	-0.019	0.057
-271.355	-145.486	0.047	0.004
-270.340	-42.378	0.227	0.115
-269.326	-144.217	0.186	0.017
-268.311	-122.234	0.076	-0.012
-267.297	-164.166	0.224	0.010
-266.282	263.535	-0.064	0.111
-265.267	-74.509	-0.098	-0.035
-264.253	800.000	0.050	0.178
-263.238	176.615	-0.182	-0.262
-262.224	-63.882	0.172	0.070
-261.209	181.561	0.091	0.133
-260.195	21.031	-0.256	-0.205
-259.180	284.178	-0.098	0.175
-258.165	-158.059	0.462	-0.027
-257.151	-200.000	0.005	0.378
-256.136	97.370	-0.131	0.149
-255.122	63.809	-0.081	0.081
-254.107	800.000	0.052	-0.193
-253.092	-134.181	-0.075	-0.009
-252.078	100.954	0.042	-0.048
-251.063	81.437	-0.020	0.021
-250.049	152.010	0.092	0.125
-249.034	247.877	0.122	0.205
-248.019	-113.864	0.075	0.014
-247.005	800.000	-0.068	0.194
-245.990	330.665	-0.098	0.188
-244.976	-148.287	0.551	-0.045
-243.961	800.000	-0.084	-0.288
-242.946	52.048	0.093	-0.088
-241.932	-37.848	-0.134	0.070
-240.917	-157.470	0.067	-0.004
-239.903	-128.631	-0.332	-0.046
-238.888	41.312	-0.084	0.075
-237.873	428.776	0.104	-0.223
-236.859	8.056	-0.023	0.017
-235.844	74.574	0.154	-0.160
-234.830	-200.000	-0.005	-0.089
-233.815	180.426	-0.167	-0.242
-232.800	-29.958	0.216	-0.122
-231.786	415.611	-0.087	-0.183
-230.771	-200.000	-0.188	0.000
-229.757	-149.314	0.094	0.007
-228.742	49.565	-0.247	0.230
-227.727	-200.000	0.010	0.055
-226.713	519.215	-0.037	0.085
-225.698	125.778	-0.110	-0.138
-224.684	800.000	0.117	-0.354
-223.669	-10.246	0.106	-0.070
-222.655	-95.335	0.396	-0.105
-221.640	-58.279	0.105	-0.045
-220.625	266.119	-0.140	-0.242
-219.611	-62.692	-0.646	0.265
-218.596	-87.672	0.200	-0.060
-217.582	-125.468	0.086	-0.013
-216.567	800.000	0.123	0.463
-215.552	800.000	0.119	-0.423
-214.538	-177.956	-0.258	0.006
-213.523	-56.313	0.216	0.095
-212.509	278.750	0.077	0.136
-211.494	-43.973	-0.024	-0.012
-210.479	-14.555	0.412	-0.262
-209.465	-32.832	-0.105	0.058
-208.450	241.244	0.077	-0.127
-207.436	800.000	-0.049	0.157
-206.421	-159.414	0.169	0.009
-205.406	-200.000	0.022	-0.189
-204.392	-200.000	0.028	-0.365
-203.377	-42.160	0.226	-0.114
-202.363	-82.656	-0.171	0.055
-201.348	-138.566	0.209	-0.023
-200.333	-47.919	-0.067	-0.032
-199.319	-200.000	-0.031	-0.209
-198.304	54.445	-0.092	0.087
-197.290	-200.000	0.030	0.147
-196.275	-11.998	-0.285	-0.184
-195.260	475.634	-0.114	-0.254
-194.246	73.944	0.167	-0.173
-193.231	191.439	0.052	-0.078
-192.217	296.500	0.092	0.168
-191.202	68.048	0.041	0.042
-190.187	-131.678	0.305	0.040
-189.173	-158.991	-0.085	-0.005
-188.158	338.929	0.063	-0.122
-187.144	438.213	-0.137	0.296
-186.129	229.902	-0.050	0.080
-185.114	-19.160	-0.146	0.090
-184.100	-72.655	-0.163	-0.059
-183.085	-200.000	-0.042	0.412
-182.071	-126.814	0.097	-0.014
-181.056	200.955	0.055	-0.084
-180.042	-131.071	-0.356	-0.047
-179.027	17.397	0.097	0.076
-178.012	-23.643	0.363	-0.215
-176.998	-79.437	-0.055	0.018
-175.983	-200.000	0.028	-0.135
-174.969	-110.268	-0.062	-0.013
-173.954	31.973	0.185	-0.157
-172.939	-62.875	-0.205	0.084
-171.925	232.679	0.090	0.146
-170.910	3.679	-0.260	-0.187
-169.896	-200.000	-0.037	-0.308
-168.881	-200.000	0.023	-0.102
-167.866	25.393	-0.155	0.127
-166.852	-200.000	0.019	0.149
-165.837	28.188	-0.167	-0.139
-164.823	-73.022	0.151	-0.055
-163.808	800.000	0.068	-0.195
-162.793	138.670	0.227	-0.294
-161.779	-94.301	0.115	-0.031
-160.764	800.000	0.102	-0.345
-159.750	131.261	-0.104	-0.132
-158.735	66.230	-0.152	0.152
-157.720	-74.133	-0.238	0.085
-156.706	138.221	0.207	0.268
-155.691	-4.947	-0.135	-0.092
-154.677	800.000	-0.123	0.375
-153.662	587.693	-0.020	0.050
-152.647	83.075	-0.171	-0.183
-151.633	-60.642	-0.363	-0.152
-150.618	-77.029	-0.084	0.029
-149.604	800.000	0.054	0.165
-148.589	-12.623	-0.338	0.217
-147.574	-36.168	-0.249	-0.133
-146.560	-200.000	0.035	-0.297
-145.545	100.941	0.153	0.175
-144.531	143.292	-0.212	0.278
-143.516	228.673	-0.113	0.182
-142.502	55.053	0.132	0.126
-141.487	51.345	-0.102	0.095
-140.472	-200.000	-0.054	0.480
-139.458	-102.670	-0.124	0.029
-138.443	-130.303	-0.268	-0.036
-137.429	-200.000	0.020	-0.452
-136.414	-41.328	-0.320	-0.163
-135.399	305.300	0.071	0.130
-134.385	-130.629	0.246	-0.033
-133.370	-159.290	0.107	0.006
-132.356	-108.715	0.095	0.020
-131.341	-57.840	0.195	0.084
-130.326	-200.000	-0.012	0.089
-129.312	-200.000	0.001	-0.281
-128.297	39.245	0.020	0.018
-127.283	104.461	0.244	0.283
-126.268	74.771	-0.264	-0.274
-125.253	18.420	-0.375	-0.295
-124.239	-36.940	0.380	-0.201
-123.224	-200.000	0.037	0.227
-122.210	-44.279	0.112	-0.056
-121.195	-132.075	0.113	-0.015
-120.180	800.000	-0.073	-0.257
-119.166	-200.000	-0.032	-0.284
-118.151	-47.428	0.229	0.110
-117.137	-9.970	-0.303	0.199
-116.122	800.000	-0.057	-0.157
-115.107	-105.066	0.147	0.033
-114.093	-200.000	0.033	0.225
-113.078	164.795	0.042	0.058
-112.064	-103.421	-0.077	0.018
-111.049	126.119	-0.123	0.154
-110.034	800.000	0.087	0.251
-109.020	32.966	0.224	0.191
-108.005	-0.140	-0.095	-0.066
-106.991	-200.000	-0.015	-0.148
-105.976	-200.000	-0.035	0.215
-104.962	800.000	0.035	0.127
-103.947	-164.032	-0.371	-0.017
-102.932	79.373	-0.131	-0.138
-101.918	382.322	0.099	-0.201
-100.903	796.648	-0.037	-0.100
-99.889	-116.126	-0.166	-0.030
-98.874	-76.846	-0.340	0.117
-97.859	423.221	0.062	0.132
-96.845	-200.000	0.038	-0.315
-95.830	-11.413	0.041	-0.026
-94.816	-108.624	0.145	-0.031
-93.801	-200.000	-0.005	-0.134
-92.786	-200.000	0.005	0.058
-91.772	92.977	-0.179	-0.199
-90.757	-72.652	0.297	0.108
-89.743	5.580	0.066	0.048
-88.728	800.000	-0.087	0.266
-87.713	-200.000	-0.028	-0.140
-86.699	164.036	0.102	0.141
-85.684	-146.831	0.326	0.028
-84.670	54.346	0.067	0.063
-83.655	-90.479	0.198	0.056
-82.640	-51.896	-0.155	-0.071
-81.626	-61.229	0.131	-0.054
-80.611	-72.290	-0.020	0.007
-79.597	59.108	0.268	-0.260
-78.582	800.000	-0.040	0.122
-77.567	65.364	0.250	0.249
-76.553	33.836	0.068	0.058
-75.538	-53.762	0.022	-0.010
-74.524	85.212	0.322	0.348
-73.509	-63.380	-0.309	-0.125
-72.494	-200.000	-0.001	-0.208
-71.480	10.512	-0.161	-0.121
-70.465	-200.000	0.027	0.185
-69.451	-23.303	0.239	0.141
-68.436	43.923	0.232	-0.209
-67.422	295.041	-0.134	-0.242
-66.407	501.257	0.030	0.067
-65.392	24.253	0.196	-0.159
-64.378	-200.000	0.042	0.336
-63.363	-133.299	-0.358	0.044
-62.349	217.099	0.295	0.463
-61.334	94.084	-0.897	-1.001
-60.319	51.351	0.513	0.479
-59.305	662.324	-0.326	-0.827
-58.290	491.161	0.592	1.332
-57.276	348.498	0.857	1.662
-56.261	-200.000	97.856	588.073
-55.246	507.945	1408.976	3215.276
-54.232	156.724	2585.009	3510.255
-53.217	110.992	2168.904	2566.951
-52.203	43.125	1710.306	1534.100
-51.188	35.915	1521.178	1315.364
-50.173	33.353	1494.396	1274.926
-49.159	52.782	1543.847	1450.507
-48.144	54.651	1561.756	1480.070
-47.130	35.970	1521.082	1315.445
-46.115	32.917	1506.390	1281.999
-45.100	32.614	1503.142	1277.130
-44.086	32.700	1501.118	1275.937
-43.071	32.581	1499.398	1273.625
-42.057	32.616	1497.843	1272.486
-41.042	32.736	1495.963	1271.651
-40.027	32.666	1494.565	1269.938
-39.013	32.601	1493.100	1268.207
-37.998	32.690	1491.829	1267.678
-36.984	32.617	1490.476	1265.986
-35.969	32.641	1489.353	1265.139
-34.954	32.708	1487.897	1264.305
-33.940	32.677	1486.776	1263.096
-32.925	32.727	1484.822	1261.718
-31.911	32.743	1483.602	1260.741
-30.896	32.782	1482.099	1259.672
-29.881	32.692	1481.091	1258.162
-28.867	32.694	1479.748	1256.986
-27.852	32.547	1478.738	1255.097
-26.838	32.717	1477.185	1254.863
-25.823	32.701	1475.393	1253.182
-24.809	32.657	1474.210	1251.838
-23.794	32.653	1472.567	1250.365
-22.779	32.680	1471.468	1249.565
-21.765	32.674	1470.580	1248.718
-20.750	32.708	1469.199	1247.723
-19.736	32.688	1467.944	1246.477
-18.721	32.608	1467.059	1245.145
-17.706	32.694	1465.782	1244.578
-16.692	32.630	1464.994	1243.435
-15.677	32.580	1464.028	1242.237
-14.663	32.720	1462.510	1241.825
-13.648	32.608	1461.937	1240.550
-12.633	32.636	1460.956	1239.852
-11.619	32.671	1460.280	1239.459
-10.604	32.689	1459.379	1238.763
-9.590	32.566	1458.642	1237.280
-8.575	32.689	1457.072	1236.709
-7.560	32.627	1456.587	1235.841
-6.546	32.562	1455.762	1234.668
-5.531	32.674	1454.995	1234.702
-4.517	32.583	1453.801	1233.042
-3.502	32.547	1453.178	1232.228
-2.487	32.605	1451.845	1231.428
-1.473	32.655	1450.774	1230.796
-0.458	32.567	1449.605	1229.186
0.556	31.415	1438.512	1213.449
1.571	26.781	1410.479	1160.118
2.586	21.424	1346.001	1074.179
3.600	18.452	1263.027	990.717
4.615	17.027	1217.269	946.794
5.629	15.014	1162.565	893.431
6.644	8.147	1080.770	796.307
7.659	2.052	1041.378	737.818
8.673	1.187	1035.550	729.464
9.688	1.008	1032.217	726.196
10.702	0.909	1030.983	724.789
11.717	0.997	1029.112	723.830
12.731	3.102	1031.031	735.188
13.746	10.176	1040.188	775.671
14.761	16.301	1047.595	810.615
15.775	17.799	1048.224	818.220
16.790	17.338	1047.307	815.222
17.804	16.381	1045.408	809.091
18.819	15.495	1042.818	802.784
19.834	15.007	1041.986	799.739
20.848	14.684	1041.092	797.436
21.863	14.450	1039.903	795.343
22.877	14.285	1038.936	793.743
23.892	13.863	1039.007	791.719
24.907	13.967	1037.742	791.178
25.921	13.856	1037.340	790.274
26.936	13.995	1035.953	789.809
27.950	13.858	1036.432	789.451
28.965	13.980	1035.281	789.082
29.980	14.158	1034.158	789.003
30.994	14.085	1033.573	788.139
32.009	14.048	1032.314	786.935
33.023	14.018	1032.086	786.551
34.038	14.197	1031.081	786.561
35.053	14.111	1030.362	785.536
36.067	14.088	1028.982	784.309
37.082	14.124	1028.230	783.835
38.096	14.119	1027.563	783.231
39.111	14.132	1027.147	782.906
40.126	14.083	1026.457	782.082
41.140	14.082	1025.085	780.963
42.155	14.069	1023.967	779.980
43.169	13.976	1023.004	778.743
44.184	13.898	1022.442	777.882
45.199	13.853	1021.732	777.060
46.213	13.935	1019.895	775.976
47.228	13.874	1019.081	775.005
48.242	14.062	1018.195	775.140
49.257	14.060	1017.286	774.371
50.271	14.024	1016.213	773.314
51.286	14.109	1015.341	772.977
52.301	13.963	1014.567	771.644
53.315	14.070	1014.057	771.685
54.330	14.060	1013.096	770.839
55.344	13.945	1012.117	769.493
56.359	13.924	1011.326	768.728
57.374	13.937	1010.409	768.023
58.388	13.996	1009.426	767.476
59.403	13.909	1008.690	766.448
60.417	13.973	1007.913	766.087
61.432	13.987	1007.241	765.572
62.447	13.990	1006.502	764.958
63.461	14.026	1005.673	764.425
64.476	13.920	1004.489	762.970
65.490	13.881	1003.824	762.217
66.505	13.953	1002.998	761.855
67.520	13.884	1002.689	761.238
68.534	13.961	1001.372	760.519
69.549	13.805	1001.042	759.488
70.563	13.878	1000.066	759.016
71.578	13.938	999.616	758.881
72.593	13.958	998.893	758.357
73.607	13.889	997.765	757.119
74.622	13.871	997.312	756.623
75.636	13.884	996.075	755.678
76.651	13.924	995.587	755.425
77.666	13.845	995.064	754.599
78.680	13.839	993.921	753.638
79.695	13.874	993.726	753.585
80.709	13.922	993.336	753.440
81.724	13.889	991.861	752.106
82.739	13.889	991.412	751.696
83.753	14.006	990.198	751.238
84.768	13.964	990.182	750.973
85.782	14.118	988.959	750.671
86.797	14.136	988.335	750.212
87.812	14.088	987.153	749.032
88.826	14.032	986.497	748.220
89.841	14.270	985.138	748.190
90.855	14.061	985.021	747.098
91.870	14.181	984.164	746.920
92.884	14.106	983.633	746.114
93.899	14.103	983.291	745.776
94.914	14.075	982.139	744.709
95.928	14.239	981.303	744.741
96.943	14.265	980.277	744.015
97.957	14.216	980.054	743.561
98.972	14.089	979.162	742.253
99.987	14.025	978.710	741.557
101.001	14.169	977.582	741.280
102.016	14.229	976.863	740.935
103.030	14.339	975.359	740.218
104.045	14.176	974.978	739.140
105.060	14.149	974.024	738.230
106.074	14.077	973.136	737.175
107.089	14.113	972.230	736.582
108.103	14.108	971.051	735.601
109.118	13.941	970.926	734.704
110.133	14.014	969.935	734.210
111.147	13.973	968.827	733.126
112.162	14.018	967.903	732.561
113.176	14.085	967.375	732.392
114.191	13.990	966.760	731.442
115.206	14.081	965.255	730.640
116.220	14.023	964.799	729.974
117.235	14.165	963.693	729.695
118.249	14.150	963.147	729.153
119.264	14.154	962.351	728.503
120.279	14.087	961.410	727.433
121.293	14.058	960.988	726.922
122.308	14.068	960.126	726.251
123.322	14.076	959.138	725.474
124.337	14.085	957.631	724.307
125.352	14.088	956.789	723.620
126.366	14.039	955.888	722.660
127.381	13.957	954.762	721.391
128.395	14.026	954.040	721.080
129.410	14.010	953.073	720.215
130.424	14.133	952.086	719.938
131.439	14.105	951.008	718.941
132.454	14.096	950.534	718.476
133.468	14.144	949.542	717.871
134.483	14.225	948.861	717.641
135.497	14.247	948.049	717.062
136.512	14.212	947.283	716.267
137.527	14.147	946.502	715.334
138.541	14.051	946.205	714.632
139.556	14.132	945.428	714.330
140.570	14.144	944.629	713.715
141.585	14.159	943.615	712.951
142.600	14.152	943.420	712.709
143.614	14.232	942.340	712.172
144.629	14.258	941.693	711.734
145.643	14.333	940.568	711.140
146.658	14.196	940.161	710.185
147.673	14.252	939.112	709.569
148.687	14.346	938.105	709.143
149.702	14.211	937.583	708.110
150.716	14.307	936.817	707.878
151.731	14.172	935.877	706.533
152.746	14.177	935.064	705.878
153.760	14.153	934.592	705.359
154.775	14.166	933.887	704.819
155.789	14.337	932.902	704.735
156.804	14.356	932.318	704.311
157.819	14.270	931.251	703.080
158.833	14.441	930.459	703.142
159.848	14.376	930.328	702.708
160.862	14.299	929.782	701.910
161.877	14.318	928.814	701.194
162.892	14.277	928.099	700.422
163.906	14.325	926.846	699.616
164.921	14.271	926.278	698.896
165.935	14.319	925.272	698.279
166.950	14.238	924.172	697.046
167.964	14.228	923.569	696.488
168.979	14.311	922.441	695.922
169.994	14.366	921.308	695.238
171.008	14.417	920.305	694.631
172.023	14.355	920.138	694.184
173.037	14.561	919.170	694.252
174.052	14.485	918.445	693.324
175.067	14.476	917.886	692.806
176.081	14.520	916.961	692.229
177.096	14.279	916.512	690.827
178.110	14.487	915.601	690.943
179.125	14.391	914.682	689.790
180.140	14.450	914.321	689.700
181.154	14.554	913.289	689.292
182.169	14.642	912.773	689.206
183.183	14.509	912.394	688.310
184.198	14.684	911.287	688.132
185.213	14.582	910.885	687.349
186.227	14.698	910.189	687.240
187.242	14.740	909.841	687.091
188.256	14.656	908.829	685.918
189.271	14.644	908.123	685.274
190.286	14.840	907.444	685.506
191.300	14.715	906.686	684.363
192.315	14.615	906.065	683.423
193.329	14.560	905.184	682.471
194.344	14.454	904.963	681.812
195.359	14.565	904.520	681.870
196.373	14.755	903.408	681.748
197.388	14.678	902.970	681.045
198.402	14.778	902.515	681.050
199.417	14.745	902.053	680.504
200.432	14.596	902.050	679.833
201.446	14.772	901.523	680.094
202.461	14.982	900.436	680.068
203.475	14.888	900.337	679.549
204.490	14.875	899.640	678.910
205.504	14.998	898.780	678.702
206.519	14.921	897.597	677.437
207.534	15.020	896.771	677.156
208.548	14.882	896.196	676.100
209.563	14.879	896.037	675.911
210.577	14.873	895.320	675.286
211.592	14.827	894.468	674.398
212.607	14.966	894.218	674.711
213.621	15.089	893.506	674.606
214.636	15.023	893.034	673.925
215.650	15.014	892.008	673.056
216.665	15.068	891.475	672.811
217.680	14.980	891.437	672.370
218.694	15.100	890.694	672.231
219.709	15.155	889.614	671.580
220.723	15.169	889.373	671.392
221.738	15.121	888.575	670.540
222.753	15.218	887.559	670.102
223.767	15.097	887.095	669.207
224.782	15.117	886.531	668.801
225.796	15.067	885.927	668.089
226.811	15.144	885.346	667.900
227.826	15.177	884.090	667.022
228.840	15.190	883.557	666.612
229.855	15.203	883.143	666.295
230.869	15.255	882.618	666.046
231.884	15.211	881.810	665.203
232.899	15.183	881.426	664.742
233.913	15.277	880.250	664.170
234.928	15.139	879.801	663.226
235.942	15.208	879.021	662.852
236.957	15.199	878.426	662.309
237.972	15.239	877.755	661.904
238.986	15.163	877.282	661.186
240.001	15.227	876.177	660.549
241.015	15.218	875.579	660.001
242.030	15.227	875.012	659.554
243.045	15.304	874.687	659.553
244.059	15.456	873.696	659.343
245.074	15.500	872.594	658.626
246.088	15.401	872.186	657.873
247.103	15.444	871.820	657.708
248.117	15.370	871.303	656.967
249.132	15.400	870.914	656.736
250.147	15.544	870.243	656.732
251.161	15.555	869.499	656.156
252.176	15.740	868.831	656.315
253.190	15.591	868.253	655.239
254.205	15.764	867.657	655.407
255.220	15.792	866.825	654.828
256.234	15.793	866.397	654.451
257.249	15.718	865.807	653.658
258.263	15.763	865.281	653.375
259.278	15.707	864.706	652.667
260.293	15.710	864.180	652.223
261.307	15.604	863.601	651.318
262.322	15.801	863.168	651.698
263.336	15.752	862.650	651.058
264.351	15.943	861.363	650.770
265.366	15.855	860.912	650.030
266.380	15.926	860.272	649.763
267.395	15.993	859.569	649.432
268.409	15.888	859.416	648.856
269.424	15.895	858.734	648.311
270.439	15.985	857.702	647.821
271.453	15.889	856.783	646.701
272.468	15.886	856.222	646.207
273.482	15.965	855.803	646.136
274.497	15.903	855.220	645.402
275.512	16.093	854.274	645.359
276.526	15.968	853.521	644.255
277.541	15.903	853.259	643.752
278.555	15.999	852.786	643.705
279.570	15.956	852.640	643.374
280.585	16.122	851.403	643.015
281.599	16.207	850.682	642.739
282.614	16.130	850.304	642.103
283.628	16.215	849.298	641.611
284.643	16.070	849.203	640.929
285.657	16.124	848.847	640.809
286.672	16.105	848.351	640.304
287.687	16.144	847.632	639.855
288.701	16.040	847.524	639.321
289.716	16.265	846.233	639.143
290.730	16.262	845.846	638.783
291.745	16.172	845.202	637.901
292.760	16.268	844.330	637.549
293.774	16.287	843.848	637.201
294.789	16.372	843.361	637.095
295.803	16.314	842.950	636.511
296.818	16.266	842.428	635.878
297.833	16.162	841.849	634.994
298.847	16.183	841.326	634.623
299.862	16.353	840.129	634.303
300.876	16.352	839.395	633.689
301.891	16.364	839.375	633.662
302.906	16.335	838.583	632.900
303.920	16.454	837.621	632.561
304.935	16.471	837.258	632.295
305.949	16.639	836.030	631.939
306.964	16.503	835.946	631.313
307.979	16.555	835.052	630.775
308.993	16.508	834.613	630.214
310.008	16.652	833.930	630.178
311.022	16.618	833.536	629.699
312.037	16.728	832.932	629.595
313.052	16.537	832.899	628.805
314.066	16.533	832.020	628.069
315.081	16.431	831.374	627.148
316.095	16.666	830.463	627.275
317.110	16.716	830.063	627.103
318.125	16.520	829.794	626.118
319.139	16.684	829.408	626.380
320.154	16.622	828.798	625.635
321.168	16.670	828.246	625.340
322.183	16.628	827.335	624.443
323.197	16.707	827.317	624.664
324.212	16.674	826.516	623.884
325.227	16.614	826.330	623.465
326.241	16.727	825.701	623.351
327.256	16.672	824.838	622.445
328.270	16.617	824.673	622.060
329.285	16.695	824.173	621.916
330.300	16.800	823.128	621.459
331.314	16.786	822.615	620.964
332.329	16.789	821.839	620.333
333.343	16.753	821.221	619.682
334.358	16.865	820.795	619.715
335.373	16.898	820.130	619.276
336.387	16.891	819.983	619.087
337.402	16.917	819.513	618.774
338.416	16.975	819.023	618.558
339.431	17.021	817.944	617.857
340.446	17.103	817.702	617.916
341.460	17.123	817.135	617.509
342.475	17.134	816.130	616.734
343.489	17.182	816.075	616.810
344.504	17.095	815.213	615.790
345.519	17.306	814.724	616.133
346.533	17.168	814.140	615.135
347.548	17.057	814.117	614.660
348.562	17.093	813.714	614.431
349.577	17.088	812.873	613.725
350.592	17.095	812.353	613.304
351.606	17.072	811.827	612.770
352.621	17.081	811.793	612.722
353.635	17.082	811.303	612.300
354.650	17.108	810.639	611.839
355.665	17.141	810.347	611.684
356.679	17.199	809.972	611.557
357.694	17.244	809.309	611.163
358.708	17.294	808.728	610.850
359.723	17.169	808.627	610.271
360.738	17.239	808.114	610.080
361.752	17.306	807.275	609.632
362.767	17.271	806.976	609.229
363.781	17.324	806.527	609.026
364.796	17.319	806.262	608.755
365.810	17.307	805.673	608.211
366.825	17.440	805.170	608.254
367.840	17.582	804.607	608.282
368.854	17.565	804.436	608.036
369.869	17.418	804.225	607.300
370.883	17.311	803.431	606.265
371.898	17.444	802.629	606.079
372.913	17.455	802.020	605.605
373.927	17.529	801.595	605.494
374.942	17.532	801.114	605.087
375.956	17.447	800.532	604.291
376.971	17.664	799.697	604.378
377.986	17.530	799.560	603.747
379.000	17.603	798.922	603.470
380.015	17.780	798.265	603.548
381.029	17.709	797.970	603.020
382.044	17.699	797.445	602.533
383.059	17.687	796.795	601.946
384.073	17.709	796.587	601.816
385.088	17.612	796.166	601.100
386.102	17.657	795.443	600.658
387.117	17.676	794.627	600.059
388.132	17.825	794.417	600.370
389.146	17.848	793.762	599.905
390.161	17.805	793.078	599.180
391.175	17.778	793.167	599.101
392.190	17.864	792.606	598.927
393.205	17.690	792.256	597.997
394.219	17.809	791.834	598.043
395.234	17.820	791.496	597.774
396.248	17.757	791.072	597.182
397.263	17.742	790.057	596.310
398.278	17.740	790.125	596.301
399.292	17.774	789.637	596.000
400.307	17.756	789.037	595.429
401.321	17.807	788.896	595.449
402.336	17.912	788.440	595.418
403.350	17.893	787.834	594.841
404.365	17.826	787.660	594.423
405.380	17.923	787.009	594.218
406.394	17.958	786.407	593.833
407.409	18.008	786.289	593.865
408.423	18.008	785.492	593.212
409.438	18.100	785.035	593.130
410.453	18.100	784.791	592.894
411.467	18.251	784.001	592.769
412.482	18.204	783.744	592.359
413.496	18.133	783.415	591.813
414.511	18.140	783.229	591.643
415.526	18.293	782.566	591.618
416.540	18.259	782.536	591.428
417.555	18.298	781.787	590.945
418.569	18.208	781.484	590.350
419.584	18.163	781.053	589.818
420.599	18.193	780.643	589.559
421.613	109.905	1287.916	1462.260
422.628	94.135	1361.803	1462.371
