DTS Sentinel unit serial number:	SN413079Multiplexer serial number:	ORYXHardware model number:	OX4-SRSoftware version number:	ORYX F/W v4.00 Oryx Data Collector v3.7.2.0data status	okinstallation	princeton_trtdifferential loss correction	single-endedforward channel	channel 3reverse channel	N/Adate	2019/09/13time	13:52:35forward acquisition time	60.00reverse acquisition time	0.00gamma	496.2192k internal	0.2302k external	0.2302temperature offset calibration	1.0148default loss term (dB/km)	0.3790temperature slope calibration	1.0000multiplexer offset coefficient	1.0000multiplexer slope coefficient	1.0000fibre end	0.00T internal ref (°C)	35.16T ext. ref 1 (°C)	4.57T ext. ref 2 (°C)	31.35length (m)	temperature (°C)	Stokes	anti-Stokes-747.200	800.000	-0.074	-0.287
-746.185	365.625	0.017	0.034
-745.171	-21.494	0.204	-0.127
-744.156	204.787	-0.172	0.272
-743.142	-139.998	-0.306	0.033
-742.127	-200.000	0.010	0.145
-741.112	-75.015	-0.094	-0.034
-740.098	1.945	-0.445	0.327
-739.083	800.000	-0.087	0.269
-738.069	82.066	-0.030	0.033
-737.054	-77.610	-0.276	-0.097
-736.039	-153.138	-0.276	-0.020
-735.025	-200.000	-0.021	0.160
-734.010	-20.067	-0.266	-0.167
-732.996	-200.000	-0.013	-0.175
-731.981	-90.057	-0.218	0.065
-730.966	-45.832	-0.213	0.107
-729.952	153.052	0.150	-0.209
-728.937	108.891	-0.135	-0.164
-727.923	-200.000	-0.031	-0.147
-726.908	-200.000	0.011	-0.278
-725.894	438.298	-0.070	-0.155
-724.879	-63.002	0.164	-0.069
-723.864	-200.000	0.009	-0.048
-722.850	-135.464	0.139	-0.017
-721.835	-132.177	-0.346	0.046
-720.821	476.736	-0.112	-0.259
-719.806	800.000	0.037	-0.152
-718.791	800.000	0.089	-0.302
-717.777	800.000	-0.016	-0.055
-716.762	-84.693	-0.182	-0.058
-715.748	-149.953	0.483	0.038
-714.733	-108.995	-0.511	-0.111
-713.718	-3.388	0.075	0.053
-712.704	-81.546	-0.396	0.133
-711.689	191.256	-0.251	-0.384
-710.675	788.845	0.105	-0.294
-709.660	-46.454	-0.279	0.139
-708.645	-200.000	0.008	0.285
-707.631	32.251	0.036	-0.032
-706.616	-200.000	0.014	-0.202
-705.602	-200.000	0.029	-0.206
-704.587	234.219	-0.097	-0.163
-703.572	-141.080	0.303	-0.032
-702.558	-200.000	0.021	0.101
-701.543	-200.000	0.061	0.327
-700.529	166.404	0.114	0.164
-699.514	-99.582	0.371	-0.095
-698.499	-129.926	0.447	-0.062
-697.485	79.498	0.135	0.147
-696.470	244.149	0.121	0.206
-695.456	49.907	-0.090	-0.086
-694.441	-103.095	-0.198	-0.048
-693.426	-200.000	0.039	0.220
-692.412	53.341	0.092	0.090
-691.397	-200.000	0.100	0.606
-690.383	192.599	0.234	0.360
-689.368	800.000	-0.086	0.263
-688.354	-110.027	-0.428	-0.091
-687.339	15.667	0.155	-0.123
-686.324	-155.501	-0.200	0.013
-685.310	23.398	-0.257	0.215
-684.295	-45.787	0.149	-0.075
-683.281	-131.905	0.098	-0.013
-682.266	429.152	-0.026	0.057
-681.251	-59.176	-0.054	0.024
-680.237	800.000	0.026	0.097
-679.222	-127.991	-0.345	-0.050
-678.208	-65.636	0.132	-0.054
-677.193	36.813	0.092	-0.083
-676.178	175.155	0.064	-0.094
-675.164	-46.564	-0.345	0.172
-674.149	-200.000	-0.021	0.201
-673.135	36.956	0.309	-0.278
-672.120	-93.253	-0.093	-0.026
-671.105	43.077	-0.205	0.190
-670.091	-138.909	0.157	0.017
-669.076	-60.786	0.062	-0.027
-668.062	-3.015	0.106	0.075
-667.047	-34.916	-0.199	0.111
-666.032	800.000	0.130	-0.394
-665.018	800.000	0.078	-0.333
-664.003	-160.332	-0.308	-0.017
-662.989	184.291	0.172	0.258
-661.974	61.787	-0.128	0.129
-660.959	23.194	-0.166	-0.138
-659.945	-80.927	0.029	-0.010
-658.930	800.000	-0.041	-0.126
-657.916	-114.891	0.205	-0.040
-656.901	-36.395	0.361	-0.197
-655.886	-67.051	0.081	-0.032
-654.872	615.813	-0.079	-0.200
-653.857	-145.820	-0.088	-0.008
-652.843	534.787	-0.105	-0.253
-651.828	800.000	-0.022	-0.089
-650.814	-75.433	-0.238	-0.086
-649.799	-14.961	0.227	-0.148
-648.784	-156.011	0.204	0.013
-647.770	-55.433	-0.157	0.071
-646.755	193.501	0.067	-0.103
-645.741	-60.739	0.139	0.060
-644.726	376.869	-0.171	-0.355
-643.711	-77.162	-0.290	-0.103
-642.697	-39.859	0.182	-0.097
-641.682	242.287	-0.102	0.173
-640.668	46.565	-0.153	0.144
-639.653	-55.564	-0.362	0.164
-638.638	800.000	0.093	0.301
-637.624	71.608	0.157	0.165
-636.609	82.206	-0.206	0.226
-635.595	-200.000	-0.061	-0.388
-634.580	32.018	-0.138	0.121
-633.565	-42.493	-0.192	-0.099
-632.551	49.170	0.084	0.080
-631.536	800.000	-0.118	0.400
-630.522	800.000	-0.074	0.313
-629.507	-156.369	-0.315	0.020
-628.492	-200.000	0.078	-0.447
-627.478	-49.131	-0.142	0.069
-626.463	800.000	-0.065	0.196
-625.449	-69.806	0.234	0.091
-624.434	800.000	0.061	0.184
-623.419	98.242	0.056	-0.065
-622.405	20.732	0.246	-0.202
-621.390	163.677	0.101	0.145
-620.376	800.000	-0.082	0.326
-619.361	47.139	0.139	-0.132
-618.346	-31.928	0.202	-0.115
-617.332	800.000	-0.034	0.114
-616.317	-79.389	0.256	-0.088
-615.303	-34.550	-0.084	0.047
-614.288	13.765	-0.221	0.174
-613.273	800.000	0.101	0.394
-612.259	-0.119	-0.174	0.126
-611.244	240.372	0.064	0.108
-610.230	-70.111	-0.274	0.106
-609.215	-28.551	0.252	0.147
-608.201	-147.731	0.236	0.020
-607.186	42.578	-0.050	-0.046
-606.171	-26.250	0.228	-0.136
-605.157	-200.000	0.008	-0.124
-604.142	-200.000	-0.064	0.332
-603.128	-126.079	-0.056	-0.009
-602.113	-93.412	-0.271	-0.076
-601.098	-60.112	0.331	-0.143
-600.084	-83.833	0.088	-0.028
-599.069	49.405	0.196	0.187
-598.055	181.075	0.137	-0.204
-597.040	-92.161	-0.286	-0.082
-596.025	-144.458	-0.230	0.022
-595.011	800.000	-0.064	-0.187
-593.996	121.159	0.087	-0.109
-592.982	-70.957	-0.141	-0.054
-591.967	183.377	-0.221	-0.330
-590.952	713.454	-0.124	-0.333
-589.938	254.259	0.025	0.044
-588.923	-2.098	0.120	-0.086
-587.909	40.711	-0.116	-0.106
-586.894	-200.000	0.007	0.168
-585.879	580.975	0.102	-0.253
-584.865	800.000	0.054	-0.161
-583.850	-71.145	0.109	-0.041
-582.836	-200.000	0.051	0.265
-581.821	-200.000	0.042	-0.287
-580.806	72.722	-0.070	-0.074
-579.792	536.297	-0.071	-0.172
-578.777	-200.000	-0.025	-0.136
-577.763	280.788	-0.039	0.070
-576.748	-193.748	-0.389	-0.003
-575.733	-200.000	0.036	-0.195
-574.719	599.024	0.056	-0.140
-573.704	-127.608	0.572	0.084
-572.690	18.454	-0.137	-0.111
-571.675	800.000	0.060	0.207
-570.661	209.759	0.062	0.098
-569.646	63.141	-0.111	-0.112
-568.631	-162.784	-0.140	0.007
-567.617	35.339	-0.114	0.101
-566.602	-69.237	0.164	0.064
-565.588	294.862	-0.108	0.200
-564.573	-125.402	-0.277	0.043
-563.558	-8.842	-0.105	-0.071
-562.544	67.321	-0.235	-0.242
-561.529	302.905	0.114	-0.214
-560.515	-140.675	-0.069	-0.007
-559.500	-88.770	-0.207	-0.062
-558.485	-200.000	0.020	0.345
-557.471	-182.144	-0.198	0.004
-556.456	-200.000	0.010	-0.054
-555.442	41.330	0.178	0.163
-554.427	-103.503	-0.439	-0.104
-553.412	-0.852	0.069	-0.049
-552.398	-200.000	0.035	-0.293
-551.383	-173.270	0.080	-0.002
-550.369	-82.431	0.185	-0.061
-549.354	-109.570	0.080	-0.017
-548.339	-89.236	-0.136	0.040
-547.325	361.920	0.155	-0.314
-546.310	-84.718	-0.236	0.075
-545.296	-200.000	0.043	-0.393
-544.281	275.822	0.174	-0.312
-543.266	344.687	0.075	0.148
-542.252	367.689	-0.142	-0.289
-541.237	6.668	-0.292	0.219
-540.223	-34.731	-0.171	-0.094
-539.208	-133.866	0.351	0.044
-538.193	61.499	0.089	0.090
-537.179	94.559	-0.151	0.173
-536.164	-73.117	0.150	-0.056
-535.150	-27.946	-0.219	0.128
-534.135	201.155	0.134	0.208
-533.121	-100.927	-0.088	0.022
-532.106	-70.596	-0.121	0.046
-531.091	-136.364	-0.397	-0.047
-530.077	-200.000	0.027	-0.223
-529.062	-119.313	-0.080	-0.014
-528.048	-45.835	0.177	-0.089
-527.033	181.580	0.058	-0.087
-526.018	-21.426	0.156	-0.096
-525.004	-121.614	0.253	0.042
-523.989	63.190	-0.083	0.084
-522.975	-200.000	0.006	0.189
-521.960	800.000	0.049	-0.181
-520.945	4.097	0.006	0.004
-519.931	-200.000	0.028	0.159
-518.916	-76.314	0.142	0.051
-517.902	-200.000	0.040	-0.213
-516.887	-26.958	-0.067	0.040
-515.872	-156.276	-0.275	-0.017
-514.858	202.970	0.062	0.097
-513.843	89.241	0.057	-0.064
-512.829	800.000	0.105	-0.316
-511.814	-69.644	-0.253	-0.098
-510.799	4.169	0.214	0.158
-509.785	-103.759	0.263	-0.062
-508.770	-200.000	-0.017	-0.089
-507.756	-108.246	0.148	-0.032
-506.741	-51.228	0.167	0.079
-505.726	-53.070	0.108	0.050
-504.712	-130.732	0.493	-0.067
-503.697	527.191	0.074	-0.177
-502.683	-200.000	0.003	-0.066
-501.668	-149.445	0.628	0.050
-500.653	24.582	-0.154	0.129
-499.639	-200.000	0.057	-0.266
-498.624	-200.000	-0.086	-0.504
-497.610	-200.000	0.015	0.169
-496.595	-94.568	-0.253	-0.070
-495.581	-200.000	-0.068	-0.315
-494.566	800.000	-0.067	0.224
-493.551	124.975	-0.054	0.069
-492.537	800.000	0.076	0.234
-491.522	-200.000	0.000	0.015
-490.508	-181.369	0.369	0.007
-489.493	105.762	0.183	-0.218
-488.478	167.497	-0.137	-0.196
-487.464	304.960	0.033	-0.062
-486.449	485.420	-0.136	0.312
-485.435	44.934	0.181	0.168
-484.420	66.437	0.201	-0.206
-483.405	-38.344	0.154	0.082
-482.391	-163.361	-0.459	-0.022
-481.376	-50.421	0.166	0.079
-480.362	61.360	0.161	0.161
-479.347	14.979	0.113	-0.090
-478.332	-200.000	0.047	0.243
-477.318	238.349	0.220	-0.368
-476.303	311.473	0.048	-0.091
-475.289	-165.730	-0.200	0.009
-474.274	32.058	-0.252	-0.219
-473.259	36.338	0.136	-0.121
-472.245	-13.365	-0.246	-0.161
-471.230	467.924	0.085	-0.191
-470.216	67.732	0.003	0.003
-469.201	172.528	-0.118	-0.171
-468.186	-2.581	-0.221	0.156
-467.172	-157.465	0.428	0.026
-466.157	-4.644	0.100	-0.070
-465.143	291.969	0.097	0.177
-464.128	141.311	-0.066	0.088
-463.113	30.833	-0.195	-0.169
-462.099	-60.037	-0.158	-0.068
-461.084	53.329	0.121	0.116
-460.070	-3.175	0.104	-0.073
-459.055	-200.000	0.054	0.240
-458.040	167.242	0.216	0.309
-457.026	-102.316	-0.074	0.018
-456.011	-52.267	0.155	-0.073
-454.997	-92.432	0.271	0.077
-453.982	-157.569	-0.305	-0.018
-452.968	-65.568	-0.261	0.105
-451.953	222.326	0.167	-0.271
-450.938	377.918	0.173	-0.357
-449.924	27.615	0.172	-0.145
-448.909	13.438	-0.172	0.135
-447.895	191.152	-0.030	-0.046
-446.880	-68.926	0.158	-0.061
-445.865	-92.873	-0.086	0.024
-444.851	-84.849	-0.121	-0.038
-443.836	800.000	-0.119	0.379
-442.822	800.000	0.014	0.046
-441.807	117.386	0.119	-0.147
-440.792	392.729	-0.156	-0.328
-439.778	-200.000	-0.001	-0.364
-438.763	560.899	0.123	0.300
-437.749	-200.000	-0.020	0.105
-436.734	-67.697	-0.099	0.039
-435.719	-82.117	-0.275	-0.090
-434.705	-4.076	0.285	0.199
-433.690	-200.000	0.020	0.256
-432.676	-200.000	-0.044	0.298
-431.661	-200.000	-0.034	0.373
-430.646	601.905	-0.098	0.245
-429.632	-112.711	0.292	0.058
-428.617	554.077	-0.095	0.231
-427.603	22.315	-0.197	0.162
-426.588	-160.743	0.230	0.012
-425.573	-107.414	0.228	-0.050
-424.559	-200.000	-0.061	-0.329
-423.544	75.645	-0.170	0.181
-422.530	-62.979	-0.282	0.117
-421.515	-200.000	-0.074	-0.411
-420.500	-200.000	-0.017	-0.210
-419.486	-19.522	0.355	-0.221
-418.471	-34.946	-0.269	-0.147
-417.457	-70.455	0.455	-0.174
-416.442	-139.636	0.106	0.011
-415.428	-151.242	-0.599	0.045
-414.413	28.045	-0.361	0.306
-413.398	800.000	-0.047	0.154
-412.384	37.626	0.097	0.086
-411.369	-200.000	0.061	-0.272
-410.355	158.060	-0.085	-0.119
-409.340	170.505	-0.027	-0.039
-408.325	33.163	-0.076	0.066
-407.311	-65.642	0.345	0.139
-406.296	-80.151	-0.282	0.095
-405.282	-200.000	-0.002	0.026
-404.267	226.809	-0.133	-0.218
-403.252	236.875	0.170	-0.282
-402.238	81.534	-0.087	0.094
-401.223	-35.450	-0.211	0.115
-400.209	188.207	-0.063	0.095
-399.194	-28.934	0.143	-0.082
-398.179	-146.343	0.283	0.025
-397.165	-30.790	0.039	0.022
-396.150	362.560	-0.119	0.240
-395.136	200.039	-0.130	0.200
-394.121	-31.522	0.141	0.079
-393.106	-161.170	-0.253	0.013
-392.092	-35.627	0.162	0.089
-391.077	-76.432	-0.038	0.014
-390.063	-200.000	0.054	-0.447
-389.048	59.132	-0.090	-0.089
-388.033	-200.000	0.012	-0.313
-387.019	-200.000	0.023	-0.159
-386.004	43.011	0.042	0.039
-384.990	-110.865	-0.255	0.053
-383.975	716.179	0.090	-0.239
-382.960	-200.000	-0.037	-0.248
-381.946	-55.988	0.259	-0.116
-380.931	-82.484	0.319	0.104
-379.917	107.535	0.123	0.147
-378.902	325.824	0.166	0.319
-377.888	-47.979	0.279	0.135
-376.873	424.354	-0.043	-0.092
-375.858	-112.595	-0.136	-0.027
-374.844	230.963	-0.095	0.157
-373.829	0.737	0.191	0.137
-372.815	-122.522	0.498	-0.081
-371.800	-36.608	-0.104	-0.056
-370.785	-200.000	-0.034	-0.213
-369.771	-137.211	0.441	0.050
-368.756	649.057	-0.163	-0.418
-367.742	423.313	0.138	-0.298
-366.727	-200.000	-0.011	0.251
-365.712	218.005	0.175	0.280
-364.698	-21.539	0.060	-0.037
-363.683	-126.326	0.145	0.022
-362.669	718.908	-0.022	-0.059
-361.654	25.748	-0.185	0.155
-360.639	-200.000	0.024	-0.145
-359.625	-118.744	0.181	-0.032
-358.610	-68.237	0.080	0.031
-357.596	-141.059	0.213	0.022
-356.581	411.657	-0.098	-0.208
-355.566	26.816	0.212	-0.178
-354.552	10.138	-0.187	-0.143
-353.537	49.574	0.080	0.076
-352.523	-76.147	-0.282	-0.100
-351.508	144.508	-0.225	-0.302
-350.493	800.000	-0.049	-0.188
-349.479	-78.463	-0.199	-0.069
-348.464	72.247	-0.281	-0.294
-347.450	-180.635	0.307	0.006
-346.435	-132.380	0.145	0.019
-345.420	32.213	0.086	-0.074
-344.406	-54.913	0.250	0.113
-343.391	-148.164	0.329	0.027
-342.377	-9.509	-0.241	0.161
-341.362	-20.041	-0.382	-0.236
-340.348	5.661	-0.018	-0.013
-339.333	-200.000	0.016	-0.264
-338.318	45.237	-0.224	-0.207
-337.304	-133.482	-0.213	0.027
-336.289	-200.000	0.029	-0.130
-335.275	-188.256	-0.355	-0.005
-334.260	327.160	-0.105	-0.202
-333.245	172.123	0.183	0.263
-332.231	-43.449	0.020	-0.010
-331.216	-56.494	0.335	-0.149
-330.202	149.655	0.123	-0.167
-329.187	-87.260	0.111	0.034
-328.172	-200.000	-0.007	-0.119
-327.158	64.939	-0.216	-0.218
-326.143	7.373	0.311	0.233
-325.129	129.353	-0.190	0.243
-324.114	-72.195	0.391	0.145
-323.099	-200.000	0.002	0.076
-322.085	153.847	-0.233	0.320
-321.070	-42.223	0.060	0.031
-320.056	507.291	0.009	-0.021
-319.041	60.945	-0.188	-0.187
-318.026	-79.100	0.100	0.034
-317.012	716.724	-0.130	0.346
-315.997	117.362	0.256	0.315
-314.983	800.000	-0.069	0.235
-313.968	-7.380	-0.263	-0.179
-312.953	36.128	0.108	0.096
-311.939	-83.054	-0.192	-0.062
-310.924	79.606	0.205	-0.221
-309.910	71.243	0.094	0.097
-308.895	114.540	-0.252	0.308
-307.880	40.469	-0.205	0.185
-306.866	-200.000	0.003	0.276
-305.851	800.000	-0.079	0.273
-304.837	27.263	-0.199	-0.168
-303.822	-152.983	-0.441	-0.031
-302.807	-121.613	-0.125	0.021
-301.793	7.248	0.201	0.151
-300.778	-56.407	-0.163	0.072
-299.764	-113.586	0.188	0.037
-298.749	800.000	-0.183	0.606
-297.735	-97.046	-0.221	0.058
-296.720	-136.286	0.241	-0.028
-295.705	-200.000	-0.027	0.328
-294.691	800.000	0.056	-0.171
-293.676	-200.000	0.022	0.356
-292.662	25.910	0.143	0.120
-291.647	-200.000	-0.042	-0.297
-290.632	800.000	-0.060	0.225
-289.618	-147.341	-0.370	-0.031
-288.603	-96.189	-0.233	-0.062
-287.589	135.665	-0.103	0.134
-286.574	-12.406	0.157	-0.102
-285.559	-181.971	0.217	-0.004
-284.545	800.000	-0.090	0.264
-283.530	316.107	-0.040	-0.076
-282.516	800.000	-0.017	-0.072
-281.501	-200.000	-0.020	0.255
-280.486	-82.725	-0.234	-0.076
-279.472	-5.524	-0.307	0.211
-278.457	38.129	0.173	-0.154
-277.443	-52.607	0.329	0.152
-276.428	106.427	0.085	-0.100
-275.413	-26.802	-0.099	-0.058
-274.399	-33.995	-0.055	0.030
-273.384	773.148	-0.052	-0.142
-272.370	15.451	0.207	-0.162
-271.355	-200.000	-0.017	-0.155
-270.340	249.374	-0.078	0.132
-269.326	71.069	0.031	0.032
-268.311	-56.130	-0.174	-0.077
-267.297	-88.296	-0.103	0.031
-266.282	-61.087	-0.154	-0.065
-265.267	479.663	-0.112	0.253
-264.253	-200.000	-0.002	0.090
-263.238	143.394	-0.101	-0.134
-262.224	800.000	0.045	0.159
-261.209	29.791	-0.049	0.042
-260.195	165.048	0.133	-0.188
-259.180	-100.138	0.014	0.003
-258.165	-63.767	-0.023	0.010
-257.151	155.003	0.170	0.233
-256.136	-49.212	0.191	-0.091
-255.122	-200.000	-0.021	-0.329
-254.107	14.084	-0.324	0.252
-253.092	800.000	0.024	0.080
-252.078	800.000	-0.072	-0.204
-251.063	106.602	-0.046	0.055
-250.049	-42.030	-0.278	0.142
-249.034	800.000	-0.034	-0.122
-248.019	250.237	-0.021	-0.036
-247.005	-94.565	0.101	-0.028
-245.990	-0.849	-0.030	-0.021
-244.976	-150.313	0.558	-0.043
-243.961	800.000	0.140	0.402
-242.946	-131.462	-0.245	0.032
-241.932	66.065	-0.042	0.043
-240.917	659.700	-0.048	-0.124
-239.903	250.082	0.111	0.188
-238.888	495.016	0.060	-0.138
-237.873	-43.287	-0.030	-0.015
-236.859	-130.951	0.186	-0.025
-235.844	56.105	-0.054	0.053
-234.830	-143.722	-0.369	0.035
-233.815	-200.000	-0.070	-0.372
-232.800	-123.056	0.301	0.048
-231.786	-93.459	-0.128	0.035
-230.771	320.229	-0.166	-0.315
-229.757	-46.217	0.165	0.081
-228.742	-200.000	-0.002	-0.102
-227.727	-9.986	0.108	0.071
-226.713	-59.794	0.197	-0.084
-225.698	390.308	0.115	-0.237
-224.684	800.000	0.050	0.179
-223.669	-92.510	0.223	0.062
-222.655	-17.753	0.137	0.086
-221.640	-15.337	0.119	0.076
-220.625	19.570	0.091	0.073
-219.611	460.194	0.059	-0.131
-218.596	752.655	0.103	0.278
-217.582	86.835	-0.195	0.215
-216.567	800.000	-0.022	0.065
-215.552	185.780	-0.141	0.210
-214.538	231.961	0.190	0.310
-213.523	71.012	0.083	0.086
-212.509	800.000	0.047	-0.137
-211.494	533.546	-0.057	0.135
-210.479	-126.507	0.157	-0.023
-209.465	544.184	-0.116	-0.278
-208.450	122.026	0.103	-0.128
-207.436	94.110	-0.327	0.370
-206.421	-6.883	0.177	-0.120
-205.406	-55.587	-0.129	-0.058
-204.392	-45.133	-0.237	0.117
-203.377	619.701	0.141	-0.354
-202.363	56.818	-0.144	-0.140
-201.348	800.000	0.042	-0.138
-200.333	55.869	0.188	0.181
-199.319	-173.679	0.192	-0.006
-198.304	74.293	-0.312	-0.327
-197.290	49.129	-0.045	0.042
-196.275	76.013	0.192	-0.202
-195.260	-164.558	-0.474	0.021
-194.246	703.124	-0.119	0.313
-193.231	3.983	0.088	-0.064
-192.217	-200.000	-0.021	0.168
-191.202	338.265	0.105	0.204
-190.187	220.020	-0.137	-0.219
-189.173	-115.803	0.296	-0.055
-188.158	199.774	0.220	0.337
-187.144	800.000	0.030	-0.106
-186.129	-170.250	-0.151	-0.005
-185.114	-18.376	0.223	0.139
-184.100	-200.000	-0.024	0.126
-183.085	-19.929	-0.227	-0.140
-182.071	-13.968	-0.097	-0.062
-181.056	-31.041	0.380	0.214
-180.042	127.048	-0.114	0.144
-179.027	13.485	-0.101	0.078
-178.012	74.172	0.188	0.196
-176.998	-200.000	-0.048	0.375
-175.983	23.845	-0.315	0.259
-174.969	800.000	0.029	0.098
-173.954	-137.378	0.299	0.034
-172.939	-200.000	0.006	0.028
-171.925	133.482	-0.160	0.206
-170.910	800.000	-0.067	0.252
-169.896	-200.000	-0.053	0.289
-168.881	1.699	0.146	-0.105
-167.866	-200.000	-0.001	0.034
-166.852	800.000	0.041	-0.169
-165.837	-142.594	-0.227	0.022
-164.823	-74.589	-0.225	-0.081
-163.808	-200.000	-0.036	-0.298
-162.793	-137.204	-0.295	-0.033
-161.779	-173.971	0.224	0.007
-160.764	7.898	0.226	0.169
-159.750	54.045	0.066	-0.064
-158.735	-4.403	0.105	-0.073
-157.720	-111.739	0.225	-0.045
-156.706	-104.165	-0.376	0.087
-155.691	-18.530	-0.194	-0.121
-154.677	-200.000	-0.012	-0.410
-153.662	-200.000	0.050	-0.325
-152.647	-168.598	-0.249	0.009
-151.633	377.751	0.086	-0.175
-150.618	-1.750	-0.163	-0.115
-149.604	-25.336	0.259	-0.152
-148.589	800.000	-0.034	0.141
-147.574	300.104	-0.284	0.522
-146.560	-200.000	-0.025	-0.196
-145.545	308.005	0.147	-0.273
-144.531	98.739	-0.094	0.108
-143.516	-105.117	-0.039	-0.009
-142.502	-200.000	-0.010	-0.084
-141.487	-200.000	0.082	-0.443
-140.472	-7.610	0.156	-0.105
-139.458	239.042	-0.154	-0.254
-138.443	-124.519	0.321	0.050
-137.429	-50.741	-0.030	-0.014
-136.414	800.000	0.123	-0.340
-135.399	-200.000	0.007	0.202
-134.385	682.232	0.050	-0.130
-133.370	167.671	-0.069	0.097
-132.356	-200.000	-0.003	0.239
-131.341	-54.295	0.186	-0.084
-130.326	800.000	0.036	0.129
-129.312	-169.299	0.240	0.009
-128.297	47.112	0.087	0.081
-127.283	-200.000	-0.008	0.042
-126.268	136.402	0.063	0.082
-125.253	43.128	-0.262	0.238
-124.239	110.361	-0.271	-0.324
-123.224	-200.000	-0.015	-0.231
-122.210	499.912	-0.100	-0.230
-121.195	-167.043	0.259	-0.010
-120.180	800.000	-0.064	0.178
-119.166	393.859	-0.100	0.208
-118.151	70.026	-0.125	0.128
-117.137	-13.243	-0.112	0.072
-116.122	312.392	-0.137	0.255
-115.107	-25.197	0.247	0.146
-114.093	-153.056	0.186	0.013
-113.078	-200.000	0.010	-0.142
-112.064	-14.693	-0.279	-0.178
-111.049	116.144	0.102	0.124
-110.034	-120.108	0.078	0.013
-109.020	-68.444	-0.247	-0.095
-108.005	-38.435	0.221	0.116
-106.991	-200.000	0.063	0.279
-105.976	552.407	0.029	0.069
-104.962	-105.779	0.254	-0.057
-103.947	-128.312	0.221	-0.031
-102.932	-76.231	0.245	0.086
-101.918	42.504	0.111	0.100
-100.903	-200.000	0.052	0.330
-99.889	664.626	-0.043	0.111
-98.874	-9.656	0.375	0.249
-97.859	14.020	0.305	-0.236
-96.845	-21.197	0.426	-0.259
-95.830	33.596	0.088	-0.076
-94.816	-31.381	0.186	0.104
-93.801	155.011	-0.091	-0.124
-92.786	-139.856	0.210	-0.022
-91.772	27.446	0.211	0.177
-90.757	-171.024	0.425	-0.014
-89.743	-89.072	0.096	-0.028
-88.728	44.795	0.239	-0.219
-87.713	-67.237	-0.197	0.077
-86.699	-200.000	-0.026	0.192
-85.684	329.261	-0.045	0.087
-84.670	-179.104	-0.282	0.006
-83.655	-58.479	-0.203	-0.087
-82.640	148.297	-0.218	-0.293
-81.626	-36.655	0.193	-0.103
-80.611	-200.000	0.019	0.269
-79.597	-1.844	-0.121	-0.085
-78.582	212.443	0.132	-0.206
-77.567	128.343	0.127	0.161
-76.553	123.555	-0.163	0.203
-75.538	-200.000	-0.019	-0.193
-74.524	-200.000	0.020	0.108
-73.509	-49.549	0.131	0.062
-72.494	-200.000	0.041	-0.363
-71.480	800.000	-0.078	-0.339
-70.465	-96.423	-0.357	0.094
-69.451	34.748	0.164	0.142
-68.436	151.327	-0.049	0.067
-67.422	-127.098	-0.271	0.039
-66.407	548.444	0.081	-0.191
-65.392	-38.409	-0.153	0.080
-64.378	800.000	-0.071	0.220
-63.363	69.560	0.076	0.078
-62.349	-134.045	-0.114	0.014
-61.334	-32.714	-1.170	-0.646
-60.319	364.171	0.256	0.511
-59.305	-200.000	-0.138	-0.837
-58.290	203.871	0.597	0.917
-57.276	800.000	0.523	1.644
-56.261	-200.000	94.934	564.011
-55.246	638.228	1383.102	3487.162
-54.232	185.750	2602.553	3835.737
-53.217	122.011	2216.362	2743.618
-52.203	45.863	1748.719	1604.020
-51.188	38.301	1558.259	1376.293
-50.173	35.842	1530.672	1334.838
-49.159	53.688	1580.772	1504.807
-48.144	57.405	1599.590	1548.878
-47.130	38.699	1554.975	1375.963
-46.115	35.367	1539.829	1339.295
-45.100	35.294	1536.460	1335.806
-44.086	35.256	1534.496	1333.777
-43.071	35.097	1532.679	1331.042
-42.057	35.112	1531.096	1329.716
-41.042	35.173	1529.445	1328.655
-40.027	35.225	1527.770	1327.507
-39.013	35.225	1526.647	1326.476
-37.998	35.187	1524.860	1324.607
-36.984	35.052	1524.629	1323.424
-35.969	35.090	1522.996	1322.217
-34.954	35.230	1520.885	1321.298
-33.940	35.053	1520.152	1319.384
-32.925	35.151	1518.533	1318.604
-31.911	35.117	1517.749	1317.637
-30.896	35.224	1515.853	1316.677
-29.881	35.250	1513.986	1315.178
-28.867	35.125	1513.359	1313.721
-27.852	35.128	1512.191	1312.681
-26.838	35.228	1510.288	1311.657
-25.823	35.196	1508.985	1310.258
-24.809	35.182	1507.192	1308.550
-23.794	35.152	1505.646	1306.955
-22.779	35.236	1504.599	1306.563
-21.765	35.190	1503.430	1305.181
-20.750	35.165	1502.279	1303.966
-19.736	35.244	1501.247	1303.550
-18.721	35.236	1500.292	1302.615
-17.706	35.185	1499.006	1301.104
-16.692	35.255	1497.538	1300.251
-15.677	35.161	1496.738	1298.869
-14.663	35.186	1495.991	1298.338
-13.648	35.039	1495.211	1296.612
-12.633	35.062	1494.093	1295.747
-11.619	35.167	1492.987	1295.445
-10.604	35.174	1492.396	1294.932
-9.590	35.213	1491.264	1294.164
-8.575	35.196	1490.362	1293.215
-7.560	35.138	1489.559	1292.075
-6.546	34.967	1489.241	1290.594
-5.531	35.151	1487.728	1290.473
-4.517	35.128	1486.706	1289.375
-3.502	35.116	1485.786	1288.447
-2.487	35.128	1484.876	1287.688
-1.473	35.109	1483.691	1286.479
-0.458	35.021	1482.959	1285.203
0.556	37.319	1473.387	1275.276
1.571	34.264	1445.802	1231.574
2.586	30.177	1381.710	1151.550
3.600	27.783	1297.286	1067.114
4.615	25.424	1249.249	1014.211
5.629	21.411	1190.959	945.161
6.644	12.786	1104.534	833.068
7.659	5.838	1062.508	767.406
8.673	4.855	1056.473	758.197
9.688	4.543	1053.599	754.553
10.702	4.364	1051.540	752.142
11.717	4.538	1050.908	752.467
12.731	7.904	1054.041	770.968
13.746	16.366	1066.050	820.972
14.761	22.151	1072.709	854.234
15.775	22.351	1071.633	854.272
16.790	21.556	1070.130	849.145
17.804	20.442	1068.035	842.011
18.819	19.478	1066.060	835.714
19.834	19.126	1065.071	833.158
20.848	18.876	1064.199	831.198
21.863	18.864	1063.648	830.632
22.877	18.727	1062.836	829.262
23.892	18.402	1062.155	827.092
24.907	18.357	1061.210	826.067
25.921	18.503	1059.977	825.733
26.936	18.401	1059.344	824.677
27.950	18.560	1058.211	824.489
28.965	18.368	1057.712	823.102
29.980	18.484	1055.901	822.179
30.994	18.801	1054.778	822.749
32.009	18.768	1054.418	822.235
33.023	18.765	1053.664	821.560
34.038	18.718	1053.248	820.938
35.053	18.713	1052.199	820.026
36.067	18.547	1051.236	818.411
37.082	18.473	1050.248	817.218
38.096	18.546	1049.448	816.869
39.111	18.546	1049.178	816.584
40.126	18.830	1047.539	816.591
41.140	18.602	1046.856	814.902
42.155	18.446	1045.408	812.960
43.169	18.203	1044.591	811.103
44.184	18.018	1043.472	809.285
45.199	18.107	1041.945	808.450
46.213	18.148	1041.147	807.953
47.228	18.142	1040.609	807.437
48.242	18.350	1039.838	807.747
49.257	18.409	1039.323	807.554
50.271	18.506	1037.868	806.808
51.286	18.402	1037.324	805.826
52.301	18.605	1036.158	805.802
53.315	18.584	1035.672	805.255
54.330	18.541	1034.762	804.272
55.344	18.351	1033.550	802.371
56.359	18.215	1032.226	800.634
57.374	18.406	1031.406	800.821
58.388	18.236	1030.648	799.367
59.403	18.081	1029.780	797.899
60.417	18.207	1028.473	797.405
61.432	18.035	1028.368	796.451
62.447	18.022	1027.723	795.820
63.461	17.995	1026.877	794.970
64.476	17.887	1025.627	793.430
65.490	17.902	1024.261	792.371
66.505	17.901	1023.823	791.960
67.520	17.901	1023.807	791.876
68.534	18.113	1022.342	791.653
69.549	17.963	1021.662	790.364
70.563	17.995	1020.752	789.739
71.578	17.911	1020.312	788.938
72.593	17.905	1019.134	787.932
73.607	17.728	1018.195	786.317
74.622	17.754	1017.083	785.513
75.636	17.794	1016.148	784.903
76.651	17.811	1015.291	784.251
77.666	17.727	1015.383	783.867
78.680	17.862	1013.938	783.303
79.695	17.865	1013.717	783.075
80.709	17.805	1012.880	782.084
81.724	17.968	1012.634	782.571
82.739	18.040	1011.676	782.089
83.753	18.289	1011.044	782.670
84.768	18.330	1010.749	782.563
85.782	18.613	1009.834	783.077
86.797	18.865	1009.210	783.675
87.812	18.668	1008.842	782.419
88.826	18.501	1007.548	780.586
89.841	18.597	1006.560	780.190
90.855	18.556	1005.918	779.437
91.870	18.822	1004.711	779.640
92.884	18.694	1004.784	779.046
93.899	18.798	1003.805	778.691
94.914	18.763	1002.853	777.724
95.928	18.882	1001.874	777.434
96.943	18.931	1001.337	777.169
97.957	18.694	1000.437	775.332
98.972	18.646	999.560	774.367
99.987	18.665	999.071	774.005
101.001	18.677	998.485	773.535
102.016	18.698	997.349	772.680
103.030	18.626	996.331	771.499
104.045	18.601	995.719	770.849
105.060	18.685	994.710	770.375
106.074	18.622	993.419	769.027
107.089	18.361	992.454	767.042
108.103	18.189	991.102	765.159
109.118	18.125	990.089	764.024
110.133	18.027	989.666	763.190
111.147	17.967	988.636	762.061
112.162	17.931	987.335	760.832
113.176	17.981	986.776	760.556
114.191	18.170	986.116	760.819
115.206	18.228	985.201	760.307
116.220	18.244	984.185	759.524
117.235	18.027	983.983	758.336
118.249	18.079	983.067	757.797
119.264	18.063	982.643	757.332
120.279	17.964	980.963	755.530
121.293	17.951	980.054	754.708
122.308	17.953	979.619	754.313
123.322	17.796	978.400	752.618
124.337	17.850	977.349	751.979
125.352	17.779	976.150	750.677
126.366	17.680	975.551	749.717
127.381	17.754	974.276	748.992
128.395	17.735	973.217	748.029
129.410	17.794	972.588	747.740
130.424	18.002	971.332	747.619
131.439	17.914	971.025	746.929
132.454	18.016	969.979	746.506
133.468	18.156	969.165	746.424
134.483	18.148	969.116	746.284
135.497	18.168	968.183	745.589
136.512	18.207	967.466	745.139
137.527	18.169	967.187	744.695
138.541	18.183	965.954	743.737
139.556	18.270	965.028	743.339
140.570	18.150	964.540	742.378
141.585	18.310	963.827	742.453
142.600	18.459	963.669	742.912
143.614	18.644	962.438	742.699
144.629	18.706	961.406	742.106
145.643	18.721	960.914	741.726
146.658	18.682	960.363	741.067
147.673	18.594	958.761	739.383
148.687	18.500	957.775	738.155
149.702	18.253	957.554	736.856
150.716	18.193	956.208	735.497
151.731	18.071	955.443	734.317
152.746	18.103	954.901	733.976
153.760	18.187	954.393	733.881
154.775	18.323	953.412	733.641
155.789	18.494	952.637	733.716
156.804	18.436	952.075	732.969
157.819	18.459	951.092	732.243
158.833	18.408	950.800	731.736
159.848	18.688	949.823	732.114
160.862	18.690	949.429	731.755
161.877	18.739	948.352	731.069
162.892	18.478	947.557	729.283
163.906	18.225	946.534	727.352
164.921	18.160	945.417	726.155
165.935	18.210	944.547	725.635
166.950	18.275	943.946	725.383
167.964	18.367	942.652	724.715
168.979	18.369	941.917	724.095
169.994	18.367	940.890	723.231
171.008	18.327	939.779	722.145
172.023	18.385	939.266	721.932
173.037	18.436	938.800	721.724
174.052	18.600	938.045	721.770
175.067	18.686	936.961	721.233
176.081	18.368	936.183	719.236
177.096	18.187	935.490	717.881
178.110	18.151	934.341	716.782
179.125	18.086	934.006	716.192
180.140	18.301	933.309	716.494
181.154	18.354	932.285	715.864
182.169	18.381	932.054	715.739
183.183	18.522	931.646	715.950
184.198	18.700	930.592	715.819
185.213	18.655	929.721	714.900
186.227	18.647	929.271	714.457
187.242	18.664	928.809	714.108
188.256	18.732	928.423	714.033
189.271	18.751	927.625	713.436
190.286	18.940	926.768	713.494
191.300	18.658	926.159	711.795
192.315	18.412	924.625	709.532
193.329	18.064	924.025	707.569
194.344	18.133	923.448	707.351
195.359	18.248	922.686	707.179
196.373	18.381	922.468	707.501
197.388	18.482	921.979	707.479
198.402	18.688	921.420	707.838
199.417	18.844	921.329	708.348
200.432	19.117	920.492	708.765
201.446	18.927	920.875	708.214
202.461	19.169	919.779	708.304
203.475	19.168	919.570	708.076
204.490	19.220	918.799	707.632
205.504	18.940	917.746	705.612
206.519	18.856	916.904	704.559
207.534	18.908	916.040	704.046
208.548	18.706	915.510	702.749
209.563	18.673	915.072	702.216
210.577	18.819	913.864	701.823
211.592	18.859	913.218	701.427
212.607	18.950	913.314	701.810
213.621	19.094	912.800	701.941
214.636	19.041	911.996	701.044
215.650	19.114	911.106	700.597
216.665	19.230	910.541	700.572
217.680	19.111	910.113	699.694
218.694	19.299	909.997	700.308
219.709	19.290	909.565	699.878
220.723	19.240	908.949	699.140
221.738	19.295	907.702	698.338
222.753	19.033	907.226	696.852
223.767	19.073	906.220	696.177
224.782	19.258	905.695	696.462
225.796	19.345	904.832	696.087
226.811	19.428	904.486	696.093
227.826	19.284	903.866	694.976
228.840	19.262	902.702	693.932
229.855	19.158	902.255	693.108
230.869	19.186	901.373	692.479
231.884	18.977	901.257	691.489
232.899	19.004	900.374	690.857
233.913	18.994	899.452	690.052
234.928	18.998	898.397	689.197
235.942	19.033	897.484	688.576
236.957	18.819	897.053	687.329
237.972	18.914	896.645	687.336
238.986	19.034	895.663	687.000
240.001	19.030	895.290	686.635
241.015	19.046	894.711	686.196
242.030	19.047	894.085	685.658
243.045	19.032	893.417	685.026
244.059	19.126	892.923	684.962
245.074	19.106	892.418	684.434
246.088	19.189	891.941	684.335
247.103	19.225	891.527	684.100
248.117	19.504	890.599	684.436
249.132	19.408	890.257	683.730
250.147	19.827	889.677	684.885
251.161	20.085	889.052	685.362
252.176	19.998	888.967	684.892
253.190	20.061	887.938	684.287
254.205	20.158	887.596	684.348
255.220	20.229	887.129	684.209
256.234	20.130	886.137	682.993
257.249	19.976	885.590	681.904
258.263	20.049	885.064	681.725
259.278	20.019	884.754	681.307
260.293	20.001	883.964	680.569
261.307	20.096	883.635	680.626
262.322	20.229	882.869	680.499
263.336	20.209	882.540	680.109
264.351	20.323	881.716	679.858
265.366	20.093	881.517	678.745
266.380	20.171	880.474	678.187
267.395	20.239	879.721	677.811
268.409	20.180	878.667	676.712
269.424	20.012	878.098	675.555
270.439	20.023	877.452	675.041
271.453	19.998	876.683	674.295
272.468	20.022	875.483	673.405
273.482	19.920	875.326	672.827
274.497	19.973	874.451	672.302
275.512	19.887	874.136	671.665
276.526	20.018	873.035	671.267
277.541	19.939	872.600	670.569
278.555	19.793	872.205	669.640
279.570	20.055	871.747	670.244
280.585	20.393	871.375	671.203
281.599	20.329	870.794	670.452
282.614	20.148	869.945	669.038
283.628	20.219	869.118	668.618
284.643	20.017	868.492	667.298
285.657	20.091	868.063	667.196
286.672	20.143	867.301	666.750
287.687	20.140	867.113	666.534
288.701	20.200	866.520	666.249
289.716	20.210	866.098	665.906
290.730	20.097	865.611	665.038
291.745	20.201	864.853	664.796
292.760	20.145	864.102	663.945
293.774	20.235	863.589	663.837
294.789	20.377	863.030	663.893
295.803	20.497	862.369	663.782
296.818	20.224	861.684	662.156
297.833	20.159	861.590	661.776
298.847	20.228	860.473	661.123
299.862	20.208	859.866	660.520
300.876	20.269	859.269	660.236
301.891	20.268	859.054	660.010
302.906	20.499	858.226	660.191
303.920	20.513	857.444	659.586
304.935	20.596	857.169	659.631
305.949	20.803	856.363	659.736
306.964	20.734	855.712	658.915
307.979	20.694	854.649	657.886
308.993	20.551	854.629	657.273
310.008	20.513	854.049	656.627
311.022	20.564	853.910	656.654
312.037	20.633	853.001	656.158
313.052	20.547	852.154	655.121
314.066	20.365	851.708	654.035
315.081	20.219	851.076	652.944
316.095	20.258	850.681	652.730
317.110	20.293	849.847	652.164
318.125	20.169	849.519	651.388
319.139	20.294	848.918	651.339
320.154	20.217	848.426	650.616
321.168	20.289	847.854	650.387
322.183	20.378	847.011	650.016
323.197	20.382	846.490	649.574
324.212	20.452	846.186	649.548
325.227	20.402	845.999	649.158
326.241	20.504	844.985	648.701
327.256	20.361	844.601	647.817
328.270	20.383	843.970	647.358
329.285	20.292	843.325	646.469
330.300	20.397	842.787	646.387
331.314	20.331	842.506	645.869
332.329	20.494	841.572	645.701
333.343	20.522	841.184	645.453
334.358	20.671	840.563	645.472
335.373	20.700	840.364	645.367
336.387	20.625	839.742	644.557
337.402	20.870	838.965	644.811
338.416	20.736	838.346	643.781
339.431	20.908	838.244	644.282
340.446	21.078	837.658	644.402
341.460	21.086	837.416	644.189
342.475	21.174	836.790	643.976
343.489	21.221	835.911	643.414
344.504	21.232	835.418	643.017
345.519	21.291	834.938	642.809
346.533	21.290	834.669	642.541
347.548	21.302	834.030	642.036
348.562	21.144	833.467	640.967
349.577	20.996	832.744	639.810
350.592	20.785	832.073	638.466
351.606	20.655	831.832	637.746
352.621	20.761	830.980	637.424
353.635	20.798	830.856	637.410
354.650	20.917	830.275	637.344
355.665	20.800	830.119	636.739
356.679	20.883	829.496	636.508
357.694	21.036	828.955	636.596
358.708	21.125	828.479	636.499
359.723	21.126	827.484	635.679
360.738	20.929	827.203	634.690
361.752	20.944	826.941	634.487
362.767	21.044	826.229	634.251
363.781	21.148	826.039	634.424
364.796	21.420	825.646	635.054
365.810	21.608	825.391	635.485
366.825	21.506	825.184	634.901
367.840	21.451	824.846	634.384
368.854	21.636	824.032	634.372
369.869	21.435	823.411	633.109
370.883	21.400	822.869	632.510
371.898	21.265	822.253	631.492
372.913	21.491	821.709	631.836
373.927	21.713	821.229	632.213
374.942	21.434	820.499	630.589
375.956	21.382	819.898	629.884
376.971	21.605	819.252	630.134
377.986	21.732	818.560	630.001
379.000	21.879	818.353	630.318
380.015	21.721	818.267	629.627
381.029	21.645	817.826	628.958
382.044	21.852	816.806	628.858
383.059	21.718	816.371	627.989
384.073	21.669	815.740	627.275
385.088	21.728	815.140	626.969
386.102	21.504	814.724	625.792
387.117	21.450	813.710	624.763
388.132	21.456	813.320	624.432
389.146	21.350	813.116	623.840
390.161	21.354	812.685	623.470
391.175	21.688	812.097	624.153
392.190	21.833	812.093	624.611
393.205	21.608	811.499	623.298
394.219	21.489	811.136	622.539
395.234	21.470	810.322	621.793
396.248	21.420	809.653	621.047
397.263	21.259	809.242	620.105
398.278	21.250	809.046	619.868
399.292	21.206	808.465	619.212
400.307	21.285	807.805	618.933
401.321	21.333	807.398	618.736
402.336	21.378	806.946	618.495
403.350	21.443	806.849	618.596
404.365	21.517	806.232	618.327
405.380	21.627	805.928	618.427
406.394	21.821	805.587	618.798
407.409	21.930	805.176	618.812
408.423	21.939	804.949	618.615
409.438	21.914	804.093	617.811
410.453	22.116	803.688	618.159
411.467	22.187	803.567	618.261
412.482	22.084	802.814	617.263
413.496	22.252	802.619	617.651
414.511	22.292	802.192	617.407
415.526	22.252	802.007	617.068
416.540	22.198	801.405	616.363
417.555	22.109	801.060	615.730
418.569	22.155	800.478	615.389
419.584	22.089	799.982	614.725
420.599	22.144	799.759	614.691
421.613	158.592	1367.935	1788.006
422.628	137.645	1450.730	1788.131
