DTS Sentinel unit serial number:	SN413079Multiplexer serial number:	ORYXHardware model number:	OX4-SRSoftware version number:	ORYX F/W v4.00 Oryx Data Collector v3.7.2.0data status	okinstallation	princeton_trtdifferential loss correction	single-endedforward channel	channel 3reverse channel	N/Adate	2019/09/19time	14:12:34forward acquisition time	60.00reverse acquisition time	0.00gamma	496.2192k internal	0.2322k external	0.2322temperature offset calibration	1.0000default loss term (dB/km)	0.3790temperature slope calibration	1.0000multiplexer offset coefficient	1.0000multiplexer slope coefficient	1.0000fibre end	0.00T internal ref (°C)	31.55T ext. ref 1 (°C)	1.04T ext. ref 2 (°C)	28.74length (m)	temperature (°C)	Stokes	anti-Stokes-747.200	-200.000	0.004	0.268
-746.185	-4.312	-0.211	0.148
-745.171	800.000	-0.060	-0.247
-744.156	15.343	-0.274	0.217
-743.142	81.157	-0.089	0.097
-742.127	-84.297	-0.198	0.063
-741.112	-200.000	-0.031	0.226
-740.098	-11.748	-0.221	-0.147
-739.083	-3.205	0.101	0.071
-738.069	-200.000	-0.030	0.310
-737.054	-112.717	-0.269	0.054
-736.039	800.000	-0.021	-0.073
-735.025	-200.000	0.005	0.073
-734.010	-145.738	-0.056	-0.005
-732.996	-200.000	-0.060	-0.381
-731.981	-166.221	-0.072	-0.003
-730.966	-26.683	-0.225	0.133
-729.952	98.078	-0.079	0.092
-728.937	-108.875	-0.064	-0.014
-727.923	-160.516	0.164	-0.009
-726.908	42.458	0.226	-0.208
-725.894	-38.264	-0.329	-0.176
-724.879	-200.000	0.013	0.225
-723.864	-151.428	-0.108	-0.008
-722.850	-43.189	0.112	0.057
-721.835	-200.000	-0.034	-0.205
-720.821	-17.935	-0.239	-0.151
-719.806	-100.496	0.112	0.028
-718.791	-134.238	-0.190	0.024
-717.777	-101.537	0.236	-0.058
-716.762	219.870	-0.112	-0.180
-715.748	-89.105	-0.096	0.029
-714.733	-200.000	-0.015	-0.435
-713.718	-200.000	0.034	-0.228
-712.704	-200.000	0.196	0.001
-711.689	800.000	-0.125	-0.358
-710.675	199.895	-0.082	0.127
-709.660	-62.985	0.070	0.029
-708.645	800.000	-0.091	-0.361
-707.631	693.775	-0.089	0.235
-706.616	-200.000	-0.000	0.101
-705.602	-137.340	0.355	0.041
-704.587	-200.000	-0.039	-0.260
-703.572	610.693	0.180	-0.454
-702.558	3.545	0.312	0.229
-701.543	-22.126	0.157	-0.096
-700.529	-200.000	0.015	-0.220
-699.514	-106.082	0.050	-0.011
-698.499	-200.000	0.036	-0.211
-697.485	254.327	-0.075	-0.129
-696.470	800.000	0.082	0.260
-695.456	-200.000	0.028	-0.293
-694.441	176.333	-0.059	-0.087
-693.426	17.913	0.073	0.059
-692.412	191.643	0.063	-0.096
-691.397	-71.017	0.378	-0.143
-690.383	-200.000	-0.007	-0.052
-689.368	-91.399	0.302	0.087
-688.354	-83.022	0.217	-0.071
-687.339	-200.000	0.023	0.241
-686.324	-147.465	0.278	0.024
-685.310	195.155	-0.272	-0.416
-684.295	-9.652	0.153	-0.102
-683.281	49.727	-0.061	-0.058
-682.266	-169.553	-0.059	-0.002
-681.251	-94.183	0.210	-0.058
-680.237	-111.015	0.102	-0.021
-679.222	-110.682	0.470	0.098
-678.208	-200.000	-0.015	0.270
-677.193	290.813	0.094	-0.171
-676.178	-103.628	-0.253	0.060
-675.164	-200.000	-0.014	-0.126
-674.149	-200.000	0.005	0.165
-673.135	357.327	-0.033	0.066
-672.120	313.168	-0.131	0.248
-671.105	-180.631	-0.324	0.007
-670.091	-6.603	-0.087	0.060
-669.076	-200.000	-0.018	0.104
-668.062	197.154	-0.220	-0.338
-667.047	-200.000	0.044	-0.238
-666.032	-30.616	-0.114	-0.065
-665.018	130.839	-0.049	-0.063
-664.003	-56.358	-0.199	0.089
-662.989	-26.003	-0.255	-0.151
-661.974	-23.326	0.077	0.047
-660.959	198.673	0.120	-0.185
-659.945	-116.603	0.274	-0.051
-658.930	-200.000	0.017	-0.297
-657.916	800.000	-0.041	-0.156
-656.901	800.000	-0.024	0.091
-655.886	-200.000	0.017	-0.110
-654.872	100.235	0.240	-0.280
-653.857	-51.228	-0.027	0.013
-652.843	-10.716	0.148	0.099
-651.828	-83.770	0.289	0.093
-650.814	-56.654	0.147	0.065
-649.799	23.458	-0.183	0.152
-648.784	55.139	0.040	0.039
-647.770	213.080	-0.020	0.033
-646.755	-123.189	-0.012	-0.002
-645.741	-145.706	-0.034	-0.003
-644.726	140.016	0.103	-0.136
-643.711	312.182	-0.006	0.012
-642.697	186.638	0.056	0.083
-641.682	-17.988	-0.326	-0.206
-640.668	0.857	-0.216	-0.155
-639.653	-110.236	0.126	-0.026
-638.638	-200.000	0.008	0.081
-637.624	-127.097	0.357	0.053
-636.609	521.404	0.072	0.171
-635.595	-200.000	-0.024	0.229
-634.580	-104.784	-0.080	-0.019
-633.565	800.000	-0.084	-0.290
-632.551	800.000	-0.083	0.275
-631.536	23.243	-0.177	-0.146
-630.522	-200.000	-0.026	-0.221
-629.507	251.078	0.099	-0.168
-628.492	-200.000	0.017	-0.311
-627.478	-20.657	-0.148	0.091
-626.463	70.824	-0.152	-0.158
-625.449	-49.927	0.155	-0.074
-624.434	-187.348	-0.221	0.003
-623.419	800.000	0.015	0.050
-622.405	-189.284	0.173	-0.002
-621.390	221.644	-0.052	-0.085
-620.376	-166.434	-0.256	-0.011
-619.361	-200.000	-0.002	-0.269
-618.346	-73.720	-0.112	-0.041
-617.332	-109.991	-0.292	-0.062
-616.317	14.136	0.219	0.172
-615.303	41.624	0.186	-0.170
-614.288	-129.766	-0.252	-0.035
-613.273	-18.615	-0.137	-0.086
-612.259	46.129	0.029	-0.027
-611.244	15.709	-0.169	-0.134
-610.230	-59.336	-0.403	0.174
-609.215	-39.534	-0.163	-0.086
-608.201	88.575	0.112	-0.125
-607.186	-200.000	0.039	-0.212
-606.171	-138.727	-0.252	-0.028
-605.157	-5.488	0.252	-0.174
-604.142	376.002	0.109	-0.224
-603.128	203.843	-0.158	0.246
-602.113	268.397	0.136	0.240
-601.098	52.670	0.139	-0.133
-600.084	32.091	-0.205	0.177
-599.069	20.718	-0.124	0.101
-598.055	-200.000	-0.009	0.268
-597.040	20.446	0.202	-0.164
-596.025	-200.000	0.005	0.159
-595.011	-103.170	0.025	0.006
-593.996	-99.011	-0.080	0.021
-592.982	-126.746	0.364	0.054
-591.967	-81.819	-0.320	-0.105
-590.952	800.000	-0.025	0.081
-589.938	118.149	-0.096	0.119
-588.923	-118.512	-0.439	-0.078
-587.909	288.044	-0.079	-0.144
-586.894	-102.802	0.083	-0.020
-585.879	367.885	-0.050	-0.102
-584.865	-24.994	-0.063	-0.037
-583.850	76.851	0.031	0.033
-582.836	800.000	0.045	0.180
-581.821	505.438	0.070	0.163
-580.806	800.000	-0.095	-0.296
-579.792	-107.961	-0.237	-0.052
-578.777	-200.000	0.070	0.336
-577.763	4.685	-0.129	-0.095
-576.748	428.337	-0.072	-0.156
-575.733	-163.502	-0.293	0.014
-574.719	-85.874	-0.162	0.050
-573.704	143.087	0.018	-0.024
-572.690	-37.295	0.139	-0.075
-571.675	-15.305	0.106	0.068
-570.661	69.670	-0.055	-0.056
-569.646	265.539	-0.089	-0.156
-568.631	-58.195	-0.512	0.224
-567.617	-118.389	0.111	-0.020
-566.602	-106.523	-0.073	0.016
-565.588	32.536	-0.180	0.156
-564.573	-39.782	0.112	0.059
-563.558	-115.830	-0.143	0.027
-562.544	-200.000	0.058	0.270
-561.529	-127.556	0.340	-0.050
-560.515	30.547	-0.086	0.074
-559.500	304.758	-0.048	-0.089
-558.485	-12.182	-0.079	-0.052
-557.471	-147.885	0.312	-0.026
-556.456	184.891	0.081	-0.120
-555.442	-60.238	-0.355	0.152
-554.427	400.979	0.072	0.151
-553.412	-41.171	-0.182	0.094
-552.398	-200.000	-0.049	0.228
-551.383	169.302	-0.318	0.456
-550.369	-0.794	-0.259	0.184
-549.354	-200.000	0.030	-0.132
-548.339	49.290	-0.165	-0.155
-547.325	-21.230	-0.078	-0.048
-546.310	14.336	0.147	-0.115
-545.296	-200.000	0.009	-0.051
-544.281	-155.142	0.085	0.006
-543.266	-49.927	0.089	0.042
-542.252	-200.000	0.014	-0.208
-541.237	800.000	-0.109	-0.388
-540.223	129.630	-0.189	0.242
-539.208	12.974	-0.107	-0.083
-538.193	-114.467	-0.092	-0.018
-537.179	-200.000	0.047	0.208
-536.164	-200.000	-0.039	0.325
-535.150	186.793	-0.210	0.314
-534.135	-200.000	0.007	0.099
-533.121	70.325	0.057	0.060
-532.106	-29.875	-0.115	-0.066
-531.091	247.976	0.092	0.156
-530.077	6.040	-0.234	0.173
-529.062	120.353	0.041	0.050
-528.048	-70.320	0.215	-0.082
-527.033	50.139	-0.176	0.167
-526.018	132.365	-0.112	-0.144
-525.004	-65.150	0.287	0.116
-523.989	-103.717	-0.341	-0.080
-522.975	76.280	-0.091	-0.097
-521.960	-161.583	0.111	0.006
-520.945	-37.186	-0.232	0.124
-519.931	28.471	-0.048	0.041
-518.916	-168.636	0.203	0.008
-517.902	-200.000	0.096	0.443
-516.887	-17.222	0.217	0.137
-515.872	156.818	-0.015	-0.021
-514.858	0.463	-0.163	-0.116
-513.843	123.588	0.079	0.099
-512.829	-200.000	0.030	-0.177
-511.814	201.554	0.217	0.335
-510.799	600.925	-0.095	0.237
-509.785	177.226	-0.151	0.220
-508.770	283.650	0.075	-0.136
-507.756	-23.083	-0.139	0.084
-506.741	-61.584	-0.144	-0.061
-505.726	142.696	0.256	0.340
-504.712	-200.000	-0.009	-0.213
-503.697	119.959	-0.150	-0.187
-502.683	672.739	-0.180	-0.467
-501.668	-200.000	-0.004	0.093
-500.653	788.134	0.054	-0.149
-499.639	800.000	0.008	0.035
-498.624	-54.098	0.109	-0.050
-497.610	-132.250	-0.287	0.037
-496.595	-101.533	-0.140	-0.034
-495.581	6.300	0.047	-0.035
-494.566	-200.000	-0.034	0.202
-493.551	-169.030	-0.268	0.010
-492.537	274.160	-0.115	-0.204
-491.522	-20.011	-0.377	0.233
-490.508	245.056	-0.147	-0.247
-489.493	-21.168	0.193	0.118
-488.478	-200.000	-0.007	-0.121
-487.464	214.194	-0.119	0.189
-486.449	-200.000	-0.049	-0.263
-485.435	-16.157	0.156	-0.099
-484.420	32.889	-0.040	-0.034
-483.405	184.494	0.007	-0.010
-482.391	800.000	0.056	0.191
-481.376	-4.274	0.051	0.036
-480.362	359.056	-0.104	0.207
-479.347	-83.264	-0.194	0.062
-478.332	163.674	0.141	0.198
-477.318	-59.035	-0.216	-0.093
-476.303	48.458	0.321	-0.301
-475.289	-120.534	0.089	0.015
-474.274	48.744	0.073	-0.068
-473.259	-200.000	0.013	-0.194
-472.245	-124.056	-0.364	-0.057
-471.230	380.425	-0.049	-0.100
-470.216	-33.387	0.171	0.095
-469.201	-136.738	0.330	0.038
-468.186	-200.000	-0.014	0.139
-467.172	-77.762	0.294	0.102
-466.157	254.210	0.024	-0.040
-465.143	-136.252	-0.221	-0.026
-464.128	-200.000	0.059	0.420
-463.113	-200.000	0.019	0.098
-462.099	-200.000	-0.006	0.263
-461.084	303.990	-0.161	0.299
-460.070	-35.146	0.443	-0.241
-459.055	83.467	0.367	-0.399
-458.040	-111.829	0.110	0.022
-457.026	13.369	0.286	0.222
-456.011	399.390	0.089	-0.186
-454.997	-30.969	-0.203	-0.114
-453.982	-200.000	-0.022	0.191
-452.968	57.008	-0.149	-0.145
-451.953	-200.000	0.013	0.061
-450.938	-200.000	0.002	0.188
-449.924	-24.708	-0.105	0.062
-448.909	-150.192	-0.176	-0.014
-447.895	-18.691	-0.084	-0.052
-446.880	-156.601	-0.064	-0.004
-445.865	158.356	0.048	0.066
-444.851	-200.000	-0.002	-0.136
-443.836	-200.000	-0.036	-0.179
-442.822	-128.866	-0.329	0.046
-441.807	-140.846	-0.171	-0.018
-440.792	800.000	0.077	0.268
-439.778	98.638	-0.052	-0.060
-438.763	-200.000	0.059	0.310
-437.749	45.787	-0.211	0.195
-436.734	475.186	0.105	-0.237
-435.719	-37.677	-0.449	-0.239
-434.705	-130.644	-0.119	-0.016
-433.690	-200.000	0.019	0.195
-432.676	-54.016	-0.238	0.108
-431.661	-200.000	-0.024	-0.222
-430.646	64.862	0.129	0.130
-429.632	-154.635	-0.121	0.008
-428.617	105.387	0.075	0.088
-427.603	101.823	0.061	0.071
-426.588	800.000	0.077	-0.227
-425.573	800.000	-0.155	0.457
-424.559	800.000	-0.022	0.066
-423.544	356.703	0.143	-0.284
-422.530	-200.000	-0.241	0.001
-421.515	-8.507	-0.233	-0.156
-420.500	-130.408	0.220	-0.030
-419.486	-67.281	-0.381	-0.150
-418.471	297.746	0.122	-0.223
-417.457	-10.240	-0.145	-0.096
-416.442	8.240	0.146	-0.110
-415.428	59.876	-0.352	-0.347
-414.413	800.000	-0.134	-0.384
-413.398	-116.545	0.095	0.017
-412.384	-87.362	-0.151	0.046
-411.369	-73.055	-0.051	-0.019
-410.355	800.000	-0.057	-0.217
-409.340	800.000	0.048	-0.198
-408.325	342.167	-0.188	-0.366
-407.311	389.458	0.032	0.066
-406.296	-110.988	0.392	-0.080
-405.282	-153.850	0.427	0.029
-404.267	69.700	-0.187	-0.192
-403.252	140.450	0.027	-0.035
-402.238	139.650	0.107	-0.140
-401.223	-100.861	0.239	-0.059
-400.209	704.123	-0.056	0.148
-399.194	202.847	0.186	-0.287
-398.179	-70.949	0.185	0.069
-397.165	-60.190	0.187	-0.080
-396.150	466.346	-0.090	0.201
-395.136	210.021	0.137	0.215
-394.121	800.000	-0.089	-0.287
-393.106	-23.967	-0.157	0.093
-392.092	18.576	-0.058	0.046
-391.077	800.000	0.035	-0.135
-390.063	63.218	0.042	-0.042
-389.048	800.000	-0.165	0.475
-388.033	65.327	0.066	0.067
-387.019	-99.441	-0.248	-0.062
-386.004	-200.000	-0.013	-0.068
-384.990	-146.357	0.067	0.006
-383.975	100.733	-0.281	-0.325
-382.960	-200.000	-0.013	-0.329
-381.946	208.116	-0.035	0.055
-380.931	-36.019	-0.031	-0.017
-379.917	800.000	0.034	0.144
-378.902	286.713	0.156	0.281
-377.888	53.630	0.038	-0.037
-376.873	-200.000	0.011	-0.062
-375.858	61.029	0.237	-0.234
-374.844	-200.000	-0.031	0.169
-373.829	-55.780	0.082	0.037
-372.815	-200.000	-0.024	-0.245
-371.800	35.558	0.159	0.139
-370.785	-19.073	0.187	0.115
-369.771	-200.000	0.017	-0.140
-368.756	307.344	-0.205	0.381
-367.742	-125.026	-0.393	0.060
-366.727	478.133	0.097	-0.219
-365.712	-32.912	-0.188	0.104
-364.698	498.136	-0.123	0.282
-363.683	-200.000	-0.034	-0.394
-362.669	607.936	0.071	0.177
-361.654	515.144	-0.085	0.197
-360.639	318.035	0.188	0.353
-359.625	-101.132	0.115	-0.028
-358.610	-100.363	0.164	-0.040
-357.596	-53.640	-0.069	-0.031
-356.581	-200.000	-0.029	-0.351
-355.566	105.818	-0.132	-0.155
-354.552	55.267	-0.320	0.308
-353.537	-68.757	0.114	0.044
-352.523	150.065	0.228	0.308
-351.508	-144.537	0.323	-0.030
-350.493	21.489	-0.224	0.181
-349.479	541.941	-0.018	0.043
-348.464	-25.609	-0.271	0.159
-347.450	-57.474	-0.227	-0.099
-346.435	-159.003	0.549	-0.031
-345.420	-43.988	0.184	0.092
-344.406	-58.911	-0.575	-0.247
-343.391	-200.000	-0.014	-0.092
-342.377	-96.776	-0.117	0.031
-341.362	177.692	0.175	0.254
-340.348	56.335	0.220	-0.212
-339.333	25.890	-0.241	-0.200
-338.318	125.693	0.197	0.248
-337.304	-200.000	-0.009	0.357
-336.289	34.571	0.119	-0.104
-335.275	330.674	-0.159	0.305
-334.260	-200.000	0.003	0.059
-333.245	-72.188	0.073	0.027
-332.231	-200.000	-0.056	-0.433
-331.216	-128.221	-0.049	0.007
-330.202	94.412	0.236	-0.266
-329.187	-200.000	0.010	0.145
-328.172	272.227	0.123	0.215
-327.158	79.232	-0.074	0.078
-326.143	204.212	0.041	0.062
-325.129	23.536	0.123	0.100
-324.114	-145.327	-0.272	-0.024
-323.099	-57.818	0.178	-0.077
-322.085	-200.000	0.004	-0.117
-321.070	-200.000	0.082	-0.421
-320.056	-200.000	-0.002	0.050
-319.041	96.952	0.167	0.190
-318.026	117.024	0.055	-0.068
-317.012	-114.296	-0.228	-0.044
-315.997	-200.000	0.034	0.366
-314.983	385.652	0.115	-0.236
-313.968	-200.000	0.009	-0.057
-312.953	-5.103	0.121	0.083
-311.939	342.635	0.137	-0.266
-310.924	202.476	-0.098	-0.150
-309.910	3.001	-0.370	-0.267
-308.895	36.489	-0.039	0.034
-307.880	684.535	0.150	0.388
-306.866	75.151	0.175	0.183
-305.851	-56.369	-0.147	-0.065
-304.837	-17.819	0.454	-0.283
-303.822	618.586	-0.149	0.372
-302.807	-200.000	0.151	0.000
-301.793	-200.000	0.008	-0.086
-300.778	-200.000	-0.031	-0.244
-299.764	-40.353	-0.196	0.101
-298.749	-200.000	0.003	0.207
-297.735	-183.997	0.248	-0.004
-296.720	-42.846	-0.221	-0.112
-295.705	-200.000	0.021	-0.179
-294.691	141.802	-0.047	0.062
-293.676	-56.816	-0.325	-0.143
-292.662	-200.000	-0.063	-0.414
-291.647	-82.930	-0.076	-0.024
-290.632	-27.899	0.236	-0.136
-289.618	-200.000	-0.042	-0.258
-288.603	38.136	0.090	0.079
-287.589	144.950	0.099	-0.131
-286.574	-200.000	0.022	-0.370
-285.559	-200.000	-0.055	0.262
-284.545	98.531	-0.155	0.177
-283.530	417.655	0.134	0.284
-282.516	92.371	-0.297	0.332
-281.501	-126.814	0.130	0.019
-280.486	-56.121	0.120	0.053
-279.472	-200.000	-0.005	0.087
-278.457	3.247	-0.066	-0.048
-277.443	-151.504	0.160	0.012
-276.428	-172.090	-0.132	0.004
-275.413	-47.610	0.302	0.145
-274.399	554.845	0.042	0.100
-273.384	395.383	0.026	0.054
-272.370	-200.000	0.016	0.072
-271.355	-45.486	-0.106	0.052
-270.340	-31.312	0.289	0.162
-269.326	54.197	0.129	-0.123
-268.311	-42.924	0.105	0.053
-267.297	8.172	-0.076	0.056
-266.282	59.532	0.257	0.251
-265.267	-200.000	0.024	0.138
-264.253	42.683	-0.119	0.107
-263.238	64.907	0.049	-0.050
-262.224	800.000	-0.057	-0.174
-261.209	-107.156	-0.297	0.065
-260.195	-101.056	0.193	0.047
-259.180	-10.277	0.014	-0.009
-258.165	286.352	-0.109	0.195
-257.151	35.424	0.078	-0.068
-256.136	-105.739	-0.211	0.047
-255.122	400.674	0.101	0.210
-254.107	-125.371	0.130	-0.020
-253.092	800.000	0.086	0.275
-252.078	-50.712	0.108	-0.051
-251.063	-200.000	0.013	-0.265
-250.049	800.000	0.052	0.144
-249.034	-84.862	0.536	0.167
-248.019	-85.441	-0.133	-0.041
-247.005	113.514	0.295	-0.354
-245.990	-115.860	-0.310	0.057
-244.976	-105.917	-0.269	-0.060
-243.961	800.000	0.027	-0.076
-242.946	-200.000	0.071	0.310
-241.932	109.147	0.144	0.170
-240.917	6.228	-0.058	0.043
-239.903	58.557	0.094	0.092
-238.888	-25.585	0.288	0.169
-237.873	401.750	0.110	-0.228
-236.859	-89.011	-0.365	-0.107
-235.844	-79.135	0.264	-0.089
-234.830	-16.431	-0.193	0.121
-233.815	134.167	-0.186	0.239
-232.800	113.962	0.209	0.252
-231.786	350.509	0.143	-0.280
-230.771	-200.000	-0.045	-0.242
-229.757	-54.413	-0.235	0.106
-228.742	183.734	0.065	0.095
-227.727	457.078	-0.046	-0.101
-226.713	-110.505	0.391	0.080
-225.698	-120.257	-0.382	-0.064
-224.684	92.675	0.150	-0.167
-223.669	312.825	-0.087	0.161
-222.655	162.212	0.015	0.021
-221.640	-7.993	0.187	0.125
-220.625	-200.000	0.051	-0.224
-219.611	-200.000	-0.047	0.326
-218.596	-77.812	0.247	-0.085
-217.582	205.095	-0.020	-0.031
-216.567	-200.000	0.004	-0.043
-215.552	-113.669	-0.117	-0.023
-214.538	-0.191	0.420	0.296
-213.523	800.000	0.054	-0.149
-212.509	-200.000	-0.052	-0.327
-211.494	108.256	-0.076	0.090
-210.479	800.000	0.070	0.257
-209.465	144.368	0.151	-0.200
-208.450	-155.625	0.186	-0.012
-207.436	-200.000	0.022	0.306
-206.421	-38.231	0.107	-0.056
-205.406	186.790	0.226	0.333
-204.392	561.062	0.035	-0.084
-203.377	-55.099	0.254	-0.113
-202.363	5.105	0.248	-0.181
-201.348	20.692	0.043	-0.035
-200.333	-71.104	-0.161	0.060
-199.319	181.989	0.311	-0.453
-198.304	202.770	-0.053	0.081
-197.290	-200.000	0.021	0.107
-196.275	-200.000	-0.008	0.076
-195.260	-4.689	-0.076	0.052
-194.246	-86.204	-0.163	-0.050
-193.231	25.680	0.060	0.049
-192.217	271.142	-0.068	-0.118
-191.202	-73.761	0.140	0.050
-190.187	206.120	0.217	-0.334
-189.173	-28.404	-0.465	0.265
-188.158	-166.535	0.460	-0.019
-187.144	-200.000	-0.039	-0.219
-186.129	486.609	0.175	0.394
-185.114	-69.195	0.232	-0.088
-184.100	-124.227	0.218	0.034
-183.085	4.803	-0.377	-0.274
-182.071	-2.160	0.277	0.192
-181.056	396.089	0.039	-0.081
-180.042	4.767	0.144	-0.105
-179.027	-104.256	0.401	0.092
-178.012	-76.172	0.225	-0.079
-176.998	-200.000	0.024	0.230
-175.983	-65.502	0.431	-0.171
-174.969	14.498	0.298	-0.230
-173.954	-117.798	-0.526	-0.093
-172.939	103.994	0.298	0.346
-171.925	18.083	0.282	-0.222
-170.910	-200.000	-0.012	0.107
-169.896	800.000	-0.099	-0.306
-168.881	-103.682	0.180	-0.042
-167.866	-155.785	0.206	-0.013
-166.852	-39.354	0.237	-0.123
-165.837	369.960	-0.155	-0.309
-164.823	-173.917	-0.186	-0.005
-163.808	-170.504	-0.178	0.006
-162.793	-71.500	0.313	-0.116
-161.779	-167.696	-0.346	0.014
-160.764	-89.411	0.321	-0.093
-159.750	-75.609	-0.163	0.057
-158.735	-200.000	-0.031	-0.204
-157.720	-200.000	0.032	-0.366
-156.706	-200.000	-0.000	-0.372
-155.691	800.000	0.050	0.211
-154.677	350.338	0.084	-0.164
-153.662	52.191	0.230	0.217
-152.647	800.000	0.043	0.151
-151.633	582.227	0.101	-0.244
-150.618	-85.171	0.181	-0.056
-149.604	121.775	0.188	0.232
-148.589	-1.615	0.073	-0.051
-147.574	-96.119	-0.346	-0.091
-146.560	-34.994	0.126	-0.068
-145.545	-8.678	-0.190	0.126
-144.531	36.690	0.201	0.175
-143.516	-106.121	-0.391	0.087
-142.502	-27.998	0.100	0.057
-141.487	800.000	0.082	-0.251
-140.472	-136.221	0.137	-0.016
-139.458	-59.762	0.273	0.115
-138.443	-200.000	-0.015	-0.197
-137.429	-144.529	-0.130	0.012
-136.414	-42.307	-0.436	-0.220
-135.399	-138.987	0.326	0.035
-134.385	-28.335	0.096	0.055
-133.370	-200.000	-0.020	0.320
-132.356	-16.505	-0.204	0.127
-131.341	-200.000	-0.052	0.442
-130.326	195.219	0.082	0.123
-129.312	-13.478	0.160	0.102
-128.297	800.000	0.082	-0.321
-127.283	278.835	0.127	-0.223
-126.268	4.528	-0.047	0.034
-125.253	-124.356	0.276	0.042
-124.239	148.789	-0.065	-0.087
-123.224	146.524	-0.093	-0.124
-122.210	-0.970	0.187	-0.130
-121.195	-13.785	-0.420	0.268
-120.180	-135.750	-0.247	0.029
-119.166	217.667	0.195	0.307
-118.151	172.880	-0.193	0.275
-117.137	-70.499	0.225	0.084
-116.122	-21.650	-0.104	0.062
-115.107	-200.000	-0.065	0.297
-114.093	201.247	0.059	0.090
-113.078	35.648	-0.280	-0.242
-112.064	-51.054	0.215	-0.099
-111.049	-139.925	0.190	0.020
-110.034	703.503	0.056	0.145
-109.020	-125.430	0.072	0.011
-108.005	-9.138	0.204	0.134
-106.991	-91.564	0.077	0.022
-105.976	-117.539	0.167	-0.030
-104.962	-200.000	0.005	0.128
-103.947	-200.000	-0.059	-0.302
-102.932	-1.855	-0.122	0.085
-101.918	206.406	0.169	-0.259
-100.903	-200.000	0.019	-0.175
-99.889	253.656	0.204	0.344
-98.874	800.000	-0.063	-0.207
-97.859	-200.000	-0.017	-0.286
-96.845	-106.215	-0.202	0.045
-95.830	-58.371	-0.151	0.065
-94.816	-126.291	0.216	-0.032
-93.801	120.971	-0.196	0.241
-92.786	-55.497	0.186	-0.082
-91.772	-50.996	0.112	-0.052
-90.757	-38.701	0.120	0.062
-89.743	14.793	-0.128	0.099
-88.728	-200.000	-0.007	-0.279
-87.713	48.218	0.074	-0.068
-86.699	13.225	0.092	-0.070
-85.684	-156.063	0.413	-0.026
-84.670	-42.899	0.298	0.149
-83.655	800.000	0.118	-0.344
-82.640	-200.000	0.051	0.249
-81.626	52.815	0.070	0.065
-80.611	24.345	0.114	-0.092
-79.597	-76.537	0.261	0.090
-78.582	-160.321	0.184	-0.010
-77.567	800.000	0.070	-0.196
-76.553	78.325	0.132	-0.139
-75.538	367.436	0.114	0.226
-74.524	-103.412	-0.090	-0.021
-73.509	-55.388	0.287	-0.127
-72.494	-200.000	0.034	-0.290
-71.480	-200.000	0.055	0.386
-70.465	97.109	0.132	0.149
-69.451	-64.000	0.061	0.025
-68.436	111.101	0.140	0.166
-67.422	29.041	-0.104	-0.086
-66.407	-200.000	0.054	-0.311
-65.392	139.347	0.032	-0.041
-64.378	-1.313	-0.004	-0.003
-63.363	-24.983	0.208	0.122
-62.349	-200.000	-0.033	-0.173
-61.334	61.371	-0.889	-0.869
-60.319	800.000	0.174	0.675
-59.305	-200.000	0.075	-0.801
-58.290	391.133	0.797	1.628
-57.276	332.861	0.918	1.744
-56.261	-200.000	93.760	563.269
-55.246	507.529	1402.201	3200.131
-54.232	152.677	2612.744	3510.747
-53.217	109.835	2218.746	2616.855
-52.203	42.461	1746.077	1561.704
-51.188	34.743	1552.933	1335.224
-50.173	32.415	1525.311	1295.416
-49.159	51.705	1573.528	1471.595
-48.144	53.200	1591.005	1498.328
-47.130	34.977	1551.793	1335.666
-46.115	31.842	1537.174	1301.310
-45.100	31.693	1533.953	1297.495
-44.086	31.656	1531.683	1295.268
-43.071	31.638	1529.623	1293.356
-42.057	31.557	1528.004	1291.371
-41.042	31.647	1526.439	1290.620
-40.027	31.501	1525.241	1288.552
-39.013	31.493	1523.650	1287.101
-37.998	31.517	1522.195	1285.983
-36.984	31.458	1521.516	1284.957
-35.969	31.549	1520.238	1284.451
-34.954	31.620	1518.378	1283.317
-33.940	31.585	1516.608	1281.524
-32.925	31.560	1515.917	1280.720
-31.911	31.675	1514.137	1279.955
-30.896	31.586	1512.933	1278.278
-29.881	31.572	1511.873	1277.233
-28.867	31.641	1510.058	1276.123
-27.852	31.569	1508.605	1274.355
-26.838	31.658	1506.976	1273.530
-25.823	31.633	1505.915	1272.411
-24.809	31.618	1503.556	1270.266
-23.794	31.644	1502.234	1269.280
-22.779	31.655	1500.700	1268.007
-21.765	31.541	1499.977	1266.575
-20.750	31.614	1498.836	1266.050
-19.736	31.514	1497.974	1264.602
-18.721	31.553	1496.507	1263.572
-17.706	31.562	1495.598	1262.819
-16.692	31.487	1494.788	1261.576
-15.677	31.596	1493.333	1261.034
-14.663	31.461	1492.580	1259.434
-13.648	31.455	1491.320	1258.283
-12.633	31.506	1490.212	1257.643
-11.619	31.570	1489.600	1257.509
-10.604	31.468	1489.122	1256.367
-9.590	31.466	1488.462	1255.746
-8.575	31.548	1486.896	1254.924
-7.560	31.482	1486.149	1253.802
-6.546	31.522	1485.369	1253.361
-5.531	31.444	1484.466	1252.029
-4.517	31.477	1482.806	1250.803
-3.502	31.548	1481.770	1250.354
-2.487	31.537	1480.960	1249.544
-1.473	31.544	1480.425	1249.087
-0.458	31.501	1479.016	1247.568
0.556	31.068	1470.021	1238.988
1.571	28.449	1444.187	1199.984
2.586	24.925	1380.785	1125.104
3.600	22.570	1294.517	1040.827
4.615	20.233	1247.432	989.565
5.629	16.884	1189.928	925.608
6.644	8.847	1102.587	816.778
7.659	2.191	1061.334	753.409
8.673	1.175	1055.147	743.970
9.688	0.958	1052.979	741.314
10.702	1.050	1051.028	740.323
11.717	0.987	1049.276	738.716
12.731	3.284	1051.178	751.204
13.746	10.469	1061.877	794.084
14.761	16.230	1068.299	827.130
15.775	17.421	1069.548	833.866
16.790	17.246	1068.011	831.735
17.804	16.141	1065.294	824.149
18.819	15.298	1063.753	818.772
19.834	14.831	1062.636	815.560
20.848	14.467	1061.607	812.926
21.863	14.324	1060.195	811.074
22.877	14.090	1059.537	809.360
23.892	13.784	1058.990	807.380
24.907	13.788	1057.900	806.500
25.921	13.807	1057.413	806.147
26.936	13.739	1056.823	805.298
27.950	13.715	1056.273	804.691
28.965	13.858	1055.109	804.425
29.980	13.861	1054.449	803.867
30.994	13.924	1053.169	803.124
32.009	14.133	1052.095	803.242
33.023	13.978	1051.951	802.312
34.038	14.055	1051.009	801.896
35.053	13.886	1050.337	800.496
36.067	13.877	1049.660	799.868
37.082	13.919	1048.682	799.251
38.096	13.939	1047.588	798.446
39.111	13.945	1047.236	798.135
40.126	14.012	1045.918	797.381
41.140	13.872	1045.154	796.057
42.155	13.767	1044.557	795.030
43.169	13.772	1043.247	793.987
44.184	13.754	1041.932	792.825
45.199	13.669	1041.230	791.819
46.213	13.853	1039.966	791.662
47.228	13.693	1039.310	790.330
48.242	13.785	1038.394	790.004
49.257	13.787	1037.459	789.232
50.271	13.929	1035.966	788.701
51.286	13.932	1035.316	788.149
52.301	13.895	1035.054	787.706
53.315	13.923	1033.835	786.839
54.330	13.917	1033.389	786.401
55.344	13.754	1032.856	785.157
56.359	13.811	1031.422	784.268
57.374	13.825	1030.378	783.469
58.388	13.926	1029.897	783.508
59.403	13.773	1029.012	782.049
60.417	13.778	1028.057	781.278
61.432	13.775	1027.655	780.887
62.447	13.727	1026.682	779.850
63.461	13.666	1025.808	778.832
64.476	13.912	1024.727	779.098
65.490	13.673	1024.085	777.420
66.505	13.754	1023.324	777.153
67.520	13.791	1022.530	776.654
68.534	13.732	1021.908	775.838
69.549	13.790	1020.368	774.869
70.563	13.774	1019.882	774.356
71.578	13.853	1019.427	774.310
72.593	13.763	1018.695	773.267
73.607	13.664	1017.764	772.032
74.622	13.708	1016.788	771.430
75.636	13.668	1015.772	770.402
76.651	13.737	1014.562	769.738
77.666	13.681	1014.361	769.258
78.680	13.587	1014.067	768.529
79.695	13.649	1012.942	767.896
80.709	13.836	1012.246	768.168
81.724	13.558	1011.952	766.591
82.739	13.785	1011.094	766.922
83.753	13.825	1010.454	766.554
84.768	13.741	1009.153	765.109
85.782	13.901	1008.586	765.352
86.797	13.912	1007.928	764.834
87.812	13.839	1007.097	763.800
88.826	13.889	1006.262	763.329
89.841	13.927	1005.288	762.695
90.855	13.827	1004.455	761.541
91.870	13.824	1003.970	761.089
92.884	13.846	1003.395	760.687
93.899	13.935	1002.563	760.397
94.914	13.980	1001.732	759.904
95.928	14.022	1000.837	759.351
96.943	14.015	1000.069	758.668
97.957	14.019	999.223	757.977
98.972	13.941	998.850	757.275
99.987	13.913	998.099	756.508
101.001	13.950	997.364	756.052
102.016	13.933	996.810	755.491
103.030	14.051	995.770	755.168
104.045	13.909	994.885	753.789
105.060	13.883	993.748	752.742
106.074	13.972	992.485	752.121
107.089	13.938	992.498	751.913
108.103	13.881	991.323	750.698
109.118	13.859	990.227	749.701
110.133	13.671	989.759	748.431
111.147	13.865	989.064	748.714
112.162	13.921	988.094	748.164
113.176	13.928	986.911	747.237
114.191	13.943	985.883	746.457
115.206	13.908	985.125	745.663
116.220	13.910	984.537	745.158
117.235	13.862	983.708	744.252
118.249	13.830	982.861	743.399
119.264	13.933	981.516	742.778
120.279	13.890	980.926	742.076
121.293	13.850	980.033	741.153
122.308	13.776	979.559	740.401
123.322	13.728	978.506	739.323
124.337	13.885	977.364	739.096
125.352	13.841	976.284	738.017
126.366	13.741	975.542	736.948
127.381	13.843	974.399	736.473
128.395	13.756	973.739	735.520
129.410	13.821	972.538	734.835
130.424	13.790	971.615	733.939
131.439	13.770	971.116	733.409
132.454	14.008	969.500	733.173
133.468	14.020	968.791	732.625
134.483	14.000	968.214	732.036
135.497	13.941	967.779	731.382
136.512	13.944	966.744	730.546
137.527	13.876	966.208	729.777
138.541	13.915	965.344	729.234
139.556	13.845	964.917	728.541
140.570	14.052	963.780	728.524
141.585	13.981	962.925	727.503
142.600	14.055	962.442	727.398
143.614	14.159	961.249	726.885
144.629	14.051	960.895	726.082
145.643	14.012	960.526	725.568
146.658	14.151	958.854	724.844
147.673	14.091	958.287	724.095
148.687	13.992	957.251	722.816
149.702	13.949	956.860	722.267
150.716	13.935	955.729	721.291
151.731	13.912	955.044	720.611
152.746	14.025	954.051	720.286
153.760	14.102	953.470	720.119
154.775	14.123	952.624	719.507
155.789	14.096	951.818	718.718
156.804	14.060	951.125	717.974
157.819	14.100	950.086	717.301
158.833	14.196	949.544	717.241
159.848	14.174	948.806	716.525
160.862	14.214	948.248	716.211
161.877	14.113	947.573	715.204
162.892	14.141	946.741	714.632
163.906	14.029	945.716	713.316
164.921	14.069	945.149	712.997
165.935	14.018	944.095	711.919
166.950	14.095	942.932	711.311
167.964	14.162	941.913	710.762
168.979	13.983	941.403	709.551
169.994	14.220	940.102	709.520
171.008	14.183	939.285	708.681
172.023	14.197	938.487	708.078
173.037	14.290	937.763	707.865
174.052	14.195	937.146	706.930
175.067	14.222	936.032	706.143
176.081	14.316	935.342	705.958
177.096	14.238	934.570	704.983
178.110	14.326	933.920	704.805
179.125	14.237	933.243	703.854
180.140	14.162	932.475	702.897
181.154	14.314	931.639	702.843
182.169	14.325	930.882	702.259
183.183	14.324	930.289	701.742
184.198	14.493	929.252	701.612
185.213	14.344	929.012	700.739
186.227	14.390	928.292	700.328
187.242	14.367	927.940	699.906
188.256	14.358	927.399	699.398
189.271	14.376	926.480	698.717
190.286	14.514	925.462	698.466
191.300	14.448	924.494	697.398
192.315	14.345	923.901	696.456
193.329	14.373	923.372	696.115
194.344	14.245	922.975	695.221
195.359	14.387	922.167	695.142
196.373	14.371	921.827	694.757
197.388	14.477	920.964	694.486
198.402	14.417	920.501	693.824
199.417	14.419	920.126	693.491
200.432	14.585	919.430	693.593
201.446	14.584	919.190	693.347
202.461	14.617	918.655	693.019
203.475	14.789	918.130	693.278
204.490	14.680	917.552	692.328
205.504	14.685	916.577	691.551
206.519	14.657	915.681	690.697
207.534	14.728	914.927	690.359
208.548	14.601	914.535	689.481
209.563	14.586	913.766	688.776
210.577	14.589	913.346	688.413
211.592	14.853	912.311	688.657
212.607	14.767	911.858	687.900
213.621	14.778	911.219	687.402
214.636	14.799	910.467	686.863
215.650	14.692	909.916	685.944
216.665	14.831	909.366	686.039
217.680	14.806	908.682	685.360
218.694	14.876	908.197	685.223
219.709	14.946	907.912	685.234
220.723	15.000	907.271	684.912
221.738	14.911	906.390	683.820
222.753	14.913	905.609	683.177
223.767	14.968	904.930	682.830
224.782	14.851	904.121	681.681
225.796	14.990	903.167	681.469
226.811	14.989	902.818	681.143
227.826	14.990	902.206	680.625
228.840	15.032	901.556	680.244
229.855	14.965	900.453	679.080
230.869	14.894	900.221	678.558
231.884	14.983	899.387	678.228
232.899	14.919	898.811	677.475
233.913	14.858	897.971	676.535
234.928	14.983	897.104	676.328
235.942	15.011	896.446	675.885
236.957	14.987	895.896	675.315
237.972	14.850	895.219	674.190
238.986	14.925	894.701	674.044
240.001	15.066	893.711	673.804
241.015	15.076	893.095	673.320
242.030	15.172	892.543	673.230
243.045	15.138	891.561	672.296
244.059	15.155	891.167	672.007
245.074	15.052	890.552	671.071
246.088	15.134	889.838	670.800
247.103	15.298	889.127	670.863
248.117	15.113	888.939	669.920
249.132	15.215	888.157	669.679
250.147	15.259	887.781	669.512
251.161	15.272	887.138	669.022
252.176	15.413	885.916	668.600
253.190	15.471	884.922	668.024
254.205	15.442	884.806	667.759
255.220	15.435	884.431	667.390
256.234	15.491	883.359	666.747
257.249	15.500	882.892	666.371
258.263	15.557	882.467	666.217
259.278	15.420	881.653	665.001
260.293	15.456	881.281	664.804
261.307	15.579	880.470	664.621
262.322	15.619	880.086	664.427
263.336	15.546	879.530	663.663
264.351	15.584	878.685	663.114
265.366	15.696	878.114	663.067
266.380	15.543	877.820	662.184
267.395	15.704	876.655	661.882
268.409	15.668	876.010	661.191
269.424	15.666	875.620	660.831
270.439	15.677	874.711	660.130
271.453	15.640	874.256	659.583
272.468	15.771	873.078	659.148
273.482	15.620	872.836	658.316
274.497	15.723	872.188	658.173
275.512	15.668	871.605	657.459
276.526	15.741	871.042	657.264
277.541	15.874	869.938	656.892
278.555	15.807	869.352	656.129
279.570	15.771	868.773	655.492
280.585	15.883	868.638	655.769
281.599	15.970	868.073	655.625
282.614	15.907	867.248	654.697
283.628	15.740	866.812	653.663
284.643	15.838	866.169	653.501
285.657	15.925	865.778	653.486
286.672	15.928	865.253	653.044
287.687	16.061	864.499	652.928
288.701	16.008	863.633	652.012
289.716	15.886	863.658	651.501
290.730	16.236	862.429	651.868
291.745	16.097	862.098	651.027
292.760	16.076	861.090	650.124
293.774	16.007	860.791	649.574
294.789	16.150	860.271	649.676
295.803	16.204	859.313	649.106
296.818	16.126	859.024	648.530
297.833	16.136	858.588	648.179
298.847	16.142	857.724	647.494
299.862	16.168	857.116	647.077
300.876	16.189	856.173	646.387
301.891	16.235	855.444	645.958
302.906	16.238	855.064	645.625
303.920	16.256	854.313	645.068
304.935	16.283	853.851	644.765
305.949	16.299	853.059	644.171
306.964	16.281	852.701	643.778
307.979	16.359	851.629	643.207
308.993	16.357	851.221	642.833
310.008	16.327	851.267	642.698
311.022	16.350	850.495	642.147
312.037	16.434	849.948	641.994
313.052	16.408	849.799	641.727
314.066	16.406	848.855	640.948
315.081	16.448	848.125	640.501
316.095	16.390	847.651	639.866
317.110	16.336	847.133	639.216
318.125	16.356	846.747	638.944
319.139	16.343	846.094	638.343
320.154	16.492	845.874	638.686
321.168	16.382	844.810	637.410
322.183	16.475	844.344	637.352
323.197	16.430	843.953	636.829
324.212	16.268	843.842	636.082
325.227	16.427	843.035	636.016
326.241	16.569	842.091	635.779
327.256	16.437	841.607	634.863
328.270	16.533	841.095	634.782
329.285	16.591	840.590	634.562
330.300	16.497	839.892	633.627
331.314	16.661	839.314	633.747
332.329	16.491	839.103	632.895
333.343	16.532	838.369	632.438
334.358	16.572	837.610	631.960
335.373	16.731	836.999	632.037
336.387	16.613	836.480	631.149
337.402	16.639	836.061	630.872
338.416	16.712	835.221	630.457
339.431	16.589	835.028	629.796
340.446	16.751	834.590	630.015
341.460	16.866	833.949	629.901
342.475	16.747	832.924	628.627
343.489	16.886	832.476	628.752
344.504	16.982	832.352	628.956
345.519	16.942	831.480	628.096
346.533	16.911	831.460	627.909
347.548	17.000	830.527	627.480
348.562	16.856	830.098	626.566
349.577	16.894	829.583	626.262
350.592	16.952	829.213	626.143
351.606	16.810	828.667	625.150
352.621	16.721	828.754	624.831
353.635	17.051	827.628	625.146
354.650	16.879	827.315	624.219
355.665	17.030	827.089	624.550
356.679	16.892	826.533	623.568
357.694	17.043	825.735	623.465
358.708	16.898	825.564	622.746
359.723	17.044	824.973	622.783
360.738	17.162	824.180	622.560
361.752	17.187	823.371	621.988
362.767	17.112	823.110	621.461
363.781	17.079	822.770	621.026
364.796	17.098	822.469	620.813
365.810	17.140	821.793	620.403
366.825	17.248	821.458	620.489
367.840	17.271	821.013	620.182
368.854	17.229	820.369	619.487
369.869	17.220	820.293	619.343
370.883	17.370	819.606	619.314
371.898	17.262	819.123	618.503
372.913	17.277	818.464	618.006
373.927	17.354	817.743	617.685
374.942	17.323	817.195	617.106
375.956	17.364	816.591	616.741
376.971	17.376	815.876	616.190
377.986	17.404	815.869	616.233
379.000	17.490	815.104	615.910
380.015	17.561	814.638	615.761
381.029	17.501	814.429	615.333
382.044	17.475	813.620	614.574
383.059	17.636	812.669	614.381
384.073	17.442	812.345	613.381
385.088	17.709	811.557	613.695
386.102	17.591	811.044	612.828
387.117	17.510	810.977	612.432
388.132	17.415	810.476	611.658
389.146	17.428	810.191	611.433
390.161	17.647	809.414	611.579
391.175	17.635	809.266	611.369
392.190	17.576	809.018	610.917
393.205	17.643	808.397	610.636
394.219	17.613	808.056	610.216
395.234	17.596	807.285	609.518
396.248	17.563	806.706	608.911
397.263	17.572	806.218	608.519
398.278	17.869	805.603	609.063
399.292	17.563	805.516	607.849
400.307	17.515	805.103	607.313
401.321	17.576	804.685	607.161
402.336	17.693	804.311	607.244
403.350	17.654	803.624	606.532
404.365	17.721	803.454	606.586
405.380	17.715	803.176	606.304
406.394	17.731	802.772	606.000
407.409	17.815	802.178	605.798
408.423	17.762	801.708	605.203
409.438	17.831	800.839	604.737
410.453	17.865	800.745	604.730
411.467	17.960	799.863	604.350
412.482	18.011	799.568	604.252
413.496	18.005	799.408	604.058
414.511	18.060	798.751	603.703
415.526	18.070	798.529	603.514
416.540	17.948	798.113	602.716
417.555	18.116	797.728	602.966
418.569	18.003	797.125	602.058
419.584	18.043	796.675	601.807
420.599	18.038	796.243	601.407
421.613	109.384	1289.318	1462.759
422.628	94.083	1361.133	1462.861
