DTS Sentinel unit serial number:	SN413079Multiplexer serial number:	ORYXHardware model number:	OX4-SRSoftware version number:	ORYX F/W v4.00 Oryx Data Collector v3.7.2.0data status	okinstallation	princeton_trtdifferential loss correction	single-endedforward channel	channel 3reverse channel	N/Adate	2019/09/19time	13:16:35forward acquisition time	60.00reverse acquisition time	0.00gamma	496.2192k internal	0.2327k external	0.2327temperature offset calibration	0.9993default loss term (dB/km)	0.3790temperature slope calibration	1.0000multiplexer offset coefficient	1.0000multiplexer slope coefficient	1.0000fibre end	0.00T internal ref (°C)	29.44T ext. ref 1 (°C)	0.95T ext. ref 2 (°C)	27.07length (m)	temperature (°C)	Stokes	anti-Stokes-747.200	-162.465	-0.121	0.006
-746.185	-33.805	0.173	0.096
-745.171	-153.011	-0.132	-0.009
-744.156	20.019	0.231	0.188
-743.142	87.271	-0.348	0.389
-742.127	187.146	0.180	0.271
-741.112	-200.000	-0.094	0.440
-740.098	-143.151	-0.075	-0.007
-739.083	105.895	-0.157	-0.187
-738.069	-65.396	-0.199	0.081
-737.054	-98.467	0.246	-0.063
-736.039	-157.976	-0.178	-0.011
-735.025	-151.929	0.137	0.010
-734.010	-78.377	-0.232	-0.080
-732.996	193.904	0.153	0.233
-731.981	124.842	-0.100	-0.126
-730.966	-200.000	-0.064	0.535
-729.952	43.340	-0.234	0.215
-728.937	295.231	0.090	0.165
-727.923	-23.289	-0.293	-0.178
-726.908	13.599	0.255	0.200
-725.894	100.588	0.104	0.121
-724.879	-140.978	0.275	0.028
-723.864	9.203	-0.255	-0.194
-722.850	-28.036	0.175	0.102
-721.835	73.466	0.136	-0.143
-720.821	-172.816	0.076	-0.002
-719.806	-136.413	-0.183	-0.021
-718.791	20.476	-0.155	-0.127
-717.777	330.404	0.058	-0.112
-716.762	9.135	0.142	0.108
-715.748	61.557	-0.274	-0.274
-714.733	-40.712	0.176	-0.092
-713.718	-200.000	-0.002	-0.193
-712.704	288.884	-0.122	-0.223
-711.689	-134.769	-0.173	-0.021
-710.675	194.884	-0.078	0.120
-709.660	73.919	0.174	-0.184
-708.645	800.000	-0.054	-0.187
-707.631	-141.684	0.065	0.007
-706.616	800.000	-0.037	-0.119
-705.602	536.970	0.182	-0.435
-704.587	-60.780	-0.208	-0.089
-703.572	-141.673	-0.439	0.044
-702.558	-200.000	-0.017	0.307
-701.543	-113.781	0.182	0.036
-700.529	745.952	-0.144	-0.389
-699.514	-168.841	0.276	-0.010
-698.499	64.001	0.029	0.029
-697.485	800.000	0.077	-0.214
-696.470	-114.441	-0.170	-0.033
-695.456	-64.947	-0.166	-0.068
-694.441	-200.000	-0.017	0.116
-693.426	-92.596	0.171	-0.048
-692.412	266.872	-0.057	-0.100
-691.397	-166.776	-0.276	-0.011
-690.383	-62.923	-0.160	0.067
-689.368	-111.230	-0.264	0.054
-688.354	-146.701	0.126	0.011
-687.339	-136.810	-0.272	-0.032
-686.324	-200.000	-0.018	0.250
-685.310	-112.585	0.159	-0.032
-684.295	-55.231	-0.095	-0.043
-683.281	752.327	0.015	0.041
-682.266	-200.000	0.015	0.102
-681.251	-200.000	-0.028	-0.305
-680.237	-49.899	-0.296	-0.141
-679.222	62.965	0.107	-0.108
-678.208	-154.959	0.034	-0.002
-677.193	238.407	-0.221	0.369
-676.178	210.625	-0.209	-0.330
-675.164	290.725	0.236	-0.432
-674.149	189.277	0.202	0.304
-673.135	-200.000	0.024	-0.227
-672.120	296.786	0.026	-0.049
-671.105	-200.000	-0.039	0.204
-670.091	-200.000	0.002	-0.119
-669.076	-200.000	0.021	0.170
-668.062	-200.000	-0.055	-0.395
-667.047	218.325	0.094	-0.150
-666.032	19.262	-0.024	-0.019
-665.018	-154.062	-0.366	-0.025
-664.003	-99.449	0.222	-0.056
-662.989	-120.089	-0.329	-0.057
-661.974	-33.130	0.167	-0.093
-660.959	-200.000	-0.025	-0.145
-659.945	-83.327	0.045	-0.015
-658.930	800.000	-0.087	0.282
-657.916	-63.892	0.209	0.086
-656.901	24.346	0.123	-0.102
-655.886	-156.019	-0.083	0.005
-654.872	-21.889	-0.179	0.109
-653.857	-12.662	0.206	0.135
-652.843	-11.040	-0.160	-0.106
-651.828	800.000	-0.118	0.385
-650.814	-200.000	-0.035	0.225
-649.799	239.445	0.105	-0.176
-648.784	-18.370	0.193	0.121
-647.770	37.343	-0.070	0.062
-646.755	-200.000	0.007	-0.082
-645.741	-73.367	-0.197	0.072
-644.726	793.809	-0.048	-0.133
-643.711	146.617	0.183	0.247
-642.697	-73.481	-0.431	0.158
-641.682	-74.452	-0.204	-0.074
-640.668	196.536	0.084	0.129
-639.653	-67.616	0.086	0.034
-638.638	747.087	-0.113	0.305
-637.624	800.000	-0.024	-0.083
-636.609	-61.181	-0.096	0.041
-635.595	154.478	0.104	0.144
-634.580	800.000	0.037	-0.125
-633.565	40.519	-0.148	0.134
-632.551	-26.610	-0.379	-0.223
-631.536	346.939	0.118	0.234
-630.522	205.529	0.143	0.224
-629.507	280.497	0.095	-0.171
-628.492	-35.957	-0.268	-0.146
-627.478	-98.385	-0.134	0.034
-626.463	571.847	-0.091	0.221
-625.449	-41.114	-0.167	-0.086
-624.434	-47.873	-0.030	-0.015
-623.419	-200.000	-0.016	0.118
-622.405	30.868	-0.150	0.129
-621.390	800.000	-0.082	-0.236
-620.376	-1.320	-0.091	0.064
-619.361	-200.000	-0.003	0.171
-618.346	-118.179	0.211	-0.038
-617.332	-117.071	0.107	0.020
-616.317	51.779	0.209	0.199
-615.303	201.661	-0.174	-0.269
-614.288	349.455	0.065	0.129
-613.273	624.225	0.078	-0.198
-612.259	82.975	0.152	0.166
-611.244	75.619	0.067	-0.071
-610.230	319.827	-0.108	0.206
-609.215	99.208	0.162	0.188
-608.201	171.383	-0.076	-0.109
-607.186	-104.087	0.322	-0.075
-606.171	-200.000	-0.054	-0.322
-605.157	-71.678	-0.327	0.122
-604.142	800.000	-0.078	0.255
-603.128	-115.836	-0.639	0.120
-602.113	-44.502	-0.221	0.111
-601.098	-7.299	0.283	0.192
-600.084	437.395	-0.188	-0.410
-599.069	347.531	0.120	0.236
-598.055	-33.313	0.318	-0.176
-597.040	696.244	0.021	-0.054
-596.025	105.770	0.239	0.283
-595.011	-168.285	0.164	0.006
-593.996	-200.000	0.032	0.299
-592.982	769.680	-0.092	0.251
-591.967	-14.315	0.266	-0.172
-590.952	-80.707	-0.092	0.031
-589.938	-20.454	-0.157	-0.097
-588.923	88.179	-0.103	0.115
-587.909	-200.000	0.015	0.346
-586.894	255.957	0.197	-0.338
-585.879	-82.744	0.184	-0.060
-584.865	-147.958	0.159	-0.013
-583.850	301.927	-0.189	-0.350
-582.836	-74.947	0.305	-0.110
-581.821	-89.606	-0.229	-0.067
-580.806	-180.036	-0.113	-0.002
-579.792	-126.737	-0.144	0.021
-578.777	23.148	-0.022	0.018
-577.763	134.469	0.107	-0.139
-576.748	-96.016	-0.202	-0.054
-575.733	-135.953	0.250	-0.029
-574.719	108.626	-0.119	-0.142
-573.704	160.271	0.020	0.027
-572.690	4.689	0.354	-0.260
-571.675	333.596	-0.077	0.148
-570.661	44.146	0.376	0.346
-569.646	-77.008	-0.288	-0.101
-568.631	70.134	-0.256	-0.265
-567.617	-108.523	0.155	0.033
-566.602	-97.179	-0.201	0.053
-565.588	-200.000	-0.029	0.187
-564.573	81.074	0.150	-0.162
-563.558	121.630	-0.108	-0.135
-562.544	-35.270	0.094	-0.051
-561.529	41.645	-0.179	-0.162
-560.515	-62.656	-0.461	-0.191
-559.500	314.814	-0.121	-0.228
-558.485	-106.519	0.431	-0.096
-557.471	-105.977	0.339	0.076
-556.456	-128.081	0.113	-0.016
-555.442	11.718	0.149	-0.114
-554.427	202.504	-0.046	0.071
-553.412	-117.208	0.124	-0.023
-552.398	-200.000	-0.017	0.164
-551.383	-13.112	0.144	0.094
-550.369	111.652	0.283	0.342
-549.354	-106.783	0.185	-0.041
-548.339	-200.000	0.008	-0.050
-547.325	-200.000	0.063	0.535
-546.310	-133.927	-0.133	-0.016
-545.296	-56.738	0.031	0.014
-544.281	209.271	-0.251	-0.394
-543.266	-200.000	0.004	-0.103
-542.252	122.126	0.177	0.221
-541.237	4.971	-0.281	0.207
-540.223	16.284	-0.254	0.200
-539.208	120.628	0.088	-0.110
-538.193	-200.000	-0.017	-0.080
-537.179	483.180	-0.056	-0.128
-536.164	475.450	-0.049	0.111
-535.150	-38.293	-0.021	-0.011
-534.135	800.000	-0.047	-0.171
-533.121	16.245	-0.205	-0.162
-532.106	-200.000	-0.051	-0.330
-531.091	-35.765	-0.305	0.165
-530.077	-48.687	0.332	-0.159
-529.062	198.061	-0.060	-0.092
-528.048	-200.000	0.001	-0.237
-527.033	-109.836	-0.268	0.056
-526.018	-95.518	0.268	0.072
-525.004	-111.639	-0.057	-0.011
-523.989	-200.000	0.010	-0.214
-522.975	-166.732	0.271	0.011
-521.960	210.505	0.055	-0.087
-520.945	-73.180	-0.224	0.082
-519.931	800.000	-0.031	0.095
-518.916	-200.000	0.016	-0.205
-517.902	93.704	0.092	0.105
-516.887	311.125	0.163	-0.305
-515.872	-200.000	0.002	0.124
-514.858	-200.000	-0.025	0.175
-513.843	-129.018	0.113	-0.016
-512.829	800.000	0.043	-0.125
-511.814	195.664	0.152	0.230
-510.799	-101.722	-0.096	0.023
-509.785	60.133	-0.101	-0.100
-508.770	-139.737	0.219	-0.023
-507.756	-78.743	-0.208	-0.071
-506.741	-74.402	0.182	-0.065
-505.726	-42.927	0.197	-0.100
-504.712	96.281	0.225	0.257
-503.697	5.225	0.100	0.074
-502.683	-4.997	0.217	0.149
-501.668	-200.000	0.006	-0.123
-500.653	25.234	-0.115	-0.095
-499.639	16.845	0.025	0.019
-498.624	-14.142	0.313	0.202
-497.610	-181.335	-0.265	-0.005
-496.595	323.528	-0.065	0.123
-495.581	-26.209	-0.017	-0.010
-494.566	-52.274	-0.230	-0.107
-493.551	-200.000	-0.041	0.354
-492.537	800.000	-0.068	-0.261
-491.522	-90.445	-0.257	-0.075
-490.508	-96.829	-0.175	0.046
-489.493	-200.000	-0.059	0.417
-488.478	172.560	0.139	0.199
-487.464	-123.788	-0.347	0.055
-486.449	-98.121	0.458	-0.118
-485.435	-34.982	0.153	-0.083
-484.420	-70.920	0.350	-0.132
-483.405	-65.283	-0.032	0.013
-482.391	800.000	-0.008	0.030
-481.376	-18.827	-0.137	-0.085
-480.362	59.844	-0.182	0.179
-479.347	800.000	-0.017	-0.058
-478.332	39.838	0.175	0.157
-477.318	-159.924	-0.090	-0.005
-476.303	634.082	0.113	0.286
-475.289	-1.583	0.159	0.112
-474.274	278.088	-0.065	0.115
-473.259	-112.026	0.411	-0.083
-472.245	-72.998	0.127	-0.046
-471.230	-104.653	-0.127	-0.029
-470.216	147.435	0.086	-0.115
-469.201	800.000	0.104	-0.442
-468.186	43.987	-0.149	0.136
-467.172	-143.428	0.145	-0.014
-466.157	-200.000	0.045	-0.344
-465.143	-200.000	0.029	-0.239
-464.128	-1.030	-0.107	-0.075
-463.113	21.841	-0.247	-0.201
-462.099	-93.518	-0.365	0.101
-461.084	254.993	-0.155	0.265
-460.070	-200.000	-0.042	0.276
-459.055	696.334	-0.033	-0.086
-458.040	-101.166	-0.204	0.050
-457.026	1.119	0.222	-0.159
-456.011	53.797	0.126	0.120
-454.997	-3.974	-0.153	0.106
-453.982	-76.857	-0.165	0.058
-452.968	-99.811	0.195	-0.049
-451.953	285.761	0.175	-0.314
-450.938	69.147	0.153	-0.157
-449.924	115.711	0.131	0.159
-448.909	-131.081	-0.286	-0.038
-447.895	361.403	0.095	0.191
-446.880	71.366	-0.174	0.180
-445.865	174.998	-0.209	0.302
-444.851	1.002	-0.160	-0.115
-443.836	111.093	0.040	-0.048
-442.822	165.424	-0.095	-0.134
-441.807	-91.318	0.118	0.034
-440.792	-104.169	0.108	-0.025
-439.778	375.791	-0.122	0.247
-438.763	-76.319	0.017	0.006
-437.749	-200.000	-0.026	0.217
-436.734	370.567	-0.077	-0.155
-435.719	-135.812	-0.117	0.014
-434.705	-17.781	0.316	0.198
-433.690	800.000	0.051	0.171
-432.676	-200.000	0.012	0.381
-431.661	-40.554	0.304	-0.157
-430.646	-18.196	-0.086	-0.054
-429.632	800.000	0.053	-0.187
-428.617	-200.000	0.051	0.249
-427.603	-200.000	-0.030	0.364
-426.588	17.718	0.257	0.204
-425.573	-13.105	-0.342	-0.221
-424.559	-200.000	0.061	0.506
-423.544	800.000	-0.098	0.368
-422.530	607.165	0.073	0.181
-421.515	323.967	-0.180	-0.342
-420.500	800.000	0.067	-0.254
-419.486	45.626	-0.252	-0.232
-418.471	270.269	-0.087	-0.152
-417.457	651.308	0.139	0.354
-416.442	-65.172	-0.225	0.090
-415.428	-61.059	-0.242	0.102
-414.413	276.271	0.060	-0.106
-413.398	-188.246	0.171	0.002
-412.384	-200.000	0.230	0.001
-411.369	217.322	-0.173	0.274
-410.355	-119.315	0.050	0.009
-409.340	-200.000	-0.028	-0.167
-408.325	160.423	-0.208	0.289
-407.311	-140.043	0.165	-0.017
-406.296	800.000	0.081	-0.333
-405.282	-63.634	0.055	-0.022
-404.267	359.268	0.080	-0.159
-403.252	273.178	0.086	0.151
-402.238	-113.409	-0.065	-0.013
-401.223	-52.588	0.133	0.061
-400.209	-1.473	-0.200	-0.140
-399.194	648.001	0.033	-0.085
-398.179	-53.977	-0.164	0.074
-397.165	71.658	0.106	-0.109
-396.150	-37.867	0.167	0.088
-395.136	638.076	-0.024	-0.060
-394.121	460.610	0.097	0.216
-393.106	30.748	0.309	0.263
-392.092	796.745	0.031	0.084
-391.077	76.802	-0.214	0.226
-390.063	-130.163	0.495	0.067
-389.048	-200.000	0.059	-0.600
-388.033	20.498	-0.260	0.209
-387.019	9.941	0.257	-0.194
-386.004	212.822	-0.227	-0.356
-384.990	34.142	-0.165	0.143
-383.975	231.488	-0.111	0.181
-382.960	-46.795	-0.133	0.065
-381.946	-158.474	0.319	0.018
-380.931	-78.645	-0.300	-0.102
-379.917	800.000	-0.080	-0.303
-378.902	-107.470	-0.067	-0.015
-377.888	23.389	0.090	-0.074
-376.873	800.000	0.052	0.145
-375.858	-39.464	-0.071	0.037
-374.844	206.516	-0.018	0.028
-373.829	-200.000	-0.011	0.213
-372.815	615.740	-0.053	-0.133
-371.800	-151.892	0.089	0.007
-370.785	-5.764	-0.184	-0.125
-369.771	-200.000	-0.044	-0.201
-368.756	800.000	-0.110	0.343
-367.742	70.531	0.190	0.196
-366.727	-96.537	0.198	-0.052
-365.712	-50.869	0.144	-0.067
-364.698	-125.855	-0.089	-0.013
-363.683	583.490	0.087	0.213
-362.669	-96.784	-0.177	-0.046
-361.654	116.390	0.224	-0.273
-360.639	246.707	0.028	-0.046
-359.625	800.000	0.076	-0.227
-358.610	-53.867	-0.206	-0.093
-357.596	152.072	0.105	0.142
-356.581	-12.966	0.174	0.113
-355.566	-95.082	-0.064	-0.017
-354.552	14.176	-0.050	-0.039
-353.537	68.175	-0.147	-0.150
-352.523	-127.091	0.508	-0.074
-351.508	32.604	0.086	-0.074
-350.493	-103.483	0.180	-0.042
-349.479	368.795	-0.102	0.205
-348.464	-13.025	-0.061	-0.040
-347.450	-78.961	0.351	-0.119
-346.435	472.994	0.166	-0.372
-345.420	138.773	0.121	0.157
-344.406	-200.000	-0.036	-0.217
-343.391	-200.000	-0.081	-0.360
-342.377	572.519	-0.034	-0.082
-341.362	-83.295	-0.327	0.104
-340.348	-200.000	0.008	-0.075
-339.333	-91.590	-0.127	-0.036
-338.318	-110.133	-0.406	-0.084
-337.304	-114.451	-0.145	0.028
-336.289	800.000	-0.106	0.397
-335.275	136.473	0.184	0.238
-334.260	-200.000	0.005	-0.028
-333.245	77.592	-0.115	-0.121
-332.231	146.986	-0.111	0.149
-331.216	447.225	-0.147	0.321
-330.202	800.000	0.037	0.147
-329.187	-200.000	-0.009	0.048
-328.172	-200.000	-0.023	-0.153
-327.158	111.178	0.091	-0.109
-326.143	800.000	0.022	0.085
-325.129	-27.133	-0.220	-0.127
-324.114	-200.000	-0.029	-0.260
-323.099	113.411	0.176	0.212
-322.085	800.000	-0.085	-0.277
-321.070	-57.634	-0.469	-0.204
-320.056	-118.741	0.282	-0.049
-319.041	-103.425	-0.279	0.065
-318.026	-140.742	-0.198	0.020
-317.012	-137.908	-0.044	-0.005
-315.997	-116.848	-0.337	-0.061
-314.983	-26.124	0.063	0.037
-313.968	-153.865	0.421	-0.029
-312.953	208.714	-0.143	0.222
-311.939	-9.416	0.192	-0.127
-310.924	-6.121	0.118	-0.080
-309.910	-138.939	-0.314	0.034
-308.895	-8.728	-0.293	0.195
-307.880	-43.516	-0.372	-0.186
-306.866	158.873	0.115	-0.158
-305.851	112.539	0.209	0.251
-304.837	438.646	-0.110	0.238
-303.822	-15.329	0.115	-0.073
-302.807	206.791	0.044	0.068
-301.793	22.629	0.215	0.175
-300.778	-54.577	0.332	0.149
-299.764	290.556	0.001	0.002
-298.749	-58.963	0.089	-0.038
-297.735	36.635	-0.224	0.196
-296.720	423.794	-0.040	-0.085
-295.705	-200.000	-0.004	0.221
-294.691	-145.670	-0.025	-0.002
-293.676	12.110	0.281	0.214
-292.662	-200.000	0.001	-0.084
-291.647	15.872	-0.220	0.171
-290.632	-85.650	-0.070	-0.021
-289.618	-200.000	-0.030	-0.356
-288.603	-132.398	-0.107	-0.014
-287.589	26.843	-0.245	0.204
-286.574	-200.000	0.010	0.091
-285.559	-80.067	-0.264	-0.088
-284.545	800.000	0.078	-0.279
-283.530	86.750	0.084	-0.092
-282.516	800.000	-0.049	0.159
-281.501	-24.618	0.174	-0.103
-280.486	-200.000	-0.058	-0.289
-279.472	195.748	0.110	-0.165
-278.457	19.217	-0.255	-0.203
-277.443	-200.000	-0.040	-0.223
-276.428	-200.000	0.002	0.251
-275.413	-6.231	0.253	-0.171
-274.399	119.806	-0.134	-0.164
-273.384	-60.516	-0.111	0.047
-272.370	-84.478	-0.189	0.059
-271.355	4.259	0.091	0.066
-270.340	-9.908	0.172	0.113
-269.326	-177.733	-0.221	0.005
-268.311	-144.209	-0.216	0.020
-267.297	-6.036	-0.142	0.096
-266.282	-200.000	0.016	0.148
-265.267	347.612	0.075	-0.146
-264.253	-51.928	-0.115	0.053
-263.238	29.587	-0.308	-0.259
-262.224	268.563	-0.131	-0.228
-261.209	229.293	0.161	-0.260
-260.195	377.449	0.036	-0.072
-259.180	-32.759	0.459	0.253
-258.165	-32.383	0.156	0.086
-257.151	36.278	0.106	0.093
-256.136	800.000	0.078	0.242
-255.122	115.408	-0.119	-0.143
-254.107	-200.000	-0.041	-0.232
-253.092	-200.000	0.003	-0.078
-252.078	-24.121	0.236	-0.139
-251.063	-200.000	-0.002	0.173
-250.049	-200.000	-0.009	0.074
-249.034	-200.000	0.021	-0.147
-248.019	-105.650	-0.184	-0.041
-247.005	76.692	0.203	0.213
-245.990	-200.000	0.066	0.349
-244.976	741.505	-0.054	0.144
-243.961	118.719	0.063	0.077
-242.946	-99.615	0.440	-0.109
-241.932	-95.317	-0.206	0.055
-240.917	-9.160	0.161	-0.106
-239.903	800.000	0.052	-0.162
-238.888	-158.975	0.215	-0.012
-237.873	-159.079	0.189	-0.011
-236.859	-200.000	0.001	-0.230
-235.844	-169.794	0.209	-0.007
-234.830	359.844	-0.076	0.151
-233.815	-200.000	0.272	-0.000
-232.800	416.890	0.190	-0.401
-231.786	-200.000	0.025	0.171
-230.771	-200.000	0.001	-0.177
-229.757	193.166	-0.190	-0.283
-228.742	-46.070	0.092	0.045
-227.727	582.844	0.038	-0.093
-226.713	-40.359	-0.204	0.105
-225.698	-200.000	0.049	0.255
-224.684	800.000	0.044	0.127
-223.669	-144.564	-0.018	-0.002
-222.655	4.906	-0.202	0.147
-221.640	800.000	0.010	-0.038
-220.625	-122.941	-0.170	-0.027
-219.611	-133.585	0.330	-0.041
-218.596	800.000	-0.093	0.329
-217.582	-46.327	-0.035	0.017
-216.567	-129.044	-0.147	-0.020
-215.552	-200.000	0.045	-0.235
-214.538	124.930	-0.167	-0.208
-213.523	-7.202	0.269	-0.180
-212.509	501.794	0.102	0.233
-211.494	-83.031	0.140	-0.045
-210.479	800.000	0.072	0.230
-209.465	1.205	-0.448	0.317
-208.450	-200.000	-0.013	0.084
-207.436	230.552	-0.096	0.155
-206.421	288.163	-0.202	-0.361
-205.406	-200.000	-0.001	-0.123
-204.392	732.926	0.076	0.202
-203.377	-200.000	-0.041	-0.313
-202.363	800.000	0.038	-0.144
-201.348	335.381	-0.191	-0.365
-200.333	-200.000	-0.036	0.180
-199.319	263.290	0.025	-0.043
-198.304	800.000	0.028	0.076
-197.290	-102.778	0.057	0.013
-196.275	-200.000	-0.033	-0.347
-195.260	230.683	-0.135	-0.218
-194.246	-200.000	-0.037	0.193
-193.231	-200.000	-0.056	0.374
-192.217	63.758	0.032	0.031
-191.202	-51.248	0.248	0.115
-190.187	-16.072	0.132	-0.083
-189.173	800.000	0.151	0.444
-188.158	800.000	-0.084	-0.252
-187.144	5.846	0.109	-0.080
-186.129	26.735	0.214	-0.176
-185.114	483.740	0.043	0.095
-184.100	391.091	0.132	-0.270
-183.085	112.819	0.129	-0.154
-182.071	800.000	0.038	-0.135
-181.056	35.600	-0.242	-0.210
-180.042	-79.869	0.124	-0.041
-179.027	-1.626	0.148	-0.103
-178.012	12.352	0.093	0.071
-176.998	-107.597	-0.377	0.081
-175.983	-149.505	0.018	-0.001
-174.969	-16.615	0.133	0.083
-173.954	137.121	-0.080	-0.104
-172.939	118.783	0.079	0.096
-171.925	622.145	0.062	0.154
-170.910	-118.146	-0.252	-0.044
-169.896	-49.806	0.297	-0.139
-168.881	-200.000	0.067	0.549
-167.866	-200.000	-0.036	-0.178
-166.852	800.000	-0.001	0.004
-165.837	-11.388	-0.191	-0.124
-164.823	-149.028	-0.097	0.008
-163.808	29.417	0.235	-0.197
-162.793	-200.000	0.034	-0.340
-161.779	-121.501	-0.377	0.062
-160.764	-53.156	0.108	0.049
-159.750	125.871	-0.140	-0.174
-158.735	800.000	-0.068	-0.260
-157.720	5.319	0.129	0.094
-156.706	800.000	-0.115	-0.396
-155.691	-97.397	0.194	0.050
-154.677	374.146	-0.145	0.292
-153.662	-200.000	0.013	0.111
-152.647	-200.000	0.015	0.177
-151.633	-10.869	-0.097	-0.063
-150.618	253.026	0.203	-0.342
-149.604	20.702	0.131	0.105
-148.589	-169.701	0.399	0.014
-147.574	-76.857	-0.665	-0.229
-146.560	-101.695	-0.258	0.062
-145.545	577.246	-0.023	-0.056
-144.531	479.448	-0.226	-0.504
-143.516	-200.000	0.039	-0.433
-142.502	12.150	0.204	0.155
-141.487	-200.000	-0.008	-0.122
-140.472	-60.870	-0.101	0.042
-139.458	-200.000	0.012	0.065
-138.443	-37.033	0.083	-0.044
-137.429	308.239	-0.025	0.046
-136.414	-30.411	0.167	0.093
-135.399	-200.000	-0.022	-0.119
-134.385	-20.933	-0.201	0.121
-133.370	357.402	-0.162	0.318
-132.356	278.277	0.125	-0.219
-131.341	-200.000	0.002	-0.227
-130.326	-109.715	0.315	-0.065
-129.312	-200.000	-0.058	-0.267
-128.297	-10.192	-0.366	0.239
-127.283	800.000	0.152	0.416
-126.268	-200.000	0.017	0.204
-125.253	-200.000	0.041	-0.288
-124.239	631.988	0.058	-0.144
-123.224	257.031	-0.052	0.088
-122.210	-4.757	0.113	-0.077
-121.195	-200.000	0.014	-0.414
-120.180	-126.281	0.137	-0.020
-119.166	-22.421	0.116	0.069
-118.151	-113.180	-0.195	0.038
-117.137	151.048	0.060	0.080
-116.122	-28.598	-0.434	-0.246
-115.107	-53.095	0.329	0.149
-114.093	-57.583	0.186	0.080
-113.078	-91.149	-0.096	-0.027
-112.064	-200.000	0.060	-0.308
-111.049	-200.000	-0.009	-0.123
-110.034	130.237	0.038	0.048
-109.020	11.838	0.101	0.076
-108.005	-138.400	0.140	-0.015
-106.991	121.688	0.115	-0.141
-105.976	279.253	0.041	-0.072
-104.962	88.418	0.040	0.044
-103.947	-119.093	0.309	0.053
-102.932	33.232	0.126	0.108
-101.918	483.375	-0.096	-0.214
-100.903	-200.000	-0.001	-0.093
-99.889	450.289	0.144	0.313
-98.874	-92.107	-0.197	-0.055
-97.859	603.920	0.060	-0.146
-96.845	-200.000	0.196	-0.000
-95.830	112.576	-0.101	-0.121
-94.816	-200.000	0.042	-0.210
-93.801	-87.051	-0.240	0.072
-92.786	-155.331	-0.145	0.009
-91.772	745.154	0.078	0.207
-90.757	-170.287	0.165	0.006
-89.743	-68.317	-0.194	0.074
-88.728	146.969	0.122	-0.161
-87.713	800.000	0.110	0.434
-86.699	-200.000	-0.014	-0.093
-85.684	-37.978	0.370	-0.193
-84.670	0.099	0.099	0.070
-83.655	800.000	0.088	0.275
-82.640	-61.719	0.196	-0.081
-81.626	800.000	0.034	-0.116
-80.611	-82.942	0.385	0.122
-79.597	5.373	-0.246	0.178
-78.582	683.376	0.138	-0.353
-77.567	-136.804	0.078	-0.009
-76.553	212.118	-0.172	0.266
-75.538	-200.000	-0.050	-0.218
-74.524	402.698	0.151	0.313
-73.509	-200.000	-0.020	0.173
-72.494	283.206	0.081	-0.144
-71.480	800.000	0.027	-0.094
-70.465	1.659	0.140	-0.099
-69.451	-200.000	0.014	0.305
-68.436	-128.364	-0.052	-0.007
-67.422	-145.903	0.130	-0.011
-66.407	-200.000	0.007	-0.110
-65.392	13.918	-0.163	0.124
-64.378	252.658	0.107	0.179
-63.363	58.028	-0.072	0.069
-62.349	-94.298	0.182	0.049
-61.334	45.369	-1.034	-0.937
-60.319	136.708	0.589	0.755
-59.305	-200.000	-0.081	-1.056
-58.290	581.365	0.565	1.360
-57.276	673.649	0.692	1.761
-56.261	-200.000	103.924	571.516
-55.246	431.740	1484.970	3158.838
-54.232	141.588	2706.565	3518.214
-53.217	103.824	2225.721	2566.275
-52.203	39.881	1742.036	1534.957
-51.188	32.493	1550.375	1314.676
-50.173	30.193	1522.866	1275.497
-49.159	50.169	1576.429	1460.727
-48.144	50.543	1594.435	1479.977
-47.130	32.789	1550.514	1316.647
-46.115	29.772	1535.816	1283.223
-45.100	29.597	1532.327	1279.044
-44.086	29.562	1530.780	1277.459
-43.071	29.539	1527.971	1274.907
-42.057	29.418	1526.403	1272.709
-41.042	29.351	1525.335	1271.305
-40.027	29.512	1523.508	1270.845
-39.013	29.496	1521.541	1269.042
-37.998	29.393	1520.452	1267.374
-36.984	29.381	1520.082	1266.935
-35.969	29.478	1517.869	1265.705
-34.954	29.357	1516.798	1263.933
-33.940	29.347	1515.531	1262.754
-32.925	29.402	1513.905	1261.729
-31.911	29.377	1512.893	1260.667
-30.896	29.401	1511.519	1259.632
-29.881	29.596	1509.657	1259.358
-28.867	29.542	1508.857	1258.276
-27.852	29.508	1507.361	1256.748
-26.838	29.478	1505.671	1255.081
-25.823	29.544	1504.409	1254.430
-24.809	29.544	1502.370	1252.678
-23.794	29.502	1501.197	1251.365
-22.779	29.525	1499.767	1250.285
-21.765	29.528	1498.880	1249.515
-20.750	29.531	1497.911	1248.675
-19.736	29.421	1496.564	1246.761
-18.721	29.446	1495.436	1245.940
-17.706	29.450	1493.949	1244.680
-16.692	29.408	1493.281	1243.791
-15.677	29.375	1492.291	1242.692
-14.663	29.545	1490.493	1242.293
-13.648	29.398	1490.054	1240.889
-12.633	29.362	1489.291	1239.963
-11.619	29.414	1488.387	1239.508
-10.604	29.397	1487.592	1238.685
-9.590	29.385	1486.203	1237.399
-8.575	29.413	1485.701	1237.118
-7.560	29.427	1484.546	1236.198
-6.546	29.355	1483.887	1235.118
-5.531	29.373	1483.323	1234.724
-4.517	29.409	1481.919	1233.743
-3.502	29.361	1480.773	1232.424
-2.487	29.387	1479.981	1231.889
-1.473	29.277	1478.434	1229.818
-0.458	29.365	1477.075	1229.226
0.556	28.807	1468.153	1220.764
1.571	26.408	1442.958	1184.022
2.586	23.276	1379.940	1112.567
3.600	21.146	1294.917	1031.354
4.615	19.134	1247.857	982.317
5.629	16.043	1190.041	919.878
6.644	8.197	1103.987	813.414
7.659	1.962	1063.768	753.000
8.673	1.153	1058.138	744.976
9.688	0.909	1055.308	741.724
10.702	0.903	1053.578	740.414
11.717	0.835	1051.432	738.506
12.731	3.181	1053.614	751.437
13.746	10.487	1063.301	794.178
14.761	16.163	1070.601	827.479
15.775	17.368	1071.132	833.730
16.790	17.093	1069.796	831.269
17.804	16.091	1067.518	824.527
18.819	15.177	1066.177	818.951
19.834	14.793	1064.624	815.813
20.848	14.552	1063.454	813.668
21.863	14.255	1062.566	811.467
22.877	14.044	1062.027	809.958
23.892	13.806	1060.982	807.930
24.907	13.630	1060.480	806.618
25.921	13.690	1059.202	805.865
26.936	13.745	1058.663	805.653
27.950	13.746	1058.117	805.170
28.965	13.795	1057.161	804.611
29.980	13.830	1056.452	804.167
30.994	13.865	1055.208	803.319
32.009	13.923	1054.170	802.738
33.023	13.875	1054.081	802.367
34.038	13.894	1052.753	801.380
35.053	13.811	1051.829	800.206
36.067	13.814	1051.309	799.754
37.082	13.851	1050.466	799.218
38.096	13.818	1049.793	798.477
39.111	13.831	1048.933	797.817
40.126	13.826	1048.236	797.192
41.140	13.816	1047.322	796.374
42.155	13.797	1046.205	795.365
43.169	13.752	1045.183	794.301
44.184	13.761	1043.897	793.297
45.199	13.741	1042.938	792.406
46.213	13.638	1042.203	791.282
47.228	13.713	1041.305	790.890
48.242	13.787	1040.182	790.318
49.257	13.862	1038.892	789.624
50.271	13.764	1037.826	788.279
51.286	13.749	1037.312	787.746
52.301	13.771	1036.280	787.000
53.315	13.739	1035.687	786.330
54.330	13.758	1035.160	785.948
55.344	13.699	1034.003	784.719
56.359	13.711	1033.114	784.034
57.374	13.700	1031.711	782.846
58.388	13.785	1030.764	782.459
59.403	13.736	1030.235	781.762
60.417	13.859	1029.341	781.593
61.432	13.694	1028.950	780.447
62.447	13.572	1028.151	779.198
63.461	13.490	1027.464	778.222
64.476	13.600	1026.369	777.843
65.490	13.594	1025.708	777.246
66.505	13.493	1024.919	776.102
67.520	13.546	1024.057	775.633
68.534	13.542	1023.473	775.103
69.549	13.635	1022.293	774.576
70.563	13.649	1021.614	774.054
71.578	13.706	1021.082	773.851
72.593	13.629	1019.953	772.568
73.607	13.556	1018.958	771.408
74.622	13.603	1017.911	770.764
75.636	13.715	1017.182	770.664
76.651	13.497	1016.375	768.974
77.666	13.601	1015.631	768.824
78.680	13.656	1014.652	768.269
79.695	13.515	1014.928	767.757
80.709	13.632	1013.709	767.307
81.724	13.699	1012.731	766.812
82.739	13.559	1012.365	765.816
83.753	13.752	1011.387	765.900
84.768	13.722	1010.542	765.055
85.782	13.794	1009.917	764.847
86.797	13.764	1009.199	764.098
87.812	13.828	1008.055	763.458
88.826	13.925	1007.224	763.208
89.841	13.777	1006.436	761.861
90.855	13.658	1006.160	761.038
91.870	13.728	1004.892	760.334
92.884	13.761	1004.615	760.209
93.899	13.801	1004.021	759.874
94.914	13.824	1002.815	759.002
95.928	13.880	1002.323	758.818
96.943	13.932	1001.549	758.400
97.957	13.854	1000.855	757.452
98.972	13.805	999.953	756.478
99.987	13.787	999.122	755.701
101.001	13.837	998.315	755.254
102.016	13.874	997.419	754.678
103.030	13.800	996.446	753.538
104.045	13.858	995.613	753.105
105.060	13.931	994.320	752.387
106.074	13.820	993.932	751.526
107.089	13.824	993.016	750.784
108.103	13.757	992.081	749.711
109.118	13.701	991.555	748.991
110.133	13.688	990.295	747.916
111.147	13.742	989.488	747.483
112.162	13.719	988.422	746.509
113.176	13.825	987.771	746.428
114.191	13.891	986.435	745.647
115.206	13.745	986.004	744.603
116.220	13.755	984.908	743.753
117.235	13.898	984.136	743.744
118.249	13.747	983.137	742.247
119.264	13.855	982.350	742.072
120.279	13.807	981.754	741.343
121.293	13.772	980.761	740.369
122.308	13.725	980.187	739.660
123.322	13.801	979.000	739.039
124.337	13.867	978.256	738.706
125.352	13.772	977.267	737.470
126.366	13.825	975.962	736.656
127.381	13.723	974.916	735.350
128.395	13.708	973.843	734.406
129.410	13.777	972.701	733.786
130.424	13.748	971.955	733.032
131.439	13.710	971.202	732.229
132.454	13.847	970.303	732.095
133.468	13.798	969.564	731.253
134.483	13.826	968.985	730.875
135.497	13.936	967.987	730.545
136.512	13.758	967.578	729.388
137.527	13.887	966.544	729.110
138.541	13.781	965.755	727.984
139.556	13.746	965.571	727.630
140.570	13.784	964.661	727.045
141.585	13.737	963.834	726.152
142.600	13.865	963.232	726.192
143.614	13.847	962.184	725.259
144.629	13.825	961.620	724.675
145.643	13.910	960.729	724.310
146.658	14.054	959.859	724.218
147.673	13.934	959.076	723.039
148.687	14.071	957.676	722.514
149.702	13.942	956.956	721.349
150.716	13.968	956.166	720.802
151.731	13.995	955.171	720.104
152.746	13.907	954.308	719.011
153.760	13.739	954.045	718.020
154.775	13.896	953.271	718.055
155.789	13.999	952.515	717.868
156.804	14.040	951.820	717.456
157.819	13.947	950.869	716.272
158.833	13.898	950.521	715.738
159.848	14.057	949.407	715.521
160.862	13.985	949.245	715.026
161.877	14.101	948.242	714.706
162.892	13.980	947.704	713.717
163.906	14.007	946.617	712.950
164.921	14.029	945.841	712.396
165.935	13.875	945.054	711.081
166.950	14.072	943.674	710.823
167.964	14.057	942.624	709.903
168.979	14.139	941.762	709.544
169.994	13.957	940.923	708.071
171.008	14.018	939.957	707.540
172.023	14.087	939.212	707.211
173.037	14.092	938.742	706.819
174.052	14.171	937.704	706.310
175.067	14.198	937.018	705.845
176.081	14.152	936.527	705.215
177.096	14.096	935.356	704.035
178.110	14.086	934.605	703.365
179.125	14.096	934.092	702.959
180.140	14.060	933.083	701.988
181.154	14.138	932.686	701.954
182.169	14.103	932.290	701.447
183.183	14.133	931.452	700.881
184.198	14.277	930.798	700.932
185.213	14.278	929.872	700.178
186.227	14.151	929.913	699.612
187.242	14.371	928.814	699.648
188.256	14.344	928.172	698.989
189.271	14.281	927.293	698.002
190.286	14.405	926.692	698.004
191.300	14.218	926.019	696.653
192.315	14.282	925.065	696.143
193.329	14.220	924.798	695.621
194.344	14.223	924.212	695.132
195.359	14.324	923.447	694.916
196.373	14.275	923.163	694.437
197.388	14.319	922.387	693.974
198.402	14.279	922.082	693.515
199.417	14.446	921.363	693.608
200.432	14.452	920.823	693.166
201.446	14.515	920.174	692.879
202.461	14.604	919.736	692.858
203.475	14.503	919.225	691.994
204.490	14.604	918.446	691.765
205.504	14.577	917.674	691.009
206.519	14.642	917.066	690.760
207.534	14.557	916.369	689.822
208.548	14.556	915.735	689.279
209.563	14.528	914.987	688.537
210.577	14.570	913.771	687.737
211.592	14.512	913.910	687.539
212.607	14.320	913.439	686.335
213.621	14.634	912.622	686.953
214.636	14.713	911.476	686.352
215.650	14.632	910.800	685.453
216.665	14.659	910.270	685.104
217.680	14.626	909.822	684.571
218.694	14.814	909.112	684.747
219.709	14.782	908.797	684.316
220.723	14.757	907.930	683.502
221.738	14.660	907.107	682.423
222.753	14.724	906.901	682.472
223.767	14.731	905.863	681.657
224.782	14.916	904.862	681.598
225.796	14.718	904.657	680.576
226.811	14.902	903.584	680.457
227.826	15.025	902.868	680.359
228.840	14.897	902.601	679.578
229.855	14.810	901.976	678.693
230.869	14.944	901.168	678.568
231.884	14.879	900.833	677.994
232.899	14.981	899.841	677.599
233.913	14.831	899.382	676.588
234.928	14.905	898.666	676.289
235.942	14.957	897.976	675.919
236.957	14.851	896.928	674.641
237.972	14.915	896.279	674.351
238.986	14.894	895.699	673.770
240.001	14.830	895.179	673.061
241.015	14.987	894.203	672.901
242.030	15.026	893.556	672.511
243.045	15.015	893.118	672.076
244.059	14.950	892.756	671.486
245.074	15.045	891.764	671.062
246.088	14.947	891.558	670.452
247.103	15.179	890.564	670.574
248.117	15.100	890.301	670.002
249.132	15.096	889.600	669.397
250.147	15.078	888.927	668.762
251.161	15.185	887.919	668.371
252.176	15.163	887.398	667.833
253.190	15.207	886.858	667.542
254.205	15.367	886.100	667.547
255.220	15.311	885.473	666.793
256.234	15.500	884.990	667.123
257.249	15.404	884.321	666.177
258.263	15.485	883.451	665.785
259.278	15.394	883.417	665.341
260.293	15.516	882.625	665.167
261.307	15.326	882.053	663.926
262.322	15.532	881.169	664.015
263.336	15.531	880.569	663.503
264.351	15.488	880.454	663.184
265.366	15.499	879.704	662.605
266.380	15.639	878.824	662.437
267.395	15.612	878.272	661.856
268.409	15.566	877.538	661.064
269.424	15.578	876.535	660.296
270.439	15.577	876.139	659.935
271.453	15.562	875.452	659.300
272.468	15.640	874.590	658.899
273.482	15.495	874.140	657.934
274.497	15.604	873.553	657.860
275.512	15.641	872.670	657.281
276.526	15.565	872.109	656.505
277.541	15.675	871.405	656.343
278.555	15.641	871.034	655.875
279.570	15.713	870.327	655.567
280.585	15.824	869.452	655.279
281.599	15.787	869.126	654.834
282.614	15.816	868.639	654.520
283.628	15.774	868.143	653.927
284.643	15.753	867.440	653.257
285.657	15.802	866.866	652.956
286.672	15.708	866.631	652.357
287.687	15.919	865.496	652.263
288.701	15.923	865.008	651.851
289.716	15.803	865.020	651.338
290.730	15.957	863.929	651.055
291.745	15.843	863.450	650.198
292.760	15.927	862.661	649.868
293.774	15.983	861.937	649.482
294.789	15.901	861.629	648.879
295.803	15.898	861.230	648.506
296.818	15.938	860.717	648.217
297.833	15.908	859.657	647.245
298.847	16.033	858.715	646.959
299.862	15.896	858.161	645.958
300.876	16.100	857.478	646.171
301.891	15.981	857.290	645.516
302.906	16.007	856.267	644.786
303.920	16.048	855.829	644.557
304.935	16.047	855.320	644.112
305.949	16.189	854.419	643.919
306.964	16.294	853.453	643.537
307.979	16.211	853.325	643.067
308.993	16.203	852.913	642.668
310.008	16.353	851.993	642.488
311.022	16.337	851.700	642.148
312.037	16.285	851.285	641.582
313.052	16.292	850.346	640.846
314.066	16.208	850.277	640.417
315.081	16.199	849.532	639.766
316.095	16.391	848.597	639.733
317.110	16.332	848.115	639.087
318.125	16.334	847.517	638.590
319.139	16.436	846.909	638.459
320.154	16.262	846.562	637.482
321.168	16.322	845.920	637.171
322.183	16.287	845.535	636.690
323.197	16.369	845.296	636.764
324.212	16.295	844.500	635.831
325.227	16.357	843.879	635.539
326.241	16.267	843.586	634.924
327.256	16.466	842.926	635.118
328.270	16.448	842.439	634.627
329.285	16.332	841.968	633.783
330.300	16.436	841.106	633.468
331.314	16.473	840.627	633.188
332.329	16.346	839.940	632.139
333.343	16.477	839.102	631.943
334.358	16.377	838.805	631.289
335.373	16.596	837.849	631.333
336.387	16.585	837.417	630.911
337.402	16.588	836.650	630.289
338.416	16.578	836.518	630.095
339.431	16.615	835.951	629.749
340.446	16.613	835.422	629.287
341.460	16.433	835.114	628.330
342.475	16.672	834.399	628.626
343.489	16.760	833.679	628.353
344.504	16.709	833.285	627.811
345.519	16.855	832.610	627.788
346.533	16.903	831.874	627.357
347.548	16.796	831.797	626.846
348.562	16.794	831.254	626.374
349.577	16.836	830.643	626.014
350.592	16.849	829.809	625.376
351.606	16.686	829.699	624.637
352.621	16.659	829.189	624.098
353.635	16.713	828.863	623.997
354.650	16.714	828.446	623.632
355.665	16.645	828.588	623.431
356.679	16.920	827.142	623.297
357.694	16.955	826.930	623.210
358.708	16.959	826.334	622.722
359.723	16.885	825.932	622.092
360.738	16.799	825.511	621.406
361.752	16.957	824.771	621.371
362.767	16.863	824.534	620.794
363.781	16.812	824.131	620.249
364.796	17.093	822.936	620.320
365.810	16.910	822.998	619.643
366.825	17.086	822.152	619.597
367.840	17.122	822.102	619.633
368.854	17.111	821.676	619.217
369.869	17.197	821.102	619.044
370.883	17.228	820.527	618.670
371.898	17.130	820.182	617.999
372.913	17.227	819.127	617.499
373.927	17.240	818.161	616.764
374.942	17.285	818.338	617.007
375.956	17.211	817.679	616.186
376.971	17.262	817.105	615.883
377.986	17.238	816.548	615.322
379.000	17.377	816.000	615.359
380.015	17.415	815.366	614.963
381.029	17.298	815.138	614.315
382.044	17.239	814.706	613.720
383.059	17.328	813.854	613.345
384.073	17.421	813.375	613.265
385.088	17.601	812.604	613.277
386.102	17.419	812.630	612.590
387.117	17.214	812.086	611.388
388.132	17.361	811.427	611.365
389.146	17.351	810.996	610.951
390.161	17.499	810.522	611.072
391.175	17.448	810.101	610.516
392.190	17.476	809.765	610.309
393.205	17.448	809.259	609.773
394.219	17.492	809.035	609.707
395.234	17.638	808.018	609.409
396.248	17.546	807.703	608.791
397.263	17.460	807.299	608.124
398.278	17.456	806.759	607.648
399.292	17.459	806.660	607.531
400.307	17.490	806.304	607.320
401.321	17.537	805.435	606.780
402.336	17.427	805.244	606.189
403.350	17.492	804.935	606.136
404.365	17.539	804.219	605.711
405.380	17.452	803.914	605.118
406.394	17.569	803.420	605.108
407.409	17.650	802.664	604.770
408.423	17.691	802.233	604.539
409.438	17.677	801.853	604.151
410.453	17.767	801.395	604.068
411.467	17.921	800.904	604.192
412.482	17.849	800.387	603.494
413.496	17.883	800.026	603.287
414.511	17.941	799.914	603.355
415.526	17.876	799.436	602.711
416.540	17.805	798.814	601.940
417.555	17.834	798.840	602.008
418.569	17.841	798.118	601.436
419.584	17.928	797.306	601.075
420.599	17.933	797.197	600.959
421.613	110.672	1292.082	1470.328
422.628	95.249	1364.147	1470.420
