DTS Sentinel unit serial number:	SN413079Multiplexer serial number:	ORYXHardware model number:	OX4-SRSoftware version number:	ORYX F/W v4.00 Oryx Data Collector v3.7.2.0data status	okinstallation	princeton_trtdifferential loss correction	single-endedforward channel	channel 3reverse channel	N/Adate	2019/09/19time	04:56:35forward acquisition time	60.00reverse acquisition time	0.00gamma	496.2192k internal	0.2348k external	0.2348temperature offset calibration	0.9992default loss term (dB/km)	0.3790temperature slope calibration	1.0000multiplexer offset coefficient	1.0000multiplexer slope coefficient	1.0000fibre end	0.00T internal ref (°C)	19.75T ext. ref 1 (°C)	0.61T ext. ref 2 (°C)	13.05length (m)	temperature (°C)	Stokes	anti-Stokes-747.200	8.149	0.269	0.202
-746.185	-128.735	-0.154	0.022
-745.171	1.171	-0.235	-0.168
-744.156	-53.358	0.252	0.115
-743.142	-109.271	0.116	0.025
-742.127	53.912	-0.168	0.161
-741.112	275.734	-0.259	0.460
-740.098	-122.913	-0.148	0.024
-739.083	76.206	-0.044	-0.047
-738.069	17.487	-0.169	0.134
-737.054	-33.639	-0.295	0.162
-736.039	212.912	-0.269	-0.424
-735.025	-152.197	0.355	-0.026
-734.010	-200.000	-0.048	-0.269
-732.996	-157.011	-0.341	0.021
-731.981	520.719	-0.072	0.168
-730.966	-124.307	-0.192	0.030
-729.952	113.088	-0.124	0.150
-728.937	-174.127	-0.289	-0.008
-727.923	-62.447	0.109	0.045
-726.908	104.514	-0.231	-0.272
-725.894	-37.244	0.184	-0.098
-724.879	421.972	-0.076	-0.164
-723.864	7.822	-0.280	-0.209
-722.850	4.826	-0.262	0.192
-721.835	112.092	0.061	-0.073
-720.821	234.169	-0.149	-0.245
-719.806	732.991	-0.060	-0.161
-718.791	-36.632	-0.290	-0.155
-717.777	8.977	-0.127	-0.095
-716.762	-22.762	0.169	-0.102
-715.748	-200.000	-0.018	0.126
-714.733	628.722	0.110	0.276
-713.718	-145.343	-0.269	0.024
-712.704	96.188	0.281	-0.321
-711.689	49.907	0.050	-0.047
-710.675	800.000	0.059	0.252
-709.660	96.735	-0.215	0.245
-708.645	335.391	-0.108	-0.208
-707.631	-47.737	0.149	0.072
-706.616	161.038	0.043	-0.060
-705.602	27.317	-0.189	-0.159
-704.587	57.046	-0.119	-0.115
-703.572	-192.313	-0.536	0.005
-702.558	-37.403	-0.216	-0.115
-701.543	4.289	0.182	-0.133
-700.529	-105.906	-0.328	0.074
-699.514	-200.000	-0.025	-0.204
-698.499	662.851	0.067	-0.171
-697.485	68.984	-0.155	-0.159
-696.470	37.135	0.197	-0.174
-695.456	46.241	0.092	-0.085
-694.441	800.000	-0.057	0.226
-693.426	355.929	-0.064	0.128
-692.412	-200.000	-0.046	-0.333
-691.397	-200.000	0.021	-0.255
-690.383	63.800	0.464	-0.464
-689.368	-46.399	-0.298	-0.146
-688.354	525.208	-0.039	-0.092
-687.339	-97.119	-0.272	0.071
-686.324	-141.428	-0.180	0.018
-685.310	137.665	0.097	0.127
-684.295	-116.717	-0.239	0.044
-683.281	-69.799	0.203	-0.077
-682.266	-71.500	-0.090	-0.034
-681.251	192.680	-0.094	0.141
-680.237	-55.516	0.093	0.042
-679.222	65.878	-0.053	-0.054
-678.208	-145.160	-0.291	0.026
-677.193	9.056	-0.033	-0.025
-676.178	268.643	-0.075	0.132
-675.164	83.849	0.048	-0.052
-674.149	-83.584	-0.085	0.027
-673.135	800.000	0.152	-0.458
-672.120	65.305	-0.176	-0.178
-671.105	-21.954	-0.363	-0.220
-670.091	-85.674	-0.284	0.088
-669.076	-200.000	0.076	0.370
-668.062	800.000	-0.125	-0.361
-667.047	-200.000	0.044	-0.314
-666.032	-178.349	0.369	-0.009
-665.018	-67.767	-0.428	-0.167
-664.003	-200.000	0.023	0.113
-662.989	-151.045	0.137	0.010
-661.974	-48.037	0.254	-0.122
-660.959	136.095	-0.299	-0.389
-659.945	581.570	-0.085	-0.209
-658.930	800.000	0.110	-0.389
-657.916	-42.834	-0.132	0.067
-656.901	-158.414	-0.324	-0.019
-655.886	226.320	-0.168	0.272
-654.872	118.198	0.082	-0.100
-653.857	40.545	-0.117	-0.105
-652.843	-200.000	0.108	0.000
-651.828	-41.776	0.119	-0.061
-650.814	-200.000	-0.038	-0.174
-649.799	232.440	0.165	-0.269
-648.784	287.981	-0.043	-0.077
-647.770	-101.155	0.161	-0.039
-646.755	800.000	-0.098	-0.348
-645.741	800.000	0.129	-0.374
-644.726	-84.627	-0.302	0.095
-643.711	-144.671	0.295	0.027
-642.697	-200.000	-0.006	0.228
-641.682	-101.372	-0.098	-0.024
-640.668	-200.000	-0.082	0.470
-639.653	229.284	0.104	0.169
-638.638	12.369	-0.296	-0.227
-637.624	-75.828	-0.115	-0.041
-636.609	-10.682	-0.050	-0.033
-635.595	31.715	-0.075	-0.064
-634.580	-200.000	-0.049	-0.263
-633.565	107.502	0.054	0.064
-632.551	800.000	-0.015	0.041
-631.536	-152.877	-0.318	-0.022
-630.522	-200.000	-0.003	-0.017
-629.507	-139.655	-0.077	0.008
-628.492	-99.351	0.295	0.074
-627.478	55.522	-0.224	-0.216
-626.463	-137.038	0.141	0.016
-625.449	-200.000	0.068	0.370
-624.434	-89.130	0.227	-0.067
-623.419	341.212	-0.155	-0.301
-622.405	-28.888	-0.065	-0.037
-621.390	-200.000	-0.051	-0.348
-620.376	-44.837	0.103	-0.051
-619.361	-200.000	-0.004	-0.032
-618.346	-200.000	-0.064	-0.282
-617.332	-112.628	0.379	-0.075
-616.317	-32.508	-0.204	0.113
-615.303	534.567	0.117	0.275
-614.288	-114.061	-0.091	0.018
-613.273	37.021	0.267	-0.235
-612.259	-64.353	-0.184	0.075
-611.244	-75.697	-0.344	0.121
-610.230	-63.962	-0.301	-0.122
-609.215	800.000	-0.061	-0.250
-608.201	-200.000	0.690	0.002
-607.186	128.898	-0.123	-0.156
-606.171	-50.942	0.127	0.059
-605.157	-200.000	0.049	-0.313
-604.142	-69.606	0.467	-0.178
-603.128	-139.546	-0.130	-0.014
-602.113	-200.000	0.006	0.062
-601.098	-200.000	0.034	-0.354
-600.084	-144.373	-0.193	-0.018
-599.069	-200.000	-0.010	0.141
-598.055	141.780	0.141	0.185
-597.040	-0.039	-0.108	-0.076
-596.025	-200.000	-0.021	-0.331
-595.011	596.641	0.007	0.018
-593.996	379.920	0.118	0.241
-592.982	-123.936	0.141	-0.022
-591.967	-28.808	-0.338	0.193
-590.952	-86.944	0.213	-0.064
-589.938	-10.652	0.132	0.087
-588.923	27.526	0.116	0.097
-587.909	-69.393	0.157	0.060
-586.894	-200.000	-0.060	-0.275
-585.879	152.211	-0.021	0.029
-584.865	-153.217	-0.252	-0.017
-583.850	-141.963	0.222	0.022
-582.836	-70.823	0.304	-0.114
-581.821	45.668	0.046	-0.043
-580.806	-200.000	-0.027	-0.309
-579.792	96.998	-0.079	-0.090
-578.777	176.523	0.199	0.287
-577.763	-147.012	0.194	0.016
-576.748	-123.874	0.189	-0.030
-575.733	-200.000	-0.018	0.137
-574.719	-16.905	-0.060	-0.038
-573.704	-58.888	0.329	-0.141
-572.690	34.625	-0.127	0.110
-571.675	146.635	-0.190	0.253
-570.661	-1.475	0.395	0.277
-569.646	51.494	-0.258	-0.243
-568.631	239.906	-0.062	-0.102
-567.617	392.236	-0.035	0.072
-566.602	293.596	0.093	0.169
-565.588	-200.000	-0.004	0.096
-564.573	-200.000	-0.036	0.213
-563.558	-200.000	-0.010	0.305
-562.544	-53.570	-0.108	0.049
-561.529	317.650	-0.257	-0.482
-560.515	440.430	0.096	0.208
-559.500	-200.000	-0.080	-0.424
-558.485	-200.000	-0.008	0.131
-557.471	233.941	-0.080	0.131
-556.456	377.666	-0.067	-0.135
-555.442	122.859	-0.133	-0.165
-554.427	-51.127	0.075	-0.035
-553.412	339.284	0.076	-0.147
-552.398	170.413	-0.149	0.212
-551.383	-155.388	0.157	0.010
-550.369	42.964	-0.181	-0.164
-549.354	-119.349	-0.045	-0.008
-548.339	-40.874	0.145	-0.074
-547.325	9.434	0.223	-0.167
-546.310	461.398	-0.089	-0.197
-545.296	-200.000	0.006	-0.124
-544.281	122.475	-0.087	0.107
-543.266	33.448	-0.186	0.160
-542.252	69.075	0.180	0.184
-541.237	5.437	-0.160	0.117
-540.223	-101.884	0.277	0.066
-539.208	-164.952	0.118	0.005
-538.193	-200.000	0.013	-0.138
-537.179	-80.175	-0.321	-0.106
-536.164	597.965	-0.035	0.086
-535.150	-11.357	-0.023	-0.015
-534.135	800.000	0.052	-0.147
-533.121	519.729	0.046	0.106
-532.106	-115.207	-0.029	0.005
-531.091	-200.000	-0.041	0.222
-530.077	-52.002	0.177	-0.082
-529.062	-46.317	-0.356	-0.174
-528.048	800.000	-0.057	-0.189
-527.033	-53.062	-0.117	0.053
-526.018	-100.541	-0.162	0.040
-525.004	788.603	-0.009	0.024
-523.989	-38.574	0.185	-0.097
-522.975	-17.124	-0.175	-0.109
-521.960	-200.000	0.004	0.246
-520.945	-16.218	0.124	0.078
-519.931	-117.187	-0.072	0.013
-518.916	-200.000	0.007	-0.046
-517.902	669.058	-0.125	0.320
-516.887	-96.400	-0.293	0.077
-515.872	-76.489	-0.185	0.064
-514.858	800.000	0.032	-0.102
-513.843	-93.206	-0.179	0.049
-512.829	472.824	-0.094	0.209
-511.814	107.445	-0.110	-0.130
-510.799	-140.588	-0.221	-0.023
-509.785	117.846	0.176	-0.215
-508.770	-138.341	0.167	-0.018
-507.756	-59.700	-0.218	-0.092
-506.741	226.226	0.038	-0.061
-505.726	-70.903	-0.155	0.058
-504.712	800.000	-0.136	0.383
-503.697	-200.000	0.037	0.184
-502.683	506.069	0.148	-0.340
-501.668	-200.000	-0.013	-0.303
-500.653	800.000	0.111	0.306
-499.639	-40.391	-0.335	0.172
-498.624	-200.000	0.079	-0.364
-497.610	-95.273	0.089	-0.024
-496.595	-94.861	0.058	0.016
-495.581	800.000	-0.060	0.224
-494.566	-135.056	0.162	-0.019
-493.551	15.266	0.116	-0.090
-492.537	168.270	0.073	-0.103
-491.522	800.000	0.095	0.354
-490.508	156.750	0.145	-0.198
-489.493	-200.000	0.026	0.140
-488.478	47.093	0.145	0.133
-487.464	-200.000	0.027	-0.322
-486.449	-133.581	0.512	0.063
-485.435	165.413	-0.243	-0.339
-484.420	-106.612	-0.243	-0.054
-483.405	-129.174	0.284	-0.039
-482.391	-133.280	-0.196	-0.024
-481.376	17.469	-0.196	0.154
-480.362	5.424	-0.129	0.094
-479.347	85.840	0.057	0.063
-478.332	224.191	0.107	0.171
-477.318	-81.228	0.179	0.058
-476.303	-165.014	-0.519	-0.023
-475.289	101.633	-0.076	0.088
-474.274	164.843	-0.148	-0.206
-473.259	-200.000	0.033	0.150
-472.245	89.999	-0.075	-0.083
-471.230	-200.000	0.021	0.097
-470.216	12.280	0.270	0.206
-469.201	-112.419	-0.087	0.017
-468.186	131.297	0.169	0.215
-467.172	374.608	-0.132	0.266
-466.157	3.978	-0.258	0.186
-465.143	-200.000	-0.035	-0.166
-464.128	800.000	-0.016	0.059
-463.113	-149.172	-0.184	-0.015
-462.099	-178.646	0.399	-0.009
-461.084	-200.000	-0.005	-0.189
-460.070	-200.000	0.004	-0.026
-459.055	-130.234	-0.188	0.025
-458.040	295.570	0.078	0.142
-457.026	-84.022	-0.216	-0.068
-456.011	-148.247	0.155	-0.013
-454.997	-200.000	0.009	-0.077
-453.982	800.000	0.036	-0.100
-452.968	-200.000	-0.009	0.325
-451.953	143.927	0.088	0.116
-450.938	-88.314	-0.210	0.062
-449.924	-27.851	-0.271	-0.155
-448.909	-44.890	0.243	-0.119
-447.895	-189.307	-0.318	-0.004
-446.880	-94.143	-0.351	0.095
-445.865	140.551	-0.188	0.246
-444.851	-9.167	-0.349	0.230
-443.836	800.000	0.144	-0.464
-442.822	-82.625	-0.270	-0.086
-441.807	-8.237	-0.184	0.122
-440.792	18.635	-0.037	-0.030
-439.778	179.468	0.323	0.468
-438.763	10.996	0.281	0.212
-437.749	-5.658	-0.298	-0.201
-436.734	96.588	0.160	-0.181
-435.719	-200.000	-0.030	0.167
-434.705	-120.679	0.416	-0.069
-433.690	425.048	0.016	0.034
-432.676	-163.193	0.359	-0.017
-431.661	437.973	-0.122	-0.263
-430.646	-94.204	0.222	0.060
-429.632	-77.625	-0.199	0.068
-428.617	66.370	-0.225	-0.226
-427.603	76.401	-0.058	-0.060
-426.588	-55.698	-0.251	-0.111
-425.573	-174.297	-0.302	0.009
-424.559	-200.000	0.018	-0.280
-423.544	77.043	0.204	-0.214
-422.530	-56.854	-0.283	0.124
-421.515	-52.041	-0.259	-0.118
-420.500	-170.158	0.183	0.006
-419.486	-188.998	0.337	-0.004
-418.471	-135.870	-0.130	0.015
-417.457	110.092	-0.158	-0.187
-416.442	-102.370	-0.273	-0.065
-415.428	10.563	0.038	0.028
-414.413	800.000	-0.019	-0.066
-413.398	-200.000	0.046	-0.317
-412.384	56.394	0.245	0.235
-411.369	-87.627	-0.140	0.042
-410.355	-200.000	0.007	0.090
-409.340	5.475	0.196	0.143
-408.325	800.000	-0.076	0.316
-407.311	225.189	-0.180	-0.287
-406.296	61.949	0.069	0.068
-405.282	32.353	0.172	-0.146
-404.267	678.334	0.111	0.284
-403.252	-1.846	0.225	0.156
-402.238	-200.000	-0.025	-0.136
-401.223	-109.769	0.191	0.040
-400.209	62.601	0.236	-0.233
-399.194	-28.478	-0.166	-0.094
-398.179	-200.000	0.085	-0.468
-397.165	603.919	-0.085	0.208
-396.150	-200.000	0.012	0.142
-395.136	624.425	-0.044	-0.109
-394.121	800.000	0.044	0.172
-393.106	-175.720	-0.252	0.007
-392.092	-158.777	0.110	-0.006
-391.077	108.366	0.189	-0.222
-390.063	136.271	0.064	-0.082
-389.048	-117.839	-0.458	0.081
-388.033	332.094	0.272	0.518
-387.019	-21.848	-0.163	-0.098
-386.004	229.443	0.082	-0.132
-384.990	397.244	-0.089	-0.184
-383.975	314.737	-0.137	0.255
-382.960	190.991	0.153	0.227
-381.946	368.023	-0.074	-0.148
-380.931	184.980	0.047	-0.068
-379.917	514.276	-0.074	-0.171
-378.902	197.644	0.080	-0.120
-377.888	42.257	0.171	0.153
-376.873	-6.343	0.211	-0.142
-375.858	-61.568	0.043	-0.018
-374.844	202.557	0.013	0.020
-373.829	436.755	0.172	0.369
-372.815	-88.749	0.209	0.061
-371.800	-200.000	0.017	-0.261
-370.785	-200.000	-0.057	-0.518
-369.771	-200.000	0.008	0.082
-368.756	-200.000	0.040	0.283
-367.742	-43.669	0.375	-0.186
-366.727	-12.161	-0.259	-0.167
-365.712	-40.597	0.059	-0.030
-364.698	189.171	-0.101	0.149
-363.683	-200.000	0.013	-0.355
-362.669	58.660	-0.068	-0.066
-361.654	-27.984	-0.251	0.143
-360.639	-140.885	0.268	0.027
-359.625	184.057	-0.113	-0.164
-358.610	89.351	-0.199	-0.218
-357.596	-68.961	0.226	0.086
-356.581	24.610	-0.039	-0.031
-355.566	535.878	0.022	0.051
-354.552	-200.000	-0.014	-0.097
-353.537	-104.557	-0.093	0.021
-352.523	288.559	0.067	-0.120
-351.508	-117.821	-0.129	-0.023
-350.493	-95.249	-0.193	0.051
-349.479	-200.000	-0.000	0.115
-348.464	99.316	-0.231	0.263
-347.450	208.407	0.275	0.423
-346.435	-84.859	-0.100	-0.031
-345.420	-73.758	-0.084	0.030
-344.406	800.000	-0.078	-0.301
-343.391	267.037	-0.106	0.182
-342.377	800.000	0.050	-0.175
-341.362	-47.339	-0.223	-0.107
-340.348	20.670	-0.173	-0.138
-339.333	-162.003	-0.035	-0.002
-338.318	69.304	0.204	-0.207
-337.304	-10.834	-0.176	-0.115
-336.289	253.795	0.081	0.136
-335.275	-65.696	0.220	-0.087
-334.260	9.302	0.124	-0.092
-333.245	-49.609	-0.189	0.088
-332.231	61.474	0.079	0.077
-331.216	-95.131	0.129	-0.034
-330.202	297.569	0.064	0.115
-329.187	57.408	-0.125	0.120
-328.172	79.516	0.229	0.241
-327.158	-184.232	0.276	0.004
-326.143	-88.687	-0.283	-0.083
-325.129	60.163	-0.179	-0.174
-324.114	-4.184	0.093	-0.064
-323.099	183.639	-0.063	0.092
-322.085	-27.442	0.164	-0.094
-321.070	-200.000	0.012	-0.162
-320.056	-88.453	0.048	-0.014
-319.041	-200.000	-0.041	0.216
-318.026	277.942	-0.089	-0.155
-317.012	404.307	0.056	-0.116
-315.997	-57.195	0.258	0.112
-314.983	800.000	0.074	-0.303
-313.968	-130.485	0.337	-0.045
-312.953	-200.000	-0.007	0.209
-311.939	48.854	0.296	0.273
-310.924	-25.783	0.115	0.066
-309.910	302.817	-0.051	-0.093
-308.895	203.372	0.188	0.285
-307.880	-200.000	-0.033	0.292
-306.866	-200.000	-0.002	-0.153
-305.851	39.919	-0.134	-0.118
-304.837	800.000	0.024	-0.067
-303.822	-69.594	-0.179	0.067
-302.807	-30.631	0.132	-0.073
-301.793	-129.244	0.194	-0.027
-300.778	-146.860	0.166	-0.014
-299.764	-200.000	0.010	-0.052
-298.749	322.687	0.026	-0.049
-297.735	241.057	-0.086	-0.141
-296.720	-2.066	-0.092	0.064
-295.705	-200.000	0.064	-0.290
-294.691	800.000	-0.048	0.204
-293.676	181.681	-0.099	-0.143
-292.662	-80.723	0.126	0.041
-291.647	-177.499	-0.062	0.001
-290.632	1.415	0.427	-0.301
-289.618	-200.000	-0.083	0.428
-288.603	155.205	0.092	0.124
-287.589	-200.000	-0.007	-0.099
-286.574	663.641	-0.090	0.227
-285.559	252.894	0.100	0.167
-284.545	-138.392	0.362	0.039
-283.530	800.000	-0.086	-0.282
-282.516	240.596	-0.042	-0.068
-281.501	79.131	0.355	-0.373
-280.486	-200.000	0.049	-0.213
-279.472	800.000	0.085	0.238
-278.457	-200.000	-0.034	0.171
-277.443	31.830	-0.037	0.032
-276.428	-27.694	0.108	0.062
-275.413	22.617	0.169	-0.136
-274.399	-200.000	-0.002	-0.317
-273.384	-200.000	0.006	-0.075
-272.370	-144.705	0.286	-0.026
-271.355	-104.941	-0.341	0.077
-270.340	-200.000	0.002	0.120
-269.326	185.477	0.159	-0.232
-268.311	42.651	-0.057	-0.051
-267.297	604.106	0.091	0.222
-266.282	157.772	0.131	-0.178
-265.267	112.781	-0.257	0.305
-264.253	52.796	0.166	0.156
-263.238	108.360	-0.310	0.362
-262.224	-200.000	-0.030	-0.268
-261.209	-117.813	0.363	-0.064
-260.195	5.978	-0.153	-0.111
-259.180	-50.873	0.138	0.063
-258.165	22.477	0.048	0.038
-257.151	-200.000	-0.066	0.422
-256.136	101.885	-0.208	0.238
-255.122	-112.986	-0.120	0.023
-254.107	428.867	0.152	0.321
-253.092	-68.236	-0.210	-0.080
-252.078	656.405	-0.041	-0.103
-251.063	624.688	0.092	0.226
-250.049	111.804	-0.135	-0.159
-249.034	-63.614	-0.151	0.061
-248.019	800.000	-0.067	-0.240
-247.005	-165.969	-0.266	-0.011
-245.990	692.678	-0.053	0.135
-244.976	-78.218	-0.102	0.034
-243.961	-51.195	-0.160	0.074
-242.946	-51.764	0.175	-0.080
-241.932	99.202	0.191	0.216
-240.917	-200.000	0.025	0.182
-239.903	-200.000	-0.002	0.078
-238.888	117.929	-0.147	-0.177
-237.873	800.000	-0.091	-0.260
-236.859	50.484	0.153	0.141
-235.844	-200.000	-0.017	-0.192
-234.830	800.000	0.075	-0.248
-233.815	-179.571	-0.279	0.006
-232.800	12.088	0.257	0.194
-231.786	-125.229	-0.253	0.038
-230.771	43.630	-0.141	0.127
-229.757	-73.512	0.318	0.114
-228.742	136.091	0.100	0.127
-227.727	-39.992	0.114	-0.058
-226.713	-78.902	0.140	0.047
-225.698	-30.811	-0.462	0.256
-224.684	-82.099	0.206	0.066
-223.669	-200.000	0.018	-0.248
-222.655	-28.536	0.227	0.128
-221.640	-90.437	-0.060	-0.017
-220.625	300.705	0.145	-0.263
-219.611	-51.976	-0.112	-0.051
-218.596	-31.244	0.319	-0.176
-217.582	405.221	-0.079	0.162
-216.567	-153.743	0.212	0.014
-215.552	-117.512	-0.341	-0.060
-214.538	131.393	0.094	0.118
-213.523	-200.000	0.044	0.227
-212.509	-128.572	-0.363	-0.050
-211.494	-64.701	0.318	-0.126
-210.479	25.296	-0.053	0.043
-209.465	20.122	0.116	0.092
-208.450	800.000	-0.115	0.409
-207.436	-46.573	0.068	-0.033
-206.421	514.224	-0.068	0.154
-205.406	93.274	-0.175	0.193
-204.392	-4.210	0.230	-0.155
-203.377	-101.604	-0.043	-0.010
-202.363	68.345	-0.249	0.249
-201.348	253.064	0.104	-0.174
-200.333	273.609	-0.130	0.224
-199.319	-59.602	-0.346	0.145
-198.304	176.141	0.114	-0.162
-197.290	-125.356	-0.181	0.027
-196.275	28.380	-0.246	0.203
-195.260	-200.000	0.022	0.105
-194.246	-174.640	-0.160	0.004
-193.231	54.296	-0.233	-0.219
-192.217	249.340	-0.192	0.318
-191.202	-114.854	-0.065	0.012
-190.187	800.000	-0.090	0.261
-189.173	584.497	-0.189	-0.453
-188.158	-109.849	0.106	0.022
-187.144	-67.331	0.185	0.071
-186.129	140.436	0.156	0.201
-185.114	-93.588	-0.238	0.064
-184.100	173.499	0.023	0.032
-183.085	-200.000	-0.045	0.199
-182.071	-109.387	-0.194	0.040
-181.056	81.742	0.133	0.141
-180.042	-200.000	0.018	-0.212
-179.027	3.045	-0.249	0.177
-178.012	-113.350	0.234	-0.045
-176.998	47.166	0.148	0.135
-175.983	800.000	0.034	0.130
-174.969	293.325	-0.058	0.103
-173.954	800.000	0.078	-0.268
-172.939	-64.407	0.265	0.105
-171.925	-20.957	0.011	-0.007
-170.910	-12.666	-0.338	-0.215
-169.896	-164.462	-0.200	-0.009
-168.881	58.264	-0.083	0.079
-167.866	-137.654	0.372	0.041
-166.852	-3.275	-0.308	0.210
-165.837	63.783	0.190	-0.186
-164.823	-60.527	-0.051	-0.021
-163.808	-113.622	0.211	0.040
-162.793	-200.000	-0.026	-0.135
-161.779	-81.346	0.217	-0.070
-160.764	160.427	0.060	-0.082
-159.750	-192.306	0.112	-0.001
-158.735	800.000	-0.044	0.184
-157.720	-200.000	-0.022	0.176
-156.706	-44.213	0.401	-0.197
-155.691	67.166	-0.135	0.135
-154.677	-200.000	-0.041	-0.189
-153.662	-200.000	0.054	-0.293
-152.647	-36.953	0.219	0.115
-151.633	34.749	-0.072	0.062
-150.618	57.525	0.358	-0.342
-149.604	106.356	0.237	0.274
-148.589	25.766	-0.065	0.053
-147.574	-200.000	0.021	-0.168
-146.560	-200.000	0.004	-0.121
-145.545	-82.674	-0.255	-0.081
-144.531	192.899	0.106	0.157
-143.516	278.193	0.225	0.390
-142.502	-171.267	-0.313	0.010
-141.487	250.928	0.202	0.335
-140.472	57.631	0.246	-0.235
-139.458	-103.197	0.294	-0.068
-138.443	-200.000	0.024	0.252
-137.429	-88.469	-0.237	-0.069
-136.414	-200.000	-0.013	0.087
-135.399	-7.325	0.252	-0.166
-134.385	409.383	0.154	0.319
-133.370	-200.000	0.014	0.129
-132.356	-104.123	-0.262	0.060
-131.341	-200.000	-0.007	0.227
-130.326	-200.000	-0.026	0.150
-129.312	372.578	-0.044	0.087
-128.297	-97.506	0.480	0.122
-127.283	633.628	0.062	-0.153
-126.268	-200.000	-0.006	-0.410
-125.253	35.133	0.199	-0.170
-124.239	176.639	0.168	-0.238
-123.224	-81.956	0.255	0.081
-122.210	67.182	0.053	0.053
-121.195	-19.032	0.167	0.101
-120.180	-200.000	-0.042	-0.263
-119.166	143.301	0.221	-0.287
-118.151	20.109	0.029	0.023
-117.137	-64.312	0.286	-0.113
-116.122	-119.782	0.068	-0.011
-115.107	800.000	0.089	-0.348
-114.093	-200.000	0.020	-0.176
-113.078	230.884	0.082	-0.131
-112.064	428.856	0.168	-0.354
-111.049	-158.368	-0.260	0.015
-110.034	-94.873	-0.242	-0.064
-109.020	800.000	0.065	0.221
-108.005	139.704	-0.091	0.117
-106.991	-114.241	0.190	0.036
-105.976	-152.094	0.160	0.011
-104.962	-200.000	-0.028	0.324
-103.947	-45.934	0.110	-0.053
-102.932	-200.000	-0.042	0.208
-101.918	-200.000	0.032	0.225
-100.903	800.000	0.162	-0.517
-99.889	-45.037	0.399	-0.193
-98.874	1.649	0.284	-0.199
-97.859	333.592	0.136	0.257
-96.845	7.947	-0.349	-0.255
-95.830	-200.000	-0.009	0.070
-94.816	229.352	0.169	-0.269
-93.801	583.789	-0.025	-0.059
-92.786	-73.622	0.193	-0.068
-91.772	-200.000	0.008	0.139
-90.757	800.000	0.078	0.296
-89.743	-82.957	-0.214	0.067
-88.728	-84.763	0.256	-0.079
-87.713	-200.000	0.078	0.398
-86.699	37.680	-0.124	0.107
-85.684	-200.000	-0.029	0.209
-84.670	-23.008	-0.106	-0.062
-83.655	-108.429	-0.082	0.017
-82.640	-90.911	-0.162	0.045
-81.626	-95.486	-0.185	0.048
-80.611	265.981	0.140	-0.237
-79.597	11.595	-0.130	0.097
-78.582	-107.627	0.163	0.035
-77.567	-200.000	-0.032	0.245
-76.553	0.318	-0.134	-0.093
-75.538	-109.030	-0.182	-0.038
-74.524	-24.074	-0.199	-0.116
-73.509	-85.938	-0.243	0.073
-72.494	-133.658	-0.254	-0.031
-71.480	3.546	0.309	0.219
-70.465	-59.257	0.338	-0.142
-69.451	-97.223	-0.396	-0.100
-68.436	-8.860	0.131	0.086
-67.422	-2.695	-0.134	0.091
-66.407	-66.476	0.281	-0.109
-65.392	-200.000	-0.014	-0.299
-64.378	14.533	0.117	-0.089
-63.363	-200.000	-0.009	-0.118
-62.349	-175.405	-0.184	0.005
-61.334	127.672	-1.148	-1.419
-60.319	-110.773	1.014	0.203
-59.305	246.596	-0.734	-1.204
-58.290	277.628	0.928	1.607
-57.276	560.494	0.679	1.596
-56.261	-200.000	137.541	630.053
-55.246	340.176	1653.969	3138.430
-54.232	136.823	2783.802	3536.064
-53.217	82.186	2181.213	2300.051
-52.203	29.339	1701.412	1405.640
-51.188	22.579	1527.610	1215.558
-50.173	21.121	1507.036	1189.206
-49.159	43.578	1584.511	1409.082
-48.144	39.953	1593.868	1391.872
-47.130	22.568	1543.072	1227.585
-46.115	19.921	1527.288	1196.704
-45.100	19.811	1523.823	1193.185
-44.086	19.823	1521.707	1191.565
-43.071	19.738	1519.867	1189.490
-42.057	19.732	1518.767	1188.542
-41.042	19.732	1517.582	1187.569
-40.027	19.669	1516.152	1185.968
-39.013	19.626	1514.137	1184.047
-37.998	19.639	1513.287	1183.429
-36.984	19.687	1511.813	1182.554
-35.969	19.723	1510.095	1181.414
-34.954	19.706	1508.528	1180.024
-33.940	19.737	1507.471	1179.357
-32.925	19.683	1506.020	1177.807
-31.911	19.733	1504.960	1177.274
-30.896	19.767	1503.514	1176.326
-29.881	19.852	1502.251	1175.872
-28.867	19.745	1501.192	1174.270
-27.852	19.854	1499.385	1173.549
-26.838	19.945	1498.078	1173.098
-25.823	19.872	1496.617	1171.409
-24.809	19.830	1494.962	1169.785
-23.794	19.742	1494.060	1168.437
-22.779	19.759	1492.776	1167.501
-21.765	19.802	1491.735	1166.932
-20.750	19.803	1490.535	1165.955
-19.736	19.806	1489.309	1164.966
-18.721	19.770	1488.573	1164.101
-17.706	19.765	1487.271	1163.008
-16.692	19.769	1486.275	1162.211
-15.677	19.820	1484.758	1161.316
-14.663	19.847	1483.713	1160.633
-13.648	19.726	1483.632	1159.713
-12.633	19.643	1482.317	1158.086
-11.619	19.606	1481.534	1157.178
-10.604	19.782	1479.988	1157.100
-9.590	19.778	1479.948	1156.999
-8.575	19.838	1478.903	1156.540
-7.560	19.744	1478.067	1155.209
-6.546	19.623	1477.557	1153.960
-5.531	19.710	1476.243	1153.463
-4.517	19.658	1475.337	1152.364
-3.502	19.723	1473.838	1151.584
-2.487	19.741	1472.725	1150.789
-1.473	19.759	1471.709	1150.066
-0.458	19.723	1470.820	1149.089
0.556	18.740	1460.273	1136.930
1.571	15.358	1436.274	1096.084
2.586	11.605	1375.209	1025.874
3.600	10.091	1289.996	953.296
4.615	9.276	1246.714	916.586
5.629	8.253	1190.669	869.728
6.644	4.327	1111.655	791.936
7.659	1.021	1078.815	752.079
8.673	0.604	1073.528	746.264
9.688	0.566	1070.214	743.707
10.702	0.633	1068.967	743.108
11.717	0.628	1066.230	741.113
12.731	1.869	1066.290	747.173
13.746	6.793	1072.260	775.519
14.761	13.170	1081.443	813.583
15.775	16.842	1085.199	834.451
16.790	16.971	1084.450	834.434
17.804	15.927	1082.686	827.876
18.819	14.993	1081.015	821.940
19.834	14.620	1078.964	818.478
20.848	14.412	1078.121	816.747
21.863	14.175	1077.781	815.255
22.877	13.912	1076.856	813.195
23.892	13.638	1075.849	811.023
24.907	13.558	1075.377	810.204
25.921	13.713	1074.008	809.856
26.936	13.560	1074.379	809.320
27.950	13.708	1073.189	809.072
28.965	13.682	1072.328	808.224
29.980	13.794	1071.214	807.860
30.994	13.908	1070.417	807.740
32.009	13.871	1069.379	806.706
33.023	13.943	1068.693	806.465
34.038	14.078	1067.535	806.176
35.053	13.885	1067.008	804.771
36.067	13.848	1065.779	803.597
37.082	13.832	1064.558	802.525
38.096	13.925	1064.169	802.609
39.111	13.813	1063.698	801.645
40.126	13.935	1062.728	801.432
41.140	13.746	1061.655	799.638
42.155	13.792	1060.471	798.896
43.169	13.696	1059.875	797.918
44.184	13.681	1058.754	796.928
45.199	13.675	1057.512	795.896
46.213	13.721	1056.570	795.336
47.228	13.743	1055.585	794.630
48.242	13.783	1054.692	794.077
49.257	13.812	1053.851	793.516
50.271	13.756	1052.731	792.333
51.286	13.606	1051.858	790.891
52.301	13.803	1050.961	791.086
53.315	13.932	1049.816	790.768
54.330	13.810	1049.316	789.740
55.344	13.746	1048.687	788.895
56.359	13.790	1047.299	787.989
57.374	13.809	1046.117	787.119
58.388	13.628	1045.443	785.683
59.403	13.788	1044.583	785.729
60.417	13.639	1044.198	784.660
61.432	13.806	1043.516	784.869
62.447	13.715	1042.671	783.735
63.461	13.645	1041.684	782.593
64.476	13.559	1041.006	781.609
65.490	13.520	1039.998	780.598
66.505	13.734	1038.712	780.574
67.520	13.642	1037.802	779.389
68.534	13.640	1037.355	778.973
69.549	13.780	1036.817	779.158
70.563	13.602	1036.090	777.705
71.578	13.667	1035.252	777.313
72.593	13.801	1033.789	776.773
73.607	13.713	1033.356	775.965
74.622	13.620	1032.252	774.637
75.636	13.626	1031.236	773.831
76.651	13.591	1030.969	773.401
77.666	13.572	1029.955	772.481
78.680	13.709	1028.832	772.210
79.695	13.631	1028.799	771.752
80.709	13.674	1028.354	771.551
81.724	13.732	1027.330	770.985
82.739	13.823	1026.162	770.463
83.753	13.750	1025.152	769.300
84.768	13.797	1024.772	769.160
85.782	13.766	1024.079	768.430
86.797	13.847	1023.152	768.040
87.812	13.969	1022.015	767.684
88.826	13.854	1021.201	766.472
89.841	13.830	1020.948	766.105
90.855	13.839	1019.546	765.025
91.870	13.715	1019.446	764.312
92.884	13.949	1018.715	764.776
93.899	13.877	1017.815	763.698
94.914	13.798	1017.217	762.821
95.928	13.984	1016.242	762.875
96.943	13.894	1015.638	761.942
97.957	13.905	1014.951	761.412
98.972	13.910	1013.773	760.481
99.987	13.902	1012.897	759.723
101.001	13.893	1012.459	759.283
102.016	13.763	1011.993	758.272
103.030	13.801	1011.008	757.639
104.045	13.911	1009.490	756.936
105.060	13.947	1008.723	756.462
106.074	13.943	1007.235	755.261
107.089	13.789	1007.183	754.454
108.103	13.694	1006.072	753.125
109.118	13.844	1005.191	753.078
110.133	13.648	1004.555	751.645
111.147	13.763	1003.591	751.376
112.162	13.850	1002.377	750.797
113.176	13.841	1001.768	750.234
114.191	13.878	1000.749	749.570
115.206	13.881	1000.043	748.989
116.220	13.918	998.944	748.268
117.235	13.770	998.326	747.070
118.249	13.864	997.227	746.607
119.264	14.062	996.030	746.530
120.279	13.798	996.007	745.262
121.293	13.712	995.055	744.099
122.308	13.783	993.963	743.535
123.322	13.804	992.818	742.707
124.337	13.712	992.066	741.668
125.352	13.783	990.849	741.008
126.366	13.785	989.703	740.093
127.381	13.695	989.011	739.109
128.395	13.839	987.707	738.711
129.410	13.821	986.454	737.632
130.424	13.773	985.854	736.904
131.439	13.771	984.964	736.162
132.454	13.786	984.022	735.459
133.468	13.768	983.470	734.902
134.483	13.967	982.691	735.138
135.497	13.775	981.998	733.704
136.512	13.800	981.450	733.342
137.527	13.915	980.808	733.302
138.541	13.788	980.175	732.206
139.556	13.845	978.733	731.316
140.570	13.939	978.204	731.269
141.585	13.891	977.592	730.533
142.600	13.849	977.211	729.999
143.614	13.986	975.860	729.527
144.629	14.108	975.321	729.597
145.643	13.960	975.118	728.731
146.658	13.998	973.722	727.788
147.673	14.001	973.128	727.295
148.687	13.963	972.184	726.358
149.702	13.967	970.851	725.313
150.716	13.963	970.142	724.706
151.731	14.091	969.084	724.409
152.746	14.016	968.508	723.585
153.760	14.022	967.606	722.876
154.775	14.045	966.939	722.414
155.789	14.026	965.960	721.534
156.804	13.943	965.454	720.734
157.819	14.084	964.333	720.443
158.833	14.173	963.693	720.285
159.848	14.075	963.291	719.497
160.862	14.223	962.544	719.516
161.877	14.237	961.226	718.526
162.892	14.068	961.287	717.782
163.906	13.815	960.334	715.912
164.921	13.971	959.262	715.724
165.935	14.088	957.972	715.202
166.950	14.048	957.142	714.348
167.964	14.119	955.976	713.717
168.979	14.144	954.764	712.859
169.994	14.012	954.180	711.793
171.008	14.132	953.311	711.593
172.023	14.222	952.175	711.070
173.037	14.231	951.423	710.483
174.052	14.303	950.629	710.131
175.067	14.213	950.130	709.315
176.081	14.234	949.341	708.751
177.096	14.200	948.502	707.920
178.110	14.197	947.402	707.020
179.125	14.320	947.039	707.210
180.140	14.327	946.115	706.489
181.154	14.149	945.781	705.421
182.169	14.327	945.246	705.712
183.183	14.386	944.562	705.392
184.198	14.273	943.797	704.281
185.213	14.435	942.911	704.240
186.227	14.314	942.499	703.360
187.242	14.312	942.286	703.129
188.256	14.340	941.234	702.399
189.271	14.529	940.397	702.509
190.286	14.560	939.423	701.852
191.300	14.469	938.544	700.750
192.315	14.387	938.191	700.081
193.329	14.320	937.724	699.387
194.344	14.319	936.765	698.605
195.359	14.369	936.101	698.259
196.373	14.418	935.598	698.026
197.388	14.499	935.073	697.912
198.402	14.462	934.537	697.294
199.417	14.584	933.767	697.168
200.432	14.656	933.388	697.125
201.446	14.633	932.958	696.647
202.461	14.608	932.645	696.246
203.475	14.712	932.077	696.193
204.490	14.696	931.577	695.694
205.504	14.561	930.737	694.444
206.519	14.637	929.537	693.800
207.534	14.672	928.963	693.455
208.548	14.671	928.504	693.048
209.563	14.582	927.822	692.108
210.577	14.760	926.526	691.818
211.592	14.538	926.510	690.827
212.607	14.541	926.206	690.552
213.621	14.641	925.586	690.442
214.636	14.717	924.607	689.965
215.650	14.667	924.155	689.359
216.665	14.771	923.636	689.340
217.680	14.918	922.319	688.902
218.694	14.814	922.392	688.468
219.709	14.815	921.833	687.993
220.723	14.906	921.144	687.790
221.738	14.882	920.162	686.900
222.753	14.892	919.599	686.459
223.767	14.941	918.307	685.635
224.782	14.887	917.898	685.046
225.796	15.003	917.192	684.933
226.811	14.996	916.702	684.480
227.826	14.883	915.712	683.217
228.840	14.844	915.376	682.749
229.855	14.936	914.851	682.673
230.869	15.064	913.964	682.469
231.884	15.089	913.029	681.812
232.899	15.050	912.334	681.074
233.913	14.803	912.065	679.810
234.928	14.985	911.386	679.983
235.942	15.071	910.460	679.581
236.957	15.033	909.532	678.674
237.972	14.881	909.245	677.784
238.986	14.893	908.420	677.157
240.001	15.052	907.737	677.231
241.015	14.993	907.257	676.577
242.030	15.005	906.621	676.090
243.045	15.119	905.765	675.851
244.059	15.137	905.386	675.584
245.074	15.221	904.624	675.291
246.088	15.127	904.121	674.480
247.103	15.263	903.613	674.588
248.117	15.244	902.788	673.836
249.132	15.252	901.748	673.030
250.147	15.370	901.026	672.905
251.161	15.376	900.461	672.451
252.176	15.204	900.163	671.475
253.190	15.291	899.716	671.432
254.205	15.464	898.973	671.509
255.220	15.557	897.629	670.819
256.234	15.436	897.306	670.035
257.249	15.517	896.342	669.580
258.263	15.474	896.397	669.390
259.278	15.465	895.707	668.779
260.293	15.454	895.292	668.367
261.307	15.541	894.297	667.911
262.322	15.755	893.665	668.232
263.336	15.652	893.416	667.577
264.351	15.681	892.620	667.038
265.366	15.597	891.999	666.183
266.380	15.771	891.108	666.145
267.395	15.802	890.160	665.499
268.409	15.750	889.690	664.884
269.424	15.648	889.250	664.094
270.439	15.804	888.391	664.011
271.453	15.802	887.698	663.425
272.468	15.654	886.915	662.197
273.482	15.682	886.308	661.798
274.497	15.748	885.598	661.467
275.512	15.625	885.692	660.994
276.526	15.739	884.200	660.271
277.541	15.750	883.763	659.929
278.555	15.788	883.122	659.540
279.570	15.729	882.934	659.113
280.585	15.938	882.028	659.196
281.599	15.922	881.140	658.410
282.614	15.839	881.068	657.973
283.628	15.958	880.211	657.741
284.643	16.024	879.663	657.530
285.657	15.920	879.157	656.688
286.672	15.845	878.676	655.980
287.687	16.022	878.426	656.423
288.701	16.004	877.714	655.763
289.716	15.833	877.230	654.677
290.730	15.992	876.292	654.539
291.745	16.113	875.653	654.471
292.760	16.079	874.886	653.710
293.774	16.065	874.367	653.208
294.789	16.046	873.953	652.769
295.803	16.215	872.720	652.443
296.818	16.169	872.210	651.825
297.833	16.127	871.505	651.080
298.847	16.110	871.155	650.695
299.862	16.065	870.609	650.056
300.876	16.196	869.706	649.829
301.891	16.359	869.133	649.973
302.906	16.036	869.231	648.744
303.920	16.311	867.615	648.535
304.935	16.318	867.116	648.134
305.949	16.308	866.618	647.667
306.964	16.228	866.056	646.880
307.979	16.226	865.159	646.148
308.993	16.366	864.941	646.461
310.008	16.269	864.596	645.775
311.022	16.395	863.847	645.642
312.037	16.531	862.834	645.345
313.052	16.417	862.403	644.533
314.066	16.311	862.206	643.923
315.081	16.454	861.034	643.537
316.095	16.461	860.852	643.369
317.110	16.339	860.317	642.447
318.125	16.244	860.283	642.004
319.139	16.625	859.247	642.621
320.154	16.528	858.441	641.594
321.168	16.335	858.346	640.733
322.183	16.389	857.828	640.494
323.197	16.494	857.109	640.301
324.212	16.659	856.479	640.397
325.227	16.518	855.613	639.159
326.241	16.411	855.206	638.396
327.256	16.558	854.642	638.471
328.270	16.492	853.989	637.680
329.285	16.413	853.815	637.194
330.300	16.480	853.035	636.809
331.314	16.465	852.459	636.266
332.329	16.662	851.861	636.502
333.343	16.547	851.201	635.523
334.358	16.620	850.954	635.554
335.373	16.672	850.348	635.242
336.387	16.626	849.612	634.466
337.402	16.639	849.205	634.152
338.416	16.783	848.354	634.000
339.431	16.654	848.171	633.323
340.446	16.675	847.301	632.697
341.460	16.827	846.839	632.863
342.475	16.821	846.023	632.174
343.489	16.880	845.520	631.962
344.504	16.893	844.991	631.562
345.519	16.910	844.623	631.293
346.533	17.003	844.067	631.169
347.548	16.986	843.748	630.810
348.562	16.956	842.727	629.881
349.577	16.849	842.484	629.245
350.592	16.947	842.046	629.225
351.606	16.834	841.659	628.462
352.621	16.858	841.051	628.042
353.635	16.870	840.769	627.819
354.650	16.810	840.365	627.239
355.665	17.170	839.486	627.861
356.679	17.020	838.955	626.854
357.694	16.990	838.656	626.462
358.708	17.010	838.219	626.156
359.723	16.970	837.697	625.562
360.738	16.883	837.036	624.692
361.752	16.942	836.547	624.488
362.767	17.199	835.627	624.692
363.781	17.123	835.588	624.329
364.796	17.242	834.675	624.028
365.810	17.124	834.560	623.454
366.825	17.166	834.101	623.209
367.840	17.171	833.881	623.008
368.854	17.321	833.244	623.030
369.869	17.218	833.310	622.646
370.883	17.189	832.324	621.746
371.898	17.267	831.839	621.615
372.913	17.329	830.945	621.116
373.927	17.285	830.636	620.670
374.942	17.410	830.013	620.608
375.956	17.466	828.946	619.958
376.971	17.350	828.638	619.252
377.986	17.495	828.158	619.367
379.000	17.469	827.919	619.038
380.015	17.516	827.509	618.848
381.029	17.472	827.098	618.326
382.044	17.369	826.192	617.220
383.059	17.615	825.581	617.598
384.073	17.442	825.183	616.621
385.088	17.445	824.530	616.089
386.102	17.526	823.968	615.907
387.117	17.467	823.421	615.230
388.132	17.525	823.191	615.213
389.146	17.480	822.521	614.498
390.161	17.504	822.362	614.409
391.175	17.640	822.087	614.639
392.190	17.687	821.267	614.144
393.205	17.609	820.836	613.487
394.219	17.791	820.161	613.580
395.234	17.528	819.977	612.443
396.248	17.497	819.554	611.963
397.263	17.589	818.695	611.597
398.278	17.554	818.675	611.400
399.292	17.531	817.984	610.748
400.307	17.511	817.999	610.632
401.321	17.668	817.385	610.683
402.336	17.763	817.030	610.704
403.350	17.609	816.625	609.797
404.365	17.828	815.904	609.988
405.380	17.636	815.567	608.995
406.394	17.728	815.082	608.909
407.409	17.835	814.213	608.587
408.423	17.744	813.854	607.939
409.438	18.001	813.544	608.569
410.453	17.834	813.364	607.788
411.467	17.946	813.063	607.908
412.482	17.988	812.035	607.234
413.496	17.969	811.716	606.875
414.511	18.065	811.356	606.892
415.526	18.092	810.860	606.564
416.540	17.931	810.835	605.921
417.555	18.127	810.133	606.038
418.569	18.036	809.690	605.330
419.584	18.058	808.851	604.728
420.599	18.121	808.841	604.889
421.613	115.841	1301.000	1492.515
422.628	100.184	1372.667	1492.569
