DTS Sentinel unit serial number:	SN413079Multiplexer serial number:	ORYXHardware model number:	OX4-SRSoftware version number:	ORYX F/W v4.00 Oryx Data Collector v3.7.2.0data status	okinstallation	princeton_trtdifferential loss correction	single-endedforward channel	channel 3reverse channel	N/Adate	2019/09/12time	13:02:11forward acquisition time	60.00reverse acquisition time	0.00gamma	496.2192k internal	0.2291k external	0.2291temperature offset calibration	1.0039default loss term (dB/km)	0.3790temperature slope calibration	1.0000multiplexer offset coefficient	1.0000multiplexer slope coefficient	1.0000fibre end	0.00T internal ref (°C)	40.94T ext. ref 1 (°C)	2.09T ext. ref 2 (°C)	37.32length (m)	temperature (°C)	Stokes	anti-Stokes-747.200	89.926	-0.248	0.284
-746.185	-200.000	-0.064	0.503
-745.171	-150.466	-0.219	0.017
-744.156	-121.810	0.234	0.040
-743.142	-83.903	0.270	-0.088
-742.127	62.135	0.142	0.145
-741.112	336.867	-0.135	-0.268
-740.098	-115.638	0.173	0.033
-739.083	-200.000	0.040	0.192
-738.069	800.000	-0.035	0.148
-737.054	28.786	0.115	0.099
-736.039	63.225	-0.072	-0.074
-735.025	800.000	0.060	0.230
-734.010	-37.618	0.036	0.020
-732.996	-68.530	-0.146	0.058
-731.981	-86.061	0.048	-0.015
-730.966	-51.837	-0.345	0.165
-729.952	-48.485	-0.203	0.100
-728.937	7.835	-0.167	-0.128
-727.923	-164.568	0.214	0.010
-726.908	190.592	0.096	0.148
-725.894	-122.236	-0.167	-0.028
-724.879	800.000	-0.078	-0.274
-723.864	-118.646	-0.401	0.072
-722.850	128.062	0.125	-0.163
-721.835	-63.531	0.190	-0.080
-720.821	-200.000	0.033	-0.259
-719.806	-39.615	-0.279	-0.149
-718.791	-31.182	-0.107	0.062
-717.777	-115.401	0.053	-0.010
-716.762	-200.000	0.046	0.413
-715.748	-163.486	0.092	-0.004
-714.733	370.579	-0.149	-0.310
-713.718	800.000	0.073	-0.240
-712.704	15.553	-0.187	-0.150
-711.689	-71.348	0.153	-0.059
-710.675	-145.021	0.098	-0.009
-709.660	800.000	-0.054	-0.211
-708.645	800.000	-0.108	-0.330
-707.631	-200.000	0.032	0.186
-706.616	-84.056	-0.271	0.088
-705.602	197.425	-0.231	-0.360
-704.587	-200.000	0.010	-0.048
-703.572	385.098	0.157	-0.332
-702.558	-84.984	0.117	-0.038
-701.543	-122.343	-0.296	-0.049
-700.529	-200.000	0.018	-0.138
-699.514	-113.099	-0.187	0.038
-698.499	39.680	0.099	-0.091
-697.485	-75.919	0.101	-0.037
-696.470	-200.000	-0.002	-0.166
-695.456	99.140	0.139	-0.164
-694.441	84.323	0.091	0.102
-693.426	-200.000	0.004	0.176
-692.412	800.000	-0.104	0.359
-691.397	303.247	0.075	0.142
-690.383	-124.007	-0.239	0.038
-689.368	152.994	-0.137	0.192
-688.354	40.865	0.085	0.078
-687.339	-114.282	0.283	0.056
-686.324	800.000	-0.060	-0.215
-685.310	189.314	-0.230	-0.352
-684.295	-54.516	-0.312	-0.145
-683.281	65.014	-0.157	0.161
-682.266	-77.578	-0.325	-0.115
-681.251	2.766	-0.218	-0.162
-680.237	-152.029	-0.176	0.013
-679.222	-16.528	-0.276	0.179
-678.208	136.286	-0.184	0.245
-677.193	594.451	-0.141	0.357
-676.178	-3.591	0.095	0.068
-675.164	75.971	-0.138	-0.149
-674.149	-200.000	-0.047	0.231
-673.135	-152.378	0.099	0.007
-672.120	-31.729	0.349	-0.200
-671.105	-128.660	-0.293	0.042
-670.091	527.379	-0.099	0.239
-669.076	244.516	-0.074	-0.127
-668.062	135.098	-0.121	0.161
-667.047	-69.301	-0.153	0.060
-666.032	-100.668	-0.053	0.013
-665.018	113.101	0.122	-0.151
-664.003	-200.000	0.005	-0.044
-662.989	-113.748	-0.300	0.060
-661.974	-13.549	-0.355	0.235
-660.959	91.186	0.201	-0.230
-659.945	-200.000	-0.009	-0.212
-658.930	679.773	-0.053	0.141
-657.916	493.069	0.128	0.300
-656.901	-148.807	-0.210	-0.017
-655.886	556.737	-0.125	-0.307
-654.872	800.000	-0.079	0.320
-653.857	-200.000	0.011	-0.060
-652.843	287.035	0.026	0.048
-651.828	318.579	0.081	0.157
-650.814	-200.000	-0.014	-0.334
-649.799	-33.974	-0.269	-0.151
-648.784	76.080	-0.128	-0.138
-647.770	800.000	-0.088	-0.353
-646.755	-112.209	0.201	-0.041
-645.741	681.914	-0.041	0.109
-644.726	-12.292	0.271	-0.181
-643.711	360.376	0.096	-0.197
-642.697	-23.232	-0.259	0.159
-641.682	112.529	0.180	0.222
-640.668	-110.908	0.109	-0.023
-639.653	277.715	-0.062	0.113
-638.638	91.230	0.175	-0.201
-637.624	-36.205	0.148	0.082
-636.609	-106.069	0.215	0.049
-635.595	-114.165	-0.432	0.085
-634.580	691.538	0.110	0.295
-633.565	-200.000	0.026	0.135
-632.551	78.742	0.254	-0.277
-631.536	-122.185	-0.179	-0.030
-630.522	181.905	0.130	-0.195
-629.507	0.324	0.189	0.138
-628.492	181.596	-0.027	0.040
-627.478	-194.525	-0.413	-0.003
-626.463	800.000	-0.092	-0.378
-625.449	34.938	0.221	0.197
-624.434	-18.218	0.177	0.113
-623.419	-200.000	-0.016	-0.139
-622.405	-119.655	-0.270	0.048
-621.390	800.000	-0.028	-0.118
-620.376	-160.596	-0.145	0.008
-619.361	71.577	-0.121	-0.128
-618.346	33.288	-0.076	0.067
-617.332	800.000	0.050	-0.156
-616.317	501.692	0.121	0.285
-615.303	-17.777	-0.196	0.125
-614.288	-57.401	0.091	-0.041
-613.273	-30.085	0.024	0.014
-612.259	-200.000	-0.025	0.340
-611.244	23.229	0.183	0.153
-610.230	-155.879	0.025	0.002
-609.215	-109.602	0.295	-0.063
-608.201	109.668	-0.186	-0.227
-607.186	7.864	-0.327	-0.250
-606.171	-16.628	-0.265	0.171
-605.157	282.401	0.082	0.150
-604.142	553.225	0.087	0.213
-603.128	129.522	-0.167	-0.217
-602.113	81.324	-0.005	-0.006
-601.098	306.089	0.179	0.340
-600.084	-142.040	-0.162	0.016
-599.069	130.439	-0.101	-0.132
-598.055	-64.673	-0.265	-0.109
-597.040	-67.425	-0.162	0.065
-596.025	392.637	-0.067	-0.143
-595.011	-71.727	0.221	0.084
-593.996	-200.000	0.060	-0.394
-592.982	-84.638	0.082	0.026
-591.967	274.316	-0.096	-0.173
-590.952	76.119	0.043	0.046
-589.938	-200.000	-0.032	0.201
-588.923	163.889	-0.129	0.185
-587.909	800.000	0.009	-0.027
-586.894	-63.729	-0.032	-0.013
-585.879	175.887	0.198	0.292
-584.865	-82.916	-0.477	0.157
-583.850	-200.000	-0.035	0.477
-582.836	-6.911	-0.168	0.116
-581.821	30.769	0.286	0.249
-580.806	557.443	-0.083	0.203
-579.792	185.717	0.145	0.219
-578.777	20.579	0.043	-0.036
-577.763	98.866	0.056	-0.065
-576.748	97.761	0.129	-0.151
-575.733	-200.000	-0.014	0.383
-574.719	168.143	0.215	0.311
-573.704	-101.766	-0.126	-0.031
-572.690	-97.631	-0.096	-0.025
-571.675	-149.333	-0.060	-0.005
-570.661	105.439	-0.087	0.105
-569.646	-99.911	-0.051	0.013
-568.631	-28.836	0.113	0.066
-567.617	-57.796	0.286	0.127
-566.602	132.103	0.094	0.124
-565.588	800.000	-0.074	-0.236
-564.573	-39.399	0.105	-0.056
-563.558	48.549	0.200	-0.190
-562.544	619.302	-0.017	0.043
-561.529	-17.004	0.172	-0.111
-560.515	11.668	0.046	0.036
-559.500	-122.651	0.346	-0.057
-558.485	742.130	-0.050	-0.138
-557.471	718.906	-0.079	-0.214
-556.456	-200.000	-0.001	0.023
-555.442	-35.626	-0.050	-0.028
-554.427	-75.248	0.155	-0.056
-553.412	45.354	-0.270	-0.253
-552.398	-94.776	-0.172	0.047
-551.383	135.618	-0.145	0.192
-550.369	-136.075	-0.319	-0.038
-549.354	-200.000	-0.024	0.234
-548.339	-113.713	0.206	-0.041
-547.325	800.000	0.125	-0.434
-546.310	-107.449	-0.284	-0.063
-545.296	-179.152	-0.320	0.007
-544.281	-112.473	0.547	0.111
-543.266	93.268	-0.229	0.263
-542.252	-27.191	-0.187	-0.111
-541.237	-200.000	0.033	0.326
-540.223	84.993	0.191	0.212
-539.208	42.672	-0.099	-0.092
-538.193	6.202	-0.121	0.091
-537.179	81.348	-0.150	0.164
-536.164	243.595	-0.097	-0.165
-535.150	211.089	0.127	-0.203
-534.135	-200.000	0.036	-0.177
-533.121	58.575	-0.067	-0.067
-532.106	800.000	-0.029	0.103
-531.091	-97.439	0.187	-0.049
-530.077	301.388	-0.104	0.196
-529.062	-200.000	0.010	-0.131
-528.048	-108.779	0.077	-0.017
-527.033	-96.802	-0.109	-0.029
-526.018	-200.000	-0.027	0.126
-525.004	800.000	0.009	0.041
-523.989	3.349	-0.111	0.082
-522.975	-105.382	-0.328	0.076
-521.960	800.000	-0.042	-0.173
-520.945	-78.684	0.105	-0.036
-519.931	-51.285	0.352	0.167
-518.916	-96.629	0.054	-0.014
-517.902	-62.084	-0.304	0.129
-516.887	-91.952	-0.038	0.011
-515.872	49.442	0.250	0.238
-514.858	221.235	0.075	0.123
-513.843	-148.025	0.279	-0.024
-512.829	-47.328	0.241	0.119
-511.814	53.089	0.108	0.105
-510.799	14.726	-0.297	-0.235
-509.785	243.658	0.256	0.437
-508.770	-200.000	-0.045	-0.241
-507.756	397.924	0.067	-0.142
-506.741	484.528	0.018	0.041
-505.726	791.960	0.122	-0.341
-504.712	751.417	-0.045	0.123
-503.697	-77.540	-0.143	-0.050
-502.683	27.504	0.144	0.123
-501.668	-200.000	0.012	0.515
-500.653	-12.458	-0.089	0.059
-499.639	-200.000	0.075	-0.368
-498.624	-200.000	0.201	-0.000
-497.610	149.186	0.131	-0.179
-496.595	-200.000	0.006	0.065
-495.581	-47.000	0.052	0.026
-494.566	-104.489	-0.267	-0.063
-493.551	294.516	-0.078	0.145
-492.537	-200.000	0.019	0.249
-491.522	245.112	0.054	0.093
-490.508	9.994	0.176	-0.135
-489.493	512.747	-0.073	0.171
-488.478	296.469	0.138	0.256
-487.464	-81.806	-0.397	0.132
-486.449	800.000	0.031	-0.116
-485.435	226.484	-0.079	0.129
-484.420	10.800	-0.070	-0.054
-483.405	56.740	0.166	0.164
-482.391	-144.505	0.483	0.045
-481.376	82.925	-0.052	-0.057
-480.362	82.332	0.109	-0.120
-479.347	-162.958	0.204	-0.010
-478.332	-200.000	0.015	0.161
-477.318	-76.957	-0.333	0.118
-476.303	-127.076	-0.498	0.074
-475.289	-36.240	-0.118	-0.065
-474.274	142.293	-0.042	0.056
-473.259	800.000	0.038	-0.110
-472.245	-61.990	-0.131	-0.055
-471.230	-113.531	-0.268	0.053
-470.216	-67.831	-0.211	0.084
-469.201	800.000	-0.108	0.319
-468.186	-200.000	0.021	-0.196
-467.172	415.450	-0.158	-0.342
-466.157	165.264	0.149	0.214
-465.143	-126.023	-0.311	-0.047
-464.128	229.942	0.120	-0.199
-463.113	800.000	-0.040	-0.172
-462.099	-48.186	0.191	-0.093
-461.084	266.244	-0.045	-0.079
-460.070	-16.249	0.114	-0.073
-459.055	-200.000	-0.023	0.152
-458.040	-52.507	-0.324	0.152
-457.026	-69.555	0.114	-0.044
-456.011	800.000	0.076	-0.255
-454.997	-66.716	-0.163	0.065
-453.982	91.937	-0.131	0.150
-452.968	180.925	-0.063	0.094
-451.953	-191.826	-0.149	0.001
-450.938	800.000	-0.121	-0.537
-449.924	8.284	-0.094	0.071
-448.909	137.381	-0.069	-0.091
-447.895	-200.000	0.016	-0.144
-446.880	-140.975	0.222	0.023
-445.865	244.879	-0.104	0.176
-444.851	246.481	-0.066	-0.113
-443.836	-36.380	-0.201	-0.109
-442.822	161.439	0.177	-0.251
-441.807	-200.000	-0.011	-0.051
-440.792	98.566	0.170	0.198
-439.778	7.137	-0.143	0.108
-438.763	800.000	-0.040	0.148
-437.749	800.000	0.019	-0.070
-436.734	-81.018	-0.147	-0.049
-435.719	-8.542	-0.104	0.071
-434.705	-112.827	0.264	-0.053
-433.690	-79.947	0.094	-0.032
-432.676	-110.322	-0.069	-0.014
-431.661	-200.000	-0.034	0.166
-430.646	-128.665	0.079	-0.011
-429.632	44.347	-0.202	-0.188
-428.617	800.000	0.030	0.122
-427.603	-143.214	-0.268	0.026
-426.588	424.571	-0.038	-0.082
-425.573	-5.431	-0.147	-0.102
-424.559	-161.162	-0.170	0.009
-423.544	800.000	0.070	0.212
-422.530	-116.166	-0.172	0.032
-421.515	90.688	0.141	0.160
-420.500	-53.288	-0.229	0.106
-419.486	800.000	0.076	0.217
-418.471	80.929	-0.288	0.314
-417.457	-120.789	-0.338	-0.058
-416.442	-156.372	-0.430	-0.027
-415.428	-200.000	-0.041	-0.188
-414.413	237.790	-0.031	-0.052
-413.398	-89.297	-0.334	-0.100
-412.384	445.856	0.029	-0.065
-411.369	-126.885	-0.020	0.003
-410.355	800.000	-0.054	-0.177
-409.340	359.425	-0.080	-0.161
-408.325	3.482	0.129	-0.095
-407.311	800.000	0.070	-0.222
-406.296	-85.433	-0.378	-0.119
-405.282	-78.421	0.298	-0.103
-404.267	288.071	0.085	-0.156
-403.252	6.331	-0.049	0.037
-402.238	-200.000	0.020	-0.223
-401.223	-200.000	-0.262	0.000
-400.209	14.182	0.232	0.183
-399.194	-59.801	-0.482	0.208
-398.179	-71.842	-0.347	-0.131
-397.165	-200.000	0.013	-0.282
-396.150	122.488	0.063	-0.080
-395.136	-6.569	-0.202	0.139
-394.121	-102.851	0.157	-0.038
-393.106	-200.000	-0.073	0.400
-392.092	-44.190	-0.433	0.219
-391.077	375.532	0.157	0.323
-390.063	-200.000	-0.056	-0.389
-389.048	-60.160	0.104	0.045
-388.033	-91.254	0.188	0.054
-387.019	291.645	-0.133	-0.245
-386.004	170.866	0.061	0.088
-384.990	800.000	0.029	0.110
-383.975	270.569	0.072	-0.128
-382.960	41.542	-0.142	0.130
-381.946	-2.012	0.058	0.041
-380.931	419.804	-0.070	0.151
-379.917	-88.084	0.143	-0.043
-378.902	354.533	-0.172	-0.345
-377.888	-64.069	0.262	0.108
-376.873	61.987	-0.161	-0.161
-375.858	-13.387	0.208	-0.136
-374.844	-1.287	0.159	0.113
-373.829	295.776	-0.171	0.315
-372.815	-9.614	-0.019	0.013
-371.800	-56.714	-0.062	-0.028
-370.785	-41.097	0.367	0.191
-369.771	-200.000	0.010	-0.160
-368.756	214.984	-0.120	-0.192
-367.742	-200.000	-0.030	0.244
-366.727	-41.981	0.028	0.015
-365.712	-89.845	-0.206	-0.061
-364.698	-31.398	-0.286	-0.162
-363.683	5.077	-0.073	-0.054
-362.669	-200.000	-0.091	-0.494
-361.654	-94.098	-0.516	-0.143
-360.639	800.000	0.051	0.190
-359.625	294.173	0.044	-0.081
-358.610	-99.255	0.159	-0.040
-357.596	-22.393	-0.230	0.140
-356.581	-35.967	-0.091	-0.049
-355.566	214.151	0.079	0.126
-354.552	118.704	0.176	0.219
-353.537	-124.510	0.178	0.028
-352.523	175.432	-0.091	0.133
-351.508	1.520	0.194	0.141
-350.493	-66.555	0.418	0.167
-349.479	-86.345	0.205	-0.064
-348.464	-151.615	0.147	0.011
-347.450	-200.000	-0.012	0.312
-346.435	-200.000	-0.016	-0.127
-345.420	26.997	-0.355	-0.300
-344.406	800.000	0.091	-0.289
-343.391	12.413	0.080	0.062
-342.377	323.562	0.250	0.481
-341.362	-200.000	-0.053	-0.304
-340.348	800.000	0.031	0.136
-339.333	800.000	0.123	0.401
-338.318	-20.987	0.036	-0.022
-337.304	800.000	0.031	-0.123
-336.289	-200.000	-0.066	-0.313
-335.275	21.162	0.363	0.297
-334.260	-200.000	-0.012	-0.208
-333.245	-103.240	0.394	0.094
-332.231	300.580	-0.174	-0.324
-331.216	-19.451	0.111	0.069
-330.202	-200.000	0.022	-0.111
-329.187	35.094	-0.186	0.164
-328.172	117.124	0.157	0.194
-327.158	800.000	-0.006	0.017
-326.143	194.713	-0.031	0.048
-325.129	-42.214	0.236	-0.121
-324.114	-26.083	0.119	0.071
-323.099	-200.000	-0.004	-0.026
-322.085	-81.485	0.197	0.065
-321.070	9.546	-0.369	-0.282
-320.056	-200.000	0.036	0.231
-319.041	-200.000	0.000	0.161
-318.026	132.737	-0.136	0.177
-317.012	-140.854	-0.161	0.017
-315.997	163.898	-0.090	-0.128
-314.983	800.000	-0.047	-0.154
-313.968	82.991	-0.124	0.136
-312.953	-200.000	-0.052	-0.326
-311.939	-200.000	0.022	0.171
-310.924	-57.104	0.455	-0.202
-309.910	-96.536	0.095	0.025
-308.895	54.781	0.143	0.139
-307.880	267.919	-0.165	-0.292
-306.866	-37.501	-0.221	-0.119
-305.851	175.051	-0.221	-0.322
-304.837	800.000	0.052	-0.184
-303.822	-89.614	0.183	0.054
-302.807	450.216	-0.129	-0.286
-301.793	-4.077	0.147	0.103
-300.778	-122.586	0.144	-0.024
-299.764	-28.733	0.130	-0.075
-298.749	171.040	0.111	0.160
-297.735	-9.843	0.335	-0.224
-296.720	120.237	-0.318	0.397
-295.705	226.467	-0.241	0.394
-294.691	-25.490	0.185	0.110
-293.676	74.380	-0.193	0.204
-292.662	217.728	-0.072	-0.116
-291.647	-200.000	0.001	-0.129
-290.632	278.460	-0.108	0.193
-289.618	177.848	-0.103	-0.151
-288.603	-73.131	0.126	-0.047
-287.589	359.796	0.020	0.041
-286.574	-158.377	-0.113	-0.007
-285.559	800.000	-0.058	-0.163
-284.545	-198.074	-0.284	0.002
-283.530	529.528	0.040	-0.095
-282.516	-26.819	0.256	0.151
-281.501	304.554	0.091	0.171
-280.486	37.065	0.103	-0.092
-279.472	131.066	-0.126	0.163
-278.457	-23.522	0.156	-0.094
-277.443	20.621	-0.071	0.058
-276.428	800.000	0.075	0.316
-275.413	-167.946	-0.361	-0.014
-274.399	-66.054	0.242	0.097
-273.384	180.532	0.078	-0.116
-272.370	667.660	0.113	0.293
-271.355	-125.611	-0.250	-0.038
-270.340	-90.170	0.206	-0.060
-269.326	-133.548	-0.249	-0.031
-268.311	265.910	0.077	0.135
-267.297	-136.673	-0.211	-0.024
-266.282	35.304	0.099	-0.088
-265.267	-47.346	-0.152	-0.074
-264.253	800.000	0.132	-0.480
-263.238	-77.203	-0.181	0.063
-262.224	-200.000	0.040	0.290
-261.209	-200.000	0.029	0.246
-260.195	23.963	-0.090	0.075
-259.180	-29.748	0.124	-0.071
-258.165	-200.000	0.063	-0.329
-257.151	122.604	-0.136	0.170
-256.136	-73.716	0.106	0.039
-255.122	11.691	-0.042	-0.033
-254.107	-149.163	-0.078	0.006
-253.092	-200.000	0.023	0.121
-252.078	-92.797	-0.380	0.107
-251.063	-70.295	0.473	0.180
-250.049	-47.064	0.210	-0.103
-249.034	-122.372	0.244	-0.040
-248.019	-24.121	0.197	-0.118
-247.005	-153.776	-0.114	0.008
-245.990	11.685	-0.310	-0.239
-244.976	479.148	0.027	-0.061
-243.961	-92.062	-0.257	-0.073
-242.946	800.000	-0.030	-0.118
-241.932	-86.883	-0.101	0.031
-240.917	-200.000	0.048	-0.211
-239.903	216.421	0.084	-0.135
-238.888	364.078	-0.196	-0.396
-237.873	800.000	-0.049	-0.141
-236.859	771.660	0.093	0.254
-235.844	75.056	-0.102	-0.108
-234.830	-40.729	0.034	-0.018
-233.815	-40.072	-0.131	0.068
-232.800	207.603	0.099	-0.155
-231.786	800.000	-0.070	0.197
-230.771	138.160	-0.147	-0.193
-229.757	263.816	-0.121	0.211
-228.742	-9.478	0.044	-0.030
-227.727	130.019	0.317	-0.407
-226.713	-193.400	0.357	0.003
-225.698	-133.065	-0.189	0.024
-224.684	51.994	-0.058	-0.055
-223.669	48.590	-0.128	0.120
-222.655	152.426	0.128	0.175
-221.640	395.935	0.161	0.337
-220.625	-139.391	0.399	-0.043
-219.611	178.644	0.161	0.236
-218.596	-28.264	0.219	-0.127
-217.582	59.514	0.248	-0.245
-216.567	800.000	-0.010	0.032
-215.552	800.000	0.070	0.287
-214.538	-43.633	-0.161	-0.082
-213.523	-7.400	0.164	-0.112
-212.509	-63.620	-0.222	-0.091
-211.494	-113.461	0.247	0.049
-210.479	-115.607	0.098	-0.019
-209.465	204.307	0.154	0.239
-208.450	38.280	-0.146	0.130
-207.436	268.179	0.146	-0.256
-206.421	-103.256	0.273	-0.065
-205.406	-62.709	-0.059	-0.025
-204.392	229.158	0.066	0.108
-203.377	-60.230	-0.201	-0.086
-202.363	29.331	0.181	-0.155
-201.348	-200.000	-0.077	-0.384
-200.333	-165.386	0.185	0.008
-199.319	-200.000	0.003	0.040
-198.304	46.562	0.161	-0.149
-197.290	91.931	0.197	0.222
-196.275	-120.776	0.132	0.022
-195.260	-190.599	-0.325	-0.003
-194.246	-200.000	-0.023	0.137
-193.231	-200.000	-0.007	0.260
-192.217	-200.000	-0.017	0.081
-191.202	-85.863	-0.070	0.022
-190.187	28.212	0.210	-0.178
-189.173	-114.194	-0.114	0.022
-188.158	-200.000	0.002	-0.081
-187.144	-200.000	0.009	-0.085
-186.129	-154.725	0.461	-0.031
-185.114	289.724	0.079	-0.144
-184.100	-200.000	0.024	0.152
-183.085	-107.814	0.281	-0.061
-182.071	7.902	-0.038	-0.028
-181.056	-200.000	0.029	0.403
-180.042	-200.000	0.023	0.389
-179.027	800.000	-0.061	-0.210
-178.012	-177.275	-0.048	-0.001
-176.998	40.216	0.189	-0.170
-175.983	-200.000	0.022	-0.098
-174.969	-56.208	0.014	0.006
-173.954	328.810	0.114	0.219
-172.939	164.306	0.135	-0.191
-171.925	-140.611	0.056	-0.006
-170.910	-74.978	0.134	0.048
-169.896	217.750	0.019	-0.031
-168.881	-52.653	0.150	0.069
-167.866	-200.000	-0.028	0.146
-166.852	274.126	-0.069	-0.123
-165.837	-200.000	-0.049	-0.266
-164.823	65.316	-0.187	-0.190
-163.808	-200.000	0.009	-0.068
-162.793	183.563	-0.173	-0.257
-161.779	613.365	-0.055	-0.137
-160.764	316.253	0.177	-0.334
-159.750	-151.309	0.228	-0.017
-158.735	200.739	0.218	-0.336
-157.720	-200.000	-0.015	-0.236
-156.706	-131.592	0.295	-0.039
-155.691	-10.213	-0.197	-0.131
-154.677	800.000	0.091	-0.257
-153.662	180.336	0.064	0.095
-152.647	-13.516	0.260	0.169
-151.633	115.781	0.150	0.183
-150.618	-82.817	-0.102	0.033
-149.604	560.627	0.122	-0.296
-148.589	-146.328	-0.143	-0.013
-147.574	-28.096	0.181	0.105
-146.560	-180.255	0.174	-0.004
-145.545	800.000	-0.065	-0.221
-144.531	-93.487	0.202	0.056
-143.516	-144.467	-0.171	-0.016
-142.502	-115.355	-0.190	0.036
-141.487	-200.000	0.047	0.291
-140.472	-200.000	-0.091	0.432
-139.458	-55.018	0.118	-0.053
-138.443	14.631	-0.178	-0.139
-137.429	-92.550	0.220	0.062
-136.414	-62.902	-0.307	0.127
-135.399	-200.000	0.043	-0.457
-134.385	62.441	0.163	-0.163
-133.370	-126.023	0.242	-0.036
-132.356	142.125	-0.188	0.249
-131.341	800.000	-0.030	-0.113
-130.326	367.447	-0.171	0.345
-129.312	-39.439	0.158	-0.083
-128.297	-51.840	-0.235	0.109
-127.283	-151.520	0.330	0.024
-126.268	-30.914	-0.053	0.030
-125.253	-200.000	-0.030	-0.298
-124.239	-147.458	-0.029	0.002
-123.224	59.721	-0.229	0.226
-122.210	-171.893	0.362	-0.012
-121.195	-5.273	0.183	0.126
-120.180	-200.000	-0.012	0.229
-119.166	29.084	-0.244	0.207
-118.151	256.852	-0.278	0.478
-117.137	190.107	-0.107	-0.160
-116.122	65.413	-0.348	-0.352
-115.107	-31.859	-0.054	-0.030
-114.093	-80.733	0.078	0.026
-113.078	-100.014	-0.193	0.048
-112.064	-200.000	0.044	0.254
-111.049	800.000	0.013	0.042
-110.034	64.812	-0.009	0.009
-109.020	800.000	-0.104	0.308
-108.005	140.560	0.128	0.169
-106.991	90.975	-0.023	0.026
-105.976	-200.000	-0.001	-0.034
-104.962	296.778	-0.036	-0.066
-103.947	-170.182	-0.413	0.015
-102.932	-200.000	0.025	0.136
-101.918	-154.878	-0.357	-0.024
-100.903	319.985	-0.039	0.074
-99.889	55.135	0.054	0.052
-98.874	800.000	-0.072	-0.230
-97.859	143.882	-0.201	0.268
-96.845	-200.000	-0.033	-0.280
-95.830	396.063	0.088	0.184
-94.816	42.764	0.021	-0.019
-93.801	41.516	-0.147	-0.132
-92.786	-200.000	0.109	-0.580
-91.772	118.644	-0.148	0.183
-90.757	-25.336	-0.103	-0.061
-89.743	648.568	0.136	0.348
-88.728	800.000	-0.060	-0.248
-87.713	-0.471	0.124	0.088
-86.699	-69.091	-0.243	-0.093
-85.684	800.000	0.029	-0.116
-84.670	89.604	-0.228	-0.254
-83.655	181.107	-0.126	0.185
-82.640	-100.433	0.112	0.028
-81.626	-63.234	-0.162	-0.067
-80.611	800.000	-0.057	-0.188
-79.597	145.575	-0.161	-0.216
-78.582	-47.193	0.030	0.015
-77.567	-105.310	0.146	0.033
-76.553	1.262	0.137	0.098
-75.538	-55.887	-0.173	-0.077
-74.524	232.155	-0.033	-0.054
-73.509	-19.784	0.312	0.193
-72.494	84.969	0.229	-0.251
-71.480	10.238	-0.124	-0.094
-70.465	45.701	0.363	0.334
-69.451	-121.120	0.186	0.031
-68.436	-97.033	-0.052	-0.014
-67.422	-113.607	0.168	0.033
-66.407	-152.798	0.136	0.010
-65.392	-200.000	-0.028	0.186
-64.378	-96.998	0.196	0.051
-63.363	-200.000	0.034	0.389
-62.349	72.173	-0.239	0.248
-61.334	24.387	-1.034	-0.852
-60.319	229.409	0.142	0.232
-59.305	-200.000	0.067	-0.765
-58.290	352.911	0.275	0.544
-57.276	517.769	0.613	1.430
-56.261	-200.000	76.003	508.816
-55.246	519.581	1328.913	3103.637
-54.232	145.455	2561.698	3419.151
-53.217	116.993	2246.951	2750.487
-52.203	51.702	1765.336	1673.426
-51.188	44.257	1562.768	1429.209
-50.173	41.631	1532.730	1383.523
-49.159	57.681	1569.539	1529.285
-48.144	63.535	1589.050	1589.143
-47.130	44.878	1553.168	1424.544
-46.115	41.225	1538.319	1385.521
-45.100	41.012	1535.266	1381.237
-44.086	40.925	1533.450	1378.950
-43.071	41.007	1530.632	1376.922
-42.057	40.932	1529.268	1375.127
-41.042	40.929	1527.724	1373.660
-40.027	40.876	1526.062	1371.749
-39.013	40.920	1524.392	1370.497
-37.998	40.859	1523.709	1369.408
-36.984	40.911	1522.525	1368.644
-35.969	40.932	1520.699	1367.093
-34.954	40.964	1519.326	1366.026
-33.940	40.949	1517.602	1364.314
-32.925	40.959	1516.462	1363.308
-31.911	40.940	1514.711	1361.546
-30.896	40.989	1513.736	1360.950
-29.881	41.091	1511.917	1359.960
-28.867	41.004	1511.242	1358.707
-27.852	41.027	1509.711	1357.431
-26.838	41.064	1507.771	1355.886
-25.823	40.929	1506.810	1354.052
-24.809	41.030	1504.825	1352.901
-23.794	41.067	1502.985	1351.444
-22.779	41.048	1502.305	1350.650
-21.765	40.989	1501.440	1349.414
-20.750	40.991	1500.267	1348.322
-19.736	40.957	1499.139	1347.022
-18.721	40.980	1497.911	1346.025
-17.706	40.849	1497.190	1344.433
-16.692	40.941	1495.501	1343.487
-15.677	40.917	1494.500	1342.373
-14.663	40.987	1493.107	1341.542
-13.648	40.901	1492.483	1340.348
-12.633	40.913	1491.732	1339.699
-11.619	40.879	1491.052	1338.807
-10.604	40.862	1490.026	1337.719
-9.590	40.882	1489.090	1336.961
-8.575	40.834	1488.189	1335.774
-7.560	40.834	1487.729	1335.310
-6.546	40.895	1486.097	1334.198
-5.531	40.821	1486.030	1333.588
-4.517	40.825	1484.392	1332.096
-3.502	40.886	1483.531	1331.679
-2.487	40.885	1482.755	1330.921
-1.473	40.832	1481.729	1329.592
-0.458	40.880	1479.909	1328.228
0.556	41.268	1471.304	1319.916
1.571	38.692	1444.619	1279.079
2.586	35.034	1381.529	1200.228
3.600	32.770	1298.800	1114.891
4.615	30.904	1250.405	1062.619
5.629	26.096	1192.589	987.173
6.644	13.911	1099.455	848.148
7.659	3.938	1051.313	762.019
8.673	2.385	1044.773	749.609
9.688	2.177	1041.578	746.237
10.702	1.906	1040.090	743.781
11.717	1.883	1038.640	742.566
12.731	5.441	1043.513	763.372
13.746	16.880	1059.393	831.319
14.761	24.850	1069.655	878.591
15.775	25.565	1069.867	882.200
16.790	25.533	1068.910	881.177
17.804	25.297	1068.209	879.363
18.819	25.251	1067.078	878.129
19.834	25.284	1066.580	877.804
20.848	25.291	1066.586	877.763
21.863	25.384	1066.078	877.721
22.877	25.410	1065.604	877.384
23.892	25.328	1064.889	876.317
24.907	25.313	1063.893	875.346
25.921	25.351	1063.249	874.922
26.936	25.354	1062.866	874.543
27.950	25.336	1061.045	872.881
28.965	25.259	1060.131	871.680
29.980	25.213	1058.907	870.372
30.994	25.049	1057.932	868.697
32.009	25.374	1056.983	869.417
33.023	25.457	1056.273	869.156
34.038	25.193	1055.278	866.985
35.053	25.177	1054.902	866.522
36.067	25.214	1054.172	866.025
37.082	25.335	1053.001	865.569
38.096	25.394	1052.341	865.236
39.111	25.538	1051.777	865.390
40.126	25.538	1051.012	864.684
41.140	25.517	1049.407	863.187
42.155	25.385	1048.040	861.352
43.169	25.007	1047.395	858.934
44.184	24.893	1045.909	857.093
45.199	25.038	1045.290	857.202
46.213	24.906	1043.971	855.412
47.228	24.889	1043.143	854.578
48.242	25.080	1042.616	854.982
49.257	25.168	1042.032	854.850
50.271	25.275	1041.322	854.697
51.286	25.344	1040.748	854.481
52.301	25.362	1039.793	853.708
53.315	25.582	1039.001	854.027
54.330	25.272	1038.978	852.458
55.344	25.304	1038.076	851.796
56.359	25.291	1037.137	850.890
57.374	25.292	1036.054	849.930
58.388	25.072	1035.514	848.368
59.403	25.060	1034.759	847.620
60.417	25.038	1033.816	846.667
61.432	24.893	1033.011	845.250
62.447	24.841	1032.385	844.419
63.461	25.136	1031.605	845.097
64.476	25.147	1030.733	844.359
65.490	25.163	1029.960	843.723
66.505	24.949	1028.801	841.695
67.520	24.954	1028.446	841.353
68.534	25.120	1027.490	841.274
69.549	25.110	1026.489	840.337
70.563	24.668	1025.301	837.216
71.578	24.542	1024.661	836.032
72.593	24.534	1024.139	835.493
73.607	24.400	1022.730	833.643
74.622	24.499	1021.750	833.237
75.636	24.797	1021.093	834.013
76.651	25.052	1020.494	834.638
77.666	24.834	1019.668	832.875
78.680	24.699	1018.996	831.627
79.695	24.793	1018.443	831.539
80.709	24.815	1017.721	830.977
81.724	25.020	1017.037	831.297
82.739	24.852	1016.272	829.819
83.753	25.068	1014.902	829.624
84.768	25.198	1014.737	830.021
85.782	25.494	1014.389	831.029
86.797	25.745	1013.636	831.497
87.812	25.668	1012.780	830.367
88.826	25.431	1011.879	828.463
89.841	25.540	1011.013	828.182
90.855	25.594	1010.166	827.666
91.870	25.682	1009.443	827.404
92.884	25.569	1008.843	826.318
93.899	25.514	1008.001	825.304
94.914	25.353	1006.405	823.185
95.928	25.506	1005.945	823.438
96.943	25.458	1005.365	822.671
97.957	25.329	1004.138	821.004
98.972	25.038	1003.020	818.686
99.987	24.739	1002.092	816.493
101.001	24.884	1001.321	816.455
102.016	25.222	1001.150	817.781
103.030	25.202	1000.164	816.813
104.045	25.118	999.170	815.549
105.060	25.053	997.564	813.871
106.074	24.896	996.634	812.325
107.089	24.946	995.883	811.868
108.103	25.289	995.643	813.154
109.118	25.334	995.003	812.766
110.133	25.168	993.269	810.528
111.147	25.101	992.437	809.476
112.162	24.913	991.405	807.714
113.176	24.783	990.198	806.071
114.191	24.777	990.128	805.918
115.206	25.001	989.058	805.981
116.220	24.675	988.383	803.895
117.235	24.548	986.841	802.001
118.249	24.642	986.495	802.069
119.264	24.788	985.636	801.954
120.279	24.633	984.818	800.523
121.293	24.683	983.997	800.010
122.308	24.713	983.104	799.346
123.322	24.712	983.087	799.256
124.337	24.644	981.628	797.698
125.352	24.629	980.252	796.443
126.366	24.153	978.904	793.158
127.381	23.828	977.328	790.363
128.395	24.367	977.302	792.671
129.410	25.048	976.946	795.336
130.424	25.180	976.514	795.497
131.439	25.122	975.509	794.351
132.454	25.136	974.489	793.513
133.468	25.237	973.666	793.220
134.483	25.138	972.675	791.903
135.497	25.177	972.349	791.740
136.512	25.430	971.589	792.168
137.527	25.571	970.908	792.165
138.541	25.423	970.358	790.993
139.556	25.411	969.584	790.240
140.570	25.503	968.701	789.855
141.585	25.435	967.979	788.899
142.600	25.729	966.818	789.169
143.614	25.586	966.040	787.841
144.629	25.633	965.622	787.632
145.643	25.744	965.436	787.901
146.658	25.688	964.262	786.625
147.673	25.506	962.890	784.644
148.687	25.418	961.731	783.245
149.702	25.243	960.564	781.465
150.716	25.293	959.176	780.484
151.731	25.202	958.692	779.623
152.746	25.142	957.984	778.721
153.760	25.464	957.528	779.675
154.775	25.610	956.674	779.547
155.789	25.564	955.920	778.662
156.804	25.648	954.568	777.857
157.819	25.526	953.828	776.659
158.833	25.456	953.393	775.931
159.848	25.480	952.819	775.499
160.862	25.692	951.880	775.582
161.877	25.575	950.921	774.227
162.892	25.329	950.058	772.397
163.906	25.656	948.933	772.818
164.921	25.588	948.244	771.899
165.935	25.478	947.566	770.807
166.950	25.615	946.242	770.248
167.964	25.514	945.834	769.417
168.979	25.631	944.459	768.729
169.994	25.396	943.366	766.769
171.008	25.260	942.559	765.465
172.023	25.481	941.641	765.593
173.037	25.740	941.290	766.340
174.052	25.592	939.848	764.471
175.067	25.270	938.994	762.339
176.081	25.279	938.262	761.716
177.096	25.227	937.642	760.924
178.110	25.284	936.838	760.448
179.125	25.132	935.933	759.001
180.140	24.806	934.929	756.741
181.154	24.836	934.088	756.122
182.169	24.969	934.011	756.555
183.183	25.263	933.350	757.192
184.198	25.484	933.249	757.974
185.213	25.567	932.091	757.316
186.227	25.446	931.508	756.269
187.242	25.445	931.058	755.829
188.256	25.599	930.366	755.851
189.271	25.592	929.477	755.030
190.286	25.723	928.723	754.900
191.300	25.606	927.936	753.704
192.315	25.098	926.440	750.297
193.329	24.220	925.080	745.460
194.344	23.850	923.703	742.740
195.359	24.377	924.151	745.233
196.373	25.256	924.731	749.309
197.388	25.427	924.517	749.780
198.402	25.610	923.700	749.818
199.417	25.327	923.288	748.236
200.432	25.546	922.627	748.547
201.446	25.375	921.910	747.189
202.461	24.924	921.663	745.045
203.475	25.151	920.811	745.232
204.490	24.758	919.636	742.586
205.504	23.631	917.598	736.203
206.519	23.914	917.568	737.287
207.534	24.847	917.826	741.295
208.548	25.064	916.768	741.272
209.563	25.532	916.552	742.967
210.577	25.368	916.226	741.960
211.592	25.053	915.929	740.353
212.607	25.375	915.884	741.581
213.621	25.664	914.834	741.858
214.636	25.623	914.033	740.972
215.650	25.521	913.393	739.968
216.665	25.587	912.994	739.851
217.680	25.541	912.534	739.225
218.694	25.768	911.869	739.551
219.709	25.332	911.181	737.137
220.723	24.976	910.309	734.908
221.738	25.152	909.914	735.247
222.753	25.546	909.155	736.180
223.767	25.304	908.606	734.679
224.782	25.351	908.028	734.341
225.796	25.565	907.454	734.684
226.811	25.758	906.806	734.882
227.826	25.435	905.448	732.402
228.840	24.420	904.128	727.135
229.855	24.325	903.593	726.257
230.869	24.683	903.414	727.502
231.884	24.460	902.069	725.451
232.899	24.323	901.928	724.714
233.913	25.173	901.947	728.119
234.928	25.485	901.511	728.968
235.942	25.253	901.007	727.558
236.957	25.320	899.944	726.903
237.972	24.947	899.042	724.601
238.986	24.909	898.230	723.730
240.001	24.994	897.971	723.803
241.015	25.003	897.412	723.324
242.030	25.066	897.117	723.274
243.045	25.330	895.974	723.355
244.059	25.349	895.543	723.018
245.074	25.580	895.154	723.568
246.088	25.374	894.748	722.348
247.103	25.094	893.663	720.284
248.117	25.056	893.030	719.558
249.132	25.580	893.450	721.936
250.147	26.075	892.869	723.390
251.161	26.076	892.245	722.822
252.176	26.325	892.058	723.606
253.190	26.475	890.842	723.155
254.205	26.326	890.557	722.261
255.220	26.472	890.514	722.746
256.234	26.479	889.625	721.991
257.249	26.374	888.875	720.898
258.263	26.225	888.506	719.942
259.278	26.168	888.081	719.305
260.293	26.277	887.466	719.177
261.307	26.502	886.735	719.416
262.322	26.322	886.285	718.273
263.336	26.109	885.513	716.738
264.351	25.768	884.190	714.253
265.366	24.673	882.159	708.212
266.380	24.163	881.518	705.616
267.395	25.069	881.735	709.315
268.409	25.873	881.853	712.529
269.424	25.979	880.975	712.174
270.439	25.950	880.908	711.941
271.453	26.129	880.090	711.923
272.468	26.115	879.273	711.146
273.482	26.383	879.049	711.955
274.497	26.492	878.561	711.924
275.512	26.327	877.577	710.416
276.526	25.688	875.868	706.465
277.541	25.817	875.889	706.925
278.555	26.302	875.672	708.591
279.570	25.997	874.928	706.729
280.585	25.847	874.561	705.784
281.599	26.066	873.941	706.076
282.614	26.104	873.344	705.680
283.628	25.617	872.456	702.997
284.643	25.229	871.375	700.552
285.657	25.693	871.383	702.306
286.672	25.577	870.384	700.987
287.687	25.101	869.880	698.663
288.701	25.308	869.912	699.433
289.716	25.863	869.503	701.203
290.730	25.399	868.695	698.685
291.745	25.309	867.908	697.642
292.760	25.091	867.039	696.036
293.774	25.058	866.469	695.389
294.789	26.011	867.213	699.622
295.803	26.711	866.945	702.057
296.818	26.758	866.106	701.496
297.833	26.863	865.625	701.450
298.847	26.421	864.860	699.064
299.862	26.006	864.210	696.870
300.876	26.228	863.527	697.117
301.891	26.594	863.255	698.247
302.906	26.585	862.937	697.891
303.920	26.260	861.677	695.562
304.935	26.265	860.835	694.839
305.949	26.561	860.455	695.609
306.964	26.786	860.336	696.314
307.979	26.507	859.247	694.301
308.993	26.293	858.885	693.126
310.008	26.655	858.617	694.238
311.022	26.887	857.927	694.504
312.037	26.675	857.567	693.341
313.052	26.507	856.935	692.126
314.066	26.414	856.404	691.282
315.081	25.740	854.868	687.409
316.095	24.840	853.676	682.955
317.110	25.344	853.684	684.824
318.125	26.267	853.997	688.536
319.139	25.785	853.372	686.132
320.154	24.746	851.396	680.535
321.168	24.307	850.095	677.763
322.183	24.768	850.761	679.989
323.197	25.778	850.933	683.904
324.212	26.131	850.740	685.029
325.227	26.340	850.280	685.388
326.241	26.302	850.555	685.404
327.256	26.374	849.641	684.881
328.270	26.243	848.585	683.475
329.285	26.109	848.411	682.768
330.300	26.070	847.172	681.562
331.314	25.835	846.268	679.886
332.329	25.900	845.872	679.756
333.343	26.116	846.050	680.654
334.358	26.497	845.410	681.511
335.373	26.566	844.778	681.204
336.387	26.645	844.090	680.884
337.402	26.698	844.380	681.259
338.416	27.002	843.614	681.721
339.431	26.924	843.152	680.996
340.446	26.970	842.655	680.705
341.460	27.105	842.264	680.837
342.475	27.165	841.445	680.338
343.489	26.941	840.571	678.732
344.504	26.882	840.278	678.215
345.519	27.101	839.863	678.639
346.533	27.390	839.648	679.485
347.548	27.310	839.166	678.735
348.562	27.474	838.523	678.765
349.577	27.323	838.422	678.062
350.592	27.277	837.362	676.973
351.606	27.159	836.856	676.064
352.621	27.331	836.414	676.287
353.635	27.131	835.828	675.010
354.650	27.070	835.320	674.316
355.665	26.731	834.255	672.138
356.679	25.728	832.509	666.959
357.694	25.544	832.428	666.155
358.708	26.221	832.592	668.734
359.723	26.365	831.469	668.305
360.738	26.477	831.195	668.437
361.752	26.914	831.257	670.043
362.767	26.922	831.382	670.115
363.781	27.193	831.340	671.023
364.796	27.588	830.838	672.013
365.810	27.665	830.627	672.069
366.825	27.788	830.019	671.968
367.840	27.854	829.584	671.799
368.854	27.524	829.097	670.134
369.869	27.224	827.986	668.075
370.883	26.961	827.214	666.427
371.898	27.119	826.487	666.359
372.913	27.049	826.063	665.705
373.927	26.960	825.893	665.180
374.942	27.113	825.321	665.224
375.956	27.403	824.026	665.178
376.971	27.424	823.728	664.956
377.986	27.523	823.273	664.890
379.000	27.650	823.247	665.275
380.015	27.747	822.433	664.914
381.029	27.462	822.126	663.567
382.044	27.510	821.175	662.915
383.059	27.640	820.673	662.924
384.073	27.646	820.319	662.602
385.088	27.673	819.654	662.103
386.102	27.546	819.443	661.413
387.117	27.481	818.294	660.193
388.132	27.423	817.755	659.490
389.146	27.271	817.019	658.288
390.161	26.494	816.319	654.855
391.175	26.648	815.886	655.005
392.190	27.279	816.197	657.480
393.205	27.327	815.644	657.148
394.219	26.230	814.058	651.857
395.234	24.639	811.702	644.180
396.248	23.933	810.381	640.536
397.263	24.954	811.100	644.725
398.278	26.680	812.568	652.053
399.292	27.158	812.578	653.723
400.307	26.983	811.889	652.480
401.321	26.632	811.669	650.984
402.336	26.749	811.569	651.269
403.350	27.223	811.192	652.609
404.365	27.659	811.119	654.058
405.380	28.070	810.609	655.063
406.394	28.207	810.515	655.419
407.409	28.419	810.272	655.921
408.423	28.296	809.929	655.148
409.438	28.238	809.612	654.626
410.453	28.253	808.699	653.883
411.467	28.403	808.113	653.885
412.482	28.295	807.512	652.955
413.496	28.294	807.062	652.531
414.511	28.309	806.988	652.467
415.526	28.551	806.334	652.742
416.540	28.367	805.957	651.724
417.555	28.175	805.928	650.962
418.569	27.937	805.257	649.514
419.584	27.931	804.450	648.784
420.599	28.009	804.001	648.644
421.613	94.661	1260.887	1371.070
422.628	81.191	1327.471	1371.190
