DTS Sentinel unit serial number:	SN413079Multiplexer serial number:	ORYXHardware model number:	OX4-SRSoftware version number:	ORYX F/W v4.00 Oryx Data Collector v3.7.2.0data status	okinstallation	princeton_trtdifferential loss correction	single-endedforward channel	channel 3reverse channel	N/Adate	2019/09/19time	10:08:35forward acquisition time	60.00reverse acquisition time	0.00gamma	496.2192k internal	0.2343k external	0.2343temperature offset calibration	0.9978default loss term (dB/km)	0.3790temperature slope calibration	1.0000multiplexer offset coefficient	1.0000multiplexer slope coefficient	1.0000fibre end	0.00T internal ref (°C)	23.94T ext. ref 1 (°C)	0.69T ext. ref 2 (°C)	19.65length (m)	temperature (°C)	Stokes	anti-Stokes-747.200	475.599	-0.152	0.343
-746.185	316.114	0.122	0.231
-745.171	-200.000	0.007	0.441
-744.156	-196.258	-0.196	-0.001
-743.142	-200.000	-0.020	0.341
-742.127	-155.582	-0.057	0.004
-741.112	800.000	0.108	-0.325
-740.098	169.202	-0.101	0.144
-739.083	618.144	-0.138	0.346
-738.069	-128.850	-0.352	0.050
-737.054	62.156	0.109	0.109
-736.039	-84.105	-0.442	-0.141
-735.025	-200.000	-0.026	-0.120
-734.010	13.201	-0.441	-0.342
-732.996	-162.221	-0.367	-0.018
-731.981	800.000	-0.063	0.189
-730.966	105.603	-0.306	-0.362
-729.952	743.784	-0.101	-0.273
-728.937	182.836	-0.205	-0.304
-727.923	-5.843	-0.130	0.089
-726.908	84.615	0.154	0.169
-725.894	115.997	0.234	-0.287
-724.879	-200.000	-0.020	0.250
-723.864	-112.054	-0.260	0.052
-722.850	247.806	-0.242	-0.409
-721.835	-73.861	-0.375	0.136
-720.821	304.324	-0.179	-0.333
-719.806	-68.654	0.093	-0.036
-718.791	-200.000	0.014	0.099
-717.777	123.505	-0.137	-0.172
-716.762	-51.537	-0.145	-0.068
-715.748	286.825	-0.088	0.160
-714.733	800.000	-0.047	0.140
-713.718	-200.000	-0.040	-0.375
-712.704	-90.709	0.241	-0.070
-711.689	-47.421	-0.108	0.053
-710.675	-132.845	-0.151	-0.019
-709.660	-109.094	-0.289	-0.062
-708.645	-58.762	-0.226	-0.098
-707.631	625.951	0.139	0.350
-706.616	800.000	0.037	0.115
-705.602	-164.499	-0.212	-0.010
-704.587	-200.000	-0.002	0.008
-703.572	-200.000	-0.001	0.065
-702.558	289.734	-0.144	-0.262
-701.543	185.560	-0.100	-0.149
-700.529	-200.000	-0.017	0.093
-699.514	-200.000	0.332	-0.001
-698.499	324.538	-0.136	-0.259
-697.485	256.188	0.242	-0.415
-696.470	-181.646	0.235	-0.005
-695.456	-38.838	-0.199	0.105
-694.441	353.604	0.195	-0.387
-693.426	-16.401	-0.193	-0.122
-692.412	164.760	-0.148	-0.209
-691.397	-9.396	-0.211	0.141
-690.383	88.837	0.182	0.202
-689.368	-59.436	0.249	-0.107
-688.354	-200.000	0.093	-0.443
-687.339	-89.025	0.200	-0.059
-686.324	-39.361	-0.343	0.180
-685.310	800.000	0.028	0.111
-684.295	-200.000	-0.003	0.417
-683.281	-129.237	0.277	-0.039
-682.266	-200.000	-0.048	-0.229
-681.251	-66.320	0.116	-0.046
-680.237	800.000	-0.010	-0.035
-679.222	164.712	-0.055	-0.077
-678.208	54.493	-0.210	-0.202
-677.193	341.095	-0.085	0.167
-676.178	166.173	-0.137	-0.194
-675.164	-200.000	0.038	-0.337
-674.149	-200.000	0.028	-0.217
-673.135	322.610	0.046	0.087
-672.120	-109.889	-0.238	-0.050
-671.105	-47.890	0.361	0.175
-670.091	-200.000	0.024	0.166
-669.076	800.000	-0.059	0.198
-668.062	-110.228	-0.305	0.063
-667.047	26.122	-0.206	0.172
-666.032	-51.896	0.214	-0.100
-665.018	-35.892	0.376	-0.203
-664.003	-200.000	0.007	-0.165
-662.989	243.241	-0.098	0.163
-661.974	-97.793	-0.350	-0.090
-660.959	-108.660	0.233	-0.050
-659.945	205.553	0.052	-0.080
-658.930	800.000	-0.096	-0.419
-657.916	24.369	0.075	-0.062
-656.901	-58.384	-0.251	-0.109
-655.886	-147.210	0.477	0.041
-654.872	-200.000	0.029	0.199
-653.857	-9.343	0.218	0.145
-652.843	-69.007	-0.248	-0.095
-651.828	-93.921	0.222	0.061
-650.814	126.895	-0.038	-0.048
-649.799	-134.663	-0.149	-0.018
-648.784	-107.933	-0.132	-0.029
-647.770	-144.821	-0.232	0.021
-646.755	-34.224	0.091	-0.050
-645.741	-37.927	0.268	-0.142
-644.726	47.145	0.014	0.013
-643.711	6.255	-0.081	0.060
-642.697	-66.230	0.179	0.071
-641.682	5.449	0.059	-0.044
-640.668	-200.000	0.009	0.059
-639.653	45.842	-0.164	-0.152
-638.638	117.752	-0.212	0.260
-637.624	692.179	0.050	0.132
-636.609	-12.317	-0.338	-0.220
-635.595	-1.699	0.085	0.060
-634.580	800.000	0.118	0.335
-633.565	-123.986	0.297	0.047
-632.551	12.250	0.159	-0.122
-631.536	-200.000	0.021	0.098
-630.522	-20.440	0.271	0.166
-629.507	800.000	0.062	0.173
-628.492	-200.000	-0.048	-0.441
-627.478	387.819	0.136	0.281
-626.463	178.285	-0.060	-0.087
-625.449	-69.046	0.149	-0.057
-624.434	-162.149	0.160	0.008
-623.419	172.245	-0.112	0.160
-622.405	73.002	-0.013	-0.014
-621.390	-200.000	0.003	0.099
-620.376	-18.298	-0.124	0.077
-619.361	15.649	-0.306	-0.240
-618.346	-85.742	-0.231	-0.072
-617.332	-194.059	0.247	-0.002
-616.317	-56.937	-0.277	0.122
-615.303	-200.000	0.006	-0.277
-614.288	125.791	-0.160	0.202
-613.273	-74.575	-0.199	0.071
-612.259	800.000	-0.063	-0.230
-611.244	-200.000	-0.004	-0.319
-610.230	-132.936	0.228	-0.029
-609.215	-1.673	0.160	0.112
-608.201	115.349	0.179	0.218
-607.186	70.400	0.050	0.052
-606.171	-69.992	0.320	0.121
-605.157	-115.847	-0.360	0.067
-604.142	289.675	0.164	0.296
-603.128	-78.739	0.103	0.035
-602.113	114.012	0.180	-0.218
-601.098	332.175	-0.036	-0.069
-600.084	12.572	-0.095	0.073
-599.069	366.159	0.187	0.376
-598.055	-107.648	-0.255	-0.055
-597.040	-20.019	0.272	-0.167
-596.025	-200.000	0.053	-0.398
-595.011	-6.084	-0.095	0.065
-593.996	151.705	-0.186	0.252
-592.982	-113.808	0.326	0.063
-591.967	487.392	0.037	0.083
-590.952	157.490	-0.113	-0.156
-589.938	48.178	0.055	0.051
-588.923	36.148	-0.201	-0.176
-587.909	191.914	-0.130	-0.195
-586.894	-74.104	0.282	0.101
-585.879	-158.141	-0.237	-0.014
-584.865	60.657	0.274	-0.271
-583.850	283.848	0.089	0.160
-582.836	-23.577	0.065	-0.039
-581.821	-200.000	-0.011	-0.055
-580.806	800.000	0.069	-0.202
-579.792	72.530	-0.137	-0.142
-578.777	-135.614	-0.327	0.039
-577.763	-90.023	-0.435	-0.126
-576.748	-75.819	0.192	-0.068
-575.733	-137.532	-0.211	0.024
-574.719	81.763	0.061	-0.065
-573.704	-91.641	-0.068	0.019
-572.690	39.103	-0.111	-0.099
-571.675	-47.290	-0.096	-0.046
-570.661	244.393	-0.091	0.151
-569.646	-200.000	0.056	-0.630
-568.631	800.000	-0.046	-0.131
-567.617	90.774	-0.055	0.061
-566.602	-77.910	0.301	0.103
-565.588	18.257	-0.286	-0.227
-564.573	110.759	0.164	0.196
-563.558	-46.075	0.278	0.136
-562.544	-151.159	-0.329	-0.025
-561.529	800.000	0.103	0.398
-560.515	-200.000	0.008	0.043
-559.500	-200.000	0.036	0.358
-558.485	-125.728	-0.257	0.039
-557.471	800.000	-0.040	0.171
-556.456	161.215	0.163	0.226
-555.442	-99.352	0.280	0.070
-554.427	-74.437	-0.497	0.178
-553.412	328.800	0.026	0.051
-552.398	21.370	-0.137	0.111
-551.383	224.943	-0.068	-0.109
-550.369	-43.378	0.350	0.176
-549.354	2.843	0.335	-0.242
-548.339	-200.000	0.010	-0.076
-547.325	242.771	0.115	0.191
-546.310	800.000	-0.058	0.222
-545.296	-200.000	0.000	0.032
-544.281	-169.283	-0.185	-0.007
-543.266	-109.164	0.026	0.005
-542.252	239.725	0.115	0.190
-541.237	150.236	-0.087	0.117
-540.223	-200.000	0.019	-0.566
-539.208	-91.213	0.249	-0.071
-538.193	800.000	0.007	-0.020
-537.179	800.000	0.116	-0.434
-536.164	-200.000	0.017	-0.100
-535.150	-21.384	0.223	0.135
-534.135	-200.000	0.013	0.283
-533.121	-66.577	0.292	0.115
-532.106	-56.789	-0.130	0.057
-531.091	-200.000	0.003	-0.104
-530.077	-200.000	0.016	-0.430
-529.062	73.146	-0.162	-0.168
-528.048	165.806	-0.095	-0.133
-527.033	124.456	-0.156	0.194
-526.018	208.212	-0.238	-0.369
-525.004	-70.279	-0.189	-0.071
-523.989	-112.302	0.131	0.026
-522.975	-95.858	-0.165	-0.044
-521.960	15.841	0.211	0.165
-520.945	66.303	-0.207	-0.209
-519.931	456.446	0.020	-0.044
-518.916	-200.000	-0.037	0.208
-517.902	-200.000	-0.004	0.119
-516.887	-200.000	0.087	-0.396
-515.872	-27.729	-0.160	-0.092
-514.858	-94.329	0.258	0.070
-513.843	-112.086	-0.209	-0.042
-512.829	-6.088	-0.224	-0.152
-511.814	-126.864	0.043	0.006
-510.799	22.972	0.221	-0.180
-509.785	-125.012	0.113	0.017
-508.770	-123.099	-0.049	-0.008
-507.756	276.390	0.062	-0.110
-506.741	-118.014	0.098	0.017
-505.726	-35.092	-0.129	-0.070
-504.712	-153.513	0.207	0.014
-503.697	-128.171	-0.200	-0.028
-502.683	800.000	0.044	-0.122
-501.668	-200.000	0.028	-0.154
-500.653	348.540	0.055	0.107
-499.639	-200.000	-0.004	-0.146
-498.624	139.673	0.100	-0.130
-497.610	403.820	-0.140	-0.293
-496.595	-200.000	0.006	-0.096
-495.581	800.000	0.066	0.191
-494.566	800.000	0.063	-0.210
-493.551	363.113	-0.050	-0.100
-492.537	-139.541	0.165	0.017
-491.522	-109.150	-0.276	-0.058
-490.508	354.011	0.044	0.087
-489.493	-140.384	0.213	-0.022
-488.478	485.243	-0.085	0.192
-487.464	-104.564	0.425	0.097
-486.449	-4.093	0.026	0.018
-485.435	185.607	-0.281	-0.414
-484.420	-88.863	-0.462	-0.136
-483.405	336.596	-0.274	0.528
-482.391	-200.000	-0.025	0.428
-481.376	-163.650	-0.107	-0.005
-480.362	-103.834	0.365	0.085
-479.347	83.838	0.019	-0.020
-478.332	-94.730	-0.103	-0.028
-477.318	-169.653	0.546	0.020
-476.303	-120.917	-0.438	0.073
-475.289	-73.421	-0.190	-0.069
-474.274	-111.328	0.200	-0.041
-473.259	-152.252	0.108	0.008
-472.245	800.000	-0.064	-0.182
-471.230	360.257	-0.095	-0.188
-470.216	75.725	-0.059	-0.062
-469.201	320.157	-0.022	-0.041
-468.186	79.760	0.258	0.275
-467.172	800.000	0.084	0.246
-466.157	209.594	-0.177	0.275
-465.143	-200.000	0.039	0.291
-464.128	-78.578	0.191	-0.065
-463.113	-79.487	0.271	0.091
-462.099	50.471	0.125	-0.117
-461.084	-66.062	0.155	-0.061
-460.070	155.647	-0.099	0.135
-459.055	92.781	-0.422	-0.472
-458.040	-23.610	-0.347	0.206
-457.026	-81.037	0.101	0.033
-456.011	-68.045	-0.074	0.029
-454.997	-200.000	-0.018	0.175
-453.982	127.886	-0.034	-0.042
-452.968	131.824	-0.062	-0.079
-451.953	800.000	-0.077	0.220
-450.938	-119.340	-0.144	-0.025
-449.924	73.739	0.169	-0.175
-448.909	-200.000	0.004	0.064
-447.895	-200.000	-0.094	0.000
-446.880	-200.000	0.076	-0.376
-445.865	21.332	-0.402	0.323
-444.851	-200.000	-0.093	-0.432
-443.836	-109.611	-0.207	-0.043
-442.822	-20.874	0.125	0.076
-441.807	279.044	-0.084	-0.148
-440.792	14.985	0.147	-0.114
-439.778	-19.027	-0.174	-0.107
-438.763	-200.000	0.002	0.158
-437.749	-158.532	-0.431	-0.025
-436.734	-159.254	-0.242	-0.013
-435.719	-94.424	-0.287	-0.077
-434.705	-200.000	0.031	0.164
-433.690	-22.600	-0.112	-0.067
-432.676	274.231	-0.077	-0.135
-431.661	-200.000	-0.003	0.195
-430.646	110.988	-0.105	-0.125
-429.632	-200.000	-0.143	0.649
-428.617	61.558	-0.264	0.260
-427.603	-127.552	0.297	0.043
-426.588	-130.926	0.158	-0.021
-425.573	-52.208	-0.098	0.045
-424.559	-200.000	0.016	0.177
-423.544	135.572	-0.115	-0.147
-422.530	-122.047	-0.161	0.026
-421.515	-62.715	0.446	-0.183
-420.500	800.000	-0.042	0.143
-419.486	46.397	0.408	0.374
-418.471	91.091	-0.150	0.166
-417.457	-200.000	0.028	0.182
-416.442	-200.000	-0.067	-0.380
-415.428	800.000	0.073	-0.228
-414.413	404.892	0.063	0.132
-413.398	152.623	-0.093	-0.126
-412.384	-37.233	-0.054	0.029
-411.369	243.794	0.114	-0.189
-410.355	800.000	0.086	0.364
-409.340	49.055	-0.038	-0.035
-408.325	-12.649	0.111	-0.071
-407.311	81.868	-0.252	0.269
-406.296	-125.750	0.048	0.007
-405.282	-100.991	0.143	-0.035
-404.267	-169.213	-0.408	-0.015
-403.252	204.659	-0.089	0.136
-402.238	-115.196	-0.378	0.071
-401.223	-200.000	-0.007	-0.591
-400.209	-112.559	-0.130	0.026
-399.194	-18.010	0.088	-0.054
-398.179	-200.000	0.006	-0.167
-397.165	-39.697	-0.209	0.108
-396.150	403.591	0.045	-0.094
-395.136	-101.723	0.071	0.017
-394.121	-76.477	0.124	-0.043
-393.106	139.936	0.111	-0.144
-392.092	-14.661	0.381	-0.242
-391.077	145.337	0.121	-0.160
-390.063	800.000	-0.046	0.191
-389.048	-200.000	-0.020	-0.140
-388.033	-55.087	-0.054	-0.024
-387.019	-200.000	0.078	-0.367
-386.004	-149.835	0.148	0.011
-384.990	800.000	0.165	0.504
-383.975	-25.852	0.281	0.163
-382.960	-101.006	-0.233	-0.057
-381.946	-16.221	0.161	0.101
-380.931	-200.000	0.033	-0.490
-379.917	181.362	-0.158	0.229
-378.902	-200.000	-0.002	-0.240
-377.888	207.142	-0.210	-0.323
-376.873	-151.589	0.319	-0.023
-375.858	7.814	-0.230	0.170
-374.844	153.406	-0.169	-0.228
-373.829	800.000	-0.033	-0.121
-372.815	-163.881	0.428	-0.020
-371.800	27.016	-0.070	-0.058
-370.785	189.147	-0.190	0.282
-369.771	800.000	0.080	-0.340
-368.756	-0.897	-0.294	-0.205
-367.742	-200.000	0.027	-0.132
-366.727	-200.000	-0.000	0.226
-365.712	-72.168	0.046	-0.017
-364.698	-102.882	-0.247	0.058
-363.683	-200.000	0.027	-0.244
-362.669	800.000	0.026	0.109
-361.654	-135.685	-0.319	0.037
-360.639	200.731	0.201	-0.305
-359.625	-115.410	0.061	-0.011
-358.610	-200.000	0.013	0.057
-357.596	47.507	0.197	-0.181
-356.581	351.305	-0.096	-0.188
-355.566	-39.337	-0.093	0.048
-354.552	-5.041	0.191	-0.130
-353.537	-132.380	0.353	0.045
-352.523	-200.000	0.040	-0.223
-351.508	-200.000	0.073	-0.478
-350.493	4.927	0.226	0.164
-349.479	279.703	-0.032	0.056
-348.464	300.530	-0.036	0.066
-347.450	95.205	-0.237	0.266
-346.435	800.000	0.033	-0.119
-345.420	289.827	0.042	-0.075
-344.406	-80.019	-0.356	0.118
-343.391	-30.749	0.098	-0.055
-342.377	-200.000	-0.003	-0.057
-341.362	303.545	0.066	-0.120
-340.348	145.948	0.070	0.093
-339.333	-200.000	0.004	0.141
-338.318	-174.364	0.215	-0.006
-337.304	-47.309	-0.163	-0.078
-336.289	8.944	0.082	0.061
-335.275	-200.000	0.019	0.109
-334.260	154.931	-0.102	-0.139
-333.245	-68.627	-0.275	0.105
-332.231	-114.085	0.273	0.052
-331.216	-200.000	-0.020	-0.093
-330.202	32.631	-0.166	-0.141
-329.187	-50.579	-0.332	0.154
-328.172	-101.495	0.353	-0.085
-327.158	-31.301	0.107	-0.059
-326.143	414.607	0.098	0.206
-325.129	-110.212	0.139	-0.029
-324.114	14.520	-0.176	0.136
-323.099	678.524	0.014	0.037
-322.085	71.559	-0.169	0.173
-321.070	-122.757	-0.085	-0.014
-320.056	-90.932	-0.172	-0.049
-319.041	-31.808	-0.155	0.085
-318.026	-37.727	-0.092	0.048
-317.012	149.188	0.169	0.226
-315.997	-111.349	-0.134	-0.027
-314.983	-132.612	0.267	0.034
-313.968	111.216	0.022	-0.026
-312.953	-49.622	-0.225	-0.106
-311.939	-200.000	0.014	0.139
-310.924	-200.000	0.312	0.000
-309.910	-22.387	0.339	0.202
-308.895	-200.000	0.035	0.222
-307.880	800.000	0.063	-0.238
-306.866	31.548	0.104	-0.088
-305.851	-139.737	-0.161	0.017
-304.837	-56.809	-0.253	-0.110
-303.822	315.278	-0.091	-0.170
-302.807	-200.000	-0.010	0.222
-301.793	667.862	0.118	-0.301
-300.778	-93.976	0.156	0.042
-299.764	-200.000	-0.047	0.228
-298.749	102.150	-0.246	0.283
-297.735	267.307	0.130	-0.224
-296.720	297.450	0.067	0.121
-295.705	-200.000	-0.017	0.163
-294.691	-46.936	0.145	0.070
-293.676	45.451	0.122	-0.111
-292.662	800.000	0.036	0.107
-291.647	90.625	0.281	0.310
-290.632	800.000	0.097	-0.269
-289.618	-115.814	-0.434	0.080
-288.603	74.784	0.167	0.173
-287.589	-183.808	-0.274	0.005
-286.574	-43.345	0.140	-0.070
-285.559	-6.162	0.138	-0.093
-284.545	-200.000	-0.036	0.257
-283.530	-88.063	0.159	-0.047
-282.516	-200.000	-0.045	-0.209
-281.501	726.856	-0.099	-0.261
-280.486	-200.000	-0.006	-0.212
-279.472	39.627	-0.096	0.085
-278.457	-43.661	-0.281	0.139
-277.443	-133.807	0.158	-0.019
-276.428	128.227	0.196	-0.245
-275.413	-200.000	-0.003	-0.032
-274.399	409.935	0.105	-0.219
-273.384	-15.164	-0.204	0.128
-272.370	31.268	-0.127	-0.107
-271.355	87.694	0.237	0.259
-270.340	63.358	0.111	-0.109
-269.326	73.927	-0.131	0.135
-268.311	-95.922	-0.194	0.051
-267.297	800.000	0.035	-0.105
-266.282	-130.727	0.081	0.011
-265.267	-200.000	0.052	-0.322
-264.253	800.000	0.072	-0.210
-263.238	262.378	0.279	0.476
-262.224	800.000	-0.074	0.213
-261.209	-200.000	-0.046	-0.242
-260.195	-68.220	0.181	-0.069
-259.180	-200.000	-0.014	0.147
-258.165	394.720	0.197	0.404
-257.151	800.000	-0.015	0.055
-256.136	157.599	0.045	0.062
-255.122	86.065	-0.125	-0.135
-254.107	42.408	-0.133	-0.119
-253.092	-127.201	-0.301	0.043
-252.078	-5.195	-0.210	0.142
-251.063	41.846	0.073	0.065
-250.049	152.255	0.027	-0.036
-249.034	800.000	0.054	-0.205
-248.019	157.385	-0.033	-0.045
-247.005	10.985	0.093	-0.070
-245.990	-113.048	0.290	-0.056
-244.976	-200.000	0.003	-0.069
-243.961	-200.000	0.035	0.407
-242.946	213.858	-0.103	0.160
-241.932	-68.433	-0.108	0.041
-240.917	143.445	-0.072	0.094
-239.903	31.523	-0.089	0.075
-238.888	-200.000	0.024	-0.293
-237.873	-200.000	-0.042	0.231
-236.859	87.544	0.281	0.305
-235.844	122.188	0.241	0.296
-234.830	-20.544	0.322	0.194
-233.815	156.675	0.026	0.035
-232.800	-63.008	0.184	0.074
-231.786	800.000	0.038	0.136
-230.771	187.424	0.134	0.197
-229.757	18.892	0.136	-0.107
-228.742	800.000	-0.024	-0.071
-227.727	-43.333	0.314	0.156
-226.713	-200.000	0.015	0.093
-225.698	-67.815	0.304	0.117
-224.684	-101.747	-0.243	0.058
-223.669	68.300	-0.085	-0.085
-222.655	167.027	-0.269	-0.375
-221.640	254.403	-0.125	0.210
-220.625	-52.953	-0.248	-0.112
-219.611	-61.538	-0.150	-0.062
-218.596	56.931	-0.204	0.195
-217.582	-200.000	-0.037	0.326
-216.567	-179.215	-0.089	-0.002
-215.552	-7.821	0.051	-0.034
-214.538	-200.000	-0.037	0.250
-213.523	-115.268	-0.178	-0.033
-212.509	800.000	-0.021	0.088
-211.494	-200.000	0.003	-0.075
-210.479	21.294	0.237	0.189
-209.465	147.102	-0.130	-0.172
-208.450	-200.000	0.000	0.067
-207.436	-44.068	-0.011	0.005
-206.421	208.611	-0.172	-0.264
-205.406	18.398	-0.215	0.169
-204.392	303.519	0.073	0.133
-203.377	2.544	0.164	-0.117
-202.363	235.891	0.055	-0.089
-201.348	-8.326	-0.038	0.025
-200.333	180.708	0.269	0.387
-199.319	1.365	-0.328	-0.231
-198.304	-48.173	-0.116	0.055
-197.290	345.337	-0.052	0.100
-196.275	-30.122	0.266	0.148
-195.260	-180.311	-0.198	0.004
-194.246	36.243	-0.164	0.142
-193.231	-175.889	-0.354	0.009
-192.217	62.156	0.101	-0.099
-191.202	-200.000	0.009	0.234
-190.187	-200.000	0.057	-0.280
-189.173	231.797	0.185	-0.298
-188.158	-200.000	0.016	-0.125
-187.144	150.954	-0.156	0.208
-186.129	6.137	0.145	-0.106
-185.114	331.192	0.136	-0.256
-184.100	-127.132	0.349	-0.050
-183.085	-128.031	0.131	-0.018
-182.071	31.822	-0.206	-0.174
-181.056	-139.728	0.219	-0.023
-180.042	-148.564	-0.362	-0.029
-179.027	412.642	-0.046	-0.096
-178.012	-104.139	-0.167	-0.038
-176.998	204.366	0.163	0.247
-175.983	-16.416	-0.045	-0.028
-174.969	-200.000	-0.017	0.157
-173.954	-60.013	0.363	0.152
-172.939	-200.000	0.003	-0.263
-171.925	-175.296	0.170	0.005
-170.910	134.424	0.064	-0.081
-169.896	367.207	-0.065	0.129
-168.881	-127.458	0.100	-0.014
-167.866	-94.135	0.173	-0.046
-166.852	-107.986	-0.108	0.023
-165.837	-200.000	0.180	0.000
-164.823	490.981	0.196	0.440
-163.808	-75.924	-0.053	0.018
-162.793	-125.376	-0.123	0.018
-161.779	-200.000	0.056	-0.241
-160.764	-73.442	0.200	-0.072
-159.750	750.257	0.085	-0.224
-158.735	-200.000	-0.019	-0.271
-157.720	52.682	-0.207	0.194
-156.706	246.486	0.031	-0.052
-155.691	200.632	-0.068	0.102
-154.677	259.686	0.040	0.067
-153.662	-200.000	-0.022	0.151
-152.647	198.396	0.106	-0.159
-151.633	-42.715	0.005	-0.003
-150.618	-40.025	0.140	0.072
-149.604	800.000	-0.077	0.213
-148.589	-123.654	0.289	0.045
-147.574	-30.122	-0.238	-0.132
-146.560	17.289	-0.062	0.048
-145.545	207.477	0.250	0.382
-144.531	-13.100	0.200	0.127
-143.516	-74.024	0.332	0.118
-142.502	790.481	0.029	0.079
-141.487	-67.659	-0.446	0.171
-140.472	-57.294	0.120	-0.052
-139.458	800.000	0.058	-0.181
-138.443	4.146	-0.248	0.178
-137.429	-73.325	-0.154	-0.055
-136.414	789.417	0.060	0.162
-135.399	800.000	0.047	-0.190
-134.385	-91.589	-0.197	-0.055
-133.370	-122.845	0.414	-0.065
-132.356	800.000	-0.041	-0.111
-131.341	30.645	0.240	-0.201
-130.326	-200.000	-0.013	-0.071
-129.312	-132.455	0.107	0.013
-128.297	-63.201	0.077	-0.031
-127.283	429.523	0.125	0.264
-126.268	-200.000	-0.029	-0.320
-125.253	-11.939	0.087	-0.056
-124.239	-200.000	0.002	-0.087
-123.224	11.329	0.119	0.089
-122.210	-96.575	-0.268	-0.069
-121.195	21.477	-0.061	0.049
-120.180	163.839	0.039	0.054
-119.166	-200.000	-0.021	0.209
-118.151	-4.734	-0.090	0.061
-117.137	593.401	-0.060	-0.146
-116.122	-72.099	0.109	-0.039
-115.107	344.673	-0.079	-0.151
-114.093	110.538	0.088	-0.103
-113.078	-130.606	-0.244	-0.032
-112.064	532.847	0.036	-0.083
-111.049	-92.994	0.223	-0.061
-110.034	-103.201	-0.177	0.041
-109.020	-106.153	-0.377	0.083
-108.005	38.340	0.174	0.151
-106.991	-81.924	0.332	0.106
-105.976	-200.000	-0.005	0.062
-104.962	-200.000	0.041	-0.295
-103.947	156.852	-0.354	-0.477
-102.932	57.829	0.089	0.085
-101.918	127.984	0.058	-0.073
-100.903	-200.000	-0.018	-0.170
-99.889	-32.023	-0.098	-0.054
-98.874	12.979	-0.132	0.100
-97.859	207.563	-0.067	0.102
-96.845	800.000	-0.041	-0.127
-95.830	-74.336	-0.224	0.079
-94.816	59.194	-0.205	0.197
-93.801	297.905	0.045	0.080
-92.786	-200.000	0.011	0.249
-91.772	27.600	-0.131	0.107
-90.757	-63.035	0.190	0.076
-89.743	372.005	-0.075	0.148
-88.728	134.115	0.160	0.202
-87.713	-58.955	-0.405	0.171
-86.699	-123.080	-0.108	-0.017
-85.684	148.057	0.094	-0.124
-84.670	2.601	0.093	0.066
-83.655	-52.403	0.202	-0.091
-82.640	21.506	0.064	0.051
-81.626	-200.000	-0.021	0.102
-80.611	503.611	-0.135	0.306
-79.597	98.175	-0.366	0.411
-78.582	118.512	0.235	0.283
-77.567	49.946	-0.120	0.110
-76.553	-75.414	0.254	-0.088
-75.538	-85.071	-0.099	0.030
-74.524	-200.000	-0.039	0.191
-73.509	-11.752	-0.049	-0.032
-72.494	73.930	-0.318	-0.326
-71.480	-42.731	0.131	-0.065
-70.465	-40.678	0.030	0.015
-69.451	97.370	-0.139	0.156
-68.436	-12.299	-0.265	-0.169
-67.422	313.594	0.178	0.327
-66.407	-104.763	-0.088	-0.020
-65.392	30.407	0.211	0.176
-64.378	-147.558	0.125	-0.010
-63.363	344.482	0.166	-0.317
-62.349	119.402	0.272	0.328
-61.334	65.455	-1.307	-1.290
-60.319	36.468	0.760	0.654
-59.305	791.778	-0.428	-1.148
-58.290	439.221	0.591	1.257
-57.276	500.316	0.669	1.505
-56.261	-200.000	121.668	612.644
-55.246	385.317	1566.347	3148.810
-54.232	141.164	2740.386	3533.348
-53.217	93.801	2205.013	2435.751
-52.203	34.560	1718.384	1463.050
-51.188	26.984	1533.854	1253.794
-50.173	24.916	1510.165	1220.303
-49.159	47.345	1579.365	1433.864
-48.144	45.296	1592.644	1431.525
-47.130	26.967	1542.741	1260.744
-46.115	24.153	1526.490	1228.043
-45.100	23.937	1523.383	1224.005
-44.086	23.980	1521.192	1222.492
-43.071	23.964	1519.155	1220.700
-42.057	23.975	1517.261	1219.203
-41.042	23.853	1516.302	1217.550
-40.027	23.903	1514.308	1216.240
-39.013	23.860	1512.971	1214.825
-37.998	23.798	1511.967	1213.547
-36.984	23.845	1510.527	1212.664
-35.969	23.985	1508.777	1212.163
-34.954	23.867	1508.045	1210.729
-33.940	23.858	1506.749	1209.579
-32.925	23.930	1505.137	1208.723
-31.911	23.987	1503.860	1208.038
-30.896	23.933	1502.338	1206.403
-29.881	24.049	1501.153	1206.189
-28.867	24.014	1499.667	1204.706
-27.852	24.080	1498.148	1203.885
-26.838	23.989	1496.839	1202.169
-25.823	23.950	1495.391	1200.698
-24.809	23.997	1493.539	1199.478
-23.794	23.953	1492.272	1198.116
-22.779	23.953	1491.675	1197.591
-21.765	24.016	1490.124	1196.725
-20.750	24.051	1488.942	1195.960
-19.736	23.954	1488.273	1194.726
-18.721	23.944	1487.020	1193.604
-17.706	23.938	1486.079	1192.761
-16.692	23.921	1485.008	1191.739
-15.677	23.919	1484.019	1190.884
-14.663	23.870	1483.463	1190.062
-13.648	23.943	1482.186	1189.479
-12.633	23.951	1481.076	1188.600
-11.619	23.952	1479.950	1187.654
-10.604	23.974	1479.294	1187.225
-9.590	23.924	1478.123	1185.907
-8.575	23.994	1477.186	1185.574
-7.560	23.883	1476.519	1184.251
-6.546	23.956	1475.291	1183.705
-5.531	23.855	1475.273	1182.973
-4.517	23.949	1473.230	1181.913
-3.502	23.899	1472.531	1180.974
-2.487	23.889	1471.961	1180.399
-1.473	23.885	1471.155	1179.683
-0.458	23.874	1469.349	1178.116
0.556	22.923	1459.783	1168.455
1.571	20.126	1435.213	1130.471
2.586	16.948	1372.546	1061.166
3.600	15.363	1288.722	986.947
4.615	14.378	1244.519	947.415
5.629	12.644	1187.936	894.838
6.644	6.449	1104.974	800.861
7.659	1.417	1068.263	749.412
8.673	0.671	1063.192	742.123
9.688	0.746	1059.511	739.857
10.702	0.634	1058.375	738.452
11.717	0.709	1055.746	736.918
12.731	2.701	1057.501	747.797
13.746	9.031	1066.094	784.848
14.761	14.889	1073.580	819.065
15.775	17.029	1075.764	831.150
16.790	16.797	1074.800	829.198
17.804	15.864	1072.465	822.762
18.819	15.070	1070.758	817.508
19.834	14.763	1068.674	814.345
20.848	14.208	1068.714	811.600
21.863	14.029	1067.565	809.782
22.877	13.852	1066.637	808.146
23.892	13.597	1066.180	806.486
24.907	13.488	1065.050	805.032
25.921	13.535	1064.183	804.532
26.936	13.553	1063.705	804.185
27.950	13.619	1062.542	803.558
28.965	13.676	1061.893	803.270
29.980	13.597	1061.159	802.262
30.994	13.811	1059.979	802.333
32.009	13.834	1059.401	801.938
33.023	13.906	1058.769	801.732
34.038	13.827	1058.104	800.776
35.053	13.715	1057.008	799.339
36.067	13.800	1056.234	799.091
37.082	13.729	1055.762	798.323
38.096	13.753	1054.370	797.316
39.111	13.776	1053.960	797.044
40.126	13.758	1052.664	795.908
41.140	13.686	1051.544	794.644
42.155	13.642	1050.634	793.678
43.169	13.634	1049.673	792.844
44.184	13.594	1048.954	792.037
45.199	13.570	1048.014	791.142
46.213	13.599	1046.784	790.283
47.228	13.609	1046.006	789.671
48.242	13.711	1044.492	788.945
49.257	13.539	1043.836	787.563
50.271	13.523	1042.959	786.757
51.286	13.721	1041.379	786.432
52.301	13.770	1041.084	786.374
53.315	13.702	1040.413	785.474
54.330	13.694	1039.264	784.501
55.344	13.641	1038.539	783.631
56.359	13.608	1037.494	782.618
57.374	13.606	1036.715	781.952
58.388	13.642	1036.013	781.522
59.403	13.565	1034.706	780.105
60.417	13.618	1033.985	779.740
61.432	13.613	1033.536	779.312
62.447	13.598	1032.696	778.536
63.461	13.522	1031.911	777.522
64.476	13.525	1030.902	776.705
65.490	13.638	1029.596	776.181
66.505	13.542	1029.253	775.405
67.520	13.593	1028.236	774.811
68.534	13.634	1027.973	774.735
69.549	13.604	1027.081	773.852
70.563	13.699	1026.250	773.602
71.578	13.546	1025.511	772.263
72.593	13.628	1024.531	771.840
73.607	13.722	1023.343	771.312
74.622	13.528	1023.063	770.131
75.636	13.486	1021.753	768.884
76.651	13.614	1020.797	768.687
77.666	13.492	1020.660	767.950
78.680	13.536	1019.459	767.184
79.695	13.641	1018.703	767.034
80.709	13.642	1018.112	766.523
81.724	13.595	1017.850	766.043
82.739	13.665	1016.300	765.132
83.753	13.645	1015.736	764.545
84.768	13.677	1014.835	763.947
85.782	13.799	1014.021	763.831
86.797	13.690	1013.443	762.824
87.812	13.762	1012.947	762.716
88.826	13.594	1012.020	761.177
89.841	13.593	1011.150	760.453
90.855	13.657	1010.032	759.836
91.870	13.679	1009.536	759.498
92.884	13.796	1008.784	759.400
93.899	13.729	1008.074	758.491
94.914	13.892	1007.069	758.412
95.928	13.871	1006.266	757.644
96.943	13.871	1005.438	756.955
97.957	13.919	1004.471	756.379
98.972	13.769	1004.089	755.342
99.987	13.840	1003.513	755.165
101.001	13.789	1002.989	754.473
102.016	13.828	1001.849	753.723
103.030	13.773	1000.884	752.684
104.045	13.821	999.905	752.095
105.060	13.913	998.479	751.373
106.074	13.783	998.202	750.513
107.089	13.758	997.040	749.458
108.103	13.689	996.207	748.454
109.118	13.678	995.417	747.743
110.133	13.674	994.738	747.150
111.147	13.691	993.747	746.419
112.162	13.656	993.138	745.738
113.176	13.664	992.126	744.947
114.191	13.768	991.246	744.687
115.206	13.677	990.736	743.828
116.220	13.765	989.663	743.354
117.235	13.688	988.580	742.128
118.249	13.747	987.849	741.775
119.264	13.863	986.385	741.133
120.279	13.699	986.386	740.334
121.293	13.759	985.052	739.532
122.308	13.706	984.803	739.046
123.322	13.713	983.393	737.953
124.337	13.651	982.765	737.139
125.352	13.710	981.016	736.028
126.366	13.741	980.092	735.403
127.381	13.698	978.957	734.300
128.395	13.684	978.537	733.857
129.410	13.673	977.489	732.958
130.424	13.679	976.196	731.949
131.439	13.753	975.345	731.573
132.454	13.877	974.154	731.158
133.468	13.828	973.444	730.345
134.483	13.820	973.226	730.085
135.497	13.742	972.649	729.242
136.512	13.738	971.868	728.576
137.527	13.586	971.179	727.329
138.541	13.729	970.285	727.221
139.556	13.714	969.332	726.378
140.570	13.721	968.807	725.952
141.585	13.782	967.796	725.393
142.600	13.824	967.343	725.174
143.614	13.954	966.517	725.057
144.629	13.861	965.763	724.022
145.643	13.961	964.857	723.717
146.658	14.000	964.158	723.297
147.673	13.812	962.742	721.353
148.687	13.962	961.796	721.234
149.702	13.867	960.848	720.046
150.716	13.751	960.401	719.145
151.731	13.966	959.222	719.126
152.746	13.854	959.219	718.578
153.760	13.841	958.185	717.685
154.775	13.898	957.570	717.406
155.789	13.911	956.296	716.445
156.804	13.991	955.493	716.125
157.819	14.058	954.881	715.888
158.833	14.010	953.790	714.803
159.848	14.076	953.132	714.528
160.862	13.988	952.593	713.686
161.877	14.087	951.805	713.454
162.892	13.943	951.174	712.301
163.906	14.039	950.323	712.013
164.921	14.010	949.546	711.244
165.935	14.011	948.439	710.356
166.950	13.915	947.464	709.154
167.964	13.990	946.764	708.887
168.979	14.050	945.743	708.313
169.994	14.034	944.719	707.417
171.008	14.060	943.956	706.891
172.023	14.039	942.673	705.780
173.037	14.003	942.363	705.332
174.052	14.227	941.619	705.665
175.067	14.067	940.977	704.442
176.081	14.032	940.304	703.727
177.096	14.119	939.072	703.113
178.110	14.139	938.402	702.634
179.125	14.081	937.904	701.952
180.140	14.194	936.933	701.641
181.154	14.096	936.466	700.817
182.169	14.064	935.930	700.216
183.183	14.054	935.234	699.591
184.198	14.271	934.353	699.785
185.213	14.169	933.278	698.487
186.227	14.307	933.031	698.821
187.242	14.277	932.989	698.604
188.256	14.456	931.676	698.306
189.271	14.255	931.329	697.146
190.286	14.316	930.379	696.627
191.300	14.351	929.551	696.093
192.315	14.267	928.972	695.243
193.329	14.182	928.599	694.548
194.344	14.210	927.954	694.122
195.359	14.301	927.136	693.830
196.373	14.362	926.243	693.350
197.388	14.282	925.968	692.751
198.402	14.523	925.286	693.181
199.417	14.356	925.118	692.302
200.432	14.448	924.525	692.178
201.446	14.449	924.129	691.824
202.461	14.507	923.541	691.563
203.475	14.654	922.909	691.637
204.490	14.539	922.313	690.655
205.504	14.523	921.639	690.023
206.519	14.513	920.957	689.410
207.534	14.520	920.160	688.782
208.548	14.560	919.445	688.349
209.563	14.558	918.543	687.604
210.577	14.551	918.042	687.141
211.592	14.589	917.345	686.713
212.607	14.645	916.902	686.553
213.621	14.664	916.451	686.232
214.636	14.682	915.479	685.519
215.650	14.775	914.845	685.362
216.665	14.650	914.605	684.611
217.680	14.868	914.071	685.043
218.694	14.781	913.149	683.937
219.709	14.856	913.184	684.209
220.723	14.818	912.442	683.437
221.738	14.835	911.388	682.654
222.753	14.729	910.832	681.745
223.767	14.868	910.356	681.897
224.782	14.809	908.973	680.559
225.796	14.778	908.291	679.865
226.811	14.938	907.878	680.143
227.826	14.929	907.088	679.455
228.840	14.889	906.511	678.801
229.855	14.974	905.435	678.279
230.869	14.857	905.576	677.853
231.884	14.904	904.538	677.204
232.899	14.869	904.086	676.665
233.913	14.929	903.418	676.346
234.928	14.905	902.340	675.382
235.942	14.898	901.770	674.869
236.957	14.940	901.415	674.713
237.972	14.874	900.603	673.781
238.986	14.944	899.677	673.310
240.001	15.054	898.980	673.172
241.015	14.943	898.317	672.167
242.030	14.970	897.984	671.968
243.045	15.116	897.006	671.761
244.059	14.959	896.308	670.552
245.074	15.031	895.603	670.253
246.088	15.069	895.307	670.123
247.103	15.132	894.646	669.821
248.117	15.271	893.893	669.753
249.132	14.981	893.645	668.351
250.147	15.213	892.695	668.506
251.161	15.248	891.904	667.997
252.176	15.284	891.344	667.660
253.190	15.300	890.592	667.100
254.205	15.419	889.900	666.995
255.220	15.372	889.397	666.372
256.234	15.420	888.471	665.812
257.249	15.385	888.212	665.420
258.263	15.337	887.824	664.882
259.278	15.337	887.030	664.228
260.293	15.304	886.635	663.742
261.307	15.321	886.165	663.398
262.322	15.516	885.427	663.556
263.336	15.528	884.843	663.109
264.351	15.530	884.535	662.827
265.366	15.530	883.360	661.889
266.380	15.611	882.863	661.778
267.395	15.604	881.895	660.966
268.409	15.692	881.281	660.791
269.424	15.668	880.555	660.095
270.439	15.586	879.929	659.246
271.453	15.585	878.875	658.393
272.468	15.771	878.397	658.706
273.482	15.561	878.230	657.698
274.497	15.664	877.102	657.198
275.512	15.594	876.696	656.562
276.526	15.670	875.466	655.883
277.541	15.600	875.077	655.257
278.555	15.728	874.363	655.166
279.570	15.834	873.991	655.239
280.585	15.809	873.177	654.477
281.599	15.890	872.847	654.486
282.614	15.750	872.420	653.564
283.628	15.757	871.449	652.805
284.643	15.793	871.031	652.572
285.657	15.915	870.343	652.472
286.672	15.867	870.128	652.066
287.687	15.728	869.806	651.232
288.701	15.922	868.827	651.189
289.716	15.929	868.414	650.851
290.730	15.918	867.636	650.167
291.745	15.947	867.150	649.857
292.760	15.978	866.475	649.413
293.774	15.923	865.892	648.706
294.789	15.993	865.158	648.368
295.803	16.030	864.308	647.816
296.818	16.106	863.772	647.650
297.833	15.915	863.504	646.660
298.847	16.106	862.257	646.401
299.862	16.080	861.731	645.849
300.876	16.047	861.142	645.226
301.891	16.049	860.607	644.773
302.906	16.141	859.764	644.436
303.920	16.097	859.386	643.927
304.935	16.096	858.955	643.544
305.949	16.201	858.178	643.306
306.964	16.245	857.494	642.905
307.979	16.175	856.955	642.174
308.993	16.273	856.287	641.992
310.008	16.165	855.968	641.286
311.022	16.345	855.359	641.456
312.037	16.361	854.723	640.980
313.052	16.352	854.549	640.761
314.066	16.338	853.782	640.077
315.081	16.317	853.078	639.412
316.095	16.409	852.484	639.258
317.110	16.416	851.760	638.687
318.125	16.329	851.354	637.997
319.139	16.214	850.535	636.891
320.154	16.291	850.788	637.316
321.168	16.358	850.158	637.040
322.183	16.185	849.740	636.017
323.197	16.407	849.087	636.308
324.212	16.495	847.798	635.616
325.227	16.470	847.454	635.210
326.241	16.471	846.886	634.732
327.256	16.412	846.380	634.077
328.270	16.540	846.054	634.256
329.285	16.379	845.863	633.450
330.300	16.441	845.024	632.999
331.314	16.551	844.513	632.972
332.329	16.454	843.868	632.071
333.343	16.377	843.088	631.144
334.358	16.513	842.514	631.163
335.373	16.430	842.205	630.567
336.387	16.609	841.606	630.730
337.402	16.657	840.770	630.227
338.416	16.733	840.222	630.045
339.431	16.647	839.687	629.267
340.446	16.777	839.087	629.243
341.460	16.616	838.729	628.322
342.475	16.720	838.098	628.179
343.489	16.946	836.936	628.090
344.504	16.786	836.881	627.402
345.519	16.789	836.458	627.037
346.533	16.929	835.641	626.889
347.548	16.878	835.372	626.442
348.562	17.050	834.450	626.333
349.577	16.766	834.216	625.051
350.592	16.794	833.397	624.486
351.606	16.850	833.213	624.501
352.621	16.739	832.944	623.833
353.635	16.851	832.750	624.046
354.650	16.842	832.224	623.565
355.665	16.810	831.747	623.034
356.679	16.949	831.275	623.135
357.694	16.986	830.520	622.651
358.708	17.075	829.862	622.428
359.723	16.896	829.362	621.340
360.738	16.987	829.108	621.430
361.752	16.980	828.423	620.835
362.767	17.092	827.935	620.823
363.781	17.113	827.448	620.480
364.796	17.087	827.267	620.195
365.810	17.162	826.371	619.745
366.825	17.160	826.083	619.465
367.840	17.220	825.892	619.487
368.854	17.062	825.733	618.734
369.869	17.199	825.259	618.825
370.883	17.276	824.390	618.400
371.898	17.257	823.640	617.714
372.913	17.209	823.261	617.200
373.927	17.257	822.680	616.885
374.942	17.236	822.020	616.257
375.956	17.227	821.613	615.865
376.971	17.464	820.547	615.869
377.986	17.257	820.388	614.947
379.000	17.316	819.536	614.468
380.015	17.262	819.675	614.321
381.029	17.378	818.763	614.001
382.044	17.471	818.293	613.932
383.059	17.423	817.589	613.175
384.073	17.267	817.442	612.448
385.088	17.380	816.649	612.208
386.102	17.540	816.149	612.353
387.117	17.632	815.263	611.964
388.132	17.541	815.087	611.450
389.146	17.406	815.038	610.875
390.161	17.399	814.492	610.387
391.175	17.507	813.804	610.206
392.190	17.646	813.331	610.295
393.205	17.653	813.103	610.093
394.219	17.597	812.510	609.396
395.234	17.734	811.742	609.256
396.248	17.621	811.702	608.766
397.263	17.428	811.298	607.721
398.278	17.476	810.901	607.542
399.292	17.470	810.197	606.938
400.307	17.575	810.005	607.114
401.321	17.637	809.432	606.854
402.336	17.531	809.417	606.410
403.350	17.539	808.929	606.021
404.365	17.647	808.210	605.811
405.380	17.609	807.555	605.133
406.394	17.650	807.546	605.218
407.409	17.729	806.720	604.825
408.423	17.774	805.650	604.127
409.438	17.825	805.730	604.316
410.453	17.817	805.543	604.095
411.467	17.865	804.798	603.651
412.482	17.790	804.573	603.163
413.496	17.925	803.877	603.065
414.511	17.837	803.856	602.686
415.526	17.930	803.177	602.453
416.540	17.824	803.113	601.976
417.555	17.910	802.819	602.007
418.569	18.019	802.173	601.853
419.584	17.940	801.990	601.382
420.599	17.926	801.266	600.739
421.613	114.283	1297.609	1486.447
422.628	98.595	1369.896	1486.555
