DTS Sentinel unit serial number:	SN413079Multiplexer serial number:	ORYXHardware model number:	OX4-SRSoftware version number:	ORYX F/W v4.00 Oryx Data Collector v3.7.2.0data status	okinstallation	princeton_trtdifferential loss correction	single-endedforward channel	channel 3reverse channel	N/Adate	2019/09/15time	07:08:34forward acquisition time	60.00reverse acquisition time	0.00gamma	496.2192k internal	0.2324k external	0.2324temperature offset calibration	0.9981default loss term (dB/km)	0.3790temperature slope calibration	1.0000multiplexer offset coefficient	1.0000multiplexer slope coefficient	1.0000fibre end	0.00T internal ref (°C)	30.50T ext. ref 1 (°C)	4.87T ext. ref 2 (°C)	25.68length (m)	temperature (°C)	Stokes	anti-Stokes-747.200	72.106	0.157	0.164
-746.185	163.672	-0.149	0.212
-745.171	-128.751	-0.283	0.040
-744.156	-55.766	-0.281	0.127
-743.142	800.000	0.034	0.097
-742.127	-87.347	-0.154	0.047
-741.112	285.140	-0.044	-0.079
-740.098	800.000	0.038	0.153
-739.083	437.824	0.052	-0.114
-738.069	-200.000	-0.007	0.457
-737.054	800.000	-0.074	0.269
-736.039	-200.000	-0.008	0.096
-735.025	-180.906	0.167	-0.003
-734.010	-119.408	-0.111	-0.019
-732.996	-155.306	0.165	0.011
-731.981	800.000	-0.060	0.228
-730.966	305.430	0.059	-0.111
-729.952	184.012	0.052	0.077
-728.937	-83.818	0.333	-0.107
-727.923	-55.457	-0.235	-0.106
-726.908	231.122	0.136	-0.225
-725.894	-200.000	-0.015	0.158
-724.879	-12.479	-0.256	-0.168
-723.864	800.000	0.098	-0.280
-722.850	5.332	-0.291	-0.217
-721.835	800.000	0.059	-0.208
-720.821	-52.176	-0.093	0.044
-719.806	9.765	-0.141	-0.108
-718.791	280.752	0.088	-0.158
-717.777	-200.000	0.018	-0.094
-716.762	-71.323	-0.264	-0.100
-715.748	-157.295	0.380	-0.023
-714.733	-121.694	-0.120	-0.020
-713.718	800.000	0.028	-0.083
-712.704	-117.167	-0.151	0.028
-711.689	-90.331	-0.191	-0.056
-710.675	313.875	-0.140	-0.265
-709.660	-34.934	0.280	0.154
-708.645	-200.000	-0.015	0.079
-707.631	31.755	-0.076	0.066
-706.616	24.525	0.304	-0.253
-705.602	-200.000	-0.012	-0.124
-704.587	-149.841	0.077	0.006
-703.572	162.765	0.125	0.177
-702.558	-200.000	0.009	0.174
-701.543	159.670	0.113	0.159
-700.529	-94.846	0.175	0.048
-699.514	66.795	0.268	0.274
-698.499	-24.793	0.151	0.090
-697.485	54.638	-0.267	-0.260
-696.470	189.144	0.079	-0.120
-695.456	-200.000	-0.022	-0.188
-694.441	130.834	-0.103	-0.133
-693.426	800.000	-0.061	0.188
-692.412	-30.561	0.064	-0.037
-691.397	689.025	-0.076	0.199
-690.383	-200.000	0.034	0.173
-689.368	-79.225	0.257	0.088
-688.354	800.000	-0.106	-0.416
-687.339	135.672	-0.189	-0.248
-686.324	-86.986	0.329	-0.101
-685.310	89.160	0.134	-0.150
-684.295	-141.681	-0.181	-0.018
-683.281	-17.848	0.158	-0.100
-682.266	800.000	0.077	0.314
-681.251	-8.365	0.333	0.226
-680.237	159.743	-0.026	0.036
-679.222	-128.178	0.447	-0.064
-678.208	-96.085	-0.097	-0.026
-677.193	-200.000	-0.012	-0.135
-676.178	800.000	-0.068	0.240
-675.164	90.850	0.228	-0.258
-674.149	-200.000	-0.014	-0.332
-673.135	-103.253	-0.147	-0.035
-672.120	238.888	-0.187	-0.313
-671.105	101.074	0.118	-0.138
-670.091	154.657	-0.101	0.140
-669.076	238.903	-0.142	-0.238
-668.062	78.430	0.187	0.201
-667.047	800.000	-0.075	-0.273
-666.032	214.859	-0.023	0.036
-665.018	-122.192	0.253	0.042
-664.003	800.000	0.150	-0.431
-662.989	-200.000	-0.006	-0.074
-661.974	-198.237	0.179	0.001
-660.959	28.027	0.144	0.122
-659.945	800.000	0.086	-0.248
-658.930	279.384	-0.095	0.171
-657.916	-200.000	-0.020	0.152
-656.901	-97.982	0.077	-0.020
-655.886	101.903	0.280	0.328
-654.872	305.136	0.288	0.538
-653.857	-69.896	-0.174	0.067
-652.843	-125.354	0.184	-0.028
-651.828	-65.576	-0.127	-0.051
-650.814	471.887	-0.093	-0.211
-649.799	65.072	0.227	-0.230
-648.784	-6.202	-0.188	0.129
-647.770	112.146	0.047	0.057
-646.755	-66.000	-0.098	-0.039
-645.741	-104.485	-0.592	0.138
-644.726	70.254	0.214	-0.222
-643.711	800.000	-0.054	0.217
-642.697	72.072	0.068	0.071
-641.682	-2.105	-0.098	0.069
-640.668	-48.872	-0.379	0.183
-639.653	-200.000	0.019	0.169
-638.638	414.724	0.166	-0.356
-637.624	50.084	-0.199	-0.189
-636.609	164.170	0.056	0.080
-635.595	628.664	-0.083	0.210
-634.580	-200.000	0.007	0.105
-633.565	61.301	-0.191	0.190
-632.551	800.000	0.131	-0.380
-631.536	-40.582	0.079	0.041
-630.522	299.150	-0.114	-0.210
-629.507	98.109	0.070	-0.082
-628.492	-200.000	0.072	-0.319
-627.478	-50.769	0.107	0.050
-626.463	352.358	0.169	-0.337
-625.449	-29.802	-0.406	-0.233
-624.434	-72.969	0.190	-0.070
-623.419	270.516	-0.070	-0.123
-622.405	370.989	-0.122	0.248
-621.390	62.248	-0.026	0.026
-620.376	800.000	-0.010	-0.032
-619.361	-21.591	0.176	-0.108
-618.346	800.000	-0.077	-0.316
-617.332	121.077	0.074	-0.092
-616.317	-49.088	-0.011	0.005
-615.303	-76.028	0.119	-0.042
-614.288	-200.000	-0.050	0.247
-613.273	-200.000	-0.006	-0.120
-612.259	-200.000	-0.020	-0.272
-611.244	-200.000	0.019	-0.183
-610.230	-200.000	0.021	0.117
-609.215	-62.204	-0.228	0.096
-608.201	-141.413	-0.172	0.017
-607.186	-137.066	0.253	-0.029
-606.171	473.444	0.087	0.197
-605.157	-115.049	-0.222	-0.042
-604.142	535.476	0.102	-0.244
-603.128	-157.082	-0.189	-0.012
-602.113	-12.502	0.351	-0.230
-601.098	-90.285	-0.318	0.093
-600.084	705.147	-0.140	0.371
-599.069	-200.000	-0.011	0.264
-598.055	10.872	0.209	-0.160
-597.040	-123.165	-0.225	0.036
-596.025	-47.030	-0.398	-0.195
-595.011	-200.000	-0.078	-0.399
-593.996	12.745	-0.153	-0.118
-592.982	116.835	0.072	0.089
-591.967	33.214	-0.179	-0.156
-590.952	36.490	-0.139	-0.123
-589.938	324.056	-0.219	0.420
-588.923	800.000	0.046	-0.150
-587.909	800.000	0.075	-0.238
-586.894	361.166	0.062	0.125
-585.879	-57.146	-0.227	-0.100
-584.865	82.877	-0.163	0.177
-583.850	-118.966	-0.165	-0.029
-582.836	-16.017	0.133	-0.085
-581.821	800.000	-0.127	-0.470
-580.806	-166.087	-0.275	0.012
-579.792	-200.000	-0.038	-0.301
-578.777	-137.714	-0.114	-0.013
-577.763	64.479	-0.205	-0.207
-576.748	-70.399	-0.192	-0.073
-575.733	38.597	-0.218	-0.195
-574.719	-200.000	0.015	-0.119
-573.704	47.110	0.176	-0.164
-572.690	258.109	0.104	0.179
-571.675	56.169	-0.094	0.092
-570.661	-200.000	-0.040	0.353
-569.646	-150.769	0.283	-0.022
-568.631	146.594	-0.083	0.112
-567.617	196.800	-0.074	0.113
-566.602	-60.424	0.006	-0.002
-565.588	-19.515	0.470	-0.292
-564.573	-200.000	-0.000	0.105
-563.558	-200.000	0.021	0.201
-562.544	219.409	0.219	0.351
-561.529	316.301	0.268	-0.508
-560.515	-89.352	0.049	-0.014
-559.500	-131.396	-0.351	-0.046
-558.485	800.000	0.021	0.079
-557.471	-39.480	0.316	0.166
-556.456	-200.000	-0.004	0.345
-555.442	-125.337	-0.027	-0.004
-554.427	-62.026	-0.203	0.085
-553.412	56.497	0.071	-0.069
-552.398	800.000	-0.059	0.218
-551.383	-200.000	0.001	-0.218
-550.369	-85.344	-0.358	0.112
-549.354	-200.000	0.009	-0.100
-548.339	395.823	0.109	-0.227
-547.325	767.551	0.070	0.190
-546.310	97.782	0.121	0.139
-545.296	-138.654	-0.311	0.034
-544.281	-200.000	-0.054	-0.250
-543.266	70.619	0.030	0.031
-542.252	213.658	0.123	-0.195
-541.237	800.000	0.061	0.264
-540.223	16.056	0.245	-0.193
-539.208	-91.793	-0.266	-0.076
-538.193	101.208	0.134	-0.156
-537.179	-200.000	-0.018	-0.257
-536.164	127.781	0.107	-0.136
-535.150	800.000	0.026	0.095
-534.135	-103.314	-0.099	-0.023
-533.121	109.012	-0.122	-0.146
-532.106	-112.999	-0.171	-0.034
-531.091	-83.370	-0.072	-0.023
-530.077	-53.048	0.146	0.067
-529.062	-163.944	0.312	-0.015
-528.048	313.724	0.106	-0.200
-527.033	-157.319	0.081	-0.005
-526.018	4.384	0.207	-0.152
-525.004	-105.005	0.040	0.009
-523.989	42.455	0.229	-0.208
-522.975	-200.000	-0.020	-0.102
-521.960	-26.431	-0.092	-0.054
-520.945	280.592	0.116	-0.208
-519.931	-51.464	-0.447	-0.209
-518.916	-40.516	0.065	-0.034
-517.902	-40.007	0.087	-0.045
-516.887	730.649	-0.116	0.310
-515.872	208.668	-0.093	-0.146
-514.858	-102.523	-0.208	-0.050
-513.843	800.000	-0.062	0.178
-512.829	118.253	0.127	0.157
-511.814	800.000	-0.037	0.110
-510.799	-36.116	-0.470	-0.254
-509.785	-200.000	-0.070	0.365
-508.770	-14.996	-0.142	0.091
-507.756	800.000	-0.024	-0.074
-506.741	86.549	-0.159	-0.176
-505.726	212.397	-0.182	-0.287
-504.712	800.000	0.132	0.411
-503.697	800.000	-0.046	0.138
-502.683	-129.392	-0.221	-0.031
-501.668	417.891	-0.069	-0.148
-500.653	-90.190	0.204	0.059
-499.639	-200.000	0.379	-0.001
-498.624	-107.103	-0.177	0.039
-497.610	-58.759	0.216	-0.093
-496.595	556.254	0.030	0.073
-495.581	84.453	-0.129	-0.141
-494.566	43.374	0.236	-0.216
-493.551	800.000	0.063	-0.247
-492.537	-115.088	-0.145	-0.027
-491.522	-200.000	0.027	0.171
-490.508	351.259	0.066	-0.130
-489.493	94.636	-0.178	0.202
-488.478	-137.653	-0.181	-0.020
-487.464	-14.748	-0.084	-0.054
-486.449	523.974	-0.036	0.083
-485.435	-110.295	0.220	-0.046
-484.420	39.995	-0.247	-0.221
-483.405	435.547	-0.177	0.386
-482.391	-200.000	-0.006	-0.142
-481.376	-59.089	0.135	0.058
-480.362	7.194	0.021	-0.016
-479.347	-95.124	-0.227	0.061
-478.332	800.000	-0.126	0.414
-477.318	-200.000	0.045	0.199
-476.303	-23.378	0.163	0.098
-475.289	190.948	-0.059	-0.088
-474.274	-200.000	-0.009	0.251
-473.259	154.360	0.287	-0.394
-472.245	-1.628	0.364	-0.256
-471.230	12.507	0.028	0.022
-470.216	-200.000	-0.004	0.374
-469.201	426.704	-0.044	0.095
-468.186	210.905	0.163	-0.256
-467.172	-111.482	0.140	-0.028
-466.157	8.685	-0.073	-0.055
-465.143	684.351	-0.140	0.364
-464.128	-91.173	-0.063	-0.018
-463.113	739.778	-0.159	-0.425
-462.099	-70.192	0.208	-0.079
-461.084	-11.659	0.415	0.272
-460.070	480.906	0.115	-0.260
-459.055	91.763	-0.085	0.096
-458.040	800.000	0.014	0.051
-457.026	-12.057	-0.322	0.211
-456.011	-139.094	-0.175	-0.019
-454.997	59.636	-0.025	0.024
-453.982	-19.753	0.266	0.164
-452.968	-40.093	-0.205	0.107
-451.953	193.701	-0.155	0.234
-450.938	31.705	0.205	0.176
-449.924	-8.912	0.203	-0.136
-448.909	-183.201	0.185	-0.003
-447.895	800.000	-0.053	0.201
-446.880	-65.894	-0.184	0.073
-445.865	35.998	0.155	0.136
-444.851	-94.123	0.263	0.072
-443.836	-51.683	-0.312	-0.145
-442.822	116.031	-0.027	0.033
-441.807	140.919	-0.294	0.388
-440.792	-1.054	0.042	-0.030
-439.778	-200.000	0.021	0.101
-438.763	202.122	-0.027	-0.041
-437.749	300.263	-0.122	0.225
-436.734	-37.909	-0.414	-0.219
-435.719	474.679	0.114	-0.257
-434.705	-199.668	0.288	-0.001
-433.690	1.204	0.368	-0.264
-432.676	138.548	0.042	-0.055
-431.661	800.000	0.043	0.121
-430.646	-93.858	0.167	0.046
-429.632	487.100	-0.180	-0.409
-428.617	-200.000	0.039	-0.511
-427.603	800.000	-0.060	0.195
-426.588	160.221	0.218	0.303
-425.573	-200.000	0.036	0.183
-424.559	-129.619	0.134	0.018
-423.544	-82.571	0.369	-0.119
-422.530	800.000	0.087	-0.308
-421.515	-167.877	0.145	-0.006
-420.500	-182.746	0.295	-0.005
-419.486	-28.328	0.139	-0.080
-418.471	400.269	0.183	-0.383
-417.457	-81.351	-0.163	-0.053
-416.442	-200.000	0.039	-0.233
-415.428	-134.049	-0.318	-0.039
-414.413	-6.922	-0.226	-0.153
-413.398	536.616	-0.139	0.328
-412.384	-1.981	0.104	-0.073
-411.369	729.562	0.023	0.061
-410.355	-134.220	-0.656	-0.081
-409.340	-200.000	0.001	0.033
-408.325	-55.101	-0.422	0.189
-407.311	262.851	0.138	0.238
-406.296	-16.295	0.189	0.120
-405.282	38.074	0.154	-0.136
-404.267	191.791	0.052	-0.078
-403.252	19.250	-0.100	0.080
-402.238	181.537	0.152	-0.223
-401.223	369.701	-0.064	-0.128
-400.209	-200.000	-0.016	-0.421
-399.194	76.493	0.213	-0.225
-398.179	800.000	-0.095	-0.316
-397.165	800.000	0.056	-0.175
-396.150	-119.950	-0.208	0.036
-395.136	-88.652	-0.147	0.044
-394.121	336.885	0.045	-0.086
-393.106	246.697	0.171	-0.287
-392.092	800.000	-0.204	-0.627
-391.077	7.109	0.262	0.195
-390.063	538.388	0.098	-0.233
-389.048	-200.000	0.015	-0.069
-388.033	-200.000	-0.026	0.198
-387.019	393.120	-0.118	0.245
-386.004	83.005	-0.053	0.057
-384.990	-200.000	-0.021	0.240
-383.975	-61.364	-0.505	-0.211
-382.960	50.203	-0.051	0.048
-381.946	-200.000	-0.005	-0.132
-380.931	262.895	-0.080	-0.138
-379.917	800.000	0.060	0.218
-378.902	224.592	0.118	-0.190
-377.888	-61.362	-0.136	0.057
-376.873	-103.548	-0.172	0.040
-375.858	198.162	0.132	-0.201
-374.844	-187.819	0.276	-0.004
-373.829	-81.514	0.256	-0.084
-372.815	117.840	0.104	0.127
-371.800	30.602	0.122	-0.104
-370.785	-107.782	-0.200	-0.043
-369.771	-173.874	-0.147	0.004
-368.756	-128.031	0.205	-0.029
-367.742	-200.000	0.001	0.294
-366.727	-58.531	-0.142	0.061
-365.712	783.681	-0.008	-0.022
-364.698	355.821	0.189	-0.374
-363.683	-119.451	-0.194	0.034
-362.669	800.000	0.102	0.364
-361.654	800.000	0.018	0.057
-360.639	144.969	-0.066	0.088
-359.625	34.345	0.215	0.187
-358.610	59.260	0.133	0.130
-357.596	800.000	0.039	-0.113
-356.581	-51.775	0.189	-0.087
-355.566	-164.760	-0.057	0.003
-354.552	800.000	0.123	-0.500
-353.537	-37.606	-0.155	0.082
-352.523	127.035	0.158	0.200
-351.508	48.994	0.177	-0.165
-350.493	-200.000	-0.046	0.290
-349.479	-200.000	0.058	0.289
-348.464	-46.735	-0.183	-0.089
-347.450	-81.822	-0.266	-0.086
-346.435	-200.000	0.034	0.170
-345.420	105.640	0.123	-0.145
-344.406	0.144	0.202	0.143
-343.391	-33.052	0.133	0.073
-342.377	2.646	-0.096	-0.069
-341.362	-7.456	-0.283	0.190
-340.348	180.000	-0.252	-0.367
-339.333	-200.000	0.045	0.211
-338.318	-122.799	0.165	-0.026
-337.304	223.193	0.110	0.176
-336.289	-200.000	-0.321	0.001
-335.275	97.073	-0.065	-0.074
-334.260	-19.020	-0.361	0.223
-333.245	54.268	-0.232	0.222
-332.231	504.799	-0.099	0.228
-331.216	-200.000	-0.042	0.275
-330.202	-89.568	0.157	-0.046
-329.187	435.930	-0.117	0.252
-328.172	33.914	-0.112	-0.097
-327.158	-200.000	0.012	0.345
-326.143	-43.931	0.228	0.114
-325.129	63.110	-0.244	-0.243
-324.114	530.535	0.079	0.186
-323.099	51.248	-0.182	0.171
-322.085	-69.413	0.083	-0.032
-321.070	-135.265	0.108	-0.013
-320.056	256.508	0.059	-0.101
-319.041	800.000	-0.097	-0.280
-318.026	-2.233	-0.189	0.131
-317.012	127.994	0.088	0.111
-315.997	-103.587	-0.251	0.058
-314.983	-87.393	0.283	-0.085
-313.968	205.976	-0.139	0.214
-312.953	-74.269	0.436	-0.157
-311.939	-80.684	-0.212	-0.070
-310.924	-90.913	-0.163	0.047
-309.910	133.441	-0.179	-0.230
-308.895	641.801	-0.068	-0.172
-307.880	63.542	-0.136	0.136
-306.866	123.950	-0.173	0.216
-305.851	205.516	0.172	0.266
-304.837	-162.861	-0.512	-0.025
-303.822	-103.184	-0.439	0.103
-302.807	377.352	-0.085	-0.172
-301.793	-200.000	-0.078	0.403
-300.778	107.553	-0.126	0.149
-299.764	-48.462	0.175	0.083
-298.749	76.389	0.177	0.186
-297.735	-67.043	-0.216	0.084
-296.720	-200.000	-0.013	-0.360
-295.705	-200.000	0.054	-0.253
-294.691	-200.000	0.010	0.117
-293.676	-200.000	0.046	0.232
-292.662	-61.545	-0.218	-0.091
-291.647	-75.236	-0.233	0.082
-290.632	-200.000	-0.028	-0.150
-289.618	-56.234	0.280	0.124
-288.603	800.000	0.045	0.137
-287.589	-200.000	-0.011	-0.054
-286.574	-200.000	0.076	-0.366
-285.559	276.364	-0.106	-0.187
-284.545	-96.258	0.110	0.029
-283.530	800.000	0.058	0.209
-282.516	105.205	-0.006	0.008
-281.501	-10.052	-0.428	-0.282
-280.486	-47.707	0.282	0.135
-279.472	108.336	-0.165	-0.195
-278.457	-101.638	0.359	0.086
-277.443	-31.207	0.037	0.021
-276.428	800.000	-0.068	-0.251
-275.413	-70.475	0.365	0.137
-274.399	183.970	0.162	-0.238
-273.384	-98.089	-0.324	-0.083
-272.370	197.764	-0.044	0.067
-271.355	-151.559	-0.104	-0.008
-270.340	-62.101	-0.096	0.040
-269.326	177.077	0.089	0.129
-268.311	185.260	-0.030	0.044
-267.297	-56.068	-0.198	-0.087
-266.282	-124.540	0.124	0.019
-265.267	-105.035	0.137	0.031
-264.253	33.324	-0.315	0.271
-263.238	800.000	0.070	0.301
-262.224	800.000	0.115	0.349
-261.209	718.855	-0.056	-0.148
-260.195	453.382	0.102	-0.224
-259.180	1.147	-0.144	-0.102
-258.165	-44.308	0.243	0.120
-257.151	278.618	-0.128	-0.225
-256.136	99.707	0.268	0.307
-255.122	298.957	0.103	0.188
-254.107	800.000	-0.108	0.312
-253.092	68.404	0.117	-0.119
-252.078	-200.000	0.023	0.182
-251.063	-8.574	0.181	-0.120
-250.049	-200.000	-0.017	0.106
-249.034	-155.777	-0.097	-0.006
-248.019	-78.260	0.029	0.010
-247.005	114.064	-0.230	0.277
-245.990	20.055	-0.117	0.094
-244.976	-126.287	0.089	-0.013
-243.961	-200.000	0.020	-0.255
-242.946	146.820	-0.086	0.115
-241.932	76.940	-0.045	0.047
-240.917	14.967	0.182	0.141
-239.903	-52.255	0.085	0.039
-238.888	-62.781	-0.206	0.084
-237.873	-200.000	-0.050	0.307
-236.859	-157.815	0.241	-0.014
-235.844	800.000	0.057	-0.227
-234.830	-55.212	-0.117	0.052
-233.815	76.892	-0.298	0.313
-232.800	331.878	0.202	0.387
-231.786	-200.000	0.072	-0.356
-230.771	-200.000	-0.011	-0.086
-229.757	-87.356	0.068	0.020
-228.742	-84.286	0.314	-0.099
-227.727	-200.000	0.005	-0.148
-226.713	176.334	-0.053	0.076
-225.698	-200.000	-0.020	-0.167
-224.684	-119.801	-0.091	-0.015
-223.669	-200.000	0.000	0.118
-222.655	-166.026	-0.242	0.010
-221.640	42.208	0.194	0.175
-220.625	364.244	0.072	0.142
-219.611	64.980	-0.298	0.298
-218.596	-93.323	0.349	-0.096
-217.582	-142.263	0.282	-0.028
-216.567	-2.934	-0.274	0.189
-215.552	-200.000	-0.028	-0.343
-214.538	156.493	0.068	0.093
-213.523	158.051	-0.171	-0.235
-212.509	325.509	0.110	0.209
-211.494	-63.559	0.355	0.144
-210.479	800.000	0.113	0.325
-209.465	-200.000	0.013	0.068
-208.450	-165.950	0.139	0.006
-207.436	98.221	-0.022	0.025
-206.421	32.267	-0.131	-0.112
-205.406	800.000	0.083	0.229
-204.392	-84.940	0.290	0.090
-203.377	194.358	0.074	0.111
-202.363	-200.000	0.023	-0.114
-201.348	800.000	-0.047	0.201
-200.333	-200.000	0.065	-0.339
-199.319	163.886	0.191	-0.266
-198.304	44.659	0.375	-0.341
-197.290	-200.000	-0.061	0.268
-196.275	57.128	0.215	0.207
-195.260	-67.452	-0.310	0.120
-194.246	85.952	-0.287	0.312
-193.231	-54.561	0.384	-0.172
-192.217	800.000	0.081	-0.239
-191.202	-175.766	0.195	-0.005
-190.187	83.233	-0.135	-0.145
-189.173	109.647	-0.109	0.129
-188.158	-53.743	-0.180	-0.081
-187.144	55.164	0.220	-0.210
-186.129	-109.911	0.218	-0.045
-185.114	20.813	0.373	-0.299
-184.100	-38.598	0.127	-0.066
-183.085	11.499	0.331	0.251
-182.071	117.201	0.273	0.331
-181.056	-149.425	0.314	0.025
-180.042	61.759	-0.016	0.015
-179.027	320.442	0.107	-0.200
-178.012	-113.406	0.198	-0.038
-176.998	-18.323	-0.103	-0.064
-175.983	-76.429	0.186	-0.065
-174.969	-15.808	0.061	0.038
-173.954	63.654	-0.181	0.180
-172.939	732.302	0.034	-0.089
-171.925	164.373	-0.211	0.293
-170.910	32.826	-0.072	-0.062
-169.896	-79.247	0.150	0.050
-168.881	-117.324	-0.040	-0.007
-167.866	800.000	0.076	0.216
-166.852	2.190	-0.244	0.174
-165.837	145.496	-0.138	0.183
-164.823	-130.336	0.152	-0.020
-163.808	-200.000	-0.035	-0.185
-162.793	-29.606	0.140	0.079
-161.779	4.669	-0.332	-0.241
-160.764	732.466	-0.074	0.195
-159.750	-46.524	-0.112	-0.054
-158.735	383.882	0.172	-0.350
-157.720	-59.295	0.296	0.126
-156.706	-115.960	0.499	-0.092
-155.691	-127.905	0.262	-0.037
-154.677	-200.000	0.020	0.163
-153.662	-20.922	0.120	0.073
-152.647	-200.000	0.026	0.155
-151.633	325.644	0.152	0.287
-150.618	-169.036	0.291	0.011
-149.604	592.494	0.054	0.132
-148.589	-53.869	0.083	-0.037
-147.574	-57.473	-0.329	0.142
-146.560	-135.322	0.132	0.016
-145.545	-68.233	0.435	-0.167
-144.531	46.702	0.275	-0.252
-143.516	516.018	-0.132	0.305
-142.502	30.343	-0.152	-0.128
-141.487	14.602	0.262	0.202
-140.472	-78.672	0.266	-0.089
-139.458	-135.986	-0.076	0.009
-138.443	81.364	0.106	0.113
-137.429	-200.000	-0.008	-0.127
-136.414	-85.202	0.169	0.052
-135.399	302.730	-0.154	0.281
-134.385	45.827	0.141	-0.129
-133.370	-65.418	0.302	-0.120
-132.356	800.000	-0.072	-0.201
-131.341	269.311	-0.018	0.031
-130.326	250.915	-0.017	0.029
-129.312	-63.616	0.090	-0.036
-128.297	237.106	-0.158	-0.257
-127.283	332.025	0.191	-0.363
-126.268	-174.915	-0.306	0.008
-125.253	100.596	0.067	-0.076
-124.239	-83.786	-0.201	-0.063
-123.224	370.185	0.156	0.311
-122.210	-200.000	0.008	-0.067
-121.195	201.022	0.165	-0.250
-120.180	225.501	0.070	0.112
-119.166	-180.719	-0.109	0.002
-118.151	-200.000	-0.009	0.163
-117.137	-42.544	-0.120	-0.060
-116.122	-90.425	-0.188	0.054
-115.107	-138.247	0.351	-0.038
-114.093	120.309	0.207	-0.253
-113.078	64.938	0.150	0.149
-112.064	800.000	0.058	0.206
-111.049	-73.401	-0.245	-0.088
-110.034	-42.403	-0.102	-0.051
-109.020	-99.508	0.025	-0.006
-108.005	-83.030	0.350	0.111
-106.991	40.413	0.333	-0.295
-105.976	495.829	0.022	-0.050
-104.962	800.000	-0.036	0.113
-103.947	-155.496	-0.168	-0.011
-102.932	-200.000	0.022	0.096
-101.918	749.386	-0.121	0.320
-100.903	-200.000	-0.007	-0.156
-99.889	125.498	-0.117	0.146
-98.874	156.660	0.033	0.045
-97.859	-64.618	0.219	0.087
-96.845	-108.865	-0.205	-0.043
-95.830	-75.548	0.136	0.048
-94.816	-10.896	0.161	-0.105
-93.801	-139.123	0.352	0.037
-92.786	-200.000	-0.033	0.225
-91.772	-88.045	0.144	-0.043
-90.757	-38.846	0.168	0.087
-89.743	111.123	-0.177	0.209
-88.728	-109.477	-0.147	0.031
-87.713	109.016	-0.087	-0.102
-86.699	424.208	-0.171	0.362
-85.684	800.000	0.102	0.426
-84.670	449.665	-0.093	-0.202
-83.655	-200.000	-0.017	0.107
-82.640	71.306	0.099	-0.101
-81.626	800.000	-0.081	0.288
-80.611	62.583	0.206	0.203
-79.597	-200.000	-0.023	-0.257
-78.582	-200.000	0.005	0.173
-77.567	214.199	0.038	-0.059
-76.553	-19.374	0.172	-0.105
-75.538	800.000	0.061	-0.233
-74.524	35.754	0.158	0.137
-73.509	800.000	-0.083	0.258
-72.494	800.000	-0.091	0.323
-71.480	-128.696	-0.115	0.016
-70.465	74.926	0.127	0.131
-69.451	800.000	0.054	0.220
-68.436	-153.392	0.078	0.005
-67.422	-67.812	-0.121	0.046
-66.407	-52.523	-0.301	-0.137
-65.392	218.813	-0.019	0.030
-64.378	-48.899	0.370	0.174
-63.363	34.763	0.246	-0.212
-62.349	-56.681	-0.062	-0.027
-61.334	156.688	-0.887	-1.204
-60.319	24.330	0.461	0.374
-59.305	771.649	-0.411	-1.100
-58.290	127.064	0.850	1.060
-57.276	800.000	0.341	1.397
-56.261	-200.000	103.107	599.254
-55.246	561.701	1438.401	3417.733
-54.232	186.592	2627.704	3844.154
-53.217	116.649	2169.025	2614.339
-52.203	41.250	1697.131	1507.330
-51.188	33.611	1506.595	1286.485
-50.173	31.261	1479.152	1247.322
-49.159	51.970	1533.211	1434.317
-48.144	52.776	1550.403	1455.825
-47.130	33.796	1507.755	1288.523
-46.115	30.792	1492.512	1255.225
-45.100	30.626	1488.716	1250.867
-44.086	30.483	1487.420	1248.773
-43.071	30.523	1484.688	1246.699
-42.057	30.421	1483.680	1245.116
-41.042	30.503	1481.632	1243.896
-40.027	30.601	1480.102	1243.218
-39.013	30.462	1478.993	1241.306
-37.998	30.480	1477.425	1240.063
-36.984	30.525	1476.343	1239.403
-35.969	30.497	1474.514	1237.636
-34.954	30.472	1473.762	1236.789
-33.940	30.457	1472.286	1235.403
-32.925	30.539	1470.778	1234.630
-31.911	30.568	1469.613	1233.795
-30.896	30.537	1468.673	1232.751
-29.881	30.659	1467.208	1232.283
-28.867	30.648	1465.630	1230.837
-27.852	30.506	1464.646	1229.020
-26.838	30.588	1462.828	1227.986
-25.823	30.644	1461.337	1227.059
-24.809	30.572	1459.753	1225.206
-23.794	30.538	1458.333	1223.737
-22.779	30.507	1457.726	1222.979
-21.765	30.647	1456.401	1222.738
-20.750	30.519	1455.840	1221.380
-19.736	30.525	1454.413	1220.171
-18.721	30.474	1453.322	1218.874
-17.706	30.495	1452.162	1217.992
-16.692	30.448	1451.574	1217.141
-15.677	30.493	1450.497	1216.485
-14.663	30.611	1448.324	1215.385
-13.648	30.505	1447.723	1214.139
-12.633	30.485	1447.572	1213.836
-11.619	30.454	1446.733	1212.882
-10.604	30.454	1445.466	1211.767
-9.590	30.417	1444.854	1210.964
-8.575	30.373	1444.298	1210.165
-7.560	30.421	1442.679	1209.071
-6.546	30.368	1442.398	1208.443
-5.531	30.352	1441.524	1207.564
-4.517	30.349	1440.723	1206.821
-3.502	30.409	1439.319	1205.989
-2.487	30.430	1438.279	1205.207
-1.473	30.390	1437.482	1204.231
-0.458	30.494	1435.824	1203.465
0.556	29.310	1426.627	1192.227
1.571	26.580	1402.107	1154.257
2.586	23.425	1344.274	1087.228
3.600	21.728	1264.357	1012.704
4.615	20.298	1219.509	968.718
5.629	17.818	1163.808	911.162
6.644	10.917	1082.288	812.879
7.659	5.696	1044.414	759.128
8.673	5.023	1038.680	751.649
9.688	4.891	1036.069	749.057
10.702	4.694	1034.896	747.197
11.717	4.882	1032.141	746.042
12.731	6.748	1034.407	756.562
13.746	13.335	1043.273	794.724
14.761	18.302	1049.248	823.149
15.775	18.416	1048.591	823.106
16.790	17.530	1045.819	816.609
17.804	16.289	1044.184	809.315
18.819	15.362	1042.280	803.333
19.834	15.098	1040.567	800.679
20.848	14.812	1040.071	798.858
21.863	14.532	1039.571	797.067
22.877	14.310	1038.526	795.135
23.892	14.208	1037.275	793.622
24.907	14.098	1036.634	792.537
25.921	13.975	1036.525	791.795
26.936	14.073	1035.280	791.242
27.950	14.042	1034.152	790.159
28.965	14.197	1033.243	790.133
29.980	14.130	1032.258	788.991
30.994	14.359	1030.369	788.564
32.009	14.426	1029.766	788.346
33.023	14.463	1028.963	787.838
34.038	14.444	1028.586	787.390
35.053	14.234	1027.643	785.610
36.067	14.208	1026.587	784.607
37.082	14.218	1025.550	783.792
38.096	14.212	1025.041	783.307
39.111	14.291	1024.348	783.081
40.126	14.323	1023.163	782.253
41.140	14.319	1021.993	781.273
42.155	14.296	1020.683	780.092
43.169	13.995	1019.908	778.025
44.184	13.962	1019.032	777.134
45.199	13.939	1018.051	776.209
46.213	14.064	1016.610	775.622
47.228	14.060	1015.886	774.983
48.242	14.120	1015.019	774.533
49.257	14.164	1014.568	774.324
50.271	14.254	1012.867	773.379
51.286	14.171	1012.297	772.488
52.301	14.175	1011.451	771.794
53.315	14.202	1010.706	771.280
54.330	14.223	1009.408	770.321
55.344	14.078	1009.285	769.485
56.359	14.099	1008.086	768.603
57.374	14.035	1007.391	767.707
58.388	14.209	1006.064	767.432
59.403	13.999	1005.762	766.167
60.417	13.881	1005.178	765.106
61.432	14.037	1003.698	764.631
62.447	14.041	1003.183	764.191
63.461	13.971	1002.216	763.065
64.476	13.871	1001.215	761.777
65.490	13.843	1000.528	761.059
66.505	13.960	999.561	760.793
67.520	13.979	998.590	760.073
68.534	13.891	998.672	759.664
69.549	13.970	997.648	759.178
70.563	13.993	996.558	758.386
71.578	13.957	996.075	757.786
72.593	13.881	995.164	756.681
73.607	13.766	993.962	755.175
74.622	13.747	993.507	754.678
75.636	13.784	992.361	753.909
76.651	13.858	991.565	753.573
77.666	13.808	991.300	753.078
78.680	13.854	990.069	752.283
79.695	13.873	990.022	752.269
80.709	13.799	989.463	751.445
81.724	13.939	988.545	751.314
82.739	14.004	987.665	750.873
83.753	13.992	987.057	750.289
84.768	14.085	986.306	750.070
85.782	14.212	985.701	750.117
86.797	14.312	985.174	750.099
87.812	14.230	984.296	748.996
88.826	14.153	983.424	747.920
89.841	14.141	982.539	747.127
90.855	14.218	981.750	746.805
91.870	14.259	981.059	746.397
92.884	14.254	980.424	745.828
93.899	14.332	979.882	745.699
94.914	14.394	978.654	744.973
95.928	14.405	978.023	744.476
96.943	14.493	977.084	744.090
97.957	14.251	976.681	742.639
98.972	14.350	975.643	742.224
99.987	14.397	974.776	741.707
101.001	14.344	974.193	740.961
102.016	14.357	973.704	740.582
103.030	14.298	972.826	739.587
104.045	14.259	971.403	738.267
105.060	14.261	970.775	737.735
106.074	14.342	969.509	737.063
107.089	14.086	968.640	735.207
108.103	14.100	968.224	734.887
109.118	13.959	967.375	733.557
110.133	14.064	966.042	732.943
111.147	13.995	965.500	732.163
112.162	14.078	964.576	731.761
113.176	14.074	963.693	731.011
114.191	14.196	962.716	730.740
115.206	14.111	962.005	729.764
116.220	14.281	960.990	729.672
117.235	14.158	960.202	728.472
118.249	14.117	959.649	727.810
119.264	14.135	958.716	727.117
120.279	13.923	958.383	725.871
121.293	14.025	957.405	725.514
122.308	14.103	956.223	724.892
123.322	13.983	955.915	724.071
124.337	13.918	954.658	722.775
125.352	13.972	953.410	721.997
126.366	13.939	953.017	721.493
127.381	14.018	951.503	720.628
128.395	13.909	950.991	719.702
129.410	14.004	949.909	719.232
130.424	13.999	948.956	718.423
131.439	14.047	948.234	718.020
132.454	14.167	947.454	717.887
133.468	14.161	946.722	717.243
134.483	14.036	946.048	716.130
135.497	14.195	945.607	716.417
136.512	14.083	944.842	715.291
137.527	14.017	944.396	714.606
138.541	14.114	942.845	713.788
139.556	14.114	942.192	713.227
140.570	14.233	941.208	712.931
141.585	14.203	940.831	712.455
142.600	14.244	940.250	712.124
143.614	14.403	939.180	711.932
144.629	14.420	938.855	711.694
145.643	14.319	938.028	710.574
146.658	14.438	937.115	710.328
147.673	14.425	936.154	709.479
148.687	14.272	935.455	708.239
149.702	14.145	934.983	707.279
150.716	14.095	934.139	706.365
151.731	14.255	932.921	706.060
152.746	14.158	932.677	705.399
153.760	14.207	931.303	704.506
154.775	14.244	930.854	704.262
155.789	14.360	929.794	703.886
156.804	14.285	929.579	703.345
157.819	14.401	928.432	702.902
158.833	14.339	928.229	702.429
159.848	14.420	927.630	702.254
160.862	14.498	926.564	701.711
161.877	14.554	925.724	701.250
162.892	14.361	925.269	700.031
163.906	14.243	924.406	698.820
164.921	14.220	923.230	697.775
165.935	14.244	922.368	697.160
166.950	14.320	921.196	696.530
167.964	14.453	920.280	696.332
168.979	14.381	919.327	695.249
169.994	14.460	918.146	694.626
171.008	14.357	917.538	693.674
172.023	14.406	916.961	693.379
173.037	14.385	916.334	692.756
174.052	14.534	915.187	692.449
175.067	14.546	914.952	692.257
176.081	14.430	914.227	691.166
177.096	14.343	913.153	689.936
178.110	14.354	912.563	689.474
179.125	14.226	912.072	688.513
180.140	14.349	911.305	688.379
181.154	14.509	910.061	688.042
182.169	14.557	909.440	687.708
183.183	14.523	909.041	687.205
184.198	14.514	908.486	686.686
185.213	14.711	907.539	686.719
186.227	14.704	906.989	686.217
187.242	14.709	906.783	686.020
188.256	14.612	906.296	685.192
189.271	14.749	904.779	684.546
190.286	14.752	904.411	684.217
191.300	14.587	903.653	682.909
192.315	14.483	902.857	681.822
193.329	14.265	902.354	680.492
194.344	14.387	901.577	680.342
195.359	14.322	900.877	679.491
196.373	14.479	900.835	680.037
197.388	14.731	899.605	680.076
198.402	14.663	899.436	679.610
199.417	14.916	898.979	680.235
200.432	14.815	898.997	679.778
201.446	14.914	898.347	679.627
202.461	15.027	897.880	679.674
203.475	15.039	897.383	679.286
204.490	14.915	896.781	678.268
205.504	14.855	895.792	677.215
206.519	14.891	894.637	676.428
207.534	14.877	894.125	675.925
208.548	14.938	893.009	675.269
209.563	14.822	892.915	674.668
210.577	14.818	892.174	674.033
211.592	14.719	891.686	673.206
212.607	15.065	890.974	674.004
213.621	15.071	890.782	673.820
214.636	15.049	889.786	672.920
215.650	15.013	889.004	672.125
216.665	15.059	888.729	672.040
217.680	14.941	888.248	671.146
218.694	15.063	887.991	671.381
219.709	15.140	887.424	671.200
220.723	15.150	886.636	670.584
221.738	15.049	886.076	669.699
222.753	15.166	885.122	669.388
223.767	14.982	884.629	668.218
224.782	15.114	883.667	667.961
225.796	15.239	883.035	667.920
226.811	15.208	882.538	667.361
227.826	15.255	881.474	666.687
228.840	15.270	880.841	666.207
229.855	15.170	880.362	665.389
230.869	15.247	879.568	665.035
231.884	15.192	879.237	664.510
232.899	15.022	878.602	663.296
233.913	15.144	877.579	662.950
234.928	15.109	877.158	662.433
235.942	15.039	876.672	661.731
236.957	15.080	875.568	661.002
237.972	15.192	875.012	660.966
238.986	14.971	874.525	659.668
240.001	15.087	873.684	659.431
241.015	15.121	872.895	658.913
242.030	15.119	872.501	658.548
243.045	15.229	872.143	658.652
244.059	15.284	871.398	658.248
245.074	15.213	870.840	657.489
246.088	15.366	869.959	657.366
247.103	15.445	869.606	657.348
248.117	15.444	869.070	656.882
249.132	15.642	868.588	657.234
250.147	15.604	868.017	656.593
251.161	15.670	867.122	656.118
252.176	15.752	866.798	656.133
253.190	15.811	866.069	655.755
254.205	15.750	865.512	655.037
255.220	15.804	864.907	654.730
256.234	15.835	864.176	654.242
257.249	15.823	863.659	653.745
258.263	15.827	863.114	653.288
259.278	15.731	862.925	652.715
260.293	15.866	862.181	652.618
261.307	15.806	861.848	652.078
262.322	15.937	860.932	651.834
263.336	15.930	860.375	651.325
264.351	15.963	859.967	651.088
265.366	15.943	859.134	650.320
266.380	15.943	858.734	649.963
267.395	15.911	858.203	649.378
268.409	15.932	857.267	648.694
269.424	15.899	856.584	647.991
270.439	16.077	855.919	648.115
271.453	15.895	855.078	646.724
272.468	15.752	854.507	645.687
273.482	15.891	853.454	645.365
274.497	15.879	853.298	645.145
275.512	15.977	852.452	644.823
276.526	15.893	851.899	644.026
277.541	15.863	851.279	643.386
278.555	15.875	851.130	643.263
279.570	16.126	849.893	643.227
280.585	16.061	849.736	642.805
281.599	16.062	849.092	642.266
282.614	16.191	848.216	642.034
283.628	15.998	847.931	641.028
284.643	16.047	847.288	640.672
285.657	16.096	846.883	640.495
286.672	16.121	846.382	640.156
287.687	16.219	845.689	639.947
288.701	16.165	845.196	639.313
289.716	16.190	844.786	639.041
290.730	16.162	843.738	638.083
291.745	16.191	843.504	637.960
292.760	16.110	843.071	637.270
293.774	16.178	842.214	636.822
294.789	16.341	841.599	636.916
295.803	16.280	840.993	636.170
296.818	16.229	840.341	635.431
297.833	16.277	839.863	635.193
298.847	16.160	838.993	634.040
299.862	16.261	838.339	633.870
300.876	16.190	837.703	633.065
301.891	16.236	837.125	632.746
302.906	16.325	836.803	632.779
303.920	16.427	835.848	632.383
304.935	16.508	834.812	631.844
305.949	16.602	834.653	632.020
306.964	16.602	833.921	631.410
307.979	16.420	833.515	630.366
308.993	16.511	833.146	630.373
310.008	16.508	832.486	629.805
311.022	16.662	832.302	630.185
312.037	16.658	831.555	629.547
313.052	16.444	830.764	628.098
314.066	16.499	830.204	627.823
315.081	16.337	829.651	626.748
316.095	16.486	829.141	626.859
317.110	16.476	828.624	626.376
318.125	16.562	827.730	625.962
319.139	16.494	827.443	625.439
320.154	16.533	827.025	625.213
321.168	16.379	826.686	624.334
322.183	16.509	826.092	624.310
323.197	16.400	825.721	623.572
324.212	16.629	824.729	623.610
325.227	16.603	824.340	623.167
326.241	16.588	823.840	622.675
327.256	16.563	823.082	621.956
328.270	16.578	822.643	621.627
329.285	16.604	822.085	621.246
330.300	16.553	821.603	620.637
331.314	16.476	821.026	619.866
332.329	16.544	820.232	619.460
333.343	16.698	819.843	619.676
334.358	16.666	819.445	619.202
335.373	16.708	818.612	618.672
336.387	16.698	818.577	618.553
337.402	16.788	817.802	618.242
338.416	16.810	817.402	617.965
339.431	16.916	816.899	617.915
340.446	16.883	816.133	617.163
341.460	16.865	815.708	616.721
342.475	17.053	815.460	617.161
343.489	17.099	814.647	616.660
344.504	16.916	814.252	615.640
345.519	17.111	813.352	615.615
346.533	17.199	813.048	615.649
347.548	17.060	812.823	614.917
348.562	17.002	812.156	614.150
349.577	17.105	811.222	613.761
350.592	17.096	810.670	613.258
351.606	16.823	810.688	612.230
352.621	16.992	809.840	612.145
353.635	16.974	809.293	611.612
354.650	17.017	809.226	611.664
355.665	17.072	809.074	611.692
356.679	17.005	808.693	611.108
357.694	17.059	807.840	610.605
358.708	17.042	807.244	610.038
359.723	17.127	806.751	609.917
360.738	17.088	806.159	609.276
361.752	16.882	805.936	608.315
362.767	17.037	805.603	608.567
363.781	17.225	805.250	608.919
364.796	17.331	804.566	608.726
365.810	17.249	804.555	608.371
366.825	17.311	803.815	607.980
367.840	17.293	803.749	607.811
368.854	17.484	802.916	607.809
369.869	17.520	802.531	607.593
370.883	17.460	801.821	606.788
371.898	17.359	801.668	606.261
372.913	17.342	800.857	605.530
373.927	17.399	800.025	605.051
374.942	17.362	799.414	604.405
375.956	17.423	799.043	604.287
376.971	17.463	798.464	603.937
377.986	17.554	797.994	603.852
379.000	17.594	797.742	603.749
380.015	17.615	797.211	603.368
381.029	17.683	796.617	603.106
382.044	17.555	796.251	602.323
383.059	17.626	795.191	601.717
384.073	17.744	794.719	601.724
385.088	17.696	794.213	601.118
386.102	17.570	793.781	600.294
387.117	17.493	793.441	599.714
388.132	17.453	792.925	599.129
389.146	17.514	792.484	598.957
390.161	17.596	792.065	598.876
391.175	17.621	791.675	598.616
392.190	17.673	791.123	598.328
393.205	17.699	790.663	598.020
394.219	17.560	790.598	597.428
395.234	17.661	789.717	597.064
396.248	17.572	789.244	596.340
397.263	17.586	788.771	595.981
398.278	17.454	788.384	595.174
399.292	17.544	788.071	595.201
400.307	17.543	787.788	594.929
401.321	17.492	787.363	594.380
402.336	17.675	786.660	594.432
403.350	17.669	786.603	594.315
404.365	17.677	785.666	593.584
405.380	17.867	785.323	593.935
406.394	17.927	785.165	593.970
407.409	17.859	784.641	593.284
408.423	17.968	784.205	593.280
409.438	18.021	783.289	592.721
410.453	17.824	783.261	591.963
411.467	18.063	783.130	592.641
412.482	18.060	782.769	592.303
413.496	18.185	781.797	591.947
414.511	18.168	781.831	591.865
415.526	18.083	781.511	591.276
416.540	18.118	781.198	591.108
417.555	18.218	780.604	590.951
418.569	18.044	780.412	590.151
419.584	18.161	779.531	589.837
420.599	18.166	779.180	589.536
421.613	157.411	1369.173	1796.947
422.628	135.850	1455.135	1797.032
