DTS Sentinel unit serial number:	SN413079Multiplexer serial number:	ORYXHardware model number:	OX4-SRSoftware version number:	ORYX F/W v4.00 Oryx Data Collector v3.7.2.0data status	okinstallation	princeton_trtdifferential loss correction	single-endedforward channel	channel 3reverse channel	N/Adate	2019/09/12time	11:54:11forward acquisition time	60.00reverse acquisition time	0.00gamma	496.2192k internal	0.2293k external	0.2293temperature offset calibration	1.0039default loss term (dB/km)	0.3790temperature slope calibration	1.0000multiplexer offset coefficient	1.0000multiplexer slope coefficient	1.0000fibre end	0.00T internal ref (°C)	40.11T ext. ref 1 (°C)	2.02T ext. ref 2 (°C)	37.58length (m)	temperature (°C)	Stokes	anti-Stokes-747.200	7.887	-0.116	-0.089
-746.185	-0.472	0.172	0.125
-745.171	-86.861	-0.429	0.134
-744.156	-127.545	-0.204	-0.030
-743.142	-36.217	-0.318	-0.176
-742.127	800.000	-0.078	0.311
-741.112	-165.026	0.332	-0.015
-740.098	19.409	0.096	-0.079
-739.083	-108.150	0.271	0.060
-738.069	-105.183	-0.249	0.058
-737.054	-106.510	-0.279	0.064
-736.039	-97.393	-0.354	0.094
-735.025	800.000	-0.048	0.202
-734.010	-140.200	0.015	0.002
-732.996	-28.171	-0.450	-0.266
-731.981	-43.184	0.071	0.037
-730.966	39.695	-0.140	0.129
-729.952	-144.675	-0.090	-0.008
-728.937	70.892	0.162	-0.171
-727.923	108.047	-0.331	-0.404
-726.908	800.000	0.054	-0.208
-725.894	269.862	-0.208	0.373
-724.879	112.078	-0.066	-0.081
-723.864	709.667	-0.167	-0.451
-722.850	800.000	-0.025	-0.083
-721.835	-133.004	0.133	-0.017
-720.821	-90.698	-0.054	-0.016
-719.806	181.000	0.061	-0.091
-718.791	39.893	0.162	-0.148
-717.777	738.438	0.126	-0.345
-716.762	445.746	0.065	-0.145
-715.748	-95.165	0.266	-0.073
-714.733	80.745	0.167	-0.184
-713.718	48.495	-0.166	-0.159
-712.704	-32.702	0.285	0.162
-711.689	-112.020	0.165	-0.034
-710.675	4.303	-0.203	-0.152
-709.660	-166.985	0.074	0.003
-708.645	-131.041	0.049	0.007
-707.631	176.677	-0.098	0.145
-706.616	-200.000	-0.047	0.251
-705.602	132.771	0.285	-0.375
-704.587	35.550	-0.082	-0.073
-703.572	214.665	0.089	-0.145
-702.558	550.772	0.133	-0.326
-701.543	239.641	-0.264	0.448
-700.529	-200.000	-0.014	-0.118
-699.514	-38.839	0.566	0.305
-698.499	121.185	0.125	-0.159
-697.485	-100.016	0.241	-0.061
-696.470	8.551	0.201	-0.154
-695.456	-200.000	0.069	-0.335
-694.441	-12.986	-0.246	-0.164
-693.426	-51.980	-0.189	-0.090
-692.412	281.985	-0.066	-0.121
-691.397	-57.655	-0.245	0.110
-690.383	-94.314	-0.101	-0.028
-689.368	800.000	0.073	-0.256
-688.354	-152.268	-0.024	-0.002
-687.339	-200.000	-0.018	0.340
-686.324	68.711	0.215	0.226
-685.310	-78.739	0.225	-0.078
-684.295	-200.000	0.013	0.144
-683.281	-108.090	0.092	0.020
-682.266	-18.582	-0.106	0.067
-681.251	26.686	-0.184	-0.157
-680.237	-154.687	-0.251	-0.017
-679.222	800.000	0.124	-0.401
-678.208	380.421	-0.108	-0.227
-677.193	212.765	0.120	-0.192
-676.178	-80.071	0.188	0.064
-675.164	-200.000	0.011	0.059
-674.149	-102.047	0.216	-0.053
-673.135	-153.500	-0.347	-0.025
-672.120	243.920	0.076	0.130
-671.105	62.639	0.083	0.084
-670.091	800.000	-0.039	0.158
-669.076	-152.868	-0.080	-0.006
-668.062	36.279	0.118	0.106
-667.047	281.855	0.114	-0.208
-666.032	89.518	-0.218	-0.248
-665.018	-9.456	0.025	0.017
-664.003	-22.970	-0.154	-0.095
-662.989	-200.000	0.004	-0.146
-661.974	-200.000	-0.024	-0.110
-660.959	-171.996	0.077	-0.003
-659.945	-51.742	0.306	0.145
-658.930	-200.000	0.037	-0.219
-657.916	475.266	-0.104	-0.239
-656.901	-34.291	0.184	-0.103
-655.886	-12.092	-0.158	-0.106
-654.872	51.234	-0.142	-0.137
-653.857	-49.168	-0.052	0.026
-652.843	239.020	0.121	-0.205
-651.828	-200.000	-0.058	-0.400
-650.814	201.651	0.132	0.207
-649.799	28.020	-0.262	0.225
-648.784	-54.389	-0.181	0.084
-647.770	77.827	0.318	-0.345
-646.755	398.722	-0.217	-0.462
-645.741	-138.007	-0.265	0.030
-644.726	95.400	0.153	0.178
-643.711	55.072	-0.181	-0.178
-642.697	404.121	0.027	0.057
-641.682	-50.673	0.243	-0.117
-640.668	267.367	-0.140	0.250
-639.653	-200.000	0.021	0.345
-638.638	-92.344	0.097	-0.028
-637.624	412.829	0.078	0.170
-636.609	-144.358	0.166	-0.016
-635.595	-59.832	-0.142	0.062
-634.580	800.000	0.074	-0.264
-633.565	-118.378	-0.262	-0.047
-632.551	18.713	-0.161	-0.131
-631.536	-33.971	-0.136	0.076
-630.522	121.826	-0.105	-0.133
-629.507	24.271	-0.249	0.210
-628.492	-16.088	0.154	-0.099
-627.478	40.580	0.136	-0.125
-626.463	-17.734	-0.085	-0.054
-625.449	-200.000	0.043	-0.338
-624.434	136.321	-0.019	-0.026
-623.419	417.497	0.083	-0.181
-622.405	-64.020	-0.025	-0.010
-621.390	148.512	0.088	0.121
-620.376	-27.091	0.224	-0.133
-619.361	516.440	0.158	-0.376
-618.346	143.453	-0.067	-0.091
-617.332	233.340	-0.186	-0.311
-616.317	52.709	0.097	-0.095
-615.303	181.270	-0.109	0.163
-614.288	74.084	-0.091	0.097
-613.273	411.539	-0.173	0.374
-612.259	21.822	0.133	0.110
-611.244	-200.000	0.014	0.165
-610.230	117.177	-0.138	0.173
-609.215	184.889	-0.079	-0.119
-608.201	-97.952	0.299	0.079
-607.186	787.347	0.088	-0.247
-606.171	423.888	-0.144	0.314
-605.157	48.530	-0.168	-0.160
-604.142	800.000	-0.031	0.105
-603.128	-200.000	-0.124	0.632
-602.113	200.910	0.094	-0.147
-601.098	127.859	-0.082	0.106
-600.084	93.211	-0.172	-0.198
-599.069	-137.153	-0.200	0.023
-598.055	698.475	0.117	0.313
-597.040	-200.000	0.034	-0.295
-596.025	-108.807	0.521	0.113
-595.011	412.967	-0.096	0.208
-593.996	-125.875	-0.144	-0.022
-592.982	-0.160	0.127	0.092
-591.967	193.142	-0.207	-0.318
-590.952	-49.840	0.130	0.063
-589.938	-1.920	-0.246	0.176
-588.923	-200.000	0.000	-0.289
-587.909	-47.448	-0.091	-0.045
-586.894	-5.574	0.096	-0.067
-585.879	-45.108	0.185	0.094
-584.865	-200.000	-0.008	0.133
-583.850	183.110	-0.167	-0.251
-582.836	-132.226	-0.233	-0.031
-581.821	113.958	-0.233	-0.288
-580.806	-145.059	0.309	-0.029
-579.792	-39.778	-0.163	0.087
-578.777	-13.464	-0.104	0.068
-577.763	271.623	-0.018	-0.032
-576.748	-200.000	0.018	0.152
-575.733	-45.443	-0.414	-0.208
-574.719	62.334	0.135	-0.137
-573.704	457.173	-0.119	-0.268
-572.690	-36.713	-0.201	0.109
-571.675	-144.066	-0.377	-0.036
-570.661	48.134	0.281	0.267
-569.646	-200.000	-0.247	0.000
-568.631	800.000	0.071	0.212
-567.617	-2.910	0.175	-0.124
-566.602	-200.000	0.020	-0.167
-565.588	34.734	0.168	-0.150
-564.573	-79.469	-0.159	0.055
-563.558	-112.594	0.129	-0.026
-562.544	-120.670	0.210	-0.036
-561.529	71.016	-0.141	-0.149
-560.515	53.603	0.183	0.178
-559.500	-63.557	0.291	0.121
-558.485	800.000	0.064	-0.259
-557.471	-200.000	-0.022	-0.117
-556.456	-200.000	0.052	0.266
-555.442	-62.218	-0.192	-0.081
-554.427	-132.575	0.227	0.030
-553.412	105.416	0.197	-0.237
-552.398	-40.089	-0.147	-0.078
-551.383	53.308	0.098	-0.095
-550.369	-200.000	-0.018	-0.240
-549.354	19.025	-0.225	-0.183
-548.339	66.107	-0.151	0.155
-547.325	-61.111	0.350	0.150
-546.310	800.000	-0.090	0.290
-545.296	608.255	0.088	0.224
-544.281	-66.950	0.402	0.161
-543.266	-77.013	0.054	0.019
-542.252	800.000	0.077	-0.218
-541.237	504.178	0.080	-0.187
-540.223	-42.684	-0.222	0.115
-539.208	-126.405	-0.256	0.039
-538.193	-118.339	-0.395	0.071
-537.179	290.819	0.110	0.202
-536.164	-75.268	-0.157	0.057
-535.150	132.137	-0.062	-0.081
-534.135	148.488	-0.059	-0.080
-533.121	-200.000	-0.001	-0.142
-532.106	800.000	-0.157	-0.481
-531.091	-200.000	-0.036	0.191
-530.077	419.819	0.084	-0.181
-529.062	-115.421	0.336	0.064
-528.048	97.690	-0.031	-0.037
-527.033	-121.952	-0.148	0.025
-526.018	516.875	0.026	0.061
-525.004	-76.924	0.179	-0.063
-523.989	-29.775	0.185	0.107
-522.975	-106.076	-0.214	-0.049
-521.960	-64.792	0.086	-0.035
-520.945	-101.898	0.190	0.047
-519.931	-36.495	0.136	-0.074
-518.916	800.000	-0.035	-0.100
-517.902	-74.826	-0.232	-0.084
-516.887	-126.057	-0.453	-0.069
-515.872	-200.000	0.020	-0.187
-514.858	-63.143	-0.209	0.087
-513.843	-113.831	-0.097	-0.019
-512.829	525.972	-0.163	-0.389
-511.814	398.324	0.123	-0.262
-510.799	148.003	-0.123	0.168
-509.785	-106.931	0.155	-0.035
-508.770	-14.980	-0.237	-0.154
-507.756	542.987	-0.097	-0.235
-506.741	30.192	-0.099	0.086
-505.726	-116.676	-0.022	0.004
-504.712	138.680	0.039	0.052
-503.697	-200.000	-0.018	-0.170
-502.683	-200.000	-0.048	0.350
-501.668	-200.000	-0.017	0.180
-500.653	-55.867	0.146	-0.066
-499.639	-106.793	-0.175	-0.039
-498.624	-63.310	0.152	0.063
-497.610	-37.252	-0.224	0.121
-496.595	16.130	0.215	0.172
-495.581	800.000	0.109	0.431
-494.566	-200.000	-0.012	0.137
-493.551	800.000	0.022	-0.091
-492.537	-61.348	-0.264	-0.113
-491.522	59.670	-0.194	-0.194
-490.508	51.861	-0.141	0.136
-489.493	-200.000	-0.016	-0.088
-488.478	-169.746	0.094	-0.003
-487.464	-42.161	-0.137	-0.071
-486.449	-42.896	0.239	0.123
-485.435	130.375	-0.177	0.229
-484.420	-49.815	-0.271	0.130
-483.405	-200.000	-0.060	0.272
-482.391	-46.002	0.205	0.103
-481.376	800.000	0.046	-0.194
-480.362	22.024	0.080	0.066
-479.347	-101.950	0.454	-0.111
-478.332	-200.000	0.015	-0.138
-477.318	-112.929	-0.065	-0.013
-476.303	-200.000	0.109	0.636
-475.289	-200.000	-0.035	0.505
-474.274	45.180	-0.104	-0.097
-473.259	360.468	0.097	0.196
-472.245	-31.949	-0.246	0.140
-471.230	5.734	0.328	0.245
-470.216	-75.741	0.155	0.056
-469.201	387.008	0.015	0.032
-468.186	-45.326	0.141	-0.071
-467.172	-125.962	0.029	0.004
-466.157	-12.413	0.495	-0.327
-465.143	-8.316	-0.056	-0.038
-464.128	-200.000	-0.038	-0.281
-463.113	-49.641	0.148	-0.071
-462.099	556.646	0.007	-0.016
-461.084	-200.000	0.001	0.011
-460.070	-200.000	-0.023	0.257
-459.055	103.605	0.187	-0.222
-458.040	-87.487	-0.061	0.019
-457.026	-200.000	-0.001	0.005
-456.011	82.595	-0.111	0.122
-454.997	-125.070	-0.145	-0.023
-453.982	-0.343	0.144	0.104
-452.968	136.986	0.262	0.346
-451.953	101.962	-0.135	0.159
-450.938	-9.600	0.268	-0.181
-449.924	-200.000	-0.015	0.195
-448.909	95.668	0.058	-0.067
-447.895	-149.099	0.111	0.009
-446.880	451.158	0.179	0.399
-445.865	37.225	-0.241	0.215
-444.851	-117.853	-0.099	0.018
-443.836	-16.696	-0.254	0.162
-442.822	-200.000	0.011	-0.250
-441.807	800.000	-0.043	-0.129
-440.792	-200.000	-0.025	0.160
-439.778	-200.000	0.049	0.259
-438.763	27.623	0.242	0.206
-437.749	-200.000	0.036	-0.171
-436.734	-136.917	-0.469	-0.054
-435.719	735.040	-0.120	0.324
-434.705	-54.373	-0.221	0.101
-433.690	136.363	-0.151	-0.199
-432.676	262.098	-0.195	-0.342
-431.661	-187.803	-0.169	-0.002
-430.646	114.531	0.221	-0.272
-429.632	-200.000	0.006	0.094
-428.617	314.316	-0.074	0.141
-427.603	-200.000	-0.006	-0.121
-426.588	-150.530	-0.163	-0.013
-425.573	-200.000	-0.002	-0.059
-424.559	-68.455	-0.103	-0.040
-423.544	-200.000	0.002	-0.128
-422.530	192.036	-0.337	-0.513
-421.515	12.564	0.121	0.094
-420.500	-159.617	-0.185	-0.010
-419.486	-189.086	0.210	-0.003
-418.471	299.044	0.083	0.154
-417.457	94.293	-0.076	0.087
-416.442	470.483	0.169	-0.383
-415.428	499.692	-0.076	-0.177
-414.413	612.187	-0.101	0.255
-413.398	33.316	-0.397	0.348
-412.384	-36.491	0.167	0.091
-411.369	0.204	-0.260	-0.187
-410.355	37.393	0.119	-0.106
-409.340	222.501	-0.038	0.062
-408.325	116.748	-0.200	-0.248
-407.311	-88.676	-0.098	0.029
-406.296	77.881	0.113	0.121
-405.282	-200.000	0.016	0.210
-404.267	800.000	-0.039	-0.173
-403.252	330.068	-0.128	0.249
-402.238	800.000	0.022	-0.087
-401.223	-114.626	0.144	-0.028
-400.209	709.316	0.102	0.272
-399.194	52.440	0.291	-0.280
-398.179	-200.000	-0.009	-0.137
-397.165	63.783	-0.137	0.139
-396.150	1.113	-0.323	0.234
-395.136	-200.000	-0.012	0.079
-394.121	-200.000	-0.033	-0.315
-393.106	241.869	0.101	-0.171
-392.092	-200.000	-0.034	-0.373
-391.077	-7.933	-0.088	-0.060
-390.063	74.692	-0.277	0.294
-389.048	-69.946	0.109	-0.042
-388.033	-54.000	-0.374	-0.172
-387.019	-84.994	-0.172	0.054
-386.004	518.598	-0.061	0.144
-384.990	412.380	0.056	0.120
-383.975	-200.000	-0.004	0.043
-382.960	-16.394	-0.016	-0.011
-381.946	-83.641	-0.289	0.093
-380.931	-103.164	0.477	0.114
-379.917	69.762	-0.228	0.237
-378.902	-142.920	-0.414	-0.041
-377.888	-127.196	0.063	0.009
-376.873	-13.033	0.219	0.144
-375.858	-200.000	-0.033	-0.183
-374.844	-18.294	0.085	0.053
-373.829	119.713	0.076	-0.095
-372.815	-200.000	0.013	-0.172
-371.800	-96.534	-0.378	0.101
-370.785	-75.251	0.185	-0.067
-369.771	78.582	0.354	0.381
-368.756	60.608	0.098	-0.098
-367.742	21.226	-0.231	0.189
-366.727	800.000	-0.040	-0.146
-365.712	24.426	-0.200	0.167
-364.698	41.666	-0.084	-0.076
-363.683	-2.908	0.073	-0.051
-362.669	48.363	-0.148	0.139
-361.654	531.194	-0.104	-0.248
-360.639	179.331	0.055	-0.081
-359.625	-200.000	-0.048	0.214
-358.610	-102.954	0.141	0.034
-357.596	-133.580	-0.146	-0.018
-356.581	-140.909	-0.292	-0.030
-355.566	224.021	-0.085	-0.138
-354.552	362.019	-0.181	0.365
-353.537	-105.356	-0.299	0.069
-352.523	-158.579	0.253	0.015
-351.508	-49.954	-0.359	0.171
-350.493	-24.636	0.061	-0.036
-349.479	-140.061	0.249	-0.026
-348.464	-31.821	-0.282	0.159
-347.450	599.056	0.030	0.074
-346.435	-32.959	-0.160	0.090
-345.420	-200.000	-0.034	-0.152
-344.406	-200.000	-0.016	-0.139
-343.391	-79.180	-0.103	-0.035
-342.377	-109.134	0.164	-0.035
-341.362	-200.000	-0.023	0.166
-340.348	11.757	0.202	0.156
-339.333	-73.778	0.282	0.103
-338.318	96.717	0.085	0.098
-337.304	-200.000	-0.029	0.310
-336.289	-56.993	0.378	-0.168
-335.275	-143.280	0.285	-0.028
-334.260	69.101	0.392	0.406
-333.245	-200.000	0.009	-0.209
-332.231	479.608	-0.101	-0.230
-331.216	35.717	-0.365	0.323
-330.202	111.493	0.053	0.065
-329.187	-165.145	0.325	-0.015
-328.172	758.448	0.032	-0.088
-327.158	-200.000	-0.004	0.423
-326.143	800.000	0.101	-0.290
-325.129	-200.000	0.000	-0.244
-324.114	378.622	-0.097	0.200
-323.099	-173.714	-0.140	0.004
-322.085	-58.018	-0.189	-0.083
-321.070	110.750	-0.096	0.117
-320.056	60.369	-0.110	0.110
-319.041	367.619	0.188	-0.382
-318.026	800.000	-0.025	0.074
-317.012	-127.643	0.288	-0.042
-315.997	-96.202	-0.031	-0.008
-314.983	-35.069	0.186	0.102
-313.968	106.993	-0.068	0.081
-312.953	-57.201	0.102	0.045
-311.939	-25.947	0.196	0.116
-310.924	-54.051	-0.382	0.175
-309.910	-23.540	0.360	0.217
-308.895	-106.259	0.259	0.058
-307.880	-91.514	-0.082	-0.023
-306.866	179.015	0.123	0.180
-305.851	-16.513	-0.097	0.062
-304.837	-47.133	0.062	-0.031
-303.822	-101.474	0.072	0.018
-302.807	-200.000	-0.003	0.027
-301.793	0.409	-0.248	0.178
-300.778	-141.100	0.491	0.051
-299.764	-4.838	0.115	-0.080
-298.749	116.669	-0.176	0.217
-297.735	388.903	0.082	0.171
-296.720	-30.211	0.243	-0.139
-295.705	-88.984	0.147	-0.044
-294.691	800.000	-0.107	0.308
-293.676	214.722	-0.066	-0.106
-292.662	243.927	-0.069	-0.117
-291.647	-24.054	0.352	-0.211
-290.632	-200.000	0.017	0.159
-289.618	240.661	0.103	0.173
-288.603	-21.326	-0.151	-0.092
-287.589	76.532	0.300	0.320
-286.574	-41.956	0.422	-0.217
-285.559	-182.884	-0.371	-0.007
-284.545	-71.206	0.214	0.081
-283.530	114.765	0.084	0.103
-282.516	-200.000	0.031	0.165
-281.501	116.287	0.057	0.070
-280.486	589.759	0.088	0.219
-279.472	372.239	0.162	0.331
-278.457	-144.201	-0.225	0.021
-277.443	-142.786	0.282	-0.028
-276.428	-64.372	-0.036	0.015
-275.413	2.992	0.288	-0.210
-274.399	552.610	-0.040	-0.098
-273.384	18.400	-0.257	-0.206
-272.370	72.255	0.151	0.158
-271.355	147.799	0.119	0.161
-270.340	-177.375	-0.166	-0.004
-269.326	42.907	0.056	0.051
-268.311	198.746	-0.137	0.211
-267.297	147.003	0.160	-0.216
-266.282	800.000	0.026	0.082
-265.267	29.518	0.197	0.168
-264.253	327.425	0.054	-0.104
-263.238	800.000	0.162	-0.564
-262.224	52.486	-0.171	-0.164
-261.209	800.000	0.066	-0.263
-260.195	423.542	0.168	0.363
-259.180	-145.497	0.331	-0.030
-258.165	-200.000	-0.044	-0.274
-257.151	-163.858	-0.016	0.001
-256.136	-10.293	0.165	-0.110
-255.122	52.343	-0.234	0.224
-254.107	-4.125	0.106	-0.074
-253.092	800.000	-0.070	0.240
-252.078	20.108	0.258	0.209
-251.063	-128.008	-0.213	0.031
-250.049	144.784	-0.119	-0.160
-249.034	-164.747	-0.145	-0.007
-248.019	202.104	0.094	-0.145
-247.005	-200.000	0.041	-0.434
-245.990	-105.186	0.206	0.047
-244.976	709.577	-0.136	-0.360
-243.961	-97.903	-0.108	-0.028
-242.946	201.931	-0.151	0.233
-241.932	800.000	-0.010	-0.038
-240.917	-200.000	-0.066	-0.575
-239.903	296.321	-0.131	0.242
-238.888	-200.000	0.030	0.133
-237.873	-186.592	0.445	-0.006
-236.859	651.334	-0.046	0.117
-235.844	-200.000	-0.040	-0.210
-234.830	205.994	-0.067	-0.104
-233.815	800.000	0.038	0.146
-232.800	800.000	0.055	-0.170
-231.786	88.011	0.293	-0.326
-230.771	82.426	-0.129	0.141
-229.757	-122.741	-0.118	-0.019
-228.742	46.982	0.109	-0.102
-227.727	411.127	0.052	0.110
-226.713	-20.450	-0.224	-0.138
-225.698	-200.000	0.007	0.153
-224.684	618.319	0.040	0.100
-223.669	-200.000	-0.015	-0.207
-222.655	-41.808	-0.182	0.094
-221.640	-200.000	0.009	0.208
-220.625	-104.726	0.192	-0.044
-219.611	14.566	0.119	-0.093
-218.596	800.000	0.042	-0.125
-217.582	-32.437	-0.263	-0.147
-216.567	-200.000	0.247	0.000
-215.552	-200.000	-0.041	0.339
-214.538	-96.100	-0.182	0.048
-213.523	-50.667	0.378	-0.178
-212.509	620.098	-0.093	-0.234
-211.494	145.665	0.229	-0.308
-210.479	-75.950	0.276	0.098
-209.465	120.548	0.086	-0.107
-208.450	-6.541	0.200	0.137
-207.436	-24.898	-0.293	-0.174
-206.421	-200.000	-0.047	-0.385
-205.406	36.702	0.383	0.339
-204.392	13.830	0.151	0.118
-203.377	-120.536	-0.294	-0.050
-202.363	-52.577	0.076	0.035
-201.348	-98.550	-0.046	-0.012
-200.333	-92.874	-0.272	-0.076
-199.319	-4.902	-0.192	0.133
-198.304	60.710	-0.142	0.141
-197.290	160.779	0.128	-0.179
-196.275	-126.579	-0.169	-0.025
-195.260	146.771	0.216	-0.290
-194.246	-41.197	-0.183	0.095
-193.231	-45.986	-0.368	-0.182
-192.217	-17.840	-0.078	0.049
-191.202	-41.191	-0.198	0.102
-190.187	-69.543	0.262	-0.101
-189.173	81.189	-0.183	-0.198
-188.158	74.795	-0.160	0.169
-187.144	-138.515	0.262	0.029
-186.129	-127.217	0.102	-0.015
-185.114	-166.737	-0.261	-0.011
-184.100	-159.955	0.155	-0.008
-183.085	-37.782	0.192	0.102
-182.071	135.743	0.195	0.254
-181.056	156.527	-0.188	-0.260
-180.042	394.357	0.023	-0.048
-179.027	-24.047	0.518	-0.310
-178.012	515.924	-0.037	0.086
-176.998	651.723	-0.052	0.134
-175.983	-10.902	-0.288	-0.191
-174.969	102.647	-0.098	-0.114
-173.954	93.096	-0.113	-0.128
-172.939	383.281	0.040	-0.083
-171.925	1.298	-0.259	-0.186
-170.910	-60.805	-0.235	-0.100
-169.896	46.668	0.292	0.271
-168.881	800.000	0.006	-0.016
-167.866	-105.073	0.141	-0.032
-166.852	9.046	0.133	-0.101
-165.837	461.436	-0.088	-0.197
-164.823	-38.446	0.289	-0.153
-163.808	-200.000	0.022	-0.298
-162.793	-79.206	-0.325	-0.110
-161.779	-117.449	0.261	-0.047
-160.764	-37.503	0.206	-0.110
-159.750	-82.972	0.085	-0.027
-158.735	-200.000	0.053	-0.376
-157.720	-109.888	-0.240	-0.050
-156.706	16.288	0.218	0.172
-155.691	-10.650	0.241	0.159
-154.677	-67.903	0.122	-0.048
-153.662	-105.234	-0.314	-0.072
-152.647	29.231	0.334	0.283
-151.633	-63.170	0.072	-0.030
-150.618	-4.792	-0.090	-0.062
-149.604	243.354	0.090	0.150
-148.589	-200.000	-0.012	0.284
-147.574	-93.176	-0.223	0.062
-146.560	51.906	0.293	-0.278
-145.545	-200.000	0.035	0.217
-144.531	-200.000	-0.007	0.310
-143.516	-114.757	-0.201	-0.038
-142.502	257.207	-0.064	0.110
-141.487	-32.058	0.249	0.139
-140.472	-200.000	0.019	-0.291
-139.458	74.660	0.091	-0.095
-138.443	-200.000	-0.044	0.291
-137.429	80.553	-0.232	-0.249
-136.414	800.000	0.016	-0.054
-135.399	-151.374	0.094	0.007
-134.385	476.445	-0.059	0.133
-133.370	-71.600	0.306	0.114
-132.356	148.423	0.132	0.179
-131.341	159.507	0.067	0.094
-130.326	-200.000	-0.013	-0.396
-129.312	-138.458	0.230	0.025
-128.297	-37.962	-0.296	0.157
-127.283	-200.000	0.010	0.150
-126.268	628.322	0.056	0.141
-125.253	-89.832	-0.209	-0.061
-124.239	-200.000	-0.015	-0.299
-123.224	-154.802	0.216	0.014
-122.210	800.000	0.101	0.346
-121.195	800.000	-0.090	0.347
-120.180	34.642	-0.039	-0.034
-119.166	-43.530	0.345	-0.174
-118.151	378.010	-0.103	-0.209
-117.137	307.272	-0.161	-0.299
-116.122	-200.000	0.076	0.333
-115.107	-200.000	-0.030	0.218
-114.093	-136.812	0.506	-0.058
-113.078	-114.735	-0.264	0.050
-112.064	33.744	0.112	0.097
-111.049	800.000	-0.042	0.131
-110.034	-5.113	0.117	0.080
-109.020	-66.895	0.289	0.114
-108.005	800.000	-0.020	-0.055
-106.991	-200.000	0.062	-0.285
-105.976	-55.979	0.124	0.055
-104.962	73.902	-0.156	0.164
-103.947	-110.805	0.408	-0.084
-102.932	-200.000	-0.045	-0.293
-101.918	-0.005	0.161	0.115
-100.903	800.000	-0.071	-0.284
-99.889	-44.527	0.317	-0.158
-98.874	241.459	0.137	0.229
-97.859	55.654	-0.193	-0.187
-96.845	-63.346	0.157	-0.064
-95.830	321.077	-0.088	-0.166
-94.816	-21.263	0.131	-0.080
-93.801	-7.413	-0.102	0.069
-92.786	430.952	-0.265	-0.572
-91.772	485.139	0.085	0.193
-90.757	131.207	-0.188	0.240
-89.743	136.524	0.149	-0.194
-88.728	43.197	-0.347	-0.316
-87.713	-9.356	0.247	-0.164
-86.699	-200.000	-0.026	0.387
-85.684	54.957	0.279	0.269
-84.670	123.186	-0.079	-0.099
-83.655	-150.023	-0.105	-0.008
-82.640	-35.664	0.119	0.064
-81.626	-200.000	-0.032	-0.160
-80.611	3.099	-0.256	-0.186
-79.597	12.117	-0.274	-0.210
-78.582	800.000	-0.099	0.288
-77.567	357.666	0.164	0.327
-76.553	-142.543	-0.195	-0.019
-75.538	-99.784	-0.059	-0.015
-74.524	-120.153	0.129	0.022
-73.509	-12.622	-0.158	-0.103
-72.494	-53.098	0.287	-0.131
-71.480	-54.527	-0.037	-0.017
-70.465	-150.302	0.224	0.017
-69.451	369.380	-0.037	0.075
-68.436	100.893	0.292	-0.339
-67.422	40.411	-0.119	-0.107
-66.407	36.409	0.197	0.173
-65.392	800.000	0.066	-0.214
-64.378	-136.422	-0.331	-0.038
-63.363	-200.000	0.004	0.184
-62.349	-110.290	-0.216	-0.045
-61.334	79.668	-0.720	-0.770
-60.319	-110.911	0.234	0.048
-59.305	-200.000	0.050	-0.901
-58.290	549.513	0.306	0.730
-57.276	800.000	0.398	1.363
-56.261	-200.000	76.311	506.299
-55.246	499.884	1345.167	3088.905
-54.232	144.065	2583.251	3431.025
-53.217	114.007	2257.421	2733.691
-52.203	50.480	1780.875	1676.826
-51.188	43.418	1579.589	1437.233
-50.173	40.800	1549.586	1391.570
-49.159	56.669	1586.533	1537.265
-48.144	62.049	1606.782	1594.869
-47.130	43.990	1570.236	1432.538
-46.115	40.356	1556.032	1394.010
-45.100	40.216	1552.259	1389.592
-44.086	40.189	1550.228	1387.528
-43.071	40.167	1547.673	1385.037
-42.057	39.985	1546.515	1382.670
-41.042	40.044	1544.948	1381.629
-40.027	40.098	1543.259	1380.439
-39.013	40.157	1541.218	1378.972
-37.998	40.057	1540.333	1377.427
-36.984	40.083	1539.702	1376.987
-35.969	40.106	1538.052	1375.619
-34.954	40.115	1536.558	1374.290
-33.940	40.020	1535.623	1372.739
-32.925	40.088	1533.615	1371.362
-31.911	40.108	1532.281	1370.255
-30.896	40.166	1530.560	1369.058
-29.881	40.110	1529.976	1368.098
-28.867	40.208	1528.489	1367.389
-27.852	40.215	1526.854	1365.919
-26.838	40.181	1525.205	1364.156
-25.823	40.305	1523.017	1362.999
-24.809	40.133	1521.681	1360.569
-23.794	40.107	1520.023	1358.853
-22.779	40.111	1519.497	1358.355
-21.765	40.137	1518.026	1357.163
-20.750	40.180	1516.966	1356.454
-19.736	40.193	1515.676	1355.337
-18.721	40.039	1514.911	1353.546
-17.706	40.106	1513.747	1352.912
-16.692	40.119	1512.131	1351.504
-15.677	40.075	1511.902	1350.940
-14.663	40.111	1510.071	1349.498
-13.648	39.972	1509.886	1348.333
-12.633	39.993	1508.531	1347.215
-11.619	40.156	1507.504	1347.350
-10.604	40.098	1506.890	1346.358
-9.590	40.181	1505.475	1345.602
-8.575	40.065	1504.719	1344.085
-7.560	40.072	1503.817	1343.274
-6.546	40.070	1502.856	1342.350
-5.531	40.134	1501.461	1341.483
-4.517	40.010	1500.556	1339.780
-3.502	39.959	1500.136	1339.003
-2.487	40.001	1499.002	1338.222
-1.473	40.087	1498.121	1337.964
-0.458	40.024	1496.952	1336.447
0.556	40.426	1487.362	1327.375
1.571	37.861	1460.324	1286.230
2.586	34.368	1396.828	1208.099
3.600	32.407	1311.989	1122.937
4.615	30.424	1262.648	1069.206
5.629	25.025	1202.563	988.538
6.644	12.812	1109.108	849.089
7.659	3.642	1062.025	767.556
8.673	2.383	1055.942	756.869
9.688	1.965	1053.104	752.702
10.702	1.831	1051.575	750.884
11.717	1.882	1049.484	749.576
12.731	5.396	1053.747	769.880
13.746	16.429	1069.686	836.336
14.761	24.505	1080.224	884.689
15.775	25.538	1081.140	890.483
16.790	25.612	1080.139	889.946
17.804	25.383	1079.088	887.870
18.819	25.204	1078.744	886.623
19.834	25.271	1077.805	886.105
20.848	25.290	1077.627	885.974
21.863	25.412	1076.995	885.977
22.877	25.489	1076.611	885.961
23.892	25.460	1076.077	885.301
24.907	25.305	1075.250	883.777
25.921	25.272	1074.487	882.911
26.936	25.324	1073.587	882.350
27.950	25.254	1072.487	881.021
28.965	25.303	1071.272	880.185
29.980	25.155	1070.029	878.362
30.994	25.165	1068.741	877.278
32.009	25.291	1068.447	877.573
33.023	25.502	1067.404	877.671
34.038	25.294	1066.446	875.791
35.053	25.195	1065.714	874.630
36.067	25.300	1064.897	874.395
37.082	25.336	1064.707	874.336
38.096	25.361	1063.686	873.543
39.111	25.482	1063.307	873.739
40.126	25.653	1061.973	873.397
41.140	25.574	1060.672	871.864
42.155	25.229	1059.293	868.985
43.169	25.039	1058.294	867.168
44.184	24.808	1057.594	865.400
45.199	25.082	1055.817	865.197
46.213	24.909	1054.982	863.598
47.228	24.907	1054.006	862.716
48.242	25.133	1053.556	863.357
49.257	25.257	1053.002	863.422
50.271	25.274	1052.230	862.797
51.286	25.416	1051.544	862.840
52.301	25.413	1050.879	862.201
53.315	25.540	1049.994	862.009
54.330	25.295	1049.957	860.728
55.344	25.303	1048.413	859.424
56.359	25.382	1047.676	859.123
57.374	25.261	1046.966	857.886
58.388	25.068	1046.066	856.153
59.403	25.080	1045.239	855.456
60.417	25.035	1044.785	854.792
61.432	24.768	1044.020	852.820
62.447	24.910	1043.107	852.672
63.461	25.128	1042.167	852.869
64.476	25.144	1041.272	852.137
65.490	25.069	1040.642	851.187
66.505	24.949	1039.988	850.010
67.520	25.006	1038.819	849.247
68.534	25.158	1038.238	849.421
69.549	24.979	1037.055	847.527
70.563	24.644	1035.819	844.860
71.578	24.595	1035.145	844.003
72.593	24.725	1034.509	844.022
73.607	24.470	1033.510	841.932
74.622	24.411	1032.425	840.694
75.636	24.683	1032.053	841.602
76.651	24.802	1031.894	841.957
77.666	24.636	1030.599	840.042
78.680	24.689	1029.426	839.263
79.695	24.678	1029.103	838.875
80.709	24.795	1028.597	838.936
81.724	24.896	1027.636	838.552
82.739	24.864	1026.698	837.562
83.753	24.847	1026.174	836.978
84.768	25.107	1025.967	837.951
85.782	25.459	1025.137	838.845
86.797	25.726	1024.406	839.415
87.812	25.633	1023.366	838.059
88.826	25.420	1022.525	836.304
89.841	25.483	1021.186	835.427
90.855	25.626	1020.845	835.738
91.870	25.433	1020.437	834.434
92.884	25.555	1019.147	833.869
93.899	25.498	1018.219	832.773
94.914	25.395	1017.232	831.416
95.928	25.486	1016.660	831.295
96.943	25.597	1015.533	830.812
97.957	25.142	1014.988	828.194
98.972	25.142	1013.056	826.543
99.987	24.880	1012.215	824.576
101.001	24.933	1011.889	824.483
102.016	25.157	1011.791	825.363
103.030	25.410	1010.251	825.193
104.045	25.274	1009.172	823.618
105.060	25.073	1008.265	821.881
106.074	24.946	1006.862	820.083
107.089	24.795	1006.694	819.185
108.103	25.166	1006.371	820.544
109.118	25.249	1005.506	820.147
110.133	25.146	1003.976	818.356
111.147	25.039	1003.194	817.159
112.162	24.942	1002.063	815.725
113.176	24.684	1000.755	813.414
114.191	24.784	1000.218	813.357
115.206	25.015	999.390	813.663
116.220	24.765	997.929	811.267
117.235	24.481	997.328	809.419
118.249	24.803	996.552	810.178
119.264	24.796	995.893	809.536
120.279	24.516	995.384	807.786
121.293	24.603	994.092	807.061
122.308	24.623	993.948	806.963
123.322	24.778	992.958	806.785
124.337	24.637	991.813	805.147
125.352	24.566	990.618	803.786
126.366	24.240	988.957	800.902
127.381	23.900	987.447	798.082
128.395	24.320	987.459	799.909
129.410	24.923	987.468	802.548
130.424	25.413	986.140	803.590
131.439	25.234	985.523	802.216
132.454	25.226	984.495	801.274
133.468	25.322	983.689	800.974
134.483	25.064	983.083	799.258
135.497	25.173	982.500	799.199
136.512	25.413	981.737	799.577
137.527	25.468	980.579	798.808
138.541	25.524	979.905	798.438
139.556	25.492	979.519	797.909
140.570	25.354	978.657	796.527
141.585	25.569	977.572	796.524
142.600	25.650	976.932	796.291
143.614	25.567	975.938	795.045
144.629	25.567	975.277	794.433
145.643	25.887	974.816	795.401
146.658	25.665	973.668	793.415
147.673	25.607	972.305	791.979
148.687	25.482	970.811	790.142
149.702	25.351	970.157	788.967
150.716	25.273	969.131	787.717
151.731	25.131	968.458	786.478
152.746	25.287	967.743	786.511
153.760	25.383	967.433	786.613
154.775	25.520	966.806	786.630
155.789	25.484	965.885	785.656
156.804	25.659	964.435	785.171
157.819	25.566	963.712	784.105
158.833	25.562	962.927	783.382
159.848	25.726	962.008	783.279
160.862	25.726	961.870	783.096
161.877	25.543	960.612	781.208
162.892	25.423	959.814	779.970
163.906	25.524	958.579	779.332
164.921	25.639	957.610	778.976
165.935	25.544	956.409	777.520
166.950	25.425	955.872	776.496
167.964	25.561	954.920	776.244
168.979	25.660	953.934	775.801
169.994	25.441	953.079	774.095
171.008	25.357	951.840	772.655
172.023	25.331	951.425	772.139
173.037	25.723	950.435	772.950
174.052	25.468	949.687	771.183
175.067	25.312	948.529	769.502
176.081	25.332	947.713	768.860
177.096	25.355	947.180	768.455
178.110	25.248	946.518	767.395
179.125	25.191	945.260	766.063
180.140	24.822	944.163	763.531
181.154	24.967	943.512	763.558
182.169	25.000	943.200	763.377
183.183	25.316	942.635	764.198
184.198	25.401	942.703	764.546
185.213	25.481	941.913	764.180
186.227	25.480	941.078	763.428
187.242	25.560	940.673	763.372
188.256	25.709	939.463	762.956
189.271	25.535	939.151	761.896
190.286	25.646	938.356	761.652
191.300	25.508	937.486	760.296
192.315	24.881	936.113	756.469
193.329	24.242	934.238	752.190
194.344	23.887	933.079	749.695
195.359	24.347	933.592	751.980
196.373	25.259	933.729	755.868
197.388	25.425	933.678	756.456
198.402	25.532	932.748	756.085
199.417	25.512	932.241	755.527
200.432	25.433	932.135	755.038
201.446	25.408	931.047	753.989
202.461	24.997	930.745	751.949
203.475	24.956	930.441	751.467
204.490	24.668	928.880	748.932
205.504	23.591	926.638	742.554
206.519	23.956	926.295	743.742
207.534	24.850	926.609	747.662
208.548	25.079	926.069	748.120
209.563	25.287	925.813	748.714
210.577	25.321	925.139	748.243
211.592	25.164	924.350	746.887
212.607	25.438	924.472	748.060
213.621	25.633	923.747	748.215
214.636	25.491	923.302	747.198
215.650	25.661	922.450	747.148
216.665	25.401	922.256	745.848
217.680	25.642	921.284	745.996
218.694	25.666	920.809	745.645
219.709	25.406	919.606	743.527
220.723	25.002	918.880	741.205
221.738	25.193	918.458	741.588
222.753	25.277	918.194	741.658
223.767	25.287	917.268	740.884
224.782	25.314	916.732	740.496
225.796	25.432	916.265	740.541
226.811	25.753	915.465	741.150
227.826	25.394	914.006	738.427
228.840	24.443	912.860	733.530
229.855	24.426	911.836	732.572
230.869	24.613	912.085	733.474
231.884	24.359	910.578	731.156
232.899	24.365	910.178	730.795
233.913	25.178	910.140	734.030
234.928	25.330	910.074	734.532
235.942	25.231	909.261	733.406
236.957	25.322	908.956	733.470
237.972	25.032	907.156	730.769
238.986	24.887	907.166	730.120
240.001	24.953	906.608	729.878
241.015	24.968	905.854	729.265
242.030	25.220	905.092	729.611
243.045	25.320	904.803	729.723
244.059	25.247	904.413	729.044
245.074	25.540	904.062	729.888
246.088	25.548	903.149	729.118
247.103	25.262	901.939	726.920
248.117	25.261	901.388	726.409
249.132	25.576	901.972	728.088
250.147	26.016	901.866	729.717
251.161	26.125	901.045	729.432
252.176	26.333	900.428	729.707
253.190	26.225	900.085	728.927
254.205	26.270	899.648	728.692
255.220	26.381	899.109	728.639
256.234	26.587	898.314	728.758
257.249	26.416	897.491	727.337
258.263	26.328	897.054	726.566
259.278	26.176	896.662	725.573
260.293	26.256	896.110	725.383
261.307	26.510	895.467	725.816
262.322	26.409	894.574	724.623
263.336	26.376	893.551	723.602
264.351	25.649	893.026	720.203
265.366	24.485	890.939	713.803
266.380	24.264	889.734	711.896
267.395	25.278	889.863	715.983
268.409	25.813	890.428	718.506
269.424	25.915	889.807	718.347
270.439	26.056	888.887	718.103
271.453	26.110	888.573	718.001
272.468	26.074	887.782	717.156
273.482	26.298	887.559	717.803
274.497	26.325	886.903	717.314
275.512	26.227	886.184	716.282
276.526	25.522	884.913	712.397
277.541	25.759	884.486	712.929
278.555	26.050	884.393	713.943
279.570	25.888	883.563	712.569
280.585	25.867	882.427	711.508
281.599	25.808	882.391	711.184
282.614	26.051	881.724	711.540
283.628	25.575	880.410	708.541
284.643	25.134	880.053	706.455
285.657	25.515	880.133	707.957
286.672	25.517	879.053	707.034
287.687	25.040	878.043	704.285
288.701	25.350	877.764	705.218
289.716	25.725	877.756	706.622
290.730	25.453	877.032	704.909
291.745	25.271	875.921	703.239
292.760	25.188	875.239	702.305
293.774	25.012	874.788	701.193
294.789	26.074	875.160	705.584
295.803	26.557	875.441	707.636
296.818	26.678	874.652	707.407
297.833	26.668	874.373	707.083
298.847	26.485	872.879	705.099
299.862	26.108	871.823	702.713
300.876	26.184	871.776	702.909
301.891	26.582	871.253	703.974
302.906	26.671	870.810	703.901
303.920	26.302	869.955	701.714
304.935	26.204	868.905	700.427
305.949	26.574	868.858	701.761
306.964	26.731	868.322	701.873
307.979	26.452	867.346	699.944
308.993	26.378	867.050	699.357
310.008	26.576	867.254	700.223
311.022	26.884	866.548	700.782
312.037	26.547	865.955	698.941
313.052	26.439	865.615	698.188
314.066	26.326	864.461	696.757
315.081	25.678	862.982	693.009
316.095	24.847	862.041	688.994
317.110	25.380	861.949	690.913
318.125	26.172	862.301	694.178
319.139	26.007	861.030	692.461
320.154	24.838	859.163	686.417
321.168	24.222	858.589	683.536
322.183	24.841	858.821	686.035
323.197	25.909	858.841	690.080
324.212	26.242	858.578	691.082
325.227	26.316	858.173	690.980
326.241	26.468	858.062	691.409
327.256	26.336	857.285	690.216
328.270	26.209	856.712	689.212
329.285	26.113	855.955	688.174
330.300	26.066	855.176	687.307
331.314	25.677	854.761	685.434
332.329	25.772	853.954	685.087
333.343	26.174	854.075	686.652
334.358	26.448	853.825	687.431
335.373	26.590	852.810	687.093
336.387	26.540	852.316	686.446
337.402	26.689	852.253	686.899
338.416	27.035	851.367	687.432
339.431	26.935	851.009	686.706
340.446	26.891	850.325	685.925
341.460	27.171	850.122	686.758
342.475	27.235	849.542	686.470
343.489	26.886	848.580	684.316
344.504	26.988	848.070	684.231
345.519	26.914	848.347	684.115
346.533	27.245	847.590	684.689
347.548	27.172	847.311	684.128
348.562	27.368	846.662	684.280
349.577	27.202	846.026	683.083
350.592	27.342	845.263	682.930
351.606	27.242	844.962	682.254
352.621	27.056	844.651	681.244
353.635	27.316	843.828	681.492
354.650	27.033	843.249	679.906
355.665	26.910	842.253	678.584
356.679	25.662	840.840	672.722
357.694	25.545	840.392	671.865
358.708	26.338	839.961	674.424
359.723	26.257	839.664	673.823
360.738	26.304	839.425	673.747
361.752	26.932	839.206	675.850
362.767	27.144	838.846	676.291
363.781	27.140	839.014	676.352
364.796	27.462	838.719	677.251
365.810	27.637	838.401	677.585
366.825	27.630	838.069	677.231
367.840	27.623	837.561	676.733
368.854	27.672	836.347	675.877
369.869	27.231	835.652	673.621
370.883	26.857	835.532	672.079
371.898	27.094	834.629	672.171
372.913	26.970	833.956	671.110
373.927	26.860	833.545	670.312
374.942	27.032	832.736	670.240
375.956	27.354	832.299	671.015
376.971	27.358	831.745	670.525
377.986	27.504	831.251	670.604
379.000	27.568	831.112	670.668
380.015	27.691	830.346	670.441
381.029	27.579	829.436	669.235
382.044	27.475	828.931	668.390
383.059	27.628	828.440	668.494
384.073	27.669	828.266	668.447
385.088	27.594	827.624	667.595
386.102	27.730	826.475	667.103
387.117	27.345	826.416	665.590
388.132	27.229	825.945	664.727
389.146	27.027	825.250	663.373
390.161	26.638	824.097	660.968
391.175	26.511	823.787	660.197
392.190	27.190	823.717	662.560
393.205	27.330	823.164	662.564
394.219	26.254	821.480	657.238
395.234	24.722	819.337	649.901
396.248	23.714	818.105	645.207
397.263	24.724	818.986	649.515
398.278	26.727	820.416	657.872
399.292	27.214	820.148	659.364
400.307	26.990	819.595	658.050
401.321	26.848	818.985	656.988
402.336	26.978	818.958	657.380
403.350	27.287	818.567	658.125
404.365	27.662	818.873	659.669
405.380	27.898	818.637	660.276
406.394	28.259	818.319	661.266
407.409	28.261	817.770	660.771
408.423	28.391	817.247	660.757
409.438	28.260	816.956	659.992
410.453	28.378	816.339	659.858
411.467	28.429	815.634	659.416
412.482	28.396	815.472	659.109
413.496	28.322	814.527	658.017
414.511	28.365	814.444	658.047
415.526	28.349	814.149	657.695
416.540	28.396	813.767	657.496
417.555	28.424	812.981	656.902
418.569	28.027	812.160	654.759
419.584	28.012	811.814	654.368
420.599	28.055	811.671	654.348
421.613	96.137	1266.206	1382.935
422.628	82.691	1332.432	1383.096
