DTS Sentinel unit serial number:	SN413079Multiplexer serial number:	ORYXHardware model number:	OX4-SRSoftware version number:	ORYX F/W v4.00 Oryx Data Collector v3.7.2.0data status	okinstallation	princeton_trtdifferential loss correction	single-endedforward channel	channel 3reverse channel	N/Adate	2019/09/14time	05:20:34forward acquisition time	60.00reverse acquisition time	0.00gamma	496.2192k internal	0.2337k external	0.2337temperature offset calibration	1.0055default loss term (dB/km)	0.3790temperature slope calibration	1.0000multiplexer offset coefficient	1.0000multiplexer slope coefficient	1.0000fibre end	0.00T internal ref (°C)	26.94T ext. ref 1 (°C)	3.39T ext. ref 2 (°C)	21.94length (m)	temperature (°C)	Stokes	anti-Stokes-747.200	270.419	-0.087	0.154
-746.185	140.465	-0.136	0.180
-745.171	-177.340	0.106	-0.003
-744.156	306.736	0.035	0.065
-743.142	18.849	0.208	0.167
-742.127	-100.762	0.173	0.043
-741.112	308.374	0.113	0.211
-740.098	-84.726	-0.153	0.048
-739.083	76.161	-0.297	0.316
-738.069	-53.500	-0.350	0.161
-737.054	249.009	-0.107	0.182
-736.039	122.032	-0.299	0.375
-735.025	-126.297	-0.153	0.023
-734.010	-63.971	-0.550	-0.226
-732.996	800.000	0.101	-0.385
-731.981	800.000	0.041	0.138
-730.966	134.831	0.133	-0.173
-729.952	-74.640	-0.305	-0.110
-728.937	195.797	0.069	0.105
-727.923	800.000	-0.062	0.212
-726.908	-200.000	0.000	-0.150
-725.894	-2.770	-0.212	-0.149
-724.879	-64.542	0.028	-0.011
-723.864	76.683	-0.184	0.196
-722.850	-4.665	0.176	-0.122
-721.835	-19.957	0.481	0.298
-720.821	47.871	0.071	-0.067
-719.806	-67.946	0.147	-0.057
-718.791	442.493	0.025	-0.056
-717.777	459.071	-0.120	-0.267
-716.762	130.885	-0.195	-0.251
-715.748	-200.000	-0.006	0.051
-714.733	129.453	-0.119	0.153
-713.718	276.192	0.068	-0.121
-712.704	-200.000	0.067	0.432
-711.689	138.279	0.092	-0.120
-710.675	502.902	0.041	0.095
-709.660	-148.591	-0.131	0.011
-708.645	800.000	0.039	0.144
-707.631	-170.895	-0.170	0.006
-706.616	-200.000	-0.045	-0.216
-705.602	3.165	0.187	-0.137
-704.587	55.223	-0.097	-0.094
-703.572	360.828	-0.047	0.095
-702.558	17.717	0.160	-0.128
-701.543	-66.570	0.225	0.090
-700.529	-200.000	0.075	-0.338
-699.514	-45.539	0.301	-0.150
-698.499	-168.986	-0.135	0.005
-697.485	122.390	-0.155	0.194
-696.470	-141.355	0.042	-0.004
-695.456	627.128	-0.026	-0.066
-694.441	800.000	-0.031	-0.102
-693.426	497.753	-0.030	-0.070
-692.412	-79.956	0.133	0.045
-691.397	800.000	-0.083	-0.255
-690.383	-200.000	-0.009	-0.183
-689.368	-200.000	-0.023	0.126
-688.354	-123.208	0.383	-0.061
-687.339	-72.397	-0.155	0.058
-686.324	-57.903	-0.124	0.054
-685.310	136.868	0.070	-0.092
-684.295	-200.000	-0.034	-0.254
-683.281	-200.000	-0.001	-0.230
-682.266	50.614	0.167	0.158
-681.251	-34.318	0.185	0.102
-680.237	-23.749	-0.138	0.083
-679.222	-188.073	-0.077	-0.001
-678.208	83.671	0.028	0.030
-677.193	-29.966	-0.090	0.051
-676.178	-84.324	0.230	0.073
-675.164	380.984	-0.067	0.137
-674.149	-200.000	-0.000	0.121
-673.135	-175.979	0.075	0.002
-672.120	-150.139	-0.236	-0.018
-671.105	-183.361	0.037	0.001
-670.091	-200.000	-0.006	-0.228
-669.076	800.000	-0.040	-0.158
-668.062	-105.508	0.156	-0.036
-667.047	800.000	0.113	0.344
-666.032	-167.834	-0.121	0.005
-665.018	190.928	-0.041	0.062
-664.003	-200.000	0.015	-0.105
-662.989	-144.217	-0.166	0.015
-661.974	7.196	0.107	-0.080
-660.959	1.598	-0.124	-0.090
-659.945	24.311	-0.307	-0.254
-658.930	-151.998	-0.188	0.014
-657.916	-39.101	0.197	0.103
-656.901	-38.442	-0.293	0.155
-655.886	136.913	0.179	-0.234
-654.872	360.314	0.167	0.335
-653.857	9.938	-0.094	-0.072
-652.843	-200.000	-0.005	-0.071
-651.828	-19.890	-0.080	0.050
-650.814	13.841	0.112	-0.087
-649.799	-87.759	-0.294	0.089
-648.784	-48.273	0.111	0.054
-647.770	554.820	0.071	-0.170
-646.755	91.615	0.106	-0.119
-645.741	-125.848	0.141	0.021
-644.726	-10.440	-0.214	-0.142
-643.711	-200.000	0.039	-0.198
-642.697	-103.760	0.230	-0.054
-641.682	10.074	-0.224	-0.170
-640.668	123.106	-0.137	-0.172
-639.653	12.761	-0.350	-0.270
-638.638	-90.196	-0.218	-0.063
-637.624	-160.450	0.063	-0.003
-636.609	-29.044	0.361	-0.207
-635.595	68.435	0.109	0.111
-634.580	78.656	-0.178	0.190
-633.565	161.647	-0.049	0.068
-632.551	79.469	0.085	0.091
-631.536	-62.033	0.164	0.069
-630.522	73.791	-0.023	0.024
-629.507	-142.357	0.238	0.023
-628.492	-200.000	-0.016	0.172
-627.478	-88.360	-0.021	-0.006
-626.463	147.700	0.079	-0.107
-625.449	256.491	0.184	-0.316
-624.434	800.000	-0.079	-0.252
-623.419	171.409	0.175	0.251
-622.405	382.065	-0.225	0.463
-621.390	16.052	-0.018	0.014
-620.376	-68.303	-0.216	-0.084
-619.361	-11.087	0.178	0.117
-618.346	-200.000	0.044	0.283
-617.332	-200.000	-0.017	-0.081
-616.317	156.025	-0.116	0.160
-615.303	-200.000	0.071	0.498
-614.288	-47.164	-0.101	-0.049
-613.273	2.905	-0.151	-0.109
-612.259	-70.907	0.139	-0.052
-611.244	564.969	-0.059	0.144
-610.230	66.271	-0.194	-0.197
-609.215	-111.883	-0.278	0.056
-608.201	-200.000	0.003	0.113
-607.186	40.207	-0.026	0.023
-606.171	31.942	-0.274	0.236
-605.157	790.481	-0.100	-0.275
-604.142	340.878	-0.078	-0.151
-603.128	565.379	0.029	0.070
-602.113	761.490	0.109	0.296
-601.098	800.000	-0.120	-0.469
-600.084	256.912	-0.073	0.125
-599.069	-200.000	0.017	0.256
-598.055	124.323	-0.100	0.126
-597.040	-21.272	0.182	-0.111
-596.025	-200.000	0.007	-0.048
-595.011	348.446	-0.130	0.256
-593.996	148.904	0.029	-0.039
-592.982	800.000	0.035	-0.139
-591.967	515.212	0.074	0.173
-590.952	147.685	-0.205	-0.275
-589.938	274.176	0.067	-0.118
-588.923	449.790	0.067	0.148
-587.909	-106.814	0.047	-0.010
-586.894	28.980	-0.130	-0.110
-585.879	-53.876	0.209	0.095
-584.865	-200.000	0.032	-0.155
-583.850	126.542	-0.098	-0.124
-582.836	-200.000	0.002	0.201
-581.821	-142.398	0.388	0.038
-580.806	-71.879	-0.230	-0.086
-579.792	-200.000	0.007	0.093
-578.777	-200.000	0.012	0.054
-577.763	95.997	0.008	-0.009
-576.748	-121.540	-0.191	-0.032
-575.733	800.000	-0.067	-0.225
-574.719	0.677	-0.069	-0.049
-573.704	251.147	-0.124	-0.209
-572.690	-13.492	0.196	0.127
-571.675	-14.149	-0.196	0.126
-570.661	-33.665	0.144	0.079
-569.646	26.835	-0.417	0.349
-568.631	-90.014	0.230	-0.067
-567.617	-134.471	0.248	-0.030
-566.602	-4.324	-0.117	-0.080
-565.588	32.802	0.291	-0.251
-564.573	73.863	-0.140	-0.146
-563.558	-200.000	-0.016	-0.169
-562.544	-200.000	-0.007	-0.411
-561.529	-200.000	0.025	-0.448
-560.515	-200.000	0.005	0.396
-559.500	-27.119	0.138	0.080
-558.485	73.287	-0.257	-0.268
-557.471	-200.000	0.026	-0.211
-556.456	51.083	-0.117	-0.110
-555.442	1.316	0.095	0.068
-554.427	-62.519	-0.094	0.039
-553.412	-41.588	0.147	-0.075
-552.398	200.143	-0.171	-0.261
-551.383	-85.432	-0.136	-0.042
-550.369	-173.285	0.289	0.009
-549.354	-105.392	-0.239	-0.054
-548.339	-81.180	-0.173	-0.057
-547.325	-65.660	0.192	-0.077
-546.310	352.051	0.045	0.088
-545.296	-58.666	0.075	-0.032
-544.281	-125.336	0.111	0.017
-543.266	137.388	-0.119	0.155
-542.252	-37.601	-0.198	0.105
-541.237	-86.741	0.223	-0.068
-540.223	45.842	0.047	0.043
-539.208	-174.118	-0.059	-0.002
-538.193	110.957	0.155	-0.186
-537.179	235.989	-0.164	-0.270
-536.164	530.359	-0.128	-0.300
-535.150	-0.699	-0.108	-0.076
-534.135	205.113	-0.214	-0.331
-533.121	162.925	0.109	-0.152
-532.106	8.166	-0.231	-0.173
-531.091	-76.932	-0.316	-0.110
-530.077	-31.743	0.306	0.171
-529.062	-200.000	-0.013	-0.164
-528.048	-200.000	0.000	-0.395
-527.033	-14.220	0.377	0.242
-526.018	91.270	-0.086	-0.096
-525.004	591.550	-0.061	-0.150
-523.989	509.282	-0.047	-0.108
-522.975	-200.000	-0.065	-0.304
-521.960	38.880	0.159	-0.142
-520.945	56.164	0.224	0.216
-519.931	-200.000	-0.063	0.318
-518.916	58.646	0.090	0.088
-517.902	346.627	0.178	-0.348
-516.887	392.710	-0.083	-0.172
-515.872	800.000	-0.090	-0.249
-514.858	-59.230	0.119	-0.051
-513.843	-18.077	0.105	0.065
-512.829	26.684	-0.261	-0.218
-511.814	-200.000	0.003	-0.483
-510.799	-116.451	-0.194	-0.036
-509.785	-94.835	-0.024	0.007
-508.770	-108.300	-0.279	-0.060
-507.756	800.000	-0.021	0.073
-506.741	-99.023	-0.146	0.037
-505.726	54.604	0.119	0.114
-504.712	-200.000	0.014	0.164
-503.697	25.951	-0.069	-0.057
-502.683	18.310	-0.293	-0.232
-501.668	244.959	0.163	0.272
-500.653	800.000	0.043	0.119
-499.639	12.374	-0.154	0.118
-498.624	9.167	-0.184	0.138
-497.610	29.001	-0.091	0.077
-496.595	271.805	-0.099	-0.174
-495.581	105.263	0.061	0.071
-494.566	-200.000	-0.016	0.159
-493.551	-150.323	-0.227	0.017
-492.537	-200.000	-0.028	0.233
-491.522	-200.000	-0.001	0.056
-490.508	195.817	-0.091	-0.137
-489.493	-100.454	-0.304	-0.075
-488.478	-200.000	0.024	0.214
-487.464	68.980	0.250	-0.255
-486.449	-200.000	0.062	-0.290
-485.435	-149.381	0.142	-0.011
-484.420	396.303	-0.152	-0.315
-483.405	130.255	0.130	0.166
-482.391	-200.000	-0.029	0.129
-481.376	-113.116	-0.074	0.014
-480.362	16.731	-0.056	-0.044
-479.347	800.000	0.068	-0.209
-478.332	-97.755	0.444	0.114
-477.318	-45.839	0.241	-0.118
-476.303	524.888	-0.064	-0.150
-475.289	83.063	0.089	-0.097
-474.274	-74.938	0.052	0.019
-473.259	-27.103	-0.064	-0.037
-472.245	800.000	-0.049	0.170
-471.230	-163.583	-0.309	-0.015
-470.216	-58.353	-0.207	0.089
-469.201	800.000	-0.044	-0.130
-468.186	-68.277	-0.296	0.114
-467.172	24.288	0.140	0.115
-466.157	33.908	0.219	-0.190
-465.143	56.451	0.030	0.029
-464.128	-200.000	0.021	-0.322
-463.113	126.589	-0.151	0.190
-462.099	-200.000	0.042	-0.188
-461.084	71.067	-0.147	-0.151
-460.070	-142.812	-0.359	-0.035
-459.055	-7.353	-0.113	-0.076
-458.040	5.635	0.403	0.296
-457.026	5.820	0.323	0.237
-456.011	-180.639	-0.296	-0.006
-454.997	-89.720	0.364	0.106
-453.982	800.000	0.099	-0.351
-452.968	121.247	-0.458	0.567
-451.953	218.027	0.228	0.360
-450.938	-98.240	0.182	0.046
-449.924	298.508	-0.020	-0.036
-448.909	-200.000	-0.034	0.172
-447.895	-200.000	0.062	-0.365
-446.880	530.686	-0.103	0.241
-445.865	502.387	0.078	-0.179
-444.851	-36.709	0.108	0.058
-443.836	-111.979	0.052	-0.010
-442.822	85.034	-0.082	-0.090
-441.807	52.458	0.203	-0.192
-440.792	402.678	-0.171	0.357
-439.778	-107.404	-0.263	-0.057
-438.763	-55.941	-0.131	-0.058
-437.749	-64.374	0.282	-0.114
-436.734	130.263	-0.206	0.261
-435.719	446.163	0.063	0.138
-434.705	800.000	-0.092	-0.259
-433.690	188.236	0.180	0.268
-432.676	-11.396	0.315	0.205
-431.661	-200.000	-0.037	-0.231
-430.646	-63.606	0.093	0.038
-429.632	110.824	-0.012	0.014
-428.617	-200.000	-0.016	-0.222
-427.603	-49.945	-0.370	-0.174
-426.588	234.758	-0.127	0.208
-425.573	800.000	0.065	-0.250
-424.559	-200.000	-0.010	0.130
-423.544	503.561	-0.056	0.128
-422.530	-183.672	-0.072	0.001
-421.515	-17.834	-0.085	0.053
-420.500	618.718	-0.153	0.381
-419.486	138.511	-0.030	-0.040
-418.471	-200.000	0.004	0.091
-417.457	-155.701	0.046	-0.003
-416.442	-9.662	-0.141	-0.093
-415.428	-142.749	0.169	0.016
-414.413	-192.311	-0.044	-0.000
-413.398	-162.971	0.297	0.014
-412.384	-1.631	0.338	-0.236
-411.369	16.669	0.142	0.112
-410.355	454.454	0.253	0.555
-409.340	800.000	0.121	0.373
-408.325	800.000	0.050	-0.186
-407.311	-200.000	-0.041	-0.341
-406.296	-12.722	0.291	-0.188
-405.282	226.972	-0.255	-0.410
-404.267	800.000	-0.057	0.194
-403.252	-200.000	-0.385	0.001
-402.238	622.577	0.128	-0.319
-401.223	624.874	-0.095	0.239
-400.209	-163.079	-0.153	0.007
-399.194	-172.746	-0.246	0.008
-398.179	108.221	-0.082	-0.097
-397.165	-34.123	0.285	-0.155
-396.150	-200.000	-0.030	0.361
-395.136	87.941	-0.138	0.152
-394.121	60.112	0.248	-0.243
-393.106	-197.174	-0.313	0.002
-392.092	43.135	-0.107	0.097
-391.077	12.764	0.281	0.215
-390.063	-200.000	-0.021	-0.351
-389.048	800.000	0.083	0.358
-388.033	44.793	-0.082	-0.075
-387.019	-77.974	0.223	0.076
-386.004	772.720	0.113	-0.304
-384.990	5.339	-0.348	-0.254
-383.975	-56.211	-0.214	-0.094
-382.960	582.425	-0.038	-0.091
-381.946	177.158	0.343	0.495
-380.931	22.171	0.185	0.150
-379.917	610.840	-0.066	-0.163
-378.902	15.937	0.334	-0.260
-377.888	30.227	0.091	-0.077
-376.873	219.624	0.109	-0.173
-375.858	270.928	-0.061	-0.106
-374.844	-136.477	-0.200	-0.023
-373.829	-70.999	0.182	0.068
-372.815	800.000	-0.134	0.373
-371.800	-142.154	-0.151	0.015
-370.785	133.075	0.188	0.241
-369.771	-46.816	-0.239	0.116
-368.756	-147.209	0.045	-0.004
-367.742	156.209	0.060	-0.082
-366.727	-77.969	0.229	-0.078
-365.712	-153.209	0.268	0.019
-364.698	651.086	0.146	0.371
-363.683	-80.594	0.197	-0.065
-362.669	800.000	0.058	-0.199
-361.654	800.000	-0.062	-0.231
-360.639	595.107	-0.071	0.174
-359.625	-65.651	-0.465	0.184
-358.610	178.079	0.075	-0.108
-357.596	3.242	0.085	0.061
-356.581	-31.763	0.118	-0.066
-355.566	-200.000	-0.010	-0.204
-354.552	-200.000	-0.057	-0.247
-353.537	-68.622	0.069	0.027
-352.523	-118.026	-0.150	0.026
-351.508	800.000	0.149	-0.466
-350.493	-200.000	0.161	0.001
-349.479	800.000	0.019	-0.080
-348.464	-80.710	0.106	0.035
-347.450	-87.701	0.293	0.088
-346.435	800.000	-0.127	0.352
-345.420	-106.530	0.153	-0.034
-344.406	-74.169	0.164	0.059
-343.391	31.942	-0.226	-0.192
-342.377	10.010	-0.204	-0.153
-341.362	-135.945	0.140	0.016
-340.348	229.267	-0.148	0.239
-339.333	-132.258	0.170	0.022
-338.318	-20.638	0.206	-0.125
-337.304	-60.926	-0.073	-0.031
-336.289	-43.098	0.153	0.077
-335.275	523.915	0.081	-0.188
-334.260	-99.446	-0.279	0.069
-333.245	-200.000	0.007	0.109
-332.231	-200.000	-0.010	0.128
-331.216	-41.063	-0.352	-0.179
-330.202	-90.372	-0.162	0.046
-329.187	-200.000	0.041	0.311
-328.172	-135.821	-0.060	0.007
-327.158	-200.000	0.003	0.033
-326.143	-146.121	0.304	0.026
-325.129	35.337	0.116	0.101
-324.114	-140.260	0.215	-0.022
-323.099	28.075	-0.137	0.114
-322.085	175.579	-0.102	-0.146
-321.070	0.371	-0.068	0.048
-320.056	-26.277	0.438	0.254
-319.041	-132.011	0.152	0.020
-318.026	53.893	0.228	0.216
-317.012	800.000	-0.011	0.038
-315.997	292.270	-0.074	0.133
-314.983	2.526	0.258	-0.184
-313.968	-200.000	-0.023	0.134
-312.953	-200.000	0.022	-0.122
-311.939	-200.000	-0.057	-0.294
-310.924	337.183	0.063	0.121
-309.910	108.821	-0.136	0.160
-308.895	-200.000	-0.035	0.190
-307.880	188.226	0.115	0.170
-306.866	19.326	0.102	0.081
-305.851	212.466	0.075	0.118
-304.837	-83.340	0.026	-0.008
-303.822	-168.349	0.280	-0.011
-302.807	263.977	0.112	0.193
-301.793	-143.080	-0.321	0.031
-300.778	-200.000	0.024	-0.228
-299.764	800.000	0.139	0.378
-298.749	-28.457	0.186	-0.106
-297.735	-200.000	0.029	-0.184
-296.720	-200.000	0.021	-0.295
-295.705	180.680	-0.165	0.239
-294.691	82.139	0.170	-0.182
-293.676	-10.513	-0.315	0.206
-292.662	800.000	-0.053	0.218
-291.647	-200.000	-0.075	0.353
-290.632	488.244	0.088	0.197
-289.618	-38.339	-0.033	0.017
-288.603	128.380	0.100	0.125
-287.589	230.436	0.100	0.161
-286.574	269.209	0.087	-0.151
-285.559	-200.000	0.015	0.151
-284.545	-3.765	0.151	-0.103
-283.530	-200.000	-0.062	-0.301
-282.516	-97.545	0.097	0.025
-281.501	166.549	0.169	0.236
-280.486	-200.000	0.037	-0.183
-279.472	-107.452	0.104	0.022
-278.457	194.193	0.191	0.286
-277.443	5.139	0.070	-0.051
-276.428	483.279	-0.020	0.045
-275.413	-20.332	-0.205	-0.125
-274.399	442.406	0.041	-0.088
-273.384	68.509	-0.177	-0.179
-272.370	-101.307	-0.330	-0.079
-271.355	146.864	0.182	-0.241
-270.340	800.000	0.044	0.177
-269.326	141.485	-0.114	0.148
-268.311	-156.763	0.456	-0.028
-267.297	-123.863	-0.340	0.053
-266.282	-200.000	0.054	0.250
-265.267	-31.224	0.181	0.100
-264.253	-96.943	-0.108	-0.028
-263.238	-200.000	-0.085	0.488
-262.224	498.264	0.121	-0.275
-261.209	141.759	-0.144	0.189
-260.195	84.254	-0.095	0.102
-259.180	178.504	0.160	0.231
-258.165	-200.000	-0.010	0.218
-257.151	-200.000	-0.003	0.055
-256.136	-200.000	-0.001	0.254
-255.122	-200.000	0.030	-0.348
-254.107	17.910	-0.176	0.138
-253.092	-84.717	0.246	0.076
-252.078	-47.611	0.029	0.014
-251.063	68.393	-0.156	-0.157
-250.049	-95.001	-0.107	0.029
-249.034	124.803	0.318	0.394
-248.019	-63.582	0.168	-0.068
-247.005	-200.000	0.032	-0.172
-245.990	172.772	-0.126	0.178
-244.976	-200.000	-0.004	0.377
-243.961	448.589	-0.073	0.159
-242.946	-152.855	0.225	-0.016
-241.932	-56.652	0.116	-0.051
-240.917	-47.732	-0.170	0.081
-239.903	-200.000	-0.024	0.165
-238.888	110.082	0.137	-0.162
-237.873	-13.747	0.109	-0.069
-236.859	231.518	-0.071	-0.115
-235.844	142.574	0.196	-0.257
-234.830	246.362	0.049	-0.082
-233.815	65.021	-0.118	0.118
-232.800	-159.252	-0.195	-0.011
-231.786	-168.396	-0.252	0.010
-230.771	152.774	-0.084	0.112
-229.757	-200.000	-0.008	-0.054
-228.742	800.000	0.049	0.136
-227.727	-100.787	-0.159	0.038
-226.713	-76.870	-0.221	-0.076
-225.698	-200.000	0.031	0.161
-224.684	-200.000	0.043	0.224
-223.669	-172.472	0.324	0.010
-222.655	-200.000	-0.048	-0.289
-221.640	-200.000	0.069	-0.310
-220.625	-79.269	-0.243	0.081
-219.611	396.141	0.098	0.200
-218.596	-24.254	0.014	-0.008
-217.582	25.543	-0.086	0.071
-216.567	180.819	0.101	-0.146
-215.552	-50.532	0.277	-0.129
-214.538	-73.935	-0.186	-0.067
-213.523	57.358	0.066	0.064
-212.509	800.000	0.049	-0.181
-211.494	-200.000	0.013	-0.153
-210.479	-79.027	-0.111	0.037
-209.465	-125.327	0.200	0.030
-208.450	-90.139	0.179	-0.051
-207.436	-200.000	-0.054	0.241
-206.421	800.000	0.030	-0.091
-205.406	257.868	-0.053	0.089
-204.392	-200.000	-0.021	0.150
-203.377	-24.403	-0.077	-0.045
-202.363	800.000	0.108	-0.437
-201.348	-1.953	0.149	0.103
-200.333	800.000	-0.027	0.077
-199.319	-17.817	0.062	0.038
-198.304	759.417	0.065	-0.173
-197.290	-57.264	-0.250	0.108
-196.275	-33.143	0.164	0.089
-195.260	-200.000	-0.010	0.189
-194.246	-2.928	-0.144	-0.099
-193.231	-200.000	0.041	0.185
-192.217	-76.500	0.020	-0.007
-191.202	-113.648	0.134	0.026
-190.187	800.000	-0.015	-0.062
-189.173	-200.000	0.024	-0.191
-188.158	-183.566	-0.260	-0.004
-187.144	143.971	-0.081	0.105
-186.129	258.562	-0.160	-0.271
-185.114	-141.860	-0.239	0.023
-184.100	-172.287	0.466	-0.015
-183.085	-173.286	-0.289	0.009
-182.071	138.332	-0.102	0.131
-181.056	-41.824	-0.233	-0.117
-180.042	381.785	0.114	0.231
-179.027	800.000	-0.081	0.224
-178.012	-65.974	-0.170	-0.067
-176.998	-127.516	0.245	0.035
-175.983	61.673	-0.048	-0.047
-174.969	-84.945	-0.280	0.086
-173.954	106.491	0.028	-0.032
-172.939	557.704	0.131	0.310
-171.925	-75.132	0.257	-0.090
-170.910	176.818	-0.025	-0.036
-169.896	-15.517	0.223	0.140
-168.881	-133.279	-0.439	-0.054
-167.866	-98.121	0.212	-0.053
-166.852	-200.000	-0.021	-0.176
-165.837	204.950	0.032	-0.049
-164.823	206.556	0.040	-0.061
-163.808	22.346	-0.240	-0.192
-162.793	-49.329	-0.386	0.181
-161.779	-116.506	-0.230	0.042
-160.764	222.981	-0.234	-0.369
-159.750	176.851	0.091	0.130
-158.735	41.492	-0.104	0.093
-157.720	-200.000	0.009	-0.143
-156.706	355.281	-0.085	0.166
-155.691	-200.000	-0.036	-0.191
-154.677	-76.148	0.146	-0.051
-153.662	-55.798	0.137	-0.060
-152.647	594.104	0.047	0.113
-151.633	800.000	0.057	0.242
-150.618	155.789	0.066	0.089
-149.604	268.760	0.253	0.435
-148.589	-200.000	-0.027	0.277
-147.574	-97.572	0.230	-0.059
-146.560	800.000	-0.016	-0.052
-145.545	800.000	-0.095	0.284
-144.531	405.034	-0.044	-0.091
-143.516	-200.000	-0.040	0.177
-142.502	265.964	0.142	-0.243
-141.487	-200.000	-0.075	-0.439
-140.472	-200.000	0.072	-0.425
-139.458	375.977	0.244	-0.489
-138.443	290.467	-0.180	-0.321
-137.429	800.000	-0.036	-0.139
-136.414	-200.000	0.022	0.110
-135.399	220.742	-0.162	0.255
-134.385	-200.000	0.031	-0.337
-133.370	-71.919	-0.132	-0.048
-132.356	-84.133	0.134	0.042
-131.341	285.947	-0.085	-0.149
-130.326	-200.000	0.003	0.306
-129.312	48.726	-0.062	0.057
-128.297	-186.028	0.255	-0.004
-127.283	-39.965	-0.133	-0.068
-126.268	441.751	-0.128	-0.274
-125.253	-200.000	0.003	0.064
-124.239	-200.000	-0.058	0.283
-123.224	-109.680	0.230	0.047
-122.210	-88.278	0.314	0.092
-121.195	116.968	-0.197	-0.237
-120.180	-158.442	0.015	-0.001
-119.166	-75.450	0.267	0.093
-118.151	96.596	0.203	-0.228
-117.137	-87.855	0.144	0.042
-116.122	-57.354	0.355	-0.153
-115.107	-72.609	0.033	-0.012
-114.093	152.951	0.083	-0.112
-113.078	-8.992	0.079	-0.052
-112.064	208.072	0.121	-0.185
-111.049	49.683	0.112	-0.103
-110.034	800.000	0.055	-0.173
-109.020	789.793	0.169	-0.454
-108.005	-200.000	-0.033	0.162
-106.991	800.000	0.032	0.126
-105.976	49.531	-0.079	0.073
-104.962	-200.000	-0.015	-0.196
-103.947	149.291	0.055	-0.073
-102.932	94.476	0.070	0.078
-101.918	433.816	-0.188	0.400
-100.903	-35.996	-0.091	0.048
-99.889	254.778	0.078	0.131
-98.874	-25.470	-0.155	-0.090
-97.859	538.882	-0.102	0.237
-96.845	-200.000	-0.007	-0.109
-95.830	-70.695	-0.230	-0.085
-94.816	-22.064	-0.134	-0.080
-93.801	366.377	-0.055	0.109
-92.786	380.187	-0.104	0.208
-91.772	-134.339	-0.293	-0.035
-90.757	-58.285	0.397	0.169
-89.743	688.219	-0.050	-0.128
-88.728	167.483	0.279	-0.388
-87.713	120.093	0.059	0.072
-86.699	346.600	0.057	-0.109
-85.684	6.971	0.128	-0.094
-84.670	485.142	-0.074	0.166
-83.655	-11.549	-0.146	-0.094
-82.640	-78.160	-0.098	0.033
-81.626	800.000	0.114	-0.377
-80.611	-113.942	-0.106	0.020
-79.597	263.246	-0.202	0.343
-78.582	-200.000	-0.029	0.201
-77.567	-144.033	0.421	-0.039
-76.553	-200.000	-0.028	0.226
-75.538	63.838	-0.235	-0.231
-74.524	-200.000	-0.037	0.168
-73.509	108.189	-0.109	0.127
-72.494	800.000	0.064	-0.189
-71.480	-87.359	0.148	-0.044
-70.465	397.759	-0.140	0.287
-69.451	800.000	0.056	0.181
-68.436	67.141	-0.149	-0.148
-67.422	800.000	-0.098	-0.279
-66.407	-84.097	0.147	-0.046
-65.392	-200.000	-0.003	0.119
-64.378	554.032	0.054	0.127
-63.363	202.529	0.044	-0.066
-62.349	611.951	-0.146	-0.357
-61.334	208.694	-0.722	-1.104
-60.319	604.308	0.275	0.669
-59.305	373.456	-0.474	-0.942
-58.290	182.190	0.689	0.992
-57.276	364.261	0.851	1.673
-56.261	-200.000	116.211	662.444
-55.246	532.877	1532.679	3545.978
-54.232	176.642	2705.842	3844.281
-53.217	108.456	2183.407	2546.943
-52.203	37.887	1702.051	1478.132
-51.188	30.092	1517.502	1264.858
-50.173	27.800	1493.130	1229.079
-49.159	52.384	1553.236	1448.039
-48.144	50.315	1567.551	1447.150
-47.130	30.307	1522.871	1270.606
-46.115	27.203	1507.946	1237.017
-45.100	26.914	1504.715	1232.357
-44.086	27.017	1502.716	1231.368
-43.071	26.940	1500.577	1229.044
-42.057	27.007	1498.498	1227.749
-41.042	26.882	1497.595	1226.111
-40.027	26.879	1496.289	1224.973
-39.013	26.927	1494.207	1223.549
-37.998	26.823	1493.393	1222.130
-36.984	26.897	1492.570	1221.907
-35.969	26.925	1490.700	1220.516
-34.954	26.893	1489.589	1219.345
-33.940	26.943	1487.993	1218.321
-32.925	26.937	1486.547	1217.047
-31.911	26.913	1485.468	1215.960
-30.896	26.989	1484.143	1215.331
-29.881	26.914	1483.504	1214.259
-28.867	27.009	1481.715	1213.386
-27.852	26.939	1480.637	1211.983
-26.838	27.024	1479.242	1211.365
-25.823	26.986	1477.461	1209.603
-24.809	26.926	1475.921	1207.892
-23.794	27.115	1474.365	1207.832
-22.779	26.979	1473.496	1206.165
-21.765	26.985	1472.125	1205.038
-20.750	27.065	1471.126	1204.699
-19.736	26.987	1470.040	1203.245
-18.721	26.935	1469.301	1202.252
-17.706	26.925	1467.977	1201.053
-16.692	26.976	1466.945	1200.501
-15.677	26.908	1466.002	1199.227
-14.663	26.934	1465.092	1198.612
-13.648	27.005	1463.838	1198.003
-12.633	26.939	1462.714	1196.600
-11.619	26.880	1462.731	1196.175
-10.604	26.847	1461.604	1194.994
-9.590	26.917	1460.782	1194.732
-8.575	26.911	1459.818	1193.856
-7.560	26.937	1458.300	1192.741
-6.546	26.958	1457.449	1192.137
-5.531	26.848	1457.155	1191.124
-4.517	26.931	1455.687	1190.420
-3.502	26.911	1455.080	1189.749
-2.487	26.922	1453.986	1188.876
-1.473	26.861	1453.221	1187.804
-0.458	26.872	1451.762	1186.639
0.556	27.214	1441.811	1175.972
1.571	24.202	1417.135	1136.560
2.586	20.848	1356.187	1067.077
3.600	19.328	1272.692	992.544
4.615	17.935	1228.116	949.952
5.629	15.461	1171.424	892.880
6.644	8.921	1089.631	798.006
7.659	4.140	1052.963	748.045
8.673	3.393	1047.881	740.782
9.688	3.351	1044.754	738.305
10.702	3.315	1043.425	737.125
11.717	3.511	1041.072	736.336
12.731	5.333	1042.100	745.695
13.746	11.771	1051.391	783.184
14.761	17.827	1059.379	818.193
15.775	19.649	1060.822	827.973
16.790	19.161	1059.098	824.218
17.804	18.138	1057.283	817.846
18.819	17.275	1055.135	811.987
19.834	16.892	1053.988	809.205
20.848	16.599	1053.450	807.327
21.863	16.429	1052.519	805.728
22.877	16.289	1051.523	804.231
23.892	16.071	1051.172	802.849
24.907	16.039	1050.362	802.011
25.921	15.987	1049.775	801.242
26.936	16.153	1048.791	801.207
27.950	16.130	1047.913	800.360
28.965	16.085	1046.878	799.283
29.980	16.215	1045.227	798.569
30.994	16.269	1044.455	798.163
32.009	16.370	1043.751	798.032
33.023	16.366	1042.809	797.220
34.038	16.298	1042.192	796.359
35.053	16.337	1040.723	795.348
36.067	16.166	1039.918	793.857
37.082	16.143	1039.522	793.379
38.096	16.175	1038.488	792.669
39.111	16.275	1038.117	792.785
40.126	16.293	1037.047	791.985
41.140	16.342	1035.642	791.070
42.155	16.222	1034.482	789.550
43.169	15.968	1033.552	787.582
44.184	15.963	1032.245	786.498
45.199	15.896	1031.398	785.467
46.213	15.892	1030.650	784.812
47.228	15.939	1029.228	783.875
48.242	16.151	1028.214	784.019
49.257	16.283	1027.449	783.980
50.271	16.180	1026.527	782.730
51.286	16.125	1025.758	781.821
52.301	16.201	1025.108	781.608
53.315	16.237	1024.091	780.928
54.330	16.107	1023.920	780.129
55.344	16.099	1022.657	779.058
56.359	15.967	1021.556	777.542
57.374	16.036	1020.642	777.096
58.388	16.184	1019.596	776.915
59.403	16.059	1018.679	775.571
60.417	15.854	1018.198	774.193
61.432	15.877	1017.652	773.816
62.447	15.845	1016.925	773.048
63.461	15.756	1016.270	772.075
64.476	15.745	1015.284	771.204
65.490	15.812	1014.235	770.646
66.505	15.754	1013.372	769.656
67.520	15.886	1012.439	769.485
68.534	15.847	1011.749	768.714
69.549	15.771	1011.284	767.945
70.563	15.762	1010.546	767.276
71.578	15.760	1009.781	766.618
72.593	15.637	1009.023	765.412
73.607	15.622	1007.720	764.290
74.622	15.444	1007.393	763.165
75.636	15.773	1005.565	763.204
76.651	15.866	1004.213	762.535
77.666	15.673	1004.833	762.062
78.680	15.776	1003.709	761.608
79.695	15.835	1002.591	760.957
80.709	15.753	1002.682	760.590
81.724	15.860	1001.894	760.409
82.739	15.913	1001.029	759.922
83.753	15.921	1000.023	759.131
84.768	15.982	1000.017	759.332
85.782	16.269	998.948	759.747
86.797	16.473	998.021	759.892
87.812	16.472	997.444	759.381
88.826	16.272	996.555	757.738
89.841	16.286	995.861	757.205
90.855	16.216	995.232	756.346
91.870	16.334	994.218	756.039
92.884	16.357	993.928	755.854
93.899	16.374	993.201	755.307
94.914	16.472	992.212	754.929
95.928	16.518	991.330	754.395
96.943	16.611	990.494	754.107
97.957	16.342	989.713	752.246
98.972	16.346	988.810	751.514
99.987	16.393	988.310	751.273
101.001	16.288	988.195	750.656
102.016	16.361	986.928	749.951
103.030	16.290	985.722	748.653
104.045	16.396	984.631	748.225
105.060	16.374	983.816	747.445
106.074	16.330	982.613	746.271
107.089	16.027	981.842	744.278
108.103	15.896	981.151	743.110
109.118	15.780	980.220	741.827
110.133	15.836	979.219	741.254
111.147	15.884	978.394	740.775
112.162	15.962	977.602	740.453
113.176	15.885	977.172	739.724
114.191	16.006	975.746	739.107
115.206	16.035	974.779	738.437
116.220	15.989	974.246	737.768
117.235	16.053	973.418	737.354
118.249	15.967	972.847	736.480
119.264	15.960	971.939	735.696
120.279	16.039	971.208	735.424
121.293	15.863	970.467	734.029
122.308	15.811	969.960	733.354
123.322	15.953	968.527	732.823
124.337	15.785	967.549	731.290
125.352	15.679	966.748	730.161
126.366	15.792	964.768	729.089
127.381	15.755	964.293	728.504
128.395	15.848	962.911	727.797
129.410	15.787	962.427	727.103
130.424	15.869	961.358	726.585
131.439	15.871	960.557	725.928
132.454	15.799	960.047	725.167
133.468	16.013	959.262	725.430
134.483	16.082	958.393	725.006
135.497	16.040	957.723	724.255
136.512	16.063	956.832	723.614
137.527	16.096	955.933	723.012
138.541	16.051	954.887	721.965
139.556	15.963	954.841	721.492
140.570	15.953	954.142	720.853
141.585	16.119	953.537	721.041
142.600	16.340	952.934	721.469
143.614	16.406	951.803	720.829
144.629	16.383	951.556	720.480
145.643	16.377	950.828	719.839
146.658	16.283	950.068	718.802
147.673	16.297	948.809	717.844
148.687	16.216	947.725	716.615
149.702	16.058	946.824	715.200
150.716	16.029	946.403	714.699
151.731	16.148	945.101	714.155
152.746	16.175	944.446	713.709
153.760	16.123	943.819	712.953
154.775	16.228	942.943	712.671
155.789	16.145	942.557	711.969
156.804	16.229	941.468	711.436
157.819	16.408	940.599	711.471
158.833	16.246	940.226	710.442
159.848	16.413	939.336	710.412
160.862	16.556	938.860	710.588
161.877	16.600	937.982	710.045
162.892	16.248	937.220	707.930
163.906	16.086	936.229	706.441
164.921	16.033	935.418	705.543
165.935	16.152	934.184	705.046
166.950	16.122	933.452	704.307
167.964	16.194	932.727	703.999
168.979	16.269	931.307	703.179
169.994	16.281	930.188	702.321
171.008	16.137	929.975	701.496
172.023	16.325	929.104	701.561
173.037	16.361	928.201	700.967
174.052	16.458	927.694	700.924
175.067	16.392	926.885	699.979
176.081	16.185	925.858	698.282
177.096	16.231	925.086	697.826
178.110	16.193	924.246	696.977
179.125	16.157	923.816	696.441
180.140	16.182	923.367	696.143
181.154	16.339	922.322	695.941
182.169	16.410	921.811	695.787
183.183	16.518	920.954	695.523
184.198	16.506	920.822	695.315
185.213	16.612	919.710	694.847
186.227	16.502	919.298	694.023
187.242	16.507	919.007	693.761
188.256	16.737	917.763	693.703
189.271	16.616	917.118	692.660
190.286	16.721	916.816	692.798
191.300	16.535	915.958	691.329
192.315	16.374	914.690	689.653
193.329	16.095	913.777	687.767
194.344	16.179	913.242	687.645
195.359	16.189	913.062	687.489
196.373	16.232	912.789	687.399
197.388	16.430	911.969	687.524
198.402	16.695	911.709	688.347
199.417	16.758	911.169	688.133
200.432	16.820	910.986	688.186
201.446	16.887	910.478	688.015
202.461	16.946	910.043	687.864
203.475	17.015	909.749	687.861
204.490	16.978	908.788	686.922
205.504	16.658	908.004	684.974
206.519	16.644	907.333	684.351
207.534	16.824	906.119	684.103
208.548	16.659	905.441	682.863
209.563	16.780	904.631	682.679
210.577	16.663	904.400	681.976
211.592	16.736	903.531	681.553
212.607	16.733	903.428	681.403
213.621	16.993	902.436	681.639
214.636	16.936	901.721	680.811
215.650	17.001	900.946	680.427
216.665	16.956	900.729	680.020
217.680	16.887	900.219	679.300
218.694	16.902	900.238	679.315
219.709	16.998	899.566	679.131
220.723	17.137	898.515	678.834
221.738	17.034	897.869	677.872
222.753	17.207	896.930	677.796
223.767	17.026	896.645	676.797
224.782	17.027	895.868	676.155
225.796	17.178	894.985	676.030
226.811	17.286	894.686	676.174
227.826	17.192	893.637	674.948
228.840	17.086	893.167	674.110
229.855	16.943	892.400	672.907
230.869	17.062	891.903	672.942
231.884	17.163	891.145	672.711
232.899	17.007	890.225	671.339
233.913	17.075	889.319	670.868
234.928	16.974	888.732	669.966
235.942	16.842	888.479	669.195
236.957	16.796	887.715	668.379
237.972	16.808	886.633	667.554
238.986	16.993	886.240	667.927
240.001	16.974	885.619	667.323
241.015	16.940	884.985	666.654
242.030	17.036	884.503	666.607
243.045	17.088	883.740	666.180
244.059	17.056	883.560	665.860
245.074	17.042	882.714	665.106
246.088	17.067	882.162	664.732
247.103	17.186	881.806	664.868
248.117	17.262	881.211	664.658
249.132	17.430	880.712	664.878
250.147	17.543	879.909	664.658
251.161	17.682	879.711	664.988
252.176	17.790	878.870	664.717
253.190	17.795	878.129	664.115
254.205	17.805	877.403	663.547
255.220	17.848	876.835	663.227
256.234	17.896	876.398	663.025
257.249	17.673	876.070	661.851
258.263	17.868	875.464	662.090
259.278	17.906	874.665	661.575
260.293	17.835	874.483	661.106
261.307	17.995	873.542	660.954
262.322	17.869	873.225	660.169
263.336	18.031	872.503	660.191
264.351	17.915	872.129	659.400
265.366	17.935	871.766	659.145
266.380	18.074	870.725	658.835
267.395	18.055	869.722	657.945
268.409	17.934	869.286	657.090
269.424	17.763	868.541	655.813
270.439	17.862	867.846	655.611
271.453	17.902	867.369	655.345
272.468	17.857	866.141	654.186
273.482	17.848	865.342	653.492
274.497	17.869	865.268	653.458
275.512	17.952	864.376	653.043
276.526	17.885	863.427	652.013
277.541	17.825	862.913	651.337
278.555	17.709	862.732	650.702
279.570	18.102	861.930	651.538
280.585	18.151	861.648	651.453
281.599	18.057	861.065	650.594
282.614	18.062	860.265	649.952
283.628	18.074	859.579	649.423
284.643	17.985	859.252	648.782
285.657	17.885	858.952	648.117
286.672	18.017	858.111	647.925
287.687	18.115	857.415	647.715
288.701	18.152	857.063	647.533
289.716	18.078	856.660	646.889
290.730	18.103	855.930	646.377
291.745	18.167	855.293	646.078
292.760	17.931	855.213	645.068
293.774	18.182	853.896	644.965
294.789	18.190	853.778	644.849
295.803	18.302	853.126	644.723
296.818	18.157	852.296	643.494
297.833	18.049	851.691	642.570
298.847	18.132	850.918	642.245
299.862	18.037	850.488	641.508
300.876	18.128	849.505	641.047
301.891	18.272	848.776	640.980
302.906	18.422	848.278	641.111
303.920	18.534	847.846	641.144
304.935	18.497	847.331	640.563
305.949	18.439	846.960	640.009
306.964	18.542	846.005	639.612
307.979	18.491	845.498	638.983
308.993	18.463	845.013	638.455
310.008	18.381	844.304	637.559
311.022	18.501	844.015	637.729
312.037	18.578	843.363	637.467
313.052	18.533	842.785	636.805
314.066	18.388	842.060	635.664
315.081	18.197	841.719	634.642
316.095	18.312	840.912	634.405
317.110	18.175	840.698	633.678
318.125	18.325	839.857	633.544
319.139	18.376	839.297	633.253
320.154	18.236	839.022	632.473
321.168	18.238	838.650	632.145
322.183	18.285	837.923	631.715
323.197	18.253	837.480	631.205
324.212	18.499	836.710	631.477
325.227	18.269	836.622	630.507
326.241	18.442	835.719	630.406
327.256	18.516	835.144	630.189
328.270	18.560	834.275	629.639
329.285	18.417	834.067	628.902
330.300	18.302	833.519	628.011
331.314	18.442	832.837	627.955
332.329	18.357	832.278	627.167
333.343	18.600	831.426	627.358
334.358	18.718	831.164	627.535
335.373	18.662	830.689	626.917
336.387	18.698	829.988	626.466
337.402	18.946	829.402	626.871
338.416	18.780	829.060	625.954
339.431	18.719	828.600	625.326
340.446	18.799	828.157	625.229
341.460	19.007	827.539	625.462
342.475	19.099	826.820	625.199
343.489	19.061	826.525	624.781
344.504	19.007	826.253	624.324
345.519	19.275	825.371	624.576
346.533	19.230	825.319	624.317
347.548	19.181	824.557	623.509
348.562	19.058	823.996	622.582
349.577	18.851	823.243	621.211
350.592	18.864	822.864	620.918
351.606	18.737	822.662	620.251
352.621	18.725	821.684	619.416
353.635	18.853	821.440	619.637
354.650	18.759	821.508	619.294
355.665	18.895	820.489	618.965
356.679	18.958	819.970	618.742
357.694	19.066	819.521	618.738
358.708	19.113	819.019	618.473
359.723	18.928	818.321	617.228
360.738	18.869	817.941	616.674
361.752	18.929	817.796	616.724
362.767	19.039	817.308	616.698
363.781	19.123	816.533	616.358
364.796	19.309	816.474	616.926
365.810	19.302	816.000	616.487
366.825	19.319	816.070	616.548
367.840	19.377	815.339	616.149
368.854	19.444	815.000	616.077
369.869	19.373	814.480	615.374
370.883	19.276	813.487	614.225
371.898	19.260	813.135	613.849
372.913	19.413	812.387	613.774
373.927	19.387	812.046	613.368
374.942	19.465	811.338	613.057
375.956	19.354	810.509	611.983
376.971	19.462	810.255	612.120
377.986	19.655	809.846	612.441
379.000	19.627	809.075	611.704
380.015	19.631	808.720	611.395
381.029	19.598	808.225	610.849
382.044	19.700	807.483	610.594
383.059	19.513	807.252	609.706
384.073	19.614	806.750	609.631
385.088	19.532	806.237	608.898
386.102	19.497	805.431	608.113
387.117	19.241	804.994	606.827
388.132	19.384	804.554	606.947
389.146	19.512	803.908	606.856
390.161	19.455	803.596	606.367
391.175	19.613	803.463	606.767
392.190	19.645	803.040	606.506
393.205	19.520	802.602	605.681
394.219	19.445	802.031	604.936
395.234	19.616	801.314	604.942
396.248	19.438	800.603	603.728
397.263	19.321	800.346	603.070
398.278	19.457	799.928	603.178
399.292	19.228	799.339	601.881
400.307	19.492	799.047	602.528
401.321	19.370	798.840	601.892
402.336	19.493	798.074	601.692
403.350	19.548	797.603	601.475
404.365	19.619	797.483	601.579
405.380	19.569	797.257	601.182
406.394	19.777	796.631	601.378
407.409	19.896	796.185	601.403
408.423	19.828	795.675	600.727
409.438	20.015	794.912	600.746
410.453	19.988	794.938	600.621
411.467	20.016	794.600	600.408
412.482	20.089	794.054	600.197
413.496	20.221	793.516	600.194
414.511	20.026	793.572	599.507
415.526	20.087	793.045	599.267
416.540	20.076	792.250	598.577
417.555	20.005	791.723	597.881
418.569	20.208	791.473	598.339
419.584	19.967	791.282	597.310
420.599	20.100	790.709	597.283
421.613	161.731	1372.028	1798.142
422.628	140.097	1456.687	1798.234
