DTS Sentinel unit serial number:	SN413079Multiplexer serial number:	ORYXHardware model number:	OX4-SRSoftware version number:	ORYX F/W v4.00 Oryx Data Collector v3.7.2.0data status	okinstallation	princeton_trtdifferential loss correction	single-endedforward channel	channel 3reverse channel	N/Adate	2019/09/19time	12:52:35forward acquisition time	60.00reverse acquisition time	0.00gamma	496.2192k internal	0.2331k external	0.2331temperature offset calibration	0.9994default loss term (dB/km)	0.3790temperature slope calibration	1.0000multiplexer offset coefficient	1.0000multiplexer slope coefficient	1.0000fibre end	0.00T internal ref (°C)	28.19T ext. ref 1 (°C)	0.92T ext. ref 2 (°C)	26.50length (m)	temperature (°C)	Stokes	anti-Stokes-747.200	53.198	0.188	0.181
-746.185	693.779	0.147	0.388
-745.171	-132.169	0.206	0.027
-744.156	-200.000	0.017	0.262
-743.142	559.818	-0.061	0.149
-742.127	-200.000	-0.006	0.164
-741.112	-133.927	-0.119	0.015
-740.098	-200.000	-0.001	0.097
-739.083	2.022	-0.161	-0.117
-738.069	290.291	-0.212	0.388
-737.054	-89.193	0.319	0.095
-736.039	-63.097	-0.392	0.163
-735.025	-42.434	0.268	0.138
-734.010	22.358	-0.052	0.042
-732.996	34.654	-0.143	0.125
-731.981	-79.960	-0.330	-0.112
-730.966	25.431	0.204	-0.171
-729.952	60.693	0.314	-0.313
-728.937	-200.000	-0.046	-0.362
-727.923	-65.746	-0.268	-0.108
-726.908	38.570	-0.069	0.062
-725.894	310.588	-0.072	-0.136
-724.879	72.320	0.096	-0.100
-723.864	800.000	-0.041	0.124
-722.850	-25.212	-0.173	-0.103
-721.835	57.957	-0.112	-0.111
-720.821	509.312	0.123	0.287
-719.806	800.000	-0.081	0.343
-718.791	315.101	0.135	-0.256
-717.777	800.000	0.165	-0.586
-716.762	800.000	0.048	-0.197
-715.748	-142.441	-0.030	-0.003
-714.733	301.085	-0.110	0.205
-713.718	-55.944	0.287	-0.129
-712.704	-172.546	0.178	-0.006
-711.689	800.000	-0.036	0.112
-710.675	-177.981	0.156	-0.004
-709.660	94.957	0.145	0.166
-708.645	265.893	0.166	-0.292
-707.631	-103.645	0.180	-0.042
-706.616	-101.617	-0.052	0.013
-705.602	64.907	0.139	-0.141
-704.587	-56.159	-0.032	0.015
-703.572	179.431	-0.013	-0.019
-702.558	-23.938	-0.218	0.131
-701.543	144.821	0.103	0.139
-700.529	-108.642	-0.217	0.047
-699.514	800.000	-0.072	0.258
-698.499	-33.426	0.048	-0.027
-697.485	-200.000	-0.028	0.272
-696.470	762.339	-0.082	0.222
-695.456	84.268	-0.203	0.223
-694.441	-51.439	0.188	0.088
-693.426	37.753	-0.385	-0.344
-692.412	-23.335	-0.300	-0.181
-691.397	177.192	-0.164	-0.240
-690.383	736.442	0.098	-0.264
-689.368	16.409	0.202	0.161
-688.354	-137.140	0.123	-0.014
-687.339	800.000	0.079	0.227
-686.324	-200.000	-0.137	0.000
-685.310	-49.116	-0.078	-0.037
-684.295	-55.943	0.438	-0.196
-683.281	800.000	0.141	-0.408
-682.266	-164.481	-0.205	-0.009
-681.251	-83.249	0.147	-0.047
-680.237	-82.365	0.424	-0.138
-679.222	-45.665	-0.080	-0.040
-678.208	286.586	-0.024	0.043
-677.193	-33.799	0.132	-0.073
-676.178	800.000	-0.046	-0.194
-675.164	-65.340	0.218	-0.088
-674.149	130.508	-0.286	0.368
-673.135	-59.595	0.227	-0.098
-672.120	800.000	-0.097	-0.383
-671.105	-200.000	0.051	0.321
-670.091	-44.277	-0.203	-0.102
-669.076	155.119	0.067	0.092
-668.062	-173.841	-0.364	0.011
-667.047	53.594	0.057	-0.055
-666.032	74.298	-0.263	0.278
-665.018	-200.000	-0.006	-0.203
-664.003	-114.458	0.126	-0.024
-662.989	150.150	-0.051	-0.070
-661.974	-101.094	0.130	-0.032
-660.959	-33.631	-0.307	-0.170
-659.945	-200.000	-0.041	-0.230
-658.930	-82.213	-0.280	-0.091
-657.916	159.938	-0.118	-0.165
-656.901	395.842	-0.166	-0.348
-655.886	-70.669	-0.187	-0.071
-654.872	-200.000	-0.052	-0.366
-653.857	800.000	0.097	-0.381
-652.843	732.464	-0.134	-0.358
-651.828	-79.076	-0.388	-0.132
-650.814	16.945	0.295	-0.234
-649.799	-200.000	-0.009	0.041
-648.784	-200.000	0.010	-0.047
-647.770	-200.000	0.024	-0.225
-646.755	800.000	-0.055	0.185
-645.741	-31.439	0.041	0.023
-644.726	-136.004	0.088	-0.010
-643.711	1.481	-0.103	-0.074
-642.697	-200.000	-0.063	0.364
-641.682	-116.857	0.063	0.012
-640.668	800.000	0.080	0.239
-639.653	69.096	-0.094	-0.097
-638.638	289.469	0.022	-0.041
-637.624	472.086	0.063	-0.143
-636.609	-141.529	0.158	0.016
-635.595	-17.365	-0.148	-0.093
-634.580	-109.092	0.061	0.013
-633.565	800.000	0.028	-0.124
-632.551	-99.464	0.075	0.019
-631.536	-29.860	-0.266	0.152
-630.522	-5.336	-0.115	-0.079
-629.507	63.059	-0.178	-0.179
-628.492	-144.252	-0.252	0.024
-627.478	2.477	-0.256	0.185
-626.463	-200.000	0.053	0.375
-625.449	-179.721	-0.328	0.007
-624.434	66.570	0.195	-0.199
-623.419	-121.803	0.243	-0.040
-622.405	-79.078	-0.316	0.108
-621.390	-45.134	0.189	-0.094
-620.376	-133.045	0.211	-0.027
-619.361	139.731	-0.082	-0.108
-618.346	21.567	-0.108	-0.088
-617.332	-73.335	0.312	0.114
-616.317	-200.000	0.001	0.340
-615.303	-31.640	-0.315	-0.177
-614.288	-30.258	0.073	-0.042
-613.273	46.292	-0.250	0.232
-612.259	224.085	-0.103	0.167
-611.244	-200.000	-0.016	-0.157
-610.230	295.493	-0.195	0.357
-609.215	-200.000	-0.009	0.053
-608.201	40.117	0.017	0.015
-607.186	-200.000	0.021	-0.123
-606.171	-128.800	-0.118	-0.017
-605.157	38.910	-0.261	0.234
-604.142	0.680	-0.167	0.119
-603.128	-149.691	0.087	-0.007
-602.113	-176.381	0.142	0.004
-601.098	109.693	0.212	-0.254
-600.084	-94.230	-0.120	0.033
-599.069	-200.000	-0.008	-0.240
-598.055	362.311	-0.078	0.157
-597.040	-200.000	-0.004	-0.060
-596.025	-160.331	-0.074	0.004
-595.011	-122.784	0.332	-0.054
-593.996	800.000	0.039	0.129
-592.982	717.841	0.065	-0.173
-591.967	82.036	-0.052	-0.056
-590.952	190.049	0.224	-0.337
-589.938	-200.000	0.008	-0.222
-588.923	800.000	0.058	-0.197
-587.909	800.000	-0.085	0.287
-586.894	800.000	-0.066	0.185
-585.879	61.283	0.208	0.207
-584.865	-59.426	-0.232	-0.100
-583.850	-200.000	-0.009	-0.324
-582.836	800.000	-0.115	0.362
-581.821	593.711	-0.171	-0.423
-580.806	52.967	-0.147	-0.141
-579.792	-37.652	0.236	0.126
-578.777	-200.000	0.018	0.225
-577.763	-143.445	-0.370	0.035
-576.748	800.000	0.020	-0.079
-575.733	800.000	0.086	-0.282
-574.719	127.288	-0.140	0.178
-573.704	24.753	-0.065	-0.054
-572.690	-8.384	0.224	-0.151
-571.675	72.044	0.262	0.273
-570.661	50.866	0.099	-0.093
-569.646	140.023	-0.113	-0.148
-568.631	-179.367	-0.302	0.007
-567.617	591.913	0.136	0.336
-566.602	-78.946	-0.161	-0.055
-565.588	-200.000	-0.021	0.208
-564.573	-1.896	-0.208	0.146
-563.558	8.794	0.096	0.072
-562.544	-3.747	-0.241	-0.167
-561.529	85.420	-0.066	-0.072
-560.515	31.492	0.224	0.193
-559.500	-200.000	-0.031	0.176
-558.485	53.568	0.170	0.163
-557.471	-26.810	0.168	0.098
-556.456	-200.000	0.002	-0.074
-555.442	-74.100	-0.246	-0.089
-554.427	32.872	0.150	0.130
-553.412	344.683	-0.108	0.212
-552.398	79.708	-0.168	-0.180
-551.383	173.621	-0.192	0.277
-550.369	69.772	0.099	-0.102
-549.354	197.867	0.125	-0.191
-548.339	-200.000	0.019	0.176
-547.325	-200.000	-0.001	0.185
-546.310	-67.742	0.097	0.038
-545.296	800.000	0.034	-0.117
-544.281	12.544	-0.139	-0.107
-543.266	-46.839	-0.108	0.053
-542.252	20.354	0.120	-0.097
-541.237	387.074	0.057	-0.118
-540.223	48.544	0.190	0.178
-539.208	601.101	-0.085	-0.210
-538.193	118.393	0.052	-0.065
-537.179	-200.000	-0.008	-0.481
-536.164	-73.460	-0.281	-0.103
-535.150	-38.015	-0.155	0.082
-534.135	141.340	-0.250	-0.330
-533.121	261.874	0.215	-0.373
-532.106	-115.324	0.217	0.041
-531.091	773.819	0.058	0.157
-530.077	136.795	0.157	-0.205
-529.062	-86.037	0.267	0.082
-528.048	-115.473	-0.109	-0.020
-527.033	800.000	-0.045	0.188
-526.018	517.140	0.105	0.244
-525.004	271.508	-0.075	0.131
-523.989	800.000	0.126	-0.367
-522.975	-27.015	-0.429	0.250
-521.960	143.878	-0.112	-0.149
-520.945	-200.000	-0.006	0.106
-519.931	-146.131	0.265	-0.023
-518.916	136.120	0.092	0.120
-517.902	211.510	-0.175	-0.275
-516.887	-127.750	-0.106	0.015
-515.872	-131.664	-0.221	-0.029
-514.858	-200.000	0.005	0.091
-513.843	-71.020	-0.319	-0.120
-512.829	-200.000	0.032	0.266
-511.814	800.000	-0.080	0.351
-510.799	368.116	0.061	-0.123
-509.785	800.000	-0.042	0.135
-508.770	-64.752	0.343	0.138
-507.756	309.909	0.147	0.273
-506.741	-0.326	0.295	0.209
-505.726	32.759	0.177	0.153
-504.712	-200.000	-0.020	-0.423
-503.697	-188.182	-0.270	-0.003
-502.683	799.148	0.136	0.374
-501.668	56.486	-0.141	0.137
-500.653	-45.248	-0.212	0.105
-499.639	297.712	0.049	-0.089
-498.624	6.422	0.068	-0.050
-497.610	-135.072	0.073	-0.009
-496.595	-200.000	-0.013	-0.227
-495.581	-111.451	0.289	0.059
-494.566	676.289	-0.117	-0.303
-493.551	-156.304	0.254	0.016
-492.537	557.914	-0.055	0.131
-491.522	59.920	-0.083	-0.081
-490.508	29.711	-0.369	0.313
-489.493	650.095	0.167	-0.426
-488.478	-200.000	0.084	0.000
-487.464	-35.401	-0.130	0.070
-486.449	-48.467	0.049	0.023
-485.435	29.080	0.182	0.154
-484.420	26.630	-0.036	0.030
-483.405	-17.508	-0.208	0.130
-482.391	93.199	-0.281	0.317
-481.376	-43.815	0.407	0.204
-480.362	800.000	-0.040	-0.168
-479.347	95.367	-0.142	0.162
-478.332	139.428	0.111	-0.146
-477.318	71.964	-0.029	0.030
-476.303	-125.180	0.344	-0.053
-475.289	-200.000	0.019	0.182
-474.274	-164.276	-0.097	-0.004
-473.259	-200.000	0.033	-0.194
-472.245	74.277	-0.281	-0.294
-471.230	395.476	0.285	-0.592
-470.216	800.000	-0.098	-0.294
-469.201	-128.541	0.175	-0.025
-468.186	-99.216	0.395	0.099
-467.172	102.403	0.268	0.311
-466.157	-31.844	0.244	-0.136
-465.143	-64.441	-0.244	-0.099
-464.128	-155.231	0.130	-0.008
-463.113	-107.652	-0.306	0.066
-462.099	-200.000	0.050	0.336
-461.084	-52.585	-0.327	0.150
-460.070	-40.929	-0.156	0.080
-459.055	-200.000	-0.051	-0.234
-458.040	-117.202	-0.470	-0.085
-457.026	-153.245	0.168	0.012
-456.011	180.306	-0.182	-0.265
-454.997	201.640	0.015	-0.023
-453.982	394.522	-0.035	0.073
-452.968	139.109	0.210	0.275
-451.953	-150.353	-0.488	0.037
-450.938	-105.460	-0.377	0.085
-449.924	-9.466	0.140	-0.093
-448.909	198.110	-0.120	0.183
-447.895	0.067	-0.042	-0.030
-446.880	-51.735	0.108	-0.050
-445.865	2.598	0.125	-0.090
-444.851	-5.120	-0.213	-0.146
-443.836	169.440	-0.126	0.180
-442.822	-96.064	-0.227	0.060
-441.807	-115.905	0.332	-0.062
-440.792	-200.000	-0.013	0.150
-439.778	-70.687	0.491	0.184
-438.763	-200.000	0.034	-0.445
-437.749	95.349	-0.104	0.117
-436.734	114.224	0.134	0.163
-435.719	-200.000	-0.062	0.315
-434.705	-139.172	0.346	0.037
-433.690	-157.222	-0.239	-0.014
-432.676	-43.109	0.011	0.005
-431.661	-55.548	-0.058	0.026
-430.646	-200.000	-0.043	0.440
-429.632	-200.000	-0.012	0.097
-428.617	-51.615	-0.019	0.009
-427.603	-194.402	0.280	-0.002
-426.588	-36.317	-0.143	-0.077
-425.573	800.000	-0.034	0.098
-424.559	-83.778	-0.007	0.002
-423.544	-84.475	-0.182	-0.057
-422.530	191.510	0.109	-0.163
-421.515	141.276	-0.084	-0.110
-420.500	-169.442	0.036	0.001
-419.486	-74.795	-0.112	-0.040
-418.471	-57.684	0.241	-0.105
-417.457	755.359	-0.069	-0.184
-416.442	25.295	0.090	0.074
-415.428	27.197	0.320	-0.267
-414.413	109.040	-0.156	-0.186
-413.398	-3.660	-0.219	-0.151
-412.384	-200.000	0.083	-0.389
-411.369	208.935	-0.209	0.325
-410.355	347.309	0.185	-0.362
-409.340	134.558	-0.039	-0.050
-408.325	800.000	-0.076	-0.324
-407.311	153.729	-0.141	-0.191
-406.296	-70.231	-0.284	0.107
-405.282	112.407	-0.247	-0.297
-404.267	-14.234	-0.122	-0.078
-403.252	-27.805	-0.170	-0.098
-402.238	-100.963	0.197	0.048
-401.223	-169.312	0.227	-0.008
-400.209	71.355	-0.229	-0.236
-399.194	-122.516	0.319	0.051
-398.179	556.444	0.023	-0.054
-397.165	-200.000	-0.038	0.382
-396.150	195.893	-0.183	-0.276
-395.136	-200.000	-0.003	0.099
-394.121	-200.000	-0.051	0.263
-393.106	-200.000	0.030	-0.228
-392.092	-59.565	-0.268	0.114
-391.077	-59.151	0.119	0.051
-390.063	-57.008	-0.221	0.097
-389.048	800.000	-0.108	-0.300
-388.033	208.389	-0.067	-0.104
-387.019	-163.681	-0.120	0.006
-386.004	-200.000	-0.033	0.229
-384.990	-100.581	0.237	0.058
-383.975	102.612	0.132	0.154
-382.960	77.417	0.047	0.050
-381.946	64.547	-0.117	-0.117
-380.931	800.000	0.055	-0.177
-379.917	-22.039	0.142	0.086
-378.902	105.549	-0.155	-0.182
-377.888	85.390	-0.205	-0.223
-376.873	33.420	0.105	0.091
-375.858	-84.195	0.102	-0.032
-374.844	800.000	0.079	-0.263
-373.829	-127.036	-0.084	-0.012
-372.815	36.268	0.160	-0.140
-371.800	-155.882	0.402	-0.025
-370.785	43.880	-0.081	0.073
-369.771	206.413	0.044	0.068
-368.756	175.237	-0.173	0.248
-367.742	133.890	-0.237	-0.304
-366.727	-77.717	0.145	0.050
-365.712	-0.465	-0.321	-0.226
-364.698	-200.000	0.044	-0.301
-363.683	-16.131	0.221	0.139
-362.669	120.459	-0.085	0.104
-361.654	-19.968	0.093	0.057
-360.639	-170.657	-0.406	0.014
-359.625	-187.584	0.055	0.001
-358.610	13.313	-0.195	-0.150
-357.596	259.160	0.017	0.028
-356.581	800.000	-0.024	-0.070
-355.566	-98.464	-0.047	-0.012
-354.552	800.000	-0.074	-0.284
-353.537	33.561	-0.170	0.147
-352.523	360.799	-0.117	-0.233
-351.508	211.902	0.015	0.023
-350.493	-200.000	0.048	-0.422
-349.479	-114.762	-0.215	0.041
-348.464	48.824	0.149	0.138
-347.450	-200.000	0.061	0.540
-346.435	-57.648	0.149	0.065
-345.420	88.806	0.105	0.116
-344.406	-34.370	-0.101	0.055
-343.391	236.126	0.220	0.361
-342.377	0.009	0.232	-0.164
-341.362	-164.107	-0.132	0.006
-340.348	-53.880	-0.079	-0.036
-339.333	-171.979	0.489	-0.016
-338.318	-200.000	0.048	-0.275
-337.304	-49.424	-0.098	-0.046
-336.289	7.021	-0.166	0.123
-335.275	-200.000	0.015	0.203
-334.260	-200.000	-0.032	-0.255
-333.245	154.675	0.184	0.250
-332.231	20.392	0.144	-0.115
-331.216	-123.068	-0.164	0.026
-330.202	-0.718	0.193	0.135
-329.187	-76.212	0.228	0.080
-328.172	-18.159	-0.033	-0.020
-327.158	-200.000	0.066	-0.296
-326.143	38.650	-0.173	0.153
-325.129	118.915	-0.087	-0.107
-324.114	-69.013	-0.115	-0.044
-323.099	-113.843	-0.113	0.022
-322.085	-129.870	0.097	-0.013
-321.070	-200.000	0.012	0.242
-320.056	240.619	-0.047	-0.077
-319.041	4.187	-0.226	0.164
-318.026	669.312	0.059	0.152
-317.012	3.859	-0.267	0.193
-315.997	-200.000	0.056	-0.305
-314.983	94.062	0.049	0.055
-313.968	87.072	0.167	-0.183
-312.953	-65.005	0.117	0.047
-311.939	-200.000	0.014	-0.292
-310.924	800.000	0.054	-0.151
-309.910	-200.000	0.057	0.332
-308.895	138.652	-0.066	-0.085
-307.880	530.270	-0.019	0.044
-306.866	-196.628	0.003	0.000
-305.851	202.925	0.289	-0.441
-304.837	-200.000	-0.016	0.000
-303.822	774.540	-0.048	-0.131
-302.807	-200.000	0.041	0.283
-301.793	-72.766	-0.182	0.066
-300.778	-70.786	0.189	-0.070
-299.764	2.634	-0.210	-0.151
-298.749	-6.671	0.067	-0.045
-297.735	162.248	0.063	-0.088
-296.720	-76.114	-0.154	-0.054
-295.705	275.877	-0.071	-0.125
-294.691	-143.458	0.105	0.010
-293.676	578.225	0.129	0.313
-292.662	-79.157	0.172	-0.058
-291.647	93.506	-0.329	0.369
-290.632	187.731	0.075	0.110
-289.618	-106.327	-0.453	0.100
-288.603	-200.000	-0.058	0.502
-287.589	-42.477	0.157	0.079
-286.574	-42.698	-0.271	0.136
-285.559	99.035	-0.029	0.034
-284.545	800.000	-0.056	0.157
-283.530	191.078	0.217	-0.322
-282.516	-105.335	0.100	-0.022
-281.501	111.635	0.258	0.308
-280.486	-161.060	0.072	-0.004
-279.472	720.532	0.030	-0.079
-278.457	800.000	0.034	-0.117
-277.443	-123.368	0.101	0.016
-276.428	23.960	0.141	-0.115
-275.413	98.598	0.060	-0.069
-274.399	-115.692	0.108	-0.020
-273.384	-200.000	0.027	-0.530
-272.370	-200.000	0.018	0.322
-271.355	129.496	0.136	-0.172
-270.340	-23.407	0.103	0.061
-269.326	-52.769	0.121	0.055
-268.311	-46.216	0.147	0.071
-267.297	-84.970	-0.366	-0.113
-266.282	-83.070	0.112	0.036
-265.267	798.437	0.140	0.381
-264.253	-64.028	0.318	-0.128
-263.238	-200.000	-0.015	-0.394
-262.224	112.942	-0.074	-0.089
-261.209	275.228	0.104	0.182
-260.195	632.554	-0.059	0.148
-259.180	800.000	-0.047	0.188
-258.165	5.103	-0.296	0.215
-257.151	-125.268	-0.428	0.065
-256.136	-5.559	-0.415	0.281
-255.122	-113.530	0.182	0.035
-254.107	58.068	-0.366	0.354
-253.092	-140.306	0.216	-0.022
-252.078	101.759	-0.130	0.150
-251.063	800.000	0.109	-0.333
-250.049	175.479	0.014	-0.021
-249.034	-200.000	0.003	0.167
-248.019	14.508	-0.323	0.249
-247.005	-112.406	0.046	-0.009
-245.990	-14.382	0.382	0.243
-244.976	-56.480	-0.301	0.132
-243.961	-200.000	0.014	-0.088
-242.946	-47.931	-0.364	0.174
-241.932	27.145	0.153	0.126
-240.917	-103.508	0.218	0.051
-239.903	-53.499	0.133	-0.060
-238.888	548.642	0.045	-0.107
-237.873	-97.707	-0.237	0.061
-236.859	800.000	0.082	0.333
-235.844	-200.000	-0.007	0.032
-234.830	800.000	-0.107	0.439
-233.815	66.352	-0.067	0.067
-232.800	20.506	-0.217	-0.173
-231.786	133.274	0.090	-0.114
-230.771	-2.264	-0.094	0.065
-229.757	51.958	-0.232	-0.218
-228.742	182.461	-0.158	-0.230
-227.727	-200.000	-0.023	0.124
-226.713	-51.400	-0.112	-0.052
-225.698	-154.041	0.159	0.011
-224.684	593.241	0.031	0.076
-223.669	5.215	0.385	-0.280
-222.655	-130.626	0.078	0.010
-221.640	340.274	-0.100	0.192
-220.625	-72.223	0.274	0.100
-219.611	-132.793	-0.243	0.031
-218.596	-200.000	0.011	0.069
-217.582	-41.003	0.240	-0.122
-216.567	340.711	-0.036	-0.070
-215.552	-43.018	-0.294	-0.147
-214.538	800.000	-0.067	-0.253
-213.523	508.313	0.052	-0.118
-212.509	20.350	-0.235	-0.187
-211.494	1.679	-0.202	-0.143
-210.479	-93.905	0.234	-0.063
-209.465	-55.051	0.423	0.188
-208.450	800.000	0.102	-0.333
-207.436	124.176	-0.041	0.051
-206.421	-200.000	-0.030	0.159
-205.406	-200.000	0.010	-0.168
-204.392	13.473	0.208	0.159
-203.377	-147.187	0.150	0.013
-202.363	800.000	0.125	-0.348
-201.348	-67.868	0.105	0.040
-200.333	-200.000	0.022	-0.286
-199.319	142.747	0.138	0.181
-198.304	22.643	0.387	0.312
-197.290	-25.141	-0.082	0.048
-196.275	491.432	-0.008	0.018
-195.260	81.428	0.276	-0.294
-194.246	-23.972	0.117	-0.069
-193.231	22.272	-0.159	0.128
-192.217	800.000	0.108	-0.300
-191.202	273.459	0.095	0.166
-190.187	-200.000	0.037	0.181
-189.173	-200.000	-0.030	-0.214
-188.158	-134.327	0.251	0.030
-187.144	-75.339	0.051	0.018
-186.129	-128.228	0.193	0.027
-185.114	140.073	0.025	-0.032
-184.100	-200.000	0.048	-0.217
-183.085	-49.525	0.144	-0.068
-182.071	-200.000	-0.008	0.200
-181.056	73.997	0.067	-0.069
-180.042	-200.000	0.034	0.292
-179.027	404.749	0.037	0.076
-178.012	800.000	-0.039	-0.114
-176.998	52.936	0.314	-0.296
-175.983	-123.305	0.173	0.027
-174.969	4.201	0.089	0.064
-173.954	-86.314	0.216	0.065
-172.939	111.668	-0.130	0.155
-171.925	367.235	-0.178	-0.354
-170.910	-46.412	-0.286	0.138
-169.896	140.737	-0.102	0.133
-168.881	59.004	0.071	0.069
-167.866	-119.197	0.289	0.050
-166.852	27.046	-0.131	0.108
-165.837	-78.150	0.199	0.067
-164.823	-200.000	0.002	-0.034
-163.808	738.564	0.162	0.429
-162.793	800.000	0.068	-0.243
-161.779	681.108	-0.052	-0.134
-160.764	31.808	-0.151	-0.128
-159.750	-179.905	0.198	-0.004
-158.735	-200.000	0.011	-0.169
-157.720	188.662	-0.148	-0.218
-156.706	-17.544	0.179	-0.111
-155.691	-1.770	-0.160	0.111
-154.677	211.613	0.305	-0.473
-153.662	117.422	-0.046	-0.055
-152.647	-137.060	0.160	0.018
-151.633	413.906	-0.125	0.262
-150.618	800.000	0.105	-0.333
-149.604	351.834	0.073	0.142
-148.589	-125.863	-0.186	-0.028
-147.574	-156.180	-0.009	0.001
-146.560	62.957	0.001	-0.001
-145.545	-200.000	-0.052	-0.249
-144.531	91.600	0.220	-0.243
-143.516	58.433	-0.230	0.222
-142.502	530.374	-0.035	-0.082
-141.487	17.724	-0.112	-0.087
-140.472	-200.000	0.018	0.169
-139.458	-80.390	-0.184	0.060
-138.443	-7.346	-0.263	0.175
-137.429	-116.647	0.392	-0.071
-136.414	-4.946	0.242	-0.164
-135.399	-29.932	-0.348	-0.195
-134.385	-200.000	-0.008	-0.116
-133.370	132.350	0.120	-0.152
-132.356	800.000	-0.103	0.364
-131.341	-137.737	0.304	-0.034
-130.326	800.000	0.111	-0.346
-129.312	70.261	-0.220	-0.223
-128.297	415.078	0.102	0.214
-127.283	125.306	0.254	0.314
-126.268	-86.655	0.152	0.046
-125.253	164.365	-0.127	-0.176
-124.239	616.589	0.167	-0.412
-123.224	612.932	0.096	-0.236
-122.210	800.000	-0.081	0.223
-121.195	-111.565	-0.233	0.047
-120.180	30.885	-0.067	0.057
-119.166	301.706	-0.133	0.242
-118.151	-128.527	0.183	-0.026
-117.137	-5.159	-0.357	0.241
-116.122	-200.000	-0.014	0.062
-115.107	421.724	-0.113	-0.238
-114.093	-180.402	0.357	-0.007
-113.078	-63.087	0.366	0.148
-112.064	-140.634	0.236	0.024
-111.049	-94.155	-0.184	0.049
-110.034	388.234	-0.096	-0.195
-109.020	244.006	0.140	0.230
-108.005	49.518	-0.095	-0.088
-106.991	-4.161	-0.150	0.102
-105.976	-134.176	-0.163	0.020
-104.962	800.000	0.107	-0.318
-103.947	52.454	0.241	0.226
-102.932	40.385	0.198	0.175
-101.918	48.065	-0.036	0.033
-100.903	-193.212	0.241	-0.002
-99.889	158.365	-0.129	0.176
-98.874	-102.566	-0.135	-0.032
-97.859	-154.785	-0.560	-0.036
-96.845	-200.000	0.023	0.465
-95.830	-150.056	0.111	-0.008
-94.816	61.781	-0.129	0.126
-93.801	-45.301	0.215	0.105
-92.786	-157.033	-0.114	-0.007
-91.772	571.496	0.038	0.092
-90.757	274.597	0.086	-0.149
-89.743	-200.000	-0.014	0.213
-88.728	-200.000	-0.007	0.074
-87.713	-187.615	-0.195	-0.003
-86.699	800.000	0.008	-0.026
-85.684	-138.046	-0.291	0.032
-84.670	0.426	-0.071	-0.050
-83.655	-200.000	0.028	-0.147
-82.640	-200.000	0.041	0.241
-81.626	800.000	-0.020	0.068
-80.611	-14.619	0.103	0.065
-79.597	18.202	0.133	-0.104
-78.582	-200.000	0.019	0.190
-77.567	258.481	0.055	-0.092
-76.553	125.267	0.121	0.149
-75.538	-200.000	-0.017	-0.110
-74.524	-105.614	0.138	0.031
-73.509	21.129	-0.103	0.082
-72.494	262.166	0.152	-0.258
-71.480	681.381	0.049	0.125
-70.465	38.372	0.139	0.121
-69.451	152.327	0.230	-0.308
-68.436	142.400	-0.119	0.155
-67.422	-76.560	0.313	0.108
-66.407	67.653	0.081	-0.081
-65.392	-32.486	0.199	0.109
-64.378	-73.906	-0.147	0.052
-63.363	-200.000	-0.002	-0.124
-62.349	217.008	0.220	-0.344
-61.334	17.595	-1.187	-0.925
-60.319	3.567	0.657	0.470
-59.305	-200.000	-0.174	-1.239
-58.290	268.726	0.705	1.211
-57.276	800.000	0.415	1.688
-56.261	-200.000	109.049	580.480
-55.246	402.441	1534.770	3161.069
-54.232	137.966	2743.363	3522.481
-53.217	100.052	2227.171	2529.579
-52.203	38.460	1744.537	1523.420
-51.188	31.184	1558.130	1309.763
-50.173	28.865	1532.934	1272.496
-49.159	49.766	1589.771	1467.698
-48.144	49.345	1606.877	1480.460
-47.130	31.454	1561.691	1314.445
-46.115	28.489	1546.534	1280.962
-45.100	28.372	1542.776	1276.979
-44.086	28.328	1540.783	1274.970
-43.071	28.265	1538.276	1272.413
-42.057	28.246	1537.042	1271.207
-41.042	28.169	1535.786	1269.587
-40.027	28.208	1534.182	1268.479
-39.013	28.217	1532.991	1267.507
-37.998	28.176	1531.530	1265.960
-36.984	28.145	1530.298	1264.684
-35.969	28.118	1529.553	1263.831
-34.954	28.147	1527.190	1262.028
-33.940	28.167	1526.092	1261.207
-32.925	28.150	1524.693	1259.886
-31.911	28.231	1523.304	1259.243
-30.896	28.311	1521.465	1258.220
-29.881	28.179	1521.248	1257.087
-28.867	28.262	1519.479	1256.145
-27.852	28.159	1518.417	1254.513
-26.838	28.251	1516.572	1253.568
-25.823	28.257	1514.258	1251.643
-24.809	28.239	1513.419	1250.779
-23.794	28.136	1512.422	1249.201
-22.779	28.065	1511.360	1247.792
-21.765	28.209	1509.958	1247.563
-20.750	28.272	1508.858	1247.033
-19.736	28.272	1507.620	1245.959
-18.721	28.252	1506.535	1244.878
-17.706	28.147	1505.668	1243.403
-16.692	28.177	1504.499	1242.592
-15.677	28.244	1502.977	1241.737
-14.663	28.125	1502.445	1240.442
-13.648	28.143	1500.933	1239.263
-12.633	28.217	1500.310	1239.204
-11.619	28.158	1499.441	1238.039
-10.604	28.180	1498.148	1237.068
-9.590	28.196	1496.937	1236.131
-8.575	28.306	1496.034	1236.077
-7.560	28.183	1495.736	1234.953
-6.546	28.172	1494.361	1233.693
-5.531	28.133	1494.308	1233.339
-4.517	28.092	1492.673	1231.663
-3.502	28.105	1491.438	1230.682
-2.487	28.060	1490.929	1229.909
-1.473	28.163	1489.447	1229.331
-0.458	28.179	1488.826	1228.880
0.556	27.755	1479.348	1220.797
1.571	25.526	1454.965	1185.885
2.586	22.458	1391.859	1114.957
3.600	20.562	1304.833	1033.887
4.615	18.544	1258.141	985.221
5.629	15.982	1200.233	925.731
6.644	8.245	1114.171	819.669
7.659	1.978	1074.193	759.078
8.673	1.013	1068.326	750.086
9.688	0.897	1065.090	747.177
10.702	0.866	1064.086	746.254
11.717	0.894	1061.869	744.768
12.731	3.124	1063.868	757.092
13.746	10.253	1073.545	799.213
14.761	15.939	1080.592	832.577
15.775	17.294	1081.847	840.167
16.790	17.114	1080.118	837.866
17.804	16.085	1078.174	831.213
18.819	15.035	1076.534	824.703
19.834	14.787	1075.073	822.288
20.848	14.440	1074.070	819.743
21.863	14.161	1073.237	817.664
22.877	13.961	1071.956	815.633
23.892	13.785	1071.190	814.115
24.907	13.638	1070.653	812.913
25.921	13.637	1069.711	812.124
26.936	13.667	1068.988	811.648
27.950	13.736	1068.554	811.586
28.965	13.793	1067.499	810.990
29.980	13.804	1066.472	810.194
30.994	13.812	1065.467	809.397
32.009	13.872	1065.050	809.300
33.023	13.863	1064.157	808.504
34.038	13.919	1063.026	807.848
35.053	13.898	1062.226	807.065
36.067	13.845	1061.496	806.182
37.082	13.750	1060.883	805.185
38.096	13.700	1060.163	804.324
39.111	14.000	1058.986	804.814
40.126	13.883	1058.200	803.579
41.140	13.861	1057.026	802.509
42.155	13.759	1056.153	801.283
43.169	13.637	1055.569	800.181
44.184	13.628	1054.639	799.362
45.199	13.620	1053.120	798.100
46.213	13.637	1051.936	797.212
47.228	13.733	1051.172	797.027
48.242	13.705	1050.334	796.185
49.257	13.822	1049.085	795.730
50.271	13.728	1047.956	794.351
51.286	13.667	1047.567	793.693
52.301	13.773	1046.644	793.434
53.315	13.834	1045.213	792.571
54.330	13.789	1044.641	791.849
55.344	13.830	1043.846	791.375
56.359	13.681	1042.709	789.731
57.374	13.709	1041.970	789.238
58.388	13.845	1040.989	789.072
59.403	13.511	1040.929	787.366
60.417	13.745	1039.421	787.267
61.432	13.651	1039.351	786.700
62.447	13.689	1037.998	785.785
63.461	13.679	1037.262	785.111
64.476	13.648	1036.358	784.210
65.490	13.611	1035.237	783.119
66.505	13.507	1034.772	782.204
67.520	13.617	1033.675	781.828
68.534	13.605	1033.217	781.354
69.549	13.712	1032.304	781.098
70.563	13.745	1031.518	780.587
71.578	13.589	1031.061	779.440
72.593	13.641	1030.149	778.927
73.607	13.542	1029.183	777.663
74.622	13.553	1028.187	776.894
75.636	13.605	1027.050	776.208
76.651	13.604	1026.359	775.613
77.666	13.447	1025.915	774.474
78.680	13.652	1024.789	774.516
79.695	13.668	1024.433	774.248
80.709	13.554	1023.810	773.180
81.724	13.570	1023.267	772.776
82.739	13.673	1022.202	772.383
83.753	13.706	1021.385	771.851
84.768	13.833	1020.416	771.639
85.782	13.887	1019.583	771.195
86.797	13.856	1019.279	770.750
87.812	13.810	1018.101	769.579
88.826	13.852	1016.877	768.781
89.841	13.711	1016.664	767.898
90.855	13.706	1015.730	767.103
91.870	13.814	1015.253	767.172
92.884	13.801	1014.352	766.362
93.899	13.746	1013.733	765.575
94.914	13.788	1012.615	764.857
95.928	13.908	1011.688	764.642
96.943	13.851	1011.040	763.822
97.957	13.855	1010.628	763.461
98.972	13.920	1009.173	762.593
99.987	13.889	1008.706	762.030
101.001	13.937	1007.703	761.425
102.016	13.897	1006.986	760.631
103.030	13.817	1006.201	759.607
104.045	13.766	1005.481	758.764
105.060	13.751	1004.347	757.772
106.074	13.775	1003.724	757.342
107.089	13.844	1002.819	756.910
108.103	13.738	1001.571	755.416
109.118	13.755	1000.798	754.846
110.133	13.628	1000.094	753.670
111.147	13.768	998.806	753.265
112.162	13.689	998.448	752.572
113.176	13.687	997.246	751.591
114.191	13.825	996.508	751.593
115.206	13.641	995.730	750.109
116.220	13.770	994.913	750.009
117.235	13.777	994.029	749.306
118.249	13.832	992.522	748.354
119.264	13.837	991.859	747.809
120.279	13.761	991.263	746.951
121.293	13.809	989.922	746.090
122.308	13.711	989.607	745.349
123.322	13.676	989.035	744.691
124.337	13.788	987.498	743.972
125.352	13.766	986.458	743.024
126.366	13.697	985.653	742.042
127.381	13.773	984.537	741.477
128.395	13.800	983.391	740.669
129.410	13.708	982.320	739.385
130.424	13.698	981.757	738.854
131.439	13.657	980.824	737.903
132.454	13.705	979.915	737.367
133.468	13.634	979.411	736.607
134.483	13.849	978.178	736.571
135.497	13.820	977.645	735.975
136.512	13.702	976.989	734.892
137.527	13.807	975.871	734.449
138.541	13.735	975.207	733.568
139.556	13.812	974.473	733.291
140.570	13.766	973.766	732.490
141.585	13.715	972.969	731.604
142.600	13.932	972.083	731.829
143.614	13.924	971.382	731.198
144.629	13.920	970.913	730.763
145.643	13.958	969.654	729.919
146.658	13.948	968.808	729.175
147.673	13.905	968.310	728.547
148.687	13.929	967.356	727.866
149.702	13.919	966.531	727.138
150.716	13.890	964.995	725.794
151.731	13.807	964.430	724.941
152.746	13.880	964.045	724.908
153.760	13.761	963.621	724.002
154.775	13.883	962.390	723.545
155.789	13.958	961.612	723.222
156.804	13.941	960.585	722.312
157.819	14.008	959.827	721.973
158.833	13.970	959.560	721.539
159.848	13.964	959.182	721.166
160.862	14.108	957.906	720.768
161.877	14.077	957.154	720.005
162.892	13.971	956.125	718.706
163.906	13.919	955.854	718.216
164.921	13.911	954.783	717.313
165.935	13.929	953.679	716.499
166.950	14.012	952.559	715.952
167.964	14.147	951.433	715.622
168.979	14.090	950.823	714.854
169.994	14.063	949.903	713.983
171.008	13.987	949.155	713.033
172.023	14.138	948.262	712.944
173.037	14.115	947.520	712.224
174.052	14.165	946.667	711.735
175.067	14.011	946.356	710.779
176.081	14.018	945.479	710.090
177.096	14.117	944.401	709.640
178.110	14.170	943.762	709.323
179.125	14.062	943.020	708.240
180.140	14.070	942.281	707.656
181.154	14.097	941.265	706.945
182.169	14.108	940.948	706.691
183.183	14.211	940.036	706.382
184.198	14.365	938.854	706.085
185.213	14.256	938.290	705.135
186.227	14.325	938.167	705.273
187.242	14.411	937.639	705.179
188.256	14.232	936.861	703.773
189.271	14.272	936.255	703.425
190.286	14.273	935.224	702.593
191.300	14.223	934.609	701.856
192.315	14.076	934.187	700.862
193.329	14.140	933.191	700.320
194.344	14.139	932.587	699.802
195.359	14.236	932.234	699.881
196.373	14.309	931.008	699.206
197.388	14.309	930.986	699.126
198.402	14.385	930.280	698.854
199.417	14.334	930.163	698.491
200.432	14.472	929.132	698.232
201.446	14.572	928.505	698.117
202.461	14.468	928.541	697.647
203.475	14.588	927.540	697.334
204.490	14.686	926.878	697.187
205.504	14.576	926.250	696.191
206.519	14.562	925.500	695.509
207.534	14.529	924.722	694.726
208.548	14.556	924.244	694.416
209.563	14.589	923.486	693.922
210.577	14.589	922.971	693.474
211.592	14.621	921.787	692.655
212.607	14.505	921.371	691.803
213.621	14.579	921.057	691.812
214.636	14.641	920.227	691.385
215.650	14.624	919.618	690.794
216.665	14.791	918.941	690.915
217.680	14.661	918.797	690.211
218.694	14.631	917.956	689.394
219.709	14.807	917.389	689.631
220.723	14.818	916.906	689.254
221.738	14.774	915.901	688.256
222.753	14.735	915.593	687.802
223.767	14.781	914.903	687.411
224.782	14.864	913.892	686.932
225.796	14.893	912.812	686.179
226.811	14.800	912.627	685.599
227.826	14.872	911.676	685.118
228.840	14.821	911.344	684.597
229.855	14.815	910.621	683.970
230.869	14.944	909.765	683.795
231.884	14.850	909.191	682.921
232.899	14.935	908.238	682.490
233.913	14.817	907.868	681.670
234.928	14.981	906.920	681.565
235.942	14.859	906.294	680.536
236.957	14.864	905.549	679.940
237.972	14.891	904.979	679.559
238.986	15.028	904.116	679.407
240.001	14.981	903.372	678.600
241.015	14.929	903.104	678.127
242.030	14.952	902.381	677.616
243.045	14.903	901.517	676.712
244.059	15.125	900.813	677.018
245.074	15.009	900.080	675.940
246.088	14.932	899.866	675.408
247.103	15.151	898.928	675.528
248.117	15.142	898.286	674.948
249.132	15.140	897.555	674.334
250.147	15.184	896.926	673.978
251.161	15.198	896.676	673.784
252.176	15.288	895.518	673.217
253.190	15.280	894.863	672.634
254.205	15.407	894.612	672.896
255.220	15.372	893.725	672.028
256.234	15.397	892.966	671.499
257.249	15.333	892.769	671.033
258.263	15.371	892.272	670.754
259.278	15.355	891.268	669.876
260.293	15.367	890.743	669.467
261.307	15.427	890.519	669.479
262.322	15.456	889.887	669.061
263.336	15.533	889.231	668.816
264.351	15.385	888.835	667.871
265.366	15.520	887.986	667.711
266.380	15.631	886.855	667.239
267.395	15.540	886.472	666.535
268.409	15.655	885.623	666.293
269.424	15.518	885.042	665.251
270.439	15.443	884.658	664.609
271.453	15.521	883.736	664.164
272.468	15.587	882.949	663.777
273.482	15.713	882.283	663.713
274.497	15.713	881.941	663.399
275.512	15.750	880.832	662.650
276.526	15.728	879.553	661.544
277.541	15.593	879.530	660.935
278.555	15.619	879.333	660.833
279.570	15.705	878.326	660.353
280.585	15.923	877.692	660.675
281.599	15.673	877.554	659.530
282.614	15.805	876.494	659.196
283.628	15.917	875.819	659.067
284.643	15.777	875.485	658.210
285.657	15.743	874.994	657.649
286.672	15.702	874.924	657.377
287.687	15.750	874.213	656.974
288.701	15.801	873.623	656.669
289.716	15.883	872.700	656.236
290.730	15.962	872.213	656.123
291.745	15.792	871.872	655.145
292.760	15.859	870.498	654.314
293.774	15.938	870.120	654.280
294.789	16.012	869.663	654.167
295.803	15.949	869.257	653.556
296.818	15.914	868.588	652.863
297.833	15.873	867.860	652.096
298.847	16.046	866.872	651.965
299.862	16.052	866.261	651.473
300.876	16.079	865.390	650.863
301.891	16.099	864.570	650.268
302.906	16.206	864.026	650.213
303.920	16.083	863.749	649.474
304.935	16.019	863.136	648.708
305.949	16.133	862.534	648.636
306.964	16.220	861.948	648.474
307.979	16.126	861.443	647.675
308.993	16.201	860.373	647.101
310.008	16.216	859.621	646.537
311.022	16.253	859.453	646.493
312.037	16.357	858.810	646.350
313.052	16.330	858.356	645.849
314.066	16.427	857.579	645.576
315.081	16.279	857.153	644.636
316.095	16.279	856.614	644.174
317.110	16.236	855.988	643.481
318.125	16.418	855.333	643.623
319.139	16.213	855.123	642.629
320.154	16.272	854.469	642.306
321.168	16.325	853.958	642.064
322.183	16.293	853.432	641.492
323.197	16.168	853.268	640.838
324.212	16.229	852.048	640.096
325.227	16.347	851.749	640.262
326.241	16.336	851.256	639.793
327.256	16.351	850.495	639.219
328.270	16.384	849.805	638.770
329.285	16.299	849.541	638.192
330.300	16.340	848.837	637.765
331.314	16.389	848.343	637.519
332.329	16.353	847.639	636.801
333.343	16.390	847.103	636.479
334.358	16.517	846.368	636.349
335.373	16.589	845.505	635.914
336.387	16.594	845.155	635.616
337.402	16.521	844.971	635.147
338.416	16.596	844.252	634.830
339.431	16.662	843.456	634.422
340.446	16.582	842.906	633.652
341.460	16.789	842.276	633.898
342.475	16.690	841.833	633.138
343.489	16.839	841.269	633.213
344.504	16.769	840.653	632.432
345.519	16.738	840.201	631.923
346.533	16.848	839.784	631.963
347.548	16.923	839.049	631.635
348.562	16.827	838.357	630.700
349.577	16.772	838.188	630.312
350.592	16.720	837.576	629.604
351.606	16.623	837.532	629.151
352.621	16.806	836.807	629.232
353.635	16.645	836.370	628.249
354.650	16.685	836.275	628.273
355.665	16.741	835.306	627.698
356.679	16.786	834.994	627.571
357.694	16.886	834.332	627.391
358.708	16.927	833.696	627.009
359.723	16.981	832.963	626.599
360.738	16.877	832.651	625.925
361.752	16.927	831.950	625.527
362.767	16.904	831.636	625.151
363.781	17.041	830.973	625.102
364.796	17.036	830.812	624.907
365.810	17.031	830.671	624.728
366.825	17.120	829.724	624.289
367.840	17.193	829.500	624.333
368.854	17.181	828.985	623.847
369.869	17.181	828.596	623.496
370.883	17.203	827.801	622.925
371.898	16.972	827.574	621.852
372.913	17.124	827.057	621.967
373.927	17.295	826.025	621.761
374.942	17.160	825.501	620.817
375.956	17.233	824.823	620.518
376.971	17.041	824.777	619.729
377.986	17.283	824.000	619.972
379.000	17.381	823.406	619.827
380.015	17.384	822.794	619.324
381.029	17.374	822.499	619.008
382.044	17.318	822.042	618.407
383.059	17.343	821.109	617.742
384.073	17.355	820.803	617.501
385.088	17.349	820.343	617.078
386.102	17.431	819.620	616.777
387.117	17.272	819.242	615.861
388.132	17.407	818.637	615.841
389.146	17.308	818.624	615.417
390.161	17.404	817.818	615.107
391.175	17.521	817.283	615.070
392.190	17.553	816.869	614.820
393.205	17.384	816.967	614.229
394.219	17.525	816.320	614.197
395.234	17.516	815.450	613.455
396.248	17.417	815.459	613.053
397.263	17.543	814.403	612.655
398.278	17.482	814.377	612.365
399.292	17.421	813.910	611.738
400.307	17.367	813.454	611.149
401.321	17.389	812.870	610.733
402.336	17.434	812.858	610.832
403.350	17.467	812.693	610.772
404.365	17.688	811.310	610.470
405.380	17.683	811.130	610.266
406.394	17.650	810.703	609.773
407.409	17.487	810.167	608.732
408.423	17.668	809.748	609.010
409.438	17.659	809.397	608.660
410.453	17.853	808.582	608.684
411.467	17.825	808.228	608.265
412.482	17.885	807.861	608.149
413.496	17.909	807.295	607.755
414.511	17.741	807.089	606.948
415.526	17.849	806.611	606.918
416.540	17.886	806.227	606.707
417.555	17.812	806.063	606.265
418.569	18.074	805.430	606.668
419.584	17.830	805.045	605.455
420.599	17.941	804.344	605.270
421.613	111.651	1294.048	1474.731
422.628	96.326	1365.377	1474.845
