DTS Sentinel unit serial number:	SN413079Multiplexer serial number:	ORYXHardware model number:	OX4-SRSoftware version number:	ORYX F/W v4.00 Oryx Data Collector v3.7.2.0data status	okinstallation	princeton_trtdifferential loss correction	single-endedforward channel	channel 3reverse channel	N/Adate	2019/09/11time	04:14:11forward acquisition time	60.00reverse acquisition time	0.00gamma	496.2192k internal	0.2330k external	0.2330temperature offset calibration	0.9915default loss term (dB/km)	0.3790temperature slope calibration	1.0000multiplexer offset coefficient	1.0000multiplexer slope coefficient	1.0000fibre end	0.00T internal ref (°C)	29.56T ext. ref 1 (°C)	-0.28T ext. ref 2 (°C)	23.50length (m)	temperature (°C)	Stokes	anti-Stokes-747.200	-200.000	0.047	0.278
-746.185	40.661	-0.282	0.256
-745.171	160.723	0.106	0.149
-744.156	64.023	-0.205	0.207
-743.142	27.488	0.069	0.058
-742.127	263.359	0.104	0.183
-741.112	-170.766	-0.132	-0.005
-740.098	253.525	-0.291	0.500
-739.083	128.629	0.012	-0.015
-738.069	-69.468	-0.201	-0.077
-737.054	-155.305	-0.167	-0.011
-736.039	-61.340	-0.072	-0.031
-735.025	800.000	-0.086	0.320
-734.010	-200.000	0.002	-0.121
-732.996	357.125	0.161	-0.324
-731.981	-59.150	-0.248	-0.107
-730.966	145.114	0.095	0.128
-729.952	122.814	0.030	-0.038
-728.937	239.455	-0.067	-0.112
-727.923	800.000	-0.096	-0.340
-726.908	-151.922	-0.198	0.015
-725.894	-200.000	-0.007	-0.310
-724.879	59.030	-0.249	-0.246
-723.864	-84.789	-0.326	-0.103
-722.850	-200.000	-0.012	-0.299
-721.835	626.879	0.073	-0.185
-720.821	-48.409	-0.189	-0.091
-719.806	-140.829	-0.329	-0.034
-718.791	81.805	0.117	0.127
-717.777	-200.000	0.059	-0.276
-716.762	-1.752	-0.016	-0.012
-715.748	0.164	-0.264	-0.189
-714.733	506.720	0.138	-0.322
-713.718	-77.834	0.366	-0.127
-712.704	-85.754	-0.585	-0.182
-711.689	558.893	0.135	0.327
-710.675	415.789	-0.180	0.385
-709.660	-200.000	0.030	-0.171
-708.645	800.000	0.044	0.146
-707.631	71.869	0.172	0.180
-706.616	-179.123	-0.160	0.004
-705.602	279.827	-0.062	-0.111
-704.587	164.008	0.252	-0.357
-703.572	800.000	0.050	-0.145
-702.558	-200.000	-0.049	-0.428
-701.543	-116.428	-0.138	-0.026
-700.529	24.035	-0.138	0.114
-699.514	-200.000	-0.010	-0.100
-698.499	-67.078	0.141	0.056
-697.485	-200.000	-0.069	-0.305
-696.470	800.000	-0.026	-0.091
-695.456	-200.000	0.011	-0.159
-694.441	-8.902	-0.220	0.148
-693.426	-185.117	-0.299	-0.005
-692.412	-112.298	0.062	0.012
-691.397	396.000	0.104	-0.218
-690.383	-169.990	0.045	-0.002
-689.368	191.718	0.051	-0.078
-688.354	-200.000	0.007	-0.066
-687.339	132.253	0.163	0.211
-686.324	298.239	0.130	-0.239
-685.310	-200.000	0.008	-0.039
-684.295	212.494	-0.179	0.284
-683.281	145.383	-0.059	0.080
-682.266	-66.800	-0.214	0.085
-681.251	-200.000	0.018	0.181
-680.237	0.489	-0.128	-0.092
-679.222	-189.735	0.211	0.002
-678.208	241.960	-0.043	-0.072
-677.193	173.727	-0.143	-0.207
-676.178	-152.492	-0.371	-0.027
-675.164	563.090	-0.041	-0.101
-674.149	-73.265	0.268	0.099
-673.135	-44.886	0.200	-0.100
-672.120	232.064	-0.226	-0.372
-671.105	366.163	-0.177	-0.357
-670.091	117.809	0.052	0.064
-669.076	-200.000	0.032	-0.194
-668.062	-156.626	0.174	-0.011
-667.047	-59.295	-0.222	-0.096
-666.032	-100.099	0.103	-0.026
-665.018	-200.000	-0.032	-0.218
-664.003	496.495	0.164	-0.380
-662.989	-72.547	-0.212	0.079
-661.974	-76.712	-0.330	-0.116
-660.959	-91.007	-0.133	-0.038
-659.945	103.544	-0.073	0.086
-658.930	-161.898	-0.115	0.006
-657.916	-82.439	0.267	-0.087
-656.901	-48.335	-0.201	0.097
-655.886	-200.000	0.038	-0.360
-654.872	118.922	0.195	0.242
-653.857	276.840	0.130	-0.232
-652.843	-200.000	-0.032	0.442
-651.828	-76.538	-0.161	0.057
-650.814	336.882	0.136	-0.265
-649.799	-58.342	-0.224	0.098
-648.784	-200.000	0.078	-0.378
-647.770	800.000	0.092	0.355
-646.755	160.403	0.274	-0.383
-645.741	243.653	0.183	0.308
-644.726	-114.073	0.371	0.072
-643.711	-79.700	-0.061	0.021
-642.697	-200.000	-0.009	0.087
-641.682	-54.270	0.338	0.154
-640.668	-200.000	0.014	-0.190
-639.653	-200.000	-0.041	-0.308
-638.638	-134.153	-0.291	0.036
-637.624	-181.278	-0.246	-0.005
-636.609	301.585	-0.064	0.118
-635.595	-200.000	0.044	-0.345
-634.580	767.083	0.006	-0.016
-633.565	800.000	-0.113	0.333
-632.551	-121.194	0.163	-0.027
-631.536	-200.000	0.001	-0.165
-630.522	409.591	0.041	0.086
-629.507	-21.189	0.259	-0.159
-628.492	-200.000	0.017	0.223
-627.478	800.000	0.060	-0.232
-626.463	-62.612	-0.034	0.014
-625.449	-200.000	0.010	0.238
-624.434	800.000	0.040	-0.170
-623.419	282.405	0.087	0.157
-622.405	-107.914	0.087	0.019
-621.390	149.344	-0.197	0.268
-620.376	800.000	-0.045	-0.193
-619.361	-111.682	-0.301	-0.061
-618.346	476.656	0.092	-0.210
-617.332	800.000	-0.120	0.434
-616.317	161.998	0.133	-0.186
-615.303	-88.089	0.042	0.012
-614.288	-127.513	-0.226	0.033
-613.273	-62.826	-0.077	0.032
-612.259	-133.520	0.189	-0.024
-611.244	32.804	-0.209	0.182
-610.230	80.656	-0.143	0.154
-609.215	-117.881	-0.105	-0.019
-608.201	-129.488	-0.152	0.021
-607.186	195.741	0.200	0.304
-606.171	-110.662	0.335	-0.069
-605.157	128.150	0.183	-0.233
-604.142	78.295	0.320	0.342
-603.128	-79.904	0.161	0.054
-602.113	800.000	0.088	-0.280
-601.098	3.569	-0.136	0.099
-600.084	81.783	-0.093	0.101
-599.069	488.141	-0.029	0.066
-598.055	-156.120	-0.259	0.016
-597.040	800.000	-0.073	0.277
-596.025	-135.745	0.397	-0.047
-595.011	244.797	0.149	-0.252
-593.996	278.366	-0.153	-0.273
-592.982	-99.492	0.062	-0.016
-591.967	-77.426	-0.057	0.020
-590.952	-8.344	0.061	-0.041
-589.938	-85.372	0.404	-0.126
-588.923	205.887	0.017	0.027
-587.909	-25.510	-0.210	-0.124
-586.894	800.000	-0.017	0.064
-585.879	-200.000	0.070	0.352
-584.865	-133.550	0.373	0.047
-583.850	-200.000	-0.005	0.062
-582.836	120.655	0.233	-0.289
-581.821	-200.000	-0.022	-0.155
-580.806	-118.965	-0.188	-0.033
-579.792	-63.019	0.044	-0.018
-578.777	800.000	0.061	0.179
-577.763	407.196	-0.088	0.187
-576.748	-200.000	-0.029	-0.197
-575.733	800.000	0.094	-0.390
-574.719	-0.306	-0.150	-0.107
-573.704	-107.224	-0.374	-0.082
-572.690	-18.601	-0.335	-0.209
-571.675	210.932	0.122	0.192
-570.661	88.435	0.309	-0.343
-569.646	383.799	-0.129	-0.265
-568.631	-57.588	0.090	0.040
-567.617	-61.704	0.169	0.071
-566.602	-133.282	0.102	-0.013
-565.588	179.815	-0.090	0.133
-564.573	-30.178	-0.278	0.158
-563.558	-69.794	0.278	0.106
-562.544	800.000	0.038	-0.109
-561.529	106.936	-0.058	0.069
-560.515	-144.622	-0.248	-0.023
-559.500	-108.466	-0.079	-0.017
-558.485	-78.469	0.358	0.122
-557.471	204.046	-0.153	0.236
-556.456	36.571	-0.296	0.261
-555.442	-200.000	-0.007	0.298
-554.427	18.225	-0.094	0.075
-553.412	93.883	0.160	-0.181
-552.398	-177.429	0.132	-0.003
-551.383	243.120	-0.136	0.228
-550.369	97.318	0.178	0.204
-549.354	229.655	0.210	-0.343
-548.339	61.203	-0.073	0.073
-547.325	-200.000	-0.046	-0.238
-546.310	80.854	-0.174	0.188
-545.296	-200.000	-0.032	0.205
-544.281	-115.335	-0.220	0.041
-543.266	-138.240	0.273	-0.030
-542.252	-200.000	-0.038	0.388
-541.237	-200.000	-0.077	-0.443
-540.223	-105.291	0.310	0.071
-539.208	-63.603	-0.456	-0.187
-538.193	-100.174	-0.147	0.037
-537.179	124.133	0.164	-0.206
-536.164	800.000	-0.078	-0.287
-535.150	800.000	-0.134	0.414
-534.135	503.063	-0.097	0.223
-533.121	800.000	-0.051	-0.182
-532.106	442.921	0.152	-0.332
-531.091	279.754	0.027	0.049
-530.077	-162.413	-0.093	0.005
-529.062	-200.000	-0.042	0.219
-528.048	425.811	0.167	0.359
-527.033	89.889	0.052	-0.058
-526.018	20.266	-0.445	-0.359
-525.004	-200.000	-0.003	0.048
-523.989	-9.835	0.082	0.055
-522.975	-200.000	-0.025	-0.171
-521.960	53.641	-0.130	0.124
-520.945	-37.818	0.177	-0.094
-519.931	800.000	0.056	0.158
-518.916	800.000	-0.071	0.294
-517.902	-50.167	0.254	-0.120
-516.887	-111.956	-0.104	-0.021
-515.872	-138.883	-0.260	0.028
-514.858	200.762	0.300	0.460
-513.843	800.000	-0.043	0.167
-512.829	-126.254	0.027	0.004
-511.814	-76.963	0.145	0.050
-510.799	-200.000	-0.006	-0.350
-509.785	-37.357	-0.159	0.085
-508.770	77.748	-0.108	-0.115
-507.756	54.745	0.178	0.171
-506.741	-200.000	0.006	0.254
-505.726	714.613	-0.108	-0.286
-504.712	485.829	-0.060	-0.137
-503.697	-50.878	-0.175	0.082
-502.683	-26.190	-0.381	0.223
-501.668	800.000	0.035	0.106
-500.653	-80.672	0.104	0.034
-499.639	-53.470	0.411	-0.188
-498.624	-98.908	0.214	0.054
-497.610	12.293	0.019	0.015
-496.595	-200.000	0.042	-0.372
-495.581	-200.000	-0.020	0.228
-494.566	5.201	-0.029	0.022
-493.551	578.503	0.088	0.214
-492.537	-7.504	0.225	0.152
-491.522	418.146	0.046	-0.098
-490.508	-200.000	-0.022	-0.404
-489.493	140.723	-0.228	-0.301
-488.478	428.090	0.025	-0.053
-487.464	-47.417	0.136	0.066
-486.449	-14.465	-0.164	0.105
-485.435	-200.000	0.030	-0.192
-484.420	121.665	-0.080	0.099
-483.405	1.234	-0.422	-0.302
-482.391	-60.120	-0.179	-0.076
-481.376	-55.706	-0.148	-0.066
-480.362	-27.309	0.260	0.151
-479.347	-200.000	0.017	0.296
-478.332	-87.865	-0.131	-0.039
-477.318	158.586	-0.122	0.168
-476.303	-200.000	-0.002	0.022
-475.289	42.909	-0.031	-0.028
-474.274	-200.000	-0.009	0.085
-473.259	-197.085	0.213	0.001
-472.245	-138.543	-0.317	0.035
-471.230	-35.847	-0.149	-0.080
-470.216	-89.199	0.281	0.083
-469.201	464.849	0.087	-0.193
-468.186	-15.274	-0.199	-0.127
-467.172	-133.962	-0.067	-0.008
-466.157	-200.000	-0.006	0.107
-465.143	-124.473	-0.113	-0.017
-464.128	-200.000	0.025	-0.174
-463.113	-183.996	0.158	-0.003
-462.099	-66.454	-0.102	-0.040
-461.084	-71.514	0.094	-0.035
-460.070	-200.000	-0.009	-0.111
-459.055	44.755	-0.113	-0.104
-458.040	-41.661	0.343	-0.176
-457.026	-54.831	-0.175	-0.079
-456.011	57.654	-0.095	-0.093
-454.997	-9.144	0.059	-0.039
-453.982	-152.336	-0.245	0.018
-452.968	800.000	-0.075	-0.272
-451.953	-103.727	-0.142	0.033
-450.938	93.740	0.194	0.219
-449.924	570.362	-0.089	0.214
-448.909	83.162	0.206	0.224
-447.895	426.145	0.107	0.230
-446.880	-148.140	0.209	-0.017
-445.865	209.857	0.091	-0.142
-444.851	124.392	-0.161	-0.202
-443.836	-200.000	0.002	-0.295
-442.822	429.731	0.041	-0.089
-441.807	-200.000	0.024	-0.187
-440.792	-54.446	-0.185	-0.083
-439.778	800.000	0.059	-0.229
-438.763	712.937	0.113	-0.298
-437.749	-147.155	-0.298	-0.025
-436.734	-200.000	0.056	-0.261
-435.719	-200.000	0.017	0.123
-434.705	-200.000	0.063	-0.395
-433.690	167.125	0.244	0.345
-432.676	14.364	-0.151	0.117
-431.661	800.000	-0.053	0.160
-430.646	800.000	-0.079	0.227
-429.632	-106.002	0.045	0.010
-428.617	48.787	0.283	0.264
-427.603	-200.000	0.002	0.125
-426.588	-50.500	0.083	-0.039
-425.573	-116.195	0.221	0.041
-424.559	379.916	-0.074	-0.151
-423.544	653.769	-0.063	-0.162
-422.530	-200.000	0.016	-0.097
-421.515	123.238	-0.383	-0.477
-420.500	511.105	0.167	-0.387
-419.486	-103.966	-0.472	-0.109
-418.471	87.837	-0.052	-0.058
-417.457	75.958	-0.242	-0.254
-416.442	122.477	-0.225	0.280
-415.428	-31.390	0.188	0.105
-414.413	164.967	0.136	0.191
-413.398	-200.000	-0.008	0.045
-412.384	40.387	-0.125	0.112
-411.369	-122.868	0.223	-0.036
-410.355	800.000	0.043	0.161
-409.340	-60.099	-0.075	0.032
-408.325	-112.636	-0.316	-0.062
-407.311	-38.908	-0.344	0.180
-406.296	-200.000	-0.009	0.110
-405.282	149.426	-0.198	0.266
-404.267	96.167	0.087	0.099
-403.252	631.160	0.082	0.206
-402.238	-200.000	-0.047	-0.397
-401.223	234.802	-0.116	0.189
-400.209	-141.456	-0.381	0.038
-399.194	-200.000	0.003	0.169
-398.179	316.095	0.059	-0.110
-397.165	-0.222	-0.252	-0.178
-396.150	34.113	-0.043	0.037
-395.136	298.104	0.150	-0.273
-394.121	-56.511	0.365	0.161
-393.106	-143.877	0.074	-0.007
-392.092	-200.000	-0.030	-0.152
-391.077	-200.000	0.014	0.240
-390.063	-19.400	-0.185	-0.114
-389.048	-101.930	-0.320	0.077
-388.033	-200.000	0.023	0.285
-387.019	-155.067	0.040	0.003
-386.004	168.922	-0.189	-0.268
-384.990	-200.000	0.073	0.421
-383.975	-200.000	-0.016	0.242
-382.960	86.461	-0.138	-0.151
-381.946	-31.975	-0.232	0.129
-380.931	-41.863	-0.139	0.071
-379.917	-54.368	-0.072	0.033
-378.902	-93.117	-0.118	0.033
-377.888	64.940	-0.086	0.086
-376.873	-200.000	0.008	0.577
-375.858	2.897	-0.413	-0.298
-374.844	49.704	-0.190	-0.178
-373.829	-73.748	0.088	-0.032
-372.815	-200.000	0.039	-0.196
-371.800	-193.377	-0.209	0.002
-370.785	90.969	-0.181	0.201
-369.771	800.000	0.009	0.037
-368.756	580.372	0.176	0.427
-367.742	-200.000	-0.032	-0.151
-366.727	-26.316	0.139	0.081
-365.712	800.000	-0.063	0.261
-364.698	-200.000	0.014	-0.148
-363.683	682.178	0.204	-0.528
-362.669	-200.000	0.009	-0.074
-361.654	-200.000	-0.014	0.227
-360.639	-131.706	0.174	0.023
-359.625	114.841	0.163	-0.197
-358.610	-145.384	0.095	0.009
-357.596	153.857	-0.164	-0.223
-356.581	144.788	-0.116	0.154
-355.566	167.950	-0.151	-0.212
-354.552	800.000	0.071	0.262
-353.537	-63.551	-0.083	-0.034
-352.523	48.053	0.251	-0.233
-351.508	-200.000	-0.057	0.422
-350.493	-0.189	-0.256	-0.181
-349.479	211.064	0.093	0.145
-348.464	-34.643	0.184	-0.100
-347.450	169.511	0.048	-0.069
-346.435	-52.011	0.160	-0.074
-345.420	-41.218	-0.195	-0.100
-344.406	-101.337	-0.034	0.008
-343.391	-147.023	0.025	0.002
-342.377	675.218	-0.101	0.261
-341.362	-200.000	-0.003	0.045
-340.348	800.000	0.031	0.128
-339.333	-26.466	0.185	-0.107
-338.318	800.000	0.078	-0.224
-337.304	-61.178	0.038	0.016
-336.289	-200.000	0.033	0.275
-335.275	-136.466	0.177	0.020
-334.260	-90.058	0.387	0.112
-333.245	113.579	0.378	-0.455
-332.231	-49.072	0.083	-0.039
-331.216	-103.444	0.037	-0.009
-330.202	-26.786	-0.528	-0.306
-329.187	-200.000	0.021	-0.173
-328.172	-77.589	0.089	-0.031
-327.158	-33.072	-0.135	-0.074
-326.143	800.000	0.070	0.265
-325.129	708.206	-0.139	0.363
-324.114	127.304	-0.199	-0.250
-323.099	14.962	-0.131	0.101
-322.085	-10.673	-0.285	0.187
-321.070	-200.000	0.013	-0.453
-320.056	220.101	-0.168	0.266
-319.041	145.345	0.117	0.155
-318.026	28.774	0.077	0.065
-317.012	74.051	0.090	-0.093
-315.997	493.495	0.072	0.164
-314.983	56.347	0.355	-0.342
-313.968	120.070	-0.059	0.072
-312.953	800.000	0.070	0.195
-311.939	409.716	-0.111	-0.233
-310.924	-9.396	-0.010	0.007
-309.910	67.180	0.230	-0.232
-308.895	11.141	0.056	-0.042
-307.880	-200.000	0.003	0.280
-306.866	800.000	0.054	0.173
-305.851	254.793	0.087	0.148
-304.837	-67.438	0.341	-0.132
-303.822	229.513	-0.019	0.031
-302.807	-200.000	0.012	-0.331
-301.793	-146.749	-0.493	0.042
-300.778	-200.000	-0.009	0.045
-299.764	-28.233	0.179	0.103
-298.749	-200.000	0.048	-0.275
-297.735	49.101	0.147	-0.136
-296.720	29.044	0.023	0.019
-295.705	187.368	-0.120	-0.177
-294.691	399.481	0.130	0.269
-293.676	-193.596	0.082	-0.001
-292.662	13.008	-0.015	0.011
-291.647	-92.950	-0.246	-0.068
-290.632	-103.842	0.336	-0.078
-289.618	-200.000	-0.002	0.304
-288.603	-89.481	-0.242	-0.070
-287.589	56.691	0.158	-0.152
-286.574	83.838	0.067	-0.072
-285.559	-7.540	-0.234	-0.156
-284.545	-30.638	0.146	-0.082
-283.530	-56.864	-0.268	0.117
-282.516	97.892	-0.094	-0.107
-281.501	151.447	0.191	-0.257
-280.486	-200.000	-0.030	-0.163
-279.472	-106.348	0.405	0.090
-278.457	-200.000	0.011	-0.354
-277.443	-27.602	-0.097	-0.055
-276.428	-39.456	0.157	-0.081
-275.413	-63.776	0.079	0.032
-274.399	-190.562	0.421	0.004
-273.384	57.101	-0.159	0.153
-272.370	148.955	-0.087	0.116
-271.355	-23.504	-0.356	-0.211
-270.340	-134.139	-0.151	-0.018
-269.326	-86.510	0.317	-0.096
-268.311	-154.483	-0.207	0.014
-267.297	209.112	0.263	0.407
-266.282	229.034	0.194	-0.313
-265.267	-113.125	0.197	-0.038
-264.253	-16.409	-0.170	-0.107
-263.238	63.677	0.107	-0.107
-262.224	-81.513	0.075	0.024
-261.209	772.224	0.069	-0.186
-260.195	-35.994	-0.206	-0.110
-259.180	-200.000	-0.031	-0.146
-258.165	800.000	0.026	0.076
-257.151	-171.653	0.367	-0.012
-256.136	-8.978	-0.156	0.103
-255.122	-181.463	0.133	0.003
-254.107	481.367	-0.089	-0.201
-253.092	132.084	0.216	0.275
-252.078	656.431	-0.079	0.200
-251.063	-81.726	0.170	0.055
-250.049	254.527	0.102	0.173
-249.034	-49.960	-0.109	-0.051
-248.019	-55.422	0.297	0.131
-247.005	444.824	-0.081	-0.175
-245.990	13.112	-0.125	-0.095
-244.976	338.861	-0.178	-0.342
-243.961	-200.000	0.016	0.106
-242.946	311.441	-0.050	0.093
-241.932	333.652	-0.062	-0.119
-240.917	-15.234	-0.079	-0.050
-239.903	-88.807	0.216	-0.063
-238.888	-0.643	0.122	0.085
-237.873	794.017	0.062	-0.169
-236.859	-167.967	0.312	0.012
-235.844	800.000	0.040	0.172
-234.830	421.042	0.062	-0.130
-233.815	-105.001	0.387	0.088
-232.800	-200.000	0.008	0.052
-231.786	-18.577	0.173	-0.106
-230.771	35.794	0.089	-0.077
-229.757	-200.000	-0.010	0.068
-228.742	-200.000	0.001	-0.289
-227.727	35.063	-0.179	-0.155
-226.713	-35.996	0.138	-0.073
-225.698	-25.668	0.119	-0.069
-224.684	301.773	0.097	0.177
-223.669	30.442	-0.156	-0.132
-222.655	-200.000	0.042	0.199
-221.640	-68.070	-0.351	0.135
-220.625	-25.638	0.006	-0.003
-219.611	800.000	-0.061	-0.173
-218.596	-72.427	-0.084	-0.031
-217.582	-200.000	0.006	-0.193
-216.567	-91.947	0.173	-0.048
-215.552	20.543	-0.073	-0.058
-214.538	-200.000	-0.011	-0.088
-213.523	-80.211	-0.222	-0.073
-212.509	281.396	-0.177	-0.312
-211.494	60.413	-0.249	-0.243
-210.479	-119.326	0.218	-0.037
-209.465	-153.306	0.037	0.003
-208.450	-200.000	-0.023	-0.152
-207.436	-129.471	0.405	-0.055
-206.421	-21.617	0.257	0.155
-205.406	154.445	0.017	0.023
-204.392	216.022	-0.082	0.128
-203.377	-96.823	0.147	0.038
-202.363	-200.000	0.002	0.020
-201.348	119.637	-0.130	0.159
-200.333	445.130	0.128	0.277
-199.319	-177.525	0.402	0.010
-198.304	107.462	-0.156	0.183
-197.290	800.000	0.042	0.165
-196.275	15.187	0.147	-0.113
-195.260	268.584	0.156	0.270
-194.246	760.834	0.100	0.267
-193.231	60.272	-0.134	0.130
-192.217	533.212	0.144	0.336
-191.202	617.180	0.055	-0.135
-190.187	-75.296	-0.142	-0.050
-189.173	337.147	0.245	0.470
-188.158	-200.000	-0.008	0.266
-187.144	800.000	-0.055	0.213
-186.129	-200.000	0.028	0.311
-185.114	174.579	-0.071	-0.101
-184.100	145.722	-0.207	-0.273
-183.085	-88.151	-0.306	0.090
-182.071	-71.539	0.121	0.045
-181.056	800.000	-0.102	0.412
-180.042	800.000	0.027	0.112
-179.027	800.000	0.086	0.306
-178.012	-30.525	-0.212	-0.119
-176.998	-1.131	0.170	0.118
-175.983	285.303	-0.206	-0.365
-174.969	156.290	-0.111	-0.151
-173.954	213.225	-0.189	-0.293
-172.939	61.051	-0.191	-0.187
-171.925	-136.471	-0.114	-0.013
-170.910	222.384	-0.212	0.336
-169.896	-79.918	-0.254	0.084
-168.881	-163.093	0.143	-0.007
-167.866	-200.000	-0.034	-0.473
-166.852	213.375	0.084	0.131
-165.837	-45.057	0.200	0.098
-164.823	569.451	0.121	0.291
-163.808	104.831	0.062	0.072
-162.793	70.522	0.084	0.085
-161.779	-42.003	-0.122	-0.062
-160.764	-126.294	-0.173	-0.025
-159.750	48.246	0.094	0.086
-158.735	430.729	0.069	-0.146
-157.720	238.671	0.172	-0.282
-156.706	-18.400	-0.282	0.174
-155.691	800.000	-0.072	0.235
-154.677	800.000	-0.050	0.189
-153.662	245.608	-0.261	0.432
-152.647	158.922	0.180	-0.246
-151.633	188.986	-0.174	-0.256
-150.618	-200.000	-0.026	0.352
-149.604	-24.872	-0.172	-0.101
-148.589	-23.660	-0.092	-0.054
-147.574	-43.803	-0.222	0.110
-146.560	-26.095	-0.178	0.103
-145.545	176.230	0.163	0.233
-144.531	-92.945	0.268	-0.074
-143.516	800.000	-0.077	0.247
-142.502	89.550	-0.079	-0.087
-141.487	-200.000	-0.023	-0.134
-140.472	-47.251	0.137	-0.065
-139.458	32.326	-0.342	-0.290
-138.443	-200.000	-0.029	0.151
-137.429	17.193	-0.124	0.097
-136.414	214.717	0.022	-0.034
-135.399	-37.336	-0.327	-0.172
-134.385	800.000	-0.062	0.240
-133.370	709.009	-0.054	0.140
-132.356	-126.268	-0.160	0.023
-131.341	800.000	-0.048	0.150
-130.326	-173.383	0.298	-0.009
-129.312	-59.268	-0.286	-0.121
-128.297	-137.805	0.325	0.036
-127.283	-200.000	0.037	0.290
-126.268	-200.000	0.052	0.243
-125.253	89.973	0.116	-0.127
-124.239	-200.000	0.017	-0.149
-123.224	-149.806	0.419	-0.032
-122.210	-174.030	-0.133	-0.004
-121.195	367.495	-0.066	-0.131
-120.180	800.000	-0.050	-0.137
-119.166	-155.558	-0.046	-0.003
-118.151	-200.000	0.117	-0.000
-117.137	-160.867	-0.104	0.005
-116.122	-160.617	-0.240	-0.013
-115.107	99.276	-0.084	0.095
-114.093	-54.645	0.137	-0.061
-113.078	-200.000	0.008	0.199
-112.064	410.398	-0.058	-0.120
-111.049	800.000	-0.035	-0.144
-110.034	54.661	0.184	-0.174
-109.020	-200.000	0.027	0.174
-108.005	-200.000	0.009	0.102
-106.991	-142.651	0.077	-0.007
-105.976	-200.000	0.005	-0.068
-104.962	-98.259	-0.116	0.029
-103.947	209.527	0.112	-0.173
-102.932	-1.492	0.380	-0.263
-101.918	-94.611	-0.284	0.076
-100.903	80.754	-0.161	0.170
-99.889	438.865	-0.096	-0.205
-98.874	-60.187	0.218	-0.091
-97.859	0.232	0.141	0.099
-96.845	378.419	-0.100	0.201
-95.830	-200.000	-0.016	0.102
-94.816	-88.842	0.210	-0.061
-93.801	-72.428	-0.293	0.106
-92.786	-200.000	0.002	-0.023
-91.772	-200.000	0.086	0.402
-90.757	213.134	-0.088	0.136
-89.743	668.281	0.009	0.023
-88.728	-86.526	0.172	-0.052
-87.713	-200.000	-0.020	-0.105
-86.699	-192.200	0.100	0.001
-85.684	18.453	-0.078	-0.061
-84.670	-200.000	-0.054	-0.291
-83.655	-50.473	0.164	-0.076
-82.640	-115.277	0.294	0.055
-81.626	-56.760	0.078	0.034
-80.611	11.096	0.159	-0.119
-79.597	-200.000	0.003	0.131
-78.582	-80.485	-0.030	-0.010
-77.567	-82.662	0.365	0.116
-76.553	-200.000	-0.040	-0.298
-75.538	265.755	-0.100	0.170
-74.524	-22.932	0.067	0.040
-73.509	-98.711	-0.039	0.010
-72.494	800.000	-0.007	-0.023
-71.480	73.049	0.123	-0.126
-70.465	800.000	-0.059	-0.188
-69.451	167.979	-0.062	0.087
-68.436	-41.927	-0.086	0.043
-67.422	800.000	-0.040	0.163
-66.407	800.000	-0.028	0.102
-65.392	100.761	0.113	-0.129
-64.378	691.604	-0.102	-0.262
-63.363	-0.094	-0.278	-0.194
-62.349	-51.757	0.327	0.149
-61.334	121.223	-0.926	-1.131
-60.319	91.228	0.544	0.598
-59.305	518.184	-0.336	-0.772
-58.290	705.143	0.439	1.136
-57.276	800.000	0.362	1.548
-56.261	-200.000	105.964	613.339
-55.246	502.077	1508.470	3415.689
-54.232	176.182	2700.781	3844.067
-53.217	110.853	2186.149	2578.517
-52.203	40.259	1703.464	1501.742
-51.188	32.637	1513.761	1282.810
-50.173	30.296	1486.995	1244.402
-49.159	51.469	1542.332	1435.935
-48.144	51.701	1559.147	1453.118
-47.130	32.920	1515.449	1285.970
-46.115	29.861	1500.717	1252.748
-45.100	29.637	1496.649	1247.783
-44.086	29.574	1494.305	1245.356
-43.071	29.634	1492.323	1244.057
-42.057	29.467	1490.940	1241.736
-41.042	29.517	1489.331	1240.679
-40.027	29.475	1488.255	1239.454
-39.013	29.543	1486.353	1238.276
-37.998	29.451	1485.180	1236.631
-36.984	29.483	1484.344	1236.103
-35.969	29.477	1482.721	1234.659
-34.954	29.574	1481.181	1233.979
-33.940	29.490	1479.687	1232.123
-32.925	29.607	1478.104	1231.538
-31.911	29.524	1477.469	1230.409
-30.896	29.537	1476.059	1229.271
-29.881	29.661	1474.560	1228.800
-28.867	29.693	1473.195	1227.826
-27.852	29.628	1472.099	1226.432
-26.838	29.577	1470.434	1224.654
-25.823	29.664	1468.566	1223.628
-24.809	29.699	1467.312	1222.766
-23.794	29.661	1465.574	1221.017
-22.779	29.600	1465.116	1220.182
-21.765	29.626	1463.677	1219.112
-20.750	29.656	1462.798	1218.528
-19.736	29.667	1461.799	1217.717
-18.721	29.562	1460.698	1216.065
-17.706	29.578	1459.286	1214.943
-16.692	29.532	1458.234	1213.718
-15.677	29.616	1456.890	1213.102
-14.663	29.465	1456.566	1211.790
-13.648	29.544	1455.332	1211.236
-12.633	29.471	1454.601	1210.104
-11.619	29.599	1453.320	1209.827
-10.604	29.511	1452.867	1208.825
-9.590	29.556	1451.851	1208.226
-8.575	29.506	1451.209	1207.317
-7.560	29.523	1449.928	1206.317
-6.546	29.554	1449.014	1205.710
-5.531	29.515	1448.872	1205.286
-4.517	29.492	1448.298	1204.614
-3.502	29.562	1446.537	1203.555
-2.487	29.517	1445.711	1202.529
-1.473	29.422	1444.553	1200.901
-0.458	29.567	1443.055	1200.551
0.556	27.244	1433.488	1189.452
1.571	24.323	1408.666	1149.952
2.586	21.110	1350.193	1082.224
3.600	19.622	1270.008	1009.180
4.615	18.634	1224.874	967.656
5.629	16.253	1171.011	912.173
6.644	8.297	1087.219	806.759
7.659	1.146	1046.986	741.939
8.673	-0.116	1041.106	731.565
9.688	-0.232	1037.890	728.676
10.702	-0.433	1036.750	726.837
11.717	-0.319	1034.329	725.624
12.731	2.875	1038.330	743.858
13.746	11.945	1050.468	796.779
14.761	18.614	1059.152	835.901
15.775	20.441	1060.952	846.152
16.790	20.764	1060.644	847.403
17.804	20.561	1059.716	845.604
18.819	20.343	1059.174	844.034
19.834	20.427	1058.433	843.777
20.848	20.587	1058.065	844.185
21.863	20.628	1057.470	843.835
22.877	20.682	1056.819	843.504
23.892	20.601	1056.462	842.753
24.907	20.436	1055.754	841.312
25.921	20.573	1055.186	841.450
26.936	20.509	1054.430	840.464
27.950	20.675	1052.391	839.563
28.965	20.605	1051.608	838.530
29.980	20.403	1050.227	836.379
30.994	20.344	1048.900	834.963
32.009	20.633	1047.988	835.552
33.023	20.689	1047.265	835.170
34.038	20.453	1045.944	832.912
35.053	20.489	1044.918	832.194
36.067	20.590	1044.344	832.148
37.082	20.706	1043.652	832.078
38.096	20.693	1043.191	831.574
39.111	20.806	1042.557	831.537
40.126	20.828	1041.554	830.764
41.140	20.737	1040.108	829.106
42.155	20.496	1038.779	826.825
43.169	20.253	1037.111	824.273
44.184	20.280	1035.998	823.440
45.199	20.368	1035.446	823.348
46.213	20.251	1033.984	821.557
47.228	20.193	1032.901	820.351
48.242	20.285	1032.823	820.653
49.257	20.374	1031.789	820.178
50.271	20.398	1031.045	819.626
51.286	20.453	1031.050	819.820
52.301	20.613	1029.849	819.545
53.315	20.738	1028.790	819.219
54.330	20.635	1028.007	818.036
55.344	20.636	1026.940	817.119
56.359	20.563	1026.351	816.235
57.374	20.576	1025.534	815.575
58.388	20.485	1024.450	814.215
59.403	20.484	1023.315	813.237
60.417	20.534	1022.515	812.761
61.432	20.318	1022.038	811.302
62.447	20.311	1021.439	810.724
63.461	20.390	1020.710	810.440
64.476	20.439	1020.215	810.202
65.490	20.383	1018.910	808.833
66.505	20.286	1018.051	807.632
67.520	20.341	1017.130	807.085
68.534	20.558	1016.248	807.321
69.549	20.277	1015.472	805.328
70.563	19.964	1014.187	802.786
71.578	20.006	1013.285	802.198
72.593	20.143	1012.337	802.011
73.607	19.941	1010.644	799.663
74.622	19.904	1010.289	799.141
75.636	20.152	1009.544	799.627
76.651	20.217	1008.708	799.193
77.666	20.216	1007.322	798.019
78.680	20.137	1006.864	797.222
79.695	19.979	1006.755	796.340
80.709	20.248	1005.483	796.496
81.724	20.383	1004.664	796.398
82.739	20.379	1004.015	795.794
83.753	20.243	1003.212	794.466
84.768	20.532	1002.827	795.412
85.782	20.780	1001.841	795.694
86.797	20.826	1001.204	795.329
87.812	20.823	1000.539	794.715
88.826	20.816	999.002	793.389
89.841	20.723	998.450	792.460
90.855	20.800	997.643	792.101
91.870	20.888	996.833	791.785
92.884	20.920	995.837	791.070
93.899	20.796	995.072	789.832
94.914	20.539	994.307	787.989
95.928	20.785	993.372	788.293
96.943	20.745	992.925	787.686
97.957	20.510	991.859	785.709
98.972	20.417	990.162	783.876
99.987	20.102	989.281	781.688
101.001	20.211	988.751	781.691
102.016	20.415	988.615	782.431
103.030	20.556	987.581	782.179
104.045	20.502	986.112	780.704
105.060	20.350	984.625	778.777
106.074	20.129	983.752	777.028
107.089	20.177	982.847	776.458
108.103	20.566	982.755	778.056
109.118	20.767	981.532	777.921
110.133	20.404	980.480	775.395
111.147	20.453	979.507	774.778
112.162	20.300	977.992	772.827
113.176	20.085	976.851	770.901
114.191	20.285	975.722	770.831
115.206	20.318	975.219	770.514
116.220	19.941	973.910	767.738
117.235	19.854	973.134	766.671
118.249	19.974	972.892	766.945
119.264	20.044	971.700	766.250
120.279	20.049	970.525	765.277
121.293	19.952	970.036	764.395
122.308	20.099	969.256	764.360
123.322	20.108	968.084	763.411
124.337	20.208	967.000	762.926
125.352	19.889	966.007	760.672
126.366	19.621	964.095	757.922
127.381	19.321	962.811	755.532
128.395	19.838	962.661	757.616
129.410	20.502	962.050	759.971
130.424	20.557	961.600	759.790
131.439	20.580	960.447	758.909
132.454	20.487	958.963	757.266
133.468	20.455	958.313	756.545
134.483	20.440	957.572	755.830
135.497	20.385	957.119	755.166
136.512	20.684	956.178	755.656
137.527	20.789	955.491	755.500
138.541	20.797	954.467	754.657
139.556	20.831	953.640	754.086
140.570	20.693	952.906	752.840
141.585	20.733	951.950	752.193
142.600	20.865	951.152	752.064
143.614	20.754	950.128	750.709
144.629	20.789	949.570	750.354
145.643	21.037	949.092	750.978
146.658	20.914	948.000	749.518
147.673	20.788	946.479	747.707
148.687	20.741	945.456	746.634
149.702	20.754	944.502	745.866
150.716	20.487	943.592	743.943
151.731	20.648	942.203	743.468
152.746	20.801	941.398	743.421
153.760	20.870	940.805	743.182
154.775	20.902	940.578	743.074
155.789	20.979	939.723	742.659
156.804	20.968	938.669	741.715
157.819	20.850	937.720	740.394
158.833	21.001	936.899	740.325
159.848	20.988	936.251	739.691
160.862	20.929	935.715	738.953
161.877	20.808	934.286	737.246
162.892	20.861	933.231	736.572
163.906	21.048	932.649	736.839
164.921	20.927	931.766	735.564
165.935	20.823	930.642	734.173
166.950	21.003	929.658	734.089
167.964	20.939	928.873	733.138
168.979	20.846	927.588	731.667
169.994	20.802	926.880	730.860
171.008	20.533	926.111	729.060
172.023	20.794	925.039	729.245
173.037	20.933	924.482	729.322
174.052	20.777	923.120	727.533
175.067	20.609	922.191	726.034
176.081	20.549	921.466	725.147
177.096	20.858	920.359	725.502
178.110	20.787	919.313	724.316
179.125	20.614	918.012	722.510
180.140	20.271	917.136	720.334
181.154	20.278	916.892	720.107
182.169	20.358	916.667	720.198
183.183	20.709	916.049	721.102
184.198	20.839	915.656	721.268
185.213	20.814	914.862	720.475
186.227	20.750	913.960	719.437
187.242	20.892	913.570	719.650
188.256	20.955	912.724	719.181
189.271	20.873	911.887	718.120
190.286	21.030	911.438	718.350
191.300	20.890	910.393	716.887
192.315	20.348	909.073	713.555
193.329	19.713	907.369	709.550
194.344	19.373	906.435	707.363
195.359	19.865	906.729	709.550
196.373	20.720	906.618	712.903
197.388	20.849	906.545	713.309
198.402	20.858	905.553	712.504
199.417	20.714	905.136	711.524
200.432	20.786	905.149	711.764
201.446	20.735	903.830	710.456
202.461	20.186	903.316	707.749
203.475	20.373	903.291	708.432
204.490	19.979	901.193	705.120
205.504	18.871	899.396	699.146
206.519	19.455	898.913	701.079
207.534	20.228	899.872	704.909
208.548	20.270	899.354	704.614
209.563	20.693	898.694	705.749
210.577	20.739	898.112	705.416
211.592	20.447	897.133	703.403
212.607	20.974	896.833	705.237
213.621	21.023	896.423	705.049
214.636	20.812	896.003	703.805
215.650	20.983	895.396	703.956
216.665	21.061	894.472	703.481
217.680	21.063	894.203	703.218
218.694	21.114	893.667	702.939
219.709	20.816	892.501	700.762
220.723	20.360	891.521	698.095
221.738	20.524	891.221	698.457
222.753	20.717	890.875	698.899
223.767	20.813	890.012	698.548
224.782	20.867	889.421	698.237
225.796	20.855	889.071	697.851
226.811	21.088	888.070	697.938
227.826	20.627	887.119	695.287
228.840	19.964	885.296	691.148
229.855	19.790	885.038	690.192
230.869	20.182	884.402	691.200
231.884	19.673	884.003	688.799
232.899	19.842	883.015	688.638
233.913	20.637	883.463	692.094
234.928	20.729	882.789	691.868
235.942	20.700	882.231	691.256
236.957	20.855	881.550	691.275
237.972	20.484	880.461	688.889
238.986	20.379	879.779	687.879
240.001	20.535	879.143	687.939
241.015	20.519	878.529	687.334
242.030	20.588	878.206	687.294
243.045	20.731	877.571	687.299
244.059	20.789	877.257	687.224
245.074	21.055	876.333	687.489
246.088	20.970	875.244	686.237
247.103	20.575	874.686	684.184
248.117	20.716	873.755	683.950
249.132	21.023	874.332	685.547
250.147	21.424	874.071	686.859
251.161	21.330	873.479	685.963
252.176	21.530	872.883	686.220
253.190	21.603	871.640	685.468
254.205	21.590	871.643	685.359
255.220	21.758	871.311	685.691
256.234	21.769	870.692	685.190
257.249	21.606	869.780	683.774
258.263	21.434	869.207	682.591
259.278	21.610	868.395	682.579
260.293	21.650	867.968	682.339
261.307	21.655	867.730	682.109
262.322	21.691	866.507	681.230
263.336	21.502	865.979	680.021
264.351	20.896	865.130	676.940
265.366	19.895	863.089	671.400
266.380	19.666	861.513	669.231
267.395	20.384	862.301	672.565
268.409	21.155	862.345	675.524
269.424	21.175	861.464	674.852
270.439	21.421	860.948	675.336
271.453	21.387	860.648	674.911
272.468	21.448	859.992	674.571
273.482	21.632	859.534	674.862
274.497	21.807	859.035	675.083
275.512	21.444	858.138	672.925
276.526	20.938	856.768	669.845
277.541	21.183	856.530	670.543
278.555	21.583	856.198	671.756
279.570	21.423	855.371	670.436
280.585	21.135	854.399	668.510
281.599	21.147	853.818	668.045
282.614	21.339	853.589	668.541
283.628	20.797	852.368	665.453
284.643	20.672	851.577	664.299
285.657	20.956	851.613	665.355
286.672	20.816	850.911	664.210
287.687	20.340	849.884	661.538
288.701	20.831	849.613	663.139
289.716	21.186	849.577	664.403
290.730	20.841	848.386	662.101
291.745	20.691	847.589	660.851
292.760	20.547	846.801	659.633
293.774	20.483	846.452	659.059
294.789	21.320	847.124	662.701
295.803	21.917	846.883	664.715
296.818	21.835	846.453	664.009
297.833	22.087	845.797	664.388
298.847	21.789	844.591	662.256
299.862	21.446	843.753	660.245
300.876	21.765	843.186	660.948
301.891	21.981	842.832	661.425
302.906	21.928	842.198	660.671
303.920	21.520	841.142	658.249
304.935	21.309	840.646	657.008
305.949	21.863	840.362	658.811
306.964	21.883	840.008	658.549
307.979	21.697	839.325	657.260
308.993	21.636	838.880	656.623
310.008	21.888	838.644	657.323
311.022	22.069	837.827	657.304
312.037	22.062	837.168	656.700
313.052	21.655	836.517	654.610
314.066	21.671	835.827	654.074
315.081	21.002	834.819	650.733
316.095	20.186	833.400	646.527
317.110	20.727	833.570	648.620
318.125	21.776	833.793	652.642
319.139	21.342	832.244	649.757
320.154	20.278	830.780	644.607
321.168	19.886	829.545	642.137
322.183	20.461	829.889	644.482
323.197	21.071	830.659	647.286
324.212	21.632	830.318	649.044
325.227	21.587	829.971	648.548
326.241	21.689	830.019	648.905
327.256	21.678	828.617	647.712
328.270	21.526	828.213	646.778
329.285	21.383	827.715	645.804
330.300	21.342	827.013	645.047
331.314	21.279	825.606	643.661
332.329	21.312	825.277	643.469
333.343	21.687	824.606	644.268
334.358	21.900	824.673	645.048
335.373	21.727	824.120	643.920
336.387	21.974	823.501	644.285
337.402	22.024	823.351	644.296
338.416	22.143	822.730	644.189
339.431	22.268	822.163	644.147
340.446	22.307	821.190	643.471
341.460	22.408	821.083	643.699
342.475	22.285	820.737	642.920
343.489	22.229	819.520	641.705
344.504	22.141	819.277	641.137
345.519	22.383	819.078	641.809
346.533	22.586	818.612	642.127
347.548	22.811	818.210	642.573
348.562	22.914	817.245	642.134
349.577	22.719	816.773	640.996
350.592	22.512	816.810	640.215
351.606	22.605	816.225	640.038
352.621	22.474	815.872	639.229
353.635	22.476	815.212	638.664
354.650	22.474	814.419	637.980
355.665	22.077	813.186	635.519
356.679	21.108	811.710	630.810
357.694	21.116	811.138	630.337
358.708	21.720	811.549	632.781
359.723	21.584	811.049	631.845
360.738	21.835	811.227	632.837
361.752	22.191	810.454	633.459
362.767	22.186	810.284	633.254
363.781	22.460	810.590	634.424
364.796	22.842	809.776	635.103
365.810	22.841	809.613	634.915
366.825	22.956	808.992	634.786
367.840	22.873	808.857	634.326
368.854	22.706	808.478	633.373
369.869	22.299	807.191	630.849
370.883	22.271	806.513	630.165
371.898	22.292	805.941	629.736
372.913	22.176	805.154	628.651
373.927	22.301	804.443	628.486
374.942	22.404	804.101	628.530
375.956	22.595	803.472	628.664
376.971	22.661	802.996	628.474
377.986	22.810	802.369	628.457
379.000	22.730	802.479	628.201
380.015	22.813	802.127	628.168
381.029	22.786	801.147	627.248
382.044	22.660	800.590	626.310
383.059	22.864	800.176	626.653
384.073	22.866	799.397	625.994
385.088	22.992	799.128	626.177
386.102	22.997	798.382	625.551
387.117	22.757	797.754	624.156
388.132	22.473	797.521	622.914
389.146	22.576	796.440	622.381
390.161	21.924	795.476	619.270
391.175	22.058	795.222	619.490
392.190	22.546	795.394	621.291
393.205	22.509	794.752	620.604
394.219	21.652	792.999	616.168
395.234	20.183	791.072	609.455
396.248	19.280	790.447	605.749
397.263	20.686	790.643	610.783
398.278	22.317	792.119	617.600
399.292	22.657	792.042	618.678
400.307	22.241	791.142	616.462
401.321	22.201	790.987	616.146
402.336	22.332	790.717	616.341
403.350	22.722	790.272	617.306
404.365	23.071	790.171	618.393
405.380	23.417	789.655	619.144
406.394	23.792	789.088	619.951
407.409	23.613	789.388	619.507
408.423	23.528	788.748	618.654
409.438	23.524	788.011	618.007
410.453	23.519	787.828	617.794
411.467	23.678	787.266	617.851
412.482	23.633	786.763	617.242
413.496	23.582	786.497	616.803
414.511	23.675	785.792	616.519
415.526	23.598	785.745	616.161
416.540	23.574	785.784	616.054
417.555	23.485	784.936	615.026
418.569	23.368	783.978	613.814
419.584	23.270	783.718	613.219
420.599	23.361	783.208	613.079
421.613	157.440	1363.958	1797.702
422.628	136.115	1448.571	1797.791
