DTS Sentinel unit serial number:	SN413079Multiplexer serial number:	ORYXHardware model number:	OX4-SRSoftware version number:	ORYX F/W v4.00 Oryx Data Collector v3.7.2.0data status	okinstallation	princeton_trtdifferential loss correction	single-endedforward channel	channel 3reverse channel	N/Adate	2019/09/12time	22:48:35forward acquisition time	60.00reverse acquisition time	0.00gamma	496.2192k internal	0.2327k external	0.2327temperature offset calibration	1.0132default loss term (dB/km)	0.3790temperature slope calibration	1.0000multiplexer offset coefficient	1.0000multiplexer slope coefficient	1.0000fibre end	0.00T internal ref (°C)	29.48T ext. ref 1 (°C)	3.73T ext. ref 2 (°C)	24.07length (m)	temperature (°C)	Stokes	anti-Stokes-747.200	25.429	-0.068	-0.057
-746.185	403.945	0.185	0.393
-745.171	-112.436	-0.184	-0.037
-744.156	-7.101	0.142	0.097
-743.142	-27.769	-0.167	-0.097
-742.127	-107.470	-0.081	0.018
-741.112	-97.702	0.137	-0.036
-740.098	-88.779	0.026	0.008
-739.083	55.809	0.111	-0.108
-738.069	-74.831	0.122	-0.044
-737.054	95.471	-0.046	-0.053
-736.039	114.056	0.207	-0.253
-735.025	800.000	0.117	0.341
-734.010	-33.377	-0.264	-0.147
-732.996	58.093	0.196	-0.194
-731.981	39.884	-0.155	0.141
-730.966	-22.530	-0.104	-0.064
-729.952	370.771	-0.175	-0.357
-728.937	-114.292	-0.214	-0.042
-727.923	197.695	0.143	-0.220
-726.908	-200.000	-0.037	-0.175
-725.894	-3.695	0.177	-0.124
-724.879	100.085	-0.095	0.111
-723.864	-156.959	-0.068	0.004
-722.850	800.000	0.023	-0.079
-721.835	198.025	-0.085	-0.130
-720.821	-193.146	-0.111	-0.001
-719.806	14.645	-0.028	0.022
-718.791	-61.346	-0.130	-0.055
-717.777	25.133	-0.210	0.175
-716.762	800.000	-0.059	-0.181
-715.748	634.396	-0.033	-0.084
-714.733	98.539	0.187	0.218
-713.718	102.190	-0.248	-0.292
-712.704	-34.902	0.318	0.175
-711.689	-166.377	0.297	-0.013
-710.675	396.511	-0.202	-0.426
-709.660	-115.955	-0.156	-0.029
-708.645	-156.331	0.190	-0.012
-707.631	8.026	0.257	0.194
-706.616	211.747	-0.143	-0.227
-705.602	-79.433	0.337	-0.115
-704.587	-184.021	0.231	0.004
-703.572	141.137	0.055	-0.074
-702.558	-5.095	0.306	0.212
-701.543	-121.927	0.087	0.014
-700.529	5.466	0.183	0.136
-699.514	-32.256	-0.110	0.062
-698.499	-120.354	-0.197	0.034
-697.485	-200.000	-0.032	-0.240
-696.470	64.591	0.357	-0.362
-695.456	-200.000	0.014	0.143
-694.441	144.734	0.184	-0.248
-693.426	-125.870	-0.509	-0.077
-692.412	-200.000	-0.025	0.165
-691.397	-80.171	0.212	-0.071
-690.383	-38.100	0.113	-0.060
-689.368	273.579	-0.085	-0.151
-688.354	-200.000	0.014	0.147
-687.339	151.087	0.105	-0.144
-686.324	-158.565	0.263	-0.015
-685.310	88.287	0.115	0.128
-684.295	49.329	0.108	0.102
-683.281	800.000	0.024	0.073
-682.266	-62.376	-0.140	0.058
-681.251	-110.291	-0.269	-0.056
-680.237	-10.056	-0.266	-0.178
-679.222	149.783	-0.103	-0.140
-678.208	-125.407	-0.254	-0.039
-677.193	194.096	-0.143	0.218
-676.178	97.450	0.183	-0.211
-675.164	670.291	-0.064	0.168
-674.149	-200.000	-0.027	0.134
-673.135	152.623	0.112	-0.154
-672.120	39.250	0.231	0.208
-671.105	22.050	-0.122	0.100
-670.091	800.000	0.069	-0.218
-669.076	-200.000	0.019	-0.363
-668.062	709.824	-0.125	-0.334
-667.047	-66.973	0.051	0.020
-666.032	-72.285	-0.177	0.066
-665.018	713.644	0.099	-0.265
-664.003	-82.983	-0.038	-0.012
-662.989	43.722	-0.254	-0.233
-661.974	800.000	-0.059	-0.192
-660.959	-77.914	0.051	0.018
-659.945	190.653	-0.141	-0.213
-658.930	-65.747	-0.304	-0.122
-657.916	154.005	-0.198	0.273
-656.901	-102.553	0.022	-0.005
-655.886	53.591	0.084	0.081
-654.872	-112.646	0.130	-0.026
-653.857	-81.329	-0.430	-0.142
-652.843	-200.000	0.023	0.292
-651.828	-26.193	0.381	0.225
-650.814	-25.805	-0.159	0.094
-649.799	-110.714	0.375	0.078
-648.784	279.558	0.014	-0.024
-647.770	-45.515	0.303	0.151
-646.755	-68.964	-0.138	0.053
-645.741	-88.892	-0.125	-0.037
-644.726	-97.824	-0.281	-0.073
-643.711	173.981	0.172	-0.249
-642.697	800.000	-0.097	0.366
-641.682	-142.363	0.190	-0.019
-640.668	62.092	-0.415	-0.415
-639.653	505.157	-0.078	-0.182
-638.638	-180.843	-0.220	0.004
-637.624	-0.069	0.470	0.336
-636.609	-180.077	0.378	0.008
-635.595	800.000	-0.192	-0.589
-634.580	-176.792	-0.150	-0.004
-633.565	41.770	-0.123	0.112
-632.551	150.177	-0.135	0.184
-631.536	-79.841	0.140	0.047
-630.522	288.866	-0.110	-0.200
-629.507	64.173	-0.066	-0.066
-628.492	17.394	-0.225	-0.180
-627.478	15.493	-0.240	-0.189
-626.463	56.979	0.234	0.229
-625.449	800.000	0.022	0.070
-624.434	-200.000	0.046	0.345
-623.419	-74.572	-0.143	0.051
-622.405	-200.000	0.021	0.115
-621.390	-136.441	-0.211	0.025
-620.376	-38.950	0.329	-0.174
-619.361	30.076	-0.110	0.094
-618.346	800.000	-0.057	0.174
-617.332	-123.731	-0.315	-0.050
-616.317	-72.235	0.110	-0.041
-615.303	-23.493	-0.303	0.182
-614.288	800.000	0.041	-0.119
-613.273	-110.895	-0.232	0.048
-612.259	-2.954	0.177	0.124
-611.244	2.385	-0.024	0.017
-610.230	800.000	0.055	0.213
-609.215	-200.000	0.001	-0.174
-608.201	309.974	0.139	-0.261
-607.186	-126.320	0.225	0.034
-606.171	-61.216	-0.164	-0.070
-605.157	598.352	-0.041	0.101
-604.142	-28.966	-0.016	0.009
-603.128	48.559	0.061	-0.058
-602.113	109.495	-0.177	-0.213
-601.098	112.190	0.172	-0.209
-600.084	-118.858	-0.188	0.033
-599.069	668.923	0.053	-0.139
-598.055	-200.000	0.017	0.166
-597.040	-10.767	-0.017	-0.012
-596.025	-130.517	-0.304	0.041
-595.011	-136.301	-0.256	-0.030
-593.996	380.639	-0.097	-0.199
-592.982	800.000	-0.126	-0.528
-591.967	-200.000	0.008	0.132
-590.952	-200.000	-0.001	-0.160
-589.938	-200.000	0.026	-0.139
-588.923	216.687	-0.127	0.203
-587.909	-109.514	-0.324	-0.068
-586.894	54.055	0.075	0.072
-585.879	-200.000	-0.012	0.173
-584.865	-24.274	0.236	0.141
-583.850	28.640	-0.268	0.227
-582.836	-200.000	-0.058	0.274
-581.821	52.560	-0.077	-0.073
-580.806	203.338	0.092	0.143
-579.792	101.241	0.121	-0.141
-578.777	-89.015	-0.125	-0.037
-577.763	-81.545	0.228	-0.075
-576.748	38.370	0.150	-0.134
-575.733	-26.417	0.121	-0.071
-574.719	16.355	-0.216	-0.171
-573.704	120.861	-0.174	0.217
-572.690	-102.484	0.216	0.052
-571.675	40.621	-0.224	-0.202
-570.661	-200.000	-0.009	-0.159
-569.646	800.000	0.011	-0.044
-568.631	-64.792	0.044	-0.018
-567.617	-15.925	-0.448	-0.285
-566.602	61.870	0.118	-0.117
-565.588	185.328	0.135	0.200
-564.573	-23.463	0.333	0.200
-563.558	-62.995	0.214	0.089
-562.544	-128.998	0.322	0.045
-561.529	-140.114	-0.265	-0.028
-560.515	499.041	0.025	0.057
-559.500	92.894	-0.124	0.140
-558.485	-49.118	0.234	-0.112
-557.471	-158.138	0.028	0.002
-556.456	-170.548	0.220	-0.008
-555.442	800.000	0.033	0.131
-554.427	284.984	0.076	0.137
-553.412	213.680	-0.024	0.039
-552.398	-63.378	0.348	0.143
-551.383	-200.000	0.028	0.157
-550.369	-200.000	-0.051	-0.374
-549.354	146.652	-0.148	-0.198
-548.339	362.411	-0.078	-0.158
-547.325	800.000	-0.007	0.026
-546.310	-48.908	0.424	-0.203
-545.296	-117.783	0.069	-0.012
-544.281	-1.727	-0.203	-0.143
-543.266	-153.659	0.110	0.008
-542.252	472.664	-0.193	0.435
-541.237	-129.744	0.085	-0.012
-540.223	15.941	0.100	-0.079
-539.208	-88.097	0.299	-0.090
-538.193	-31.621	0.114	-0.064
-537.179	209.445	-0.201	0.316
-536.164	-115.247	0.304	0.058
-535.150	255.509	0.097	-0.167
-534.135	-200.000	-0.113	-0.000
-533.121	7.747	-0.413	0.309
-532.106	52.643	0.220	0.210
-531.091	-104.242	-0.284	0.066
-530.077	-93.297	-0.061	0.017
-529.062	-47.360	0.358	-0.174
-528.048	-200.000	-0.031	0.286
-527.033	566.913	-0.017	-0.042
-526.018	-200.000	-0.055	-0.303
-525.004	-189.492	0.156	0.002
-523.989	-32.446	-0.272	-0.151
-522.975	-200.000	0.005	0.310
-521.960	-200.000	0.049	-0.356
-520.945	181.762	0.016	-0.023
-519.931	161.170	0.102	0.142
-518.916	277.513	-0.030	-0.054
-517.902	412.577	0.048	-0.103
-516.887	229.755	-0.143	-0.233
-515.872	285.643	0.079	0.141
-514.858	-161.260	0.319	-0.017
-513.843	-33.924	0.114	0.063
-512.829	800.000	-0.108	-0.336
-511.814	-30.553	-0.198	0.112
-510.799	-64.327	0.356	0.145
-509.785	651.385	0.138	-0.352
-508.770	-117.809	-0.191	-0.034
-507.756	399.127	-0.045	-0.095
-506.741	380.223	-0.216	-0.442
-505.726	800.000	-0.093	-0.261
-504.712	260.914	0.151	0.261
-503.697	170.018	0.134	0.191
-502.683	172.819	0.090	0.130
-501.668	-200.000	-0.011	-0.100
-500.653	-113.181	0.177	0.035
-499.639	800.000	0.061	0.181
-498.624	68.891	0.072	0.074
-497.610	800.000	-0.091	0.283
-496.595	8.811	0.168	-0.126
-495.581	-115.424	-0.241	0.045
-494.566	-72.233	-0.009	0.003
-493.551	146.976	-0.133	0.178
-492.537	800.000	-0.088	0.378
-491.522	-122.340	0.019	0.003
-490.508	266.243	0.081	-0.141
-489.493	-49.695	-0.081	0.038
-488.478	60.681	0.254	0.252
-487.464	-107.295	0.237	-0.052
-486.449	-75.969	0.036	-0.013
-485.435	440.752	0.088	0.191
-484.420	-200.000	-0.020	0.269
-483.405	-78.735	0.253	0.086
-482.391	-92.547	0.345	0.097
-481.376	76.617	0.138	-0.146
-480.362	-123.385	-0.156	0.025
-479.347	-200.000	0.044	0.300
-478.332	-47.556	-0.061	0.029
-477.318	800.000	-0.055	-0.162
-476.303	-117.734	-0.283	0.051
-475.289	-95.318	0.043	0.012
-474.274	16.476	0.138	0.109
-473.259	87.540	0.156	0.172
-472.245	-26.626	-0.127	-0.074
-471.230	-172.551	0.145	-0.005
-470.216	-114.484	-0.180	-0.035
-469.201	-68.309	-0.034	-0.013
-468.186	663.498	0.086	0.221
-467.172	-200.000	-0.040	-0.286
-466.157	317.796	0.051	-0.096
-465.143	241.764	0.050	0.084
-464.128	-200.000	-0.021	-0.095
-463.113	-106.990	-0.275	0.061
-462.099	-41.766	-0.263	0.135
-461.084	218.204	-0.101	0.160
-460.070	50.339	0.089	0.084
-459.055	371.516	-0.065	-0.132
-458.040	-3.201	-0.167	0.116
-457.026	-30.636	-0.152	0.086
-456.011	-158.350	0.360	-0.021
-454.997	93.132	0.036	0.040
-453.982	-200.000	-0.041	0.210
-452.968	-96.787	-0.271	-0.071
-451.953	800.000	0.099	-0.382
-450.938	17.698	-0.236	-0.187
-449.924	-79.588	-0.338	0.114
-448.909	96.389	0.048	-0.054
-447.895	800.000	-0.033	0.104
-446.880	-115.557	0.085	0.016
-445.865	-130.686	-0.340	-0.046
-444.851	800.000	0.063	0.234
-443.836	-78.188	-0.103	-0.035
-442.822	-15.206	-0.290	-0.185
-441.807	-70.392	0.147	0.055
-440.792	221.072	-0.025	0.040
-439.778	57.843	-0.167	-0.162
-438.763	-200.000	0.028	0.122
-437.749	64.098	-0.077	0.077
-436.734	800.000	0.119	0.347
-435.719	192.631	-0.152	-0.228
-434.705	542.111	-0.133	-0.315
-433.690	518.681	-0.094	-0.219
-432.676	800.000	-0.084	-0.244
-431.661	134.327	-0.202	0.261
-430.646	-27.039	0.148	-0.086
-429.632	-123.024	0.271	-0.043
-428.617	586.031	-0.049	0.120
-427.603	8.650	-0.259	-0.194
-426.588	-88.950	0.063	0.019
-425.573	-200.000	0.023	-0.123
-424.559	56.345	0.263	0.254
-423.544	107.073	-0.195	-0.231
-422.530	-80.611	-0.213	-0.071
-421.515	-200.000	0.065	0.379
-420.500	50.418	0.087	0.082
-419.486	-53.045	-0.157	0.072
-418.471	-40.078	-0.131	-0.068
-417.457	-61.094	-0.171	0.072
-416.442	536.240	-0.161	0.380
-415.428	572.331	-0.163	-0.395
-414.413	-100.183	-0.330	0.082
-413.398	800.000	0.085	0.269
-412.384	321.254	0.095	0.180
-411.369	-200.000	0.035	-0.160
-410.355	-26.990	0.129	0.075
-409.340	-200.000	-0.017	-0.184
-408.325	-200.000	-0.047	-0.217
-407.311	800.000	-0.068	0.212
-406.296	-200.000	0.020	-0.249
-405.282	800.000	-0.045	-0.124
-404.267	800.000	-0.125	0.503
-403.252	-128.967	-0.085	0.012
-402.238	67.936	0.132	0.134
-401.223	749.157	0.010	-0.027
-400.209	2.954	-0.142	-0.103
-399.194	-57.015	0.508	-0.223
-398.179	-200.000	-0.022	0.206
-397.165	800.000	0.082	-0.251
-396.150	-76.557	0.235	-0.082
-395.136	-106.619	0.236	-0.052
-394.121	114.275	-0.025	0.031
-393.106	800.000	-0.142	0.490
-392.092	800.000	-0.093	-0.342
-391.077	-14.982	-0.214	-0.137
-390.063	-81.869	-0.391	0.127
-389.048	-105.150	0.253	-0.057
-388.033	761.547	0.089	-0.241
-387.019	-43.413	-0.043	0.022
-386.004	181.755	-0.009	-0.013
-384.990	-103.555	-0.138	-0.032
-383.975	-165.932	-0.135	-0.006
-382.960	-200.000	-0.004	-0.171
-381.946	-4.190	0.365	0.251
-380.931	297.243	0.060	0.109
-379.917	-53.278	-0.124	0.056
-378.902	-161.164	-0.125	-0.006
-377.888	-28.766	-0.342	-0.195
-376.873	6.538	0.135	-0.100
-375.858	-200.000	0.045	0.197
-374.844	78.006	-0.293	0.311
-373.829	-10.659	-0.218	0.143
-372.815	68.038	0.278	0.282
-371.800	366.714	0.103	-0.207
-370.785	-99.076	0.048	-0.012
-369.771	-123.137	-0.428	0.068
-368.756	800.000	-0.028	0.107
-367.742	336.112	-0.193	0.372
-366.727	-200.000	0.005	0.311
-365.712	-108.966	-0.217	-0.046
-364.698	323.351	0.161	-0.305
-363.683	-113.516	-0.184	0.036
-362.669	22.207	-0.129	0.104
-361.654	249.006	0.123	0.207
-360.639	-71.004	-0.310	0.116
-359.625	104.310	-0.062	0.073
-358.610	800.000	0.066	-0.197
-357.596	-116.361	0.246	-0.045
-356.581	-31.190	-0.265	0.148
-355.566	275.467	-0.114	0.200
-354.552	72.478	-0.165	0.171
-353.537	16.268	-0.107	-0.084
-352.523	-200.000	0.032	-0.259
-351.508	-62.616	0.198	-0.082
-350.493	74.990	0.087	-0.091
-349.479	208.850	-0.103	-0.160
-348.464	688.813	0.162	-0.421
-347.450	-29.122	-0.272	-0.155
-346.435	-151.436	-0.234	0.017
-345.420	-200.000	0.000	0.162
-344.406	-39.032	-0.205	-0.107
-343.391	-11.263	-0.233	0.152
-342.377	-147.767	-0.058	-0.005
-341.362	107.174	-0.074	0.087
-340.348	376.145	0.176	0.357
-339.333	-7.095	0.262	-0.176
-338.318	-200.000	0.045	-0.212
-337.304	-6.073	0.221	0.150
-336.289	143.088	-0.260	0.343
-335.275	-200.000	-0.017	-0.285
-334.260	493.729	-0.073	0.165
-333.245	-75.964	-0.086	-0.030
-332.231	-111.397	-0.261	-0.053
-331.216	800.000	-0.050	-0.152
-330.202	103.493	0.171	0.199
-329.187	-59.676	0.197	-0.084
-328.172	-142.197	0.286	0.028
-327.158	-106.045	-0.257	0.057
-326.143	39.362	0.255	-0.226
-325.129	-5.286	-0.187	0.128
-324.114	-103.972	0.636	0.147
-323.099	800.000	0.053	0.158
-322.085	-28.605	-0.121	0.069
-321.070	219.490	0.174	0.276
-320.056	407.239	0.045	-0.095
-319.041	-37.123	-0.440	0.233
-318.026	-114.354	0.577	-0.110
-317.012	159.423	0.139	-0.192
-315.997	-123.834	0.342	0.054
-314.983	-200.000	0.002	-0.013
-313.968	-152.419	0.271	0.019
-312.953	253.707	-0.053	-0.090
-311.939	20.827	-0.090	-0.072
-310.924	265.539	-0.072	-0.124
-309.910	-25.282	0.037	-0.022
-308.895	107.160	-0.229	0.270
-307.880	-129.555	-0.077	-0.010
-306.866	-173.611	0.266	0.008
-305.851	164.566	-0.104	0.145
-304.837	-25.893	-0.282	0.165
-303.822	-133.627	0.471	0.058
-302.807	129.510	-0.085	0.108
-301.793	-154.245	0.115	-0.008
-300.778	-200.000	0.039	-0.245
-299.764	233.548	-0.170	0.277
-298.749	342.764	0.123	0.239
-297.735	-134.678	0.460	0.055
-296.720	-107.398	0.039	-0.008
-295.705	2.615	0.197	0.141
-294.691	235.053	0.144	-0.235
-293.676	-20.690	-0.199	-0.121
-292.662	-200.000	-0.030	0.175
-291.647	-200.000	-0.033	-0.275
-290.632	-27.118	-0.375	-0.217
-289.618	800.000	-0.048	-0.200
-288.603	-64.447	-0.290	0.117
-287.589	-54.063	0.230	-0.104
-286.574	-197.345	0.197	0.001
-285.559	99.147	-0.128	-0.147
-284.545	-88.025	-0.170	-0.051
-283.530	17.633	0.043	0.034
-282.516	-0.157	0.147	0.103
-281.501	21.022	0.395	0.317
-280.486	414.844	-0.053	-0.113
-279.472	-12.135	-0.235	0.152
-278.457	105.709	0.125	-0.146
-277.443	-188.249	0.074	0.001
-276.428	-104.608	0.323	-0.074
-275.413	-188.174	0.091	-0.001
-274.399	-51.592	-0.203	0.094
-273.384	-23.379	-0.255	0.152
-272.370	800.000	-0.003	0.011
-271.355	111.984	-0.040	-0.048
-270.340	94.725	0.085	0.095
-269.326	-45.588	-0.216	0.106
-268.311	265.600	-0.180	-0.310
-267.297	-32.087	-0.264	-0.146
-266.282	-99.180	-0.291	-0.073
-265.267	-70.281	0.349	-0.131
-264.253	534.440	0.088	-0.207
-263.238	30.923	0.357	-0.303
-262.224	97.071	-0.039	0.044
-261.209	-125.446	-0.183	-0.028
-260.195	130.691	-0.117	-0.149
-259.180	-31.944	-0.116	0.064
-258.165	-19.381	-0.213	-0.131
-257.151	-104.137	0.364	0.084
-256.136	800.000	0.117	-0.339
-255.122	-151.230	0.196	-0.014
-254.107	703.396	0.058	0.151
-253.092	-32.719	-0.083	0.046
-252.078	-51.656	-0.360	0.166
-251.063	-105.994	0.086	-0.019
-250.049	139.501	0.028	0.037
-249.034	430.310	-0.072	0.154
-248.019	800.000	-0.095	-0.371
-247.005	92.871	0.071	-0.079
-245.990	133.592	0.178	-0.228
-244.976	731.352	-0.054	-0.143
-243.961	623.039	-0.093	0.232
-242.946	-19.332	0.251	0.154
-241.932	-113.185	-0.162	0.031
-240.917	-200.000	-0.028	-0.150
-239.903	15.179	-0.181	-0.141
-238.888	169.579	0.157	0.222
-237.873	335.828	0.031	0.059
-236.859	-64.309	-0.194	-0.078
-235.844	-85.709	0.111	0.034
-234.830	-181.246	-0.100	0.002
-233.815	112.984	-0.106	0.128
-232.800	108.290	-0.267	-0.315
-231.786	-71.932	0.029	-0.011
-230.771	800.000	0.069	0.194
-229.757	-121.955	0.360	-0.059
-228.742	-61.638	-0.112	-0.046
-227.727	-22.225	-0.044	0.027
-226.713	800.000	0.096	0.332
-225.698	-200.000	0.027	0.123
-224.684	569.490	0.041	0.098
-223.669	800.000	0.043	-0.139
-222.655	-195.654	0.408	-0.003
-221.640	-127.726	-0.039	-0.006
-220.625	61.587	0.277	-0.272
-219.611	-9.061	0.171	0.113
-218.596	56.123	0.063	0.061
-217.582	-47.105	-0.251	-0.121
-216.567	-94.088	0.200	-0.054
-215.552	-143.472	0.420	0.040
-214.538	-61.753	0.330	-0.137
-213.523	-42.399	-0.082	-0.041
-212.509	800.000	0.054	0.182
-211.494	-97.920	-0.275	0.070
-210.479	-113.271	-0.043	-0.008
-209.465	-70.390	-0.193	0.072
-208.450	-190.739	-0.427	0.004
-207.436	-113.560	0.150	-0.029
-206.421	-71.136	-0.150	-0.056
-205.406	-200.000	-0.063	0.333
-204.392	639.385	-0.020	-0.049
-203.377	-138.357	0.198	0.022
-202.363	-48.287	-0.057	0.027
-201.348	-59.399	0.117	-0.050
-200.333	23.538	0.184	-0.149
-199.319	70.689	0.244	-0.249
-198.304	9.022	0.122	0.091
-197.290	24.312	-0.232	-0.189
-196.275	313.810	-0.202	-0.375
-195.260	-10.579	0.241	-0.157
-194.246	30.231	-0.173	-0.146
-193.231	-101.170	0.228	-0.055
-192.217	-200.000	0.012	-0.067
-191.202	-38.666	0.220	0.115
-190.187	-62.172	0.170	0.070
-189.173	-109.085	0.409	0.086
-188.158	8.247	-0.189	-0.140
-187.144	-25.367	0.082	0.048
-186.129	800.000	0.110	-0.462
-185.114	-156.419	0.228	-0.014
-184.100	78.463	0.222	0.234
-183.085	-16.428	-0.094	0.059
-182.071	800.000	0.080	0.323
-181.056	-200.000	0.041	0.238
-180.042	-53.822	-0.404	0.182
-179.027	4.205	0.138	0.100
-178.012	-86.181	0.276	-0.084
-176.998	-109.350	-0.125	-0.026
-175.983	35.197	0.180	0.155
-174.969	-200.000	-0.036	0.155
-173.954	-103.717	-0.255	-0.059
-172.939	-119.468	0.233	-0.040
-171.925	27.713	-0.147	-0.122
-170.910	7.741	-0.147	0.108
-169.896	248.444	-0.089	-0.148
-168.881	-72.449	-0.284	-0.104
-167.866	-200.000	0.000	0.194
-166.852	55.069	0.121	-0.115
-165.837	29.198	-0.081	0.068
-164.823	-37.319	0.314	0.166
-163.808	-78.913	-0.146	0.049
-162.793	-114.896	0.343	-0.064
-161.779	-90.341	-0.409	-0.117
-160.764	238.367	-0.146	-0.240
-159.750	-200.000	0.008	-0.078
-158.735	-103.885	0.081	0.019
-157.720	-200.000	0.058	-0.253
-156.706	177.289	0.138	-0.198
-155.691	261.461	0.191	-0.326
-154.677	127.737	0.087	0.109
-153.662	-144.082	0.256	-0.024
-152.647	-93.113	-0.136	-0.037
-151.633	-200.000	-0.007	-0.058
-150.618	-109.313	0.370	-0.077
-149.604	-74.792	0.232	-0.082
-148.589	-111.906	-0.147	-0.029
-147.574	-42.363	0.131	-0.066
-146.560	-141.498	0.160	0.016
-145.545	800.000	0.094	0.286
-144.531	800.000	-0.020	-0.057
-143.516	-200.000	-0.030	0.158
-142.502	-27.511	0.325	-0.186
-141.487	-143.258	-0.032	0.003
-140.472	422.412	0.088	0.187
-139.458	-200.000	-0.005	-0.222
-138.443	-62.331	-0.214	0.088
-137.429	-200.000	0.003	-0.045
-136.414	-42.352	0.293	-0.147
-135.399	391.474	0.079	0.161
-134.385	-89.338	0.265	-0.077
-133.370	76.136	0.235	0.245
-132.356	23.249	-0.312	-0.253
-131.341	-200.000	0.016	-0.185
-130.326	-74.450	0.247	0.088
-129.312	800.000	0.021	0.075
-128.297	42.132	-0.182	-0.163
-127.283	71.632	0.003	0.003
-126.268	-74.002	-0.136	-0.049
-125.253	-200.000	0.021	0.235
-124.239	715.387	0.090	0.234
-123.224	-119.774	0.122	0.021
-122.210	277.302	0.133	-0.233
-121.195	-151.206	0.173	-0.013
-120.180	59.501	-0.116	-0.112
-119.166	434.148	0.198	-0.423
-118.151	-20.215	-0.151	-0.092
-117.137	-32.168	-0.261	-0.143
-116.122	69.892	0.296	-0.300
-115.107	-54.119	0.046	0.020
-114.093	50.437	-0.076	0.071
-113.078	-144.825	-0.162	-0.015
-112.064	-200.000	-0.019	0.261
-111.049	-125.994	0.237	-0.035
-110.034	459.900	0.098	0.214
-109.020	800.000	-0.005	-0.015
-108.005	40.245	-0.310	-0.274
-106.991	113.109	0.106	-0.127
-105.976	-131.812	-0.181	0.023
-104.962	-33.198	-0.211	-0.115
-103.947	-200.000	-0.008	0.116
-102.932	-110.479	-0.126	-0.026
-101.918	-200.000	-0.045	0.246
-100.903	-200.000	-0.013	0.162
-99.889	47.815	0.293	-0.268
-98.874	52.498	-0.118	0.110
-97.859	112.104	0.056	0.067
-96.845	-24.057	0.104	-0.061
-95.830	-98.740	-0.177	-0.044
-94.816	-200.000	0.000	-0.283
-93.801	800.000	0.124	0.420
-92.786	800.000	0.078	0.215
-91.772	398.797	-0.087	0.179
-90.757	444.750	0.061	-0.132
-89.743	-65.833	0.341	-0.134
-88.728	190.944	0.031	-0.045
-87.713	-31.421	0.178	0.099
-86.699	800.000	-0.033	-0.123
-85.684	-59.164	0.106	-0.045
-84.670	-11.795	0.179	-0.115
-83.655	13.251	0.249	0.190
-82.640	-39.369	-0.079	0.041
-81.626	282.972	-0.048	0.084
-80.611	-200.000	0.027	-0.256
-79.597	-153.900	0.088	-0.006
-78.582	359.887	0.158	-0.310
-77.567	109.059	0.237	0.278
-76.553	155.056	0.208	-0.281
-75.538	-200.000	-0.400	-0.001
-74.524	103.227	-0.125	0.143
-73.509	391.967	0.113	0.230
-72.494	-116.400	-0.352	-0.064
-71.480	-200.000	-0.081	0.351
-70.465	-200.000	0.055	0.289
-69.451	44.866	-0.115	-0.104
-68.436	-200.000	-0.018	0.221
-67.422	686.640	-0.141	-0.362
-66.407	-185.393	0.549	-0.008
-65.392	120.909	-0.147	-0.179
-64.378	-200.000	0.079	0.421
-63.363	453.241	0.040	0.088
-62.349	-23.146	-0.253	0.149
-61.334	-19.773	-1.140	-0.691
-60.319	598.147	0.242	0.589
-59.305	637.849	-0.430	-1.073
-58.290	602.917	0.456	1.112
-57.276	800.000	0.494	1.486
-56.261	-200.000	108.737	602.743
-55.246	510.096	1494.136	3409.512
-54.232	179.234	2676.154	3842.048
-53.217	109.364	2169.880	2549.501
-52.203	39.550	1702.495	1497.282
-51.188	32.623	1518.568	1288.315
-50.173	30.283	1492.330	1250.262
-49.159	50.558	1549.305	1437.936
-48.144	50.989	1565.300	1455.685
-47.130	32.655	1520.979	1290.373
-46.115	29.693	1506.540	1257.949
-45.100	29.604	1502.622	1254.027
-44.086	29.564	1500.435	1251.880
-43.071	29.382	1499.354	1249.696
-42.057	29.506	1496.987	1248.513
-41.042	29.470	1495.585	1247.046
-40.027	29.546	1494.062	1246.245
-39.013	29.364	1493.233	1244.277
-37.998	29.385	1491.716	1243.104
-36.984	29.463	1490.043	1242.181
-35.969	29.487	1488.719	1241.190
-34.954	29.423	1487.580	1239.763
-33.940	29.469	1486.100	1238.786
-32.925	29.481	1484.809	1237.744
-31.911	29.479	1483.317	1236.436
-30.896	29.546	1482.447	1236.113
-29.881	29.573	1480.905	1234.956
-28.867	29.549	1479.430	1233.517
-27.852	29.526	1478.411	1232.466
-26.838	29.479	1476.892	1230.840
-25.823	29.568	1475.492	1230.215
-24.809	29.600	1473.950	1229.091
-23.794	29.518	1472.864	1227.596
-22.779	29.483	1471.499	1226.174
-21.765	29.563	1470.604	1225.910
-20.750	29.513	1469.701	1224.777
-19.736	29.462	1468.284	1223.212
-18.721	29.616	1466.796	1222.946
-17.706	29.519	1465.772	1221.399
-16.692	29.482	1464.884	1220.368
-15.677	29.396	1464.237	1219.209
-14.663	29.527	1463.010	1219.005
-13.648	29.489	1462.185	1218.019
-12.633	29.531	1460.878	1217.160
-11.619	29.420	1460.377	1215.959
-10.604	29.395	1459.691	1215.176
-9.590	29.423	1458.554	1214.364
-8.575	29.473	1457.430	1213.708
-7.560	29.508	1456.550	1213.158
-6.546	29.536	1455.836	1212.700
-5.531	29.466	1455.303	1211.748
-4.517	29.373	1454.248	1210.215
-3.502	29.490	1452.590	1209.552
-2.487	29.395	1452.312	1208.651
-1.473	29.380	1451.082	1207.481
-0.458	29.378	1449.604	1206.190
0.556	31.029	1439.750	1194.772
1.571	27.899	1414.338	1153.842
2.586	24.167	1355.491	1083.090
3.600	22.365	1274.543	1008.007
4.615	21.159	1228.601	964.924
5.629	18.411	1172.775	906.478
6.644	10.908	1090.157	805.509
7.659	4.867	1051.141	747.688
8.673	4.023	1045.507	739.584
9.688	3.732	1042.185	735.780
10.702	3.603	1040.715	734.066
11.717	3.583	1038.671	732.461
12.731	6.482	1041.164	747.933
13.746	14.257	1052.265	793.007
14.761	21.310	1061.436	833.618
15.775	23.569	1063.112	845.642
16.790	23.106	1061.748	842.277
17.804	22.416	1060.233	837.723
18.819	21.741	1058.764	833.279
19.834	21.539	1057.669	831.383
20.848	21.498	1056.527	830.217
21.863	21.496	1056.613	830.203
22.877	21.602	1055.841	830.024
23.892	21.403	1055.064	828.399
24.907	21.244	1054.246	826.930
25.921	21.029	1053.744	825.446
26.936	21.136	1052.551	824.943
27.950	20.968	1052.138	823.753
28.965	21.002	1050.401	822.477
29.980	21.057	1049.137	821.674
30.994	21.222	1048.393	821.797
32.009	21.404	1047.834	822.141
33.023	21.509	1047.269	822.120
34.038	21.320	1046.771	820.768
35.053	21.369	1044.940	819.490
36.067	21.225	1044.243	818.194
37.082	21.185	1043.359	817.242
38.096	21.108	1043.168	816.663
39.111	21.184	1042.024	816.050
40.126	21.310	1041.518	816.168
41.140	21.214	1040.241	814.650
42.155	20.911	1038.791	812.029
43.169	20.737	1037.523	810.156
44.184	20.576	1036.211	808.310
45.199	20.540	1035.208	807.293
46.213	20.575	1034.553	806.868
47.228	20.524	1033.795	805.972
48.242	21.029	1033.473	807.989
49.257	21.243	1032.699	808.304
50.271	21.209	1032.067	807.580
51.286	21.255	1031.339	807.149
52.301	21.341	1030.976	807.191
53.315	21.395	1029.556	806.257
54.330	21.111	1029.629	804.934
55.344	20.982	1028.230	803.176
56.359	20.846	1027.017	801.532
57.374	20.902	1025.909	800.854
58.388	20.787	1025.294	799.774
59.403	20.606	1024.252	798.060
60.417	20.493	1023.596	796.959
61.432	20.622	1022.681	796.770
62.447	20.462	1022.490	795.815
63.461	20.580	1020.861	795.016
64.476	20.397	1020.304	793.676
65.490	20.275	1019.465	792.399
66.505	20.233	1018.467	791.357
67.520	20.296	1017.412	790.755
68.534	20.504	1017.154	791.434
69.549	20.338	1016.391	790.016
70.563	20.287	1015.523	789.038
71.578	20.213	1014.858	788.114
72.593	19.974	1014.012	786.302
73.607	19.826	1012.397	784.311
74.622	19.816	1011.737	783.683
75.636	19.966	1010.778	783.549
76.651	19.863	1010.826	783.053
77.666	20.007	1009.492	782.600
78.680	20.096	1008.661	782.290
79.695	20.105	1008.203	781.905
80.709	20.015	1008.047	781.310
81.724	20.321	1006.495	781.414
82.739	20.474	1006.110	781.735
83.753	20.477	1005.530	781.231
84.768	20.893	1005.145	782.729
85.782	21.447	1005.117	785.126
86.797	21.758	1004.707	786.132
87.812	21.726	1003.984	785.353
88.826	21.476	1003.038	783.422
89.841	21.372	1001.910	782.009
90.855	21.568	1001.158	782.228
91.870	21.519	1000.788	781.651
92.884	21.685	1000.085	781.772
93.899	21.526	999.180	780.289
94.914	21.491	998.480	779.518
95.928	21.503	997.807	778.976
96.943	21.545	997.039	778.492
97.957	21.465	996.060	777.304
98.972	21.362	995.204	776.111
99.987	21.340	994.663	775.524
101.001	21.328	994.008	774.891
102.016	21.381	992.675	774.018
103.030	21.350	991.951	773.250
104.045	21.262	991.455	772.402
105.060	21.464	990.394	772.402
106.074	21.316	989.394	770.899
107.089	21.095	988.243	768.963
108.103	20.885	987.120	767.093
109.118	20.498	985.870	764.354
110.133	20.397	985.000	763.167
111.147	20.258	983.881	761.621
112.162	20.256	982.570	760.534
113.176	20.187	982.291	759.947
114.191	20.621	980.786	760.613
115.206	20.624	980.521	760.356
116.220	20.681	979.755	759.939
117.235	20.512	979.077	758.611
118.249	20.402	978.326	757.480
119.264	20.431	976.765	756.332
120.279	20.179	976.558	755.007
121.293	20.108	975.788	754.038
122.308	20.142	974.815	753.368
123.322	20.026	973.623	751.876
124.337	19.891	972.647	750.469
125.352	19.964	971.220	749.617
126.366	19.821	970.661	748.499
127.381	19.868	969.885	748.040
128.395	19.968	968.958	747.691
129.410	20.032	968.001	747.160
130.424	20.153	967.235	747.027
131.439	20.096	966.791	746.372
132.454	20.429	965.567	746.793
133.468	20.636	965.166	747.307
134.483	20.503	964.673	746.288
135.497	20.575	963.998	746.008
136.512	20.409	963.742	745.032
137.527	20.764	962.464	745.499
138.541	20.630	961.973	744.480
139.556	20.673	961.098	743.917
140.570	20.510	960.639	742.803
141.585	20.847	959.961	743.649
142.600	21.070	959.632	744.282
143.614	21.348	958.657	744.644
144.629	21.303	958.413	744.196
145.643	21.460	957.744	744.278
146.658	21.545	956.369	743.506
147.673	21.187	955.260	741.058
148.687	20.948	954.190	739.152
149.702	20.750	952.994	737.318
150.716	20.613	952.008	735.913
151.731	20.651	950.929	735.173
152.746	20.722	950.106	734.771
153.760	20.646	950.306	734.542
154.775	20.694	949.138	733.774
155.789	20.895	948.501	734.063
156.804	21.243	946.826	734.168
157.819	20.943	946.941	732.929
158.833	21.115	946.162	732.985
159.848	21.368	945.379	733.374
160.862	21.489	945.192	733.673
161.877	21.370	944.496	732.567
162.892	20.957	942.796	729.459
163.906	20.711	941.519	727.378
164.921	20.520	940.894	726.033
165.935	20.575	939.844	725.387
166.950	20.409	939.203	724.136
167.964	20.865	938.169	725.171
168.979	20.811	937.312	724.223
169.994	20.676	936.156	722.704
171.008	20.555	935.287	721.466
172.023	20.786	934.528	721.776
173.037	20.928	934.517	722.292
174.052	21.296	933.865	723.245
175.067	21.245	932.832	722.174
176.081	20.809	931.602	719.355
177.096	20.459	930.465	716.970
178.110	20.387	929.743	716.053
179.125	20.505	928.930	715.849
180.140	20.475	928.240	715.129
181.154	20.550	927.691	714.954
182.169	20.951	927.561	716.439
183.183	21.038	927.179	716.437
184.198	21.140	926.336	716.140
185.213	21.175	925.691	715.722
186.227	20.980	925.044	714.361
187.242	21.143	924.336	714.417
188.256	21.210	924.173	714.502
189.271	21.381	923.262	714.433
190.286	21.536	922.670	714.545
191.300	21.246	921.576	712.451
192.315	20.636	920.454	709.035
193.329	20.258	919.456	706.664
194.344	20.397	918.575	706.491
195.359	20.482	918.490	706.707
196.373	20.532	917.976	706.453
197.388	20.747	917.697	707.051
198.402	21.101	917.270	708.096
199.417	21.315	917.204	708.850
200.432	21.595	916.839	709.640
201.446	21.772	916.801	710.264
202.461	21.768	916.580	710.013
203.475	21.816	916.028	709.719
204.490	21.852	914.792	708.844
205.504	21.431	913.907	706.397
206.519	21.248	912.563	704.555
207.534	21.267	911.697	703.901
208.548	21.131	911.318	702.999
209.563	21.119	910.566	702.308
210.577	21.093	909.957	701.673
211.592	21.069	909.608	701.244
212.607	21.383	909.336	702.235
213.621	21.745	908.904	703.292
214.636	21.585	908.198	702.041
215.650	21.456	907.200	700.692
216.665	21.473	906.859	700.434
217.680	21.520	906.413	700.213
218.694	21.745	905.927	700.679
219.709	21.889	905.148	700.590
220.723	21.680	904.920	699.514
221.738	21.567	903.721	698.077
222.753	21.483	903.148	697.237
223.767	21.361	902.549	696.227
224.782	21.425	901.714	695.774
225.796	21.764	901.321	696.759
226.811	21.871	900.875	696.777
227.826	21.750	900.256	695.757
228.840	21.424	898.953	693.394
229.855	21.274	898.246	692.195
230.869	21.373	897.576	692.007
231.884	21.267	897.189	691.228
232.899	21.191	896.595	690.412
233.913	21.204	895.730	689.736
234.928	20.968	895.158	688.302
235.942	20.974	894.332	687.630
236.957	20.844	893.176	686.167
237.972	20.812	892.443	685.419
238.986	20.819	892.507	685.433
240.001	20.847	891.720	684.880
241.015	20.836	890.998	684.220
242.030	20.991	890.342	684.265
243.045	21.048	890.239	684.349
244.059	21.240	889.961	684.826
245.074	21.336	889.049	684.442
246.088	21.438	888.179	684.111
247.103	21.557	887.723	684.162
248.117	21.631	887.738	684.405
249.132	22.004	886.974	685.208
250.147	22.200	887.284	686.154
251.161	22.492	887.124	687.108
252.176	22.757	886.101	687.286
253.190	22.695	885.770	686.729
254.205	22.639	885.697	686.393
255.220	22.647	884.960	685.791
256.234	22.647	883.886	684.900
257.249	22.564	883.319	684.077
258.263	22.419	882.839	683.084
259.278	22.528	882.094	682.869
260.293	22.465	881.542	682.137
261.307	22.603	881.185	682.333
262.322	22.624	880.580	681.888
263.336	22.649	880.376	681.763
264.351	22.719	879.469	681.271
265.366	22.797	878.301	680.608
266.380	22.636	877.959	679.662
267.395	22.718	877.587	679.631
268.409	22.561	876.804	678.360
269.424	22.444	876.110	677.312
270.439	22.620	874.874	676.973
271.453	22.494	874.314	675.995
272.468	22.326	873.166	674.404
273.482	22.205	872.779	673.582
274.497	22.210	872.207	673.102
275.512	22.154	871.875	672.570
276.526	22.278	870.546	671.959
277.541	22.225	870.248	671.467
278.555	22.295	870.137	671.589
279.570	22.440	869.600	671.670
280.585	22.786	869.283	672.682
281.599	22.821	868.473	672.129
282.614	22.658	867.679	670.836
283.628	22.384	866.640	668.933
284.643	22.299	865.873	667.961
285.657	22.127	866.097	667.419
286.672	22.273	865.342	667.335
287.687	22.149	865.424	666.866
288.701	22.304	864.497	666.681
289.716	22.343	863.688	666.145
290.730	22.331	863.172	665.642
291.745	22.378	862.712	665.406
292.760	22.461	861.813	664.967
293.774	22.537	861.577	665.015
294.789	22.765	860.940	665.325
295.803	22.767	860.771	665.143
296.818	22.584	859.916	663.734
297.833	22.426	858.957	662.340
298.847	22.246	858.485	661.239
299.862	22.330	857.674	660.871
300.876	22.412	857.183	660.745
301.891	22.460	856.926	660.667
302.906	22.794	856.239	661.329
303.920	23.038	855.856	661.891
304.935	23.067	855.259	661.478
305.949	23.256	855.269	662.133
306.964	23.195	854.044	660.898
307.979	22.804	853.372	658.861
308.993	22.836	852.553	658.291
310.008	22.937	852.184	658.324
311.022	22.826	852.169	657.842
312.037	23.011	851.298	657.797
313.052	22.644	851.089	656.213
314.066	22.337	850.137	654.279
315.081	22.241	848.757	652.804
316.095	22.205	848.161	652.155
317.110	22.158	847.694	651.563
318.125	22.063	847.481	650.989
319.139	22.117	847.143	650.870
320.154	22.121	846.227	650.125
321.168	22.063	845.594	649.366
322.183	22.072	845.391	649.186
323.197	22.163	845.049	649.201
324.212	22.579	843.728	649.664
325.227	22.454	843.732	649.149
326.241	22.421	843.480	648.775
327.256	22.327	842.589	647.687
328.270	22.212	842.183	646.894
329.285	22.160	841.700	646.276
330.300	22.021	841.058	645.217
331.314	22.091	840.240	644.789
332.329	22.204	839.716	644.743
333.343	22.461	838.942	645.033
334.358	22.591	838.796	645.341
335.373	22.648	838.373	645.165
336.387	22.856	837.780	645.411
337.402	22.893	837.357	645.165
338.416	22.960	837.102	645.155
339.431	23.037	836.565	644.966
340.446	23.340	836.111	645.661
341.460	23.366	835.880	645.524
342.475	23.329	835.314	644.893
343.489	23.568	834.759	645.278
344.504	23.676	834.494	645.407
345.519	23.712	834.269	645.305
346.533	23.872	833.811	645.477
347.548	23.642	833.037	643.988
348.562	23.417	831.663	642.052
349.577	23.106	831.283	640.576
350.592	22.819	830.617	638.969
351.606	22.883	829.720	638.453
352.621	22.744	829.653	637.843
353.635	22.647	828.917	636.868
354.650	22.688	828.679	636.779
355.665	22.919	828.074	637.091
356.679	22.847	827.850	636.600
357.694	22.955	827.525	636.685
358.708	23.080	826.661	636.412
359.723	22.970	826.106	635.532
360.738	23.005	825.728	635.313
361.752	22.942	825.251	634.665
362.767	23.118	824.649	634.775
363.781	23.412	824.366	635.555
364.796	23.506	824.353	635.827
365.810	23.758	824.130	636.503
366.825	23.872	823.643	636.477
367.840	23.742	823.705	636.002
368.854	23.892	822.938	635.891
369.869	23.709	822.390	634.759
370.883	23.421	821.689	633.131
371.898	23.448	821.023	632.659
372.913	23.678	820.644	633.130
373.927	23.923	819.873	633.352
374.942	23.687	819.230	631.960
375.956	23.463	818.617	630.633
376.971	23.662	818.158	630.934
377.986	23.785	817.588	630.873
379.000	24.003	817.083	631.201
380.015	24.225	816.518	631.498
381.029	24.125	815.981	630.672
382.044	23.858	815.534	629.325
383.059	23.976	814.958	629.244
384.073	24.060	814.412	629.063
385.088	23.932	813.341	627.726
386.102	23.570	812.619	625.837
387.117	23.397	812.231	624.875
388.132	23.193	811.520	623.551
389.146	23.311	811.181	623.652
390.161	23.328	810.662	623.260
391.175	23.520	810.810	623.992
392.190	23.798	810.459	624.646
393.205	23.825	809.876	624.234
394.219	23.516	809.008	622.424
395.234	23.302	808.564	621.280
396.248	23.146	807.816	620.103
397.263	23.258	807.135	619.918
398.278	23.153	806.983	619.379
399.292	22.832	806.663	617.955
400.307	22.812	806.074	617.378
401.321	22.949	805.387	617.276
402.336	22.821	805.321	616.724
403.350	23.094	804.734	617.172
404.365	23.338	804.620	617.882
405.380	23.513	804.397	618.267
406.394	23.814	804.366	619.237
407.409	24.170	803.657	619.875
408.423	24.236	803.014	619.554
409.438	24.367	802.734	619.739
410.453	24.378	802.408	619.469
411.467	24.383	801.863	619.013
412.482	24.290	801.583	618.418
413.496	24.510	800.692	618.437
414.511	24.582	800.516	618.494
415.526	24.564	800.564	618.415
416.540	24.298	800.400	617.312
417.555	24.245	799.400	616.306
418.569	24.256	798.819	615.839
419.584	24.213	798.443	615.348
420.599	24.306	797.589	614.955
421.613	162.920	1371.000	1796.219
422.628	141.427	1454.512	1796.307
