DTS Sentinel unit serial number:	SN413079Multiplexer serial number:	ORYXHardware model number:	OX4-SRSoftware version number:	ORYX F/W v4.00 Oryx Data Collector v3.7.2.0data status	okinstallation	princeton_trtdifferential loss correction	single-endedforward channel	channel 3reverse channel	N/Adate	2019/09/12time	12:46:10forward acquisition time	60.00reverse acquisition time	0.00gamma	496.2192k internal	0.2291k external	0.2291temperature offset calibration	1.0037default loss term (dB/km)	0.3790temperature slope calibration	1.0000multiplexer offset coefficient	1.0000multiplexer slope coefficient	1.0000fibre end	0.00T internal ref (°C)	40.58T ext. ref 1 (°C)	2.04T ext. ref 2 (°C)	37.76length (m)	temperature (°C)	Stokes	anti-Stokes-747.200	-200.000	-0.053	0.346
-746.185	441.889	0.073	-0.163
-745.171	140.627	0.221	0.300
-744.156	83.645	0.140	-0.156
-743.142	-200.000	0.002	0.160
-742.127	19.652	0.097	0.080
-741.112	63.238	0.211	-0.217
-740.098	782.003	0.054	0.151
-739.083	-0.950	0.403	-0.292
-738.069	-6.994	0.231	-0.160
-737.054	-200.000	-0.004	-0.105
-736.039	217.249	-0.046	0.076
-735.025	-19.847	0.171	0.108
-734.010	-200.000	0.006	0.294
-732.996	-200.000	-0.013	-0.415
-731.981	-200.000	-0.040	-0.219
-730.966	-132.471	0.107	0.014
-729.952	-77.780	0.254	0.090
-728.937	800.000	0.129	0.388
-727.923	-5.131	-0.143	-0.101
-726.908	-197.164	-0.131	-0.001
-725.894	493.270	0.045	0.105
-724.879	109.470	0.265	-0.325
-723.864	-108.992	0.258	-0.056
-722.850	-19.572	-0.225	0.142
-721.835	-81.792	-0.195	-0.065
-720.821	-112.461	-0.337	-0.069
-719.806	-192.285	-0.250	-0.002
-718.791	553.838	-0.022	0.054
-717.777	-122.652	0.065	-0.011
-716.762	-200.000	-0.036	0.203
-715.748	16.042	-0.227	-0.183
-714.733	-90.045	0.353	-0.105
-713.718	-68.851	-0.328	0.130
-712.704	-17.675	-0.186	0.120
-711.689	-58.420	-0.583	0.259
-710.675	-116.257	0.232	0.044
-709.660	26.008	-0.153	-0.131
-708.645	-59.964	-0.177	-0.077
-707.631	57.049	-0.281	0.280
-706.616	-116.072	0.257	-0.049
-705.602	800.000	-0.049	-0.159
-704.587	800.000	0.080	-0.236
-703.572	-20.021	0.045	0.029
-702.558	-14.543	-0.174	0.114
-701.543	-59.308	0.145	-0.064
-700.529	21.325	-0.106	0.088
-699.514	327.072	-0.115	0.225
-698.499	-103.933	0.362	0.086
-697.485	84.928	0.374	0.419
-696.470	-182.894	-0.314	-0.006
-695.456	164.468	-0.127	-0.182
-694.441	-70.746	0.313	0.121
-693.426	357.134	0.163	-0.333
-692.412	-200.000	0.021	-0.245
-691.397	181.556	-0.144	0.216
-690.383	800.000	-0.086	-0.310
-689.368	130.665	-0.164	-0.215
-688.354	389.621	-0.096	0.204
-687.339	800.000	0.031	-0.101
-686.324	582.335	-0.098	-0.246
-685.310	-13.297	0.193	0.128
-684.295	-99.322	0.157	-0.040
-683.281	277.705	0.080	0.146
-682.266	168.807	0.216	0.314
-681.251	-12.065	0.216	-0.145
-680.237	-32.774	-0.251	0.142
-679.222	-200.000	-0.057	-0.258
-678.208	315.868	0.243	-0.468
-677.193	277.687	-0.177	0.322
-676.178	-200.000	-0.007	0.136
-675.164	470.854	0.124	-0.284
-674.149	800.000	0.079	0.238
-673.135	-49.906	0.058	0.028
-672.120	321.679	0.072	0.140
-671.105	207.515	0.088	-0.141
-670.091	-16.036	0.219	-0.142
-669.076	44.201	-0.010	-0.009
-668.062	-50.690	0.038	-0.018
-667.047	-187.557	-0.168	-0.002
-666.032	800.000	0.086	0.255
-665.018	800.000	-0.064	-0.204
-664.003	800.000	-0.077	0.323
-662.989	432.619	-0.117	-0.259
-661.974	-55.905	0.097	-0.044
-660.959	332.172	0.067	-0.132
-659.945	248.282	-0.130	0.225
-658.930	-87.672	-0.222	-0.068
-657.916	-94.973	0.084	0.023
-656.901	259.148	-0.256	0.450
-655.886	-103.847	0.415	0.099
-654.872	-200.000	-0.011	0.151
-653.857	2.160	-0.045	0.033
-652.843	332.883	0.023	-0.046
-651.828	-173.705	0.186	0.006
-650.814	-116.666	-0.368	0.069
-649.799	800.000	0.020	0.083
-648.784	-59.179	0.071	-0.031
-647.770	-200.000	-0.015	-0.105
-646.755	-200.000	-0.044	0.259
-645.741	187.714	-0.052	0.079
-644.726	-118.278	-0.104	0.019
-643.711	-135.689	0.547	0.066
-642.697	99.132	0.151	-0.178
-641.682	-200.000	0.053	-0.240
-640.668	-153.472	0.183	-0.013
-639.653	-123.685	0.426	0.069
-638.638	-64.093	0.275	-0.114
-637.624	64.966	-0.266	-0.274
-636.609	800.000	-0.032	0.114
-635.595	72.504	0.102	0.109
-634.580	-200.000	-0.010	-0.152
-633.565	136.991	-0.013	0.017
-632.551	800.000	-0.058	-0.217
-631.536	-175.021	0.137	0.004
-630.522	-182.938	0.233	0.004
-629.507	-33.462	0.326	0.184
-628.492	-73.735	-0.328	0.122
-627.478	-1.550	0.162	0.117
-626.463	668.815	-0.029	0.078
-625.449	-134.218	0.380	-0.048
-624.434	34.295	0.261	0.232
-623.419	339.273	0.083	0.165
-622.405	800.000	0.050	-0.167
-621.390	-86.747	-0.080	0.025
-620.376	-48.637	-0.330	-0.162
-619.361	299.992	0.157	0.295
-618.346	46.145	0.239	0.226
-617.332	-35.007	-0.214	0.119
-616.317	380.254	0.156	-0.326
-615.303	116.013	0.128	-0.159
-614.288	-62.550	-0.213	-0.090
-613.273	-55.215	-0.259	0.119
-612.259	-14.292	0.230	0.151
-611.244	344.197	0.159	-0.317
-610.230	-1.725	0.204	0.147
-609.215	-137.857	0.193	0.022
-608.201	591.139	0.089	0.225
-607.186	128.381	0.064	0.083
-606.171	-122.984	-0.322	0.053
-605.157	65.496	0.155	-0.160
-604.142	-180.504	-0.319	-0.007
-603.128	800.000	0.009	0.033
-602.113	61.270	-0.064	0.065
-601.098	233.386	0.094	0.157
-600.084	-107.982	-0.478	-0.106
-599.069	-20.514	0.279	-0.174
-598.055	-200.000	-0.061	0.276
-597.040	-108.081	-0.152	-0.034
-596.025	37.638	0.085	-0.077
-595.011	201.219	-0.037	-0.057
-593.996	-15.082	0.196	-0.128
-592.982	126.046	-0.170	-0.219
-591.967	-54.608	0.088	-0.040
-590.952	-176.630	0.465	-0.012
-589.938	66.022	-0.242	0.250
-588.923	310.938	-0.085	-0.161
-587.909	800.000	-0.047	-0.153
-586.894	-85.663	0.106	-0.034
-585.879	169.339	0.173	-0.252
-584.865	245.217	-0.150	0.257
-583.850	-200.000	0.012	0.174
-582.836	800.000	0.064	0.230
-581.821	151.240	-0.045	-0.062
-580.806	480.236	-0.066	-0.152
-579.792	-16.595	0.080	0.051
-578.777	36.304	0.212	-0.190
-577.763	800.000	0.088	0.341
-576.748	-79.090	-0.197	-0.068
-575.733	-80.851	0.320	0.108
-574.719	-200.000	-0.022	0.194
-573.704	-25.286	-0.183	-0.110
-572.690	714.008	0.104	-0.279
-571.675	-45.213	0.069	0.035
-570.661	92.742	-0.221	-0.254
-569.646	685.600	0.087	-0.231
-568.631	-147.748	0.405	-0.035
-567.617	37.915	-0.173	-0.156
-566.602	-154.060	0.138	0.010
-565.588	210.927	-0.015	-0.024
-564.573	63.988	-0.180	-0.184
-563.558	-108.215	0.261	-0.057
-562.544	307.112	-0.121	-0.229
-561.529	50.343	0.203	0.195
-560.515	5.237	0.187	-0.140
-559.500	-200.000	-0.047	0.213
-558.485	-114.323	-0.296	-0.058
-557.471	29.982	0.280	-0.243
-556.456	20.648	0.213	0.176
-555.442	800.000	0.040	0.149
-554.427	67.662	-0.225	-0.234
-553.412	-82.589	0.347	-0.114
-552.398	-53.361	-0.322	0.150
-551.383	-81.474	-0.245	-0.082
-550.369	-137.208	0.056	-0.006
-549.354	-145.003	0.159	0.015
-548.339	159.836	0.145	-0.206
-547.325	-74.461	-0.167	0.061
-546.310	-176.729	0.076	0.002
-545.296	-200.000	0.041	-0.218
-544.281	-200.000	-0.026	0.154
-543.266	-143.680	0.090	-0.009
-542.252	167.966	0.062	0.090
-541.237	-81.631	-0.259	0.086
-540.223	800.000	-0.121	-0.339
-539.208	-71.734	-0.092	-0.035
-538.193	0.896	-0.268	-0.195
-537.179	1.413	-0.220	-0.161
-536.164	-152.377	-0.362	-0.026
-535.150	-89.743	0.227	-0.068
-534.135	-200.000	0.007	0.043
-533.121	431.829	-0.096	-0.211
-532.106	-13.635	-0.039	0.026
-531.091	28.647	-0.240	-0.206
-530.077	130.766	-0.218	-0.284
-529.062	-54.661	0.197	-0.090
-528.048	800.000	0.086	-0.270
-527.033	257.379	0.130	0.226
-526.018	214.266	-0.170	0.273
-525.004	1.598	-0.343	-0.250
-523.989	-200.000	0.014	0.081
-522.975	-130.443	0.272	-0.037
-521.960	201.602	-0.218	0.341
-520.945	-93.500	0.449	0.126
-519.931	117.201	-0.162	-0.202
-518.916	-122.279	-0.228	0.038
-517.902	800.000	0.050	0.163
-516.887	800.000	-0.185	0.628
-515.872	63.541	-0.214	0.218
-514.858	-151.402	-0.152	-0.011
-513.843	-200.000	-0.018	0.113
-512.829	800.000	-0.054	0.156
-511.814	48.056	0.133	0.126
-510.799	457.593	-0.138	0.312
-509.785	-103.280	-0.184	-0.044
-508.770	163.022	-0.127	0.181
-507.756	6.781	-0.024	0.018
-506.741	-144.311	-0.318	0.030
-505.726	157.922	0.297	0.417
-504.712	-71.370	-0.061	0.023
-503.697	-200.000	-0.020	-0.225
-502.683	-200.000	-0.004	0.077
-501.668	13.974	-0.199	0.157
-500.653	-200.000	0.028	-0.142
-499.639	-200.000	-0.071	-0.355
-498.624	-55.089	-0.111	0.051
-497.610	146.082	0.055	-0.075
-496.595	-160.000	-0.170	-0.009
-495.581	-87.011	-0.164	-0.051
-494.566	-25.736	0.207	-0.124
-493.551	551.541	0.101	0.247
-492.537	13.910	-0.199	0.157
-491.522	716.381	-0.037	0.099
-490.508	-155.116	-0.209	0.014
-489.493	-87.679	0.188	-0.057
-488.478	-200.000	0.026	-0.274
-487.464	94.522	-0.367	-0.423
-486.449	501.561	-0.074	-0.172
-485.435	-8.272	0.116	-0.079
-484.420	-200.000	0.006	0.192
-483.405	-200.000	0.008	0.074
-482.391	127.110	0.033	-0.042
-481.376	148.906	0.169	0.231
-480.362	-200.000	0.018	0.132
-479.347	800.000	-0.120	0.363
-478.332	-168.567	-0.239	-0.009
-477.318	31.259	0.069	-0.060
-476.303	800.000	-0.065	-0.229
-475.289	-200.000	-0.104	-0.597
-474.274	27.759	0.164	0.140
-473.259	12.886	-0.102	-0.080
-472.245	78.204	-0.109	-0.118
-471.230	213.453	0.022	-0.035
-470.216	70.890	0.215	0.225
-469.201	191.842	-0.053	0.080
-468.186	22.168	0.117	0.097
-467.172	261.797	-0.053	0.092
-466.157	-8.791	0.514	-0.349
-465.143	-73.771	0.299	0.110
-464.128	-200.000	-0.010	0.347
-463.113	-200.000	-0.037	0.191
-462.099	2.264	-0.181	0.133
-461.084	5.824	-0.153	-0.115
-460.070	-67.185	-0.221	0.088
-459.055	80.804	-0.246	0.269
-458.040	-95.487	0.236	-0.064
-457.026	-63.185	0.132	0.055
-456.011	33.771	0.129	0.114
-454.997	120.432	0.132	0.166
-453.982	-200.000	0.043	-0.456
-452.968	-34.352	-0.126	-0.070
-451.953	-13.947	-0.295	0.193
-450.938	-72.230	0.285	0.107
-449.924	-19.672	0.399	0.250
-448.909	800.000	-0.050	-0.146
-447.895	-200.000	0.006	-0.122
-446.880	800.000	0.115	-0.325
-445.865	103.002	0.069	-0.082
-444.851	168.399	0.063	0.091
-443.836	-64.667	-0.308	0.126
-442.822	-51.707	-0.065	-0.031
-441.807	-200.000	0.012	0.312
-440.792	-200.000	-0.024	0.171
-439.778	-200.000	-0.022	0.500
-438.763	775.386	-0.041	-0.113
-437.749	800.000	-0.094	-0.271
-436.734	-136.324	-0.168	-0.020
-435.719	13.929	0.124	0.098
-434.705	-34.769	0.296	-0.164
-433.690	800.000	0.078	0.256
-432.676	-200.000	0.045	0.361
-431.661	718.547	0.103	-0.276
-430.646	722.917	-0.020	0.055
-429.632	312.047	-0.199	-0.377
-428.617	265.211	-0.125	-0.221
-427.603	99.797	0.163	0.191
-426.588	-200.000	-0.014	0.140
-425.573	51.195	0.289	0.277
-424.559	-129.634	0.371	0.052
-423.544	-197.370	0.242	-0.002
-422.530	56.266	0.132	-0.129
-421.515	-22.672	-0.172	-0.105
-420.500	84.981	-0.121	-0.134
-419.486	-120.683	0.289	0.049
-418.471	-68.018	-0.238	-0.094
-417.457	-59.517	0.050	-0.022
-416.442	-200.000	0.172	0.000
-415.428	-99.087	0.191	-0.049
-414.413	-200.000	-0.039	0.449
-413.398	-200.000	0.031	0.392
-412.384	-200.000	-0.045	0.437
-411.369	-200.000	-0.002	0.122
-410.355	-43.092	0.079	-0.040
-409.340	-172.781	0.036	0.001
-408.325	-200.000	0.005	-0.093
-407.311	800.000	-0.064	-0.220
-406.296	-93.776	-0.066	0.018
-405.282	202.508	0.064	0.100
-404.267	22.660	0.100	-0.083
-403.252	47.395	0.031	-0.029
-402.238	-6.571	0.259	0.178
-401.223	262.828	-0.080	-0.140
-400.209	-200.000	0.003	0.188
-399.194	321.471	0.133	-0.256
-398.179	-122.213	-0.148	0.024
-397.165	763.208	-0.110	0.301
-396.150	-140.677	0.287	0.030
-395.136	-146.845	0.371	0.032
-394.121	-80.310	-0.091	-0.031
-393.106	-67.408	-0.357	-0.141
-392.092	8.912	-0.151	0.115
-391.077	-65.640	0.174	-0.070
-390.063	-80.372	0.226	0.076
-389.048	10.238	-0.132	-0.102
-388.033	-81.269	-0.038	-0.013
-387.019	-6.279	-0.114	-0.079
-386.004	-200.000	-0.019	-0.262
-384.990	-100.595	-0.073	-0.018
-383.975	187.952	-0.018	0.028
-382.960	-25.491	-0.375	0.224
-381.946	37.005	0.147	-0.131
-380.931	-126.454	-0.193	-0.029
-379.917	-128.527	0.187	-0.027
-378.902	396.922	0.145	-0.305
-377.888	-200.000	0.013	0.134
-376.873	43.802	-0.286	-0.264
-375.858	-138.833	-0.104	-0.011
-374.844	134.190	-0.040	0.052
-373.829	-100.012	0.200	0.050
-372.815	190.187	0.133	-0.202
-371.800	88.437	0.038	-0.043
-370.785	-87.431	0.183	-0.056
-369.771	800.000	-0.059	-0.175
-368.756	-102.020	0.473	-0.115
-367.742	86.492	0.131	-0.146
-366.727	800.000	0.030	-0.089
-365.712	800.000	0.055	0.220
-364.698	-58.496	0.272	0.119
-363.683	109.129	0.118	0.142
-362.669	15.471	-0.136	-0.108
-361.654	-200.000	-0.032	-0.180
-360.639	133.053	0.156	0.204
-359.625	5.498	-0.393	-0.293
-358.610	-102.650	-0.170	0.041
-357.596	-44.979	-0.141	-0.071
-356.581	-170.798	-0.242	0.008
-355.566	-103.485	-0.528	-0.125
-354.552	522.640	-0.178	-0.422
-353.537	13.297	-0.210	0.164
-352.523	-158.348	-0.201	-0.012
-351.508	279.378	-0.023	0.042
-350.493	-200.000	-0.003	-0.231
-349.479	800.000	-0.049	0.150
-348.464	101.888	0.101	0.119
-347.450	-25.867	-0.344	0.204
-346.435	-127.881	-0.066	0.010
-345.420	99.655	-0.068	0.079
-344.406	-144.163	0.103	0.010
-343.391	-140.321	0.087	-0.009
-342.377	14.095	-0.395	0.310
-341.362	-113.515	0.071	-0.014
-340.348	106.424	0.141	-0.169
-339.333	70.405	0.225	-0.234
-338.318	-69.963	0.073	-0.028
-337.304	-28.328	-0.147	-0.085
-336.289	-127.311	-0.046	0.007
-335.275	340.795	0.070	-0.138
-334.260	-200.000	-0.021	0.129
-333.245	403.620	-0.191	0.404
-332.231	21.263	0.183	-0.150
-331.216	37.829	0.220	-0.197
-330.202	-15.115	0.248	-0.160
-329.187	114.661	-0.170	0.209
-328.172	-200.000	-0.010	0.193
-327.158	277.325	-0.093	-0.167
-326.143	-200.000	-0.006	-0.159
-325.129	-22.433	-0.164	-0.100
-324.114	89.262	-0.112	0.125
-323.099	-200.000	-0.036	-0.178
-322.085	800.000	-0.051	0.172
-321.070	-200.000	0.000	-0.236
-320.056	-126.799	0.117	0.017
-319.041	-60.697	-0.137	-0.058
-318.026	5.213	-0.245	0.182
-317.012	22.538	-0.216	0.178
-315.997	-122.389	0.219	0.036
-314.983	7.945	0.256	-0.193
-313.968	-71.574	-0.074	-0.028
-312.953	-200.000	0.018	0.141
-311.939	-114.923	0.298	-0.057
-310.924	-58.642	0.059	-0.026
-309.910	-155.241	0.121	-0.008
-308.895	123.384	0.120	-0.151
-307.880	108.707	-0.284	-0.342
-306.866	204.698	-0.093	-0.146
-305.851	33.619	-0.241	-0.211
-304.837	308.648	-0.077	0.145
-303.822	-5.772	-0.041	0.028
-302.807	-200.000	-0.014	0.122
-301.793	55.077	-0.187	0.182
-300.778	800.000	-0.064	0.249
-299.764	109.765	-0.211	0.255
-298.749	129.436	0.080	-0.103
-297.735	28.458	0.381	-0.324
-296.720	210.110	-0.012	-0.020
-295.705	-200.000	-0.033	0.191
-294.691	53.473	0.151	-0.146
-293.676	111.931	-0.054	-0.065
-292.662	-89.645	0.192	-0.057
-291.647	-131.666	0.142	0.019
-290.632	390.623	-0.062	0.129
-289.618	800.000	0.023	-0.076
-288.603	-73.628	0.185	0.068
-287.589	-141.660	0.161	0.016
-286.574	24.013	-0.038	-0.032
-285.559	49.817	-0.069	-0.066
-284.545	104.215	-0.080	-0.095
-283.530	114.298	0.044	-0.054
-282.516	229.577	0.153	0.251
-281.501	457.490	0.080	0.178
-280.486	165.873	-0.101	0.143
-279.472	123.788	-0.128	0.161
-278.457	-166.239	0.070	0.003
-277.443	800.000	-0.093	-0.272
-276.428	-8.886	0.109	0.074
-275.413	-106.260	-0.353	0.080
-274.399	35.992	-0.103	0.091
-273.384	-200.000	0.013	0.183
-272.370	-134.419	-0.322	0.040
-271.355	-200.000	-0.010	-0.218
-270.340	10.312	-0.210	0.161
-269.326	-192.601	-0.149	-0.001
-268.311	-200.000	0.029	0.201
-267.297	117.466	0.147	-0.182
-266.282	-37.767	0.057	0.031
-265.267	-171.985	-0.126	0.004
-264.253	-25.502	-0.208	-0.124
-263.238	-200.000	0.030	0.204
-262.224	-200.000	-0.011	-0.072
-261.209	764.882	0.088	-0.239
-260.195	235.984	0.199	-0.331
-259.180	-48.421	0.150	-0.073
-258.165	-47.541	-0.118	0.058
-257.151	800.000	-0.082	0.299
-256.136	-200.000	0.021	-0.122
-255.122	-5.193	-0.282	-0.195
-254.107	-4.803	-0.302	0.209
-253.092	-115.319	-0.161	-0.031
-252.078	-48.300	-0.292	-0.141
-251.063	-74.246	0.238	-0.086
-250.049	90.243	-0.049	0.055
-249.034	-52.385	-0.457	-0.213
-248.019	256.062	0.064	0.110
-247.005	800.000	-0.092	0.303
-245.990	800.000	-0.058	0.238
-244.976	-200.000	-0.049	0.267
-243.961	355.149	0.118	-0.235
-242.946	-200.000	-0.084	-0.441
-241.932	9.805	0.046	-0.035
-240.917	-12.141	-0.131	0.086
-239.903	18.935	0.210	0.169
-238.888	0.001	-0.123	0.088
-237.873	800.000	-0.051	-0.174
-236.859	171.233	-0.048	-0.069
-235.844	800.000	-0.044	0.152
-234.830	-200.000	-0.008	0.119
-233.815	-15.518	-0.185	-0.118
-232.800	172.132	0.117	0.169
-231.786	-95.578	0.346	0.093
-230.771	-200.000	0.004	-0.297
-229.757	-200.000	-0.010	-0.057
-228.742	56.414	0.085	-0.083
-227.727	-200.000	-0.011	0.119
-226.713	-99.972	-0.172	0.043
-225.698	-200.000	0.054	0.274
-224.684	-118.175	0.317	0.057
-223.669	29.276	0.257	-0.219
-222.655	50.876	0.197	0.187
-221.640	-66.619	-0.168	0.067
-220.625	800.000	-0.122	-0.378
-219.611	253.224	-0.173	0.297
-218.596	-127.729	-0.166	0.024
-217.582	-107.879	0.298	0.065
-216.567	-200.000	-0.002	-0.062
-215.552	-200.000	0.003	-0.099
-214.538	757.107	0.016	0.043
-213.523	-97.638	-0.350	-0.091
-212.509	108.197	0.161	0.193
-211.494	-200.000	-0.034	0.299
-210.479	137.846	0.128	0.168
-209.465	-200.000	-0.041	-0.183
-208.450	-122.250	0.175	-0.029
-207.436	-56.983	-0.214	0.095
-206.421	715.087	0.104	-0.277
-205.406	387.066	0.059	-0.123
-204.392	-33.805	-0.200	0.111
-203.377	581.350	0.048	0.117
-202.363	800.000	0.054	0.218
-201.348	93.267	-0.141	-0.160
-200.333	-200.000	-0.036	-0.315
-199.319	800.000	-0.092	0.262
-198.304	-200.000	0.027	-0.287
-197.290	-151.323	0.131	0.010
-196.275	-120.186	0.073	-0.013
-195.260	-109.634	0.182	-0.038
-194.246	-200.000	-0.003	0.279
-193.231	136.930	-0.113	0.149
-192.217	-53.459	-0.192	-0.088
-191.202	-76.786	0.031	-0.011
-190.187	-71.493	0.154	-0.058
-189.173	-89.070	0.059	-0.017
-188.158	617.603	-0.133	-0.335
-187.144	140.279	0.111	-0.146
-186.129	-181.073	0.291	-0.006
-185.114	-200.000	0.018	0.126
-184.100	-99.217	-0.130	0.033
-183.085	214.924	0.079	-0.126
-182.071	800.000	0.053	-0.228
-181.056	261.949	-0.140	-0.243
-180.042	-200.000	0.030	-0.271
-179.027	800.000	0.060	-0.199
-178.012	-200.000	0.023	0.334
-176.998	165.718	-0.039	-0.055
-175.983	800.000	0.063	-0.235
-174.969	-121.832	0.404	-0.067
-173.954	800.000	0.099	0.386
-172.939	-118.676	-0.197	0.035
-171.925	800.000	-0.005	-0.016
-170.910	-67.924	-0.228	-0.089
-169.896	4.690	-0.051	0.037
-168.881	-200.000	-0.033	-0.190
-167.866	75.829	0.161	0.170
-166.852	-79.272	-0.301	0.102
-165.837	-100.768	-0.228	-0.056
-164.823	-33.459	0.150	-0.083
-163.808	-200.000	0.017	0.308
-162.793	29.331	0.073	-0.062
-161.779	18.152	0.082	0.066
-160.764	51.933	0.181	0.172
-159.750	217.104	0.132	0.211
-158.735	-200.000	0.035	-0.204
-157.720	181.445	-0.103	-0.152
-156.706	-41.770	-0.094	-0.048
-155.691	800.000	0.054	0.150
-154.677	-70.125	-0.081	0.031
-153.662	91.822	-0.105	-0.118
-152.647	143.430	0.261	0.348
-151.633	677.252	-0.058	-0.151
-150.618	76.602	0.128	0.136
-149.604	-200.000	0.058	-0.258
-148.589	192.216	0.164	-0.247
-147.574	-200.000	0.002	-0.018
-146.560	130.856	-0.016	0.021
-145.545	123.753	0.079	0.099
-144.531	267.701	0.101	-0.177
-143.516	561.708	-0.149	-0.362
-142.502	-200.000	0.020	0.156
-141.487	90.294	0.173	0.193
-140.472	-200.000	0.061	0.355
-139.458	-1.017	-0.288	-0.204
-138.443	-148.285	-0.126	-0.010
-137.429	137.206	-0.165	0.216
-136.414	78.315	0.212	0.226
-135.399	-200.000	-0.008	-0.072
-134.385	141.599	0.137	0.182
-133.370	88.911	-0.400	-0.445
-132.356	-2.929	0.115	-0.080
-131.341	-130.943	-0.261	-0.035
-130.326	-107.889	-0.187	-0.041
-129.312	-108.607	0.109	0.023
-128.297	-120.867	-0.242	0.041
-127.283	280.487	0.065	-0.116
-126.268	-3.844	0.419	0.291
-125.253	87.523	0.046	0.051
-124.239	-78.726	0.113	-0.039
-123.224	-89.446	-0.272	0.080
-122.210	503.387	0.038	-0.089
-121.195	-9.635	0.147	-0.098
-120.180	85.132	-0.008	-0.009
-119.166	-73.335	0.180	0.066
-118.151	-97.148	0.166	-0.043
-117.137	-97.626	-0.089	-0.023
-116.122	-81.542	0.417	0.137
-115.107	-200.000	0.011	-0.065
-114.093	-146.677	0.215	-0.019
-113.078	57.499	-0.174	-0.170
-112.064	-87.171	-0.410	-0.124
-111.049	421.144	0.089	0.190
-110.034	-200.000	-0.016	0.298
-109.020	307.263	-0.067	0.124
-108.005	-200.000	0.467	-0.000
-106.991	17.564	0.112	-0.089
-105.976	-42.954	-0.205	0.104
-104.962	43.030	0.231	-0.211
-103.947	-100.866	-0.097	0.024
-102.932	59.340	0.116	0.114
-101.918	191.723	0.159	0.239
-100.903	-5.271	0.076	-0.052
-99.889	69.681	0.042	-0.044
-98.874	-192.667	0.151	-0.001
-97.859	-200.000	0.003	0.096
-96.845	39.518	0.221	0.197
-95.830	-73.756	-0.227	-0.082
-94.816	729.808	-0.111	-0.296
-93.801	-49.066	0.170	0.081
-92.786	22.388	-0.190	0.155
-91.772	-44.789	0.207	-0.103
-90.757	-200.000	0.010	-0.103
-89.743	-57.311	-0.331	0.145
-88.728	-200.000	-0.039	0.365
-87.713	-101.170	0.148	-0.036
-86.699	-200.000	-0.060	-0.330
-85.684	-200.000	0.002	0.260
-84.670	47.143	-0.070	0.065
-83.655	496.038	0.049	-0.112
-82.640	-118.148	0.191	0.034
-81.626	92.380	0.237	-0.266
-80.611	-55.557	0.156	-0.070
-79.597	-80.551	0.265	0.088
-78.582	-200.000	-0.004	0.034
-77.567	16.585	-0.362	-0.285
-76.553	417.244	0.052	-0.110
-75.538	-98.577	0.041	0.011
-74.524	248.256	0.097	0.164
-73.509	-22.138	0.193	0.117
-72.494	-167.440	0.054	0.002
-71.480	352.461	-0.050	0.099
-70.465	709.890	-0.102	0.269
-69.451	-200.000	0.028	0.140
-68.436	-200.000	-0.016	0.145
-67.422	-32.184	0.481	0.268
-66.407	-44.056	0.023	-0.012
-65.392	-200.000	-0.033	0.232
-64.378	269.302	0.089	-0.156
-63.363	652.133	-0.054	0.137
-62.349	-145.116	0.113	-0.010
-61.334	104.355	-0.679	-0.797
-60.319	800.000	-0.065	-0.186
-59.305	-200.000	-0.156	-0.751
-58.290	39.956	0.494	0.442
-57.276	339.212	0.798	1.550
-56.261	-200.000	76.407	509.779
-55.246	518.954	1334.320	3114.546
-54.232	145.630	2566.532	3427.109
-53.217	116.373	2247.031	2744.873
-52.203	51.273	1769.460	1673.860
-51.188	43.992	1567.499	1431.587
-50.173	41.381	1537.369	1385.893
-49.159	57.328	1574.805	1531.878
-48.144	63.116	1594.438	1591.518
-47.130	44.547	1557.719	1426.317
-46.115	40.933	1543.276	1387.868
-45.100	40.787	1539.570	1383.467
-44.086	40.640	1537.975	1380.953
-43.071	40.548	1536.267	1378.726
-42.057	40.455	1534.269	1376.231
-41.042	40.528	1532.641	1375.222
-40.027	40.534	1531.163	1373.888
-39.013	40.548	1529.187	1372.154
-37.998	40.560	1528.147	1371.248
-36.984	40.505	1527.610	1370.335
-35.969	40.485	1525.967	1368.666
-34.954	40.642	1524.040	1367.968
-33.940	40.615	1522.825	1366.638
-32.925	40.612	1521.249	1365.145
-31.911	40.571	1520.307	1363.967
-30.896	40.706	1518.511	1363.226
-29.881	40.651	1517.442	1361.834
-28.867	40.798	1515.972	1361.468
-27.852	40.624	1514.888	1359.250
-26.838	40.650	1512.971	1357.655
-25.823	40.589	1511.356	1355.734
-24.809	40.586	1509.872	1354.326
-23.794	40.614	1508.126	1352.902
-22.779	40.641	1507.121	1352.127
-21.765	40.657	1505.946	1351.132
-20.750	40.597	1505.415	1350.191
-19.736	40.610	1504.141	1349.083
-18.721	40.571	1503.026	1347.765
-17.706	40.690	1501.553	1347.199
-16.692	40.682	1500.069	1345.759
-15.677	40.590	1499.337	1344.424
-14.663	40.567	1498.640	1343.591
-13.648	40.560	1497.554	1342.515
-12.633	40.507	1496.581	1341.234
-11.619	40.451	1496.326	1340.576
-10.604	40.533	1495.122	1339.998
-9.590	40.511	1494.125	1338.904
-8.575	40.564	1492.905	1338.109
-7.560	40.463	1492.508	1337.020
-6.546	40.518	1491.229	1336.191
-5.531	40.436	1490.952	1335.337
-4.517	40.480	1489.363	1334.157
-3.502	40.436	1488.896	1333.394
-2.487	40.568	1487.466	1332.947
-1.473	40.544	1486.626	1331.979
-0.458	40.589	1485.136	1330.891
0.556	40.823	1476.578	1321.824
1.571	38.287	1450.198	1281.494
2.586	34.649	1388.100	1203.630
3.600	32.569	1305.083	1119.198
4.615	30.523	1256.279	1065.533
5.629	25.491	1196.898	987.516
6.644	13.332	1104.092	848.836
7.659	3.806	1056.105	764.920
8.673	2.301	1050.579	753.434
9.688	1.985	1047.481	749.597
10.702	1.902	1045.368	747.610
11.717	1.973	1043.533	746.578
12.731	5.380	1048.726	766.964
13.746	16.632	1064.533	834.210
14.761	24.726	1075.203	882.628
15.775	25.528	1075.169	886.477
16.790	25.448	1074.657	885.582
17.804	25.245	1073.560	883.602
18.819	25.081	1072.629	881.950
19.834	25.244	1071.969	882.131
20.848	25.326	1071.854	882.358
21.863	25.416	1071.092	882.095
22.877	25.313	1070.929	881.377
23.892	25.265	1070.666	880.848
24.907	25.224	1069.333	879.474
25.921	25.335	1068.579	879.317
26.936	25.274	1068.029	878.488
27.950	25.214	1067.032	877.296
28.965	25.335	1065.214	876.318
29.980	25.202	1063.794	874.421
30.994	25.028	1062.948	872.800
32.009	25.233	1062.549	873.395
33.023	25.315	1061.851	873.145
34.038	25.151	1060.744	871.359
35.053	25.125	1059.936	870.492
36.067	25.312	1059.175	870.699
37.082	25.293	1058.524	869.995
38.096	25.225	1058.097	869.237
39.111	25.369	1057.550	869.405
40.126	25.649	1056.114	869.501
41.140	25.520	1054.729	867.662
42.155	25.224	1053.179	864.885
43.169	24.650	1052.743	861.681
44.184	24.875	1051.446	861.630
45.199	24.954	1050.331	861.020
46.213	24.863	1049.024	859.435
47.228	24.879	1048.522	859.022
48.242	25.022	1047.601	858.879
49.257	25.156	1047.204	859.117
50.271	25.188	1046.348	858.493
51.286	25.342	1046.046	858.908
52.301	25.322	1045.302	858.122
53.315	25.441	1044.267	857.765
54.330	25.204	1043.887	856.249
55.344	25.112	1042.863	854.892
56.359	25.302	1042.234	855.209
57.374	25.311	1041.444	854.524
58.388	24.936	1040.690	852.050
59.403	25.028	1039.739	851.628
60.417	25.027	1038.809	850.790
61.432	24.773	1038.286	849.079
62.447	24.936	1037.512	849.145
63.461	25.025	1036.877	848.974
64.476	25.022	1036.071	848.224
65.490	25.036	1034.836	847.205
66.505	25.002	1033.924	846.219
67.520	24.883	1033.203	844.996
68.534	25.015	1032.756	845.178
69.549	25.048	1031.301	844.064
70.563	24.620	1030.704	841.489
71.578	24.486	1029.925	840.147
72.593	24.615	1028.673	839.659
73.607	24.412	1027.931	838.023
74.622	24.305	1026.985	836.679
75.636	24.609	1026.595	837.710
76.651	24.869	1025.841	838.242
77.666	24.803	1024.699	836.925
78.680	24.686	1023.574	835.384
79.695	24.643	1023.716	835.224
80.709	24.816	1022.622	835.065
81.724	24.899	1021.520	834.478
82.739	25.023	1020.852	834.435
83.753	24.804	1020.579	833.120
84.768	25.099	1020.070	834.004
85.782	25.481	1019.369	835.132
86.797	25.680	1018.431	835.213
87.812	25.665	1017.776	834.531
88.826	25.384	1016.972	832.499
89.841	25.399	1016.266	831.917
90.855	25.567	1014.987	831.573
91.870	25.596	1014.912	831.570
92.884	25.625	1013.762	830.687
93.899	25.268	1013.077	828.406
94.914	25.242	1011.799	827.168
95.928	25.357	1011.348	827.254
96.943	25.449	1010.815	827.170
97.957	25.129	1009.288	824.375
98.972	24.894	1008.355	822.461
99.987	24.811	1006.998	820.900
101.001	24.979	1006.198	820.947
102.016	25.229	1005.966	821.832
103.030	25.167	1005.252	820.891
104.045	25.145	1004.128	819.799
105.060	25.008	1002.983	818.169
106.074	24.806	1001.839	816.240
107.089	24.784	1001.517	815.805
108.103	25.143	1001.286	817.180
109.118	25.247	1000.182	816.682
110.133	25.034	998.705	814.434
111.147	25.007	997.648	813.377
112.162	24.765	996.925	811.617
113.176	24.587	995.601	809.662
114.191	24.781	994.866	809.872
115.206	24.839	994.218	809.535
116.220	24.639	993.226	807.753
117.235	24.477	992.007	805.956
118.249	24.589	991.813	806.236
119.264	24.610	990.655	805.317
120.279	24.487	990.201	804.323
121.293	24.487	989.571	803.737
122.308	24.606	988.785	803.565
123.322	24.643	987.914	802.950
124.337	24.607	986.355	801.454
125.352	24.516	985.276	800.097
126.366	24.029	983.875	796.709
127.381	23.761	982.830	794.593
128.395	24.200	982.483	796.206
129.410	24.964	982.508	799.566
130.424	24.988	981.756	798.992
131.439	25.182	980.679	798.907
132.454	25.218	979.155	797.755
133.468	25.103	979.007	797.055
134.483	25.092	977.683	795.856
135.497	25.199	977.210	795.875
136.512	25.313	976.895	796.054
137.527	25.356	976.382	795.758
138.541	25.405	975.461	795.152
139.556	25.443	974.700	794.629
140.570	25.467	973.611	793.777
141.585	25.556	972.754	793.402
142.600	25.651	972.007	793.139
143.614	25.483	971.144	791.625
144.629	25.514	970.508	791.173
145.643	25.701	970.017	791.526
146.658	25.580	968.887	790.004
147.673	25.353	968.150	788.334
148.687	25.274	967.041	787.016
149.702	25.166	965.581	785.288
150.716	25.224	964.358	784.475
151.731	25.100	963.362	783.053
152.746	25.161	962.890	782.869
153.760	25.450	962.373	783.637
154.775	25.524	961.621	783.278
155.789	25.573	960.670	782.647
156.804	25.363	960.113	781.213
157.819	25.432	958.934	780.483
158.833	25.522	957.845	779.920
159.848	25.582	957.601	779.911
160.862	25.631	956.599	779.240
161.877	25.525	955.677	777.959
162.892	25.371	955.052	776.716
163.906	25.338	954.201	775.813
164.921	25.411	953.180	775.227
165.935	25.353	952.073	774.011
166.950	25.393	950.849	773.120
167.964	25.558	950.029	773.096
168.979	25.523	949.222	772.218
169.994	25.420	948.280	770.939
171.008	25.232	947.226	769.211
172.023	25.354	946.548	769.115
173.037	25.677	945.691	769.734
174.052	25.433	944.580	767.715
175.067	25.176	944.009	766.086
176.081	25.239	943.069	765.523
177.096	25.182	942.599	764.835
178.110	25.331	941.592	764.583
179.125	25.157	940.578	762.950
180.140	24.807	940.068	760.984
181.154	24.806	938.956	760.009
182.169	24.978	938.271	760.120
183.183	25.138	938.286	760.740
184.198	25.407	938.058	761.629
185.213	25.515	937.286	761.394
186.227	25.383	936.821	760.391
187.242	25.390	935.685	759.432
188.256	25.502	935.321	759.543
189.271	25.438	934.525	758.559
190.286	25.749	934.003	759.378
191.300	25.423	933.388	757.438
192.315	24.807	931.725	753.429
193.329	24.005	930.365	748.888
194.344	23.603	928.995	746.027
195.359	24.326	929.227	749.189
196.373	25.233	929.689	753.305
197.388	25.500	929.481	754.188
198.402	25.484	928.931	753.611
199.417	25.276	928.078	751.980
200.432	25.347	928.086	752.216
201.446	25.311	927.042	751.152
202.461	24.926	926.232	748.820
203.475	25.120	925.452	748.933
204.490	24.681	924.585	746.332
205.504	23.581	922.062	739.648
206.519	23.772	922.255	740.533
207.534	24.994	922.151	745.475
208.548	25.046	922.049	745.543
209.563	25.348	921.836	746.561
210.577	25.374	920.962	745.894
211.592	25.049	920.101	743.781
212.607	25.331	920.321	745.064
213.621	25.608	919.619	745.576
214.636	25.605	918.658	744.720
215.650	25.530	918.385	744.122
216.665	25.561	917.709	743.640
217.680	25.477	917.245	742.850
218.694	25.646	916.970	743.260
219.709	25.402	915.683	741.145
220.723	24.937	914.921	738.543
221.738	25.199	914.549	739.259
222.753	25.397	913.769	739.375
223.767	25.258	913.109	738.208
224.782	25.340	912.691	738.141
225.796	25.554	912.127	738.498
226.811	25.583	911.591	738.118
227.826	25.332	910.174	735.877
228.840	24.391	909.133	731.113
229.855	24.303	908.523	730.199
230.869	24.636	907.953	731.040
231.884	24.353	906.698	728.808
232.899	24.225	906.127	727.762
233.913	25.144	906.530	731.773
234.928	25.237	906.269	731.875
235.942	25.157	905.346	730.741
236.957	25.135	904.885	730.216
237.972	24.944	903.589	728.328
238.986	24.797	903.228	727.373
240.001	24.890	903.033	727.530
241.015	24.924	902.021	726.787
242.030	25.136	901.039	726.793
243.045	25.286	900.726	727.083
244.059	25.238	900.703	726.806
245.074	25.528	900.045	727.385
246.088	25.455	899.306	726.427
247.103	25.110	898.384	724.227
248.117	25.121	897.900	723.815
249.132	25.574	897.856	725.544
250.147	25.887	897.856	726.745
251.161	26.195	896.878	727.129
252.176	26.262	896.220	726.799
253.190	26.270	895.788	726.417
254.205	26.302	895.323	726.102
255.220	26.470	894.987	726.440
256.234	26.338	894.718	725.630
257.249	26.288	893.546	724.413
258.263	26.073	893.164	723.177
259.278	26.113	892.700	722.898
260.293	26.290	892.060	723.025
261.307	26.273	891.509	722.446
262.322	26.251	890.887	721.790
263.336	26.024	890.490	720.498
264.351	25.808	888.846	718.245
265.366	24.686	886.357	711.704
266.380	24.204	885.338	708.905
267.395	25.123	885.827	712.893
268.409	25.864	886.400	716.236
269.424	25.812	885.808	715.487
270.439	25.928	885.016	715.245
271.453	26.091	884.498	715.410
272.468	26.009	883.856	714.502
273.482	26.096	884.014	714.912
274.497	26.374	883.222	715.307
275.512	26.258	881.736	713.584
276.526	25.515	880.643	709.703
277.541	25.659	880.641	710.208
278.555	25.994	880.355	711.234
279.570	26.023	879.620	710.693
280.585	25.709	878.790	708.722
281.599	25.891	878.206	708.903
282.614	25.901	877.931	708.659
283.628	25.584	876.711	706.368
284.643	25.016	876.448	703.864
285.657	25.592	875.744	705.494
286.672	25.573	875.006	704.765
287.687	25.077	874.389	702.263
288.701	25.220	874.112	702.538
289.716	25.700	873.734	704.051
290.730	25.357	872.831	701.919
291.745	25.235	872.148	700.830
292.760	25.083	871.058	699.301
293.774	24.939	870.510	698.235
294.789	25.983	870.842	702.510
295.803	26.669	871.047	705.284
296.818	26.568	870.959	704.759
297.833	26.571	870.774	704.559
298.847	26.271	869.439	702.250
299.862	26.073	868.048	700.294
300.876	26.158	867.779	700.345
301.891	26.577	867.428	701.626
302.906	26.566	867.077	701.236
303.920	26.162	866.180	698.884
304.935	26.041	865.457	697.772
305.949	26.503	865.331	699.396
306.964	26.658	864.586	699.329
307.979	26.374	863.537	697.322
308.993	26.234	863.226	696.471
310.008	26.473	863.447	697.511
311.022	26.754	862.516	697.779
312.037	26.584	861.848	696.522
313.052	26.248	861.167	694.618
314.066	26.207	860.675	694.001
315.081	25.413	859.710	690.112
316.095	24.891	857.600	686.358
317.110	25.267	857.804	687.905
318.125	26.180	858.365	691.792
319.139	25.643	857.255	688.779
320.154	24.723	855.411	683.720
321.168	24.182	854.510	680.874
322.183	24.682	854.899	683.036
323.197	25.727	854.945	687.001
324.212	26.119	854.884	688.386
325.227	26.217	854.495	688.385
326.241	26.293	854.256	688.425
327.256	26.274	853.420	687.616
328.270	26.105	852.744	686.367
329.285	26.023	852.323	685.657
330.300	26.020	851.239	684.712
331.314	25.632	850.809	682.833
332.329	25.644	850.179	682.312
333.343	26.170	850.046	684.141
334.358	26.488	849.368	684.737
335.373	26.527	848.935	684.476
336.387	26.473	848.470	683.836
337.402	26.645	848.141	684.161
338.416	26.867	848.001	684.823
339.431	26.794	847.545	684.121
340.446	26.707	847.358	683.581
341.460	27.208	846.207	684.478
342.475	27.022	845.613	683.238
343.489	26.769	845.176	681.872
344.504	26.746	844.393	681.094
345.519	26.954	844.292	681.735
346.533	27.294	843.882	682.619
347.548	27.277	843.424	682.124
348.562	27.334	842.859	681.819
349.577	27.404	842.184	681.475
350.592	27.226	841.948	680.560
351.606	27.145	841.151	679.551
352.621	27.153	840.777	679.218
353.635	27.205	839.750	678.522
354.650	27.067	839.486	677.734
355.665	26.738	838.999	676.056
356.679	25.724	837.098	670.687
357.694	25.485	836.816	669.511
358.708	26.083	836.650	671.544
359.723	26.039	835.865	670.693
360.738	26.198	835.947	671.291
361.752	26.865	835.523	673.366
362.767	26.979	835.553	673.755
363.781	27.119	835.111	673.859
364.796	27.664	834.853	675.611
365.810	27.459	834.631	674.611
366.825	27.650	834.083	674.815
367.840	27.701	833.685	674.623
368.854	27.540	833.066	673.467
369.869	26.970	832.551	670.887
370.883	26.792	831.740	669.516
371.898	26.901	831.347	669.541
372.913	26.745	830.622	668.324
373.927	26.951	829.854	668.404
374.942	27.109	829.020	668.256
375.956	27.123	828.713	668.000
376.971	27.231	828.180	667.908
377.986	27.301	827.720	667.733
379.000	27.499	827.435	668.172
380.015	27.370	827.313	667.542
381.029	27.410	826.284	666.798
382.044	27.420	825.520	666.159
383.059	27.454	825.143	665.919
384.073	27.511	824.672	665.689
385.088	27.581	824.252	665.547
386.102	27.501	823.620	664.688
387.117	27.405	822.907	663.701
388.132	27.098	822.635	662.304
389.146	27.108	821.919	661.706
390.161	26.509	820.595	658.405
391.175	26.470	820.730	658.311
392.190	27.125	820.298	660.289
393.205	27.245	819.845	660.300
394.219	26.316	818.028	655.410
395.234	24.500	816.032	647.179
396.248	23.879	814.456	643.626
397.263	24.784	815.301	647.511
398.278	26.486	817.024	654.992
399.292	27.080	816.851	656.945
400.307	26.851	816.177	655.516
401.321	26.727	815.541	654.499
402.336	26.823	815.263	654.564
403.350	27.063	815.277	655.386
404.365	27.569	815.365	657.223
405.380	27.907	814.829	657.948
406.394	28.058	815.099	658.653
407.409	28.099	814.930	658.605
408.423	28.258	814.190	658.523
409.438	28.212	813.107	657.423
410.453	28.252	812.883	657.327
411.467	28.283	812.425	657.008
412.482	28.420	811.721	656.872
413.496	28.264	811.319	655.932
414.511	28.290	810.923	655.645
415.526	28.273	810.624	655.286
416.540	28.144	810.373	654.561
417.555	28.346	809.527	654.543
418.569	27.923	808.855	652.432
419.584	27.846	808.492	651.807
420.599	28.036	807.926	651.972
421.613	95.486	1264.301	1379.074
422.628	82.002	1330.818	1379.184
