DTS Sentinel unit serial number:	SN413079Multiplexer serial number:	ORYXHardware model number:	OX4-SRSoftware version number:	ORYX F/W v4.00 Oryx Data Collector v3.7.2.0data status	okinstallation	princeton_trtdifferential loss correction	single-endedforward channel	channel 3reverse channel	N/Adate	2019/09/13time	02:00:35forward acquisition time	60.00reverse acquisition time	0.00gamma	496.2192k internal	0.2334k external	0.2334temperature offset calibration	1.0126default loss term (dB/km)	0.3790temperature slope calibration	1.0000multiplexer offset coefficient	1.0000multiplexer slope coefficient	1.0000fibre end	0.00T internal ref (°C)	27.62T ext. ref 1 (°C)	3.85T ext. ref 2 (°C)	22.23length (m)	temperature (°C)	Stokes	anti-Stokes-747.200	555.718	-0.141	-0.342
-746.185	277.951	0.056	0.101
-745.171	-166.150	-0.407	-0.017
-744.156	800.000	0.065	0.220
-743.142	-128.129	0.239	-0.034
-742.127	-200.000	-0.008	0.054
-741.112	-200.000	-0.002	0.216
-740.098	-89.105	-0.307	0.091
-739.083	-99.917	0.173	0.043
-738.069	-200.000	0.005	0.396
-737.054	-124.048	-0.158	-0.025
-736.039	-200.000	-0.014	0.160
-735.025	-38.911	-0.220	-0.117
-734.010	-200.000	0.057	-0.378
-732.996	-50.774	-0.527	0.249
-731.981	-33.435	-0.227	0.126
-730.966	-67.881	0.071	0.028
-729.952	-200.000	0.022	-0.147
-728.937	-102.464	-0.111	-0.027
-727.923	-76.651	0.278	0.098
-726.908	148.120	0.158	-0.214
-725.894	-183.666	-0.312	-0.005
-724.879	730.480	0.049	0.132
-723.864	-130.967	-0.189	-0.025
-722.850	607.080	-0.078	-0.195
-721.835	45.255	-0.085	-0.079
-720.821	-73.771	0.164	0.060
-719.806	209.082	-0.208	-0.328
-718.791	-63.365	0.336	0.139
-717.777	-100.788	0.187	0.046
-716.762	100.391	0.196	-0.229
-715.748	-118.530	-0.242	-0.043
-714.733	800.000	0.083	0.272
-713.718	-200.000	-0.022	0.180
-712.704	-63.062	-0.393	0.163
-711.689	800.000	0.030	0.121
-710.675	351.881	-0.095	0.189
-709.660	-81.420	-0.089	-0.029
-708.645	71.981	-0.132	0.138
-707.631	-50.938	-0.238	0.112
-706.616	800.000	-0.035	-0.103
-705.602	219.355	-0.157	-0.252
-704.587	90.351	-0.095	0.106
-703.572	-200.000	-0.019	-0.155
-702.558	800.000	-0.081	-0.324
-701.543	800.000	0.088	-0.286
-700.529	22.263	-0.160	-0.131
-699.514	364.038	-0.203	-0.410
-698.499	481.824	-0.100	-0.229
-697.485	-60.861	0.305	-0.129
-696.470	-200.000	-0.057	-0.265
-695.456	-74.061	0.367	0.134
-694.441	-8.047	0.081	0.054
-693.426	694.660	-0.063	-0.165
-692.412	302.499	-0.153	-0.285
-691.397	-140.609	-0.442	0.046
-690.383	212.022	-0.142	-0.225
-689.368	174.806	-0.184	-0.267
-688.354	-38.211	-0.250	0.133
-687.339	39.070	0.151	-0.135
-686.324	-72.585	0.513	0.190
-685.310	-200.000	-0.040	-0.309
-684.295	30.901	-0.203	0.174
-683.281	-130.200	-0.133	0.018
-682.266	-124.596	-0.049	-0.008
-681.251	24.105	-0.029	-0.024
-680.237	-10.549	-0.352	0.233
-679.222	-62.613	0.153	0.063
-678.208	-34.386	0.076	-0.042
-677.193	-160.347	0.087	0.005
-676.178	-168.922	0.332	0.012
-675.164	-121.499	-0.374	0.062
-674.149	-73.876	-0.114	0.041
-673.135	-33.847	-0.185	0.102
-672.120	-172.930	-0.076	-0.002
-671.105	597.901	0.067	0.165
-670.091	-76.957	0.220	-0.077
-669.076	-81.881	-0.056	0.019
-668.062	-86.415	0.061	0.019
-667.047	-200.000	-0.047	-0.208
-666.032	-34.275	0.138	-0.076
-665.018	75.404	0.158	-0.167
-664.003	211.245	0.141	-0.222
-662.989	800.000	-0.028	-0.091
-661.974	-11.551	-0.295	0.194
-660.959	-128.296	-0.218	0.031
-659.945	-11.718	0.275	-0.181
-658.930	-200.000	-0.015	-0.294
-657.916	-166.765	-0.191	0.008
-656.901	66.971	0.201	0.205
-655.886	-200.000	0.056	0.311
-654.872	-110.591	-0.132	0.027
-653.857	151.235	-0.103	-0.141
-652.843	-114.860	-0.269	0.051
-651.828	51.088	-0.186	-0.177
-650.814	-200.000	0.021	0.198
-649.799	-90.010	0.322	0.094
-648.784	-93.354	0.250	-0.069
-647.770	-93.486	0.049	0.014
-646.755	-36.826	-0.165	0.089
-645.741	8.340	-0.284	-0.214
-644.726	420.467	0.055	-0.117
-643.711	4.451	-0.324	-0.238
-642.697	31.331	-0.305	0.262
-641.682	166.657	-0.100	0.141
-640.668	46.033	-0.317	0.293
-639.653	800.000	-0.082	-0.352
-638.638	121.755	-0.231	-0.288
-637.624	-43.092	0.075	0.038
-636.609	10.795	0.094	0.072
-635.595	-200.000	0.014	0.180
-634.580	-93.445	0.140	-0.039
-633.565	217.355	-0.100	0.160
-632.551	181.693	-0.215	0.316
-631.536	-114.317	-0.148	0.029
-630.522	33.722	-0.060	-0.052
-629.507	800.000	-0.032	-0.093
-628.492	-79.114	-0.084	-0.029
-627.478	-183.389	0.044	0.001
-626.463	37.056	-0.075	0.066
-625.449	-94.043	-0.192	0.053
-624.434	-145.807	-0.338	0.030
-623.419	-200.000	0.007	0.286
-622.405	-166.875	0.220	0.009
-621.390	-152.286	-0.278	0.020
-620.376	-192.520	0.131	-0.001
-619.361	-120.541	-0.185	0.031
-618.346	-200.000	0.002	0.035
-617.332	-200.000	0.031	-0.156
-616.317	726.759	-0.118	-0.315
-615.303	269.767	-0.180	-0.316
-614.288	630.254	0.069	-0.174
-613.273	641.613	0.151	0.384
-612.259	800.000	0.056	-0.180
-611.244	-140.625	-0.120	-0.012
-610.230	800.000	-0.130	-0.400
-609.215	-156.687	-0.147	0.009
-608.201	-123.474	-0.037	-0.006
-607.186	38.543	0.104	-0.093
-606.171	77.224	0.094	-0.100
-605.157	-200.000	0.018	-0.345
-604.142	-56.656	-0.155	-0.069
-603.128	1.738	0.037	-0.027
-602.113	-200.000	-0.017	0.219
-601.098	-38.961	-0.160	0.084
-600.084	57.442	0.171	0.167
-599.069	-110.346	0.099	0.021
-598.055	49.719	-0.225	0.212
-597.040	249.391	-0.098	-0.166
-596.025	382.633	0.183	0.377
-595.011	-147.580	-0.249	0.021
-593.996	800.000	0.093	-0.276
-592.982	163.421	0.104	-0.146
-591.967	12.981	0.125	-0.096
-590.952	-200.000	0.015	0.237
-589.938	-200.000	0.013	0.117
-588.923	162.055	-0.206	0.289
-587.909	-95.890	0.294	-0.078
-586.894	423.713	-0.073	-0.156
-585.879	208.138	-0.073	0.114
-584.865	800.000	0.017	0.052
-583.850	800.000	0.046	-0.165
-582.836	125.774	0.155	0.196
-581.821	233.723	-0.092	0.152
-580.806	129.239	-0.117	0.149
-579.792	29.874	0.022	0.019
-578.777	-161.038	-0.170	-0.009
-577.763	120.688	0.160	0.198
-576.748	95.256	0.028	-0.032
-575.733	-36.502	0.243	0.130
-574.719	120.967	0.070	-0.087
-573.704	295.339	0.297	0.543
-572.690	27.324	0.170	-0.142
-571.675	-200.000	0.016	0.095
-570.661	-114.535	0.315	0.060
-569.646	-20.763	0.338	0.207
-568.631	-38.133	0.407	-0.215
-567.617	800.000	-0.058	-0.211
-566.602	-20.069	-0.249	-0.153
-565.588	-21.314	0.251	-0.153
-564.573	46.543	0.087	-0.080
-563.558	103.122	-0.131	0.153
-562.544	-139.718	0.178	0.019
-561.529	-7.809	0.067	0.045
-560.515	-200.000	-0.030	-0.292
-559.500	-180.983	0.147	0.003
-558.485	-22.092	-0.226	-0.137
-557.471	-150.581	0.120	0.009
-556.456	-200.000	0.018	-0.092
-555.442	-91.822	0.342	-0.097
-554.427	-200.000	0.026	-0.114
-553.412	800.000	0.059	-0.181
-552.398	-200.000	0.045	-0.277
-551.383	21.273	0.118	0.096
-550.369	-200.000	0.062	-0.435
-549.354	-200.000	-0.023	-0.298
-548.339	24.986	0.114	0.094
-547.325	-170.086	-0.284	0.010
-546.310	-112.755	-0.324	0.064
-545.296	36.652	0.293	0.258
-544.281	800.000	0.044	-0.194
-543.266	800.000	0.063	-0.229
-542.252	-200.000	-0.016	0.282
-541.237	760.667	0.092	0.249
-540.223	-111.159	-0.129	-0.026
-539.208	-200.000	0.011	-0.054
-538.193	-200.000	0.033	-0.193
-537.179	683.268	-0.120	0.312
-536.164	-200.000	0.024	0.217
-535.150	107.387	0.227	0.269
-534.135	602.840	0.118	0.292
-533.121	24.569	-0.148	0.122
-532.106	-119.084	0.035	-0.006
-531.091	-60.798	0.247	0.104
-530.077	-52.768	0.078	-0.036
-529.062	-160.592	0.213	-0.011
-528.048	800.000	0.028	0.085
-527.033	-200.000	0.002	0.013
-526.018	-200.000	0.013	0.113
-525.004	99.906	-0.258	-0.298
-523.989	-200.000	-0.005	-0.181
-522.975	-99.664	0.086	0.021
-521.960	-102.111	-0.107	0.026
-520.945	218.710	-0.205	0.327
-519.931	-10.906	0.185	0.122
-518.916	36.307	-0.256	-0.225
-517.902	654.721	0.056	0.144
-516.887	136.483	0.097	0.126
-515.872	-200.000	-0.020	-0.221
-514.858	-93.181	-0.220	-0.061
-513.843	800.000	-0.069	0.195
-512.829	-200.000	-0.001	-0.231
-511.814	363.934	-0.020	0.040
-510.799	-200.000	-0.005	-0.038
-509.785	10.802	-0.208	-0.158
-508.770	-0.394	0.182	-0.129
-507.756	239.126	0.126	0.208
-506.741	107.031	-0.087	0.103
-505.726	538.778	0.085	0.202
-504.712	422.405	-0.071	0.151
-503.697	163.430	-0.105	0.147
-502.683	-55.732	0.146	-0.065
-501.668	207.452	0.138	-0.215
-500.653	-38.134	-0.265	0.140
-499.639	64.720	0.205	-0.206
-498.624	-37.855	-0.118	-0.063
-497.610	-200.000	0.013	-0.096
-496.595	410.127	-0.047	-0.100
-495.581	505.166	-0.126	-0.290
-494.566	-43.117	0.124	0.063
-493.551	115.805	-0.089	0.108
-492.537	35.503	-0.295	-0.258
-491.522	332.306	0.119	-0.229
-490.508	-200.000	-0.001	-0.234
-489.493	-75.033	0.278	0.099
-488.478	-100.843	-0.158	0.039
-487.464	80.247	-0.114	0.122
-486.449	27.295	-0.169	-0.142
-485.435	-200.000	0.023	-0.109
-484.420	-200.000	0.002	-0.239
-483.405	149.579	-0.061	-0.083
-482.391	-200.000	-0.012	0.072
-481.376	698.111	0.120	-0.315
-480.362	-80.743	-0.253	0.084
-479.347	16.846	0.169	0.133
-478.332	76.136	0.151	0.158
-477.318	-58.777	-0.054	-0.023
-476.303	-200.000	-0.008	-0.155
-475.289	-61.505	-0.152	-0.063
-474.274	98.810	0.127	-0.146
-473.259	75.455	-0.181	0.190
-472.245	800.000	0.086	0.292
-471.230	-109.669	0.126	0.026
-470.216	-200.000	0.008	-0.163
-469.201	768.280	0.029	-0.080
-468.186	800.000	-0.060	-0.205
-467.172	-0.653	-0.110	-0.078
-466.157	-200.000	-0.032	-0.184
-465.143	85.199	0.290	0.316
-464.128	-151.096	-0.414	-0.031
-463.113	153.489	0.145	-0.197
-462.099	-146.774	-0.183	0.016
-461.084	41.565	0.413	-0.371
-460.070	-103.831	0.095	0.022
-459.055	-200.000	0.056	0.259
-458.040	455.677	-0.040	0.088
-457.026	60.399	-0.206	0.202
-456.011	-103.115	-0.307	0.072
-454.997	-95.824	0.016	0.004
-453.982	800.000	0.078	0.300
-452.968	177.214	0.101	0.146
-451.953	-200.000	0.018	0.317
-450.938	125.939	-0.190	0.239
-449.924	-200.000	0.066	-0.373
-448.909	-94.093	-0.078	-0.021
-447.895	-200.000	0.027	0.144
-446.880	-139.333	0.187	-0.020
-445.865	-200.000	0.023	0.244
-444.851	2.300	-0.250	0.179
-443.836	-20.999	-0.139	0.085
-442.822	-63.908	0.172	-0.070
-441.807	-148.331	-0.115	-0.009
-440.792	-51.653	-0.160	-0.074
-439.778	134.470	-0.211	-0.271
-438.763	800.000	-0.028	-0.101
-437.749	97.833	-0.088	-0.101
-436.734	54.789	-0.102	0.098
-435.719	-97.364	-0.107	0.028
-434.705	-162.360	0.142	0.007
-433.690	-129.488	0.212	-0.029
-432.676	-74.488	-0.149	0.053
-431.661	-162.123	-0.251	-0.012
-430.646	-32.451	-0.116	-0.064
-429.632	-200.000	-0.028	0.302
-428.617	-133.019	-0.152	0.019
-427.603	2.805	-0.108	-0.078
-426.588	-200.000	-0.006	-0.028
-425.573	-56.339	0.416	-0.183
-424.559	228.054	0.057	-0.093
-423.544	8.253	0.101	0.076
-422.530	27.173	0.261	-0.217
-421.515	95.829	-0.169	0.191
-420.500	-87.432	0.239	0.072
-419.486	664.041	-0.149	0.382
-418.471	800.000	0.062	-0.175
-417.457	118.298	0.104	0.128
-416.442	193.510	0.077	0.116
-415.428	800.000	0.025	0.075
-414.413	48.871	-0.166	-0.154
-413.398	774.892	0.160	-0.432
-412.384	30.752	0.214	0.182
-411.369	327.978	-0.137	-0.262
-410.355	-200.000	-0.020	-0.128
-409.340	-92.407	-0.189	-0.053
-408.325	800.000	0.034	0.108
-407.311	68.559	0.266	-0.271
-406.296	557.474	-0.074	-0.176
-405.282	-51.920	-0.111	-0.051
-404.267	2.734	0.186	-0.134
-403.252	113.115	-0.113	-0.135
-402.238	315.134	-0.119	-0.223
-401.223	-200.000	-0.005	-0.143
-400.209	-150.481	0.165	-0.013
-399.194	-9.235	0.270	0.179
-398.179	-136.258	-0.234	-0.027
-397.165	-200.000	-0.017	-0.294
-396.150	-8.537	-0.163	0.109
-395.136	-105.694	0.240	-0.054
-394.121	800.000	-0.040	-0.116
-393.106	720.932	0.096	-0.254
-392.092	-200.000	0.026	0.301
-391.077	103.571	0.127	-0.148
-390.063	57.323	-0.188	-0.182
-389.048	160.116	0.029	0.039
-388.033	52.713	-0.040	-0.038
-387.019	-200.000	0.083	0.452
-386.004	-93.152	-0.251	0.069
-384.990	800.000	-0.027	-0.108
-383.975	7.269	-0.181	-0.134
-382.960	-200.000	0.027	-0.162
-381.946	-88.854	-0.299	0.088
-380.931	-142.989	-0.369	0.035
-379.917	112.953	0.144	0.172
-378.902	529.888	0.146	-0.341
-377.888	5.405	-0.143	-0.105
-376.873	75.969	-0.147	0.154
-375.858	162.784	-0.164	-0.228
-374.844	291.894	0.020	0.037
-373.829	-74.242	0.226	0.081
-372.815	61.296	0.034	0.033
-371.800	404.956	-0.046	0.097
-370.785	-200.000	0.032	-0.357
-369.771	-200.000	-0.004	0.339
-368.756	564.357	0.171	0.409
-367.742	-91.538	-0.177	-0.050
-366.727	126.984	-0.385	0.483
-365.712	-39.071	0.147	0.077
-364.698	-88.083	-0.100	0.030
-363.683	11.380	0.350	0.266
-362.669	800.000	-0.042	-0.123
-361.654	-47.641	0.276	0.133
-360.639	-150.322	-0.179	-0.014
-359.625	-125.022	0.391	0.060
-358.610	-5.297	0.065	-0.044
-357.596	28.860	-0.393	0.329
-356.581	102.548	-0.094	0.109
-355.566	-161.011	-0.103	0.005
-354.552	30.930	0.075	-0.064
-353.537	-200.000	-0.032	-0.248
-352.523	-200.000	0.027	0.245
-351.508	358.550	-0.023	0.046
-350.493	243.402	0.109	-0.181
-349.479	137.335	0.088	-0.113
-348.464	-59.198	0.267	0.114
-347.450	-131.099	-0.154	-0.020
-346.435	-88.430	0.245	-0.072
-345.420	-43.087	0.259	0.130
-344.406	800.000	-0.048	-0.156
-343.391	-2.098	0.079	-0.055
-342.377	-54.858	-0.230	-0.103
-341.362	-200.000	-0.043	-0.262
-340.348	-69.028	0.189	0.072
-339.333	-200.000	0.026	0.290
-338.318	-104.584	0.240	-0.055
-337.304	313.997	0.049	-0.090
-336.289	-200.000	0.010	-0.063
-335.275	92.982	-0.175	0.195
-334.260	87.495	-0.043	-0.047
-333.245	-117.340	-0.310	-0.056
-332.231	31.629	-0.096	0.082
-331.216	-178.089	0.094	-0.002
-330.202	-93.553	-0.339	0.093
-329.187	18.397	-0.269	0.212
-328.172	-75.936	-0.131	-0.046
-327.158	-200.000	0.065	0.290
-326.143	-16.141	-0.267	0.168
-325.129	-119.875	0.237	-0.040
-324.114	-200.000	-0.024	0.184
-323.099	226.504	-0.084	-0.135
-322.085	64.499	0.142	0.141
-321.070	288.861	0.076	-0.137
-320.056	-156.206	-0.171	0.011
-319.041	127.685	-0.132	-0.165
-318.026	-200.000	0.012	-0.093
-317.012	131.606	0.093	0.118
-315.997	30.658	0.145	-0.123
-314.983	31.472	0.344	-0.292
-313.968	-200.000	-0.038	-0.228
-312.953	118.260	0.069	0.084
-311.939	-164.399	-0.408	-0.018
-310.924	-200.000	0.010	-0.267
-309.910	353.357	0.158	-0.309
-308.895	-200.000	-0.052	0.236
-307.880	-72.392	0.052	0.019
-306.866	-200.000	0.032	-0.264
-305.851	-116.066	-0.293	0.054
-304.837	-200.000	-0.020	0.343
-303.822	152.234	-0.118	0.159
-302.807	-68.037	-0.213	-0.082
-301.793	-14.645	-0.220	-0.139
-300.778	109.525	0.083	0.098
-299.764	-105.723	-0.198	0.044
-298.749	800.000	-0.085	0.270
-297.735	95.213	-0.080	-0.090
-296.720	-75.677	-0.302	0.106
-295.705	-127.067	-0.156	-0.023
-294.691	800.000	0.040	0.154
-293.676	-33.607	0.058	0.032
-292.662	144.929	0.139	0.183
-291.647	-125.777	-0.201	0.030
-290.632	645.566	0.015	-0.039
-289.618	45.226	-0.035	-0.032
-288.603	-114.196	0.175	-0.033
-287.589	567.927	-0.106	0.255
-286.574	800.000	0.015	0.049
-285.559	27.242	0.219	-0.182
-284.545	4.976	-0.192	-0.139
-283.530	49.326	0.245	0.228
-282.516	-58.405	-0.276	-0.118
-281.501	-133.540	0.097	0.012
-280.486	93.528	0.259	0.290
-279.472	458.584	-0.098	0.215
-278.457	25.871	-0.020	-0.017
-277.443	-79.953	-0.182	-0.060
-276.428	184.905	-0.067	-0.098
-275.413	238.595	-0.097	-0.159
-274.399	76.984	-0.044	0.046
-273.384	215.313	0.252	0.394
-272.370	-56.874	0.054	-0.023
-271.355	-73.285	0.392	0.141
-270.340	46.962	-0.231	0.212
-269.326	-88.100	0.141	0.042
-268.311	-174.613	0.218	0.006
-267.297	-109.954	0.250	0.052
-266.282	-200.000	-0.049	0.401
-265.267	-89.756	0.075	0.022
-264.253	160.350	-0.185	0.254
-263.238	800.000	0.085	-0.272
-262.224	-133.299	-0.295	0.037
-261.209	800.000	0.056	-0.164
-260.195	-90.116	-0.441	0.127
-259.180	800.000	-0.101	0.358
-258.165	220.463	0.151	0.239
-257.151	94.162	0.037	-0.042
-256.136	-200.000	-0.013	0.246
-255.122	-200.000	-0.021	-0.240
-254.107	-5.275	0.102	0.069
-253.092	-93.063	0.104	0.028
-252.078	-24.144	0.141	-0.083
-251.063	-124.727	0.341	-0.052
-250.049	356.595	-0.162	-0.318
-249.034	800.000	0.015	0.061
-248.019	-16.865	-0.084	-0.053
-247.005	-88.890	0.311	0.091
-245.990	-176.133	0.171	-0.004
-244.976	164.447	-0.076	0.105
-243.961	-58.424	0.228	0.098
-242.946	-60.541	-0.247	0.104
-241.932	-4.396	0.119	0.081
-240.917	357.156	0.051	0.100
-239.903	-15.546	0.089	-0.056
-238.888	-145.073	-0.125	0.011
-237.873	-200.000	-0.009	-0.069
-236.859	-8.549	-0.148	-0.098
-235.844	111.322	0.198	-0.235
-234.830	141.430	0.136	-0.177
-233.815	142.141	0.152	-0.199
-232.800	-173.423	-0.066	-0.002
-231.786	46.873	-0.272	0.249
-230.771	-72.023	0.411	-0.151
-229.757	66.674	0.155	0.156
-228.742	229.333	-0.116	-0.186
-227.727	-130.261	0.201	0.027
-226.713	-89.333	0.074	-0.022
-225.698	-6.220	0.227	-0.152
-224.684	-128.091	-0.499	0.070
-223.669	-41.963	0.144	-0.073
-222.655	-63.710	0.330	-0.133
-221.640	-200.000	0.006	0.101
-220.625	-200.000	0.029	0.330
-219.611	-141.943	-0.229	-0.023
-218.596	-39.559	0.167	-0.086
-217.582	668.092	0.137	-0.349
-216.567	11.436	-0.137	-0.103
-215.552	-88.243	0.223	0.066
-214.538	-200.000	0.033	0.315
-213.523	-69.976	-0.376	0.141
-212.509	-70.429	0.366	-0.136
-211.494	242.206	0.078	0.129
-210.479	-160.063	0.229	0.012
-209.465	-162.944	0.130	-0.006
-208.450	-101.757	-0.323	-0.077
-207.436	-174.402	-0.135	-0.004
-206.421	135.490	0.069	0.088
-205.406	-127.616	0.331	-0.047
-204.392	253.056	-0.253	0.425
-203.377	107.142	-0.130	0.152
-202.363	457.465	-0.043	-0.094
-201.348	-200.000	-0.003	-0.342
-200.333	-200.000	0.088	-0.386
-199.319	320.370	-0.064	-0.120
-198.304	342.934	-0.103	0.199
-197.290	-200.000	0.010	0.125
-196.275	-200.000	0.007	-0.161
-195.260	-200.000	0.076	0.398
-194.246	-39.704	0.331	0.170
-193.231	525.249	-0.098	0.227
-192.217	211.235	-0.017	-0.026
-191.202	-74.079	-0.132	-0.047
-190.187	800.000	-0.098	-0.364
-189.173	800.000	0.048	-0.197
-188.158	274.489	0.046	-0.080
-187.144	-60.752	-0.176	0.073
-186.129	-82.753	-0.374	-0.119
-185.114	800.000	0.052	0.177
-184.100	11.161	0.238	-0.179
-183.085	800.000	-0.048	-0.180
-182.071	-138.853	-0.283	-0.030
-181.056	51.417	-0.231	-0.216
-180.042	10.283	0.206	-0.154
-179.027	-128.877	-0.300	-0.042
-178.012	142.268	0.039	-0.051
-176.998	-92.392	0.144	-0.040
-175.983	-145.323	0.311	0.028
-174.969	24.432	0.339	-0.275
-173.954	-23.602	-0.093	0.055
-172.939	800.000	0.050	-0.167
-171.925	-181.362	-0.178	-0.003
-170.910	-40.513	-0.254	-0.130
-169.896	-200.000	-0.013	-0.155
-168.881	-53.064	0.072	0.032
-167.866	-75.020	0.204	0.072
-166.852	159.145	0.021	-0.029
-165.837	415.538	0.246	0.514
-164.823	800.000	0.064	0.183
-163.808	800.000	-0.069	-0.248
-162.793	45.388	0.092	-0.084
-161.779	-20.969	0.089	0.053
-160.764	-54.350	0.136	0.061
-159.750	98.943	-0.228	-0.259
-158.735	106.349	0.110	-0.128
-157.720	134.062	0.157	-0.200
-156.706	-98.228	0.202	-0.051
-155.691	0.448	-0.025	-0.017
-154.677	-200.000	-0.023	0.141
-153.662	54.982	-0.097	0.092
-152.647	65.888	0.213	-0.212
-151.633	-200.000	-0.042	0.208
-150.618	-200.000	0.071	0.336
-149.604	-52.940	-0.210	0.095
-148.589	-43.310	0.076	-0.038
-147.574	800.000	0.112	-0.366
-146.560	131.276	-0.177	0.223
-145.545	-1.181	-0.163	-0.113
-144.531	-104.837	-0.166	-0.038
-143.516	-6.570	0.147	-0.098
-142.502	-200.000	0.024	0.138
-141.487	237.999	-0.182	-0.297
-140.472	153.196	0.145	-0.195
-139.458	-17.991	-0.077	0.048
-138.443	-7.440	0.122	0.081
-137.429	-200.000	0.053	0.392
-136.414	-58.349	-0.145	0.062
-135.399	-200.000	0.042	-0.384
-134.385	23.125	-0.116	-0.093
-133.370	75.163	-0.018	0.019
-132.356	-25.489	0.386	0.224
-131.341	800.000	-0.044	0.151
-130.326	-200.000	-0.013	-0.061
-129.312	-27.353	0.206	0.118
-128.297	121.615	-0.113	-0.138
-127.283	105.460	-0.091	-0.106
-126.268	166.304	-0.118	-0.165
-125.253	4.327	0.330	-0.237
-124.239	159.954	-0.187	0.255
-123.224	594.894	0.095	-0.232
-122.210	-200.000	-0.031	-0.546
-121.195	563.169	0.075	-0.177
-120.180	-200.000	-0.043	0.398
-119.166	-80.007	0.317	-0.104
-118.151	198.963	0.116	0.174
-117.137	-165.589	-0.104	0.004
-116.122	-137.168	-0.146	0.016
-115.107	-4.241	-0.161	0.109
-114.093	-91.006	0.348	-0.098
-113.078	350.054	-0.070	0.135
-112.064	-153.878	0.217	0.015
-111.049	-200.000	-0.009	-0.099
-110.034	-100.219	-0.116	-0.028
-109.020	-186.442	-0.298	-0.004
-108.005	800.000	0.097	-0.317
-106.991	422.616	0.013	-0.028
-105.976	-200.000	0.034	0.225
-104.962	7.063	0.354	-0.259
-103.947	-41.728	0.108	-0.054
-102.932	68.371	0.083	0.083
-101.918	800.000	-0.043	0.137
-100.903	169.492	0.131	-0.184
-99.889	27.767	0.395	-0.326
-98.874	-200.000	-0.026	-0.164
-97.859	196.266	0.044	0.065
-96.845	-72.597	0.004	-0.001
-95.830	-132.032	0.142	-0.018
-94.816	-99.733	0.162	-0.040
-93.801	800.000	0.115	-0.367
-92.786	115.603	-0.154	-0.184
-91.772	-69.061	-0.162	-0.061
-90.757	4.245	0.051	0.037
-89.743	-12.757	0.399	-0.255
-88.728	98.248	-0.133	0.150
-87.713	-122.782	-0.315	0.050
-86.699	262.005	-0.094	-0.160
-85.684	-200.000	-0.010	0.102
-84.670	219.959	-0.218	0.342
-83.655	-48.588	-0.329	-0.155
-82.640	-200.000	0.083	-0.000
-81.626	-67.760	-0.112	0.043
-80.611	-79.405	0.337	0.112
-79.597	-200.000	-0.021	0.324
-78.582	-200.000	-0.008	0.122
-77.567	71.162	0.232	-0.235
-76.553	-64.352	-0.465	0.185
-75.538	-74.690	0.255	-0.090
-74.524	-183.414	-0.539	0.009
-73.509	-155.342	-0.311	0.020
-72.494	268.508	-0.133	0.228
-71.480	175.733	0.202	0.287
-70.465	-18.654	0.103	-0.063
-69.451	-65.330	-0.202	0.080
-68.436	-200.000	-0.026	0.253
-67.422	34.292	-0.244	0.209
-66.407	182.506	0.255	0.368
-65.392	-124.439	0.403	0.061
-64.378	-109.572	-0.214	-0.044
-63.363	575.423	-0.116	0.277
-62.349	-200.000	-0.051	0.384
-61.334	31.608	-1.229	-1.034
-60.319	80.481	0.550	0.580
-59.305	187.640	-0.624	-0.911
-58.290	290.085	0.584	1.037
-57.276	800.000	0.609	1.902
-56.261	-200.000	114.132	650.480
-55.246	539.140	1521.838	3541.129
-54.232	179.493	2684.606	3844.480
-53.217	108.630	2168.870	2533.980
-52.203	38.087	1697.881	1477.471
-51.188	30.699	1517.112	1269.921
-50.173	28.425	1493.207	1234.566
-49.159	52.094	1551.661	1446.028
-48.144	50.943	1566.937	1452.313
-47.130	30.981	1523.350	1276.874
-46.115	27.989	1507.804	1243.467
-45.100	27.658	1505.015	1238.871
-44.086	27.761	1502.635	1237.562
-43.071	27.669	1500.855	1235.424
-42.057	27.622	1499.362	1233.828
-41.042	27.605	1497.728	1232.316
-40.027	27.664	1496.607	1231.745
-39.013	27.645	1494.601	1229.917
-37.998	27.549	1493.467	1228.286
-36.984	27.676	1492.327	1228.160
-35.969	27.551	1491.325	1226.443
-34.954	27.564	1490.290	1225.634
-33.940	27.605	1488.387	1224.290
-32.925	27.687	1487.079	1223.715
-31.911	27.594	1485.725	1221.935
-30.896	27.684	1484.320	1221.328
-29.881	27.660	1483.307	1220.291
-28.867	27.680	1481.539	1218.922
-27.852	27.670	1480.832	1218.225
-26.838	27.597	1479.539	1216.621
-25.823	27.698	1477.531	1215.596
-24.809	27.695	1476.161	1214.403
-23.794	27.668	1474.853	1213.096
-22.779	27.581	1474.450	1212.139
-21.765	27.628	1473.405	1211.543
-20.750	27.707	1471.584	1210.526
-19.736	27.648	1470.435	1209.141
-18.721	27.608	1469.480	1208.038
-17.706	27.676	1468.267	1207.448
-16.692	27.627	1467.124	1206.137
-15.677	27.706	1466.255	1205.892
-14.663	27.647	1465.448	1204.790
-13.648	27.574	1464.550	1203.527
-12.633	27.687	1463.366	1203.246
-11.619	27.595	1463.453	1202.662
-10.604	27.589	1462.241	1201.579
-9.590	27.650	1460.823	1200.768
-8.575	27.616	1460.239	1200.021
-7.560	27.637	1458.889	1199.001
-6.546	27.574	1458.617	1198.317
-5.531	27.516	1457.946	1197.333
-4.517	27.605	1456.731	1196.873
-3.502	27.649	1455.415	1196.035
-2.487	27.602	1454.903	1195.256
-1.473	27.556	1453.841	1194.035
-0.458	27.627	1452.073	1193.002
0.556	29.225	1442.376	1182.324
1.571	26.098	1417.358	1141.964
2.586	22.546	1359.981	1074.030
3.600	21.012	1278.268	1000.613
4.615	19.659	1231.999	956.824
5.629	17.235	1176.124	900.516
6.644	10.257	1093.705	802.837
7.659	4.965	1055.964	749.669
8.673	4.129	1050.945	742.035
9.688	3.895	1047.563	738.463
10.702	3.671	1046.155	736.338
11.717	3.717	1043.549	734.657
12.731	6.443	1045.771	749.137
13.746	13.864	1056.357	792.183
14.761	20.597	1065.090	830.947
15.775	22.719	1067.173	842.645
16.790	22.319	1065.594	839.416
17.804	21.395	1064.074	833.740
18.819	20.691	1062.536	829.109
19.834	20.466	1061.092	826.838
20.848	20.484	1060.239	826.185
21.863	20.286	1060.369	825.269
22.877	20.343	1059.372	824.691
23.892	20.082	1058.640	822.810
24.907	20.020	1057.282	821.388
25.921	19.891	1057.114	820.576
26.936	19.926	1056.126	819.898
27.950	19.880	1055.002	818.735
28.965	19.935	1053.757	817.957
29.980	19.959	1052.626	817.121
30.994	20.194	1051.830	817.540
32.009	20.222	1050.995	816.949
33.023	20.317	1050.349	816.821
34.038	20.187	1049.713	815.643
35.053	20.150	1048.875	814.749
36.067	20.059	1047.739	813.367
37.082	19.909	1046.669	811.760
38.096	19.939	1045.977	811.290
39.111	20.025	1045.462	811.221
40.126	20.206	1044.473	811.231
41.140	20.158	1043.068	809.844
42.155	19.825	1041.969	807.365
43.169	19.625	1040.781	805.440
44.184	19.517	1039.675	804.010
45.199	19.377	1038.807	802.616
46.213	19.489	1037.439	802.007
47.228	19.554	1036.943	801.857
48.242	19.912	1036.387	803.015
49.257	20.070	1035.548	803.026
50.271	19.992	1034.705	801.939
51.286	20.070	1033.901	801.610
52.301	20.242	1033.507	802.027
53.315	20.082	1032.938	800.777
54.330	19.984	1031.542	799.168
55.344	19.730	1031.078	797.568
56.359	19.689	1029.657	796.207
57.374	19.745	1028.559	795.549
58.388	19.618	1028.303	794.697
59.403	19.543	1027.371	793.558
60.417	19.328	1026.426	791.770
61.432	19.398	1026.022	791.713
62.447	19.476	1024.964	791.184
63.461	19.215	1024.519	789.572
64.476	19.121	1023.658	788.409
65.490	19.263	1022.237	787.895
66.505	19.218	1021.514	787.060
67.520	19.368	1020.375	786.798
68.534	19.354	1020.150	786.491
69.549	19.192	1019.562	785.232
70.563	19.208	1018.525	784.436
71.578	19.181	1017.512	783.461
72.593	18.992	1016.343	781.634
73.607	18.854	1015.668	780.422
74.622	18.777	1015.033	779.512
75.636	18.901	1014.105	779.293
76.651	19.012	1013.188	779.022
77.666	19.036	1012.503	778.537
78.680	19.101	1011.503	777.992
79.695	19.182	1011.548	778.326
80.709	19.098	1010.673	777.204
81.724	19.336	1009.874	777.593
82.739	19.452	1009.790	777.981
83.753	19.555	1008.692	777.532
84.768	19.739	1008.753	778.338
85.782	20.196	1007.901	779.669
86.797	20.565	1007.460	780.917
87.812	20.494	1006.717	779.950
88.826	20.207	1005.634	777.755
89.841	20.199	1004.569	776.826
90.855	20.216	1004.092	776.467
91.870	20.366	1003.790	776.835
92.884	20.529	1002.710	776.659
93.899	20.408	1001.930	775.446
94.914	20.285	1000.983	774.095
95.928	20.315	1000.845	774.055
96.943	20.432	999.530	773.489
97.957	20.305	998.775	772.271
98.972	20.076	997.881	770.495
99.987	20.218	996.762	770.192
101.001	20.209	996.136	769.603
102.016	20.242	995.475	769.168
103.030	20.183	994.537	768.116
104.045	20.162	993.560	767.199
105.060	20.270	992.691	766.938
106.074	20.108	991.614	765.323
107.089	19.851	990.211	763.038
108.103	19.538	989.513	761.053
109.118	19.465	988.002	759.504
110.133	19.385	987.169	758.445
111.147	19.114	986.683	756.811
112.162	19.174	985.727	756.274
113.176	19.244	984.638	755.679
114.191	19.476	983.850	756.023
115.206	19.549	983.066	755.675
116.220	19.568	982.479	755.240
117.235	19.374	981.766	753.775
118.249	19.440	980.659	753.147
119.264	19.243	980.214	751.880
120.279	19.154	979.287	750.716
121.293	19.121	978.070	749.572
122.308	19.046	977.645	748.854
123.322	19.024	976.595	747.889
124.337	18.930	975.081	746.255
125.352	18.801	974.350	745.068
126.366	18.732	973.611	744.139
127.381	18.753	972.456	743.279
128.395	18.898	971.127	742.827
129.410	18.984	970.347	742.533
130.424	19.126	969.454	742.400
131.439	19.052	969.062	741.712
132.454	19.341	968.135	742.185
133.468	19.380	967.655	741.918
134.483	19.525	966.717	741.756
135.497	19.469	966.057	740.942
136.512	19.406	965.666	740.306
137.527	19.411	964.833	739.626
138.541	19.392	964.363	739.119
139.556	19.498	963.278	738.672
140.570	19.441	962.758	737.968
141.585	19.628	961.757	737.933
142.600	19.950	961.304	738.892
143.614	19.993	961.005	738.783
144.629	20.087	960.571	738.786
145.643	20.322	959.832	739.154
146.658	20.270	958.597	737.913
147.673	20.000	957.376	735.762
148.687	19.919	955.954	734.262
149.702	19.775	955.201	733.005
150.716	19.396	954.334	730.669
151.731	19.427	953.379	730.006
152.746	19.600	952.736	730.181
153.760	19.629	952.225	729.847
154.775	19.651	951.474	729.298
155.789	19.785	950.981	729.423
156.804	19.882	949.865	728.910
157.819	19.835	948.850	727.872
158.833	19.922	948.303	727.752
159.848	20.042	948.074	728.014
160.862	20.150	947.766	728.167
161.877	20.348	946.669	728.092
162.892	19.769	945.468	724.678
163.906	19.495	944.237	722.523
164.921	19.352	943.300	721.144
165.935	19.444	942.333	720.724
166.950	19.452	941.521	720.073
167.964	19.653	940.543	720.102
168.979	19.683	939.773	719.573
169.994	19.607	938.618	718.309
171.008	19.485	937.547	716.918
172.023	19.686	936.917	717.206
173.037	19.820	936.388	717.295
174.052	20.047	936.078	717.932
175.067	19.937	935.563	717.018
176.081	19.772	933.849	714.962
177.096	19.493	932.487	712.704
178.110	19.239	932.069	711.272
179.125	19.342	931.544	711.232
180.140	19.613	930.233	711.288
181.154	19.611	929.846	710.919
182.169	19.739	929.924	711.441
183.183	19.868	929.287	711.423
184.198	20.014	928.463	711.329
185.213	19.956	927.912	710.607
186.227	19.970	927.415	710.221
187.242	19.840	927.323	709.552
188.256	20.148	926.359	710.013
189.271	20.332	925.506	710.051
190.286	20.314	925.242	709.712
191.300	20.225	923.623	708.044
192.315	19.445	922.969	704.296
193.329	19.111	921.972	702.110
194.344	19.360	921.175	702.456
195.359	19.511	920.806	702.728
196.373	19.722	920.269	703.115
197.388	19.855	919.643	703.115
198.402	19.898	919.946	703.457
199.417	20.210	919.818	704.565
200.432	20.376	919.364	704.832
201.446	20.504	919.125	705.104
202.461	20.665	918.519	705.229
203.475	20.797	918.081	705.365
204.490	20.733	917.119	704.307
205.504	20.339	916.184	701.932
206.519	20.127	915.387	700.403
207.534	20.143	914.347	699.607
208.548	20.139	913.664	699.008
209.563	20.040	913.340	698.301
210.577	20.088	912.428	697.735
211.592	20.140	912.179	697.690
212.607	20.339	911.420	697.849
213.621	20.522	911.222	698.372
214.636	20.582	910.299	697.843
215.650	20.310	909.649	696.193
216.665	20.412	909.061	696.088
217.680	20.602	908.271	696.184
218.694	20.632	908.509	696.423
219.709	20.779	907.947	696.519
220.723	20.556	907.169	694.968
221.738	20.469	906.712	694.210
222.753	20.392	905.545	692.950
223.767	20.472	904.748	692.596
224.782	20.460	903.888	691.829
225.796	20.649	903.756	692.420
226.811	20.853	902.886	692.502
227.826	20.643	902.261	691.125
228.840	20.467	901.586	689.849
229.855	20.428	900.758	689.002
230.869	20.263	900.191	687.851
231.884	20.338	899.597	687.635
232.899	20.232	898.414	686.252
233.913	20.089	897.774	685.137
234.928	19.975	897.147	684.147
235.942	19.996	896.159	683.415
236.957	19.956	895.215	682.479
237.972	19.908	895.173	682.197
238.986	19.966	894.309	681.705
240.001	19.905	893.929	681.114
241.015	19.969	893.189	680.742
242.030	20.040	892.342	680.314
243.045	20.178	892.000	680.536
244.059	20.216	891.767	680.448
245.074	20.338	890.613	679.983
246.088	20.340	890.633	679.946
247.103	20.420	890.278	679.929
248.117	20.713	889.375	680.323
249.132	20.733	889.290	680.277
250.147	21.092	889.178	681.536
251.161	21.490	888.473	682.485
252.176	21.510	887.738	681.939
253.190	21.501	887.434	681.612
254.205	21.606	887.110	681.709
255.220	21.785	886.095	681.568
256.234	21.690	885.453	680.644
257.249	21.590	884.332	679.332
258.263	21.473	884.476	678.928
259.278	21.445	883.825	678.262
260.293	21.454	883.382	677.897
261.307	21.528	882.619	677.536
262.322	21.672	882.087	677.625
263.336	21.731	881.274	677.169
264.351	21.754	881.307	677.222
265.366	21.695	880.798	676.546
266.380	21.565	879.993	675.364
267.395	21.635	879.223	674.986
268.409	21.480	878.735	673.952
269.424	21.530	877.452	673.100
270.439	21.537	876.323	672.205
271.453	21.373	875.827	671.134
272.468	21.208	875.480	670.176
273.482	21.169	874.828	669.467
274.497	21.247	873.921	669.011
275.512	21.230	873.434	668.514
276.526	21.355	872.323	668.083
277.541	21.027	872.425	666.847
278.555	21.208	871.677	666.909
279.570	21.409	871.499	667.483
280.585	21.771	871.041	668.452
281.599	21.697	870.345	667.577
282.614	21.564	869.704	666.519
283.628	21.345	868.736	664.886
284.643	21.380	868.036	664.424
285.657	21.377	867.660	664.068
286.672	21.309	866.917	663.180
287.687	21.211	866.732	662.608
288.701	21.433	866.162	662.955
289.716	21.261	865.523	661.755
290.730	21.344	864.709	661.389
291.745	21.471	864.097	661.343
292.760	21.475	863.471	660.822
293.774	21.498	863.274	660.698
294.789	21.637	862.816	660.814
295.803	21.730	862.653	660.982
296.818	21.373	861.742	658.878
297.833	21.411	860.930	658.344
298.847	21.365	859.641	657.129
299.862	21.418	859.302	657.008
300.876	21.559	858.804	657.098
301.891	21.608	858.405	656.919
302.906	21.760	858.037	657.151
303.920	21.762	857.766	656.893
304.935	21.949	857.249	657.136
305.949	22.141	856.740	657.406
306.964	22.183	855.571	656.610
307.979	21.915	854.668	654.860
308.993	21.836	854.124	654.090
310.008	21.880	853.778	653.931
311.022	21.990	853.598	654.144
312.037	21.939	852.588	653.123
313.052	21.697	852.030	651.738
314.066	21.533	851.343	650.545
315.081	21.339	850.345	649.005
316.095	21.358	849.909	648.685
317.110	21.237	849.324	647.733
318.125	21.269	849.084	647.612
319.139	21.433	848.164	647.458
320.154	21.321	847.630	646.580
321.168	21.295	846.966	645.919
322.183	21.271	846.829	645.668
323.197	21.459	846.457	646.021
324.212	21.534	845.745	645.700
325.227	21.399	845.685	645.098
326.241	21.574	844.668	644.909
327.256	21.470	843.728	643.752
328.270	21.436	843.432	643.344
329.285	21.404	843.240	643.024
330.300	21.354	842.598	642.293
331.314	21.361	841.774	641.633
332.329	21.407	841.467	641.510
333.343	21.579	841.023	641.749
334.358	21.723	840.496	641.816
335.373	21.733	840.110	641.502
336.387	21.591	839.732	640.636
337.402	21.904	839.065	641.216
338.416	21.984	838.274	640.845
339.431	22.197	837.921	641.297
340.446	22.428	837.365	641.656
341.460	22.517	837.339	641.904
342.475	22.437	836.841	641.174
343.489	22.481	836.515	641.029
344.504	22.608	835.856	640.926
345.519	22.730	835.035	640.685
346.533	22.707	834.784	640.352
347.548	22.654	834.231	639.677
348.562	22.438	833.729	638.453
349.577	22.175	832.769	636.709
350.592	21.898	831.887	634.975
351.606	21.878	831.418	634.491
352.621	21.766	830.684	633.470
353.635	21.819	830.394	633.381
354.650	22.106	829.615	633.770
355.665	21.988	829.670	633.328
356.679	22.061	829.155	633.141
357.694	22.193	828.739	633.245
358.708	22.165	828.550	632.941
359.723	22.144	827.856	632.280
360.738	22.057	827.026	631.279
361.752	22.034	826.614	630.824
362.767	22.220	826.068	631.021
363.781	22.260	826.236	631.236
364.796	22.662	825.768	632.266
365.810	22.720	825.327	632.078
366.825	22.825	825.230	632.324
367.840	22.981	824.632	632.368
368.854	22.917	824.394	631.902
369.869	22.620	823.531	630.121
370.883	22.535	822.762	629.174
371.898	22.646	822.092	629.004
372.913	22.685	821.830	628.886
373.927	22.767	821.747	629.058
374.942	22.711	820.657	627.969
375.956	22.681	819.769	627.129
376.971	22.737	819.487	627.055
377.986	22.821	819.034	626.952
379.000	23.069	818.460	627.337
380.015	23.086	818.147	627.102
381.029	23.018	817.496	626.308
382.044	23.049	817.183	626.120
383.059	23.063	816.487	625.581
384.073	22.967	816.023	624.831
385.088	22.987	815.295	624.288
386.102	22.772	814.530	622.891
387.117	22.369	813.847	620.893
388.132	22.533	812.880	620.675
389.146	22.394	812.965	620.198
390.161	22.482	812.699	620.249
391.175	22.733	812.553	620.967
392.190	23.027	811.910	621.453
393.205	22.780	811.728	620.390
394.219	22.638	810.783	619.114
395.234	22.399	810.272	617.831
396.248	22.368	809.589	617.149
397.263	22.227	809.026	616.170
398.278	22.241	808.581	615.825
399.292	22.075	808.082	614.810
400.307	22.176	807.346	614.548
401.321	21.994	807.145	613.706
402.336	22.291	806.583	614.260
403.350	22.303	806.767	614.387
404.365	22.544	806.064	614.639
405.380	22.711	805.792	614.960
406.394	22.950	805.827	615.765
407.409	23.085	805.459	615.900
408.423	23.166	804.836	615.650
409.438	23.312	804.180	615.601
410.453	23.369	804.193	615.755
411.467	23.473	803.872	615.814
412.482	23.262	803.421	614.682
413.496	23.506	802.508	614.776
414.511	23.564	802.116	614.622
415.526	23.686	801.700	614.671
416.540	23.473	801.297	613.571
417.555	23.375	801.048	612.989
418.569	23.242	800.529	612.076
419.584	23.255	800.125	611.759
420.599	23.269	799.546	611.309
421.613	164.374	1371.001	1798.417
422.628	142.807	1454.256	1798.525
