DTS Sentinel unit serial number:	SN413079Multiplexer serial number:	ORYXHardware model number:	OX4-SRSoftware version number:	ORYX F/W v4.00 Oryx Data Collector v3.7.2.0data status	okinstallation	princeton_trtdifferential loss correction	single-endedforward channel	channel 3reverse channel	N/Adate	2019/09/12time	07:22:11forward acquisition time	60.00reverse acquisition time	0.00gamma	496.2192k internal	0.2318k external	0.2318temperature offset calibration	1.0034default loss term (dB/km)	0.3790temperature slope calibration	1.0000multiplexer offset coefficient	1.0000multiplexer slope coefficient	1.0000fibre end	0.00T internal ref (°C)	32.31T ext. ref 1 (°C)	1.61T ext. ref 2 (°C)	28.75length (m)	temperature (°C)	Stokes	anti-Stokes-747.200	25.153	-0.127	0.107
-746.185	-80.259	0.214	-0.072
-745.171	800.000	-0.047	0.197
-744.156	-200.000	0.049	0.364
-743.142	-200.000	-0.166	-0.001
-742.127	69.900	-0.086	-0.089
-741.112	201.609	0.223	0.347
-740.098	-126.188	0.252	0.038
-739.083	50.970	0.201	0.193
-738.069	800.000	-0.026	0.103
-737.054	-36.156	-0.329	0.180
-736.039	-104.136	-0.308	0.073
-735.025	437.329	-0.171	0.378
-734.010	800.000	0.033	-0.103
-732.996	-80.696	-0.214	-0.072
-731.981	43.111	-0.337	0.311
-730.966	-12.083	-0.332	0.220
-729.952	-35.632	-0.166	0.091
-728.937	800.000	0.034	0.125
-727.923	-32.767	-0.329	-0.185
-726.908	38.825	0.143	-0.129
-725.894	-69.330	-0.221	-0.086
-724.879	110.502	-0.332	0.404
-723.864	-35.901	0.035	-0.019
-722.850	-89.841	-0.111	-0.033
-721.835	359.968	-0.013	0.027
-720.821	-36.344	0.020	0.011
-719.806	-171.903	0.106	-0.003
-718.791	19.821	0.286	0.233
-717.777	-185.263	-0.289	0.005
-716.762	800.000	0.095	-0.417
-715.748	546.461	0.034	-0.083
-714.733	121.999	0.151	0.191
-713.718	-200.000	0.004	-0.088
-712.704	-200.000	-0.027	0.121
-711.689	482.268	0.135	0.310
-710.675	-20.156	0.038	-0.024
-709.660	146.280	-0.131	-0.177
-708.645	-13.150	0.135	0.089
-707.631	499.605	0.092	0.215
-706.616	464.708	-0.061	-0.138
-705.602	91.465	0.046	-0.052
-704.587	-38.621	-0.037	0.019
-703.572	-200.000	-0.009	-0.102
-702.558	9.809	-0.235	0.180
-701.543	-200.000	0.021	-0.355
-700.529	-200.000	-0.021	-0.357
-699.514	-84.855	0.280	-0.089
-698.499	-98.886	0.254	0.065
-697.485	120.625	-0.191	-0.240
-696.470	247.156	0.206	-0.351
-695.456	166.271	-0.197	0.282
-694.441	-200.000	-0.014	0.196
-693.426	24.157	-0.157	-0.131
-692.412	-3.039	-0.191	0.135
-691.397	-192.084	-0.343	0.003
-690.383	-30.022	-0.147	-0.085
-689.368	-23.406	-0.249	0.151
-688.354	80.543	-0.124	-0.134
-687.339	800.000	-0.048	0.204
-686.324	-200.000	0.006	0.270
-685.310	-112.654	-0.379	0.076
-684.295	-5.714	-0.265	-0.183
-683.281	182.122	0.134	-0.199
-682.266	-130.609	-0.259	0.035
-681.251	419.562	0.056	0.121
-680.237	252.916	0.021	-0.037
-679.222	28.642	0.136	-0.116
-678.208	-124.563	-0.072	-0.011
-677.193	25.567	0.214	0.180
-676.178	384.871	-0.062	0.130
-675.164	152.366	0.089	0.123
-674.149	-110.955	0.337	-0.070
-673.135	-200.000	-0.003	-0.241
-672.120	-123.326	0.150	-0.024
-671.105	-137.230	-0.130	0.015
-670.091	-47.864	0.071	0.035
-669.076	0.887	0.259	0.188
-668.062	72.287	0.196	0.206
-667.047	-92.170	-0.164	0.047
-666.032	-200.000	-0.011	0.304
-665.018	-116.712	-0.012	-0.002
-664.003	-200.000	-0.022	0.209
-662.989	41.470	-0.073	0.067
-661.974	69.695	0.190	-0.198
-660.959	245.531	0.153	0.260
-659.945	-156.193	0.223	0.014
-658.930	487.996	0.218	-0.503
-657.916	-200.000	0.031	0.171
-656.901	154.456	0.094	-0.131
-655.886	-200.000	0.000	0.334
-654.872	-157.677	0.191	-0.011
-653.857	427.679	0.031	-0.068
-652.843	-4.511	0.169	0.118
-651.828	800.000	0.105	-0.324
-650.814	-200.000	-0.065	-0.443
-649.799	15.398	-0.367	-0.290
-648.784	-123.335	0.104	-0.017
-647.770	800.000	0.059	-0.179
-646.755	-36.725	0.082	-0.045
-645.741	-200.000	-0.041	0.193
-644.726	800.000	-0.108	0.308
-643.711	300.535	-0.221	0.412
-642.697	-90.471	-0.188	-0.055
-641.682	-58.363	-0.140	-0.061
-640.668	-41.787	-0.154	-0.080
-639.653	-38.520	-0.336	-0.179
-638.638	-24.813	0.294	-0.176
-637.624	-101.651	0.113	-0.028
-636.609	800.000	-0.076	-0.253
-635.595	-139.475	0.277	-0.030
-634.580	358.123	-0.038	-0.077
-633.565	691.993	-0.143	-0.377
-632.551	-200.000	-0.020	-0.299
-631.536	66.579	-0.164	-0.168
-630.522	-88.002	-0.103	0.031
-629.507	173.469	-0.060	-0.087
-628.492	-119.385	-0.268	0.047
-627.478	-58.369	-0.347	0.152
-626.463	380.309	0.056	0.116
-625.449	192.731	0.047	0.072
-624.434	-200.000	-0.015	0.095
-623.419	-81.259	0.231	-0.077
-622.405	263.959	-0.047	0.082
-621.390	-107.222	-0.186	0.041
-620.376	373.056	0.056	-0.114
-619.361	-31.889	-0.128	0.072
-618.346	-142.948	-0.113	0.011
-617.332	-78.173	-0.138	0.048
-616.317	28.221	-0.155	0.132
-615.303	-200.000	-0.004	0.179
-614.288	324.629	-0.111	-0.213
-613.273	-54.103	-0.276	0.126
-612.259	-200.000	-0.091	-0.412
-611.244	26.377	0.115	-0.097
-610.230	12.152	0.154	-0.120
-609.215	93.813	-0.118	0.135
-608.201	130.485	-0.204	0.263
-607.186	28.981	-0.200	0.171
-606.171	-200.000	0.016	0.146
-605.157	22.338	-0.195	-0.161
-604.142	800.000	-0.060	-0.177
-603.128	295.731	0.122	-0.225
-602.113	-116.281	0.159	0.030
-601.098	168.880	0.169	-0.243
-600.084	452.810	0.047	-0.105
-599.069	-200.000	0.026	-0.164
-598.055	162.092	-0.083	0.117
-597.040	75.017	0.246	0.260
-596.025	376.029	-0.118	0.242
-595.011	-200.000	-0.027	-0.247
-593.996	93.442	-0.037	0.042
-592.982	800.000	0.061	0.180
-591.967	-62.816	0.282	-0.118
-590.952	102.960	-0.112	0.131
-589.938	-141.619	-0.217	-0.022
-588.923	-200.000	0.024	-0.175
-587.909	-35.673	-0.289	-0.157
-586.894	-18.488	0.278	-0.175
-585.879	86.711	-0.271	-0.301
-584.865	54.603	0.173	0.167
-583.850	186.014	-0.059	0.089
-582.836	-119.707	0.286	0.050
-581.821	95.694	-0.157	0.180
-580.806	-200.000	0.024	-0.375
-579.792	-200.000	-0.003	0.280
-578.777	-126.429	0.149	-0.022
-577.763	18.150	0.357	0.286
-576.748	800.000	-0.083	-0.305
-575.733	-200.000	0.059	-0.400
-574.719	-48.025	-0.241	-0.117
-573.704	800.000	-0.094	-0.392
-572.690	203.285	0.109	-0.169
-571.675	-70.837	0.221	0.084
-570.661	-200.000	0.025	0.144
-569.646	-105.504	0.249	0.057
-568.631	800.000	-0.043	0.150
-567.617	419.175	0.063	-0.135
-566.602	161.499	-0.231	-0.325
-565.588	138.374	-0.069	0.090
-564.573	159.384	-0.150	-0.209
-563.558	-200.000	0.019	-0.241
-562.544	-77.473	0.179	0.062
-561.529	-52.684	0.239	0.111
-560.515	72.501	-0.094	-0.099
-559.500	-19.935	-0.341	-0.211
-558.485	-132.220	0.131	0.017
-557.471	-108.868	-0.055	-0.012
-556.456	-200.000	-0.001	-0.107
-555.442	-200.000	0.007	0.075
-554.427	-152.365	0.107	0.008
-553.412	72.964	0.275	0.288
-552.398	-107.891	-0.259	0.057
-551.383	-200.000	-0.014	-0.075
-550.369	-31.993	-0.292	-0.164
-549.354	-125.292	0.099	-0.015
-548.339	63.240	0.196	-0.197
-547.325	256.099	0.045	0.078
-546.310	-131.614	-0.312	-0.041
-545.296	87.503	-0.264	0.293
-544.281	221.431	-0.237	0.383
-543.266	-115.198	0.293	-0.056
-542.252	-110.946	0.241	0.050
-541.237	-88.643	0.245	-0.073
-540.223	-110.318	0.175	0.037
-539.208	-36.124	0.130	0.071
-538.193	-74.378	0.355	-0.129
-537.179	374.168	-0.156	0.320
-536.164	800.000	0.010	-0.040
-535.150	364.429	-0.188	-0.380
-534.135	-200.000	0.023	-0.189
-533.121	-174.263	-0.084	0.002
-532.106	8.154	-0.229	-0.172
-531.091	-97.617	-0.082	-0.021
-530.077	800.000	0.078	-0.300
-529.062	800.000	-0.054	0.178
-528.048	800.000	0.095	0.370
-527.033	48.848	0.367	0.345
-526.018	-80.005	-0.157	0.053
-525.004	48.166	0.145	0.137
-523.989	-118.312	-0.182	0.033
-522.975	16.811	-0.218	0.173
-521.960	101.274	0.294	0.344
-520.945	-0.115	-0.205	-0.147
-519.931	-30.896	-0.519	-0.294
-518.916	800.000	-0.085	-0.294
-517.902	31.602	-0.100	-0.086
-516.887	-200.000	-0.005	-0.224
-515.872	93.081	0.021	0.023
-514.858	9.923	0.060	-0.046
-513.843	-200.000	-0.040	-0.327
-512.829	-94.952	0.200	-0.054
-511.814	238.654	-0.076	0.126
-510.799	800.000	-0.018	0.072
-509.785	-151.472	-0.232	0.017
-508.770	-5.798	-0.259	-0.178
-507.756	174.704	0.112	0.163
-506.741	-24.398	0.051	-0.030
-505.726	-200.000	0.002	0.037
-504.712	-8.710	0.056	0.038
-503.697	-83.479	-0.185	0.059
-502.683	138.686	0.145	0.190
-501.668	770.220	-0.052	-0.141
-500.653	-42.511	-0.311	-0.159
-499.639	800.000	-0.020	0.084
-498.624	397.613	-0.110	0.230
-497.610	-16.531	0.105	0.067
-496.595	-199.572	0.244	0.001
-495.581	-200.000	0.000	-0.153
-494.566	-200.000	-0.050	0.272
-493.551	-48.304	-0.248	-0.120
-492.537	-137.393	0.270	0.031
-491.522	-92.440	-0.228	0.064
-490.508	800.000	-0.022	-0.066
-489.493	800.000	-0.035	-0.135
-488.478	173.013	0.026	-0.037
-487.464	438.628	-0.037	0.080
-486.449	-200.000	-0.035	-0.311
-485.435	-200.000	0.033	0.158
-484.420	-72.510	0.158	-0.059
-483.405	800.000	-0.137	0.396
-482.391	-67.633	0.134	0.053
-481.376	41.856	0.117	-0.106
-480.362	731.250	0.022	0.059
-479.347	-200.000	-0.007	-0.136
-478.332	-43.542	0.230	0.116
-477.318	-28.961	-0.345	-0.199
-476.303	-140.168	0.263	-0.028
-475.289	800.000	0.087	-0.293
-474.274	-143.989	-0.097	-0.009
-473.259	-68.211	0.165	0.064
-472.245	-40.236	-0.195	-0.102
-471.230	-88.588	-0.315	0.094
-470.216	-34.155	0.148	0.081
-469.201	225.378	0.079	0.128
-468.186	515.840	-0.079	-0.185
-467.172	-200.000	-0.154	0.001
-466.157	281.321	0.218	-0.391
-465.143	44.944	-0.076	0.070
-464.128	800.000	-0.009	-0.027
-463.113	201.184	0.206	0.318
-462.099	-112.064	-0.287	0.058
-461.084	606.664	0.106	0.264
-460.070	-200.000	0.041	-0.244
-459.055	-200.000	-0.003	0.031
-458.040	-200.000	0.005	0.327
-457.026	238.317	-0.107	0.177
-456.011	69.337	-0.136	0.140
-454.997	800.000	-0.040	-0.146
-453.982	151.811	0.204	0.278
-452.968	627.907	-0.060	0.152
-451.953	-12.755	-0.297	0.194
-450.938	-66.246	-0.302	0.120
-449.924	-141.335	-0.320	0.033
-448.909	-10.367	0.267	-0.177
-447.895	-48.575	0.234	-0.113
-446.880	78.291	-0.057	-0.061
-445.865	-164.786	-0.193	-0.009
-444.851	96.806	-0.138	-0.158
-443.836	-40.186	-0.408	-0.213
-442.822	36.285	-0.155	0.137
-441.807	-110.358	0.212	0.044
-440.792	-152.811	-0.181	-0.013
-439.778	-116.589	-0.162	0.030
-438.763	-74.990	0.202	0.072
-437.749	-30.458	-0.135	-0.076
-436.734	-24.918	0.056	0.033
-435.719	-26.188	-0.190	0.111
-434.705	-158.654	0.110	-0.006
-433.690	151.601	-0.005	-0.006
-432.676	-50.009	0.287	-0.136
-431.661	-22.151	-0.168	-0.102
-430.646	16.838	0.140	0.111
-429.632	160.156	-0.150	0.209
-428.617	18.066	-0.099	0.079
-427.603	-200.000	0.004	-0.193
-426.588	800.000	-0.052	-0.179
-425.573	108.932	0.063	0.075
-424.559	258.617	-0.051	-0.087
-423.544	349.464	-0.118	-0.233
-422.530	-182.071	0.239	0.005
-421.515	800.000	-0.071	-0.306
-420.500	410.398	-0.060	0.127
-419.486	-136.436	0.251	0.029
-418.471	-57.472	-0.393	-0.172
-417.457	585.146	0.083	0.203
-416.442	-200.000	-0.006	0.281
-415.428	-23.351	0.163	0.098
-414.413	-104.252	0.021	-0.005
-413.398	-19.094	0.188	-0.117
-412.384	256.439	0.154	-0.264
-411.369	108.988	0.119	0.143
-410.355	85.993	0.155	0.170
-409.340	-143.086	0.045	-0.004
-408.325	-61.840	0.272	-0.114
-407.311	173.162	-0.073	0.106
-406.296	-112.492	-0.104	0.021
-405.282	800.000	0.063	-0.175
-404.267	-32.325	0.114	0.063
-403.252	-92.411	-0.549	-0.154
-402.238	-200.000	0.006	0.382
-401.223	270.192	-0.132	-0.231
-400.209	-86.417	0.159	-0.049
-399.194	274.165	-0.099	0.175
-398.179	-200.000	0.012	-0.104
-397.165	-98.407	-0.312	0.080
-396.150	-54.252	-0.303	0.137
-395.136	-59.723	-0.056	-0.024
-394.121	-5.183	0.142	-0.098
-393.106	61.313	-0.220	0.218
-392.092	-200.000	0.177	0.000
-391.077	135.032	-0.146	-0.189
-390.063	483.784	-0.024	0.055
-389.048	800.000	-0.061	-0.181
-388.033	-200.000	-0.045	-0.258
-387.019	-142.394	0.052	-0.005
-386.004	721.858	0.092	-0.243
-384.990	800.000	0.021	0.090
-383.975	-67.665	-0.460	0.180
-382.960	-200.000	-0.025	0.274
-381.946	81.471	0.203	-0.219
-380.931	98.044	0.144	-0.165
-379.917	-90.775	-0.098	-0.028
-378.902	-40.894	0.079	-0.041
-377.888	-200.000	0.007	0.168
-376.873	74.932	0.101	0.107
-375.858	-112.048	-0.088	-0.018
-374.844	288.883	0.054	-0.098
-373.829	-30.357	0.262	0.149
-372.815	17.447	-0.240	0.190
-371.800	800.000	0.075	-0.273
-370.785	-127.401	-0.331	0.048
-369.771	170.230	-0.038	-0.055
-368.756	800.000	-0.054	0.160
-367.742	18.975	0.274	0.219
-366.727	393.684	-0.043	0.089
-365.712	-200.000	-0.021	-0.134
-364.698	44.791	-0.165	0.151
-363.683	-117.162	-0.175	-0.032
-362.669	800.000	-0.069	0.212
-361.654	97.504	-0.084	0.096
-360.639	-200.000	-0.003	-0.201
-359.625	-126.151	0.322	-0.048
-358.610	148.972	-0.045	-0.061
-357.596	659.577	0.113	-0.290
-356.581	-34.494	-0.168	-0.092
-355.566	-173.543	-0.121	0.004
-354.552	308.862	-0.092	-0.172
-353.537	746.047	-0.059	-0.158
-352.523	800.000	0.082	0.267
-351.508	-200.000	-0.034	-0.263
-350.493	429.955	-0.067	0.144
-349.479	46.340	0.121	0.112
-348.464	-200.000	0.003	0.212
-347.450	99.809	0.192	0.222
-346.435	318.963	0.077	-0.146
-345.420	-20.512	0.235	-0.144
-344.406	308.159	-0.019	-0.035
-343.391	364.844	-0.079	-0.158
-342.377	-200.000	0.026	0.362
-341.362	-103.551	-0.074	-0.017
-340.348	-200.000	0.056	-0.488
-339.333	-90.420	-0.215	0.062
-338.318	6.651	-0.206	0.153
-337.304	-200.000	0.049	-0.243
-336.289	88.043	-0.299	-0.330
-335.275	-200.000	0.031	0.276
-334.260	39.203	0.306	0.272
-333.245	108.799	0.050	0.059
-332.231	25.588	0.292	0.242
-331.216	165.765	-0.132	0.187
-330.202	156.328	-0.161	0.221
-329.187	319.328	-0.162	0.306
-328.172	288.855	0.076	0.137
-327.158	-39.531	-0.346	0.180
-326.143	209.026	-0.087	-0.136
-325.129	-105.056	0.325	0.074
-324.114	-124.039	0.237	-0.037
-323.099	270.384	-0.249	0.437
-322.085	-177.188	-0.177	0.004
-321.070	-93.216	-0.358	0.099
-320.056	-200.000	-0.033	-0.313
-319.041	99.128	-0.078	0.090
-318.026	-200.000	-0.007	0.085
-317.012	-173.097	0.197	-0.006
-315.997	-11.579	-0.126	-0.083
-314.983	-200.000	-0.037	-0.223
-313.968	40.203	-0.227	-0.203
-312.953	277.948	0.121	-0.214
-311.939	567.047	0.028	-0.068
-310.924	-200.000	0.092	0.000
-309.910	374.380	0.113	0.229
-308.895	116.283	0.177	0.216
-307.880	-54.902	0.246	0.110
-306.866	-200.000	0.022	0.236
-305.851	137.635	0.136	-0.177
-304.837	151.243	0.093	-0.126
-303.822	800.000	-0.009	-0.026
-302.807	-36.756	0.051	-0.027
-301.793	-18.909	-0.288	-0.178
-300.778	788.496	0.060	-0.165
-299.764	43.242	0.235	-0.213
-298.749	2.784	0.166	0.120
-297.735	391.133	-0.044	-0.090
-296.720	-123.802	0.346	-0.054
-295.705	150.646	-0.066	0.089
-294.691	-157.192	-0.330	0.020
-293.676	-30.323	0.324	-0.183
-292.662	191.152	-0.203	0.304
-291.647	-89.363	-0.263	0.077
-290.632	-35.835	0.169	-0.091
-289.618	209.633	-0.141	-0.219
-288.603	-71.962	-0.293	0.108
-287.589	800.000	0.055	-0.208
-286.574	65.090	-0.170	0.171
-285.559	800.000	-0.046	0.160
-284.545	-3.405	-0.129	-0.089
-283.530	562.436	0.040	-0.096
-282.516	-200.000	0.002	0.146
-281.501	-200.000	-0.005	-0.135
-280.486	-177.535	0.149	0.004
-279.472	-80.014	0.404	-0.135
-278.457	-117.566	0.132	0.024
-277.443	-56.249	-0.496	0.219
-276.428	800.000	-0.089	0.355
-275.413	-151.514	0.263	-0.019
-274.399	-200.000	-0.001	-0.057
-273.384	-200.000	-0.022	-0.299
-272.370	324.460	0.165	-0.313
-271.355	-200.000	0.001	-0.062
-270.340	-72.775	0.109	0.040
-269.326	-36.812	-0.026	-0.014
-268.311	11.716	0.246	-0.187
-267.297	-200.000	0.007	0.215
-266.282	246.651	-0.033	0.056
-265.267	-200.000	-0.016	0.102
-264.253	-37.272	-0.179	-0.095
-263.238	800.000	-0.053	0.186
-262.224	38.392	0.160	0.142
-261.209	219.612	0.219	-0.348
-260.195	-56.965	-0.287	-0.126
-259.180	800.000	-0.044	0.162
-258.165	-120.120	-0.181	-0.031
-257.151	-82.784	0.343	-0.110
-256.136	800.000	0.038	0.140
-255.122	54.596	0.337	0.323
-254.107	73.974	-0.118	0.123
-253.092	60.364	0.113	0.111
-252.078	654.345	0.109	0.278
-251.063	3.909	-0.071	-0.051
-250.049	800.000	-0.122	-0.342
-249.034	58.342	-0.043	0.042
-248.019	-200.000	-0.063	0.324
-247.005	-200.000	-0.077	0.577
-245.990	-32.319	0.216	-0.120
-244.976	-53.405	0.327	-0.149
-243.961	-200.000	0.013	-0.469
-242.946	447.241	-0.105	-0.229
-241.932	-200.000	0.003	-0.279
-240.917	104.547	0.179	-0.209
-239.903	-61.679	0.290	-0.121
-238.888	-91.152	-0.144	0.041
-237.873	-32.276	0.220	-0.122
-236.859	19.286	0.134	-0.107
-235.844	-31.483	0.112	0.062
-234.830	-98.296	-0.179	0.046
-233.815	-7.710	0.123	-0.083
-232.800	370.545	0.081	0.162
-231.786	153.301	-0.278	0.378
-230.771	-49.927	0.022	0.010
-229.757	-200.000	0.012	0.058
-228.742	-49.999	0.169	0.080
-227.727	-91.843	0.218	0.061
-226.713	-111.112	0.160	0.033
-225.698	-200.000	-0.006	-0.278
-224.684	-200.000	-0.009	0.449
-223.669	47.350	0.197	0.182
-222.655	-200.000	0.046	-0.281
-221.640	-81.334	0.104	0.034
-220.625	-122.601	-0.236	0.038
-219.611	140.190	-0.120	0.157
-218.596	-157.612	0.642	-0.038
-217.582	-150.810	-0.255	-0.019
-216.567	-196.815	0.284	-0.002
-215.552	-161.222	0.097	-0.005
-214.538	-200.000	0.057	-0.341
-213.523	-110.501	0.049	-0.010
-212.509	44.040	0.143	0.130
-211.494	-175.098	-0.320	0.009
-210.479	335.592	-0.108	0.208
-209.465	-87.551	0.341	-0.102
-208.450	800.000	0.060	-0.197
-207.436	-190.860	0.333	0.003
-206.421	-119.671	0.110	0.019
-205.406	473.732	-0.096	-0.213
-204.392	223.048	-0.196	-0.313
-203.377	-200.000	-0.169	0.000
-202.363	-2.485	0.088	-0.061
-201.348	118.214	-0.101	-0.124
-200.333	800.000	0.061	-0.207
-199.319	114.017	0.123	0.149
-198.304	-70.323	-0.194	0.073
-197.290	-26.130	0.119	0.069
-196.275	-41.799	-0.170	-0.086
-195.260	-60.579	0.215	-0.090
-194.246	-106.797	0.335	0.074
-193.231	-86.352	0.364	-0.111
-192.217	-200.000	0.043	0.537
-191.202	-101.403	0.309	0.075
-190.187	-84.527	-0.302	-0.094
-189.173	221.037	0.195	0.309
-188.158	-61.126	0.244	-0.102
-187.144	-200.000	-0.009	0.183
-186.129	168.290	-0.132	0.186
-185.114	-200.000	-0.008	0.102
-184.100	-92.867	0.143	-0.040
-183.085	0.843	-0.144	-0.102
-182.071	555.439	0.017	-0.040
-181.056	-41.761	-0.015	0.007
-180.042	-116.320	0.146	0.027
-179.027	800.000	0.017	0.073
-178.012	-86.597	-0.102	0.031
-176.998	91.885	-0.177	0.197
-175.983	800.000	0.088	-0.348
-174.969	-30.007	0.207	0.117
-173.954	768.558	0.091	0.245
-172.939	-150.632	0.240	0.018
-171.925	-200.000	-0.066	0.352
-170.910	30.567	0.172	-0.146
-169.896	-59.282	0.293	-0.125
-168.881	-71.439	-0.366	-0.135
-167.866	-1.006	-0.157	-0.110
-166.852	633.393	-0.051	0.129
-165.837	800.000	0.014	-0.056
-164.823	-165.264	0.277	0.012
-163.808	-125.530	0.276	-0.041
-162.793	304.494	0.064	-0.118
-161.779	-200.000	0.059	0.396
-160.764	-200.000	-0.065	0.321
-159.750	45.644	0.087	-0.079
-158.735	56.225	0.062	0.059
-157.720	172.102	-0.200	0.285
-156.706	800.000	-0.072	-0.263
-155.691	-145.680	0.217	0.019
-154.677	13.198	0.270	0.206
-153.662	-200.000	-0.028	0.204
-152.647	45.126	0.178	0.162
-151.633	-200.000	0.000	0.002
-150.618	73.738	0.122	-0.126
-149.604	-63.791	0.311	0.126
-148.589	-7.001	0.287	0.193
-147.574	-200.000	0.013	-0.065
-146.560	433.222	0.137	0.294
-145.545	-200.000	-0.011	-0.086
-144.531	11.913	0.099	-0.075
-143.516	-2.701	-0.076	0.052
-142.502	-200.000	0.026	-0.443
-141.487	-68.185	-0.202	0.078
-140.472	-157.128	-0.213	0.013
-139.458	722.292	-0.088	-0.233
-138.443	231.105	-0.149	-0.242
-137.429	-70.748	0.149	0.056
-136.414	10.220	0.223	-0.168
-135.399	800.000	-0.081	-0.276
-134.385	800.000	0.039	0.115
-133.370	104.949	-0.134	0.156
-132.356	-176.239	0.124	-0.003
-131.341	-72.941	0.383	-0.139
-130.326	329.320	-0.089	0.169
-129.312	-108.460	-0.182	0.039
-128.297	-36.072	-0.337	-0.180
-127.283	15.510	0.081	-0.063
-126.268	99.701	-0.105	0.120
-125.253	800.000	-0.051	-0.191
-124.239	4.743	0.127	-0.092
-123.224	10.469	0.237	-0.178
-122.210	-19.912	-0.048	-0.029
-121.195	-146.774	-0.098	-0.008
-120.180	-155.850	0.187	0.012
-119.166	-23.782	-0.167	-0.099
-118.151	-24.969	-0.454	0.266
-117.137	800.000	-0.106	-0.315
-116.122	141.885	0.270	0.353
-115.107	-200.000	0.051	0.317
-114.093	-80.890	0.188	-0.061
-113.078	-140.628	0.154	-0.016
-112.064	-200.000	0.031	0.243
-111.049	-72.174	0.481	-0.176
-110.034	-200.000	0.024	0.275
-109.020	-200.000	-0.019	0.278
-108.005	87.419	0.221	0.241
-106.991	-170.962	-0.152	0.005
-105.976	257.583	-0.291	0.494
-104.962	214.083	0.206	0.322
-103.947	308.285	-0.113	-0.208
-102.932	800.000	-0.074	-0.287
-101.918	-116.862	-0.134	0.024
-100.903	20.382	-0.051	0.041
-99.889	136.052	0.143	0.184
-98.874	423.921	0.041	-0.087
-97.859	487.706	0.065	0.146
-96.845	-16.049	0.320	0.201
-95.830	477.372	0.074	0.165
-94.816	103.275	-0.177	-0.205
-93.801	800.000	0.042	-0.148
-92.786	-131.094	0.184	-0.024
-91.772	79.957	0.152	0.161
-90.757	59.489	-0.085	-0.082
-89.743	25.574	-0.055	0.045
-88.728	-105.283	-0.236	-0.053
-87.713	-15.635	-0.230	0.145
-86.699	38.807	-0.191	0.168
-85.684	616.598	0.078	0.192
-84.670	800.000	-0.082	0.294
-83.655	283.220	-0.133	-0.235
-82.640	-200.000	0.008	-0.362
-81.626	-164.174	-0.438	0.020
-80.611	-200.000	0.038	0.209
-79.597	583.072	0.055	-0.134
-78.582	-118.492	0.180	-0.032
-77.567	440.363	-0.123	0.265
-76.553	800.000	0.028	0.103
-75.538	459.221	0.104	0.228
-74.524	-45.734	0.011	0.005
-73.509	17.975	0.237	0.186
-72.494	-200.000	-0.012	-0.146
-71.480	-46.623	-0.244	0.118
-70.465	-20.488	0.139	-0.084
-69.451	800.000	0.097	0.406
-68.436	-101.561	0.231	-0.055
-67.422	197.637	-0.203	-0.305
-66.407	-123.913	0.386	-0.060
-65.392	218.139	-0.110	0.173
-64.378	59.750	-0.058	-0.056
-63.363	-23.122	0.275	0.163
-62.349	-38.091	0.505	0.264
-61.334	66.264	-1.053	-1.053
-60.319	66.081	0.551	0.551
-59.305	-200.000	-0.099	-0.982
-58.290	800.000	0.270	1.060
-57.276	800.000	0.667	1.844
-56.261	-200.000	97.034	588.660
-55.246	551.917	1389.696	3287.585
-54.232	157.977	2568.091	3506.568
-53.217	111.953	2169.746	2581.813
-52.203	42.991	1711.611	1537.565
-51.188	35.609	1525.103	1319.508
-50.173	33.131	1498.619	1279.797
-49.159	52.280	1547.919	1454.062
-48.144	54.177	1564.962	1483.060
-47.130	35.687	1524.527	1319.337
-46.115	32.571	1509.978	1285.468
-45.100	32.375	1506.792	1281.372
-44.086	32.378	1504.735	1279.593
-43.071	32.295	1502.923	1277.437
-42.057	32.296	1501.194	1275.920
-41.042	32.337	1499.827	1274.986
-40.027	32.274	1498.515	1273.392
-39.013	32.378	1496.474	1272.312
-37.998	32.279	1495.846	1271.060
-36.984	32.327	1494.779	1270.429
-35.969	32.392	1492.932	1269.245
-34.954	32.276	1492.031	1267.648
-33.940	32.287	1490.554	1266.414
-32.925	32.392	1488.964	1265.722
-31.911	32.536	1487.173	1265.117
-30.896	32.454	1486.218	1263.703
-29.881	32.417	1484.788	1262.189
-28.867	32.314	1483.439	1260.299
-27.852	32.224	1482.355	1258.729
-26.838	32.358	1480.328	1257.851
-25.823	32.268	1479.235	1256.270
-24.809	32.328	1477.203	1254.899
-23.794	32.360	1475.503	1253.617
-22.779	32.354	1474.344	1252.541
-21.765	32.302	1473.505	1251.434
-20.750	32.402	1472.546	1251.233
-19.736	32.279	1471.672	1249.625
-18.721	32.349	1470.410	1248.967
-17.706	32.359	1469.082	1247.860
-16.692	32.304	1467.889	1246.432
-15.677	32.393	1466.901	1246.131
-14.663	32.260	1466.263	1244.659
-13.648	32.293	1465.048	1243.794
-12.633	32.277	1464.404	1243.092
-11.619	32.235	1463.161	1241.714
-10.604	32.201	1462.714	1241.060
-9.590	32.133	1462.025	1239.973
-8.575	32.260	1460.588	1239.548
-7.560	32.356	1459.713	1239.385
-6.546	32.221	1459.175	1237.991
-5.531	32.280	1458.218	1237.519
-4.517	32.234	1457.301	1236.389
-3.502	32.279	1456.049	1235.571
-2.487	32.286	1454.614	1234.352
-1.473	32.177	1454.265	1233.295
-0.458	32.179	1452.562	1231.811
0.556	32.285	1443.346	1222.313
1.571	29.637	1418.629	1184.329
2.586	26.596	1362.091	1118.282
3.600	25.152	1283.713	1045.426
4.615	23.683	1237.028	999.058
5.629	19.687	1178.485	930.232
6.644	9.885	1090.881	811.933
7.659	2.760	1049.563	746.533
8.673	1.996	1043.804	738.676
9.688	1.597	1041.323	734.924
10.702	1.441	1039.350	732.716
11.717	1.407	1037.585	731.245
12.731	4.491	1040.446	748.060
13.746	14.092	1054.532	804.792
14.761	22.371	1065.548	853.449
15.775	24.719	1067.949	866.692
16.790	24.997	1067.470	867.573
17.804	24.929	1066.796	866.620
18.819	24.763	1065.720	864.866
19.834	24.766	1065.489	864.617
20.848	25.076	1064.751	865.438
21.863	25.099	1064.248	865.064
22.877	25.066	1063.877	864.527
23.892	25.080	1063.051	863.847
24.907	24.837	1062.492	862.143
25.921	24.863	1062.104	861.881
26.936	25.020	1061.082	861.729
27.950	24.918	1060.024	860.301
28.965	24.917	1059.014	859.404
29.980	24.834	1057.557	857.744
30.994	24.804	1056.128	856.370
32.009	24.915	1055.916	856.651
33.023	25.070	1055.045	856.608
34.038	24.903	1053.816	854.740
35.053	24.779	1053.105	853.495
36.067	24.989	1052.448	853.886
37.082	24.915	1051.617	852.787
38.096	24.996	1050.573	852.249
39.111	25.219	1049.443	852.319
40.126	25.470	1048.680	852.811
41.140	25.056	1048.102	850.303
42.155	24.886	1046.516	848.136
43.169	24.576	1045.343	845.642
44.184	24.574	1044.460	844.847
45.199	24.617	1043.408	844.122
46.213	24.650	1042.107	843.150
47.228	24.577	1041.514	842.253
48.242	24.492	1041.593	841.841
49.257	24.825	1040.351	842.332
50.271	24.955	1039.287	842.006
51.286	25.055	1038.794	842.000
52.301	25.085	1038.210	841.594
53.315	25.048	1037.472	840.748
54.330	25.124	1036.555	840.287
55.344	25.015	1035.624	838.949
56.359	25.093	1034.646	838.447
57.374	24.931	1034.464	837.464
58.388	24.686	1033.291	835.298
59.403	24.765	1032.565	835.005
60.417	24.764	1031.581	834.134
61.432	24.540	1031.141	832.658
62.447	24.570	1030.245	831.999
63.461	24.667	1029.668	831.912
64.476	24.822	1028.487	831.607
65.490	24.668	1027.994	830.418
66.505	24.644	1026.860	829.318
67.520	24.578	1026.358	828.532
68.534	24.835	1025.750	829.161
69.549	24.617	1024.665	827.201
70.563	24.338	1023.570	824.950
71.578	24.214	1022.535	823.473
72.593	24.435	1021.545	823.621
73.607	24.229	1020.885	822.066
74.622	24.069	1020.068	820.598
75.636	24.443	1019.011	821.396
76.651	24.679	1018.180	821.738
77.666	24.414	1017.509	819.906
78.680	24.235	1016.931	818.546
79.695	24.168	1016.738	818.014
80.709	24.480	1015.587	818.444
81.724	24.515	1014.806	817.902
82.739	24.576	1013.928	817.403
83.753	24.548	1013.372	816.753
84.768	24.772	1012.745	817.199
85.782	25.167	1012.377	818.634
86.797	25.308	1011.567	818.549
87.812	25.303	1010.684	817.741
88.826	24.930	1010.132	815.522
89.841	25.199	1008.880	815.664
90.855	25.346	1008.135	815.656
91.870	25.417	1007.265	815.203
92.884	25.215	1006.581	813.659
93.899	25.232	1005.124	812.489
94.914	25.110	1004.578	811.420
95.928	25.169	1004.235	811.342
96.943	25.357	1002.886	811.027
97.957	24.829	1001.799	807.695
98.972	24.744	1000.601	806.273
99.987	24.441	999.947	804.311
101.001	24.637	999.074	804.420
102.016	24.817	998.760	804.905
103.030	24.984	997.903	804.895
104.045	24.852	996.582	803.164
105.060	24.796	995.371	801.865
106.074	24.674	994.334	800.415
107.089	24.569	994.066	799.656
108.103	24.973	993.333	800.802
109.118	24.965	992.788	800.258
110.133	24.714	991.466	798.000
111.147	24.664	990.941	797.285
112.162	24.588	989.602	795.798
113.176	24.379	988.759	794.120
114.191	24.483	988.163	794.034
115.206	24.600	987.434	793.898
116.220	24.367	985.952	791.602
117.235	24.189	985.171	790.117
118.249	24.328	984.379	790.025
119.264	24.337	983.726	789.475
120.279	24.253	982.866	788.342
121.293	24.300	981.885	787.690
122.308	24.306	981.513	787.351
123.322	24.282	980.759	786.570
124.337	24.384	979.324	785.797
125.352	24.212	977.999	783.909
126.366	23.923	976.339	781.241
127.381	23.661	975.316	779.203
128.395	24.085	974.982	780.727
129.410	24.663	974.863	783.094
130.424	24.954	973.771	783.424
131.439	24.931	972.995	782.629
132.454	24.789	971.966	781.110
133.468	25.052	970.858	781.298
134.483	24.839	970.077	779.674
135.497	24.934	969.803	779.796
136.512	24.997	969.208	779.526
137.527	24.935	969.024	779.040
138.541	25.028	968.090	778.621
139.556	25.231	967.016	778.570
140.570	25.108	966.121	777.246
141.585	25.100	965.766	776.856
142.600	25.235	964.543	776.390
143.614	25.072	963.989	775.171
144.629	25.199	963.155	774.980
145.643	25.591	962.523	776.096
146.658	25.409	961.392	774.330
147.673	25.109	960.607	772.336
148.687	25.086	959.469	771.256
149.702	25.050	957.994	769.846
150.716	24.900	957.488	768.726
151.731	24.892	956.262	767.640
152.746	24.952	955.867	767.515
153.760	25.192	955.607	768.264
154.775	25.263	954.621	767.707
155.789	25.348	953.752	767.304
156.804	25.282	952.754	766.152
157.819	25.142	952.081	764.946
158.833	25.182	950.834	764.046
159.848	25.303	950.391	764.138
160.862	25.449	949.665	764.109
161.877	25.242	948.950	762.586
162.892	25.245	947.835	761.634
163.906	25.242	947.397	761.204
164.921	25.267	946.093	760.193
165.935	25.243	945.071	759.204
166.950	25.315	944.184	758.730
167.964	25.331	943.546	758.216
168.979	25.384	942.079	757.193
169.994	25.122	941.296	755.394
171.008	25.019	939.954	753.817
172.023	25.194	939.963	754.494
173.037	25.259	939.164	754.056
174.052	25.297	937.644	752.931
175.067	25.037	936.746	751.053
176.081	24.920	936.164	750.029
177.096	25.106	935.154	749.933
178.110	25.023	934.619	749.088
179.125	24.896	933.056	747.239
180.140	24.579	932.473	745.386
181.154	24.668	931.958	745.277
182.169	24.695	931.706	745.125
183.183	24.977	931.541	746.099
184.198	25.271	930.793	746.660
185.213	25.189	930.513	746.027
186.227	25.143	929.125	744.659
187.242	25.315	929.116	745.298
188.256	25.242	928.294	744.273
189.271	25.176	927.298	743.131
190.286	25.405	926.707	743.540
191.300	25.180	925.913	741.906
192.315	24.597	924.602	738.383
193.329	23.965	922.520	734.048
194.344	23.469	921.587	731.195
195.359	24.074	922.168	734.088
196.373	24.855	922.478	737.490
197.388	25.190	922.135	738.530
198.402	25.056	921.741	737.596
199.417	25.014	921.154	736.891
200.432	25.181	920.633	737.096
201.446	25.150	919.559	736.039
202.461	24.651	919.126	733.584
203.475	24.791	918.369	733.485
204.490	24.420	916.500	730.413
205.504	23.259	914.691	724.160
206.519	23.635	914.718	725.655
207.534	24.687	915.027	730.134
208.548	24.646	914.418	729.415
209.563	25.163	914.236	731.315
210.577	25.242	913.230	730.768
211.592	24.845	912.414	728.437
212.607	25.082	912.853	729.684
213.621	25.365	912.276	730.310
214.636	25.288	911.495	729.308
215.650	25.390	911.094	729.336
216.665	25.396	910.102	728.503
217.680	25.354	909.800	728.025
218.694	25.444	909.316	727.940
219.709	25.103	908.456	725.806
220.723	24.830	907.365	723.764
221.738	24.929	907.268	724.024
222.753	25.085	906.870	724.272
223.767	25.024	905.866	723.162
224.782	25.150	905.509	723.322
225.796	25.370	904.836	723.606
226.811	25.570	904.052	723.721
227.826	25.001	902.614	720.217
228.840	24.203	901.421	715.996
229.855	24.262	900.685	715.588
230.869	24.514	900.186	716.136
231.884	24.102	899.292	713.713
232.899	24.202	898.746	713.615
233.913	25.050	898.797	716.989
234.928	25.056	898.495	716.708
235.942	24.954	897.991	715.835
236.957	25.055	897.161	715.514
237.972	24.774	896.465	713.775
238.986	24.730	895.862	713.054
240.001	24.747	895.304	712.616
241.015	24.806	894.372	712.044
242.030	24.821	894.090	711.818
243.045	25.044	893.254	711.974
244.059	25.191	892.676	712.035
245.074	25.349	892.318	712.312
246.088	25.201	891.919	711.346
247.103	24.868	891.318	709.483
248.117	24.906	890.564	708.968
249.132	25.327	890.667	710.654
250.147	25.798	890.213	712.092
251.161	25.843	890.058	712.086
252.176	26.133	889.052	712.360
253.190	25.976	888.700	711.397
254.205	26.004	888.460	711.250
255.220	26.212	887.991	711.635
256.234	26.160	887.489	710.964
257.249	26.165	886.563	710.179
258.263	25.940	885.958	708.747
259.278	26.032	885.165	708.409
260.293	25.921	885.174	707.920
261.307	26.086	884.607	708.051
262.322	26.018	883.743	707.028
263.336	26.058	882.930	706.474
264.351	25.637	881.314	703.470
265.366	24.356	879.705	697.121
266.380	23.868	878.787	694.426
267.395	24.914	879.128	698.719
268.409	25.496	879.508	701.233
269.424	25.476	878.654	700.409
270.439	25.633	878.381	700.743
271.453	25.868	877.744	701.089
272.468	25.793	877.004	700.143
273.482	25.909	876.815	700.380
274.497	26.085	876.318	700.606
275.512	25.899	874.925	698.706
276.526	25.330	873.770	695.521
277.541	25.509	873.779	696.158
278.555	25.979	873.381	697.600
279.570	25.685	873.037	696.128
280.585	25.547	871.785	694.532
281.599	25.679	871.595	694.830
282.614	25.591	871.455	694.319
283.628	25.348	869.825	692.022
284.643	25.036	868.880	690.006
285.657	25.425	869.106	691.621
286.672	25.095	868.627	689.911
287.687	24.854	867.233	687.816
288.701	25.077	867.305	688.670
289.716	25.523	866.915	690.011
290.730	25.195	866.485	688.349
291.745	25.049	865.452	686.909
292.760	24.961	864.391	685.666
293.774	24.784	863.950	684.580
294.789	25.613	864.610	688.218
295.803	26.453	864.147	690.997
296.818	26.445	863.904	690.709
297.833	26.395	863.390	690.049
298.847	26.153	862.198	688.113
299.862	25.815	861.528	686.227
300.876	26.000	861.080	686.517
301.891	26.379	860.541	687.466
302.906	26.340	860.133	686.932
303.920	26.063	859.158	685.040
304.935	25.937	858.259	683.787
305.949	26.383	857.896	685.124
306.964	26.551	857.614	685.477
307.979	26.207	856.837	683.493
308.993	26.144	856.249	682.726
310.008	26.348	856.362	683.528
311.022	26.708	855.631	684.240
312.037	26.296	855.321	682.380
313.052	26.082	854.609	680.941
314.066	26.051	853.636	679.989
315.081	25.435	851.782	676.135
316.095	24.542	850.887	672.006
317.110	25.251	851.018	674.716
318.125	25.920	851.447	677.514
319.139	25.572	850.378	675.295
320.154	24.457	848.379	669.472
321.168	24.069	847.534	667.289
322.183	24.639	848.097	669.812
323.197	25.718	848.143	673.830
324.212	25.899	848.126	674.433
325.227	26.024	847.502	674.346
326.241	26.254	847.295	674.979
327.256	26.159	846.427	673.875
328.270	25.868	846.317	672.642
329.285	25.866	845.514	671.937
330.300	25.717	844.394	670.431
331.314	25.497	843.515	668.856
332.329	25.622	843.001	668.853
333.343	26.037	843.024	670.355
334.358	26.205	842.721	670.678
335.373	26.235	842.025	670.178
336.387	26.211	841.598	669.689
337.402	26.522	841.445	670.660
338.416	26.713	841.149	671.072
339.431	26.516	840.546	669.802
340.446	26.757	839.785	670.030
341.460	26.964	839.063	670.157
342.475	26.885	838.729	669.542
343.489	26.718	837.975	668.264
344.504	26.630	837.454	667.465
345.519	26.808	837.329	667.963
346.533	27.148	836.864	668.783
347.548	27.185	836.404	668.491
348.562	27.036	836.152	667.685
349.577	26.965	835.526	666.865
350.592	27.051	834.473	666.279
351.606	26.865	834.532	665.587
352.621	26.956	833.578	665.099
353.635	26.947	833.107	664.631
354.650	26.759	832.973	663.779
355.665	26.452	831.712	661.590
356.679	25.385	829.889	656.186
357.694	25.155	829.656	655.107
358.708	26.066	829.550	658.288
359.723	25.922	828.793	657.103
360.738	26.139	828.868	657.899
361.752	26.614	828.515	659.288
362.767	26.650	828.537	659.379
363.781	26.934	828.187	660.076
364.796	27.274	828.158	661.230
365.810	27.294	827.456	660.682
366.825	27.427	826.927	660.686
367.840	27.405	826.994	660.601
368.854	27.251	826.292	659.424
369.869	26.895	825.078	657.108
370.883	26.702	824.612	655.980
371.898	26.878	823.682	655.818
372.913	26.850	822.985	655.105
373.927	26.730	822.633	654.333
374.942	26.807	822.164	654.179
375.956	26.830	822.001	654.076
376.971	27.085	821.001	654.139
377.986	27.216	820.480	654.138
379.000	27.343	820.222	654.329
380.015	27.167	820.049	653.502
381.029	27.230	819.114	652.927
382.044	27.268	818.141	652.227
383.059	27.340	817.818	652.171
384.073	27.346	817.720	652.058
385.088	27.318	817.043	651.358
386.102	27.213	816.347	650.371
387.117	27.141	815.418	649.316
388.132	26.981	815.167	648.488
389.146	26.907	814.431	647.581
390.161	26.489	813.213	645.065
391.175	26.227	813.511	644.308
392.190	26.928	813.438	646.692
393.205	26.932	812.988	646.292
394.219	25.991	811.092	641.384
395.234	24.194	808.800	633.134
396.248	23.654	807.611	630.232
397.263	24.646	808.436	634.342
398.278	26.482	809.789	641.869
399.292	26.994	809.624	643.497
400.307	26.561	809.118	641.503
401.321	26.635	808.459	641.188
402.336	26.734	808.228	641.296
403.350	26.985	808.474	642.323
404.365	27.397	808.394	643.659
405.380	27.692	808.083	644.397
406.394	28.060	807.613	645.265
407.409	27.975	807.722	644.996
408.423	28.050	806.893	644.539
409.438	27.970	806.180	643.632
410.453	27.917	805.778	643.066
411.467	28.095	805.367	643.309
412.482	27.977	805.024	642.563
413.496	28.099	804.124	642.215
414.511	28.145	804.258	642.426
415.526	28.086	803.714	641.728
416.540	28.218	803.060	641.612
417.555	27.925	802.845	640.359
418.569	27.832	801.879	639.204
419.584	27.634	801.404	638.076
420.599	27.675	801.044	637.877
421.613	109.853	1285.848	1458.611
422.628	94.718	1356.441	1458.691
