DTS Sentinel unit serial number:	SN413079Multiplexer serial number:	ORYXHardware model number:	OX4-SRSoftware version number:	ORYX F/W v4.00 Oryx Data Collector v3.7.2.0data status	okinstallation	princeton_trtdifferential loss correction	single-endedforward channel	channel 3reverse channel	N/Adate	2019/09/18time	17:16:35forward acquisition time	60.00reverse acquisition time	0.00gamma	496.2192k internal	0.2293k external	0.2293temperature offset calibration	0.9986default loss term (dB/km)	0.3790temperature slope calibration	1.0000multiplexer offset coefficient	1.0000multiplexer slope coefficient	1.0000fibre end	0.00T internal ref (°C)	39.87T ext. ref 1 (°C)	0.89T ext. ref 2 (°C)	35.98length (m)	temperature (°C)	Stokes	anti-Stokes-747.200	537.136	-0.052	0.126
-746.185	-200.000	0.066	0.297
-745.171	-74.634	0.222	0.082
-744.156	-200.000	-0.023	0.176
-743.142	-6.677	0.086	-0.060
-742.127	143.591	-0.245	0.334
-741.112	-33.018	-0.117	0.067
-740.098	91.123	-0.168	-0.192
-739.083	800.000	-0.026	0.095
-738.069	227.308	-0.114	-0.190
-737.054	101.585	0.273	0.325
-736.039	800.000	0.007	0.026
-735.025	526.996	-0.210	0.506
-734.010	34.278	0.258	-0.231
-732.996	-14.717	-0.050	-0.033
-731.981	800.000	0.083	-0.280
-730.966	458.357	-0.126	-0.286
-729.952	-80.660	-0.136	-0.046
-728.937	-200.000	-0.013	-0.145
-727.923	-200.000	-0.007	-0.070
-726.908	133.305	0.135	-0.179
-725.894	-106.118	-0.204	0.047
-724.879	47.229	-0.466	-0.444
-723.864	74.996	-0.154	0.166
-722.850	326.066	-0.180	0.353
-721.835	-50.951	0.237	-0.114
-720.821	-43.208	-0.141	-0.073
-719.806	67.044	-0.093	0.097
-718.791	106.378	0.126	-0.153
-717.777	314.356	-0.032	0.062
-716.762	-200.000	-0.017	0.228
-715.748	4.003	0.095	-0.071
-714.733	-155.383	-0.223	-0.015
-713.718	-50.218	-0.446	-0.216
-712.704	800.000	0.023	0.071
-711.689	-115.199	0.345	0.067
-710.675	-200.000	-0.011	0.067
-709.660	-166.122	-0.597	0.026
-708.645	138.218	0.109	-0.146
-707.631	448.728	0.042	0.094
-706.616	-64.990	-0.216	-0.089
-705.602	-200.000	0.012	0.141
-704.587	218.961	0.217	0.355
-703.572	-200.000	0.006	0.028
-702.558	-46.874	0.041	0.021
-701.543	-200.000	0.021	-0.141
-700.529	-148.741	0.250	-0.021
-699.514	800.000	-0.107	-0.479
-698.499	-200.000	0.037	-0.268
-697.485	-169.865	-0.196	-0.007
-696.470	58.143	-0.180	-0.180
-695.456	-75.627	-0.196	-0.071
-694.441	-76.494	0.161	-0.058
-693.426	-70.386	-0.207	-0.080
-692.412	-18.018	0.153	-0.098
-691.397	800.000	0.026	0.104
-690.383	800.000	-0.043	0.146
-689.368	-83.479	-0.047	-0.015
-688.354	800.000	0.080	-0.291
-687.339	-69.666	-0.140	0.055
-686.324	-116.949	0.137	-0.026
-685.310	800.000	0.061	-0.243
-684.295	-200.000	-0.020	-0.238
-683.281	96.657	-0.101	0.118
-682.266	3.102	-0.052	0.039
-681.251	26.006	0.097	0.082
-680.237	800.000	-0.048	-0.210
-679.222	-200.000	0.039	-0.432
-678.208	28.985	0.179	-0.155
-677.193	38.255	-0.159	-0.145
-676.178	81.063	0.138	-0.152
-675.164	-50.803	-0.404	-0.194
-674.149	-9.424	0.345	-0.235
-673.135	-48.549	0.173	-0.085
-672.120	-200.000	-0.015	0.081
-671.105	-200.000	0.018	0.087
-670.091	-47.263	-0.207	-0.103
-669.076	-32.417	-0.211	-0.120
-668.062	139.486	-0.158	-0.213
-667.047	-26.573	0.266	-0.159
-666.032	-73.003	0.252	-0.094
-665.018	-112.539	-0.223	-0.045
-664.003	-200.000	0.039	0.316
-662.989	240.036	0.069	-0.118
-661.974	-153.631	-0.126	-0.009
-660.959	-200.000	-0.009	-0.111
-659.945	227.921	0.011	-0.018
-658.930	-159.309	-0.255	-0.015
-657.916	800.000	-0.028	0.093
-656.901	739.211	0.020	-0.054
-655.886	800.000	0.075	-0.306
-654.872	-58.644	0.346	-0.153
-653.857	139.973	-0.174	-0.233
-652.843	117.555	0.131	0.165
-651.828	180.262	0.169	-0.253
-650.814	4.869	0.133	0.099
-649.799	302.345	-0.037	-0.069
-648.784	47.729	-0.426	0.406
-647.770	-108.327	-0.061	-0.013
-646.755	-132.061	-0.172	-0.023
-645.741	205.477	0.054	0.085
-644.726	129.933	-0.129	0.169
-643.711	-93.117	0.341	-0.097
-642.697	-129.212	0.445	0.063
-641.682	-200.000	-0.004	0.067
-640.668	28.734	-0.143	-0.123
-639.653	-62.236	-0.167	0.071
-638.638	-175.038	0.018	-0.001
-637.624	-83.349	0.275	-0.090
-636.609	-108.027	-0.413	-0.091
-635.595	94.674	-0.154	0.179
-634.580	-83.408	-0.153	-0.050
-633.565	398.986	0.019	0.041
-632.551	800.000	0.026	0.090
-631.536	698.084	-0.053	0.142
-630.522	74.873	0.074	0.079
-629.507	-25.658	-0.188	0.113
-628.492	800.000	0.068	-0.194
-627.478	-68.649	0.182	0.072
-626.463	-137.310	0.319	-0.037
-625.449	-75.394	-0.193	0.070
-624.434	-15.171	0.170	-0.111
-623.419	-35.001	-0.202	0.112
-622.405	334.393	-0.085	-0.168
-621.390	664.436	0.151	-0.396
-620.376	-60.042	-0.091	0.040
-619.361	-72.510	-0.265	0.100
-618.346	-200.000	0.039	-0.217
-617.332	800.000	-0.079	0.250
-616.317	9.488	0.117	-0.090
-615.303	800.000	-0.103	-0.431
-614.288	-82.901	-0.321	-0.106
-613.273	-53.236	0.100	0.047
-612.259	-200.000	-0.001	-0.089
-611.244	9.178	0.175	0.135
-610.230	-164.516	0.149	0.007
-609.215	60.366	-0.196	0.197
-608.201	800.000	0.072	-0.216
-607.186	-94.413	0.379	-0.105
-606.171	-35.278	-0.359	-0.199
-605.157	-53.377	0.139	0.065
-604.142	-76.283	0.066	-0.024
-603.128	-200.000	-0.021	-0.447
-602.113	-117.991	-0.227	-0.041
-601.098	573.720	0.154	-0.383
-600.084	-200.000	-0.037	0.262
-599.069	-200.000	0.066	0.297
-598.055	-200.000	-0.010	0.158
-597.040	-200.000	0.007	-0.828
-596.025	60.661	-0.262	0.264
-595.011	-23.521	0.129	-0.079
-593.996	-200.000	-0.008	-0.051
-592.982	-162.896	-0.370	0.018
-591.967	-82.555	0.242	-0.080
-590.952	-200.000	-0.000	-0.189
-589.938	-24.251	0.317	-0.193
-588.923	-200.000	-0.042	-0.589
-587.909	800.000	-0.098	-0.385
-586.894	702.907	-0.138	-0.370
-585.879	-200.000	-0.030	0.346
-584.865	800.000	0.068	-0.283
-583.850	75.540	0.174	0.186
-582.836	400.149	-0.061	0.131
-581.821	201.829	-0.064	0.100
-580.806	-0.139	0.120	-0.087
-579.792	-63.125	-0.398	0.167
-578.777	155.219	0.133	0.187
-577.763	-200.000	0.006	-0.056
-576.748	-200.000	0.000	0.350
-575.733	-176.716	-0.334	-0.009
-574.719	-23.437	-0.245	-0.149
-573.704	116.179	0.145	-0.180
-572.690	-58.383	-0.198	-0.088
-571.675	-68.163	0.204	-0.081
-570.661	-168.770	0.057	-0.002
-569.646	-110.460	-0.068	-0.014
-568.631	82.034	0.171	0.188
-567.617	-200.000	0.042	0.208
-566.602	800.000	-0.106	0.353
-565.588	-200.000	-0.001	0.285
-564.573	-200.000	0.031	-0.424
-563.558	99.887	-0.104	-0.122
-562.544	-121.590	-0.154	0.026
-561.529	138.026	0.121	0.161
-560.515	2.777	-0.151	0.111
-559.500	-117.716	0.054	-0.010
-558.485	120.106	-0.117	-0.148
-557.471	707.873	-0.093	-0.249
-556.456	-195.875	-0.484	-0.004
-555.442	289.876	-0.177	0.327
-554.427	11.229	0.200	0.155
-553.412	746.348	-0.079	-0.216
-552.398	40.279	-0.145	-0.132
-551.383	420.476	0.083	0.181
-550.369	452.227	0.045	-0.100
-549.354	-119.230	-0.278	0.049
-548.339	-18.552	-0.285	-0.181
-547.325	-115.464	-0.158	0.030
-546.310	-78.593	-0.154	-0.053
-545.296	453.127	0.217	-0.488
-544.281	-200.000	-0.012	-0.112
-543.266	522.646	0.134	-0.319
-542.252	-93.332	-0.184	-0.052
-541.237	800.000	-0.062	-0.185
-540.223	800.000	0.026	0.100
-539.208	210.625	0.132	0.210
-538.193	268.690	0.109	-0.194
-537.179	-110.311	0.285	0.060
-536.164	-26.184	0.192	0.114
-535.150	-200.000	-0.003	-0.138
-534.135	237.552	0.076	0.128
-533.121	800.000	0.036	-0.110
-532.106	97.524	0.153	0.179
-531.091	-86.684	-0.496	0.154
-530.077	-10.743	0.420	0.282
-529.062	46.204	0.035	-0.033
-528.048	19.127	-0.069	0.056
-527.033	105.020	-0.091	0.109
-526.018	-108.663	-0.409	0.089
-525.004	-200.000	-0.030	-0.215
-523.989	-75.043	-0.091	-0.033
-522.975	-162.265	-0.186	0.009
-521.960	800.000	-0.004	0.015
-520.945	63.674	-0.145	0.148
-519.931	800.000	-0.047	-0.200
-518.916	29.876	-0.096	-0.083
-517.902	4.771	-0.181	0.135
-516.887	153.949	-0.066	0.091
-515.872	30.632	-0.466	-0.404
-514.858	-19.499	-0.238	0.149
-513.843	112.176	0.161	0.198
-512.829	-11.477	-0.156	0.104
-511.814	40.165	0.185	-0.169
-510.799	-138.745	0.148	0.016
-509.785	-200.000	0.016	-0.310
-508.770	13.542	0.337	-0.265
-507.756	-200.000	0.026	0.193
-506.741	47.870	0.223	-0.211
-505.726	-83.240	0.263	0.086
-504.712	137.713	0.111	0.147
-503.697	800.000	-0.030	-0.099
-502.683	-200.000	-0.048	0.551
-501.668	-103.929	0.189	-0.045
-500.653	-200.000	0.022	-0.423
-499.639	-200.000	-0.017	0.283
-498.624	58.088	-0.321	-0.319
-497.610	-121.308	0.299	0.050
-496.595	-26.611	0.342	0.203
-495.581	-110.227	0.144	-0.030
-494.566	-80.165	-0.183	0.062
-493.551	280.304	0.028	-0.051
-492.537	-40.225	-0.110	-0.058
-491.522	-112.383	-0.634	0.129
-490.508	13.073	0.159	-0.125
-489.493	-35.926	-0.363	0.199
-488.478	-118.197	-0.414	-0.075
-487.464	280.480	0.049	-0.089
-486.449	582.471	0.107	-0.266
-485.435	-36.185	-0.148	-0.081
-484.420	-200.000	-0.011	0.156
-483.405	-105.725	0.182	-0.042
-482.391	-57.787	0.143	-0.063
-481.376	-155.465	-0.110	-0.007
-480.362	274.530	0.099	0.177
-479.347	-200.000	0.033	-0.233
-478.332	800.000	-0.012	-0.051
-477.318	70.524	-0.109	-0.115
-476.303	-172.939	0.035	-0.001
-475.289	407.676	-0.120	0.257
-474.274	-200.000	-0.023	-0.150
-473.259	-23.511	-0.287	-0.174
-472.245	237.970	0.181	-0.303
-471.230	-62.726	0.082	-0.034
-470.216	-200.000	0.051	0.296
-469.201	-200.000	-0.008	0.057
-468.186	-200.000	-0.026	-0.307
-467.172	-124.539	0.145	0.023
-466.157	-200.000	0.006	-0.091
-465.143	-200.000	-0.007	-0.110
-464.128	-18.720	-0.135	0.085
-463.113	-11.382	0.166	0.111
-462.099	800.000	0.021	-0.078
-461.084	-200.000	0.032	0.155
-460.070	110.740	0.180	0.219
-459.055	-134.491	-0.205	-0.025
-458.040	-46.665	-0.316	-0.157
-457.026	170.237	0.076	0.110
-456.011	-110.927	0.186	-0.039
-454.997	-200.000	0.004	-0.188
-453.982	47.697	0.225	0.212
-452.968	142.848	-0.126	0.169
-451.953	-37.507	0.127	0.068
-450.938	117.297	0.096	0.119
-449.924	47.512	0.091	0.086
-448.909	800.000	0.100	0.403
-447.895	9.261	0.139	0.106
-446.880	717.021	0.079	0.212
-445.865	142.370	-0.214	0.287
-444.851	-200.000	0.050	0.321
-443.836	179.074	-0.166	-0.246
-442.822	800.000	-0.106	0.321
-441.807	-37.460	0.194	-0.104
-440.792	-57.272	0.315	0.140
-439.778	-200.000	-0.003	-0.110
-438.763	-56.254	0.220	-0.099
-437.749	329.684	-0.052	0.101
-436.734	-137.395	0.345	0.040
-435.719	83.567	-0.108	-0.119
-434.705	-200.000	-0.018	-0.191
-433.690	299.110	0.098	0.181
-432.676	498.940	0.061	0.141
-431.661	215.015	-0.134	0.214
-430.646	-8.085	0.273	-0.186
-429.632	-119.656	-0.192	-0.034
-428.617	-200.000	0.036	0.212
-427.603	800.000	-0.057	-0.167
-426.588	497.665	0.036	0.084
-425.573	-200.000	-0.041	-0.218
-424.559	-171.891	0.070	-0.002
-423.544	3.735	0.166	-0.123
-422.530	49.040	-0.253	-0.240
-421.515	31.344	0.054	0.047
-420.500	-200.000	0.006	0.033
-419.486	-200.000	-0.010	0.053
-418.471	185.309	0.081	0.122
-417.457	-62.653	0.376	0.157
-416.442	309.092	0.055	0.104
-415.428	226.706	-0.089	-0.146
-414.413	84.640	-0.148	0.164
-413.398	800.000	-0.028	-0.086
-412.384	-200.000	-0.010	-0.220
-411.369	113.528	-0.094	-0.116
-410.355	-183.264	-0.206	-0.004
-409.340	465.727	0.067	-0.151
-408.325	97.748	-0.187	0.217
-407.311	78.417	-0.102	0.110
-406.296	-58.688	-0.156	-0.068
-405.282	-143.409	-0.116	-0.011
-404.267	-32.282	0.211	0.119
-403.252	635.130	-0.065	0.166
-402.238	800.000	0.047	0.132
-401.223	-103.191	0.087	-0.021
-400.209	-19.781	-0.100	-0.062
-399.194	-200.000	0.005	-0.145
-398.179	800.000	0.066	-0.187
-397.165	676.205	0.085	0.223
-396.150	800.000	-0.067	0.222
-395.136	275.534	-0.101	-0.180
-394.121	-51.399	-0.264	0.124
-393.106	-200.000	0.047	-0.218
-392.092	-68.349	-0.364	0.143
-391.077	800.000	0.026	-0.113
-390.063	800.000	-0.021	-0.086
-389.048	56.724	-0.150	0.147
-388.033	33.907	-0.253	0.222
-387.019	800.000	-0.058	0.218
-386.004	-200.000	-0.012	0.133
-384.990	800.000	0.050	0.206
-383.975	132.269	-0.048	-0.063
-382.960	-67.070	-0.084	0.033
-381.946	-200.000	0.042	0.253
-380.931	-33.883	0.303	0.168
-379.917	291.107	0.141	-0.258
-378.902	-137.830	-0.315	-0.036
-377.888	-78.463	-0.127	0.044
-376.873	-141.074	-0.205	-0.021
-375.858	-200.000	0.047	-0.226
-374.844	-16.569	-0.087	0.056
-373.829	-200.000	-0.020	-0.166
-372.815	91.029	-0.096	-0.109
-371.800	-21.053	0.048	-0.030
-370.785	-32.195	-0.148	0.083
-369.771	-26.141	-0.087	0.052
-368.756	493.632	0.063	0.145
-367.742	12.944	0.133	-0.104
-366.727	-175.428	0.358	-0.010
-365.712	800.000	-0.082	0.231
-364.698	120.182	0.046	-0.058
-363.683	800.000	-0.064	-0.263
-362.669	73.744	0.208	0.219
-361.654	81.466	-0.154	0.168
-360.639	-17.926	0.224	0.142
-359.625	-200.000	-0.228	-0.000
-358.610	37.933	0.289	0.259
-357.596	372.974	0.156	0.320
-356.581	278.544	-0.096	0.172
-355.566	-200.000	-0.001	-0.092
-354.552	-117.003	-0.200	0.037
-353.537	-119.678	0.246	-0.043
-352.523	111.025	0.141	-0.171
-351.508	-200.000	-0.012	-0.162
-350.493	151.269	0.217	-0.297
-349.479	21.754	0.106	0.087
-348.464	164.144	0.219	0.310
-347.450	132.665	0.126	0.164
-346.435	-179.683	0.058	0.001
-345.420	-44.687	-0.275	0.138
-344.406	-55.039	0.145	-0.066
-343.391	-112.243	-0.102	0.021
-342.377	149.617	0.179	-0.245
-341.362	-100.515	-0.308	-0.077
-340.348	66.387	-0.070	-0.072
-339.333	-175.731	0.255	-0.007
-338.318	440.580	0.153	0.338
-337.304	800.000	-0.058	0.233
-336.289	-59.057	-0.051	0.022
-335.275	-200.000	-0.044	-0.334
-334.260	517.383	-0.067	-0.157
-333.245	-200.000	-0.012	0.442
-332.231	202.201	0.286	0.444
-331.216	-200.000	0.022	0.109
-330.202	-136.710	-0.185	0.021
-329.187	422.656	-0.033	0.071
-328.172	-200.000	-0.017	0.228
-327.158	271.888	-0.162	0.288
-326.143	-72.873	-0.081	0.030
-325.129	285.078	0.010	-0.018
-324.114	-200.000	-0.024	-0.147
-323.099	-175.231	-0.228	-0.006
-322.085	-104.066	-0.184	-0.043
-321.070	-200.000	-0.021	-0.251
-320.056	367.732	0.101	-0.206
-319.041	-200.000	-0.005	-0.055
-318.026	-133.716	0.422	-0.053
-317.012	343.155	-0.092	-0.182
-315.997	-18.982	-0.158	-0.099
-314.983	-200.000	0.026	0.261
-313.968	730.154	-0.038	-0.103
-312.953	-46.468	-0.157	0.077
-311.939	-47.242	0.177	-0.087
-310.924	44.127	-0.215	0.199
-309.910	154.564	-0.065	-0.090
-308.895	-121.592	0.200	0.033
-307.880	-200.000	-0.052	0.331
-306.866	-52.918	0.206	-0.095
-305.851	662.063	0.030	-0.077
-304.837	236.622	0.142	-0.236
-303.822	800.000	-0.094	-0.272
-302.807	412.184	-0.122	-0.260
-301.793	-8.584	0.112	0.076
-300.778	-200.000	-0.398	-0.001
-299.764	11.631	0.200	0.155
-298.749	231.205	-0.275	0.454
-297.735	-110.516	0.156	0.033
-296.720	-92.359	0.199	0.056
-295.705	-200.000	0.002	0.188
-294.691	84.971	0.187	-0.206
-293.676	-35.839	-0.207	0.113
-292.662	-200.000	-0.049	-0.245
-291.647	-130.762	0.222	-0.030
-290.632	-200.000	-0.024	-0.216
-289.618	-200.000	0.062	-0.299
-288.603	800.000	0.096	0.313
-287.589	39.080	-0.148	-0.133
-286.574	37.474	-0.176	-0.157
-285.559	52.301	0.125	-0.120
-284.545	36.621	-0.182	0.162
-283.530	-19.542	-0.256	0.160
-282.516	777.647	0.095	-0.260
-281.501	-125.282	0.088	-0.014
-280.486	-14.937	-0.190	-0.122
-279.472	87.724	-0.057	0.063
-278.457	-11.157	-0.240	-0.159
-277.443	1.733	-0.057	-0.042
-276.428	-200.000	-0.013	0.125
-275.413	115.944	0.077	0.095
-274.399	99.595	0.153	0.177
-273.384	-200.000	-0.072	0.495
-272.370	-107.080	0.299	-0.066
-271.355	-56.998	-0.060	0.027
-270.340	-46.926	0.023	-0.011
-269.326	-97.708	0.197	0.051
-268.311	-200.000	-0.009	-0.223
-267.297	800.000	-0.035	0.104
-266.282	420.726	0.086	0.185
-265.267	180.660	0.108	-0.160
-264.253	-200.000	-0.017	-0.218
-263.238	-139.400	0.266	-0.029
-262.224	499.627	0.180	-0.416
-261.209	-126.725	0.103	0.015
-260.195	-200.000	0.191	0.001
-259.180	-200.000	0.009	0.109
-258.165	14.065	-0.117	0.092
-257.151	421.328	-0.108	0.234
-256.136	800.000	-0.014	0.052
-255.122	-158.021	0.237	0.014
-254.107	800.000	0.119	0.448
-253.092	47.028	-0.187	0.175
-252.078	-136.301	0.552	0.065
-251.063	800.000	-0.031	-0.100
-250.049	22.263	-0.263	-0.215
-249.034	-144.468	0.353	0.033
-248.019	-57.578	-0.230	0.101
-247.005	402.644	-0.018	-0.039
-245.990	192.591	0.189	-0.287
-244.976	-105.296	-0.149	-0.034
-243.961	228.213	0.161	-0.262
-242.946	800.000	0.086	-0.243
-241.932	67.162	0.295	0.302
-240.917	-200.000	-0.016	0.282
-239.903	127.329	-0.151	0.192
-238.888	-59.769	-0.227	0.097
-237.873	336.846	0.057	0.111
-236.859	8.621	0.198	-0.149
-235.844	-182.734	0.403	0.007
-234.830	369.713	0.098	0.200
-233.815	-117.049	0.210	-0.039
-232.800	-27.159	0.236	-0.138
-231.786	-200.000	-0.012	-0.222
-230.771	119.520	-0.078	-0.097
-229.757	-200.000	0.027	-0.191
-228.742	800.000	-0.102	0.422
-227.727	586.426	0.078	-0.192
-226.713	-200.000	-0.046	-0.303
-225.698	-27.976	0.184	0.107
-224.684	-42.187	-0.181	-0.093
-223.669	-91.477	-0.223	0.064
-222.655	425.501	0.094	-0.202
-221.640	-20.953	0.169	-0.104
-220.625	-179.204	-0.568	0.013
-219.611	-151.126	0.413	0.031
-218.596	-14.341	-0.092	0.059
-217.582	-200.000	0.024	-0.241
-216.567	381.205	-0.038	0.078
-215.552	48.489	0.050	0.047
-214.538	300.414	-0.035	0.064
-213.523	-79.291	0.344	0.117
-212.509	332.595	0.079	-0.154
-211.494	-119.504	-0.221	0.038
-210.479	66.048	0.115	-0.117
-209.465	-65.419	0.300	-0.121
-208.450	800.000	0.088	-0.324
-207.436	17.721	-0.027	-0.021
-206.421	-46.875	-0.133	0.065
-205.406	185.773	0.299	0.445
-204.392	-36.039	-0.046	-0.025
-203.377	339.567	0.146	-0.285
-202.363	-42.265	-0.207	-0.106
-201.348	-133.164	0.107	0.014
-200.333	-142.339	0.253	0.025
-199.319	800.000	0.048	-0.175
-198.304	34.137	0.231	-0.202
-197.290	-6.498	-0.154	0.105
-196.275	-200.000	0.006	0.361
-195.260	-1.820	-0.174	0.122
-194.246	-200.000	0.073	-0.385
-193.231	-200.000	0.008	0.062
-192.217	-80.607	-0.300	0.100
-191.202	64.399	0.216	-0.218
-190.187	546.800	0.053	0.126
-189.173	161.180	0.138	0.192
-188.158	83.445	0.118	0.128
-187.144	-158.694	0.193	-0.011
-186.129	-21.768	-0.317	-0.193
-185.114	-200.000	-0.017	0.107
-184.100	-143.338	0.233	0.022
-183.085	-111.772	0.181	0.037
-182.071	-112.270	0.300	-0.060
-181.056	-200.000	0.018	-0.167
-180.042	-20.809	0.010	-0.006
-179.027	196.174	-0.065	-0.100
-178.012	-74.777	-0.082	0.029
-176.998	-200.000	-0.029	0.183
-175.983	126.838	-0.078	0.099
-174.969	-122.242	-0.269	-0.044
-173.954	132.387	0.032	0.042
-172.939	116.719	0.171	-0.210
-171.925	85.900	-0.292	0.322
-170.910	-74.459	0.240	-0.086
-169.896	37.548	0.090	0.080
-168.881	-20.044	-0.289	-0.178
-167.866	246.098	0.067	-0.113
-166.852	800.000	-0.013	-0.054
-165.837	29.300	-0.046	-0.039
-164.823	-31.429	-0.141	0.079
-163.808	166.359	-0.074	0.105
-162.793	-120.384	-0.117	-0.020
-161.779	609.424	-0.089	0.223
-160.764	800.000	0.063	0.266
-159.750	245.676	0.182	-0.307
-158.735	-200.000	0.043	0.252
-157.720	612.269	-0.082	-0.204
-156.706	-49.151	0.143	0.068
-155.691	178.495	-0.081	-0.118
-154.677	-48.940	-0.315	0.151
-153.662	-200.000	-0.050	0.276
-152.647	-200.000	0.040	-0.376
-151.633	800.000	0.071	-0.229
-150.618	-200.000	-0.004	-0.065
-149.604	-102.013	-0.151	0.036
-148.589	800.000	-0.148	0.422
-147.574	-46.353	-0.180	-0.089
-146.560	-200.000	-0.016	-0.181
-145.545	-96.957	0.154	0.040
-144.531	-200.000	0.005	0.165
-143.516	-200.000	0.061	0.269
-142.502	550.524	-0.156	0.375
-141.487	57.224	-0.136	0.133
-140.472	228.168	0.130	0.212
-139.458	-200.000	0.024	0.150
-138.443	78.152	-0.075	0.080
-137.429	108.136	-0.098	-0.116
-136.414	-96.009	0.314	0.084
-135.399	195.773	-0.033	-0.050
-134.385	-79.560	0.097	-0.033
-133.370	800.000	0.047	0.169
-132.356	-166.179	0.236	0.010
-131.341	800.000	0.051	0.220
-130.326	800.000	-0.049	-0.150
-129.312	-129.342	0.099	0.014
-128.297	71.414	0.103	-0.107
-127.283	-97.596	0.180	-0.047
-126.268	-168.103	0.186	-0.007
-125.253	477.135	-0.066	0.150
-124.239	46.882	0.161	0.149
-123.224	-90.683	-0.352	0.101
-122.210	-120.410	0.425	-0.072
-121.195	-160.951	0.188	-0.010
-120.180	-200.000	-0.020	0.271
-119.166	-200.000	0.061	-0.270
-118.151	190.222	0.127	0.190
-117.137	-200.000	0.441	0.000
-116.122	-69.584	-0.429	0.164
-115.107	178.659	-0.061	-0.090
-114.093	46.407	-0.136	-0.126
-113.078	38.536	-0.317	0.282
-112.064	-67.846	0.326	0.127
-111.049	381.745	-0.044	0.089
-110.034	56.216	-0.122	-0.119
-109.020	64.451	-0.186	-0.187
-108.005	-200.000	-0.053	0.251
-106.991	-148.282	0.252	-0.021
-105.976	-97.178	-0.023	0.006
-104.962	275.463	0.072	-0.127
-103.947	189.270	-0.148	0.221
-102.932	-24.978	0.206	0.122
-101.918	123.544	0.163	-0.204
-100.903	-78.985	-0.081	-0.027
-99.889	-28.250	0.272	0.157
-98.874	126.114	-0.247	-0.311
-97.859	183.252	-0.125	-0.184
-96.845	278.376	0.040	-0.072
-95.830	162.293	-0.097	-0.136
-94.816	30.450	-0.141	0.120
-93.801	515.363	-0.027	0.063
-92.786	16.083	-0.510	-0.401
-91.772	73.184	0.240	0.250
-90.757	-200.000	-0.021	-0.292
-89.743	26.436	0.182	0.152
-88.728	-54.695	-0.231	0.104
-87.713	-200.000	0.013	0.138
-86.699	20.995	-0.208	-0.169
-85.684	114.365	0.157	0.190
-84.670	29.747	0.160	-0.136
-83.655	467.382	0.081	0.181
-82.640	370.852	0.113	0.229
-81.626	560.823	-0.109	-0.263
-80.611	5.135	-0.319	0.234
-79.597	55.056	0.135	0.130
-78.582	216.956	-0.169	0.268
-77.567	-120.796	0.201	0.034
-76.553	5.964	0.338	0.249
-75.538	-85.896	-0.220	-0.068
-74.524	800.000	-0.135	0.412
-73.509	800.000	-0.107	0.389
-72.494	-200.000	0.008	0.187
-71.480	800.000	0.073	-0.275
-70.465	160.323	0.122	0.170
-69.451	93.762	0.091	0.103
-68.436	148.372	0.258	0.347
-67.422	-135.458	-0.174	0.021
-66.407	800.000	0.030	-0.112
-65.392	267.290	0.120	0.209
-64.378	144.380	-0.122	0.163
-63.363	-200.000	-0.061	0.364
-62.349	800.000	-0.039	-0.112
-61.334	-16.330	-0.693	-0.438
-60.319	-41.387	0.432	0.222
-59.305	-200.000	0.025	-0.799
-58.290	335.650	0.476	0.920
-57.276	800.000	0.538	1.727
-56.261	-200.000	78.726	518.654
-55.246	500.246	1345.782	3091.542
-54.232	144.125	2589.179	3439.814
-53.217	112.686	2273.391	2741.238
-52.203	50.168	1796.603	1689.298
-51.188	43.179	1594.539	1449.259
-50.173	40.632	1564.048	1403.500
-49.159	56.672	1602.567	1552.971
-48.144	61.542	1622.089	1606.610
-47.130	43.646	1585.340	1443.999
-46.115	40.219	1570.367	1406.012
-45.100	39.964	1566.945	1401.087
-44.086	39.931	1564.971	1399.032
-43.071	39.840	1562.431	1396.065
-42.057	39.869	1560.698	1394.666
-41.042	39.735	1559.691	1392.766
-40.027	39.912	1557.530	1392.026
-39.013	39.877	1555.759	1390.140
-37.998	39.856	1554.562	1388.866
-36.984	39.864	1553.576	1387.987
-35.969	39.858	1552.485	1386.917
-34.954	39.914	1550.326	1385.327
-33.940	39.912	1549.260	1384.308
-32.925	39.895	1547.830	1382.856
-31.911	39.863	1546.043	1380.979
-30.896	39.964	1544.707	1380.438
-29.881	39.886	1543.496	1378.756
-28.867	39.946	1542.214	1377.970
-27.852	39.961	1540.742	1376.704
-26.838	39.933	1539.121	1375.006
-25.823	39.969	1537.209	1373.495
-24.809	39.913	1535.593	1371.613
-23.794	39.913	1534.036	1370.162
-22.779	39.940	1533.159	1369.515
-21.765	39.890	1532.611	1368.623
-20.750	39.957	1530.904	1367.510
-19.736	39.962	1529.443	1366.183
-18.721	39.893	1529.071	1365.322
-17.706	39.940	1527.422	1364.120
-16.692	39.894	1526.189	1362.645
-15.677	39.861	1525.507	1361.755
-14.663	39.836	1524.066	1360.245
-13.648	39.868	1523.382	1359.796
-12.633	39.764	1522.500	1358.244
-11.619	39.871	1521.321	1357.868
-10.604	39.793	1520.709	1356.738
-9.590	39.805	1519.508	1355.694
-8.575	39.744	1518.931	1354.705
-7.560	39.782	1517.832	1353.934
-6.546	39.804	1516.964	1353.255
-5.531	39.877	1515.724	1352.592
-4.517	39.879	1515.199	1352.083
-3.502	39.835	1514.272	1350.906
-2.487	39.785	1512.766	1349.164
-1.473	39.803	1511.733	1348.314
-0.458	39.903	1510.122	1347.507
0.556	39.085	1501.449	1338.133
1.571	36.413	1473.983	1295.644
2.586	31.634	1408.007	1206.821
3.600	28.364	1318.962	1110.618
4.615	25.306	1267.371	1049.239
5.629	20.796	1207.664	974.542
6.644	10.641	1116.483	848.069
7.659	2.497	1069.656	771.523
8.673	1.115	1063.485	760.079
9.688	0.864	1060.845	756.871
10.702	0.860	1059.106	755.545
11.717	0.742	1057.953	754.064
12.731	3.352	1060.555	768.891
13.746	11.572	1071.947	818.405
14.761	17.571	1079.132	853.982
15.775	17.902	1078.239	854.856
16.790	17.045	1076.411	849.046
17.804	16.140	1073.969	842.526
18.819	15.183	1072.445	836.480
19.834	14.784	1070.906	833.219
20.848	14.372	1069.815	830.243
21.863	14.230	1068.853	828.715
22.877	13.891	1068.283	826.513
23.892	13.636	1067.411	824.495
24.907	13.554	1066.638	823.417
25.921	13.616	1065.614	822.863
26.936	13.655	1065.152	822.629
27.950	13.682	1064.506	822.190
28.965	13.583	1063.926	821.181
29.980	13.770	1063.017	821.329
30.994	13.882	1061.535	820.665
32.009	13.836	1061.017	819.967
33.023	13.841	1060.310	819.371
34.038	13.820	1059.600	818.647
35.053	13.806	1058.486	817.645
36.067	13.825	1057.529	816.926
37.082	13.693	1056.797	815.638
38.096	13.895	1055.662	815.683
39.111	13.827	1055.635	815.257
40.126	13.825	1054.800	814.532
41.140	13.720	1053.331	812.810
42.155	13.752	1052.188	812.010
43.169	13.580	1051.377	810.472
44.184	13.561	1050.190	809.393
45.199	13.648	1049.119	808.921
46.213	13.603	1048.210	807.928
47.228	13.551	1047.349	806.938
48.242	13.608	1046.072	806.161
49.257	13.781	1044.891	806.023
50.271	13.679	1044.187	804.912
51.286	13.718	1043.302	804.349
52.301	13.727	1042.744	803.890
53.315	13.781	1041.976	803.489
54.330	13.632	1041.640	802.438
55.344	13.712	1040.316	801.733
56.359	13.660	1038.601	800.091
57.374	13.753	1038.209	800.166
58.388	13.698	1037.475	799.264
59.403	13.575	1036.914	798.166
60.417	13.596	1035.860	797.385
61.432	13.617	1035.060	796.803
62.447	13.547	1034.348	795.844
63.461	13.474	1034.102	795.237
64.476	13.528	1032.335	794.064
65.490	13.585	1032.118	794.100
66.505	13.575	1031.368	793.405
67.520	13.567	1030.182	792.386
68.534	13.576	1029.578	791.894
69.549	13.489	1028.886	790.877
70.563	13.506	1028.071	790.261
71.578	13.521	1027.419	789.763
72.593	13.601	1026.373	789.271
73.607	13.585	1025.627	788.547
74.622	13.534	1024.391	787.288
75.636	13.437	1023.686	786.216
76.651	13.459	1022.797	785.565
77.666	13.576	1021.913	785.373
78.680	13.502	1021.542	784.668
79.695	13.532	1020.584	784.006
80.709	13.535	1020.153	783.616
81.724	13.490	1019.587	782.903
82.739	13.663	1018.558	782.859
83.753	13.614	1017.944	782.088
84.768	13.648	1017.130	781.551
85.782	13.723	1016.252	781.164
86.797	13.685	1015.753	780.531
87.812	13.724	1014.573	779.740
88.826	13.653	1013.997	778.892
89.841	13.535	1013.011	777.511
90.855	13.726	1012.060	777.611
91.870	13.782	1011.259	777.188
92.884	13.695	1010.578	776.188
93.899	13.762	1009.806	775.838
94.914	13.800	1009.161	775.452
95.928	13.836	1008.413	774.979
96.943	13.966	1007.667	774.944
97.957	13.805	1006.997	773.607
98.972	13.747	1006.292	772.725
99.987	13.815	1005.439	772.320
101.001	13.765	1005.012	771.689
102.016	13.835	1003.912	771.105
103.030	13.733	1002.963	769.832
104.045	13.813	1001.758	769.212
105.060	13.782	1000.848	768.299
106.074	13.845	999.912	767.805
107.089	13.709	998.977	766.390
108.103	13.610	998.558	765.545
109.118	13.647	997.462	764.807
110.133	13.703	996.467	764.234
111.147	13.687	995.749	763.545
112.162	13.648	994.933	762.670
113.176	13.654	994.076	761.975
114.191	13.718	993.058	761.422
115.206	13.757	992.084	760.785
116.220	13.646	991.769	759.967
117.235	13.603	990.768	758.935
118.249	13.798	989.503	758.789
119.264	13.712	988.914	757.878
120.279	13.711	988.144	757.220
121.293	13.666	987.159	756.193
122.308	13.729	986.363	755.802
123.322	13.648	985.997	755.084
124.337	13.745	984.886	754.608
125.352	13.612	983.545	752.910
126.366	13.668	982.564	752.349
127.381	13.769	981.118	751.632
128.395	13.602	980.683	750.473
129.410	13.775	979.566	750.336
130.424	13.731	978.459	749.224
131.439	13.624	977.715	748.103
132.454	13.811	976.651	748.068
133.468	13.758	976.193	747.412
134.483	13.805	975.755	747.221
135.497	13.863	974.874	746.742
136.512	13.740	974.133	745.553
137.527	13.849	972.910	745.040
138.541	13.833	972.557	744.635
139.556	13.883	971.859	744.260
140.570	13.745	970.832	742.789
141.585	13.739	970.307	742.293
142.600	13.835	969.418	741.977
143.614	13.888	968.331	741.315
144.629	13.893	967.862	740.912
145.643	13.903	967.259	740.430
146.658	13.955	966.235	739.813
147.673	13.870	965.455	738.772
148.687	13.965	964.413	738.333
149.702	13.820	963.744	737.110
150.716	13.833	962.797	736.378
151.731	13.737	962.083	735.339
152.746	13.882	960.895	735.009
153.760	13.777	960.603	734.256
154.775	13.781	959.942	733.707
155.789	13.950	958.788	733.503
156.804	13.930	958.195	732.899
157.819	13.934	957.637	732.423
158.833	13.841	956.858	731.352
159.848	14.036	955.906	731.420
160.862	13.963	955.804	730.953
161.877	14.018	954.907	730.445
162.892	13.981	953.809	729.380
163.906	13.863	952.913	728.112
164.921	13.761	952.808	727.522
165.935	13.877	951.075	726.641
166.950	13.882	950.530	726.182
167.964	14.057	949.310	725.948
168.979	13.937	948.334	724.616
169.994	13.961	947.934	724.350
171.008	14.113	946.524	723.872
172.023	13.967	946.021	722.787
173.037	13.876	945.564	721.977
174.052	13.994	944.958	721.964
175.067	14.094	943.791	721.441
176.081	14.040	943.231	720.717
177.096	13.926	942.778	719.812
178.110	14.125	941.407	719.564
179.125	14.049	940.661	718.601
180.140	13.998	939.526	717.449
181.154	14.107	938.906	717.383
182.169	14.009	938.685	716.729
183.183	14.125	937.675	716.393
184.198	14.252	937.068	716.414
185.213	14.090	936.583	715.282
186.227	14.202	935.422	714.815
187.242	14.214	935.141	714.588
188.256	14.314	934.416	714.397
189.271	14.318	933.629	713.750
190.286	14.374	932.789	713.286
191.300	14.204	932.432	712.221
192.315	14.062	931.529	710.863
193.329	14.039	930.944	710.254
194.344	14.064	930.213	709.741
195.359	14.185	929.322	709.513
196.373	14.199	929.263	709.466
197.388	14.287	928.540	709.225
198.402	14.336	927.780	708.791
199.417	14.393	927.357	708.648
200.432	14.315	927.357	708.252
201.446	14.278	927.015	707.772
202.461	14.376	926.123	707.444
203.475	14.394	925.913	707.299
204.490	14.552	924.721	706.994
205.504	14.490	923.990	706.111
206.519	14.478	923.592	705.695
207.534	14.519	922.208	704.746
208.548	14.452	921.620	703.951
209.563	14.518	920.792	703.537
210.577	14.450	920.318	702.823
211.592	14.416	919.915	702.310
212.607	14.608	919.178	702.494
213.621	14.523	918.779	701.771
214.636	14.696	917.843	701.721
215.650	14.643	917.052	700.832
216.665	14.645	916.762	700.556
217.680	14.610	916.501	700.146
218.694	14.629	915.875	699.687
219.709	14.693	915.526	699.628
220.723	14.636	914.600	698.616
221.738	14.653	913.777	698.000
222.753	14.650	912.991	697.323
223.767	14.735	912.459	697.210
224.782	14.634	911.870	696.279
225.796	14.631	911.100	695.617
226.811	14.840	910.352	695.854
227.826	14.779	909.668	695.016
228.840	14.715	909.027	694.197
229.855	14.662	908.347	693.395
230.869	14.680	908.034	693.172
231.884	14.806	906.763	692.660
232.899	14.832	906.079	692.186
233.913	14.783	905.290	691.318
234.928	14.739	904.802	690.703
235.942	14.771	903.897	690.085
236.957	14.754	903.515	689.660
237.972	14.736	902.862	689.027
238.986	14.716	902.106	688.305
240.001	14.780	901.163	687.789
241.015	14.819	900.701	687.538
242.030	14.828	899.785	686.814
243.045	14.809	899.405	686.385
244.059	14.938	898.822	686.407
245.074	14.968	897.841	685.723
246.088	14.942	897.086	684.977
247.103	14.978	897.011	685.006
248.117	14.894	896.315	684.073
249.132	15.003	895.790	684.055
250.147	15.121	894.957	683.841
251.161	15.153	894.519	683.578
252.176	15.232	893.865	683.338
253.190	15.162	893.139	682.440
254.205	15.112	892.800	681.915
255.220	15.217	892.353	681.939
256.234	15.147	891.334	680.817
257.249	15.289	890.651	680.813
258.263	15.403	889.608	680.415
259.278	15.415	889.388	680.238
260.293	15.292	888.916	679.318
261.307	15.381	888.294	679.142
262.322	15.361	887.684	678.535
263.336	15.416	887.269	678.378
264.351	15.516	886.324	678.000
265.366	15.546	885.651	677.549
266.380	15.561	885.023	677.068
267.395	15.568	884.440	676.589
268.409	15.520	883.592	675.689
269.424	15.440	883.059	674.899
270.439	15.498	882.567	674.697
271.453	15.422	882.004	673.900
272.468	15.407	880.992	673.009
273.482	15.406	880.580	672.632
274.497	15.468	879.914	672.308
275.512	15.497	879.177	671.802
276.526	15.485	878.516	671.189
277.541	15.577	877.663	670.849
278.555	15.445	877.297	669.981
279.570	15.598	876.746	670.109
280.585	15.658	875.924	669.664
281.599	15.658	875.593	669.349
282.614	15.604	874.788	668.460
283.628	15.559	874.205	667.778
284.643	15.634	873.630	667.576
285.657	15.709	872.901	667.258
286.672	15.676	872.351	666.647
287.687	15.811	871.851	666.743
288.701	15.711	871.419	665.958
289.716	15.774	870.770	665.649
290.730	15.808	870.014	665.148
291.745	15.878	869.557	665.016
292.760	15.758	869.045	664.091
293.774	15.883	868.203	663.882
294.789	15.883	867.650	663.403
295.803	15.873	867.134	662.908
296.818	15.752	866.776	662.101
297.833	15.962	865.774	662.102
298.847	15.980	864.782	661.356
299.862	16.010	864.042	660.847
300.876	15.930	863.797	660.292
301.891	15.834	863.072	659.300
302.906	16.051	862.327	659.524
303.920	15.913	861.924	658.616
304.935	16.002	861.380	658.491
305.949	16.112	860.992	658.565
306.964	16.095	859.966	657.655
307.979	16.006	859.737	657.075
308.993	16.167	859.046	657.115
310.008	16.178	858.099	656.375
311.022	16.263	857.762	656.391
312.037	16.130	857.401	655.539
313.052	16.181	856.872	655.276
314.066	16.238	856.364	655.050
315.081	16.070	855.711	653.840
316.095	16.123	855.202	653.600
317.110	16.208	854.262	653.153
318.125	16.070	853.802	652.211
319.139	16.140	853.894	652.491
320.154	16.139	853.222	651.917
321.168	16.203	852.372	651.458
322.183	16.095	852.065	650.747
323.197	16.238	851.372	650.711
324.212	16.296	850.591	650.280
325.227	16.193	850.539	649.787
326.241	16.464	849.621	650.071
327.256	16.340	848.867	648.962
328.270	16.265	848.790	648.557
329.285	16.339	847.989	648.171
330.300	16.288	847.301	647.394
331.314	16.409	846.665	647.314
332.329	16.458	846.180	647.070
333.343	16.249	845.890	645.992
334.358	16.362	845.117	645.778
335.373	16.365	844.251	645.069
336.387	16.367	844.024	644.847
337.402	16.447	843.069	644.366
338.416	16.416	842.765	643.957
339.431	16.547	842.104	643.893
340.446	16.445	841.735	643.169
341.460	16.446	841.159	642.674
342.475	16.541	840.498	642.475
343.489	16.652	839.782	642.291
344.504	16.750	839.061	642.053
345.519	16.599	838.671	641.127
346.533	16.565	838.549	640.848
347.548	16.677	837.875	640.700
348.562	16.611	837.517	640.120
349.577	16.636	836.789	639.600
350.592	16.556	836.417	638.959
351.606	16.694	835.322	638.585
352.621	16.600	835.257	638.123
353.635	16.677	834.991	638.155
354.650	16.618	834.637	637.604
355.665	16.813	834.085	637.861
356.679	16.681	833.833	637.117
357.694	16.756	833.238	636.887
358.708	16.979	832.041	636.752
359.723	16.886	831.759	636.130
360.738	16.728	831.331	635.156
361.752	16.940	830.720	635.426
362.767	16.807	830.405	634.631
363.781	16.926	830.179	634.848
364.796	17.103	829.538	634.964
365.810	17.108	829.139	634.622
366.825	16.896	828.833	633.538
367.840	16.956	828.456	633.417
368.854	16.898	828.400	633.104
369.869	17.105	827.015	632.760
370.883	17.151	826.651	632.597
371.898	16.925	826.775	631.793
372.913	17.054	825.834	631.498
373.927	17.040	825.064	630.801
374.942	17.105	824.516	630.569
375.956	17.121	823.687	629.937
376.971	16.980	823.797	629.442
377.986	17.194	822.553	629.230
379.000	17.246	822.193	629.091
380.015	17.159	822.047	628.600
381.029	17.217	821.193	628.110
382.044	17.207	820.886	627.779
383.059	17.460	819.937	627.931
384.073	17.432	819.411	627.373
385.088	17.383	818.668	626.568
386.102	17.254	818.552	625.947
387.117	17.322	817.740	625.522
388.132	17.403	817.172	625.327
389.146	17.302	817.149	624.884
390.161	17.176	816.905	624.181
391.175	17.353	816.457	624.434
392.190	17.317	816.145	624.006
393.205	17.335	815.295	623.368
394.219	17.320	814.855	622.919
395.234	17.343	814.314	622.537
396.248	17.289	814.238	622.227
397.263	17.277	813.731	621.740
398.278	17.374	813.163	621.605
399.292	17.321	812.639	620.956
400.307	17.361	811.968	620.534
401.321	17.308	812.081	620.371
402.336	17.462	811.536	620.460
403.350	17.446	810.785	619.773
404.365	17.480	810.512	619.635
405.380	17.497	810.074	619.308
406.394	17.426	809.645	618.667
407.409	17.534	809.107	618.592
408.423	17.718	808.240	618.542
409.438	17.565	808.078	617.808
410.453	17.645	807.832	617.858
411.467	17.555	807.722	617.392
412.482	17.641	807.173	617.230
413.496	17.675	806.707	616.941
414.511	17.754	805.856	616.522
415.526	17.714	805.533	616.074
416.540	17.774	805.223	615.998
417.555	17.783	804.939	615.760
418.569	17.736	804.416	615.137
419.584	17.724	803.930	614.668
420.599	17.700	803.357	614.088
421.613	95.562	1270.007	1391.741
422.628	81.854	1338.001	1391.875
