DTS Sentinel unit serial number:	SN413079Multiplexer serial number:	ORYXHardware model number:	OX4-SRSoftware version number:	ORYX F/W v4.00 Oryx Data Collector v3.7.2.0data status	okinstallation	princeton_trtdifferential loss correction	single-endedforward channel	channel 3reverse channel	N/Adate	2019/09/15time	09:12:35forward acquisition time	60.00reverse acquisition time	0.00gamma	496.2192k internal	0.2311k external	0.2311temperature offset calibration	0.9978default loss term (dB/km)	0.3790temperature slope calibration	1.0000multiplexer offset coefficient	1.0000multiplexer slope coefficient	1.0000fibre end	0.00T internal ref (°C)	33.19T ext. ref 1 (°C)	4.97T ext. ref 2 (°C)	30.23length (m)	temperature (°C)	Stokes	anti-Stokes-747.200	-29.335	0.042	-0.025
-746.185	-50.234	-0.524	0.252
-745.171	-34.577	0.315	-0.175
-744.156	-122.407	0.283	0.047
-743.142	-19.105	-0.189	0.119
-742.127	-37.707	0.109	0.059
-741.112	413.898	0.133	-0.288
-740.098	-82.697	0.195	0.064
-739.083	-200.000	0.021	0.108
-738.069	482.807	0.133	0.307
-737.054	-50.683	0.176	-0.084
-736.039	554.527	-0.121	0.294
-735.025	800.000	-0.105	0.358
-734.010	-121.366	-0.274	-0.046
-732.996	-48.933	-0.070	-0.034
-731.981	44.370	0.210	0.196
-730.966	-35.651	-0.297	0.163
-729.952	-200.000	-0.057	-0.361
-728.937	-158.717	-0.352	0.020
-727.923	338.672	-0.084	-0.167
-726.908	91.940	-0.267	-0.305
-725.894	-107.005	0.148	0.033
-724.879	-144.075	-0.278	-0.026
-723.864	-200.000	0.014	0.164
-722.850	-6.772	-0.287	0.198
-721.835	-115.082	0.119	0.023
-720.821	-24.903	-0.186	-0.112
-719.806	9.143	-0.150	0.115
-718.791	-120.446	0.185	-0.032
-717.777	-200.000	0.019	0.094
-716.762	-164.481	0.186	-0.009
-715.748	-29.721	-0.306	-0.177
-714.733	54.345	0.161	0.157
-713.718	116.212	-0.049	-0.061
-712.704	-163.090	-0.161	-0.008
-711.689	22.601	0.134	0.111
-710.675	85.751	0.130	0.145
-709.660	12.724	-0.050	-0.039
-708.645	75.116	-0.025	0.027
-707.631	-43.424	0.119	-0.061
-706.616	-115.737	0.166	0.032
-705.602	-200.000	-0.007	-0.174
-704.587	-74.831	-0.071	-0.026
-703.572	6.711	0.161	-0.121
-702.558	548.581	0.070	-0.170
-701.543	21.515	-0.040	-0.033
-700.529	800.000	0.085	0.347
-699.514	-13.387	0.370	0.243
-698.499	131.801	0.100	0.130
-697.485	800.000	0.113	-0.439
-696.470	-6.094	-0.058	0.040
-695.456	-44.573	0.319	0.162
-694.441	-200.000	-0.058	0.352
-693.426	-128.652	-0.233	-0.033
-692.412	132.925	0.160	0.209
-691.397	40.888	0.300	-0.274
-690.383	211.020	-0.232	-0.369
-689.368	-86.376	0.302	-0.094
-688.354	364.377	0.117	-0.238
-687.339	-200.000	0.008	-0.100
-686.324	134.104	-0.079	0.104
-685.310	149.632	-0.079	-0.109
-684.295	-200.000	-0.009	-0.263
-683.281	-66.529	0.377	-0.151
-682.266	-200.000	-0.010	-0.090
-681.251	495.564	0.154	-0.359
-680.237	-167.844	-0.138	-0.005
-679.222	49.282	-0.135	0.129
-678.208	-89.138	-0.086	0.026
-677.193	800.000	-0.046	0.154
-676.178	182.460	-0.077	-0.114
-675.164	-121.144	0.141	0.024
-674.149	-200.000	0.024	0.274
-673.135	800.000	-0.101	-0.356
-672.120	-6.994	-0.087	0.060
-671.105	-65.859	-0.173	-0.070
-670.091	306.668	-0.201	0.378
-669.076	119.633	0.103	-0.130
-668.062	-18.760	-0.338	0.213
-667.047	-136.534	-0.328	-0.038
-666.032	108.715	0.237	0.286
-665.018	-83.698	-0.364	0.118
-664.003	-40.813	-0.112	-0.058
-662.989	70.101	0.464	-0.484
-661.974	-200.000	-0.007	0.229
-660.959	222.871	0.101	0.165
-659.945	-200.000	0.013	-0.152
-658.930	-47.673	-0.228	0.112
-657.916	262.134	-0.087	-0.153
-656.901	-200.000	0.042	-0.231
-655.886	-200.000	0.011	-0.121
-654.872	54.137	-0.247	0.240
-653.857	-200.000	-0.087	-0.430
-652.843	650.056	0.063	-0.162
-651.828	-61.655	-0.181	-0.077
-650.814	800.000	0.112	0.347
-649.799	-200.000	-0.025	0.118
-648.784	-177.783	0.295	0.007
-647.770	377.207	-0.085	-0.175
-646.755	88.633	-0.172	0.194
-645.741	103.912	-0.149	-0.177
-644.726	229.461	0.066	-0.109
-643.711	-200.000	0.031	-0.526
-642.697	-200.000	-0.053	-0.305
-641.682	-102.485	-0.212	0.051
-640.668	102.374	0.097	0.115
-639.653	800.000	-0.065	-0.199
-638.638	20.331	0.145	0.118
-637.624	176.821	0.107	0.158
-636.609	394.753	-0.150	-0.316
-635.595	-23.414	0.120	-0.073
-634.580	287.031	0.125	-0.228
-633.565	102.122	-0.008	-0.009
-632.551	800.000	-0.115	0.326
-631.536	-122.524	0.101	0.017
-630.522	800.000	0.021	-0.072
-629.507	-96.117	-0.352	-0.094
-628.492	-152.642	0.194	0.014
-627.478	-45.579	-0.275	0.137
-626.463	-200.000	0.036	0.184
-625.449	-200.000	-0.007	-0.091
-624.434	342.475	-0.105	0.207
-623.419	124.718	-0.185	0.236
-622.405	-164.111	0.164	-0.008
-621.390	38.618	0.161	-0.145
-620.376	-200.000	0.023	-0.126
-619.361	21.178	-0.210	-0.172
-618.346	-61.617	0.139	-0.059
-617.332	-200.000	0.023	-0.255
-616.317	-51.448	-0.191	0.090
-615.303	311.972	-0.057	-0.108
-614.288	800.000	0.070	0.225
-613.273	-2.151	-0.260	-0.184
-612.259	273.167	0.113	0.202
-611.244	108.942	0.335	0.404
-610.230	159.030	0.082	-0.115
-609.215	-27.650	-0.155	-0.091
-608.201	8.023	-0.301	-0.228
-607.186	-58.522	0.112	-0.049
-606.171	98.104	-0.123	-0.143
-605.157	-137.339	0.181	-0.021
-604.142	-130.655	0.162	-0.022
-603.128	-200.000	-0.038	-0.328
-602.113	43.278	0.205	-0.189
-601.098	598.053	0.119	0.298
-600.084	-6.064	0.144	-0.099
-599.069	-80.524	-0.192	-0.065
-598.055	-175.812	-0.326	0.009
-597.040	800.000	-0.098	-0.317
-596.025	318.334	-0.042	0.080
-595.011	-123.639	-0.437	0.070
-593.996	-2.156	-0.067	0.048
-592.982	-200.000	-0.023	0.244
-591.967	-136.205	0.250	-0.029
-590.952	95.381	0.044	0.050
-589.938	109.478	-0.186	0.224
-588.923	-200.000	0.029	-0.128
-587.909	-200.000	0.009	-0.144
-586.894	-17.272	-0.132	0.084
-585.879	-6.712	0.307	-0.211
-584.865	-97.841	-0.273	0.071
-583.850	-142.730	-0.264	0.026
-582.836	183.341	-0.081	-0.121
-581.821	800.000	0.060	-0.236
-580.806	-126.006	0.377	-0.057
-579.792	-35.820	0.226	0.123
-578.777	-82.989	-0.097	-0.031
-577.763	800.000	-0.028	-0.117
-576.748	-132.366	0.194	0.025
-575.733	377.179	-0.155	0.320
-574.719	-78.484	-0.298	-0.103
-573.704	-200.000	0.019	-0.104
-572.690	57.065	0.102	-0.100
-571.675	103.108	-0.180	0.213
-570.661	-115.692	0.150	-0.028
-569.646	-94.160	-0.332	-0.092
-568.631	-161.330	0.114	-0.006
-567.617	52.042	-0.164	0.157
-566.602	-200.000	-0.004	0.045
-565.588	-154.772	0.239	0.016
-564.573	190.655	0.153	0.231
-563.558	534.858	0.115	-0.276
-562.544	-110.929	0.212	0.044
-561.529	108.204	0.121	-0.146
-560.515	-27.423	0.222	0.130
-559.500	-50.989	-0.337	-0.159
-558.485	164.600	0.119	-0.170
-557.471	46.785	0.158	0.148
-556.456	800.000	0.068	0.221
-555.442	800.000	0.069	-0.230
-554.427	-134.437	0.177	-0.022
-553.412	132.263	0.059	-0.076
-552.398	30.973	-0.270	-0.233
-551.383	800.000	0.054	-0.190
-550.369	-52.121	-0.042	0.020
-549.354	563.150	-0.083	0.202
-548.339	-84.782	-0.329	0.104
-547.325	-44.211	0.150	-0.076
-546.310	-21.382	-0.115	-0.071
-545.296	179.233	0.081	0.119
-544.281	204.506	-0.104	0.162
-543.266	144.900	-0.178	0.239
-542.252	800.000	-0.073	0.238
-541.237	120.201	0.205	0.256
-540.223	2.895	0.160	-0.117
-539.208	-8.206	-0.227	-0.154
-538.193	25.379	0.042	0.035
-537.179	-52.095	0.338	-0.158
-536.164	180.616	0.165	0.244
-535.150	-200.000	0.007	0.343
-534.135	-119.328	-0.283	0.050
-533.121	-200.000	0.047	-0.381
-532.106	35.748	0.041	0.036
-531.091	-200.000	-0.027	-0.181
-530.077	-39.558	-0.026	0.014
-529.062	136.236	0.068	-0.089
-528.048	339.415	0.079	-0.155
-527.033	-128.122	0.374	0.054
-526.018	33.277	-0.143	0.125
-525.004	-200.000	0.043	0.259
-523.989	73.288	0.026	-0.028
-522.975	-200.000	0.100	0.460
-521.960	-200.000	-0.071	0.399
-520.945	-79.214	-0.232	-0.079
-519.931	228.082	0.130	-0.214
-518.916	-129.990	0.242	-0.033
-517.902	-85.111	-0.135	0.043
-516.887	69.137	0.259	-0.268
-515.872	-200.000	-0.031	-0.328
-514.858	-200.000	0.213	0.001
-513.843	705.652	0.016	0.044
-512.829	800.000	-0.131	0.368
-511.814	-28.412	-0.163	0.095
-510.799	-26.449	-0.393	-0.232
-509.785	-139.500	-0.128	0.014
-508.770	800.000	-0.061	-0.234
-507.756	355.819	-0.120	-0.240
-506.741	-59.156	-0.130	0.056
-505.726	15.547	0.269	-0.212
-504.712	-200.000	-0.039	-0.174
-503.697	-37.966	0.161	0.086
-502.683	389.404	-0.057	-0.118
-501.668	-114.604	-0.270	-0.052
-500.653	-5.898	-0.301	-0.207
-499.639	-200.000	0.006	0.234
-498.624	75.581	-0.215	-0.228
-497.610	-65.996	0.058	-0.023
-496.595	70.318	0.180	-0.187
-495.581	306.115	-0.010	-0.018
-494.566	242.243	-0.055	0.093
-493.551	-67.556	-0.284	-0.112
-492.537	-127.606	-0.302	0.044
-491.522	-21.753	-0.224	-0.137
-490.508	391.495	-0.138	0.287
-489.493	-1.634	-0.149	-0.105
-488.478	-144.255	-0.129	0.012
-487.464	334.485	-0.045	-0.088
-486.449	442.394	0.079	0.173
-485.435	-56.761	-0.148	0.066
-484.420	-200.000	-0.025	-0.321
-483.405	84.723	-0.189	-0.208
-482.391	137.560	-0.111	0.146
-481.376	-84.579	0.065	-0.020
-480.362	146.807	0.119	0.161
-479.347	-88.999	-0.211	0.063
-478.332	97.896	0.135	-0.156
-477.318	43.737	0.172	-0.158
-476.303	-200.000	-0.027	-0.282
-475.289	69.388	-0.056	0.058
-474.274	30.496	-0.260	-0.223
-473.259	261.324	-0.200	0.348
-472.245	26.307	-0.111	0.094
-471.230	99.263	-0.164	-0.190
-470.216	-0.703	0.308	-0.220
-469.201	135.899	-0.243	0.318
-468.186	-43.830	0.334	0.169
-467.172	-116.658	-0.111	0.020
-466.157	65.653	-0.063	-0.064
-465.143	173.185	-0.209	0.302
-464.128	-153.689	-0.072	-0.005
-463.113	-198.663	-0.476	-0.003
-462.099	-200.000	-0.075	-0.352
-461.084	-200.000	-0.034	-0.159
-460.070	800.000	0.045	-0.129
-459.055	800.000	-0.046	0.134
-458.040	146.888	-0.257	0.347
-457.026	87.855	0.188	0.209
-456.011	-200.000	-0.029	0.273
-454.997	-125.807	-0.119	-0.018
-453.982	39.983	-0.191	0.172
-452.968	-200.000	-0.004	0.300
-451.953	-2.935	-0.153	0.107
-450.938	133.677	0.107	-0.139
-449.924	-146.190	0.171	-0.015
-448.909	-200.000	0.001	-0.017
-447.895	-161.249	0.107	0.006
-446.880	65.119	-0.050	0.051
-445.865	-124.588	-0.472	0.073
-444.851	-133.103	-0.536	-0.068
-443.836	46.890	0.084	0.078
-442.822	800.000	-0.051	0.182
-441.807	183.750	0.112	0.166
-440.792	-75.526	0.201	-0.072
-439.778	170.625	-0.188	-0.270
-438.763	33.119	0.456	0.397
-437.749	187.748	0.080	0.120
-436.734	27.841	-0.218	0.185
-435.719	550.500	-0.043	0.104
-434.705	562.253	-0.071	-0.173
-433.690	-27.609	0.103	0.060
-432.676	-66.041	0.221	0.089
-431.661	-135.355	-0.113	-0.014
-430.646	-200.000	0.052	-0.287
-429.632	-200.000	-0.017	-0.111
-428.617	-16.166	-0.146	0.093
-427.603	-50.042	-0.192	-0.091
-426.588	-159.623	0.099	0.005
-425.573	-126.501	0.301	-0.045
-424.559	-25.264	0.024	0.014
-423.544	118.935	-0.165	0.205
-422.530	-124.042	0.339	-0.053
-421.515	-200.000	0.006	-0.318
-420.500	699.356	-0.013	0.035
-419.486	-142.153	-0.256	-0.025
-418.471	321.897	-0.119	-0.227
-417.457	-57.494	-0.114	0.050
-416.442	-14.314	0.228	0.147
-415.428	-107.663	0.166	-0.036
-414.413	-10.487	-0.041	-0.027
-413.398	-29.382	0.192	-0.110
-412.384	-200.000	-0.026	0.146
-411.369	343.274	0.153	-0.301
-410.355	-15.226	0.233	0.149
-409.340	-12.573	0.216	0.141
-408.325	279.377	0.068	0.122
-407.311	-58.309	0.075	0.033
-406.296	-200.000	-0.019	0.207
-405.282	-123.671	0.287	-0.046
-404.267	-200.000	-0.203	0.000
-403.252	13.359	-0.266	0.207
-402.238	-200.000	0.008	-0.165
-401.223	59.460	-0.101	-0.100
-400.209	-15.759	-0.121	0.077
-399.194	-140.275	-0.350	0.037
-398.179	348.181	-0.089	0.176
-397.165	-147.316	0.015	0.001
-396.150	749.776	0.028	-0.075
-395.136	131.034	0.056	0.071
-394.121	-200.000	-0.010	0.177
-393.106	71.904	0.179	0.186
-392.092	-200.000	-0.006	-0.142
-391.077	101.967	-0.119	0.139
-390.063	-44.052	-0.176	0.089
-389.048	181.800	0.084	-0.123
-388.033	6.342	0.202	0.150
-387.019	11.003	-0.009	0.007
-386.004	-131.995	0.024	0.003
-384.990	-200.000	-0.034	0.344
-383.975	12.435	0.352	0.272
-382.960	-142.070	-0.306	-0.030
-381.946	-0.782	0.298	0.211
-380.931	-56.868	-0.190	0.084
-379.917	-44.350	0.333	-0.167
-378.902	800.000	-0.050	0.197
-377.888	793.073	-0.119	-0.326
-376.873	-200.000	0.016	-0.216
-375.858	-64.643	-0.316	0.128
-374.844	-125.484	-0.177	0.027
-373.829	-54.964	0.311	0.140
-372.815	30.292	0.131	-0.112
-371.800	800.000	0.033	-0.099
-370.785	-21.956	0.450	0.273
-369.771	54.539	-0.194	-0.187
-368.756	309.433	0.118	-0.221
-367.742	90.853	-0.046	0.052
-366.727	56.257	0.152	-0.147
-365.712	800.000	0.074	0.230
-364.698	142.170	0.066	-0.087
-363.683	-106.188	-0.054	-0.012
-362.669	-200.000	-0.028	0.171
-361.654	-200.000	0.020	-0.122
-360.639	-1.959	-0.202	-0.142
-359.625	800.000	-0.064	-0.234
-358.610	485.123	-0.134	-0.305
-357.596	171.803	-0.188	-0.269
-356.581	-200.000	0.023	-0.547
-355.566	-91.245	-0.122	0.035
-354.552	800.000	-0.043	-0.136
-353.537	9.551	0.150	0.114
-352.523	89.720	0.049	-0.054
-351.508	-200.000	-0.005	-0.274
-350.493	-130.785	-0.337	0.045
-349.479	317.848	-0.095	0.179
-348.464	-200.000	0.016	-0.146
-347.450	-38.230	0.186	-0.098
-346.435	399.177	-0.140	0.293
-345.420	-167.941	-0.166	0.007
-344.406	144.721	0.253	0.337
-343.391	800.000	-0.110	-0.401
-342.377	162.340	-0.070	-0.098
-341.362	-83.115	-0.210	-0.067
-340.348	36.095	-0.115	0.101
-339.333	790.736	0.050	-0.138
-338.318	800.000	0.100	0.394
-337.304	97.734	-0.255	-0.292
-336.289	-117.649	-0.096	-0.017
-335.275	-147.478	0.102	-0.009
-334.260	-200.000	0.007	0.205
-333.245	75.593	0.215	0.226
-332.231	171.071	0.141	0.201
-331.216	1.691	0.212	0.153
-330.202	82.875	0.103	0.112
-329.187	-100.236	-0.062	-0.015
-328.172	151.490	-0.028	-0.038
-327.158	9.298	-0.225	0.170
-326.143	-104.850	-0.227	-0.052
-325.129	-111.893	0.165	0.033
-324.114	-51.204	-0.166	-0.078
-323.099	122.124	0.009	0.011
-322.085	-200.000	0.043	-0.259
-321.070	800.000	-0.124	-0.353
-320.056	-72.932	-0.510	0.187
-319.041	27.496	0.248	-0.209
-318.026	276.965	0.097	0.173
-317.012	-187.370	0.165	0.002
-315.997	262.600	-0.166	-0.288
-314.983	-13.439	0.264	-0.171
-313.968	-164.525	0.263	-0.012
-312.953	-200.000	0.017	0.366
-311.939	270.552	0.127	0.223
-310.924	-41.137	0.355	0.183
-309.910	11.057	-0.060	0.046
-308.895	80.231	0.089	0.096
-307.880	242.515	-0.150	0.251
-306.866	-40.483	0.239	-0.124
-305.851	337.075	-0.017	-0.034
-304.837	246.943	0.144	-0.242
-303.822	104.135	0.171	-0.201
-302.807	505.241	-0.030	-0.069
-301.793	-123.855	-0.268	-0.042
-300.778	23.474	0.261	-0.214
-299.764	-98.975	-0.284	0.072
-298.749	10.598	0.181	0.138
-297.735	258.565	-0.086	0.148
-296.720	-200.000	-0.005	-0.189
-295.705	-200.000	-0.025	0.182
-294.691	800.000	0.065	0.282
-293.676	-200.000	0.043	0.223
-292.662	-57.188	-0.272	-0.119
-291.647	-44.932	0.103	-0.051
-290.632	-151.598	-0.179	-0.013
-289.618	-100.224	0.417	-0.103
-288.603	144.680	0.047	0.062
-287.589	-28.198	-0.095	-0.055
-286.574	-200.000	0.048	-0.394
-285.559	-102.213	0.511	0.122
-284.545	-169.631	-0.271	-0.010
-283.530	800.000	-0.053	0.231
-282.516	-69.911	0.432	0.164
-281.501	121.936	0.212	0.263
-280.486	-24.580	-0.083	0.049
-279.472	-73.658	-0.243	0.088
-278.457	-13.133	0.186	0.121
-277.443	-200.000	0.006	-0.402
-276.428	-200.000	0.013	-0.493
-275.413	-15.385	-0.092	0.059
-274.399	69.736	-0.054	-0.055
-273.384	207.004	0.125	-0.195
-272.370	-200.000	0.010	-0.276
-271.355	-200.000	0.002	0.026
-270.340	225.313	-0.069	0.111
-269.326	-200.000	0.023	-0.318
-268.311	-111.068	0.269	-0.055
-267.297	-200.000	-0.049	-0.307
-266.282	63.387	-0.049	0.049
-265.267	2.656	0.365	0.264
-264.253	22.988	-0.211	0.172
-263.238	-200.000	-0.105	0.529
-262.224	-124.737	0.043	0.007
-261.209	800.000	0.060	0.168
-260.195	-110.692	0.176	0.036
-259.180	226.320	-0.314	-0.507
-258.165	-200.000	-0.014	0.218
-257.151	-200.000	-0.040	0.222
-256.136	800.000	-0.076	-0.280
-255.122	-66.536	-0.203	0.080
-254.107	-54.112	0.513	-0.232
-253.092	150.583	-0.165	-0.223
-252.078	-111.850	-0.144	-0.029
-251.063	55.357	-0.325	-0.313
-250.049	-168.710	0.213	-0.008
-249.034	-11.632	-0.067	-0.044
-248.019	128.456	0.139	-0.176
-247.005	-200.000	0.011	0.189
-245.990	65.296	0.005	0.005
-244.976	337.714	-0.155	0.300
-243.961	-175.458	0.416	-0.011
-242.946	342.828	-0.035	0.069
-241.932	596.323	0.099	0.244
-240.917	-122.822	0.006	-0.001
-239.903	-200.000	0.017	0.168
-238.888	-10.668	0.224	-0.148
-237.873	-23.784	-0.052	0.031
-236.859	26.171	0.389	0.323
-235.844	39.610	-0.127	0.113
-234.830	97.634	-0.157	0.180
-233.815	-112.988	-0.109	-0.022
-232.800	281.772	-0.110	-0.196
-231.786	160.354	0.175	0.243
-230.771	-50.889	0.314	-0.147
-229.757	87.086	-0.089	0.098
-228.742	-3.614	0.122	-0.084
-227.727	235.413	0.092	0.152
-226.713	47.351	0.239	0.221
-225.698	-163.558	-0.290	0.014
-224.684	-117.897	0.167	-0.030
-223.669	-56.871	0.186	0.082
-222.655	-100.122	0.181	0.045
-221.640	30.829	0.157	0.133
-220.625	-77.893	0.215	0.074
-219.611	-200.000	-0.057	-0.267
-218.596	-130.907	-0.415	-0.055
-217.582	461.164	0.160	0.355
-216.567	470.220	0.113	-0.252
-215.552	-200.000	-0.060	-0.277
-214.538	-96.222	-0.235	-0.062
-213.523	-68.368	-0.201	-0.078
-212.509	-13.206	0.487	0.314
-211.494	232.354	-0.157	0.257
-210.479	-200.000	0.027	0.275
-209.465	-99.094	0.178	0.045
-208.450	111.106	-0.247	0.295
-207.436	-68.078	0.158	0.061
-206.421	-42.123	-0.122	-0.062
-205.406	-200.000	-0.001	0.378
-204.392	-69.710	0.141	0.054
-203.377	151.918	-0.213	-0.289
-202.363	-67.400	0.320	0.125
-201.348	7.903	0.039	0.029
-200.333	-45.381	-0.509	-0.251
-199.319	-200.000	-0.039	0.196
-198.304	133.612	-0.081	-0.104
-197.290	105.588	-0.064	0.076
-196.275	472.523	-0.079	0.176
-195.260	800.000	0.068	0.205
-194.246	-123.117	-0.171	0.027
-193.231	120.640	0.196	-0.242
-192.217	-78.494	-0.104	-0.035
-191.202	800.000	-0.042	0.177
-190.187	-200.000	0.022	-0.238
-189.173	-200.000	0.006	-0.091
-188.158	30.876	0.391	-0.332
-187.144	-22.712	-0.271	-0.163
-186.129	-146.012	0.226	-0.020
-185.114	67.837	0.207	-0.210
-184.100	-47.658	-0.152	-0.073
-183.085	237.080	0.080	0.131
-182.071	-71.937	0.394	0.146
-181.056	-200.000	-0.026	-0.271
-180.042	-55.683	0.149	-0.066
-179.027	75.235	0.096	0.100
-178.012	30.579	0.119	0.101
-176.998	800.000	-0.032	-0.113
-175.983	-200.000	-0.007	-0.092
-174.969	-11.867	-0.207	-0.135
-173.954	-102.510	-0.272	0.065
-172.939	-26.106	0.251	0.146
-171.925	489.631	0.083	-0.188
-170.910	457.879	0.110	-0.243
-169.896	-101.888	0.123	-0.029
-168.881	40.933	0.239	0.214
-167.866	356.954	-0.077	0.152
-166.852	65.666	-0.165	0.166
-165.837	800.000	0.047	-0.164
-164.823	-39.343	-0.064	0.033
-163.808	-158.680	0.321	0.018
-162.793	-55.857	0.597	0.265
-161.779	-200.000	0.057	-0.294
-160.764	800.000	0.054	-0.206
-159.750	-91.934	-0.239	0.067
-158.735	69.112	0.137	0.140
-157.720	88.087	-0.025	0.028
-156.706	11.692	-0.129	0.098
-155.691	-200.000	-0.019	0.088
-154.677	-49.890	-0.183	-0.086
-153.662	-22.014	0.356	0.214
-152.647	-110.704	-0.243	0.050
-151.633	-26.041	-0.278	-0.162
-150.618	800.000	-0.045	-0.189
-149.604	-104.070	-0.098	0.023
-148.589	570.709	-0.088	-0.213
-147.574	31.105	-0.295	-0.251
-146.560	800.000	-0.062	0.225
-145.545	18.242	0.259	0.205
-144.531	-70.344	-0.411	0.155
-143.516	-115.652	-0.117	0.022
-142.502	23.763	-0.087	0.071
-141.487	-110.859	0.255	0.052
-140.472	113.369	-0.101	0.121
-139.458	-41.085	0.146	0.075
-138.443	20.653	-0.319	0.256
-137.429	-79.078	-0.173	0.058
-136.414	54.813	0.227	-0.217
-135.399	28.427	-0.123	-0.103
-134.385	524.964	-0.100	0.233
-133.370	-18.391	-0.103	-0.064
-132.356	-200.000	0.021	-0.148
-131.341	284.456	-0.218	-0.388
-130.326	233.293	0.063	0.102
-129.312	-200.000	0.012	0.140
-128.297	-200.000	0.010	-0.387
-127.283	-153.849	-0.408	-0.028
-126.268	-103.933	0.232	-0.054
-125.253	386.679	-0.108	0.221
-124.239	481.200	-0.012	0.027
-123.224	62.390	0.166	0.165
-122.210	-200.000	-0.034	-0.389
-121.195	-200.000	0.031	0.251
-120.180	800.000	-0.119	-0.464
-119.166	-200.000	-0.031	0.135
-118.151	267.433	0.124	-0.215
-117.137	-133.378	0.068	-0.009
-116.122	-200.000	0.000	0.082
-115.107	61.575	0.314	0.310
-114.093	-7.691	0.091	-0.061
-113.078	-146.890	-0.192	0.016
-112.064	-138.979	-0.348	0.037
-111.049	208.895	-0.088	0.136
-110.034	206.419	0.132	-0.204
-109.020	800.000	0.079	0.243
-108.005	-200.000	-0.031	0.284
-106.991	-118.984	0.382	0.066
-105.976	242.702	0.108	0.178
-104.962	463.118	0.090	0.200
-103.947	-82.294	0.078	-0.025
-102.932	-91.729	-0.188	0.053
-101.918	-200.000	0.004	0.069
-100.903	-92.730	0.289	0.080
-99.889	26.014	0.134	0.111
-98.874	162.484	-0.145	0.202
-97.859	800.000	-0.037	0.142
-96.845	-200.000	0.012	0.056
-95.830	2.508	0.083	0.059
-94.816	100.266	-0.127	-0.146
-93.801	759.096	-0.041	0.111
-92.786	800.000	-0.142	-0.474
-91.772	38.372	-0.013	-0.011
-90.757	337.923	0.068	0.131
-89.743	2.692	0.246	0.177
-88.728	643.883	0.111	0.281
-87.713	-129.246	-0.262	-0.036
-86.699	-42.294	-0.254	0.128
-85.684	-135.737	0.158	-0.019
-84.670	589.620	-0.035	0.085
-83.655	70.629	0.149	-0.152
-82.640	-108.217	0.063	0.014
-81.626	-200.000	-0.008	0.243
-80.611	-200.000	-0.029	0.246
-79.597	-86.520	-0.211	0.064
-78.582	-50.622	-0.186	-0.087
-77.567	-200.000	0.029	-0.150
-76.553	140.257	-0.123	-0.161
-75.538	110.290	0.161	-0.192
-74.524	-174.269	0.189	0.005
-73.509	-80.190	0.168	0.055
-72.494	271.746	0.080	-0.140
-71.480	218.384	0.184	0.291
-70.465	-58.484	-0.312	0.134
-69.451	-21.837	-0.249	0.149
-68.436	-69.514	0.398	0.151
-67.422	-14.163	-0.043	-0.027
-66.407	47.009	0.112	0.103
-65.392	245.896	0.171	-0.284
-64.378	-170.616	-0.106	0.004
-63.363	-200.000	0.015	-0.213
-62.349	800.000	0.103	0.325
-61.334	145.879	-0.738	-0.978
-60.319	94.091	0.246	0.276
-59.305	-200.000	-0.195	-0.991
-58.290	209.362	0.581	0.900
-57.276	155.704	1.009	1.373
-56.261	-200.000	97.925	596.426
-55.246	623.985	1426.278	3551.115
-54.232	183.914	2625.268	3837.366
-53.217	118.048	2203.646	2682.853
-52.203	43.549	1733.816	1566.221
-51.188	36.257	1545.909	1345.797
-50.173	33.986	1518.271	1306.105
-49.159	53.139	1568.814	1483.782
-48.144	56.002	1587.156	1521.055
-47.130	36.616	1544.477	1346.841
-46.115	33.436	1529.056	1311.366
-45.100	33.314	1525.724	1307.613
-44.086	33.283	1523.331	1305.297
-43.071	33.248	1521.557	1303.483
-42.057	33.176	1520.073	1301.665
-41.042	33.273	1518.579	1301.005
-40.027	33.309	1517.031	1299.870
-39.013	33.169	1516.209	1298.156
-37.998	33.150	1514.856	1296.817
-36.984	33.209	1513.999	1296.437
-35.969	33.226	1512.251	1295.005
-34.954	33.184	1510.927	1293.530
-33.940	33.277	1509.115	1292.560
-32.925	33.241	1508.077	1291.373
-31.911	33.151	1507.173	1289.937
-30.896	33.221	1505.279	1288.740
-29.881	33.189	1504.216	1287.564
-28.867	33.283	1502.585	1286.755
-27.852	33.249	1501.410	1285.470
-26.838	33.315	1499.567	1284.282
-25.823	33.294	1498.108	1282.840
-24.809	33.265	1496.713	1281.398
-23.794	33.298	1495.132	1280.219
-22.779	33.203	1494.295	1278.807
-21.765	33.231	1493.170	1277.989
-20.750	33.182	1492.184	1276.758
-19.736	33.203	1490.997	1275.836
-18.721	33.216	1489.731	1274.789
-17.706	33.170	1488.908	1273.727
-16.692	33.163	1488.042	1272.883
-15.677	33.150	1486.661	1271.567
-14.663	33.135	1485.846	1270.717
-13.648	33.136	1484.944	1269.905
-12.633	33.090	1484.336	1269.022
-11.619	33.092	1483.342	1268.137
-10.604	33.117	1482.223	1267.300
-9.590	33.158	1480.890	1266.379
-8.575	33.106	1480.673	1265.795
-7.560	33.191	1479.713	1265.493
-6.546	33.166	1478.506	1264.244
-5.531	33.174	1477.431	1263.331
-4.517	33.058	1476.841	1261.998
-3.502	33.055	1475.948	1261.169
-2.487	33.178	1474.360	1260.581
-1.473	33.063	1473.254	1258.822
-0.458	33.208	1471.923	1258.594
0.556	32.230	1462.921	1249.094
1.571	29.776	1437.634	1211.340
2.586	26.475	1377.112	1139.492
3.600	24.862	1294.180	1061.218
4.615	23.394	1248.112	1014.955
5.629	20.320	1190.806	951.443
6.644	12.443	1105.054	842.621
7.659	6.134	1064.156	780.135
8.673	5.219	1058.774	771.604
9.688	4.970	1055.661	768.039
10.702	4.841	1054.429	766.438
11.717	4.840	1052.218	764.761
12.731	7.533	1055.524	780.344
13.746	15.143	1065.624	825.374
14.761	19.567	1070.584	850.994
15.775	18.609	1068.389	844.460
16.790	17.532	1066.180	837.349
17.804	16.406	1064.094	830.106
18.819	15.369	1062.138	823.420
19.834	14.976	1060.701	820.305
20.848	14.790	1059.141	818.116
21.863	14.667	1058.810	817.185
22.877	14.363	1057.860	814.894
23.892	14.232	1056.864	813.414
24.907	13.992	1056.267	811.709
25.921	14.059	1055.532	811.402
26.936	14.080	1054.830	810.895
27.950	14.067	1053.929	810.063
28.965	14.068	1052.551	808.939
29.980	14.308	1051.251	809.034
30.994	14.360	1050.244	808.442
32.009	14.168	1049.992	807.245
33.023	14.373	1048.821	807.265
34.038	14.339	1047.975	806.380
35.053	14.303	1047.062	805.428
36.067	14.224	1045.961	804.132
37.082	14.124	1045.232	803.017
38.096	14.184	1044.777	802.885
39.111	14.212	1043.793	802.190
40.126	14.344	1042.684	801.904
41.140	14.252	1041.512	800.490
42.155	14.136	1040.560	799.127
43.169	14.015	1039.979	798.030
44.184	14.018	1038.487	796.831
45.199	13.990	1037.215	795.652
46.213	13.903	1036.306	794.467
47.228	13.986	1035.594	794.244
48.242	14.249	1034.232	794.385
49.257	14.132	1033.703	793.351
50.271	14.209	1032.661	792.850
51.286	14.170	1031.640	791.812
52.301	14.163	1031.282	791.433
53.315	14.122	1030.269	790.391
54.330	14.206	1029.323	789.991
55.344	14.050	1028.516	788.561
56.359	14.032	1027.097	787.322
57.374	14.207	1026.278	787.451
58.388	14.094	1025.954	786.597
59.403	13.997	1024.834	785.211
60.417	13.975	1023.914	784.333
61.432	13.911	1023.849	783.912
62.447	13.999	1022.468	783.203
63.461	13.812	1021.890	781.809
64.476	13.891	1020.814	781.289
65.490	13.828	1019.961	780.269
66.505	13.840	1018.782	779.357
67.520	14.004	1018.201	779.610
68.534	13.903	1017.309	778.384
69.549	13.828	1016.836	777.604
70.563	13.879	1016.128	777.231
71.578	13.869	1015.555	776.678
72.593	13.901	1014.170	775.700
73.607	13.782	1013.493	774.559
74.622	13.846	1012.383	773.937
75.636	13.707	1011.771	772.752
76.651	13.864	1010.921	772.766
77.666	13.819	1010.142	771.894
78.680	13.830	1009.584	771.450
79.695	13.890	1008.753	771.028
80.709	13.840	1008.625	770.630
81.724	13.839	1007.745	769.882
82.739	13.828	1007.037	769.224
83.753	13.924	1006.074	768.864
84.768	14.090	1005.262	768.943
85.782	14.212	1004.777	769.070
86.797	14.245	1004.320	768.803
87.812	14.410	1002.699	768.253
88.826	14.199	1002.180	766.815
89.841	14.087	1001.445	765.670
90.855	14.221	1000.329	765.367
91.870	14.167	999.997	764.794
92.884	14.185	999.491	764.426
93.899	14.258	998.323	763.796
94.914	14.236	997.562	763.046
95.928	14.260	997.434	762.994
96.943	14.277	996.594	762.357
97.957	14.163	995.800	761.165
98.972	14.154	994.892	760.363
99.987	14.151	993.886	759.512
101.001	14.333	993.109	759.682
102.016	14.273	992.316	758.731
103.030	14.213	991.704	757.925
104.045	14.144	990.726	756.794
105.060	14.364	989.338	756.668
106.074	14.271	988.428	755.485
107.089	14.145	987.760	754.335
108.103	13.939	987.191	752.900
109.118	13.986	985.609	751.842
110.133	13.951	985.119	751.241
111.147	13.925	984.525	750.603
112.162	13.925	983.466	749.728
113.176	13.900	982.921	749.136
114.191	13.922	982.039	748.497
115.206	13.876	981.080	747.494
116.220	14.067	980.041	747.494
117.235	13.990	979.113	746.375
118.249	14.017	978.680	746.096
119.264	14.053	978.039	745.706
120.279	14.026	977.265	744.927
121.293	14.097	976.284	744.432
122.308	14.038	975.211	743.283
123.322	14.036	974.219	742.452
124.337	13.914	973.381	741.205
125.352	13.819	972.446	740.006
126.366	13.794	971.336	738.985
127.381	13.877	970.327	738.520
128.395	13.919	969.501	738.010
129.410	13.988	968.404	737.418
130.424	13.956	967.382	736.431
131.439	14.002	966.479	735.883
132.454	14.082	966.078	735.868
133.468	14.074	965.176	735.080
134.483	14.056	964.550	734.459
135.497	14.035	963.552	733.538
136.512	14.099	963.276	733.547
137.527	13.931	962.757	732.349
138.541	13.981	962.263	732.127
139.556	13.984	961.151	731.230
140.570	14.125	960.312	731.144
141.585	14.164	959.593	730.706
142.600	14.330	958.654	730.652
143.614	14.318	958.046	730.073
144.629	14.140	957.291	728.653
145.643	14.264	956.968	728.886
146.658	14.295	955.996	728.215
147.673	14.348	954.421	727.185
148.687	14.241	953.695	726.098
149.702	14.124	952.931	724.945
150.716	14.153	951.718	724.084
151.731	14.109	951.379	723.572
152.746	14.116	950.165	722.611
153.760	14.204	949.809	722.662
154.775	14.235	949.082	722.179
155.789	14.277	948.323	721.717
156.804	14.184	947.803	720.858
157.819	14.214	946.978	720.293
158.833	14.221	945.874	719.421
159.848	14.459	945.310	719.956
160.862	14.343	944.932	719.104
161.877	14.434	943.800	718.573
162.892	14.278	943.221	717.395
163.906	14.236	942.131	716.321
164.921	14.112	941.462	715.218
165.935	14.260	940.139	714.782
166.950	14.261	939.298	714.085
167.964	14.440	938.251	713.993
168.979	14.303	937.618	712.863
169.994	14.261	936.763	711.971
171.008	14.338	935.832	711.528
172.023	14.180	935.612	710.625
173.037	14.302	935.042	710.649
174.052	14.517	933.908	710.640
175.067	14.383	933.498	709.694
176.081	14.312	932.464	708.542
177.096	14.252	931.414	707.429
178.110	14.317	930.811	707.183
179.125	14.315	929.949	706.456
180.140	14.336	929.589	706.210
181.154	14.327	928.729	705.455
182.169	14.376	927.939	705.001
183.183	14.344	927.611	704.553
184.198	14.444	927.097	704.524
185.213	14.521	925.580	703.634
186.227	14.568	925.341	703.589
187.242	14.454	925.309	703.020
188.256	14.574	924.332	702.721
189.271	14.723	923.172	702.402
190.286	14.649	922.696	701.667
191.300	14.567	921.697	700.500
192.315	14.428	920.685	699.086
193.329	14.266	920.294	698.050
194.344	14.402	919.572	698.011
195.359	14.448	918.988	697.700
196.373	14.488	918.206	697.209
197.388	14.510	918.213	697.247
198.402	14.623	917.380	697.025
199.417	14.759	917.119	697.331
200.432	14.765	916.577	696.880
201.446	14.897	916.452	697.277
202.461	14.936	915.655	696.769
203.475	14.991	915.121	696.529
204.490	14.989	914.559	696.032
205.504	14.843	913.687	694.702
206.519	14.679	913.163	693.562
207.534	14.847	911.905	693.240
208.548	14.628	911.687	692.105
209.563	14.687	910.836	691.644
210.577	14.792	910.071	691.433
211.592	14.829	909.279	690.924
212.607	15.045	908.558	691.209
213.621	14.990	908.328	690.743
214.636	15.032	907.438	690.181
215.650	14.862	907.450	689.428
216.665	14.917	906.534	688.897
217.680	14.939	906.003	688.523
218.694	15.024	905.177	688.183
219.709	15.117	904.924	688.312
220.723	15.030	904.226	687.363
221.738	14.980	903.396	686.467
222.753	15.141	902.501	686.384
223.767	15.022	902.168	685.585
224.782	15.084	901.080	684.951
225.796	15.126	900.772	684.826
226.811	15.139	899.849	684.117
227.826	15.128	899.241	683.548
228.840	15.094	898.569	682.842
229.855	14.976	897.991	681.859
230.869	15.097	897.216	681.702
231.884	14.939	897.149	680.949
232.899	15.149	895.647	680.602
233.913	15.167	894.639	679.848
234.928	15.189	894.362	679.668
235.942	15.116	893.919	678.973
236.957	15.083	893.045	678.117
237.972	15.033	892.721	677.610
238.986	15.131	891.698	677.170
240.001	15.081	891.397	676.681
241.015	15.078	890.545	675.959
242.030	15.068	889.826	675.312
243.045	15.073	889.305	674.879
244.059	15.158	889.106	675.010
245.074	15.099	888.286	674.090
246.088	15.184	887.665	673.901
247.103	15.312	886.865	673.751
248.117	15.414	886.021	673.458
249.132	15.508	885.368	673.279
250.147	15.512	885.361	673.229
251.161	15.628	884.460	672.951
252.176	15.556	884.082	672.315
253.190	15.733	883.300	672.367
254.205	15.662	882.701	671.570
255.220	15.746	881.820	671.174
256.234	15.550	881.643	670.199
257.249	15.759	880.696	670.251
258.263	15.729	879.940	669.500
259.278	15.743	879.518	669.172
260.293	15.752	878.999	668.754
261.307	15.731	878.380	668.143
262.322	15.761	878.071	667.967
263.336	15.759	877.426	667.409
264.351	15.770	876.846	666.953
265.366	15.785	876.052	666.347
266.380	16.015	875.357	666.670
267.395	15.890	875.045	665.882
268.409	15.805	874.388	664.985
269.424	15.939	872.837	664.274
270.439	15.886	872.555	663.793
271.453	15.778	871.685	662.648
272.468	15.742	870.985	661.914
273.482	15.772	870.283	661.439
274.497	15.840	869.870	661.337
275.512	15.753	869.490	660.648
276.526	15.722	868.689	659.859
277.541	15.847	868.045	659.798
278.555	15.831	867.812	659.502
279.570	15.935	867.039	659.263
280.585	16.064	865.940	658.873
281.599	15.980	865.888	658.446
282.614	15.948	865.010	657.598
283.628	15.983	864.481	657.272
284.643	15.811	864.254	656.371
285.657	15.848	863.705	656.039
286.672	16.013	863.156	656.207
287.687	16.108	862.171	655.771
288.701	15.927	862.144	654.988
289.716	16.010	861.514	654.776
290.730	16.130	861.045	654.825
291.745	16.110	860.431	654.224
292.760	16.058	859.713	653.419
293.774	16.186	858.773	653.142
294.789	16.206	858.327	652.821
295.803	16.218	857.854	652.451
296.818	16.259	857.206	652.056
297.833	16.216	856.266	651.119
298.847	16.107	855.714	650.221
299.862	16.126	855.243	649.878
300.876	16.141	854.139	649.042
301.891	16.284	853.815	649.289
302.906	16.382	852.714	648.770
303.920	16.301	852.495	648.235
304.935	16.330	851.875	647.816
305.949	16.418	851.200	647.585
306.964	16.471	850.605	647.276
307.979	16.526	849.757	646.786
308.993	16.471	849.151	646.056
310.008	16.519	848.801	645.917
311.022	16.471	848.521	645.460
312.037	16.524	848.131	645.308
313.052	16.562	847.063	644.584
314.066	16.461	846.902	644.021
315.081	16.320	846.156	642.860
316.095	16.280	846.000	642.531
317.110	16.361	845.398	642.325
318.125	16.393	844.682	641.846
319.139	16.398	844.276	641.499
320.154	16.355	843.598	640.767
321.168	16.298	843.258	640.234
322.183	16.492	842.521	640.353
323.197	16.497	841.989	639.913
324.212	16.496	841.130	639.196
325.227	16.452	840.882	638.788
326.241	16.500	840.513	638.633
327.256	16.636	839.249	638.128
328.270	16.559	839.251	637.783
329.285	16.395	838.664	636.662
330.300	16.520	837.866	636.470
331.314	16.385	837.525	635.645
332.329	16.529	836.891	635.650
333.343	16.457	836.567	635.078
334.358	16.606	835.951	635.112
335.373	16.672	835.333	634.834
336.387	16.812	834.625	634.764
337.402	16.715	834.131	633.971
338.416	16.785	833.590	633.765
339.431	16.805	833.591	633.783
340.446	16.855	832.671	633.216
341.460	16.798	832.001	632.436
342.475	16.760	831.804	632.089
343.489	16.950	831.124	632.225
344.504	16.971	830.614	631.860
345.519	16.984	830.225	631.556
346.533	17.049	829.594	631.264
347.548	17.057	828.838	630.659
348.562	17.064	828.385	630.286
349.577	16.797	827.742	628.750
350.592	16.782	827.232	628.252
351.606	16.774	827.151	628.106
352.621	16.901	826.672	628.155
353.635	16.888	826.006	627.545
354.650	16.747	825.582	626.647
355.665	16.927	824.870	626.717
356.679	16.921	824.572	626.411
357.694	16.984	824.231	626.332
358.708	16.957	823.835	625.874
359.723	17.046	823.190	625.657
360.738	16.903	822.547	624.586
361.752	16.957	821.881	624.224
362.767	17.101	821.271	624.237
363.781	17.138	821.125	624.204
364.796	17.308	820.537	624.328
365.810	17.267	820.471	624.070
366.825	17.378	819.941	624.020
367.840	17.317	819.560	623.450
368.854	17.349	818.802	622.936
369.869	17.399	818.327	622.702
370.883	17.412	817.664	622.192
371.898	17.415	817.072	621.698
372.913	17.388	816.745	621.296
373.927	17.363	816.424	620.903
374.942	17.231	815.707	619.822
375.956	17.296	815.060	619.511
376.971	17.399	814.412	619.340
377.986	17.463	814.326	619.452
379.000	17.581	813.545	619.232
380.015	17.633	812.884	618.864
381.029	17.541	812.490	618.175
382.044	17.769	811.735	618.373
383.059	17.604	811.331	617.413
384.073	17.666	810.674	617.082
385.088	17.607	810.526	616.703
386.102	17.488	809.922	615.758
387.117	17.472	808.901	614.870
388.132	17.468	808.568	614.547
389.146	17.583	808.070	614.530
390.161	17.518	808.037	614.214
391.175	17.600	807.658	614.169
392.190	17.754	807.290	614.391
393.205	17.500	806.983	613.184
394.219	17.616	806.374	613.086
395.234	17.550	806.098	612.584
396.248	17.559	805.314	611.967
397.263	17.360	804.940	610.914
398.278	17.431	804.161	610.524
399.292	17.502	803.733	610.397
400.307	17.453	803.633	610.092
401.321	17.395	803.187	609.492
402.336	17.505	803.086	609.757
403.350	17.571	802.370	609.395
404.365	17.466	801.900	608.608
405.380	17.612	801.469	608.749
406.394	17.786	800.828	608.831
407.409	17.965	800.315	609.023
408.423	17.931	800.381	608.899
409.438	17.957	799.535	608.296
410.453	17.958	799.477	608.200
411.467	17.924	798.800	607.512
412.482	18.012	798.117	607.250
413.496	17.891	798.215	606.841
414.511	17.874	797.294	606.025
415.526	18.215	796.608	606.660
416.540	17.933	796.523	605.542
417.555	18.043	796.201	605.633
418.569	18.103	795.461	605.228
419.584	18.026	795.329	604.802
420.599	18.012	795.033	604.474
421.613	153.707	1369.843	1790.259
422.628	133.024	1453.597	1790.367
