DTS Sentinel unit serial number:	SN413079Multiplexer serial number:	ORYXHardware model number:	OX4-SRSoftware version number:	ORYX F/W v4.00 Oryx Data Collector v3.7.2.0data status	okinstallation	princeton_trtdifferential loss correction	single-endedforward channel	channel 3reverse channel	N/Adate	2019/09/11time	04:26:10forward acquisition time	60.00reverse acquisition time	0.00gamma	496.2192k internal	0.2330k external	0.2330temperature offset calibration	0.9908default loss term (dB/km)	0.3790temperature slope calibration	1.0000multiplexer offset coefficient	1.0000multiplexer slope coefficient	1.0000fibre end	0.00T internal ref (°C)	29.56T ext. ref 1 (°C)	-0.31T ext. ref 2 (°C)	23.42length (m)	temperature (°C)	Stokes	anti-Stokes-747.200	148.311	-0.114	0.155
-746.185	187.959	0.167	-0.251
-745.171	800.000	-0.095	-0.395
-744.156	-200.000	0.020	0.214
-743.142	-167.514	-0.438	-0.018
-742.127	-200.000	0.004	0.090
-741.112	-96.996	0.334	0.088
-740.098	-200.000	-0.009	-0.056
-739.083	-32.970	-0.215	-0.120
-738.069	-19.934	-0.123	0.077
-737.054	443.257	0.107	0.235
-736.039	-117.541	-0.133	0.024
-735.025	800.000	0.069	0.266
-734.010	-40.560	-0.174	0.091
-732.996	43.244	-0.089	-0.082
-731.981	-200.000	-0.053	-0.326
-730.966	110.604	-0.041	-0.050
-729.952	51.272	-0.224	-0.214
-728.937	-150.122	0.501	-0.039
-727.923	-200.000	0.039	-0.370
-726.908	60.457	-0.140	-0.139
-725.894	-10.537	-0.097	-0.064
-724.879	-108.381	-0.342	-0.074
-723.864	308.247	0.054	-0.101
-722.850	-169.424	-0.122	0.004
-721.835	-57.874	-0.318	-0.140
-720.821	-200.000	-0.021	0.371
-719.806	306.681	0.067	-0.125
-718.791	72.561	-0.052	-0.055
-717.777	110.433	0.264	0.319
-716.762	26.112	0.294	-0.247
-715.748	51.353	-0.308	-0.294
-714.733	-53.397	-0.392	-0.181
-713.718	-149.561	0.238	0.019
-712.704	176.713	-0.205	0.300
-711.689	-59.166	-0.073	0.032
-710.675	-14.515	-0.127	0.082
-709.660	-121.134	-0.239	-0.040
-708.645	148.794	0.112	-0.153
-707.631	-27.974	-0.044	0.026
-706.616	-76.626	0.204	-0.072
-705.602	-200.000	0.020	-0.169
-704.587	-107.036	-0.108	0.024
-703.572	190.757	-0.093	-0.140
-702.558	87.846	-0.053	0.059
-701.543	135.336	0.105	0.138
-700.529	-109.638	0.238	-0.050
-699.514	-2.079	0.063	-0.044
-698.499	706.926	-0.069	-0.183
-697.485	797.365	-0.100	-0.278
-696.470	-90.945	0.150	0.043
-695.456	-200.000	-0.024	-0.148
-694.441	230.127	0.052	-0.085
-693.426	-200.000	0.006	0.084
-692.412	-143.336	0.372	0.036
-691.397	484.856	0.166	-0.381
-690.383	501.426	-0.046	0.107
-689.368	246.129	0.099	0.167
-688.354	-153.739	0.414	-0.029
-687.339	-200.000	-0.032	0.282
-686.324	55.912	0.039	-0.038
-685.310	106.092	-0.137	0.163
-684.295	472.056	-0.021	-0.048
-683.281	-65.701	-0.252	0.101
-682.266	-200.000	0.034	0.171
-681.251	227.648	0.119	0.195
-680.237	-70.408	-0.314	-0.120
-679.222	-200.000	0.039	-0.284
-678.208	313.530	-0.027	-0.051
-677.193	8.448	0.211	-0.160
-676.178	-200.000	0.046	-0.245
-675.164	624.369	-0.065	0.166
-674.149	178.235	-0.122	-0.179
-673.135	-81.231	-0.223	-0.074
-672.120	-115.220	-0.253	0.048
-671.105	-200.000	0.040	-0.261
-670.091	-54.698	0.051	-0.023
-669.076	-161.160	-0.188	0.010
-668.062	-68.215	0.332	0.130
-667.047	-75.584	0.268	0.096
-666.032	39.598	0.307	-0.277
-665.018	800.000	0.034	0.103
-664.003	380.389	-0.058	-0.120
-662.989	-200.000	-0.034	-0.191
-661.974	-71.201	0.026	0.010
-660.959	-109.899	-0.106	-0.022
-659.945	-200.000	-0.040	-0.222
-658.930	82.754	-0.302	0.329
-657.916	-200.000	0.017	-0.452
-656.901	-155.336	0.155	0.010
-655.886	166.834	-0.153	0.218
-654.872	101.999	0.233	-0.273
-653.857	8.670	-0.193	-0.146
-652.843	-200.000	-0.005	-0.209
-651.828	371.338	0.014	0.028
-650.814	-200.000	0.047	0.372
-649.799	-67.278	-0.202	0.080
-648.784	23.723	-0.236	0.195
-647.770	-189.222	0.234	-0.003
-646.755	-94.601	0.354	-0.097
-645.741	-76.588	0.205	0.072
-644.726	-200.000	-0.019	-0.299
-643.711	504.992	-0.103	-0.239
-642.697	312.169	-0.035	0.065
-641.682	256.259	0.083	0.143
-640.668	800.000	-0.065	-0.194
-639.653	-145.750	-0.116	-0.010
-638.638	-127.745	0.496	0.072
-637.624	297.779	-0.106	-0.196
-636.609	-133.145	-0.263	0.033
-635.595	-200.000	0.005	-0.042
-634.580	-19.888	0.067	0.041
-633.565	632.096	0.096	0.243
-632.551	163.818	-0.272	-0.384
-631.536	-136.960	0.259	-0.030
-630.522	-140.995	-0.232	-0.024
-629.507	-81.149	-0.102	-0.034
-628.492	19.852	0.215	-0.173
-627.478	-200.000	0.001	0.042
-626.463	-200.000	-0.040	0.238
-625.449	-153.332	-0.230	0.016
-624.434	26.984	0.099	0.083
-623.419	239.567	-0.087	0.144
-622.405	800.000	0.042	0.136
-621.390	559.124	-0.032	-0.077
-620.376	-92.149	-0.274	0.077
-619.361	-200.000	0.034	0.295
-618.346	25.373	0.074	0.061
-617.332	-200.000	-0.017	-0.177
-616.317	800.000	-0.088	-0.284
-615.303	-200.000	-0.049	0.337
-614.288	-200.000	0.040	0.201
-613.273	-144.046	-0.052	-0.005
-612.259	24.464	-0.110	-0.091
-611.244	-91.907	0.274	-0.078
-610.230	-134.576	-0.099	-0.012
-609.215	-130.904	-0.247	0.033
-608.201	-200.000	-0.096	0.483
-607.186	-48.804	-0.095	-0.045
-606.171	-200.000	0.038	-0.231
-605.157	276.331	0.103	-0.183
-604.142	334.529	-0.086	0.167
-603.128	800.000	-0.084	-0.369
-602.113	153.764	-0.004	-0.006
-601.098	365.710	0.139	0.280
-600.084	44.670	0.143	-0.132
-599.069	-49.539	-0.141	0.067
-598.055	-200.000	-0.043	-0.378
-597.040	-123.954	-0.109	0.017
-596.025	-200.000	0.059	0.323
-595.011	800.000	0.068	0.293
-593.996	-84.358	0.318	0.101
-592.982	-200.000	0.025	-0.237
-591.967	-94.215	0.208	-0.057
-590.952	-200.000	-0.061	-0.279
-589.938	-102.332	0.118	-0.028
-588.923	-91.121	-0.314	-0.090
-587.909	161.661	-0.145	-0.202
-586.894	176.304	-0.118	-0.171
-585.879	-103.876	0.101	0.024
-584.865	106.519	-0.147	-0.174
-583.850	434.939	-0.018	-0.038
-582.836	-73.113	-0.174	-0.064
-581.821	-62.651	-0.406	-0.168
-580.806	-82.683	-0.178	-0.058
-579.792	37.729	0.250	0.222
-578.777	-176.541	0.214	0.006
-577.763	-59.356	0.209	0.090
-576.748	-107.166	0.111	0.025
-575.733	333.118	-0.091	-0.176
-574.719	-115.855	0.067	-0.013
-573.704	464.264	0.044	-0.098
-572.690	-138.494	0.304	0.033
-571.675	240.087	-0.133	-0.222
-570.661	800.000	0.060	-0.170
-569.646	-44.604	0.223	-0.111
-568.631	-7.455	-0.157	-0.106
-567.617	800.000	-0.025	-0.105
-566.602	-65.174	-0.361	-0.145
-565.588	40.379	-0.107	0.096
-564.573	-35.150	-0.092	0.050
-563.558	-200.000	0.024	0.175
-562.544	54.027	-0.325	0.313
-561.529	-128.700	0.105	-0.015
-560.515	-135.822	-0.248	0.029
-559.500	-19.376	0.120	-0.074
-558.485	114.737	0.084	0.102
-557.471	-89.597	-0.249	-0.073
-556.456	-22.016	0.360	0.219
-555.442	-200.000	0.003	-0.076
-554.427	60.071	0.171	0.169
-553.412	-36.389	0.226	0.122
-552.398	-2.667	-0.183	-0.128
-551.383	-200.000	-0.005	-0.040
-550.369	146.867	0.021	-0.029
-549.354	-111.402	0.284	0.058
-548.339	-48.967	-0.311	0.149
-547.325	-22.888	-0.056	0.034
-546.310	61.097	0.150	0.149
-545.296	35.236	-0.273	-0.239
-544.281	-190.324	-0.064	-0.001
-543.266	-10.131	-0.180	-0.119
-542.252	800.000	0.062	-0.213
-541.237	212.297	-0.212	-0.333
-540.223	-85.480	0.182	-0.057
-539.208	131.038	0.073	-0.094
-538.193	-200.000	0.022	0.202
-537.179	-92.440	-0.230	0.065
-536.164	800.000	-0.007	0.031
-535.150	-109.125	-0.342	0.073
-534.135	-114.804	-0.288	-0.055
-533.121	-118.533	0.142	-0.025
-532.106	68.051	0.039	0.040
-531.091	280.004	-0.087	-0.156
-530.077	96.058	-0.329	-0.375
-529.062	-200.000	-0.016	0.127
-528.048	800.000	-0.068	-0.197
-527.033	-200.000	0.009	-0.190
-526.018	-126.320	0.368	0.055
-525.004	-200.000	-0.014	-0.296
-523.989	129.806	0.023	-0.030
-522.975	189.261	-0.208	-0.311
-521.960	99.826	-0.188	-0.218
-520.945	-69.547	0.154	-0.059
-519.931	-41.690	0.297	-0.152
-518.916	-79.903	-0.256	-0.086
-517.902	-200.000	0.042	-0.204
-516.887	-18.474	0.160	0.100
-515.872	-200.000	0.014	0.106
-514.858	679.094	-0.162	-0.420
-513.843	-147.824	-0.384	-0.032
-512.829	327.432	-0.091	-0.174
-511.814	-120.670	0.071	0.012
-510.799	-200.000	0.042	-0.341
-509.785	-176.053	0.167	-0.004
-508.770	-112.667	0.214	-0.043
-507.756	-200.000	0.016	0.143
-506.741	-182.029	0.178	-0.003
-505.726	63.110	-0.123	-0.123
-504.712	-200.000	0.047	-0.209
-503.697	-12.669	0.079	0.052
-502.683	-131.500	-0.261	0.034
-501.668	64.518	0.167	0.168
-500.653	97.791	-0.379	0.435
-499.639	800.000	0.096	-0.353
-498.624	117.269	-0.092	0.113
-497.610	71.322	0.188	0.194
-496.595	-122.679	-0.149	-0.024
-495.581	117.429	0.197	0.242
-494.566	164.141	-0.237	-0.333
-493.551	206.658	-0.212	-0.329
-492.537	319.281	-0.115	-0.218
-491.522	0.321	-0.056	-0.040
-490.508	-0.986	0.172	0.122
-489.493	-4.039	-0.306	-0.212
-488.478	-104.588	0.257	-0.059
-487.464	410.329	-0.107	0.225
-486.449	-161.556	0.276	0.014
-485.435	0.432	-0.303	0.216
-484.420	-184.575	0.181	-0.003
-483.405	25.702	0.292	-0.242
-482.391	54.488	-0.107	-0.103
-481.376	-125.343	0.437	0.066
-480.362	-100.311	0.106	-0.026
-479.347	241.193	-0.094	0.157
-478.332	800.000	0.060	-0.240
-477.318	-79.543	-0.044	-0.015
-476.303	-200.000	0.029	-0.225
-475.289	-200.000	0.024	-0.176
-474.274	-63.161	0.111	0.045
-473.259	800.000	0.089	0.272
-472.245	131.547	-0.089	-0.114
-471.230	-119.610	-0.140	-0.024
-470.216	-123.263	-0.162	0.026
-469.201	235.442	0.160	-0.263
-468.186	510.562	0.136	0.316
-467.172	211.710	-0.158	0.248
-466.157	-75.977	0.205	-0.072
-465.143	800.000	0.071	-0.223
-464.128	-145.909	-0.314	0.028
-463.113	-14.142	-0.168	-0.108
-462.099	193.775	0.281	-0.423
-461.084	800.000	0.193	0.542
-460.070	226.669	0.066	0.106
-459.055	206.892	0.083	-0.129
-458.040	10.580	0.108	0.082
-457.026	-200.000	-0.040	0.269
-456.011	-130.458	-0.352	0.047
-454.997	-119.957	-0.138	0.024
-453.982	-114.228	0.200	-0.038
-452.968	43.381	-0.149	0.136
-451.953	0.696	-0.189	0.134
-450.938	-200.000	0.072	0.339
-449.924	166.191	-0.162	0.228
-448.909	-84.256	0.110	-0.035
-447.895	111.304	-0.115	0.138
-446.880	-128.137	0.162	0.023
-445.865	-3.261	-0.122	0.085
-444.851	301.574	0.084	0.155
-443.836	-109.158	-0.273	-0.058
-442.822	-55.985	0.276	0.123
-441.807	563.922	0.114	0.275
-440.792	-200.000	-0.069	-0.324
-439.778	-160.883	-0.415	-0.022
-438.763	36.605	-0.110	0.097
-437.749	-200.000	0.002	-0.036
-436.734	102.534	0.080	-0.093
-435.719	-25.713	-0.084	0.049
-434.705	-200.000	0.051	0.249
-433.690	800.000	0.104	0.419
-432.676	-168.189	0.134	-0.005
-431.661	-31.618	0.474	-0.265
-430.646	-63.177	0.407	0.167
-429.632	501.933	0.080	-0.183
-428.617	278.134	-0.134	-0.237
-427.603	-104.151	0.173	-0.040
-426.588	800.000	-0.096	0.349
-425.573	-53.103	0.117	-0.053
-424.559	-120.615	-0.259	0.044
-423.544	30.444	0.224	0.190
-422.530	-105.619	0.217	0.049
-421.515	131.351	0.027	-0.035
-420.500	800.000	0.014	0.062
-419.486	-200.000	0.035	-0.224
-418.471	164.683	0.249	-0.349
-417.457	484.197	0.131	0.296
-416.442	-56.276	0.043	0.019
-415.428	-85.096	0.276	0.086
-414.413	98.187	-0.097	-0.111
-413.398	-60.546	-0.088	-0.037
-412.384	-57.800	0.184	0.080
-411.369	-200.000	-0.003	0.070
-410.355	-153.982	0.116	-0.008
-409.340	-151.150	-0.405	-0.030
-408.325	-200.000	-0.094	0.430
-407.311	74.845	0.107	-0.112
-406.296	97.582	-0.213	-0.243
-405.282	-61.784	0.242	0.101
-404.267	800.000	0.090	0.306
-403.252	-96.170	-0.306	0.081
-402.238	134.657	-0.242	-0.312
-401.223	-200.000	0.026	-0.160
-400.209	-129.305	-0.297	-0.041
-399.194	800.000	-0.044	-0.121
-398.179	-26.992	0.087	0.050
-397.165	48.851	-0.149	0.138
-396.150	-200.000	-0.100	-0.501
-395.136	-36.218	-0.159	0.085
-394.121	-200.000	-0.008	0.238
-393.106	152.881	0.100	0.136
-392.092	3.083	-0.149	-0.108
-391.077	-16.449	0.252	0.159
-390.063	800.000	-0.088	0.264
-389.048	2.825	0.196	0.142
-388.033	-13.125	0.049	0.032
-387.019	302.029	-0.079	0.145
-386.004	205.813	0.317	0.489
-384.990	800.000	0.075	-0.249
-383.975	-103.840	-0.234	-0.054
-382.960	96.702	-0.053	-0.061
-381.946	-30.378	0.240	-0.135
-380.931	204.197	-0.065	0.100
-379.917	134.365	0.238	-0.306
-378.902	30.790	0.316	0.269
-377.888	-200.000	0.006	0.383
-376.873	135.665	0.089	-0.115
-375.858	800.000	0.041	-0.175
-374.844	63.103	-0.274	0.273
-373.829	522.771	0.061	-0.142
-372.815	210.143	0.337	0.525
-371.800	-25.501	-0.260	0.152
-370.785	-100.869	0.302	0.074
-369.771	-91.485	-0.203	0.058
-368.756	-111.718	0.324	0.065
-367.742	207.594	0.107	0.166
-366.727	-200.000	0.020	0.113
-365.712	800.000	-0.071	-0.211
-364.698	334.219	-0.169	-0.324
-363.683	-103.495	-0.240	-0.056
-362.669	-41.818	0.196	0.100
-361.654	-200.000	-0.048	0.359
-360.639	422.160	0.086	0.182
-359.625	-9.381	0.280	0.185
-358.610	800.000	-0.040	-0.140
-357.596	800.000	0.082	-0.251
-356.581	-200.000	0.050	-0.487
-355.566	-200.000	-0.174	-0.001
-354.552	-71.684	0.262	0.097
-353.537	-98.878	0.104	0.026
-352.523	31.442	-0.297	-0.253
-351.508	366.443	-0.084	-0.169
-350.493	-89.024	0.140	-0.041
-349.479	-88.023	-0.090	0.027
-348.464	91.111	0.044	-0.049
-347.450	-165.351	-0.142	-0.006
-346.435	109.187	-0.178	0.212
-345.420	91.788	0.120	-0.134
-344.406	62.222	-0.110	0.108
-343.391	-200.000	-0.049	0.234
-342.377	78.056	0.231	0.244
-341.362	-200.000	-0.016	-0.105
-340.348	-77.305	-0.055	-0.019
-339.333	-43.570	0.310	-0.155
-338.318	-133.332	-0.101	-0.013
-337.304	297.535	-0.124	-0.225
-336.289	-87.577	0.336	0.101
-335.275	-173.207	-0.219	-0.007
-334.260	-135.188	-0.364	0.043
-333.245	800.000	-0.081	0.255
-332.231	800.000	-0.130	0.416
-331.216	176.248	0.099	0.143
-330.202	-35.289	-0.178	0.096
-329.187	-200.000	-0.076	0.371
-328.172	97.032	-0.041	0.047
-327.158	800.000	-0.094	0.293
-326.143	-60.543	0.437	0.184
-325.129	-87.687	0.142	0.042
-324.114	-124.977	-0.165	-0.025
-323.099	-200.000	0.055	0.332
-322.085	-124.506	0.202	-0.031
-321.070	800.000	0.060	-0.258
-320.056	-200.000	-0.058	0.517
-319.041	-166.858	0.159	-0.006
-318.026	-51.257	0.232	-0.108
-317.012	1.159	-0.110	0.078
-315.997	44.089	-0.113	0.102
-314.983	800.000	0.045	0.131
-313.968	-200.000	-0.005	-0.073
-312.953	-200.000	0.026	-0.235
-311.939	-137.082	0.165	-0.019
-310.924	-114.962	0.074	0.014
-309.910	8.559	-0.206	-0.154
-308.895	-106.238	0.176	-0.039
-307.880	650.630	-0.137	0.347
-306.866	70.822	0.026	-0.026
-305.851	-3.436	-0.357	0.246
-304.837	83.666	-0.243	0.262
-303.822	140.398	0.109	-0.142
-302.807	57.144	-0.286	0.276
-301.793	-82.939	-0.400	-0.128
-300.778	-95.206	-0.284	-0.076
-299.764	-200.000	0.002	-0.086
-298.749	800.000	0.099	-0.391
-297.735	800.000	0.025	-0.106
-296.720	-200.000	0.013	0.234
-295.705	28.242	0.266	0.222
-294.691	120.618	-0.122	0.150
-293.676	765.681	-0.091	-0.244
-292.662	95.363	-0.267	-0.301
-291.647	173.157	0.065	0.092
-290.632	191.943	-0.165	-0.246
-289.618	-106.045	0.098	-0.022
-288.603	800.000	0.084	-0.273
-287.589	-9.014	-0.267	-0.177
-286.574	-158.291	0.221	-0.013
-285.559	212.407	-0.098	0.152
-284.545	37.672	-0.135	0.119
-283.530	800.000	-0.037	0.147
-282.516	-5.609	-0.098	-0.066
-281.501	-115.627	-0.188	-0.035
-280.486	8.012	0.184	0.136
-279.472	106.106	-0.011	-0.013
-278.457	445.167	0.048	0.104
-277.443	719.915	0.049	-0.128
-276.428	-81.118	-0.136	0.044
-275.413	100.158	0.090	-0.104
-274.399	398.742	0.019	-0.039
-273.384	134.210	0.017	-0.022
-272.370	-29.401	0.105	-0.060
-271.355	-80.120	-0.194	-0.064
-270.340	86.676	-0.190	0.207
-269.326	4.687	-0.370	-0.269
-268.311	-81.251	-0.202	-0.066
-267.297	-26.639	0.218	-0.126
-266.282	-66.431	-0.051	0.020
-265.267	-200.000	0.004	0.227
-264.253	-185.256	0.342	0.005
-263.238	-108.867	-0.365	0.077
-262.224	-135.252	0.313	0.037
-261.209	800.000	0.022	-0.080
-260.195	26.389	-0.154	-0.127
-259.180	-56.257	-0.217	-0.095
-258.165	85.758	0.063	-0.068
-257.151	-77.531	-0.079	-0.027
-256.136	-161.502	-0.177	-0.009
-255.122	765.762	-0.097	-0.261
-254.107	-71.857	-0.305	-0.112
-253.092	-129.981	-0.200	0.027
-252.078	303.464	0.015	0.027
-251.063	33.331	0.482	0.413
-250.049	26.846	-0.120	0.099
-249.034	-200.000	0.003	0.040
-248.019	-200.000	-0.001	-0.255
-247.005	-14.830	0.193	-0.122
-245.990	-18.814	0.201	0.124
-244.976	-89.394	0.296	0.086
-243.961	-200.000	0.007	-0.187
-242.946	800.000	0.026	0.084
-241.932	80.174	0.263	0.279
-240.917	115.971	0.238	0.287
-239.903	-25.082	-0.045	-0.027
-238.888	-113.781	0.080	0.015
-237.873	-200.000	0.040	-0.362
-236.859	511.643	-0.020	0.046
-235.844	800.000	0.090	0.254
-234.830	-104.629	0.169	0.038
-233.815	34.283	0.089	-0.077
-232.800	71.147	0.110	-0.113
-231.786	41.699	-0.150	0.134
-230.771	92.166	-0.151	-0.167
-229.757	-17.532	0.199	-0.123
-228.742	585.098	-0.057	0.138
-227.727	-118.479	-0.171	0.030
-226.713	-200.000	-0.027	0.248
-225.698	800.000	0.159	-0.527
-224.684	267.814	-0.092	-0.159
-223.669	664.325	-0.167	-0.425
-222.655	577.547	-0.049	0.119
-221.640	-134.631	0.472	-0.057
-220.625	-89.322	0.077	-0.022
-219.611	188.903	-0.107	-0.158
-218.596	-200.000	0.012	0.173
-217.582	-147.302	0.070	-0.006
-216.567	-44.967	0.398	0.195
-215.552	160.786	-0.116	-0.159
-214.538	120.330	-0.104	0.127
-213.523	178.212	0.135	0.194
-212.509	121.896	-0.036	0.044
-211.494	-200.000	0.015	0.160
-210.479	-120.283	-0.309	-0.052
-209.465	-155.004	0.194	-0.013
-208.450	490.733	-0.116	-0.261
-207.436	-60.218	0.183	-0.077
-206.421	131.777	-0.285	-0.362
-205.406	13.080	0.153	0.117
-204.392	800.000	0.084	0.250
-203.377	-125.108	0.152	0.023
-202.363	387.296	-0.125	0.255
-201.348	-95.103	0.135	-0.036
-200.333	-30.875	0.212	-0.118
-199.319	542.057	0.085	0.199
-198.304	-200.000	0.054	-0.459
-197.290	-117.113	0.269	-0.048
-196.275	-67.211	-0.211	-0.082
-195.260	-34.594	0.085	-0.046
-194.246	-179.424	0.121	-0.003
-193.231	-1.956	0.042	-0.029
-192.217	-112.603	0.191	0.037
-191.202	204.881	-0.093	-0.142
-190.187	62.479	0.297	-0.292
-189.173	-200.000	-0.050	-0.362
-188.158	119.683	0.219	0.267
-187.144	-200.000	0.025	0.146
-186.129	201.082	-0.132	0.201
-185.114	291.013	-0.093	-0.167
-184.100	800.000	-0.085	-0.266
-183.085	160.789	0.042	-0.057
-182.071	-106.302	-0.196	-0.043
-181.056	-163.030	0.200	0.010
-180.042	-86.607	0.178	0.054
-179.027	476.967	0.124	0.277
-178.012	-200.000	-0.037	0.302
-176.998	590.413	-0.134	0.325
-175.983	-125.159	0.085	-0.013
-174.969	-61.836	-0.133	0.055
-173.954	-200.000	0.016	0.228
-172.939	800.000	0.065	-0.194
-171.925	15.944	-0.072	0.056
-170.910	800.000	0.064	0.230
-169.896	424.495	0.114	-0.242
-168.881	-60.585	-0.242	-0.101
-167.866	-88.122	0.081	0.024
-166.852	-135.653	-0.346	-0.040
-165.837	-99.136	-0.283	0.070
-164.823	-61.354	-0.187	0.077
-163.808	272.551	0.100	0.174
-162.793	-74.049	0.112	-0.040
-161.779	-38.250	0.186	-0.097
-160.764	735.075	-0.091	0.241
-159.750	-200.000	0.032	0.153
-158.735	176.617	-0.050	-0.072
-157.720	428.917	0.110	-0.234
-156.706	-91.948	0.133	-0.037
-155.691	-190.688	-0.146	0.002
-154.677	-200.000	0.036	-0.214
-153.662	-121.102	-0.368	0.061
-152.647	110.479	0.205	-0.243
-151.633	-200.000	0.010	0.157
-150.618	208.591	0.031	0.047
-149.604	-11.760	-0.112	-0.073
-148.589	14.808	0.223	0.172
-147.574	-52.203	0.238	-0.109
-146.560	-43.943	0.135	0.067
-145.545	-200.000	-0.013	0.460
-144.531	42.719	-0.140	-0.126
-143.516	-21.777	-0.304	0.182
-142.502	152.399	0.064	0.085
-141.487	-53.554	0.296	0.133
-140.472	-104.889	-0.243	0.055
-139.458	-103.074	0.142	0.033
-138.443	105.121	-0.253	0.294
-137.429	-37.722	0.155	0.081
-136.414	22.222	0.125	-0.100
-135.399	-200.000	0.092	-0.551
-134.385	506.891	0.151	-0.344
-133.370	417.955	-0.126	-0.266
-132.356	224.122	0.021	0.034
-131.341	-200.000	-0.028	0.313
-130.326	-57.342	-0.011	-0.005
-129.312	800.000	-0.023	0.080
-128.297	338.283	-0.135	0.259
-127.283	-86.755	0.182	0.055
-126.268	-63.007	0.125	0.051
-125.253	-77.252	-0.215	0.074
-124.239	-96.465	0.114	-0.030
-123.224	-121.350	-0.236	-0.039
-122.210	422.814	-0.007	0.015
-121.195	-200.000	0.014	0.123
-120.180	792.861	-0.057	-0.153
-119.166	-104.444	0.161	-0.037
-118.151	53.266	0.368	-0.346
-117.137	-200.000	0.001	0.335
-116.122	-56.887	-0.248	0.108
-115.107	51.171	0.146	-0.136
-114.093	36.133	-0.236	-0.204
-113.078	-200.000	0.017	-0.247
-112.064	-59.723	-0.169	-0.071
-111.049	-134.564	-0.355	-0.043
-110.034	-73.491	-0.198	-0.071
-109.020	137.493	-0.165	-0.212
-108.005	47.729	-0.241	-0.221
-106.991	-200.000	0.027	-0.138
-105.976	800.000	-0.013	0.040
-104.962	800.000	-0.045	0.161
-103.947	-200.000	-0.012	-0.085
-102.932	-74.136	-0.173	-0.062
-101.918	-125.350	-0.025	0.004
-100.903	-94.864	0.268	0.071
-99.889	-23.547	0.110	0.065
-98.874	-200.000	-0.005	-0.041
-97.859	-99.528	-0.445	0.110
-96.845	-200.000	0.035	0.177
-95.830	-200.000	-0.051	-0.300
-94.816	-200.000	0.001	0.138
-93.801	-125.767	0.155	0.023
-92.786	196.671	0.167	-0.250
-91.772	-18.290	-0.090	-0.055
-90.757	-173.250	-0.190	0.006
-89.743	-134.750	0.258	0.031
-88.728	-200.000	0.047	0.227
-87.713	274.680	-0.008	0.014
-86.699	-200.000	0.061	0.378
-85.684	-130.957	-0.071	-0.009
-84.670	180.934	0.172	0.247
-83.655	138.473	0.169	-0.218
-82.640	-66.518	-0.054	-0.021
-81.626	-58.838	-0.081	-0.035
-80.611	142.022	-0.135	0.176
-79.597	-171.340	0.195	0.006
-78.582	113.865	-0.098	-0.117
-77.567	-200.000	0.002	0.088
-76.553	-150.298	-0.198	0.015
-75.538	-200.000	0.002	-0.014
-74.524	-119.871	-0.152	-0.026
-73.509	-200.000	-0.008	0.521
-72.494	659.585	-0.059	-0.148
-71.480	-200.000	0.004	0.219
-70.465	70.949	-0.139	0.141
-69.451	389.316	0.063	0.128
-68.436	800.000	-0.034	0.103
-67.422	-200.000	0.009	-0.318
-66.407	-200.000	-0.039	0.319
-65.392	43.511	0.100	0.090
-64.378	-171.964	0.250	-0.008
-63.363	-5.694	0.056	0.037
-62.349	112.964	-0.124	0.148
-61.334	163.288	-0.883	-1.217
-60.319	-200.000	0.189	0.846
-59.305	800.000	-0.343	-0.954
-58.290	221.372	0.688	1.083
-57.276	800.000	0.535	1.566
-56.261	-200.000	106.057	613.926
-55.246	504.877	1506.930	3419.339
-54.232	176.338	2700.738	3844.656
-53.217	110.597	2186.949	2576.682
-52.203	40.203	1704.619	1502.012
-51.188	32.626	1514.284	1282.908
-50.173	30.425	1487.051	1245.050
-49.159	51.478	1543.089	1436.393
-48.144	51.809	1559.536	1453.907
-47.130	32.975	1515.219	1285.872
-46.115	29.902	1500.732	1252.765
-45.100	29.636	1497.688	1248.380
-44.086	29.698	1494.857	1246.386
-43.071	29.628	1492.901	1244.239
-42.057	29.516	1491.419	1242.196
-41.042	29.562	1489.767	1241.083
-40.027	29.571	1489.119	1240.551
-39.013	29.637	1486.903	1239.103
-37.998	29.507	1485.693	1237.169
-36.984	29.482	1484.688	1236.118
-35.969	29.656	1483.185	1235.980
-34.954	29.493	1482.025	1233.876
-33.940	29.516	1480.493	1232.708
-32.925	29.652	1478.101	1231.572
-31.911	29.489	1478.215	1230.530
-30.896	29.688	1476.342	1230.245
-29.881	29.660	1475.445	1229.269
-28.867	29.584	1473.913	1227.438
-27.852	29.638	1472.525	1226.589
-26.838	29.651	1470.852	1225.232
-25.823	29.659	1469.479	1224.092
-24.809	29.666	1467.686	1222.596
-23.794	29.650	1466.547	1221.495
-22.779	29.497	1466.021	1219.995
-21.765	29.523	1465.008	1219.280
-20.750	29.611	1463.010	1218.147
-19.736	29.462	1462.543	1216.727
-18.721	29.613	1460.872	1216.284
-17.706	29.497	1460.266	1214.964
-16.692	29.499	1458.957	1213.842
-15.677	29.603	1457.618	1213.365
-14.663	29.664	1456.394	1212.698
-13.648	29.576	1455.895	1211.655
-12.633	29.510	1455.004	1210.436
-11.619	29.633	1454.055	1210.403
-10.604	29.481	1453.865	1209.199
-9.590	29.594	1452.479	1208.736
-8.575	29.509	1451.745	1207.523
-7.560	29.538	1450.402	1206.546
-6.546	29.487	1450.142	1205.953
-5.531	29.424	1449.192	1204.700
-4.517	29.433	1448.690	1204.297
-3.502	29.509	1447.271	1203.563
-2.487	29.495	1445.796	1202.200
-1.473	29.496	1444.907	1201.419
-0.458	29.547	1443.279	1200.347
0.556	27.104	1434.280	1189.755
1.571	24.244	1408.815	1150.104
2.586	20.952	1350.816	1082.256
3.600	19.624	1269.927	1009.602
4.615	18.330	1226.170	967.421
5.629	16.193	1171.355	912.546
6.644	8.165	1087.919	806.993
7.659	1.021	1047.513	742.050
8.673	-0.150	1041.608	732.095
9.688	-0.362	1038.389	728.738
10.702	-0.345	1036.465	727.406
11.717	-0.363	1034.489	725.870
12.731	2.939	1038.228	744.446
13.746	11.751	1051.104	796.696
14.761	18.673	1059.337	836.727
15.775	20.403	1061.344	846.682
16.790	20.646	1061.252	847.719
17.804	20.482	1060.396	846.160
18.819	20.336	1059.162	844.392
19.834	20.355	1059.281	844.501
20.848	20.633	1058.282	844.983
21.863	20.588	1058.389	844.774
22.877	20.576	1058.023	844.349
23.892	20.586	1056.999	843.505
24.907	20.299	1056.829	841.904
25.921	20.511	1055.500	841.797
26.936	20.622	1054.924	841.801
27.950	20.510	1053.696	840.203
28.965	20.500	1052.184	838.877
29.980	20.341	1050.992	837.086
30.994	20.386	1049.522	836.059
32.009	20.545	1048.710	836.099
33.023	20.662	1047.739	835.817
34.038	20.410	1046.863	833.832
35.053	20.408	1045.734	832.852
36.067	20.577	1045.491	833.391
37.082	20.627	1044.005	832.376
38.096	20.629	1043.449	831.866
39.111	20.696	1043.232	831.938
40.126	20.905	1041.992	831.877
41.140	20.830	1040.765	830.463
42.155	20.400	1039.466	827.306
43.169	20.303	1038.156	825.731
44.184	20.311	1037.189	824.925
45.199	20.368	1035.957	824.144
46.213	20.223	1034.837	822.489
47.228	20.208	1033.870	821.582
48.242	20.390	1033.160	821.805
49.257	20.527	1031.949	821.413
50.271	20.529	1031.461	820.965
51.286	20.543	1030.797	820.429
52.301	20.654	1029.896	820.163
53.315	20.574	1029.373	819.296
54.330	20.683	1028.574	819.103
55.344	20.670	1027.433	818.058
56.359	20.451	1027.204	816.773
57.374	20.561	1026.114	816.354
58.388	20.389	1024.849	814.466
59.403	20.325	1024.212	813.589
60.417	20.335	1023.718	813.170
61.432	20.143	1022.787	811.459
62.447	20.345	1021.735	811.500
63.461	20.350	1021.174	811.006
64.476	20.436	1020.617	810.891
65.490	20.412	1019.304	809.663
66.505	20.336	1018.515	808.615
67.520	20.367	1017.521	807.895
68.534	20.447	1017.088	807.855
69.549	20.306	1015.722	806.043
70.563	20.077	1014.280	803.764
71.578	19.917	1013.657	802.459
72.593	19.871	1012.876	801.556
73.607	19.807	1011.665	800.228
74.622	19.831	1010.724	799.527
75.636	20.134	1009.847	800.162
76.651	20.245	1009.337	800.198
77.666	20.122	1008.149	798.620
78.680	19.948	1007.209	797.004
79.695	20.003	1007.243	797.210
80.709	20.208	1006.019	797.115
81.724	20.305	1005.582	797.141
82.739	20.166	1004.866	795.868
83.753	20.142	1003.846	794.880
84.768	20.374	1003.253	795.404
85.782	20.754	1002.489	796.466
86.797	20.968	1001.579	796.651
87.812	20.873	1000.962	795.656
88.826	20.740	999.621	793.909
89.841	20.635	998.888	792.780
90.855	20.699	998.059	792.345
91.870	20.801	997.520	792.310
92.884	20.765	996.710	791.432
93.899	20.694	995.831	790.342
94.914	20.704	994.496	789.257
95.928	20.757	993.931	788.981
96.943	20.632	993.351	787.886
97.957	20.317	992.436	785.661
98.972	20.318	990.801	784.304
99.987	19.961	989.971	781.964
101.001	20.194	989.225	782.359
102.016	20.409	988.946	783.036
103.030	20.532	988.166	782.903
104.045	20.408	986.865	781.246
105.060	20.114	985.760	778.981
106.074	20.177	983.959	777.771
107.089	20.247	983.168	777.394
108.103	20.416	983.431	778.286
109.118	20.561	982.561	778.178
110.133	20.404	980.731	775.960
111.147	20.496	979.452	775.292
112.162	20.181	978.516	773.075
113.176	20.061	977.467	771.644
114.191	20.148	976.945	771.552
115.206	20.262	975.874	771.143
116.220	19.792	974.925	768.239
117.235	19.808	973.717	767.292
118.249	19.926	973.072	767.237
119.264	20.062	971.955	766.889
120.279	19.955	971.470	765.965
121.293	19.946	970.400	765.014
122.308	19.974	970.017	764.768
123.322	20.181	968.795	764.652
124.337	20.115	967.787	763.496
125.352	19.967	966.237	761.559
126.366	19.640	964.718	758.854
127.381	19.235	963.731	756.237
128.395	19.684	963.274	757.779
129.410	20.356	962.689	760.194
130.424	20.536	961.728	760.154
131.439	20.505	961.046	759.415
132.454	20.390	959.517	757.638
133.468	20.370	959.018	757.090
134.483	20.408	957.703	756.151
135.497	20.518	957.151	756.127
136.512	20.651	957.142	756.630
137.527	20.820	955.856	756.281
138.541	20.670	955.011	754.893
139.556	20.683	954.665	754.609
140.570	20.743	953.340	753.758
141.585	20.790	952.465	753.204
142.600	20.673	951.870	752.159
143.614	20.632	950.908	751.154
144.629	20.906	950.000	751.554
145.643	21.059	949.554	751.792
146.658	20.752	948.493	749.565
147.673	20.745	947.077	748.348
148.687	20.641	946.001	746.987
149.702	20.464	944.932	745.315
150.716	20.523	943.786	744.599
151.731	20.531	943.083	744.012
152.746	20.577	942.063	743.339
153.760	20.884	941.278	743.966
154.775	20.880	940.480	743.253
155.789	20.911	939.660	742.673
156.804	20.784	939.433	741.884
157.819	20.840	937.885	740.833
158.833	20.860	937.701	740.706
159.848	20.924	936.951	740.323
160.862	20.958	935.633	739.360
161.877	20.835	934.583	737.942
162.892	20.769	934.048	737.177
163.906	21.035	932.831	737.273
164.921	20.906	932.533	736.430
165.935	20.805	931.092	734.799
166.950	20.856	930.232	734.269
167.964	20.829	929.218	733.293
168.979	20.817	928.156	732.339
169.994	20.804	927.026	731.326
171.008	20.630	926.131	729.826
172.023	20.875	925.218	730.070
173.037	20.911	924.594	729.664
174.052	20.849	923.078	728.144
175.067	20.691	922.107	726.654
176.081	20.648	921.387	725.842
177.096	20.550	921.066	725.114
178.110	20.742	919.738	724.804
179.125	20.513	918.685	722.959
180.140	20.198	917.577	720.714
181.154	20.362	916.849	720.761
182.169	20.307	916.501	720.193
183.183	20.640	916.398	721.431
184.198	20.913	915.781	722.014
185.213	20.869	914.970	721.130
186.227	20.781	914.478	720.313
187.242	20.928	913.717	720.257
188.256	20.891	913.327	719.730
189.271	20.793	912.493	718.607
190.286	20.945	911.836	718.651
191.300	20.809	910.557	717.020
192.315	20.327	909.492	714.137
193.329	19.630	907.738	709.832
194.344	19.303	906.712	707.626
195.359	19.842	907.161	710.129
196.373	20.479	907.510	712.952
197.388	20.884	906.730	713.936
198.402	20.688	906.421	712.828
199.417	20.676	905.398	711.912
200.432	20.765	905.164	712.026
201.446	20.600	904.564	710.819
202.461	20.305	903.488	708.705
203.475	20.332	902.971	708.346
204.490	19.854	901.425	705.122
205.504	18.832	899.597	699.471
206.519	19.385	900.132	702.077
207.534	20.248	900.030	705.447
208.548	20.369	899.165	705.197
209.563	20.782	898.824	706.546
210.577	20.756	898.107	705.813
211.592	20.466	897.498	704.098
212.607	20.763	897.524	705.259
213.621	20.945	896.979	705.505
214.636	20.848	896.444	704.629
215.650	20.859	896.120	704.356
216.665	20.872	894.962	703.436
217.680	20.776	894.816	702.873
218.694	20.928	894.274	702.999
219.709	20.490	893.277	700.386
220.723	20.234	892.482	698.671
221.738	20.584	891.604	699.329
222.753	20.725	891.132	699.464
223.767	20.708	889.977	698.426
224.782	20.816	889.533	698.450
225.796	20.725	889.343	697.875
226.811	20.998	888.566	698.298
227.826	20.483	887.313	695.191
228.840	19.722	886.325	691.310
229.855	20.002	884.984	691.322
230.869	20.214	884.648	691.846
231.884	19.711	883.791	689.109
232.899	19.658	883.639	688.718
233.913	20.466	883.888	692.070
234.928	20.653	883.515	692.463
235.942	20.709	882.638	691.937
236.957	20.732	881.921	691.406
237.972	20.392	881.187	689.420
238.986	20.393	880.319	688.683
240.001	20.554	879.788	688.845
241.015	20.556	878.742	687.973
242.030	20.396	878.472	687.066
243.045	20.490	877.903	686.932
244.059	20.632	877.502	687.120
245.074	20.957	876.929	687.894
246.088	20.835	876.348	686.896
247.103	20.501	875.187	684.609
248.117	20.313	874.954	683.624
249.132	20.989	874.599	685.946
250.147	21.500	873.701	687.190
251.161	21.398	873.380	686.476
252.176	21.504	873.140	686.645
253.190	21.544	872.122	685.939
254.205	21.555	872.018	685.838
255.220	21.808	871.405	686.287
256.234	21.670	870.791	685.204
257.249	21.640	870.202	684.562
258.263	21.378	869.179	682.673
259.278	21.571	868.658	682.957
260.293	21.443	868.592	682.346
261.307	21.618	868.190	682.652
262.322	21.642	867.228	681.928
263.336	21.546	866.178	680.667
264.351	20.942	864.748	677.141
265.366	19.738	863.086	671.105
266.380	19.386	862.393	669.144
267.395	20.291	862.709	672.838
268.409	21.223	862.843	676.496
269.424	21.146	861.867	675.373
270.439	21.360	861.254	675.661
271.453	21.399	860.924	675.490
272.468	21.440	860.020	674.882
273.482	21.625	859.776	675.346
274.497	21.816	859.085	675.477
275.512	21.531	858.285	673.691
276.526	20.898	857.057	670.233
277.541	21.235	856.608	671.120
278.555	21.573	856.287	672.106
279.570	21.383	855.301	670.545
280.585	21.145	854.930	669.281
281.599	21.165	854.383	668.870
282.614	21.422	853.742	669.294
283.628	20.958	852.870	666.775
284.643	20.587	852.152	664.737
285.657	20.922	852.052	665.882
286.672	20.898	851.500	665.299
287.687	20.299	850.620	662.267
288.701	20.666	850.095	663.198
289.716	21.142	850.049	664.920
290.730	20.614	849.314	662.276
291.745	20.721	848.228	661.777
292.760	20.555	847.114	660.218
293.774	20.499	846.635	659.576
294.789	21.245	847.330	662.889
295.803	21.887	847.157	665.132
296.818	21.956	846.832	665.078
297.833	22.096	845.968	664.872
298.847	21.744	845.213	662.887
299.862	21.457	844.280	661.011
300.876	21.612	844.049	661.358
301.891	21.912	843.421	661.940
302.906	21.931	842.879	661.527
303.920	21.525	841.470	658.835
304.935	21.308	841.001	657.595
305.949	21.803	840.446	658.961
306.964	21.903	839.881	658.838
307.979	21.763	839.400	657.873
308.993	21.635	839.228	657.200
310.008	21.914	839.001	658.012
311.022	22.127	838.438	658.310
312.037	21.998	837.735	657.216
313.052	21.644	837.058	655.304
314.066	21.725	836.017	654.733
315.081	20.914	835.129	650.950
316.095	20.309	833.560	647.414
317.110	20.681	834.200	649.243
318.125	21.567	834.275	652.547
319.139	21.215	833.216	650.352
320.154	20.055	831.367	644.541
321.168	19.591	830.402	642.009
322.183	20.195	830.792	644.499
323.197	21.256	830.738	648.342
324.212	21.560	830.513	649.235
325.227	21.620	829.988	648.989
326.241	21.629	830.272	649.187
327.256	21.733	829.352	648.795
328.270	21.527	828.826	647.566
329.285	21.507	827.957	646.755
330.300	21.465	826.952	645.759
331.314	21.218	826.085	644.111
332.329	21.263	825.679	643.906
333.343	21.501	825.843	644.855
334.358	21.756	825.098	645.155
335.373	21.776	824.725	644.878
336.387	21.794	824.189	644.469
337.402	22.130	823.735	645.289
338.416	22.343	823.224	645.616
339.431	22.141	822.774	644.463
340.446	22.127	822.159	643.872
341.460	22.330	821.667	644.175
342.475	22.260	821.373	643.632
343.489	22.017	820.334	641.873
344.504	22.083	820.040	641.827
345.519	22.315	819.803	642.430
346.533	22.500	819.046	642.454
347.548	22.594	818.777	642.530
348.562	22.797	818.092	642.676
349.577	22.658	817.339	641.523
350.592	22.642	816.769	640.959
351.606	22.521	816.563	640.299
352.621	22.539	815.981	639.853
353.635	22.464	815.511	639.156
354.650	22.397	815.316	638.702
355.665	22.029	814.249	636.477
356.679	21.046	812.620	631.590
357.694	20.961	811.980	630.729
358.708	21.669	811.930	633.195
359.723	21.484	811.132	631.850
360.738	21.766	810.980	632.694
361.752	22.175	811.155	634.250
362.767	22.287	810.770	634.296
363.781	22.648	810.339	635.202
364.796	22.867	810.230	635.849
365.810	22.900	809.585	635.405
366.825	22.890	809.616	635.337
367.840	22.803	809.108	634.569
368.854	22.805	808.256	633.854
369.869	22.403	807.545	631.796
370.883	22.318	806.863	630.905
371.898	22.243	806.158	630.027
372.913	22.335	805.379	629.691
373.927	22.246	805.098	629.100
374.942	22.497	804.519	629.487
375.956	22.417	804.014	628.752
376.971	22.612	803.825	629.245
377.986	22.596	803.045	628.522
379.000	22.824	803.061	629.291
380.015	22.923	802.420	629.084
381.029	22.855	801.312	627.919
382.044	22.728	800.816	627.024
383.059	22.765	800.561	626.901
384.073	22.758	800.024	626.397
385.088	22.807	799.584	626.171
386.102	22.799	799.053	625.673
387.117	22.848	798.353	625.242
388.132	22.577	797.899	623.872
389.146	22.570	796.718	622.868
390.161	21.937	795.983	620.003
391.175	22.058	795.642	620.109
392.190	22.468	796.162	621.909
393.205	22.462	795.625	621.414
394.219	21.409	793.816	616.235
395.234	20.013	791.231	609.270
396.248	19.293	790.562	606.166
397.263	20.423	791.356	610.698
398.278	22.081	792.923	617.689
399.292	22.532	792.678	619.028
400.307	22.301	791.709	617.405
401.321	22.200	791.383	616.742
402.336	22.265	791.019	616.633
403.350	22.665	790.752	617.771
404.365	23.078	790.579	619.030
405.380	23.180	790.573	619.326
406.394	23.437	790.261	619.927
407.409	23.529	789.815	619.842
408.423	23.541	789.477	619.565
409.438	23.420	788.923	618.653
410.453	23.462	788.621	618.507
411.467	23.488	788.432	618.395
412.482	23.473	787.291	617.392
413.496	23.501	786.803	617.054
414.511	23.518	786.584	616.887
415.526	23.653	785.842	616.717
416.540	23.589	785.880	616.469
417.555	23.568	785.180	615.793
418.569	23.237	784.274	613.882
419.584	23.337	783.728	613.748
420.599	23.323	783.626	613.564
421.613	157.392	1363.973	1798.335
422.628	136.089	1448.505	1798.417
