DTS Sentinel unit serial number:	SN413079Multiplexer serial number:	ORYXHardware model number:	OX4-SRSoftware version number:	ORYX F/W v4.00 Oryx Data Collector v3.7.2.0data status	okinstallation	princeton_trtdifferential loss correction	single-endedforward channel	channel 3reverse channel	N/Adate	2019/09/17time	16:28:35forward acquisition time	60.00reverse acquisition time	0.00gamma	496.2192k internal	0.2291k external	0.2291temperature offset calibration	0.9954default loss term (dB/km)	0.3790temperature slope calibration	1.0000multiplexer offset coefficient	1.0000multiplexer slope coefficient	1.0000fibre end	0.00T internal ref (°C)	41.48T ext. ref 1 (°C)	0.37T ext. ref 2 (°C)	38.50length (m)	temperature (°C)	Stokes	anti-Stokes-747.200	76.644	0.057	0.062
-746.185	111.146	-0.285	0.352
-745.171	-108.185	-0.108	0.024
-744.156	78.004	0.261	0.285
-743.142	-200.000	0.036	0.266
-742.127	0.947	0.055	0.040
-741.112	-23.410	-0.190	-0.117
-740.098	-47.922	-0.223	0.110
-739.083	-44.346	0.369	0.189
-738.069	-123.124	0.048	-0.008
-737.054	-31.707	-0.131	-0.075
-736.039	-170.180	-0.410	0.015
-735.025	-145.425	0.244	0.023
-734.010	779.257	-0.021	0.058
-732.996	17.582	-0.135	-0.110
-731.981	-59.794	-0.111	-0.049
-730.966	258.219	-0.226	-0.398
-729.952	-200.000	0.009	-0.166
-728.937	-48.519	-0.444	-0.219
-727.923	-92.514	-0.366	-0.105
-726.908	-85.017	-0.036	-0.012
-725.894	-89.708	-0.295	0.089
-724.879	102.552	-0.187	-0.224
-723.864	-126.342	-0.029	-0.004
-722.850	-128.773	-0.141	-0.020
-721.835	-15.110	-0.146	-0.096
-720.821	-39.328	-0.230	0.123
-719.806	800.000	0.098	-0.300
-718.791	72.847	-0.171	-0.183
-717.777	356.684	-0.056	0.113
-716.762	229.462	0.089	-0.148
-715.748	-117.719	-0.191	0.035
-714.733	-20.608	-0.222	0.140
-713.718	-107.861	0.265	-0.059
-712.704	-163.171	0.226	0.011
-711.689	151.782	-0.097	-0.135
-710.675	-177.141	0.105	-0.003
-709.660	-66.502	-0.172	-0.070
-708.645	91.364	-0.205	-0.236
-707.631	-84.597	-0.207	-0.067
-706.616	-200.000	-0.028	0.230
-705.602	-167.643	0.059	0.002
-704.587	51.855	0.093	0.091
-703.572	-52.250	0.221	-0.105
-702.558	-200.000	-0.020	-0.143
-701.543	-200.000	-0.010	-0.347
-700.529	-31.358	0.201	0.115
-699.514	627.238	0.075	-0.194
-698.499	74.281	-0.186	0.200
-697.485	-50.124	-0.197	0.096
-696.470	-45.377	0.380	0.193
-695.456	-89.577	-0.202	0.061
-694.441	21.908	-0.144	0.120
-693.426	-21.961	0.168	0.104
-692.412	130.643	0.242	0.317
-691.397	-152.102	-0.122	0.009
-690.383	71.872	-0.410	-0.436
-689.368	118.079	0.070	0.089
-688.354	301.213	-0.113	0.212
-687.339	134.346	-0.071	-0.094
-686.324	4.317	0.151	-0.113
-685.310	-46.912	0.083	-0.041
-684.295	-200.000	0.021	-0.303
-683.281	134.748	0.090	0.120
-682.266	209.893	0.010	0.016
-681.251	127.436	0.110	-0.142
-680.237	78.216	0.087	0.095
-679.222	85.535	0.157	0.176
-678.208	-193.477	0.219	-0.002
-677.193	602.758	-0.038	-0.096
-676.178	192.375	0.248	-0.383
-675.164	97.272	0.124	-0.145
-674.149	-200.000	-0.030	0.137
-673.135	69.721	-0.205	-0.216
-672.120	126.122	-0.238	-0.307
-671.105	142.845	-0.210	0.285
-670.091	-200.000	0.000	0.046
-669.076	-200.000	-0.012	-0.337
-668.062	106.472	0.174	-0.211
-667.047	33.839	-0.108	-0.096
-666.032	-128.969	-0.176	-0.025
-665.018	-87.826	-0.157	0.048
-664.003	-146.784	-0.208	0.018
-662.989	-200.000	0.028	-0.436
-661.974	-200.000	-0.002	0.269
-660.959	-21.320	0.134	-0.084
-659.945	296.424	-0.139	-0.260
-658.930	-44.840	0.419	-0.213
-657.916	22.014	-0.131	-0.109
-656.901	-70.009	-0.459	0.179
-655.886	95.377	-0.022	0.026
-654.872	-19.587	-0.073	-0.046
-653.857	800.000	0.042	-0.130
-652.843	116.042	-0.229	-0.286
-651.828	-168.198	-0.274	0.011
-650.814	800.000	-0.023	-0.068
-649.799	-122.640	-0.257	-0.043
-648.784	131.868	0.162	-0.213
-647.770	-27.523	0.298	-0.177
-646.755	465.435	0.159	0.362
-645.741	-47.642	0.194	0.096
-644.726	-200.000	-0.037	-0.279
-643.711	403.975	-0.064	-0.137
-642.697	-200.000	0.011	0.276
-641.682	800.000	-0.069	0.199
-640.668	198.909	-0.131	0.205
-639.653	-25.518	-0.084	0.050
-638.638	800.000	0.092	0.273
-637.624	-69.542	0.195	0.076
-636.609	-72.731	-0.234	0.088
-635.595	-137.890	-0.282	0.032
-634.580	210.869	0.159	-0.254
-633.565	146.218	-0.101	-0.139
-632.551	-63.247	0.195	-0.082
-631.536	147.501	-0.168	0.231
-630.522	102.424	0.025	0.030
-629.507	800.000	-0.135	0.396
-628.492	187.719	0.141	0.215
-627.478	800.000	-0.092	0.290
-626.463	800.000	-0.064	0.210
-625.449	-62.369	-0.320	0.136
-624.434	-124.708	-0.202	0.032
-623.419	800.000	-0.096	-0.344
-622.405	203.550	-0.194	-0.306
-621.390	145.137	0.155	0.211
-620.376	-68.795	-0.079	0.031
-619.361	-101.817	-0.236	0.058
-618.346	-146.406	0.089	0.008
-617.332	727.114	-0.093	-0.252
-616.317	592.052	0.053	0.134
-615.303	765.330	0.128	-0.354
-614.288	218.981	-0.143	-0.232
-613.273	-50.068	-0.148	0.071
-612.259	-91.623	-0.084	-0.024
-611.244	-200.000	-0.006	0.281
-610.230	119.973	-0.246	0.310
-609.215	-200.000	0.014	-0.076
-608.201	800.000	-0.093	-0.270
-607.186	431.385	0.092	0.203
-606.171	-200.000	-0.074	0.354
-605.157	286.330	-0.183	0.337
-604.142	800.000	-0.074	0.212
-603.128	-30.576	-0.230	0.133
-602.113	180.041	-0.159	-0.238
-601.098	470.573	0.022	-0.050
-600.084	-109.685	-0.198	-0.042
-599.069	-47.230	0.190	0.094
-598.055	232.250	0.075	-0.126
-597.040	74.870	-0.135	0.145
-596.025	251.379	0.074	0.128
-595.011	70.409	-0.231	0.243
-593.996	-200.000	-0.024	0.214
-592.982	800.000	-0.048	0.183
-591.967	-60.686	-0.123	-0.053
-590.952	3.334	0.293	0.217
-589.938	601.705	-0.121	-0.306
-588.923	37.648	0.193	0.175
-587.909	-121.691	0.033	0.006
-586.894	-200.000	0.003	0.174
-585.879	800.000	-0.021	0.074
-584.865	800.000	0.072	-0.205
-583.850	-200.000	0.010	-0.176
-582.836	800.000	0.078	0.269
-581.821	-77.761	0.201	-0.071
-580.806	-200.000	0.000	0.122
-579.792	-32.021	0.161	0.092
-578.777	-200.000	-0.024	-0.262
-577.763	527.034	0.095	-0.227
-576.748	-103.256	-0.339	-0.082
-575.733	-48.785	0.193	-0.094
-574.719	-149.415	0.193	-0.016
-573.704	9.025	0.203	0.156
-572.690	310.122	-0.010	-0.019
-571.675	-108.558	-0.276	-0.060
-570.661	-200.000	-0.022	0.237
-569.646	-200.000	0.003	-0.341
-568.631	-36.827	0.065	0.035
-567.617	-161.576	-0.310	0.016
-566.602	36.656	0.231	0.208
-565.588	212.207	-0.154	-0.247
-564.573	-34.912	0.074	0.041
-563.558	-137.536	0.082	0.009
-562.544	-70.728	0.055	0.021
-561.529	76.369	0.133	0.143
-560.515	-66.296	-0.107	-0.043
-559.500	-200.000	0.004	-0.156
-558.485	-175.736	0.228	0.006
-557.471	-200.000	0.016	-0.157
-556.456	-78.212	0.228	0.080
-555.442	-164.115	-0.326	0.015
-554.427	-100.779	0.121	0.030
-553.412	-176.980	-0.175	0.004
-552.398	-200.000	0.001	0.046
-551.383	167.569	0.138	0.199
-550.369	159.588	0.294	-0.415
-549.354	17.474	0.030	0.024
-548.339	-110.375	0.244	-0.052
-547.325	-200.000	-0.008	0.060
-546.310	800.000	0.053	-0.226
-545.296	402.017	-0.154	0.329
-544.281	116.410	0.143	-0.178
-543.266	-200.000	0.014	-0.136
-542.252	114.132	-0.133	0.165
-541.237	-53.021	-0.186	-0.087
-540.223	143.466	-0.046	-0.062
-539.208	312.250	0.102	0.195
-538.193	-93.533	-0.133	0.038
-537.179	-200.000	0.023	-0.162
-536.164	324.428	-0.180	-0.348
-535.150	800.000	-0.043	-0.137
-534.135	83.866	-0.286	-0.317
-533.121	-31.447	0.089	0.051
-532.106	-8.852	0.183	0.125
-531.091	121.535	-0.138	0.175
-530.077	340.996	0.195	-0.386
-529.062	800.000	0.101	-0.365
-528.048	-200.000	0.013	-0.449
-527.033	-121.681	0.161	-0.027
-526.018	31.224	-0.117	0.102
-525.004	-58.135	-0.503	-0.223
-523.989	800.000	0.043	-0.178
-522.975	800.000	-0.040	-0.176
-521.960	-126.427	-0.093	0.014
-520.945	800.000	0.111	0.341
-519.931	128.722	-0.098	0.127
-518.916	-126.096	-0.243	-0.037
-517.902	5.768	0.077	0.058
-516.887	79.116	-0.191	0.207
-515.872	-130.425	0.187	-0.026
-514.858	603.685	0.025	0.064
-513.843	4.231	0.052	0.039
-512.829	-200.000	0.027	0.281
-511.814	-200.000	-0.056	-0.307
-510.799	31.626	0.062	-0.054
-509.785	-96.300	-0.053	-0.014
-508.770	481.243	-0.107	0.246
-507.756	18.251	0.137	0.111
-506.741	-78.256	0.184	0.064
-505.726	162.355	-0.169	0.240
-504.712	-166.382	-0.302	-0.013
-503.697	-200.000	0.021	-0.283
-502.683	-38.898	-0.062	0.033
-501.668	-101.376	0.092	-0.023
-500.653	23.831	0.043	-0.036
-499.639	-86.935	-0.096	0.030
-498.624	-178.584	0.315	-0.007
-497.610	75.424	0.247	-0.264
-496.595	68.727	0.123	0.128
-495.581	-144.880	-0.029	-0.003
-494.566	-200.000	0.067	-0.466
-493.551	-200.000	-0.042	0.255
-492.537	6.984	-0.124	0.093
-491.522	-200.000	-0.002	-0.073
-490.508	-200.000	0.011	0.171
-489.493	-67.907	0.216	-0.086
-488.478	-200.000	-0.007	-0.049
-487.464	-54.455	-0.293	0.135
-486.449	274.968	0.054	0.097
-485.435	-197.216	-0.183	0.001
-484.420	800.000	-0.062	-0.214
-483.405	463.938	-0.051	0.116
-482.391	-134.006	-0.146	0.018
-481.376	-140.623	0.257	-0.027
-480.362	-37.709	-0.154	0.083
-479.347	429.817	0.036	-0.079
-478.332	130.746	0.121	0.157
-477.318	-91.765	-0.311	0.090
-476.303	241.083	-0.193	0.327
-475.289	-200.000	-0.016	0.119
-474.274	-175.855	0.136	-0.004
-473.259	84.932	-0.028	0.031
-472.245	-200.000	-0.011	-0.134
-471.230	-200.000	-0.004	-0.394
-470.216	223.266	0.066	0.109
-469.201	134.792	-0.173	-0.228
-468.186	173.110	-0.179	0.261
-467.172	588.241	-0.112	-0.281
-466.157	120.880	-0.100	-0.126
-465.143	-131.326	-0.092	0.012
-464.128	228.255	-0.085	-0.140
-463.113	35.391	-0.126	0.112
-462.099	147.887	-0.107	-0.146
-461.084	-23.467	-0.047	0.029
-460.070	-36.969	0.196	0.106
-459.055	800.000	-0.120	-0.411
-458.040	11.980	0.069	-0.054
-457.026	-163.934	0.443	0.021
-456.011	610.766	0.078	-0.197
-454.997	371.128	-0.136	-0.279
-453.982	418.882	-0.052	0.113
-452.968	-200.000	0.014	0.115
-451.953	800.000	-0.096	-0.288
-450.938	-145.504	-0.064	-0.006
-449.924	-106.107	0.285	-0.065
-448.909	103.801	0.137	0.163
-447.895	-107.342	-0.214	-0.048
-446.880	-27.829	-0.195	-0.114
-445.865	283.170	-0.188	-0.342
-444.851	-200.000	-0.035	-0.297
-443.836	76.842	0.097	-0.104
-442.822	146.296	0.074	0.101
-441.807	69.050	-0.131	0.136
-440.792	-104.849	-0.165	-0.038
-439.778	-112.884	0.178	0.036
-438.763	800.000	0.056	0.207
-437.749	-99.535	-0.212	0.054
-436.734	-116.777	-0.046	-0.008
-435.719	-200.000	0.012	0.186
-434.705	7.103	-0.381	-0.287
-433.690	-173.097	-0.116	0.004
-432.676	-11.102	-0.264	0.176
-431.661	272.879	0.082	0.147
-430.646	-43.748	0.233	-0.119
-429.632	-200.000	-0.044	-0.482
-428.617	800.000	0.083	-0.237
-427.603	50.763	-0.227	0.218
-426.588	488.822	-0.028	-0.064
-425.573	117.513	-0.206	-0.256
-424.559	800.000	0.071	-0.299
-423.544	800.000	-0.112	0.441
-422.530	727.039	-0.053	-0.144
-421.515	11.048	0.091	0.070
-420.500	-196.722	-0.176	0.001
-419.486	-63.207	0.257	-0.107
-418.471	70.201	0.135	-0.141
-417.457	800.000	-0.041	0.116
-416.442	348.238	0.058	0.115
-415.428	-200.000	0.012	-0.216
-414.413	57.196	-0.047	0.046
-413.398	800.000	-0.025	-0.092
-412.384	71.453	-0.104	-0.109
-411.369	-120.273	-0.165	-0.028
-410.355	-200.000	0.050	-0.304
-409.340	143.364	0.196	-0.264
-408.325	-115.000	-0.299	-0.057
-407.311	88.258	-0.114	-0.128
-406.296	800.000	-0.030	0.095
-405.282	-200.000	-0.062	-0.000
-404.267	120.452	0.087	0.109
-403.252	-127.498	0.090	0.013
-402.238	-200.000	-0.022	-0.147
-401.223	169.018	0.161	-0.232
-400.209	-16.724	-0.269	-0.172
-399.194	83.942	-0.025	0.028
-398.179	39.816	-0.175	-0.159
-397.165	287.254	0.060	-0.110
-396.150	-66.019	0.523	-0.211
-395.136	462.139	0.147	-0.332
-394.121	240.877	0.047	-0.080
-393.106	-121.804	0.073	-0.012
-392.092	-200.000	0.035	0.437
-391.077	800.000	0.047	-0.203
-390.063	-125.020	-0.253	0.039
-389.048	-16.614	-0.224	0.144
-388.033	-200.000	0.017	-0.182
-387.019	-200.000	0.025	-0.225
-386.004	-47.335	-0.125	-0.061
-384.990	800.000	-0.071	-0.200
-383.975	-200.000	-0.022	-0.326
-382.960	-200.000	0.011	0.454
-381.946	219.591	0.113	0.183
-380.931	699.042	-0.035	0.094
-379.917	6.139	-0.270	0.202
-378.902	800.000	-0.090	0.297
-377.888	-200.000	-0.017	-0.094
-376.873	120.607	0.201	0.252
-375.858	-200.000	0.057	0.254
-374.844	-200.000	-0.086	0.465
-373.829	-7.693	0.050	-0.034
-372.815	135.651	-0.152	-0.200
-371.800	-143.944	0.209	-0.020
-370.785	-109.003	-0.238	-0.051
-369.771	283.039	0.090	-0.162
-368.756	800.000	0.023	0.072
-367.742	114.958	0.116	0.143
-366.727	-63.232	0.204	-0.085
-365.712	202.465	-0.144	0.225
-364.698	-63.959	-0.264	-0.109
-363.683	-162.980	0.267	-0.013
-362.669	-89.823	0.164	-0.048
-361.654	-200.000	0.047	0.441
-360.639	-119.041	-0.195	0.034
-359.625	439.694	-0.091	-0.201
-358.610	-139.509	-0.246	0.027
-357.596	-200.000	0.020	-0.230
-356.581	94.176	0.249	-0.286
-355.566	-61.068	0.113	0.048
-354.552	-200.000	-0.051	0.465
-353.537	66.979	0.196	0.201
-352.523	-84.387	-0.199	0.063
-351.508	-200.000	0.002	-0.108
-350.493	-200.000	0.016	0.188
-349.479	800.000	-0.056	-0.199
-348.464	-0.743	0.150	-0.107
-347.450	-22.556	-0.162	-0.099
-346.435	10.731	-0.379	0.292
-345.420	-80.616	0.282	-0.095
-344.406	-200.000	0.061	0.404
-343.391	66.893	0.179	0.184
-342.377	-55.275	0.127	0.058
-341.362	26.081	-0.265	0.223
-340.348	401.320	-0.066	-0.140
-339.333	-17.616	-0.396	0.251
-338.318	177.041	0.170	-0.250
-337.304	-200.000	0.045	0.395
-336.289	44.451	0.293	-0.271
-335.275	-200.000	-0.018	0.103
-334.260	295.050	0.059	-0.110
-333.245	-2.753	-0.050	0.035
-332.231	-41.496	0.034	0.017
-331.216	438.236	-0.104	-0.228
-330.202	101.720	-0.118	-0.139
-329.187	66.518	0.208	-0.213
-328.172	800.000	0.059	0.208
-327.158	-37.323	-0.167	0.090
-326.143	-164.694	0.545	0.025
-325.129	382.644	0.076	0.157
-324.114	-133.055	-0.041	0.005
-323.099	-90.144	-0.172	0.050
-322.085	-200.000	-0.015	0.199
-321.070	266.358	-0.079	0.139
-320.056	176.347	0.041	-0.059
-319.041	-85.470	-0.094	0.029
-318.026	-71.893	0.183	-0.069
-317.012	-113.960	0.406	-0.079
-315.997	307.318	0.153	0.288
-314.983	107.486	-0.229	0.274
-313.968	-200.000	0.027	-0.208
-312.953	-155.343	0.177	-0.012
-311.939	-200.000	0.007	-0.076
-310.924	-200.000	0.008	-0.139
-309.910	112.948	0.081	0.099
-308.895	-1.791	0.077	-0.055
-307.880	-87.828	-0.246	0.075
-306.866	145.551	-0.260	-0.350
-305.851	339.795	0.079	-0.155
-304.837	-27.114	-0.077	-0.045
-303.822	-200.000	-0.023	-0.301
-302.807	-141.208	0.426	0.044
-301.793	-200.000	-0.009	0.188
-300.778	-200.000	-0.007	-0.071
-299.764	-129.812	0.218	0.030
-298.749	-38.843	0.071	-0.038
-297.735	800.000	-0.048	-0.171
-296.720	-64.398	-0.093	0.038
-295.705	157.675	0.183	0.255
-294.691	-200.000	-0.040	0.377
-293.676	800.000	0.058	0.202
-292.662	-30.565	-0.294	0.167
-291.647	629.160	0.059	-0.149
-290.632	-33.868	0.248	-0.137
-289.618	-116.225	-0.132	0.025
-288.603	-35.730	0.159	0.087
-287.589	611.717	-0.080	-0.202
-286.574	121.458	0.217	0.272
-285.559	-157.552	0.111	0.007
-284.545	21.716	0.293	0.240
-283.530	-159.689	0.202	-0.011
-282.516	-58.486	-0.053	-0.023
-281.501	27.220	-0.272	0.229
-280.486	800.000	0.062	0.190
-279.472	-178.486	0.479	0.011
-278.457	-41.420	-0.200	-0.103
-277.443	194.975	-0.123	-0.187
-276.428	280.695	0.123	-0.220
-275.413	46.186	-0.086	0.080
-274.399	-143.551	-0.331	-0.032
-273.384	800.000	-0.019	-0.067
-272.370	800.000	0.038	-0.116
-271.355	-200.000	-0.443	0.002
-270.340	-168.878	-0.161	-0.006
-269.326	-200.000	-0.054	0.385
-268.311	-200.000	0.030	0.222
-267.297	47.436	-0.051	0.047
-266.282	-200.000	0.039	-0.548
-265.267	-132.188	0.163	0.021
-264.253	800.000	-0.024	-0.082
-263.238	204.525	0.070	0.109
-262.224	-55.194	-0.511	0.231
-261.209	4.179	0.313	0.230
-260.195	-25.304	-0.455	0.270
-259.180	-64.770	-0.143	0.058
-258.165	-59.785	0.095	0.041
-257.151	-74.240	-0.182	-0.066
-256.136	-200.000	0.020	0.338
-255.122	-133.169	-0.063	-0.008
-254.107	800.000	0.062	-0.236
-253.092	-3.953	-0.127	-0.089
-252.078	-35.359	0.109	0.060
-251.063	39.268	0.104	-0.093
-250.049	-200.000	0.030	-0.187
-249.034	-200.000	0.043	0.281
-248.019	-200.000	-0.004	-0.228
-247.005	126.774	-0.156	-0.198
-245.990	56.613	-0.172	0.168
-244.976	-99.947	0.039	-0.010
-243.961	94.292	0.047	-0.053
-242.946	-200.000	0.019	-0.111
-241.932	789.660	0.119	-0.329
-240.917	-85.998	0.347	-0.108
-239.903	292.357	-0.122	-0.224
-238.888	800.000	0.032	0.112
-237.873	21.305	-0.021	-0.017
-236.859	800.000	-0.083	0.231
-235.844	126.301	0.159	-0.202
-234.830	-200.000	-0.002	-0.154
-233.815	-99.585	0.263	-0.066
-232.800	211.213	-0.106	-0.167
-231.786	258.148	-0.084	0.146
-230.771	-200.000	-0.015	-0.157
-229.757	-113.324	0.207	-0.041
-228.742	95.384	0.064	-0.074
-227.727	202.040	0.056	-0.086
-226.713	-200.000	-0.003	-0.067
-225.698	309.062	0.105	-0.197
-224.684	-170.368	0.081	0.003
-223.669	800.000	0.022	-0.081
-222.655	-169.593	0.080	-0.003
-221.640	136.915	-0.047	0.061
-220.625	-105.088	0.398	-0.091
-219.611	-200.000	-0.036	0.279
-218.596	10.330	0.263	0.201
-217.582	-200.000	-0.013	0.202
-216.567	-108.925	0.291	0.062
-215.552	-200.000	-0.170	0.000
-214.538	800.000	-0.143	-0.456
-213.523	800.000	-0.014	0.048
-212.509	800.000	-0.079	-0.275
-211.494	-77.411	-0.375	0.131
-210.479	-160.770	-0.052	-0.003
-209.465	-200.000	0.013	0.153
-208.450	-138.082	0.046	0.005
-207.436	-88.045	0.161	0.048
-206.421	376.061	0.129	0.263
-205.406	-200.000	0.052	0.341
-204.392	179.612	0.092	0.134
-203.377	321.709	0.126	0.241
-202.363	-99.389	-0.127	0.032
-201.348	-62.158	-0.234	-0.098
-200.333	-200.000	0.033	-0.161
-199.319	-167.349	0.272	-0.011
-198.304	-38.958	0.179	-0.095
-197.290	168.472	0.098	0.140
-196.275	-42.254	-0.212	-0.109
-195.260	454.277	0.041	-0.090
-194.246	-12.622	0.095	0.062
-193.231	-200.000	0.006	0.308
-192.217	782.999	-0.048	0.131
-191.202	-115.245	0.364	-0.069
-190.187	-71.389	-0.318	-0.119
-189.173	-41.270	-0.168	-0.087
-188.158	187.481	0.140	-0.209
-187.144	127.715	-0.071	0.090
-186.129	396.688	0.129	0.270
-185.114	-200.000	-0.006	0.138
-184.100	125.218	0.045	0.057
-183.085	-200.000	0.009	0.295
-182.071	195.560	-0.291	-0.444
-181.056	800.000	-0.011	-0.049
-180.042	119.790	-0.164	0.203
-179.027	-200.000	-0.080	0.468
-178.012	-153.834	-0.150	0.010
-176.998	16.959	0.230	-0.183
-175.983	-96.911	0.096	0.025
-174.969	-55.827	-0.119	-0.053
-173.954	24.638	-0.110	0.091
-172.939	115.459	-0.118	0.145
-171.925	363.392	-0.126	0.254
-170.910	-200.000	-0.002	-0.296
-169.896	-135.007	0.148	-0.018
-168.881	124.637	0.207	-0.261
-167.866	220.163	-0.030	0.048
-166.852	-115.464	0.325	0.061
-165.837	-30.712	0.151	-0.085
-164.823	25.761	0.224	-0.187
-163.808	38.691	0.179	-0.160
-162.793	-48.830	-0.266	-0.128
-161.779	-200.000	-0.051	-0.268
-160.764	-66.607	0.253	-0.100
-159.750	160.180	0.253	0.353
-158.735	105.865	0.112	-0.133
-157.720	50.539	0.107	-0.101
-156.706	-63.346	0.289	0.119
-155.691	-141.112	0.208	-0.021
-154.677	428.464	0.082	0.177
-153.662	40.614	0.154	0.139
-152.647	-39.397	0.135	-0.071
-151.633	-194.888	0.293	0.002
-150.618	220.859	-0.063	-0.101
-149.604	79.508	-0.151	-0.162
-148.589	-45.177	-0.194	-0.096
-147.574	-185.459	0.182	-0.003
-146.560	320.229	-0.194	0.369
-145.545	13.968	0.191	0.148
-144.531	-200.000	0.007	0.061
-143.516	-200.000	-0.052	-0.282
-142.502	800.000	0.047	0.152
-141.487	412.403	-0.055	-0.116
-140.472	-11.032	-0.191	0.126
-139.458	493.250	0.123	0.281
-138.443	-200.000	-0.027	-0.122
-137.429	-152.588	0.500	0.036
-136.414	-200.000	0.016	-0.457
-135.399	-79.635	-0.316	-0.107
-134.385	125.914	-0.130	-0.165
-133.370	-200.000	-0.026	0.329
-132.356	-1.387	0.303	0.214
-131.341	-30.136	-0.279	0.158
-130.326	130.836	0.088	-0.113
-129.312	90.550	0.150	-0.167
-128.297	800.000	-0.033	-0.116
-127.283	456.918	0.071	0.157
-126.268	222.747	0.125	0.202
-125.253	-31.250	-0.353	0.199
-124.239	50.516	-0.123	0.116
-123.224	-200.000	-0.019	0.126
-122.210	-200.000	-0.022	0.237
-121.195	724.949	-0.102	0.272
-120.180	-200.000	-0.045	-0.406
-119.166	667.087	-0.034	-0.088
-118.151	-65.326	0.114	0.046
-117.137	-80.408	0.283	0.094
-116.122	-19.705	-0.331	-0.204
-115.107	-200.000	-0.015	0.268
-114.093	-147.565	0.081	-0.007
-113.078	-200.000	-0.037	0.202
-112.064	-200.000	0.009	-0.141
-111.049	-200.000	0.069	-0.317
-110.034	800.000	-0.051	-0.179
-109.020	417.354	-0.157	0.335
-108.005	54.840	-0.179	0.173
-106.991	75.021	0.218	0.229
-105.976	296.207	-0.065	-0.120
-104.962	53.963	0.031	-0.030
-103.947	-83.650	-0.261	0.083
-102.932	140.979	0.055	-0.073
-101.918	-200.000	0.046	0.307
-100.903	800.000	-0.080	0.242
-99.889	-153.954	0.165	0.011
-98.874	486.348	-0.056	-0.128
-97.859	146.906	-0.211	-0.284
-96.845	800.000	0.098	-0.364
-95.830	289.221	0.063	0.114
-94.816	-60.691	0.219	0.093
-93.801	-141.543	0.252	-0.025
-92.786	-103.900	-0.446	-0.104
-91.772	-200.000	-0.007	0.272
-90.757	-23.132	0.022	0.013
-89.743	-71.901	-0.262	-0.097
-88.728	-38.790	0.139	-0.073
-87.713	-200.000	-0.003	-0.053
-86.699	-71.561	0.226	0.084
-85.684	-200.000	0.000	-0.017
-84.670	-193.706	0.302	0.003
-83.655	-89.752	0.268	0.078
-82.640	183.514	-0.123	-0.181
-81.626	277.473	-0.174	0.308
-80.611	-200.000	0.077	0.565
-79.597	-70.087	0.341	0.130
-78.582	-200.000	0.035	-0.238
-77.567	-112.947	0.244	0.048
-76.553	84.396	0.114	0.124
-75.538	-79.856	-0.105	0.035
-74.524	-132.908	-0.083	-0.010
-73.509	494.071	-0.024	-0.056
-72.494	-58.792	0.178	-0.077
-71.480	-23.817	-0.323	-0.193
-70.465	-9.973	-0.094	-0.062
-69.451	-47.172	-0.195	-0.095
-68.436	-93.451	-0.067	0.018
-67.422	-200.000	-0.040	-0.278
-66.407	800.000	-0.105	0.291
-65.392	-54.670	-0.118	-0.053
-64.378	17.547	0.118	-0.093
-63.363	-65.267	0.069	-0.028
-62.349	10.298	0.218	0.165
-61.334	-40.538	-0.815	-0.422
-60.319	-5.149	0.369	0.253
-59.305	-200.000	0.123	-0.744
-58.290	20.830	0.629	0.508
-57.276	-200.000	0.436	1.955
-56.261	-200.000	76.591	531.398
-55.246	500.941	1359.010	3126.942
-54.232	135.725	2618.308	3398.047
-53.217	115.928	2280.137	2781.859
-52.203	52.449	1784.125	1697.445
-51.188	44.878	1575.132	1445.154
-50.173	42.176	1544.399	1398.078
-49.159	57.906	1582.232	1543.472
-48.144	64.400	1601.748	1608.158
-47.130	45.499	1564.479	1439.523
-46.115	41.760	1549.964	1399.983
-45.100	41.637	1546.062	1395.541
-44.086	41.425	1544.531	1392.622
-43.071	41.560	1542.448	1391.635
-42.057	41.549	1540.252	1389.517
-41.042	41.343	1539.585	1387.432
-40.027	41.499	1537.374	1386.464
-39.013	41.582	1534.978	1384.822
-37.998	41.459	1534.352	1383.355
-36.984	41.482	1532.912	1382.158
-35.969	41.491	1531.562	1380.951
-34.954	41.607	1529.901	1380.197
-33.940	41.551	1528.646	1378.626
-32.925	41.561	1526.927	1377.087
-31.911	41.608	1525.508	1376.077
-30.896	41.557	1524.329	1374.611
-29.881	41.644	1523.156	1374.092
-28.867	41.629	1521.420	1372.373
-27.852	41.495	1520.666	1370.717
-26.838	41.429	1519.375	1369.044
-25.823	41.437	1517.092	1366.991
-24.809	41.528	1515.375	1366.012
-23.794	41.493	1513.992	1364.472
-22.779	41.491	1512.970	1363.481
-21.765	41.556	1511.509	1362.555
-20.750	41.623	1510.437	1361.990
-19.736	41.458	1509.974	1360.394
-18.721	41.472	1508.390	1359.006
-17.706	41.500	1507.226	1358.096
-16.692	41.367	1506.202	1356.218
-15.677	41.484	1505.245	1356.096
-14.663	41.509	1503.995	1355.083
-13.648	41.445	1502.944	1353.649
-12.633	41.497	1502.002	1353.099
-11.619	41.436	1501.266	1351.967
-10.604	41.383	1500.815	1351.154
-9.590	41.338	1500.015	1350.069
-8.575	41.403	1498.834	1349.399
-7.560	41.416	1497.828	1348.525
-6.546	41.351	1497.053	1347.330
-5.531	41.436	1496.014	1346.916
-4.517	41.431	1495.043	1345.955
-3.502	41.523	1493.981	1345.569
-2.487	41.469	1492.568	1343.882
-1.473	41.346	1492.000	1342.487
-0.458	41.437	1490.258	1341.476
0.556	40.280	1482.301	1334.760
1.571	38.098	1455.694	1296.218
2.586	33.860	1391.410	1211.896
3.600	30.218	1304.302	1114.101
4.615	27.135	1254.692	1053.782
5.629	22.631	1194.985	978.611
6.644	11.292	1102.524	844.405
7.659	2.256	1054.535	762.654
8.673	0.631	1048.077	749.854
9.688	0.437	1045.323	746.857
10.702	0.226	1044.022	744.822
11.717	0.197	1042.294	743.377
12.731	2.935	1045.527	759.161
13.746	12.106	1057.865	813.742
14.761	18.272	1065.061	849.916
15.775	17.798	1063.293	846.080
16.790	16.692	1061.085	838.773
17.804	15.695	1058.690	831.876
18.819	14.632	1057.281	825.439
19.834	14.236	1055.760	822.226
20.848	13.983	1054.343	819.798
21.863	13.691	1053.407	817.560
22.877	13.410	1053.078	815.849
23.892	13.298	1052.118	814.477
24.907	13.013	1051.493	812.519
25.921	13.103	1050.538	812.153
26.936	13.101	1050.196	811.805
27.950	13.169	1049.226	811.321
28.965	13.332	1048.269	811.308
29.980	13.295	1047.658	810.583
30.994	13.293	1046.736	809.785
32.009	13.365	1045.430	809.056
33.023	13.470	1044.635	808.881
34.038	13.379	1043.854	807.761
35.053	13.492	1042.732	807.372
36.067	13.392	1041.796	806.089
37.082	13.221	1041.686	805.102
38.096	13.361	1040.820	805.041
39.111	13.392	1039.743	804.290
40.126	13.316	1039.219	803.444
41.140	13.301	1038.199	802.509
42.155	13.237	1036.970	801.178
43.169	13.112	1036.287	799.977
44.184	13.103	1035.073	798.921
45.199	13.123	1034.100	798.198
46.213	13.167	1032.851	797.375
47.228	13.101	1032.344	796.598
48.242	13.216	1031.364	796.324
49.257	13.246	1030.017	795.360
50.271	13.331	1029.009	794.915
51.286	13.130	1028.549	793.524
52.301	13.240	1027.530	793.198
53.315	13.269	1026.842	792.735
54.330	13.392	1025.549	792.256
55.344	13.179	1025.495	791.126
56.359	13.296	1023.963	790.429
57.374	13.134	1023.590	789.300
58.388	13.100	1022.346	788.109
59.403	13.266	1021.608	788.260
60.417	13.171	1020.799	787.113
61.432	13.227	1019.997	786.692
62.447	13.037	1019.835	785.594
63.461	13.045	1018.535	784.560
64.476	13.157	1017.527	784.246
65.490	13.199	1016.495	783.580
66.505	13.146	1015.898	782.803
67.520	13.145	1015.164	782.163
68.534	13.031	1014.486	781.033
69.549	13.058	1013.878	780.622
70.563	13.130	1012.940	780.172
71.578	13.091	1012.533	779.602
72.593	13.162	1011.220	778.860
73.607	13.038	1009.940	777.218
74.622	12.970	1009.469	776.467
75.636	13.075	1008.466	776.120
76.651	12.991	1007.630	775.014
77.666	13.007	1007.083	774.602
78.680	13.114	1006.142	774.308
79.695	12.995	1005.618	773.281
80.709	13.136	1004.658	773.133
81.724	13.092	1004.259	772.554
82.739	13.095	1003.100	771.609
83.753	13.167	1002.587	771.479
84.768	13.164	1001.802	770.796
85.782	13.144	1001.424	770.343
86.797	13.370	1000.255	770.428
87.812	13.272	999.675	769.454
88.826	13.191	998.713	768.271
89.841	13.197	998.020	767.699
90.855	13.286	997.153	767.375
91.870	13.287	996.506	766.816
92.884	13.349	995.377	766.167
93.899	13.377	994.962	765.907
94.914	13.314	994.105	764.890
95.928	13.353	993.665	764.661
96.943	13.365	992.554	763.795
97.957	13.424	991.709	763.350
98.972	13.358	991.009	762.437
99.987	13.305	990.299	761.582
101.001	13.438	989.637	761.616
102.016	13.484	988.439	760.837
103.030	13.342	988.039	759.809
104.045	13.247	987.337	758.769
105.060	13.232	986.027	757.628
106.074	13.354	985.006	757.332
107.089	13.385	984.085	756.701
108.103	13.138	983.052	754.709
109.118	13.128	982.481	754.158
110.133	13.107	981.987	753.616
111.147	13.146	980.821	752.833
112.162	13.145	979.706	751.905
113.176	13.180	979.161	751.584
114.191	13.237	978.102	750.960
115.206	13.216	977.394	750.255
116.220	13.324	975.866	749.505
117.235	13.202	975.790	748.828
118.249	13.312	974.577	748.331
119.264	13.210	974.058	747.403
120.279	13.124	972.932	746.084
121.293	13.135	972.674	745.869
122.308	13.189	971.744	745.336
123.322	13.241	970.555	744.589
124.337	13.128	969.816	743.448
125.352	13.159	968.427	742.456
126.366	13.170	967.561	741.780
127.381	13.160	966.386	740.765
128.395	13.182	965.480	740.106
129.410	13.109	964.581	739.024
130.424	13.213	963.644	738.708
131.439	13.319	962.720	738.404
132.454	13.325	961.708	737.589
133.468	13.361	961.081	737.207
134.483	13.247	961.158	736.689
135.497	13.242	960.428	736.042
136.512	13.377	959.028	735.504
137.527	13.274	958.308	734.432
138.541	13.419	957.325	734.257
139.556	13.339	956.824	733.453
140.570	13.368	956.045	732.921
141.585	13.402	955.274	732.412
142.600	13.523	954.339	732.168
143.614	13.485	953.707	731.450
144.629	13.376	953.349	730.630
145.643	13.475	952.460	730.320
146.658	13.444	951.565	729.430
147.673	13.452	950.392	728.503
148.687	13.390	949.799	727.712
149.702	13.330	949.094	726.845
150.716	13.232	948.469	725.870
151.731	13.298	947.198	725.121
152.746	13.308	946.554	724.609
153.760	13.359	945.942	724.302
154.775	13.304	945.174	723.407
155.789	13.389	944.449	723.160
156.804	13.497	943.580	722.900
157.819	13.484	942.876	722.241
158.833	13.488	941.842	721.403
159.848	13.388	941.594	720.716
160.862	13.566	940.911	720.902
161.877	13.471	939.923	719.669
162.892	13.471	939.338	719.155
163.906	13.374	938.458	717.999
164.921	13.326	938.150	717.493
165.935	13.449	936.512	716.708
166.950	13.494	935.799	716.292
167.964	13.486	934.618	715.292
168.979	13.460	934.082	714.706
169.994	13.388	932.869	713.402
171.008	13.466	932.011	713.018
172.023	13.440	931.551	712.493
173.037	13.454	930.897	711.991
174.052	13.550	930.293	711.878
175.067	13.554	929.430	711.171
176.081	13.513	928.604	710.300
177.096	13.392	928.104	709.338
178.110	13.410	926.889	708.421
179.125	13.518	926.550	708.562
180.140	13.507	925.400	707.573
181.154	13.659	924.658	707.593
182.169	13.529	923.988	706.462
183.183	13.559	923.340	706.034
184.198	13.719	922.404	705.937
185.213	13.814	921.995	705.965
186.227	13.703	921.458	705.019
187.242	13.622	921.099	704.337
188.256	13.704	920.166	703.908
189.271	13.772	919.510	703.636
190.286	13.721	918.854	702.854
191.300	13.661	918.123	701.977
192.315	13.593	917.112	700.854
193.329	13.577	916.675	700.392
194.344	13.537	916.136	699.751
195.359	13.546	915.512	699.250
196.373	13.672	914.545	698.980
197.388	13.858	914.292	699.510
198.402	13.740	913.696	698.495
199.417	13.790	913.636	698.596
200.432	13.820	912.971	698.153
201.446	13.946	912.369	698.160
202.461	13.931	912.369	698.037
203.475	13.966	911.464	697.426
204.490	13.985	910.642	696.818
205.504	13.858	910.022	695.747
206.519	14.058	908.741	695.545
207.534	13.992	908.290	694.862
208.548	13.941	907.918	694.303
209.563	13.953	906.827	693.459
210.577	13.931	906.270	692.877
211.592	14.118	905.427	692.953
212.607	14.041	905.053	692.285
213.621	14.198	904.533	692.478
214.636	14.120	904.019	691.700
215.650	14.044	903.212	690.704
216.665	14.109	903.015	690.761
217.680	14.173	902.022	690.207
218.694	14.140	902.179	690.131
219.709	14.250	901.273	689.831
220.723	14.166	900.443	688.785
221.738	14.271	899.502	688.442
222.753	14.220	898.889	687.701
223.767	14.215	898.393	687.240
224.782	14.131	897.798	686.377
225.796	14.261	896.973	686.222
226.811	14.404	896.296	686.233
227.826	14.285	895.539	685.102
228.840	14.294	895.038	684.694
229.855	14.239	894.529	684.018
230.869	14.335	893.395	683.484
231.884	14.199	893.073	682.622
232.899	14.286	892.460	682.449
233.913	14.123	892.165	681.494
234.928	14.175	891.205	680.915
235.942	14.356	890.252	680.863
236.957	14.332	889.466	680.107
237.972	14.286	889.076	679.561
238.986	14.290	888.491	679.069
240.001	14.226	887.771	678.197
241.015	14.250	887.117	677.733
242.030	14.282	886.594	677.405
243.045	14.252	886.072	676.826
244.059	14.485	885.334	677.146
245.074	14.482	884.580	676.499
246.088	14.436	884.039	675.839
247.103	14.579	883.279	675.777
248.117	14.492	882.972	675.129
249.132	14.508	882.566	674.824
250.147	14.680	881.488	674.635
251.161	14.526	881.347	673.848
252.176	14.695	880.345	673.701
253.190	14.793	879.363	673.286
254.205	14.804	879.103	673.073
255.220	14.719	878.405	672.138
256.234	14.905	877.558	672.177
257.249	14.788	877.444	671.557
258.263	14.737	876.869	670.853
259.278	14.801	876.574	670.826
260.293	14.895	875.834	670.578
261.307	14.807	875.383	669.822
262.322	14.892	874.637	669.530
263.336	15.003	874.041	669.458
264.351	15.032	873.591	669.171
265.366	14.986	872.775	668.303
266.380	14.887	872.376	667.546
267.395	14.977	871.373	667.074
268.409	14.895	870.763	666.222
269.424	14.899	869.977	665.577
270.439	14.893	869.387	665.045
271.453	15.011	868.777	664.989
272.468	14.885	868.112	663.920
273.482	14.835	867.624	663.291
274.497	15.006	867.118	663.522
275.512	14.998	866.391	662.874
276.526	15.043	865.593	662.383
277.541	15.137	864.898	662.166
278.555	15.136	864.054	661.458
279.570	15.233	863.643	661.465
280.585	15.227	863.106	660.974
281.599	15.241	863.004	660.890
282.614	15.189	862.481	660.227
283.628	15.236	861.291	659.445
284.643	15.219	860.725	658.887
285.657	15.181	860.286	658.341
286.672	15.214	859.727	657.985
287.687	15.187	859.388	657.560
288.701	15.272	858.990	657.532
289.716	15.252	858.362	656.914
290.730	15.266	857.713	656.414
291.745	15.275	856.925	655.787
292.760	15.396	856.063	655.543
293.774	15.340	855.944	655.176
294.789	15.446	855.174	654.940
295.803	15.395	854.458	654.138
296.818	15.401	853.993	653.746
297.833	15.473	853.201	653.361
298.847	15.475	852.355	652.664
299.862	15.497	851.895	652.340
300.876	15.398	851.331	651.466
301.891	15.520	850.440	651.200
302.906	15.413	850.008	650.395
303.920	15.396	849.375	649.790
304.935	15.605	848.536	649.899
305.949	15.765	847.863	649.942
306.964	15.492	847.712	648.715
307.979	15.641	846.725	648.478
308.993	15.640	846.829	648.494
310.008	15.728	845.862	648.038
311.022	15.584	845.728	647.324
312.037	15.717	845.278	647.433
313.052	15.678	844.616	646.719
314.066	15.648	843.953	646.038
315.081	15.584	843.446	645.348
316.095	15.476	842.985	644.523
317.110	15.554	842.041	644.042
318.125	15.726	841.210	644.010
319.139	15.631	840.632	643.147
320.154	15.591	840.643	642.945
321.168	15.741	839.964	642.942
322.183	15.725	839.359	642.360
323.197	15.719	839.171	642.137
324.212	15.781	838.294	641.647
325.227	15.826	837.650	641.266
326.241	15.935	837.116	641.219
327.256	15.819	836.839	640.506
328.270	15.843	835.974	639.878
329.285	15.880	835.515	639.612
330.300	15.904	834.724	639.040
331.314	15.833	834.502	638.547
332.329	15.790	833.760	637.758
333.343	15.926	833.292	637.858
334.358	15.922	832.654	637.300
335.373	15.981	832.316	637.206
336.387	16.059	831.690	636.966
337.402	15.925	830.936	635.827
338.416	15.939	830.412	635.421
339.431	15.999	829.736	635.075
340.446	16.135	829.336	635.224
341.460	16.110	829.085	634.881
342.475	16.219	828.070	634.460
343.489	16.248	827.558	634.117
344.504	16.114	827.460	633.486
345.519	16.243	826.468	633.152
346.533	16.128	826.387	632.602
347.548	16.319	825.802	632.814
348.562	16.340	825.027	632.244
349.577	16.186	824.560	631.255
350.592	16.145	823.883	630.528
351.606	16.246	823.517	630.569
352.621	16.154	823.187	629.917
353.635	16.057	822.962	629.325
354.650	16.042	822.628	628.959
355.665	16.212	822.072	629.112
356.679	16.189	821.525	628.553
357.694	16.200	821.142	628.245
358.708	16.340	820.456	628.186
359.723	16.271	819.834	627.395
360.738	16.429	818.999	627.290
361.752	16.419	818.945	627.153
362.767	16.412	818.716	626.896
363.781	16.395	818.090	626.301
364.796	16.419	817.435	625.833
365.810	16.422	816.943	625.411
366.825	16.421	816.707	625.173
367.840	16.530	816.432	625.308
368.854	16.548	816.185	625.129
369.869	16.604	815.086	624.438
370.883	16.511	814.927	623.918
371.898	16.410	814.419	623.104
372.913	16.662	813.632	623.375
373.927	16.543	813.315	622.638
374.942	16.596	812.219	621.940
375.956	16.533	812.157	621.605
376.971	16.593	811.104	620.965
377.986	16.753	810.970	621.394
379.000	16.660	810.735	620.817
380.015	16.688	809.831	620.175
381.029	16.766	809.050	619.806
382.044	16.817	808.442	619.472
383.059	16.878	807.803	619.149
384.073	16.830	807.451	618.648
385.088	16.799	807.059	618.183
386.102	16.764	806.688	617.717
387.117	16.846	806.035	617.460
388.132	16.727	805.658	616.683
389.146	16.690	805.218	616.156
390.161	16.780	805.212	616.426
391.175	16.865	804.658	616.255
392.190	16.869	804.142	615.819
393.205	16.920	803.603	615.538
394.219	16.869	803.123	614.930
395.234	16.979	802.522	614.815
396.248	16.799	802.035	613.734
397.263	16.876	801.307	613.403
398.278	16.994	800.720	613.325
399.292	16.876	800.525	612.695
400.307	16.877	800.519	612.639
401.321	16.861	799.755	611.945
402.336	16.841	799.800	611.850
403.350	16.856	799.176	611.375
404.365	16.862	798.913	611.139
405.380	16.944	798.559	611.111
406.394	17.008	798.037	610.889
407.409	17.064	797.212	610.405
408.423	17.052	796.886	610.056
409.438	17.153	796.355	609.961
410.453	17.118	795.918	609.444
411.467	17.126	795.571	609.153
412.482	17.223	794.963	608.982
413.496	17.162	794.652	608.473
414.511	17.338	794.152	608.664
415.526	17.353	793.748	608.355
416.540	17.214	793.601	607.693
417.555	17.261	793.054	607.385
418.569	17.275	792.767	607.162
419.584	17.199	792.226	606.424
420.599	17.320	791.521	606.261
421.613	88.903	1257.370	1349.925
422.628	75.570	1325.287	1350.082
