DTS Sentinel unit serial number:	SN413079Multiplexer serial number:	ORYXHardware model number:	OX4-SRSoftware version number:	ORYX F/W v4.00 Oryx Data Collector v3.7.2.0data status	okinstallation	princeton_trtdifferential loss correction	single-endedforward channel	channel 3reverse channel	N/Adate	2019/09/16time	19:12:34forward acquisition time	60.00reverse acquisition time	0.00gamma	496.2192k internal	0.2312k external	0.2312temperature offset calibration	0.9932default loss term (dB/km)	0.3790temperature slope calibration	1.0000multiplexer offset coefficient	1.0000multiplexer slope coefficient	1.0000fibre end	0.00T internal ref (°C)	35.14T ext. ref 1 (°C)	0.08T ext. ref 2 (°C)	28.26length (m)	temperature (°C)	Stokes	anti-Stokes-747.200	236.797	-0.134	0.225
-746.185	-118.347	0.163	0.029
-745.171	-8.886	-0.448	-0.305
-744.156	-152.403	0.409	-0.030
-743.142	124.390	0.041	0.053
-742.127	494.701	-0.098	0.228
-741.112	-13.192	0.165	0.108
-740.098	-103.845	-0.160	0.038
-739.083	327.069	-0.066	-0.129
-738.069	-74.225	-0.158	-0.058
-737.054	-16.019	0.204	-0.132
-736.039	-134.848	0.133	0.016
-735.025	152.122	-0.151	0.210
-734.010	-151.593	0.023	-0.002
-732.996	156.913	-0.294	-0.412
-731.981	-81.253	-0.244	0.082
-730.966	-200.000	0.022	-0.155
-729.952	-165.201	-0.131	0.006
-728.937	-200.000	-0.059	-0.270
-727.923	20.956	0.210	0.173
-726.908	-200.000	-0.041	-0.289
-725.894	-71.284	0.026	-0.010
-724.879	-200.000	0.023	0.167
-723.864	692.726	-0.059	0.157
-722.850	-78.810	0.120	-0.041
-721.835	-112.269	-0.083	0.017
-720.821	-56.987	0.371	-0.166
-719.806	800.000	0.013	-0.045
-718.791	-200.000	-0.033	-0.225
-717.777	-165.326	-0.175	0.008
-716.762	37.823	-0.218	-0.196
-715.748	-200.000	-0.002	-0.194
-714.733	-142.833	-0.104	-0.010
-713.718	-200.000	0.031	0.168
-712.704	348.422	0.118	-0.235
-711.689	-145.366	0.076	0.007
-710.675	225.001	-0.181	0.297
-709.660	-69.029	0.192	0.075
-708.645	-200.000	-0.006	-0.200
-707.631	-97.014	-0.345	-0.092
-706.616	-200.000	-0.013	-0.160
-705.602	228.706	-0.136	0.224
-704.587	228.318	0.067	-0.110
-703.572	-200.000	0.042	-0.536
-702.558	-107.569	0.196	0.043
-701.543	536.229	-0.114	-0.273
-700.529	-39.221	-0.110	-0.058
-699.514	-37.476	0.130	-0.070
-698.499	-95.621	-0.086	-0.023
-697.485	192.151	-0.067	-0.102
-696.470	294.793	0.126	0.234
-695.456	-81.344	-0.082	0.028
-694.441	800.000	0.013	0.041
-693.426	39.766	0.198	0.180
-692.412	-199.548	0.260	0.001
-691.397	-200.000	0.005	-0.114
-690.383	197.394	-0.058	0.089
-689.368	-57.645	-0.163	0.072
-688.354	1.586	-0.368	0.268
-687.339	320.423	-0.122	-0.234
-686.324	22.390	-0.175	0.145
-685.310	-135.952	-0.105	0.013
-684.295	149.465	-0.012	-0.016
-683.281	800.000	-0.066	0.261
-682.266	-200.000	-0.001	-0.076
-681.251	-47.210	-0.133	-0.066
-680.237	352.232	0.107	0.216
-679.222	84.575	0.169	0.187
-678.208	-200.000	0.054	-0.329
-677.193	79.704	-0.169	-0.183
-676.178	-200.000	0.008	-0.232
-675.164	-114.902	-0.159	-0.031
-674.149	-200.000	-0.045	0.285
-673.135	-200.000	0.005	-0.117
-672.120	-94.630	0.308	-0.085
-671.105	-166.762	0.289	-0.012
-670.091	-78.224	-0.091	0.031
-669.076	800.000	-0.013	-0.056
-668.062	-200.000	-0.061	0.286
-667.047	-200.000	0.026	0.133
-666.032	-156.474	0.294	-0.019
-665.018	224.984	0.029	-0.048
-664.003	-64.050	-0.083	-0.034
-662.989	67.521	-0.143	-0.147
-661.974	-200.000	-0.004	0.153
-660.959	-200.000	-0.025	-0.266
-659.945	146.348	0.053	0.072
-658.930	-85.319	-0.058	-0.018
-657.916	24.216	-0.072	-0.060
-656.901	-200.000	0.055	0.455
-655.886	-90.728	-0.187	0.054
-654.872	-75.336	-0.145	0.052
-653.857	357.748	-0.174	0.351
-652.843	-180.248	-0.331	-0.007
-651.828	381.629	-0.161	0.334
-650.814	233.192	-0.081	0.135
-649.799	-156.641	-0.199	0.012
-648.784	-46.607	0.111	0.055
-647.770	-200.000	0.009	-0.066
-646.755	41.293	-0.114	0.104
-645.741	800.000	-0.090	-0.337
-644.726	-155.477	-0.365	0.024
-643.711	23.703	0.174	0.145
-642.697	704.778	0.039	-0.104
-641.682	-123.248	0.224	-0.036
-640.668	172.763	0.111	-0.161
-639.653	6.639	-0.091	0.068
-638.638	-200.000	0.013	0.139
-637.624	-200.000	0.010	-0.226
-636.609	341.000	0.120	-0.236
-635.595	-200.000	0.013	-0.247
-634.580	-97.835	0.206	-0.054
-633.565	-60.717	-0.279	0.119
-632.551	236.026	0.045	-0.076
-631.536	-90.221	-0.122	-0.036
-630.522	160.692	-0.032	-0.046
-629.507	662.269	-0.080	0.209
-628.492	479.971	0.218	0.499
-627.478	53.808	-0.085	0.083
-626.463	314.397	0.086	0.164
-625.449	130.703	0.122	-0.158
-624.434	485.771	0.083	0.190
-623.419	406.652	0.088	-0.188
-622.405	272.481	-0.083	-0.149
-621.390	-67.576	-0.210	-0.083
-620.376	15.196	-0.145	-0.115
-619.361	-200.000	0.017	0.108
-618.346	256.063	0.190	-0.329
-617.332	-165.111	0.192	-0.009
-616.317	-200.000	0.032	0.269
-615.303	-82.716	0.192	-0.063
-614.288	-129.964	-0.260	0.036
-613.273	-145.737	-0.188	0.017
-612.259	30.261	0.201	-0.173
-611.244	-200.000	0.003	0.086
-610.230	330.469	-0.135	0.263
-609.215	-136.930	0.209	-0.024
-608.201	-14.825	-0.105	0.068
-607.186	0.388	0.136	-0.098
-606.171	212.655	-0.134	0.213
-605.157	-13.606	-0.117	-0.076
-604.142	649.166	-0.038	0.099
-603.128	33.234	-0.127	0.112
-602.113	-112.055	0.172	0.035
-601.098	-200.000	0.008	0.202
-600.084	-119.813	0.355	-0.062
-599.069	-198.877	-0.263	-0.001
-598.055	-92.288	0.090	0.026
-597.040	-151.106	0.145	0.011
-596.025	-5.270	0.062	-0.043
-595.011	168.990	-0.124	-0.178
-593.996	54.386	0.147	0.143
-592.982	-59.690	-0.061	-0.026
-591.967	-200.000	0.044	-0.205
-590.952	-55.878	-0.159	0.072
-589.938	625.062	0.062	0.159
-588.923	547.842	-0.181	-0.437
-587.909	-200.000	-0.011	-0.185
-586.894	-200.000	-0.055	-0.257
-585.879	800.000	0.180	-0.530
-584.865	514.313	0.034	-0.081
-583.850	103.348	-0.135	-0.160
-582.836	691.129	-0.112	-0.297
-581.821	-200.000	-0.005	-0.213
-580.806	-101.653	-0.284	-0.069
-579.792	-61.441	-0.063	-0.027
-578.777	2.648	0.173	0.126
-577.763	-52.631	-0.170	-0.079
-576.748	42.563	0.177	-0.162
-575.733	-8.826	0.131	0.088
-574.719	-30.097	0.354	0.203
-573.704	-113.222	0.018	0.004
-572.690	800.000	0.041	0.151
-571.675	586.846	-0.106	-0.263
-570.661	-123.799	-0.194	0.031
-569.646	-200.000	0.022	-0.302
-568.631	-117.305	-0.274	0.050
-567.617	63.220	0.188	-0.190
-566.602	-200.000	-0.022	-0.263
-565.588	-66.570	0.082	-0.033
-564.573	7.457	-0.030	0.022
-563.558	-83.547	0.264	0.085
-562.544	700.736	0.123	-0.327
-561.529	800.000	-0.116	-0.404
-560.515	193.259	-0.228	0.348
-559.500	194.627	0.062	0.095
-558.485	-94.816	-0.505	0.138
-557.471	23.946	-0.074	0.061
-556.456	-190.321	0.172	-0.002
-555.442	-182.724	0.362	0.007
-554.427	104.461	-0.174	-0.207
-553.412	504.742	0.175	-0.408
-552.398	-40.322	-0.217	-0.114
-551.383	-101.563	-0.270	-0.066
-550.369	280.307	0.089	0.160
-549.354	-15.139	0.097	0.063
-548.339	-200.000	0.010	-0.063
-547.325	-200.000	0.017	0.250
-546.310	353.797	-0.088	0.176
-545.296	-177.904	-0.230	-0.006
-544.281	22.013	0.324	0.266
-543.266	-167.821	-0.237	-0.009
-542.252	-58.351	-0.252	-0.110
-541.237	-51.951	-0.186	-0.087
-540.223	221.465	-0.219	-0.354
-539.208	-1.872	-0.326	-0.231
-538.193	-200.000	-0.004	0.220
-537.179	-8.834	0.057	-0.039
-536.164	-78.879	0.145	0.050
-535.150	-200.000	-0.022	0.475
-534.135	-200.000	-0.015	-0.179
-533.121	-4.261	0.213	-0.149
-532.106	738.178	0.029	-0.077
-531.091	-30.689	-0.601	-0.342
-530.077	800.000	0.082	0.361
-529.062	339.907	-0.131	0.256
-528.048	383.579	0.059	0.122
-527.033	-200.000	0.048	-0.221
-526.018	344.923	0.100	0.198
-525.004	-157.227	-0.330	0.020
-523.989	298.432	0.133	-0.245
-522.975	-197.826	-0.748	0.005
-521.960	-103.948	0.276	0.065
-520.945	-52.508	-0.312	0.145
-519.931	140.783	0.173	0.230
-518.916	-200.000	-0.002	-0.119
-517.902	-165.964	0.141	-0.006
-516.887	39.360	0.035	-0.032
-515.872	-78.187	-0.221	-0.076
-514.858	299.370	0.097	0.180
-513.843	-164.775	-0.237	0.011
-512.829	800.000	0.040	0.130
-511.814	-110.425	-0.185	0.039
-510.799	-32.194	-0.195	0.109
-509.785	317.580	-0.056	-0.106
-508.770	800.000	-0.048	-0.138
-507.756	-9.445	-0.171	-0.115
-506.741	116.518	0.037	0.046
-505.726	257.050	0.053	0.092
-504.712	-42.673	-0.073	0.037
-503.697	-136.806	-0.427	0.049
-502.683	-200.000	0.010	0.200
-501.668	185.570	-0.046	-0.069
-500.653	103.886	0.076	-0.089
-499.639	-27.154	-0.296	0.173
-498.624	-200.000	0.059	0.351
-497.610	-38.505	0.151	0.080
-496.595	-34.437	0.212	-0.117
-495.581	-200.000	0.023	0.170
-494.566	52.551	0.039	-0.037
-493.551	-200.000	-0.006	-0.045
-492.537	-80.666	0.159	0.053
-491.522	-200.000	0.013	0.232
-490.508	-153.960	-0.285	-0.019
-489.493	711.283	-0.029	-0.077
-488.478	-55.567	0.056	0.025
-487.464	-100.907	0.243	0.060
-486.449	800.000	0.123	0.367
-485.435	348.266	0.045	0.089
-484.420	-200.000	0.044	-0.321
-483.405	29.938	0.101	-0.086
-482.391	-21.823	-0.081	-0.050
-481.376	-200.000	-0.008	0.281
-480.362	-200.000	-0.011	0.054
-479.347	125.134	-0.118	0.149
-478.332	337.138	-0.168	0.327
-477.318	-200.000	0.020	-0.255
-476.303	-167.071	-0.191	0.008
-475.289	419.499	0.097	0.208
-474.274	174.808	0.148	0.214
-473.259	-200.000	0.016	0.285
-472.245	-200.000	-0.050	0.222
-471.230	-32.307	-0.043	0.024
-470.216	728.003	0.075	0.201
-469.201	-145.211	0.432	0.039
-468.186	-200.000	0.033	-0.227
-467.172	-1.019	0.163	0.116
-466.157	-34.866	0.169	0.092
-465.143	800.000	0.078	0.341
-464.128	-200.000	0.018	-0.224
-463.113	-116.197	0.128	-0.024
-462.099	800.000	-0.034	0.119
-461.084	-58.871	-0.307	0.133
-460.070	-200.000	-0.032	0.457
-459.055	-200.000	-0.036	0.261
-458.040	-170.290	-0.250	0.009
-457.026	800.000	0.084	-0.327
-456.011	19.456	-0.193	-0.155
-454.997	-1.943	-0.024	-0.017
-453.982	-149.378	0.233	-0.019
-452.968	800.000	-0.028	-0.114
-451.953	224.554	0.080	-0.129
-450.938	156.441	-0.018	-0.025
-449.924	-7.165	-0.171	-0.117
-448.909	-75.547	-0.100	-0.036
-447.895	-47.021	0.294	-0.144
-446.880	-200.000	-0.031	0.186
-445.865	-187.743	-0.162	-0.002
-444.851	331.898	0.096	0.185
-443.836	-200.000	0.014	-0.287
-442.822	-33.703	-0.168	0.093
-441.807	401.709	0.129	-0.273
-440.792	-47.838	-0.225	-0.109
-439.778	800.000	-0.020	0.076
-438.763	-36.868	-0.263	0.141
-437.749	42.406	-0.091	-0.083
-436.734	103.769	0.096	-0.113
-435.719	-44.042	-0.079	-0.040
-434.705	37.488	-0.059	0.053
-433.690	800.000	-0.080	0.243
-432.676	34.298	-0.247	0.216
-431.661	7.269	0.274	0.205
-430.646	555.235	-0.015	-0.037
-429.632	79.481	0.137	-0.147
-428.617	72.228	-0.147	-0.154
-427.603	100.314	0.179	-0.208
-426.588	800.000	-0.079	0.239
-425.573	800.000	0.121	-0.423
-424.559	-94.009	0.156	-0.043
-423.544	-65.810	-0.158	-0.063
-422.530	-105.967	0.253	-0.057
-421.515	58.276	0.302	0.297
-420.500	653.919	-0.091	0.235
-419.486	-200.000	0.003	0.189
-418.471	-105.180	-0.294	0.067
-417.457	-79.795	0.037	0.012
-416.442	30.159	0.250	-0.214
-415.428	5.233	-0.260	0.192
-414.413	26.286	0.080	-0.067
-413.398	-32.920	-0.284	0.158
-412.384	593.110	-0.034	0.084
-411.369	-33.747	-0.182	0.101
-410.355	18.147	-0.081	-0.065
-409.340	-200.000	0.100	-0.483
-408.325	800.000	-0.035	-0.152
-407.311	-128.963	-0.298	0.042
-406.296	800.000	-0.079	0.291
-405.282	800.000	-0.077	-0.316
-404.267	-200.000	-0.037	-0.214
-403.252	-34.418	0.242	0.133
-402.238	-90.280	0.323	0.094
-401.223	800.000	0.105	-0.350
-400.209	-154.699	0.272	-0.018
-399.194	-72.235	-0.261	-0.097
-398.179	103.059	-0.157	-0.184
-397.165	-200.000	0.011	0.151
-396.150	-134.855	-0.104	0.013
-395.136	42.887	-0.116	-0.106
-394.121	-200.000	0.005	-0.155
-393.106	-154.086	0.318	-0.022
-392.092	-161.842	0.216	-0.011
-391.077	106.332	0.127	-0.151
-390.063	334.799	0.091	0.177
-389.048	50.744	0.122	0.116
-388.033	-54.752	0.119	-0.054
-387.019	-184.974	0.295	-0.005
-386.004	-73.173	-0.075	0.027
-384.990	92.490	0.155	-0.175
-383.975	-100.921	0.186	-0.046
-382.960	71.497	-0.220	-0.229
-381.946	224.802	0.132	0.214
-380.931	-103.730	0.206	-0.048
-379.917	-56.424	-0.275	-0.122
-378.902	-123.180	0.170	0.027
-377.888	-200.000	0.015	-0.269
-376.873	800.000	-0.050	0.180
-375.858	359.540	0.145	0.290
-374.844	-200.000	-0.029	0.206
-373.829	113.001	-0.086	-0.104
-372.815	-104.815	0.120	0.028
-371.800	-28.486	-0.132	-0.076
-370.785	-200.000	-0.029	0.244
-369.771	6.379	0.079	-0.059
-368.756	-109.964	0.218	-0.046
-367.742	-200.000	0.017	-0.312
-366.727	460.452	0.078	-0.174
-365.712	110.548	-0.115	-0.138
-364.698	271.926	-0.020	-0.035
-363.683	-71.948	-0.085	-0.032
-362.669	188.395	0.253	0.378
-361.654	41.048	-0.080	0.072
-360.639	-20.210	-0.038	-0.023
-359.625	225.441	-0.167	0.270
-358.610	134.173	0.047	-0.061
-357.596	-200.000	-0.002	0.227
-356.581	19.019	0.105	0.084
-355.566	-123.639	-0.239	0.038
-354.552	223.675	0.121	0.195
-353.537	-127.323	0.094	0.014
-352.523	800.000	0.070	0.230
-351.508	416.387	-0.061	0.131
-350.493	47.814	-0.427	-0.398
-349.479	-200.000	-0.016	0.148
-348.464	-102.981	-0.170	0.040
-347.450	401.904	-0.017	0.036
-346.435	154.445	-0.161	-0.221
-345.420	-158.571	0.193	-0.011
-344.406	-72.200	-0.282	-0.104
-343.391	800.000	0.085	0.357
-342.377	-200.000	-0.023	-0.361
-341.362	800.000	0.065	0.265
-340.348	276.184	0.118	0.209
-339.333	405.190	0.106	0.222
-338.318	262.625	0.151	0.261
-337.304	-53.975	-0.157	0.072
-336.289	-200.000	0.017	0.203
-335.275	287.699	-0.078	-0.141
-334.260	484.572	-0.042	0.095
-333.245	449.479	-0.010	0.022
-332.231	-141.749	0.303	-0.030
-331.216	100.249	0.130	0.151
-330.202	101.151	0.243	0.282
-329.187	-24.713	0.168	0.100
-328.172	-82.855	0.459	-0.148
-327.158	-200.000	0.002	-0.209
-326.143	800.000	0.046	0.138
-325.129	139.639	0.044	-0.058
-324.114	800.000	-0.019	-0.066
-323.099	800.000	-0.027	-0.117
-322.085	648.126	-0.052	0.133
-321.070	-4.369	0.287	0.198
-320.056	-149.108	-0.249	-0.020
-319.041	609.863	0.072	-0.178
-318.026	80.190	-0.068	0.073
-317.012	-170.164	0.135	0.005
-315.997	-200.000	0.062	0.383
-314.983	361.002	0.129	0.259
-313.968	800.000	0.052	0.157
-312.953	280.552	-0.128	-0.228
-311.939	-190.364	-0.400	-0.004
-310.924	-18.328	-0.285	-0.178
-309.910	23.375	0.146	-0.120
-308.895	800.000	0.047	-0.183
-307.880	-91.745	-0.205	0.058
-306.866	800.000	-0.151	-0.427
-305.851	49.769	0.063	-0.059
-304.837	-14.874	0.121	0.077
-303.822	67.899	0.042	0.043
-302.807	465.434	-0.119	0.265
-301.793	72.041	-0.010	0.011
-300.778	171.500	0.192	-0.275
-299.764	-200.000	-0.026	-0.571
-298.749	-200.000	0.022	-0.169
-297.735	9.911	-0.183	0.138
-296.720	-80.531	0.189	-0.063
-295.705	-54.246	0.347	-0.157
-294.691	56.713	-0.156	0.152
-293.676	-11.513	0.256	-0.167
-292.662	53.159	0.188	-0.180
-291.647	217.610	-0.122	-0.195
-290.632	13.087	-0.053	0.041
-289.618	402.224	-0.092	0.193
-288.603	-82.904	-0.194	0.062
-287.589	327.514	-0.065	-0.124
-286.574	-200.000	-0.006	0.081
-285.559	190.067	-0.049	0.074
-284.545	251.401	-0.165	0.279
-283.530	583.223	-0.103	-0.252
-282.516	-55.359	-0.364	-0.163
-281.501	128.542	-0.165	-0.209
-280.486	800.000	0.045	-0.178
-279.472	100.482	0.093	-0.108
-278.457	-200.000	0.050	0.280
-277.443	-200.000	-0.074	0.410
-276.428	-0.575	-0.504	-0.356
-275.413	-200.000	0.164	0.000
-274.399	800.000	-0.125	0.477
-273.384	-200.000	-0.100	0.456
-272.370	210.363	0.070	0.110
-271.355	800.000	-0.037	-0.120
-270.340	32.779	0.223	-0.192
-269.326	-65.644	0.083	-0.033
-268.311	642.953	0.040	-0.101
-267.297	43.108	-0.046	-0.042
-266.282	800.000	0.117	-0.355
-265.267	97.564	-0.140	-0.161
-264.253	1.706	-0.213	-0.153
-263.238	-200.000	0.008	-0.037
-262.224	170.924	0.148	-0.212
-261.209	103.434	-0.280	0.326
-260.195	216.543	0.108	-0.172
-259.180	-127.044	-0.468	-0.068
-258.165	7.518	-0.070	0.052
-257.151	273.244	-0.226	0.397
-256.136	-62.333	0.277	-0.115
-255.122	-200.000	0.002	0.373
-254.107	-76.224	-0.124	0.043
-253.092	-131.001	-0.021	0.003
-252.078	-142.205	0.291	0.029
-251.063	71.062	0.214	-0.221
-250.049	-104.193	-0.287	0.066
-249.034	513.887	-0.035	-0.082
-248.019	-147.203	-0.368	0.031
-247.005	32.913	0.208	0.180
-245.990	-26.594	0.020	0.012
-244.976	-18.765	-0.072	0.045
-243.961	311.962	0.097	-0.181
-242.946	-100.795	0.245	0.060
-241.932	800.000	-0.042	0.124
-240.917	-135.562	0.310	-0.037
-239.903	-200.000	0.002	0.331
-238.888	-135.453	0.257	0.030
-237.873	-48.801	-0.093	-0.045
-236.859	476.426	-0.078	-0.175
-235.844	89.265	0.139	0.154
-234.830	-101.663	0.215	0.052
-233.815	800.000	0.051	0.174
-232.800	-131.015	-0.218	-0.029
-231.786	11.864	0.124	-0.094
-230.771	800.000	0.096	-0.383
-229.757	-200.000	0.024	0.268
-228.742	-103.654	-0.199	-0.046
-227.727	-200.000	-0.041	0.186
-226.713	451.280	0.161	-0.353
-225.698	34.249	-0.151	-0.131
-224.684	241.215	0.207	0.344
-223.669	-51.539	0.356	0.165
-222.655	-0.248	-0.071	0.050
-221.640	800.000	-0.035	0.127
-220.625	-6.493	0.158	-0.107
-219.611	-200.000	0.033	-0.363
-218.596	-200.000	-0.021	0.276
-217.582	-124.110	-0.072	0.011
-216.567	-143.451	0.315	0.030
-215.552	109.154	0.206	0.245
-214.538	163.479	-0.127	0.178
-213.523	78.313	-0.145	-0.153
-212.509	-177.275	-0.201	-0.005
-211.494	244.829	0.265	-0.443
-210.479	198.219	0.107	-0.162
-209.465	-59.677	0.052	0.022
-208.450	14.418	-0.173	0.134
-207.436	1.992	0.305	0.218
-206.421	-108.349	-0.341	-0.073
-205.406	-200.000	0.010	-0.100
-204.392	72.403	-0.119	-0.123
-203.377	322.853	0.113	-0.213
-202.363	-36.868	-0.084	0.045
-201.348	-200.000	0.038	-0.314
-200.333	-106.786	0.216	0.048
-199.319	-200.000	-0.006	0.098
-198.304	58.562	0.073	0.071
-197.290	130.588	-0.128	-0.163
-196.275	-36.303	-0.090	-0.048
-195.260	109.461	-0.196	-0.233
-194.246	343.187	-0.144	-0.281
-193.231	-78.054	-0.122	0.042
-192.217	-200.000	0.060	0.310
-191.202	23.664	-0.065	0.053
-190.187	-116.403	-0.381	-0.070
-189.173	-19.059	0.242	0.149
-188.158	800.000	-0.079	-0.229
-187.144	800.000	0.116	-0.327
-186.129	-123.075	0.145	-0.023
-185.114	-200.000	-0.002	0.012
-184.100	-200.000	0.024	-0.172
-183.085	213.638	0.086	0.136
-182.071	800.000	-0.020	0.057
-181.056	-116.711	-0.173	0.032
-180.042	295.987	-0.040	-0.074
-179.027	-148.926	-0.274	0.022
-178.012	134.674	0.165	0.213
-176.998	-149.892	0.258	-0.020
-175.983	348.375	0.148	0.290
-174.969	800.000	0.097	-0.310
-173.954	-200.000	0.014	-0.072
-172.939	606.730	0.076	-0.187
-171.925	192.083	-0.042	-0.063
-170.910	-27.949	0.229	0.131
-169.896	49.214	0.100	-0.093
-168.881	25.549	-0.068	0.056
-167.866	97.323	0.340	-0.388
-166.852	45.378	-0.130	-0.119
-165.837	-200.000	0.001	-0.117
-164.823	200.210	0.107	0.163
-163.808	240.589	-0.177	0.293
-162.793	-8.211	0.245	-0.164
-161.779	252.046	0.264	0.445
-160.764	-38.303	-0.106	0.055
-159.750	-52.753	-0.381	0.174
-158.735	-119.546	0.370	0.063
-157.720	-18.737	0.117	0.072
-156.706	20.589	0.273	-0.219
-155.691	344.022	0.067	0.131
-154.677	800.000	0.035	0.107
-153.662	120.664	-0.051	0.063
-152.647	-106.791	0.376	0.083
-151.633	27.180	-0.108	-0.090
-150.618	79.032	0.293	0.311
-149.604	800.000	0.079	-0.228
-148.589	-7.548	-0.177	-0.119
-147.574	-112.383	-0.379	-0.075
-146.560	-71.903	-0.257	0.095
-145.545	74.369	0.188	-0.196
-144.531	800.000	-0.048	-0.200
-143.516	327.651	0.101	0.192
-142.502	-36.522	-0.221	-0.118
-141.487	-200.000	-0.090	0.392
-140.472	173.331	0.016	0.023
-139.458	-200.000	0.025	-0.295
-138.443	-38.473	0.183	-0.096
-137.429	-115.140	0.190	-0.036
-136.414	70.171	0.150	-0.153
-135.399	-22.319	0.090	-0.054
-134.385	71.163	-0.150	-0.154
-133.370	364.764	0.057	0.114
-132.356	800.000	-0.047	0.197
-131.341	245.465	-0.110	0.183
-130.326	150.296	-0.066	-0.089
-129.312	-5.817	0.073	0.049
-128.297	-143.358	-0.352	-0.033
-127.283	-103.751	-0.209	-0.049
-126.268	140.039	0.227	-0.296
-125.253	-200.000	0.008	-0.041
-124.239	362.788	0.170	-0.337
-123.224	-150.127	-0.124	-0.010
-122.210	14.981	0.124	0.096
-121.195	51.711	-0.004	0.003
-120.180	-90.968	0.174	-0.050
-119.166	659.780	0.075	0.192
-118.151	-176.126	0.240	0.006
-117.137	-200.000	0.056	-0.305
-116.122	800.000	0.125	-0.404
-115.107	800.000	0.050	0.136
-114.093	-74.804	-0.139	-0.050
-113.078	53.062	-0.208	-0.197
-112.064	-115.036	0.209	-0.039
-111.049	182.580	-0.240	-0.350
-110.034	-200.000	0.001	-0.251
-109.020	-95.668	0.255	0.067
-108.005	162.467	-0.122	-0.169
-106.991	27.081	0.161	0.134
-105.976	-74.972	-0.250	-0.089
-104.962	-80.786	0.065	0.021
-103.947	-200.000	-0.006	0.469
-102.932	-200.000	-0.009	-0.052
-101.918	82.985	0.089	0.096
-100.903	-106.573	0.478	-0.105
-99.889	-74.753	0.107	0.038
-98.874	-60.609	0.158	0.066
-97.859	122.122	0.069	-0.085
-96.845	-39.458	0.244	-0.127
-95.830	-200.000	0.002	0.147
-94.816	110.359	-0.178	0.211
-93.801	800.000	-0.042	0.180
-92.786	800.000	0.068	0.285
-91.772	102.588	-0.090	0.104
-90.757	4.973	-0.077	-0.056
-89.743	-130.171	-0.019	0.003
-88.728	-166.713	0.222	-0.009
-87.713	-64.581	0.202	-0.081
-86.699	-16.448	-0.282	-0.177
-85.684	-83.697	0.285	0.090
-84.670	-200.000	0.034	-0.158
-83.655	45.090	-0.159	0.144
-82.640	-200.000	-0.018	0.089
-81.626	800.000	0.018	-0.059
-80.611	-200.000	-0.150	0.000
-79.597	-93.066	0.041	0.011
-78.582	383.634	-0.149	0.302
-77.567	-124.728	-0.116	-0.018
-76.553	-107.139	0.087	0.019
-75.538	-2.745	0.283	0.196
-74.524	-200.000	0.012	0.104
-73.509	800.000	0.091	-0.271
-72.494	800.000	0.075	0.254
-71.480	-107.256	-0.372	0.081
-70.465	-27.756	0.266	0.152
-69.451	-200.000	-0.011	0.163
-68.436	296.943	0.178	-0.323
-67.422	727.002	0.089	-0.234
-66.407	119.538	0.102	-0.125
-65.392	485.646	-0.074	-0.166
-64.378	-76.024	-0.230	0.080
-63.363	300.725	0.237	0.432
-62.349	-200.000	-0.013	0.183
-61.334	-28.139	-1.036	-0.592
-60.319	-55.480	0.359	0.159
-59.305	-200.000	-0.098	-0.913
-58.290	277.515	0.623	1.095
-57.276	800.000	0.406	1.545
-56.261	-200.000	95.547	568.719
-55.246	554.523	1377.871	3273.575
-54.232	155.421	2567.187	3489.654
-53.217	114.751	2184.259	2629.606
-52.203	45.654	1722.726	1571.709
-51.188	38.282	1533.457	1348.369
-50.173	35.870	1506.178	1307.968
-49.159	54.582	1556.517	1481.403
-48.144	58.010	1575.264	1522.871
-47.130	38.665	1531.054	1348.682
-46.115	35.404	1515.892	1313.000
-45.100	35.272	1512.343	1308.975
-44.086	35.214	1510.429	1306.873
-43.071	35.240	1508.810	1305.599
-42.057	35.131	1507.315	1303.511
-41.042	35.142	1505.462	1301.932
-40.027	35.161	1504.554	1301.225
-39.013	35.129	1502.813	1299.445
-37.998	35.057	1501.695	1297.944
-36.984	35.089	1500.971	1297.481
-35.969	35.148	1499.035	1296.155
-34.954	35.135	1497.731	1294.890
-33.940	35.119	1496.436	1293.607
-32.925	35.108	1494.855	1292.116
-31.911	35.253	1493.311	1291.711
-30.896	35.225	1492.086	1290.405
-29.881	35.160	1491.262	1289.207
-28.867	35.239	1489.371	1288.053
-27.852	35.248	1488.044	1286.915
-26.838	35.263	1487.075	1286.127
-25.823	35.131	1485.414	1283.756
-24.809	35.191	1483.360	1282.330
-23.794	35.075	1482.415	1280.683
-22.779	35.128	1481.227	1279.965
-21.765	35.136	1480.208	1279.083
-20.750	35.207	1479.100	1278.549
-19.736	35.213	1477.723	1277.347
-18.721	35.142	1476.820	1276.046
-17.706	35.202	1475.758	1275.477
-16.692	35.143	1474.580	1274.015
-15.677	35.066	1473.694	1272.690
-14.663	35.174	1472.774	1272.556
-13.648	35.136	1471.527	1271.181
-12.633	35.117	1470.772	1270.347
-11.619	35.140	1470.094	1269.867
-10.604	35.012	1469.429	1268.390
-9.590	35.139	1467.924	1267.885
-8.575	35.143	1467.166	1267.203
-7.560	35.075	1466.572	1266.193
-6.546	35.162	1465.351	1265.662
-5.531	35.122	1464.477	1264.593
-4.517	35.064	1463.666	1263.461
-3.502	35.032	1463.135	1262.744
-2.487	35.093	1461.846	1261.981
-1.473	35.002	1461.125	1260.712
-0.458	35.107	1459.326	1259.796
0.556	32.898	1449.643	1247.347
1.571	29.443	1422.107	1201.099
2.586	25.219	1359.564	1121.824
3.600	23.099	1276.892	1041.053
4.615	21.710	1231.580	996.133
5.629	18.882	1175.034	934.948
6.644	9.688	1088.019	819.121
7.659	1.604	1043.863	746.274
8.673	0.286	1038.324	735.816
9.688	0.074	1034.985	732.351
10.702	0.095	1033.368	731.244
11.717	-0.145	1032.198	729.188
12.731	2.909	1034.897	745.879
13.746	11.813	1047.408	798.432
14.761	17.987	1054.473	833.986
15.775	17.625	1053.077	831.044
16.790	16.436	1050.395	823.064
17.804	15.261	1048.950	816.140
18.819	14.461	1046.665	810.405
19.834	13.882	1045.779	806.835
20.848	13.701	1044.283	804.728
21.863	13.424	1043.331	802.581
22.877	13.191	1042.720	800.914
23.892	13.153	1041.433	799.669
24.907	12.889	1040.953	797.952
25.921	12.974	1040.139	797.670
26.936	12.944	1040.048	797.385
27.950	12.891	1039.122	796.349
28.965	12.970	1038.424	796.120
29.980	13.080	1037.500	795.876
30.994	13.132	1036.557	795.329
32.009	13.157	1035.666	794.695
33.023	13.371	1034.711	794.922
34.038	13.167	1034.045	793.363
35.053	13.211	1033.299	792.931
36.067	13.226	1032.244	792.119
37.082	13.113	1032.116	791.411
38.096	13.181	1031.009	790.816
39.111	13.294	1030.214	790.679
40.126	13.212	1029.355	789.559
41.140	13.148	1028.251	788.336
42.155	13.066	1027.290	787.138
43.169	12.986	1026.349	785.965
44.184	12.971	1025.462	785.146
45.199	12.932	1024.104	783.851
46.213	13.025	1023.513	783.773
47.228	13.041	1022.268	782.827
48.242	13.061	1021.477	782.244
49.257	12.998	1020.483	781.118
50.271	13.121	1019.234	780.671
51.286	13.102	1018.547	779.989
52.301	13.132	1017.550	779.297
53.315	13.151	1016.852	778.782
54.330	13.136	1015.862	777.884
55.344	13.067	1015.236	777.012
56.359	13.043	1014.180	776.020
57.374	13.055	1013.584	775.552
58.388	13.044	1012.417	774.538
59.403	12.934	1011.902	773.563
60.417	12.909	1011.240	772.868
61.432	12.852	1010.715	772.135
62.447	12.987	1009.623	771.861
63.461	12.982	1008.548	770.951
64.476	12.959	1007.391	769.890
65.490	12.878	1007.154	769.260
66.505	12.851	1005.971	768.166
67.520	12.952	1005.333	768.078
68.534	12.848	1004.447	766.851
69.549	12.987	1003.575	766.762
70.563	13.012	1002.848	766.259
71.578	12.949	1002.672	765.760
72.593	12.945	1001.617	764.869
73.607	12.879	1000.560	763.689
74.622	12.745	1000.075	762.632
75.636	12.835	999.157	762.278
76.651	12.860	997.940	761.398
77.666	12.861	997.416	760.936
78.680	12.785	996.863	760.099
79.695	12.804	996.430	759.789
80.709	12.759	995.987	759.176
81.724	13.016	994.232	758.952
82.739	12.881	994.141	758.193
83.753	13.101	992.906	758.197
84.768	13.132	992.328	757.828
85.782	13.076	992.128	757.351
86.797	13.068	991.318	756.633
87.812	13.216	990.129	756.336
88.826	13.113	989.609	755.397
89.841	13.029	989.009	754.491
90.855	13.144	987.990	754.171
91.870	13.233	987.214	753.916
92.884	13.150	987.093	753.381
93.899	13.253	985.641	752.674
94.914	13.239	984.861	751.947
95.928	13.340	984.453	752.029
96.943	13.320	983.579	751.205
97.957	13.178	983.158	750.172
98.972	13.156	982.258	749.319
99.987	13.199	981.525	748.887
101.001	13.218	980.619	748.216
102.016	13.227	980.033	747.744
103.030	13.168	978.936	746.577
104.045	13.161	978.433	746.095
105.060	13.194	977.313	745.324
106.074	13.142	976.281	744.235
107.089	13.144	975.423	743.524
108.103	12.981	974.370	741.923
109.118	13.066	973.319	741.437
110.133	12.967	973.264	740.887
111.147	12.984	971.974	739.915
112.162	13.064	971.106	739.548
113.176	13.048	970.399	738.870
114.191	13.112	969.311	738.264
115.206	13.126	968.561	737.692
116.220	13.057	968.049	736.928
117.235	13.076	967.223	736.318
118.249	13.013	966.320	735.285
119.264	13.090	965.160	734.680
120.279	13.004	964.876	734.016
121.293	13.104	964.020	733.746
122.308	13.029	963.449	732.910
123.322	13.070	961.977	731.909
124.337	12.936	961.205	730.664
125.352	12.928	960.487	730.018
126.366	13.027	959.213	729.422
127.381	12.941	957.870	727.956
128.395	13.034	957.141	727.750
129.410	12.892	956.487	726.561
130.424	13.112	955.241	726.517
131.439	13.079	954.276	725.574
132.454	13.105	953.815	725.276
133.468	13.140	953.254	724.936
134.483	13.215	952.213	724.411
135.497	13.070	951.920	723.488
136.512	13.161	950.512	722.753
137.527	13.122	950.049	722.166
138.541	13.037	949.451	721.273
139.556	13.212	948.440	721.208
140.570	13.089	947.818	720.134
141.585	13.185	947.318	720.109
142.600	13.162	946.595	719.398
143.614	13.328	945.651	719.335
144.629	13.248	944.955	718.397
145.643	13.291	944.448	718.133
146.658	13.263	943.290	717.066
147.673	13.368	942.482	716.845
148.687	13.218	941.478	715.369
149.702	13.191	940.422	714.387
150.716	13.204	939.759	713.874
151.731	13.127	939.003	712.906
152.746	13.177	938.109	712.378
153.760	13.171	937.261	711.646
154.775	13.114	937.202	711.294
155.789	13.288	935.935	711.020
156.804	13.265	935.288	710.363
157.819	13.417	934.374	710.260
158.833	13.365	933.849	709.577
159.848	13.405	933.415	709.353
160.862	13.371	932.301	708.300
161.877	13.307	931.647	707.464
162.892	13.304	930.990	706.891
163.906	13.237	930.201	705.943
164.921	13.275	929.131	705.231
165.935	13.220	928.330	704.325
166.950	13.176	927.434	703.397
167.964	13.264	926.639	703.105
168.979	13.278	925.834	702.493
169.994	13.358	924.499	701.757
171.008	13.381	923.305	700.884
172.023	13.483	922.880	700.935
173.037	13.436	922.671	700.513
174.052	13.380	921.980	699.692
175.067	13.567	921.027	699.697
176.081	13.364	920.237	698.176
177.096	13.219	919.793	697.165
178.110	13.301	918.655	696.586
179.125	13.301	918.026	696.048
180.140	13.383	917.267	695.756
181.154	13.458	916.551	695.465
182.169	13.564	915.782	695.266
183.183	13.347	915.663	694.202
184.198	13.420	914.855	693.836
185.213	13.593	914.065	693.899
186.227	13.530	913.536	693.174
187.242	13.507	913.213	692.773
188.256	13.531	912.215	692.051
189.271	13.678	911.450	692.025
190.286	13.772	910.691	691.778
191.300	13.606	909.470	690.098
192.315	13.484	909.233	689.350
193.329	13.341	908.785	688.354
194.344	13.421	907.684	687.791
195.359	13.402	907.553	687.552
196.373	13.537	906.561	687.299
197.388	13.642	906.046	687.287
198.402	13.674	905.742	687.126
199.417	13.806	905.328	687.297
200.432	13.759	905.127	686.891
201.446	13.823	904.398	686.541
202.461	13.840	903.594	685.940
203.475	13.933	903.345	686.074
204.490	13.933	902.929	685.699
205.504	13.799	902.204	684.532
206.519	13.848	901.186	683.904
207.534	13.894	900.350	683.399
208.548	13.817	899.863	682.652
209.563	13.779	899.000	681.778
210.577	13.775	898.223	681.111
211.592	13.720	897.903	680.586
212.607	13.859	897.343	680.671
213.621	14.082	896.643	680.993
214.636	13.886	896.456	679.987
215.650	13.946	894.867	678.967
216.665	14.015	894.545	678.946
217.680	13.966	894.221	678.438
218.694	14.010	893.533	678.038
219.709	14.095	893.312	678.156
220.723	14.156	892.388	677.642
221.738	14.046	892.027	676.859
222.753	13.987	891.174	675.912
223.767	14.088	890.676	675.888
224.782	14.095	889.536	674.988
225.796	14.200	888.757	674.763
226.811	14.155	888.269	674.152
227.826	14.206	887.555	673.756
228.840	14.120	886.881	672.840
229.855	13.967	886.924	672.190
230.869	14.146	886.031	672.177
231.884	14.237	884.749	671.515
232.899	14.155	884.361	670.831
233.913	14.081	883.929	670.145
234.928	14.194	882.904	669.765
235.942	14.190	882.249	669.192
236.957	14.221	881.561	668.733
237.972	14.124	880.978	667.844
238.986	14.179	880.093	667.332
240.001	14.264	879.528	667.186
241.015	14.168	879.189	666.488
242.030	14.270	878.384	666.224
243.045	14.288	877.880	665.855
244.059	14.271	877.361	665.334
245.074	14.284	876.508	664.683
246.088	14.214	875.970	663.936
247.103	14.283	875.752	663.985
248.117	14.316	874.853	663.376
249.132	14.402	874.171	663.143
250.147	14.437	874.036	663.122
251.161	14.743	873.106	663.574
252.176	14.617	872.403	662.479
253.190	14.439	872.307	661.645
254.205	14.703	871.301	661.868
255.220	14.722	870.537	661.304
256.234	14.465	870.360	660.093
257.249	14.680	869.379	660.140
258.263	14.809	868.764	660.128
259.278	14.756	868.248	659.468
260.293	14.666	867.605	658.562
261.307	14.748	867.087	658.438
262.322	14.720	866.364	657.718
263.336	14.692	866.036	657.301
264.351	15.026	865.078	657.828
265.366	14.867	864.527	656.729
266.380	14.754	864.530	656.227
267.395	14.950	863.237	655.957
268.409	14.883	862.452	655.039
269.424	14.812	862.087	654.426
270.439	14.923	861.063	654.023
271.453	14.934	860.370	653.485
272.468	14.689	859.739	651.991
273.482	14.913	859.116	652.336
274.497	14.968	858.391	651.941
275.512	14.923	857.980	651.394
276.526	14.860	857.223	650.517
277.541	14.942	856.123	649.945
278.555	14.979	855.599	649.632
279.570	15.010	855.217	649.403
280.585	15.048	854.717	649.114
281.599	14.924	854.459	648.380
282.614	14.951	853.509	647.706
283.628	15.083	853.184	647.915
284.643	15.116	852.139	647.193
285.657	15.058	851.867	646.701
286.672	15.177	851.339	646.705
287.687	15.048	850.708	645.671
288.701	15.039	850.451	645.383
289.716	15.012	849.736	644.681
290.730	15.195	848.957	644.734
291.745	15.142	848.538	644.156
292.760	15.337	847.337	643.936
293.774	15.163	847.024	642.973
294.789	15.398	846.452	643.385
295.803	15.414	845.708	642.822
296.818	15.266	845.217	641.826
297.833	15.247	844.646	641.264
298.847	15.100	844.094	640.227
299.862	15.313	843.566	640.582
300.876	15.391	842.857	640.286
301.891	15.146	842.534	639.047
302.906	15.420	841.532	639.277
303.920	15.394	840.850	638.604
304.935	15.521	840.084	638.447
305.949	15.622	839.531	638.352
306.964	15.467	839.055	637.345
307.979	15.446	838.835	637.043
308.993	15.381	838.432	636.435
310.008	15.567	837.519	636.390
311.022	15.617	836.989	636.120
312.037	15.657	836.637	635.948
313.052	15.465	836.664	635.187
314.066	15.309	835.804	633.886
315.081	15.515	834.558	633.662
316.095	15.421	834.450	633.171
317.110	15.682	833.632	633.476
318.125	15.505	833.079	632.334
319.139	15.530	832.560	631.977
320.154	15.473	832.208	631.441
321.168	15.581	831.657	631.371
322.183	15.442	831.542	630.708
323.197	15.524	830.777	630.380
324.212	15.629	829.842	630.006
325.227	15.623	829.775	629.880
326.241	15.672	829.084	629.484
327.256	15.578	828.488	628.622
328.270	15.599	827.727	628.066
329.285	15.814	827.142	628.371
330.300	15.534	826.839	627.038
331.314	15.599	826.202	626.743
332.329	15.750	825.272	626.545
333.343	15.635	824.872	625.757
334.358	15.678	824.624	625.673
335.373	15.788	824.041	625.587
336.387	15.751	823.480	624.968
337.402	15.733	823.141	624.589
338.416	15.851	822.333	624.357
339.431	15.854	822.110	624.144
340.446	15.992	821.022	623.774
341.460	15.821	820.895	622.987
342.475	15.945	820.124	622.807
343.489	16.072	819.578	622.807
344.504	15.913	819.121	621.818
345.519	15.943	818.671	621.532
346.533	16.269	818.110	622.254
347.548	16.163	817.299	621.192
348.562	15.943	817.392	620.394
349.577	15.976	816.740	619.967
350.592	15.978	815.929	619.304
351.606	15.931	815.576	618.810
352.621	16.009	814.792	618.444
353.635	15.981	814.845	618.327
354.650	15.820	814.545	617.455
355.665	15.963	813.986	617.500
356.679	16.038	813.423	617.292
357.694	16.120	812.904	617.144
358.708	15.951	812.355	616.057
359.723	16.190	811.356	616.116
360.738	16.229	811.176	616.069
361.752	16.205	810.471	615.390
362.767	16.253	809.947	615.113
363.781	16.330	809.858	615.270
364.796	16.169	809.714	614.522
365.810	16.359	809.219	614.783
366.825	16.377	808.471	614.227
367.840	16.318	808.328	613.846
368.854	16.419	807.876	613.817
369.869	16.422	807.360	613.383
370.883	16.306	806.812	612.489
371.898	16.330	806.494	612.283
372.913	16.376	805.594	611.712
373.927	16.395	805.303	611.503
374.942	16.444	804.518	611.031
375.956	16.531	803.785	610.736
376.971	16.682	802.923	610.571
377.986	16.662	802.425	610.065
379.000	16.609	802.297	609.722
380.015	16.645	801.878	609.480
381.029	16.618	801.531	609.067
382.044	16.504	800.728	607.994
383.059	16.542	800.201	607.674
384.073	16.689	800.010	608.003
385.088	16.569	799.084	606.816
386.102	16.690	798.637	606.856
387.117	16.618	797.888	605.977
388.132	16.497	797.938	605.527
389.146	16.645	797.311	605.527
390.161	16.607	796.946	605.061
391.175	16.706	796.567	605.072
392.190	16.792	795.819	604.759
393.205	16.719	795.638	604.307
394.219	16.684	795.151	603.758
395.234	16.654	794.859	603.376
396.248	16.693	793.993	602.805
397.263	16.691	793.539	602.398
398.278	16.725	793.195	602.207
399.292	16.744	792.412	601.627
400.307	16.800	792.364	601.735
401.321	16.677	792.035	600.995
402.336	16.577	791.866	600.460
403.350	16.943	790.993	601.040
404.365	16.931	790.526	600.588
405.380	16.858	790.450	600.221
406.394	16.963	789.721	599.985
407.409	16.848	789.781	599.570
408.423	17.039	788.764	599.421
409.438	17.065	788.463	599.232
410.453	17.073	788.051	598.894
411.467	17.017	787.533	598.251
412.482	17.180	787.160	598.489
413.496	17.308	786.688	598.527
414.511	16.998	786.642	597.346
415.526	17.089	785.924	597.069
416.540	17.106	785.763	596.953
417.555	17.020	785.383	596.309
418.569	17.100	785.037	596.274
419.584	17.117	784.373	595.779
420.599	17.164	783.644	595.336
421.613	103.572	1282.265	1441.608
422.628	88.484	1354.937	1441.726
