DTS Sentinel unit serial number:	SN413079Multiplexer serial number:	ORYXHardware model number:	OX4-SRSoftware version number:	ORYX F/W v4.00 Oryx Data Collector v3.7.2.0data status	okinstallation	princeton_trtdifferential loss correction	single-endedforward channel	channel 3reverse channel	N/Adate	2019/09/11time	01:14:10forward acquisition time	60.00reverse acquisition time	0.00gamma	496.2192k internal	0.2332k external	0.2332temperature offset calibration	0.9916default loss term (dB/km)	0.3790temperature slope calibration	1.0000multiplexer offset coefficient	1.0000multiplexer slope coefficient	1.0000fibre end	0.00T internal ref (°C)	29.12T ext. ref 1 (°C)	-0.30T ext. ref 2 (°C)	23.02length (m)	temperature (°C)	Stokes	anti-Stokes-747.200	-85.294	-0.061	-0.019
-746.185	-52.236	-0.323	0.150
-745.171	-200.000	0.031	0.299
-744.156	-200.000	0.021	0.320
-743.142	-200.000	0.384	-0.001
-742.127	506.359	-0.153	0.358
-741.112	66.009	0.087	-0.089
-740.098	-174.892	-0.212	0.006
-739.083	15.160	-0.287	-0.226
-738.069	-141.076	0.163	0.017
-737.054	-83.137	-0.050	0.016
-736.039	-53.573	-0.327	0.151
-735.025	230.513	-0.122	0.200
-734.010	-9.522	-0.316	-0.212
-732.996	135.360	-0.255	-0.333
-731.981	-77.922	-0.348	0.121
-730.966	3.431	-0.086	-0.063
-729.952	-114.845	0.120	-0.023
-728.937	-151.201	-0.333	-0.025
-727.923	-200.000	0.047	-0.219
-726.908	-19.716	-0.419	0.260
-725.894	136.366	0.152	-0.199
-724.879	-105.810	-0.155	-0.035
-723.864	-105.964	-0.092	-0.021
-722.850	5.408	-0.077	-0.057
-721.835	800.000	0.056	0.178
-720.821	-79.974	-0.476	-0.161
-719.806	-76.135	-0.087	-0.031
-718.791	-130.941	0.102	-0.014
-717.777	-60.729	-0.123	-0.052
-716.762	-175.753	-0.241	-0.007
-715.748	800.000	-0.036	-0.121
-714.733	416.151	-0.066	0.141
-713.718	800.000	0.137	-0.421
-712.704	-114.666	0.491	-0.094
-711.689	491.529	0.052	-0.120
-710.675	-134.360	-0.384	0.047
-709.660	-200.000	-0.036	0.157
-708.645	-70.879	-0.119	0.045
-707.631	-200.000	0.002	-0.033
-706.616	423.110	-0.175	-0.377
-705.602	-44.794	0.193	-0.097
-704.587	-200.000	-0.035	-0.320
-703.572	-200.000	0.015	0.415
-702.558	-22.573	0.380	0.231
-701.543	-73.381	-0.225	-0.083
-700.529	-112.672	0.445	-0.089
-699.514	31.568	0.119	-0.103
-698.499	306.847	-0.168	-0.314
-697.485	-22.766	-0.268	-0.163
-696.470	800.000	0.122	-0.420
-695.456	-200.000	0.019	0.145
-694.441	-200.000	0.007	-0.029
-693.426	-12.250	0.226	0.149
-692.412	31.175	-0.178	-0.153
-691.397	-156.316	-0.197	-0.012
-690.383	-200.000	0.007	-0.213
-689.368	94.350	0.283	-0.322
-688.354	-200.000	-0.042	-0.272
-687.339	65.496	0.104	-0.105
-686.324	-120.870	-0.163	-0.028
-685.310	-14.228	0.376	-0.244
-684.295	-12.676	-0.190	-0.125
-683.281	39.180	-0.134	-0.120
-682.266	-139.697	-0.064	0.007
-681.251	-86.190	0.245	-0.076
-680.237	38.996	-0.316	-0.283
-679.222	-35.737	0.282	0.153
-678.208	800.000	-0.042	0.174
-677.193	800.000	-0.138	0.501
-676.178	-102.652	-0.097	-0.023
-675.164	-200.000	-0.050	0.258
-674.149	641.926	0.081	-0.207
-673.135	-11.758	-0.146	-0.096
-672.120	800.000	0.026	-0.094
-671.105	-0.359	-0.200	0.142
-670.091	-49.333	-0.103	-0.049
-669.076	431.395	0.040	-0.087
-668.062	609.559	-0.048	0.120
-667.047	-194.826	0.180	0.001
-666.032	51.268	0.129	0.123
-665.018	-3.480	-0.291	-0.203
-664.003	-41.736	-0.592	-0.305
-662.989	302.049	0.095	0.176
-661.974	18.101	-0.189	-0.151
-660.959	-200.000	-0.006	-0.158
-659.945	-106.549	-0.125	0.028
-658.930	632.153	-0.064	-0.163
-657.916	-38.923	0.301	0.159
-656.901	30.582	-0.207	0.177
-655.886	-63.069	-0.217	0.090
-654.872	-79.065	0.201	0.068
-653.857	-43.376	0.238	-0.120
-652.843	-85.742	-0.069	-0.021
-651.828	130.542	-0.187	0.241
-650.814	-200.000	-0.036	-0.392
-649.799	800.000	-0.053	0.161
-648.784	28.149	-0.104	0.088
-647.770	263.295	0.133	0.231
-646.755	-38.915	0.222	-0.117
-645.741	214.734	-0.107	0.171
-644.726	96.062	0.137	-0.157
-643.711	99.647	-0.106	-0.123
-642.697	-145.035	0.379	-0.035
-641.682	800.000	0.058	-0.171
-640.668	0.662	-0.138	0.099
-639.653	800.000	-0.036	0.119
-638.638	109.590	-0.231	0.277
-637.624	305.451	-0.175	-0.326
-636.609	328.195	-0.140	-0.268
-635.595	-187.197	0.085	-0.001
-634.580	36.986	-0.125	-0.111
-633.565	-65.858	-0.494	0.198
-632.551	-95.345	-0.085	-0.023
-631.536	505.019	-0.108	-0.250
-630.522	-200.000	0.006	-0.173
-629.507	197.817	0.056	0.085
-628.492	82.202	-0.251	0.272
-627.478	705.615	0.085	-0.224
-626.463	39.307	-0.287	0.258
-625.449	53.483	-0.076	-0.073
-624.434	-3.122	-0.349	0.244
-623.419	800.000	0.048	0.196
-622.405	-94.632	0.091	0.025
-621.390	-200.000	0.002	0.205
-620.376	-108.540	-0.445	0.096
-619.361	298.248	0.101	-0.187
-618.346	800.000	0.098	-0.320
-617.332	210.192	0.072	-0.113
-616.317	-149.683	0.225	0.018
-615.303	-124.477	0.216	0.034
-614.288	-115.973	-0.012	0.002
-613.273	-192.658	0.067	0.001
-612.259	-46.584	-0.168	0.082
-611.244	800.000	0.042	-0.156
-610.230	743.212	0.091	-0.245
-609.215	800.000	0.050	-0.218
-608.201	-95.976	-0.228	-0.061
-607.186	-51.684	-0.082	0.038
-606.171	-179.225	0.070	-0.002
-605.157	-200.000	-0.079	-0.356
-604.142	87.402	0.132	0.146
-603.128	-129.844	-0.161	-0.022
-602.113	-29.208	0.171	-0.098
-601.098	-134.143	-0.109	0.014
-600.084	800.000	-0.072	0.209
-599.069	210.703	-0.130	-0.204
-598.055	-200.000	0.007	0.175
-597.040	-108.114	0.083	0.018
-596.025	-192.703	0.007	0.000
-595.011	-90.215	0.456	0.133
-593.996	40.787	-0.225	-0.203
-592.982	103.810	0.216	0.254
-591.967	222.871	-0.174	-0.281
-590.952	102.045	-0.300	-0.351
-589.938	-103.611	-0.129	0.030
-588.923	99.410	-0.079	-0.092
-587.909	-85.131	0.098	-0.031
-586.894	-148.128	-0.144	0.012
-585.879	767.015	-0.091	-0.248
-584.865	228.565	0.227	0.370
-583.850	31.696	-0.266	-0.228
-582.836	-200.000	0.012	0.174
-581.821	125.795	-0.216	0.273
-580.806	169.953	0.111	0.158
-579.792	800.000	0.101	0.411
-578.777	-110.158	-0.223	0.046
-577.763	30.004	-0.108	-0.092
-576.748	89.366	0.109	0.122
-575.733	4.104	0.196	-0.144
-574.719	-200.000	0.048	-0.247
-573.704	170.735	0.021	-0.031
-572.690	-200.000	-0.019	0.224
-571.675	800.000	0.111	0.376
-570.661	665.698	-0.092	0.237
-569.646	103.358	0.144	-0.169
-568.631	800.000	0.026	-0.088
-567.617	183.114	-0.128	-0.189
-566.602	-45.969	-0.314	-0.155
-565.588	-200.000	-0.065	-0.371
-564.573	-86.297	-0.220	0.068
-563.558	-64.858	0.238	0.096
-562.544	-69.291	-0.179	0.069
-561.529	-21.222	-0.223	0.136
-560.515	143.574	-0.076	0.101
-559.500	800.000	0.052	-0.181
-558.485	-94.932	0.091	0.024
-557.471	-33.254	-0.145	0.080
-556.456	64.870	0.127	-0.128
-555.442	256.259	0.110	-0.188
-554.427	-22.619	-0.116	-0.070
-553.412	48.612	-0.184	0.172
-552.398	124.047	-0.146	0.183
-551.383	-22.400	-0.184	-0.111
-550.369	-68.607	-0.282	-0.109
-549.354	93.457	0.172	0.195
-548.339	-77.087	0.262	0.091
-547.325	650.406	0.090	0.231
-546.310	-158.000	-0.254	-0.015
-545.296	62.845	0.368	-0.368
-544.281	-50.936	-0.083	0.039
-543.266	404.943	0.019	-0.039
-542.252	123.125	0.025	-0.032
-541.237	120.181	0.195	0.241
-540.223	-200.000	-0.008	-0.268
-539.208	-60.264	-0.185	0.079
-538.193	-37.116	-0.287	-0.153
-537.179	295.456	0.093	0.169
-536.164	76.958	-0.057	0.060
-535.150	-200.000	0.043	0.264
-534.135	-200.000	0.024	-0.191
-533.121	-200.000	0.007	0.186
-532.106	-97.519	0.196	-0.051
-531.091	-94.893	-0.393	-0.106
-530.077	-127.549	-0.054	0.008
-529.062	-54.607	0.432	0.195
-528.048	-57.928	0.147	0.064
-527.033	-200.000	0.029	0.380
-526.018	-51.390	0.302	0.141
-525.004	800.000	-0.071	0.256
-523.989	295.164	-0.053	0.096
-522.975	468.855	0.099	0.221
-521.960	800.000	-0.083	-0.294
-520.945	-130.357	-0.241	-0.033
-519.931	226.825	-0.015	-0.024
-518.916	-200.000	0.016	0.169
-517.902	-200.000	-0.008	0.106
-516.887	-200.000	0.012	-0.065
-515.872	31.589	-0.115	0.098
-514.858	287.329	-0.108	0.195
-513.843	-156.326	0.360	-0.023
-512.829	476.831	0.047	0.105
-511.814	800.000	-0.038	0.165
-510.799	-200.000	-0.101	0.636
-509.785	-89.289	0.063	-0.019
-508.770	-91.426	0.475	0.135
-507.756	-45.884	-0.060	-0.030
-506.741	-178.135	-0.173	-0.004
-505.726	-54.367	0.119	-0.054
-504.712	5.845	-0.176	-0.130
-503.697	800.000	0.076	-0.262
-502.683	-187.385	-0.283	-0.004
-501.668	98.127	0.199	0.229
-500.653	102.428	0.145	0.169
-499.639	800.000	0.038	0.116
-498.624	-143.647	0.137	-0.013
-497.610	-200.000	0.075	-0.386
-496.595	-90.839	0.407	-0.117
-495.581	152.931	0.043	-0.059
-494.566	-127.858	0.164	0.023
-493.551	-143.649	0.254	0.024
-492.537	-200.000	-0.009	0.224
-491.522	140.503	0.181	0.238
-490.508	18.264	0.162	-0.129
-489.493	-200.000	0.030	0.181
-488.478	116.980	-0.054	0.066
-487.464	-200.000	0.008	-0.051
-486.449	243.128	-0.032	0.053
-485.435	401.648	0.072	0.150
-484.420	10.754	-0.028	0.021
-483.405	-200.000	-0.056	-0.274
-482.391	800.000	0.097	-0.372
-481.376	-200.000	0.038	-0.246
-480.362	188.594	-0.087	-0.130
-479.347	-200.000	-0.010	0.473
-478.332	323.997	0.088	0.167
-477.318	-148.545	0.293	-0.024
-476.303	-200.000	-0.017	0.093
-475.289	-200.000	0.010	0.096
-474.274	-200.000	-0.020	0.271
-473.259	114.029	-0.086	-0.104
-472.245	52.889	0.213	-0.203
-471.230	-114.871	-0.294	-0.056
-470.216	2.530	0.141	-0.102
-469.201	48.188	-0.115	-0.107
-468.186	-105.379	-0.248	0.056
-467.172	-200.000	-0.015	0.067
-466.157	-55.734	-0.118	0.053
-465.143	-136.143	-0.106	0.012
-464.128	800.000	-0.107	0.364
-463.113	-51.285	0.313	0.146
-462.099	800.000	-0.100	0.313
-461.084	800.000	0.043	-0.162
-460.070	15.442	0.089	0.070
-459.055	-96.926	0.070	-0.018
-458.040	-148.828	0.060	-0.005
-457.026	215.382	-0.071	-0.112
-456.011	-200.000	-0.041	-0.212
-454.997	18.015	-0.232	-0.184
-453.982	-24.067	0.065	-0.039
-452.968	649.871	-0.063	-0.159
-451.953	88.429	0.277	0.306
-450.938	-200.000	-0.016	0.402
-449.924	235.992	-0.086	0.141
-448.909	-200.000	-0.002	0.330
-447.895	66.760	-0.144	-0.146
-446.880	800.000	0.027	0.088
-445.865	-115.446	0.285	-0.053
-444.851	7.660	0.183	0.136
-443.836	63.953	-0.134	-0.134
-442.822	618.048	-0.079	0.197
-441.807	-55.937	0.306	0.136
-440.792	26.373	0.125	0.104
-439.778	-139.865	-0.095	0.010
-438.763	-101.406	0.093	0.022
-437.749	-131.438	0.317	-0.042
-436.734	-58.109	-0.303	-0.132
-435.719	20.269	-0.105	-0.084
-434.705	-55.709	0.366	0.163
-433.690	211.721	0.074	-0.116
-432.676	-118.762	0.237	-0.042
-431.661	22.312	-0.245	-0.199
-430.646	-13.392	-0.168	-0.108
-429.632	800.000	-0.075	0.251
-428.617	-21.599	0.137	0.083
-427.603	-39.292	-0.012	-0.006
-426.588	-74.083	-0.280	0.101
-425.573	-62.496	0.036	0.015
-424.559	-60.948	-0.153	0.064
-423.544	-100.830	0.316	-0.077
-422.530	-54.301	-0.281	0.127
-421.515	157.232	0.088	0.122
-420.500	38.718	0.174	-0.154
-419.486	-174.282	0.456	-0.013
-418.471	-39.189	-0.160	-0.084
-417.457	-38.857	-0.137	-0.072
-416.442	-76.348	-0.206	0.072
-415.428	-126.816	0.038	-0.006
-414.413	386.091	-0.058	-0.118
-413.398	-53.366	-0.026	0.012
-412.384	45.609	0.111	-0.102
-411.369	190.880	0.157	-0.235
-410.355	800.000	0.090	0.279
-409.340	73.046	0.228	0.237
-408.325	-168.573	0.283	0.011
-407.311	-143.233	-0.291	0.028
-406.296	122.402	0.076	-0.095
-405.282	-200.000	0.006	-0.094
-404.267	94.972	-0.284	0.321
-403.252	-193.746	0.186	-0.002
-402.238	800.000	0.007	-0.031
-401.223	-200.000	0.003	-0.104
-400.209	800.000	0.077	-0.217
-399.194	-200.000	0.002	0.083
-398.179	-117.927	-0.258	0.046
-397.165	-119.261	0.169	-0.029
-396.150	-100.015	0.127	-0.031
-395.136	61.676	0.121	0.119
-394.121	-86.789	0.190	-0.058
-393.106	800.000	0.039	-0.158
-392.092	-29.577	-0.155	-0.088
-391.077	473.925	-0.130	-0.290
-390.063	0.600	0.165	-0.117
-389.048	-200.000	-0.023	0.105
-388.033	159.070	0.264	-0.364
-387.019	278.694	0.064	-0.112
-386.004	257.707	-0.121	0.206
-384.990	-162.489	-0.068	-0.003
-383.975	-56.009	0.208	0.092
-382.960	-37.250	0.097	-0.052
-381.946	-200.000	-0.039	0.227
-380.931	800.000	-0.050	-0.159
-379.917	-128.692	0.187	-0.026
-378.902	-200.000	0.010	-0.247
-377.888	92.304	-0.196	-0.219
-376.873	469.452	-0.094	-0.209
-375.858	800.000	0.066	-0.277
-374.844	-62.125	-0.181	-0.075
-373.829	-195.476	-0.206	0.002
-372.815	22.895	0.108	0.088
-371.800	-120.977	0.008	0.001
-370.785	800.000	0.048	0.154
-369.771	-200.000	0.006	-0.083
-368.756	-200.000	-0.033	-0.309
-367.742	-146.928	-0.023	0.002
-366.727	-106.181	-0.198	0.044
-365.712	105.154	-0.168	-0.197
-364.698	-200.000	-0.006	0.172
-363.683	-200.000	-0.011	-0.271
-362.669	2.436	-0.139	-0.100
-361.654	691.772	0.060	0.155
-360.639	-200.000	-0.032	0.222
-359.625	-50.066	-0.124	0.058
-358.610	413.416	0.129	-0.272
-357.596	-149.827	-0.322	-0.025
-356.581	800.000	0.010	0.042
-355.566	-200.000	0.011	-0.164
-354.552	-200.000	0.029	0.429
-353.537	224.647	-0.225	0.360
-352.523	-5.988	-0.243	0.164
-351.508	287.934	0.140	0.251
-350.493	-108.476	-0.067	-0.014
-349.479	-21.340	0.229	-0.139
-348.464	519.632	-0.118	-0.273
-347.450	216.687	-0.086	-0.135
-346.435	-95.686	0.304	0.080
-345.420	-168.407	-0.023	-0.001
-344.406	-175.579	0.257	0.007
-343.391	800.000	0.041	0.164
-342.377	103.955	0.419	0.487
-341.362	-84.668	0.234	0.073
-340.348	-33.036	0.303	-0.166
-339.333	800.000	-0.018	-0.059
-338.318	8.812	-0.125	0.094
-337.304	800.000	-0.043	-0.129
-336.289	-13.656	0.079	-0.051
-335.275	-121.668	0.206	-0.034
-334.260	381.422	-0.086	-0.175
-333.245	74.429	-0.116	-0.120
-332.231	-200.000	-0.006	-0.040
-331.216	-200.000	-0.030	-0.151
-330.202	800.000	-0.064	0.222
-329.187	-80.544	-0.068	0.022
-328.172	30.087	0.202	0.170
-327.158	800.000	0.029	-0.093
-326.143	-122.448	-0.105	-0.017
-325.129	-200.000	0.011	0.119
-324.114	131.125	0.219	-0.278
-323.099	36.313	0.175	0.153
-322.085	800.000	-0.032	-0.099
-321.070	540.019	0.097	0.228
-320.056	-179.318	0.125	0.003
-319.041	348.506	0.033	-0.065
-318.026	59.283	0.214	-0.208
-317.012	800.000	-0.059	0.213
-315.997	-200.000	0.363	-0.001
-314.983	212.190	-0.120	-0.187
-313.968	-31.434	0.143	-0.080
-312.953	-40.904	0.107	-0.055
-311.939	-122.327	-0.121	-0.020
-310.924	322.580	-0.093	-0.175
-309.910	-155.931	-0.159	0.010
-308.895	221.090	0.268	0.426
-307.880	800.000	0.072	0.245
-306.866	146.284	0.111	0.148
-305.851	125.740	0.282	-0.352
-304.837	-70.361	0.131	0.049
-303.822	800.000	0.046	0.148
-302.807	263.144	0.085	0.147
-301.793	-64.299	-0.284	-0.114
-300.778	-200.000	-0.022	0.118
-299.764	20.620	0.044	0.035
-298.749	-7.793	-0.191	0.128
-297.735	800.000	0.057	0.243
-296.720	-24.626	-0.056	-0.033
-295.705	721.027	-0.066	0.175
-294.691	134.120	0.117	0.150
-293.676	-3.482	-0.315	0.216
-292.662	-16.553	0.315	-0.197
-291.647	-200.000	0.009	0.092
-290.632	269.980	0.041	0.071
-289.618	800.000	0.109	-0.335
-288.603	-151.864	-0.074	0.005
-287.589	-12.600	-0.303	0.196
-286.574	426.712	0.191	-0.408
-285.559	-146.034	-0.271	0.024
-284.545	-171.974	-0.116	0.004
-283.530	800.000	0.042	-0.153
-282.516	285.321	0.046	0.081
-281.501	800.000	-0.017	0.054
-280.486	707.038	-0.144	-0.376
-279.472	41.869	-0.193	0.173
-278.457	117.462	0.320	0.389
-277.443	-64.088	-0.237	0.095
-276.428	800.000	-0.071	0.262
-275.413	-123.504	-0.220	0.035
-274.399	69.076	0.264	0.268
-273.384	-50.276	0.048	0.022
-272.370	-142.680	-0.490	0.047
-271.355	-58.958	-0.457	0.195
-270.340	800.000	-0.057	0.187
-269.326	-200.000	0.015	0.186
-268.311	535.589	-0.085	0.198
-267.297	-200.000	0.065	0.000
-266.282	138.110	-0.230	-0.298
-265.267	31.820	0.059	0.050
-264.253	-28.501	0.155	-0.088
-263.238	-27.191	-0.145	-0.083
-262.224	705.799	-0.076	-0.197
-261.209	-39.333	-0.148	0.077
-260.195	-136.397	-0.288	-0.033
-259.180	129.143	-0.188	-0.236
-258.165	-37.875	-0.100	-0.052
-257.151	-200.000	-0.023	-0.341
-256.136	-200.000	0.033	-0.278
-255.122	308.404	-0.167	-0.307
-254.107	42.999	-0.094	0.084
-253.092	433.978	0.088	-0.188
-252.078	-108.895	0.262	-0.055
-251.063	-200.000	-0.008	-0.084
-250.049	-16.455	0.131	0.082
-249.034	-176.481	0.381	0.010
-248.019	68.560	-0.119	-0.121
-247.005	-200.000	0.012	0.159
-245.990	648.730	-0.039	0.098
-244.976	11.325	-0.137	0.104
-243.961	-58.261	-0.224	0.096
-242.946	800.000	-0.117	-0.327
-241.932	-200.000	0.014	-0.367
-240.917	124.920	-0.219	0.272
-239.903	158.217	0.068	0.093
-238.888	-200.000	0.040	0.282
-237.873	440.801	0.100	0.215
-236.859	697.649	0.122	-0.316
-235.844	-99.381	0.112	0.028
-234.830	-200.000	0.003	0.079
-233.815	628.865	0.031	0.076
-232.800	39.559	0.152	0.134
-231.786	-200.000	-0.011	-0.055
-230.771	107.610	0.229	0.269
-229.757	208.147	0.084	-0.129
-228.742	-63.024	0.309	-0.126
-227.727	51.374	0.082	-0.076
-226.713	766.817	0.221	-0.592
-225.698	-12.697	0.205	-0.132
-224.684	93.795	0.166	-0.185
-223.669	86.241	0.018	0.019
-222.655	-200.000	-0.003	-0.127
-221.640	800.000	-0.016	0.049
-220.625	22.739	-0.124	-0.100
-219.611	-37.096	0.173	-0.091
-218.596	-107.693	-0.340	0.073
-217.582	-200.000	-0.051	-0.225
-216.567	-200.000	0.018	-0.301
-215.552	-15.896	0.111	0.070
-214.538	271.618	-0.144	-0.250
-213.523	225.202	-0.114	-0.181
-212.509	-200.000	0.026	-0.379
-211.494	800.000	-0.046	0.178
-210.479	-78.552	-0.190	0.064
-209.465	-9.563	-0.045	-0.030
-208.450	-95.306	-0.155	0.041
-207.436	65.098	-0.242	-0.241
-206.421	-84.504	-0.185	0.057
-205.406	-200.000	-0.017	-0.269
-204.392	49.238	-0.197	-0.182
-203.377	-77.609	0.130	-0.044
-202.363	19.789	-0.052	0.041
-201.348	-112.840	-0.111	0.022
-200.333	95.995	0.214	0.241
-199.319	-55.517	-0.102	-0.045
-198.304	270.481	-0.169	-0.293
-197.290	106.219	0.061	0.071
-196.275	129.775	0.123	-0.155
-195.260	167.861	-0.181	0.254
-194.246	202.214	0.403	0.612
-193.231	-162.076	0.108	0.005
-192.217	64.988	-0.085	-0.085
-191.202	-126.953	0.217	0.031
-190.187	445.593	0.086	-0.187
-189.173	9.688	-0.403	0.301
-188.158	-39.002	0.289	-0.150
-187.144	-82.727	-0.336	0.107
-186.129	-127.083	-0.370	-0.053
-185.114	658.076	0.068	0.173
-184.100	93.101	0.067	0.075
-183.085	-17.276	0.681	-0.422
-182.071	-200.000	0.026	-0.256
-181.056	-46.674	-0.043	-0.021
-180.042	800.000	-0.070	-0.265
-179.027	-166.743	-0.124	0.005
-178.012	-125.983	0.217	0.032
-176.998	10.197	0.112	-0.084
-175.983	-96.885	-0.104	0.027
-174.969	13.012	-0.138	-0.105
-173.954	-163.752	0.489	0.023
-172.939	282.797	0.240	-0.424
-171.925	406.546	0.138	-0.287
-170.910	-68.421	-0.158	0.060
-169.896	-148.507	0.099	0.008
-168.881	25.449	-0.284	0.232
-167.866	489.331	0.047	-0.106
-166.852	-27.243	-0.312	-0.179
-165.837	-111.532	-0.146	-0.029
-164.823	-49.425	0.374	-0.175
-163.808	22.534	-0.146	-0.117
-162.793	453.928	-0.152	0.332
-161.779	58.332	-0.218	0.210
-160.764	-112.963	-0.433	0.084
-159.750	1.467	-0.112	-0.079
-158.735	-80.651	0.117	0.038
-157.720	-107.588	-0.147	-0.032
-156.706	7.629	0.129	-0.095
-155.691	-128.765	-0.064	-0.009
-154.677	-114.374	0.314	0.059
-153.662	95.472	-0.138	0.155
-152.647	-200.000	-0.007	0.233
-151.633	185.053	-0.138	-0.201
-150.618	-28.518	-0.407	0.230
-149.604	521.825	0.092	0.213
-148.589	-163.404	0.266	-0.012
-147.574	74.630	-0.357	-0.369
-146.560	-200.000	-0.008	-0.254
-145.545	-129.354	-0.131	0.018
-144.531	49.207	0.113	-0.104
-143.516	47.393	-0.115	-0.105
-142.502	-78.909	0.327	-0.109
-141.487	-103.148	0.076	-0.018
-140.472	-47.694	0.175	-0.083
-139.458	-200.000	0.064	-0.443
-138.443	800.000	0.048	-0.205
-137.429	102.545	0.358	0.412
-136.414	-23.656	0.297	0.175
-135.399	-80.857	-0.347	0.113
-134.385	-6.434	0.059	0.040
-133.370	93.087	0.251	0.279
-132.356	-52.310	-0.098	-0.045
-131.341	56.792	-0.260	-0.249
-130.326	800.000	0.056	-0.175
-129.312	289.525	-0.216	-0.385
-128.297	-149.233	0.390	0.031
-127.283	-73.835	-0.146	-0.052
-126.268	14.718	0.038	-0.029
-125.253	87.127	-0.047	-0.051
-124.239	-200.000	-0.050	-0.456
-123.224	226.297	-0.029	0.046
-122.210	-100.992	-0.232	0.056
-121.195	-200.000	-0.039	0.225
-120.180	800.000	-0.060	0.171
-119.166	290.253	0.133	0.238
-118.151	-15.468	-0.126	0.079
-117.137	-109.756	-0.283	-0.058
-116.122	27.677	0.110	0.091
-115.107	423.072	-0.094	0.198
-114.093	460.934	0.063	-0.138
-113.078	148.475	-0.082	0.108
-112.064	99.529	-0.175	0.198
-111.049	-40.659	0.183	-0.093
-110.034	-200.000	0.072	-0.329
-109.020	-200.000	-0.020	-0.161
-108.005	-38.889	0.317	-0.164
-106.991	800.000	0.044	0.125
-105.976	208.051	-0.070	-0.107
-104.962	178.778	-0.148	-0.212
-103.947	147.702	-0.051	0.067
-102.932	-26.263	-0.068	0.039
-101.918	142.455	-0.079	-0.103
-100.903	-200.000	0.057	0.373
-99.889	424.898	0.146	-0.309
-98.874	483.195	-0.034	0.076
-97.859	-126.516	-0.116	-0.017
-96.845	356.767	0.125	-0.245
-95.830	-200.000	0.040	-0.182
-94.816	800.000	-0.012	-0.049
-93.801	-200.000	-0.024	-0.263
-92.786	74.399	0.078	0.080
-91.772	-61.714	0.164	-0.068
-90.757	108.364	0.152	0.178
-89.743	-200.000	0.002	-0.232
-88.728	800.000	-0.031	-0.110
-87.713	800.000	0.027	-0.098
-86.699	401.716	-0.110	-0.226
-85.684	185.149	0.136	0.197
-84.670	203.177	-0.154	-0.233
-83.655	800.000	0.096	-0.393
-82.640	119.276	0.112	-0.135
-81.626	-124.276	0.149	-0.023
-80.611	177.856	0.169	0.242
-79.597	551.729	-0.188	0.442
-78.582	-73.479	-0.367	-0.131
-77.567	-95.193	0.492	-0.130
-76.553	41.157	-0.135	-0.120
-75.538	284.120	0.111	-0.196
-74.524	147.343	-0.115	-0.152
-73.509	674.112	0.112	-0.285
-72.494	17.033	-0.298	-0.231
-71.480	800.000	-0.071	-0.219
-70.465	38.413	-0.234	0.205
-69.451	-79.707	-0.151	-0.050
-68.436	-43.577	0.254	-0.126
-67.422	94.745	-0.115	0.129
-66.407	-61.698	0.117	0.048
-65.392	236.046	-0.105	0.171
-64.378	401.911	0.122	0.251
-63.363	-200.000	0.014	0.144
-62.349	-200.000	0.003	0.328
-61.334	130.661	-0.895	-1.124
-60.319	89.455	0.590	0.644
-59.305	-200.000	-0.184	-1.380
-58.290	469.888	0.515	1.134
-57.276	-200.000	0.252	1.643
-56.261	-200.000	107.195	626.961
-55.246	524.557	1515.146	3490.507
-54.232	176.081	2704.326	3845.134
-53.217	111.011	2183.285	2574.483
-52.203	39.898	1705.437	1499.558
-51.188	32.319	1519.047	1284.107
-50.173	29.947	1492.560	1245.735
-49.159	50.621	1549.022	1435.269
-48.144	50.896	1565.347	1452.226
-47.130	32.456	1521.056	1286.541
-46.115	29.367	1506.647	1253.348
-45.100	29.196	1503.014	1249.121
-44.086	29.202	1500.498	1247.019
-43.071	29.123	1498.453	1244.733
-42.057	29.090	1496.726	1243.030
-41.042	29.107	1495.543	1242.109
-40.027	29.154	1493.783	1240.916
-39.013	29.116	1492.173	1239.272
-37.998	29.026	1491.424	1238.001
-36.984	29.059	1489.641	1236.692
-35.969	29.126	1488.365	1236.034
-34.954	29.093	1487.239	1234.824
-33.940	29.027	1485.890	1233.216
-32.925	29.023	1484.741	1232.184
-31.911	29.112	1483.513	1231.714
-30.896	29.195	1482.156	1231.093
-29.881	29.184	1481.429	1230.363
-28.867	29.205	1479.794	1229.097
-27.852	29.168	1478.269	1227.538
-26.838	29.193	1476.694	1226.346
-25.823	29.226	1475.068	1225.170
-24.809	29.212	1473.907	1224.062
-23.794	29.179	1472.645	1222.746
-22.779	29.144	1471.510	1221.523
-21.765	29.129	1470.055	1220.170
-20.750	29.212	1468.629	1219.484
-19.736	29.203	1468.215	1219.031
-18.721	29.153	1466.978	1217.623
-17.706	29.190	1465.697	1216.759
-16.692	29.133	1464.517	1215.355
-15.677	29.121	1463.610	1214.478
-14.663	29.213	1462.466	1214.087
-13.648	29.176	1461.237	1212.769
-12.633	29.080	1460.486	1211.467
-11.619	29.028	1460.295	1210.918
-10.604	29.003	1459.507	1210.054
-9.590	29.101	1458.252	1209.608
-8.575	29.094	1457.347	1208.765
-7.560	29.194	1456.079	1208.321
-6.546	29.111	1455.595	1207.326
-5.531	29.066	1454.798	1206.321
-4.517	29.131	1453.262	1205.430
-3.502	29.187	1452.549	1205.153
-2.487	29.085	1451.598	1203.651
-1.473	29.147	1450.472	1203.072
-0.458	29.180	1449.039	1202.054
0.556	26.917	1439.598	1191.254
1.571	24.054	1414.421	1151.824
2.586	20.784	1355.234	1083.216
3.600	19.174	1274.537	1009.197
4.615	18.228	1229.719	968.272
5.629	15.814	1173.819	911.120
6.644	7.605	1090.508	804.931
7.659	0.948	1050.305	742.620
8.673	-0.106	1044.938	733.611
9.688	-0.369	1041.973	730.184
10.702	-0.342	1040.006	728.873
11.717	-0.391	1037.807	727.030
12.731	2.551	1041.182	743.626
13.746	11.435	1053.833	796.094
14.761	18.347	1062.513	836.460
15.775	20.010	1064.047	845.719
16.790	20.174	1064.144	846.520
17.804	20.127	1062.958	845.275
18.819	20.054	1061.673	843.825
19.834	19.969	1061.786	843.425
20.848	20.172	1061.139	843.823
21.863	20.249	1060.318	843.471
22.877	20.091	1060.353	842.653
23.892	20.097	1059.671	842.070
24.907	20.000	1059.055	841.035
25.921	20.040	1058.331	840.580
26.936	20.114	1057.291	840.037
27.950	20.086	1056.540	839.227
28.965	20.092	1054.693	837.719
29.980	19.964	1053.309	835.925
30.994	19.850	1052.136	834.373
32.009	20.186	1050.501	834.619
33.023	20.135	1050.431	834.245
34.038	19.969	1049.023	832.252
35.053	20.047	1048.313	831.992
36.067	20.160	1047.793	832.049
37.082	20.126	1047.077	831.243
38.096	20.094	1046.337	830.425
39.111	20.346	1045.211	830.666
40.126	20.412	1044.880	830.644
41.140	20.423	1042.945	829.086
42.155	20.041	1041.615	826.137
43.169	19.789	1040.274	823.797
44.184	19.928	1039.135	823.486
45.199	19.950	1038.228	822.796
46.213	19.818	1037.173	821.259
47.228	19.752	1036.298	820.181
48.242	19.899	1035.409	820.102
49.257	19.949	1034.381	819.452
50.271	20.054	1033.833	819.444
51.286	20.246	1032.738	819.409
52.301	20.193	1032.196	818.656
53.315	20.182	1031.359	817.870
54.330	20.194	1030.396	817.089
55.344	20.088	1029.579	815.872
56.359	20.066	1028.969	815.213
57.374	20.064	1027.919	814.300
58.388	19.984	1026.841	812.999
59.403	19.951	1026.091	812.175
60.417	20.033	1024.891	811.536
61.432	19.789	1024.273	809.835
62.447	19.822	1023.324	809.169
63.461	20.001	1023.153	809.795
64.476	20.065	1021.946	809.068
65.490	20.010	1021.308	808.237
66.505	19.907	1019.840	806.524
67.520	19.930	1019.300	806.130
68.534	19.976	1018.803	805.879
69.549	19.984	1017.646	804.929
70.563	19.694	1015.697	801.976
71.578	19.491	1015.749	801.000
72.593	19.680	1014.559	800.870
73.607	19.502	1013.502	799.138
74.622	19.518	1012.449	798.310
75.636	19.817	1011.805	799.117
76.651	19.817	1010.944	798.365
77.666	19.809	1010.178	797.652
78.680	19.742	1009.258	796.544
79.695	19.684	1008.760	795.816
80.709	19.866	1008.131	796.087
81.724	19.850	1007.690	795.594
82.739	19.789	1006.690	794.452
83.753	19.708	1005.996	793.464
84.768	20.021	1005.256	794.248
85.782	20.336	1004.657	795.145
86.797	20.558	1003.433	795.123
87.812	20.418	1002.799	793.907
88.826	20.309	1001.641	792.423
89.841	20.328	1000.517	791.551
90.855	20.508	999.719	791.670
91.870	20.295	999.591	790.529
92.884	20.412	998.506	790.132
93.899	20.387	996.831	788.623
94.914	20.195	997.155	787.937
95.928	20.269	995.949	787.253
96.943	20.326	994.903	786.613
97.957	20.131	993.760	784.757
98.972	19.925	992.409	782.691
99.987	19.664	991.308	780.575
101.001	19.753	990.796	780.501
102.016	19.991	990.715	781.446
103.030	20.054	989.499	780.700
104.045	20.100	987.831	779.524
105.060	19.840	987.190	777.779
106.074	19.764	985.561	776.086
107.089	19.733	984.706	775.206
108.103	20.079	984.906	776.842
109.118	20.329	983.461	776.755
110.133	19.968	982.649	774.433
111.147	20.014	981.214	773.436
112.162	19.924	980.211	772.175
113.176	19.646	979.081	769.978
114.191	19.796	978.008	769.733
115.206	19.832	976.902	768.956
116.220	19.577	975.937	766.997
117.235	19.432	975.172	765.682
118.249	19.603	974.778	766.067
119.264	19.622	973.652	765.195
120.279	19.699	972.471	764.543
121.293	19.694	971.836	763.951
122.308	19.672	971.573	763.582
123.322	19.742	970.389	762.892
124.337	19.575	969.834	761.650
125.352	19.618	968.128	760.435
126.366	19.396	966.136	757.826
127.381	18.912	964.874	754.644
128.395	19.597	964.143	757.008
129.410	20.024	964.361	758.986
130.424	20.141	963.338	758.624
131.439	20.178	962.308	757.910
132.454	19.974	961.615	756.405
133.468	20.043	960.616	755.854
134.483	20.080	959.407	754.997
135.497	20.103	959.081	754.771
136.512	20.204	958.616	754.781
137.527	20.306	957.606	754.362
138.541	20.303	956.847	753.683
139.556	20.318	956.022	753.033
140.570	20.271	955.497	752.348
141.585	20.383	953.910	751.516
142.600	20.424	953.280	751.131
143.614	20.352	952.346	750.016
144.629	20.406	951.912	749.841
145.643	20.560	951.121	749.817
146.658	20.525	950.228	748.898
147.673	20.346	948.654	746.820
148.687	20.424	947.800	746.417
149.702	20.225	946.910	744.795
150.716	20.260	945.597	743.848
151.731	20.083	945.225	742.730
152.746	20.190	944.489	742.543
153.760	20.402	943.736	742.795
154.775	20.346	943.356	742.190
155.789	20.443	942.279	741.690
156.804	20.494	940.928	740.780
157.819	20.399	940.195	739.733
158.833	20.467	939.273	739.230
159.848	20.490	938.744	738.844
160.862	20.651	937.328	738.349
161.877	20.487	936.417	736.873
162.892	20.479	935.553	736.094
163.906	20.485	935.361	735.903
164.921	20.562	934.055	735.136
165.935	20.442	932.854	733.617
166.950	20.402	932.347	732.983
167.964	20.439	931.127	732.117
168.979	20.485	929.919	731.296
169.994	20.330	928.974	729.838
171.008	20.284	927.822	728.674
172.023	20.549	926.738	728.867
173.037	20.377	926.591	727.969
174.052	20.361	925.023	726.604
175.067	20.068	924.130	724.615
176.081	20.124	923.372	724.189
177.096	20.346	922.260	724.178
178.110	20.355	921.567	723.611
179.125	20.174	920.672	722.088
180.140	19.817	919.376	719.524
181.154	19.905	918.623	719.237
182.169	19.879	918.623	719.063
183.183	20.269	917.781	719.959
184.198	20.385	917.795	720.388
185.213	20.515	916.449	719.807
186.227	20.415	916.025	718.997
187.242	20.440	915.505	718.627
188.256	20.466	914.966	718.248
189.271	20.444	913.692	717.096
190.286	20.700	913.008	717.550
191.300	20.457	911.941	715.646
192.315	20.067	910.748	713.043
193.329	19.321	909.243	708.736
194.344	19.014	908.059	706.490
195.359	19.437	909.032	708.921
196.373	20.349	908.823	712.443
197.388	20.625	908.236	713.048
198.402	20.314	907.657	711.256
199.417	20.207	907.154	710.364
200.432	20.300	906.652	710.286
201.446	20.225	905.716	709.185
202.461	19.891	904.904	707.120
203.475	19.834	904.598	706.587
204.490	19.465	903.377	704.065
205.504	18.514	901.002	698.280
206.519	19.020	901.018	700.293
207.534	19.811	901.359	703.716
208.548	19.936	900.734	703.673
209.563	20.225	901.133	705.095
210.577	20.314	900.022	704.526
211.592	19.922	899.156	702.196
212.607	20.528	898.776	704.295
213.621	20.532	898.202	703.797
214.636	20.470	897.796	703.166
215.650	20.548	897.051	702.834
216.665	20.568	896.591	702.494
217.680	20.511	896.196	701.891
218.694	20.612	895.182	701.441
219.709	20.275	894.099	699.177
220.723	19.893	893.580	697.170
221.738	20.115	893.217	697.717
222.753	20.349	892.793	698.267
223.767	20.384	891.919	697.660
224.782	20.496	890.657	697.061
225.796	20.456	890.817	696.966
226.811	20.565	890.089	696.769
227.826	20.172	888.936	694.231
228.840	19.357	887.176	689.539
229.855	19.424	886.811	689.463
230.869	19.716	886.215	690.106
231.884	19.503	885.328	688.500
232.899	19.496	884.825	688.024
233.913	20.312	884.759	691.163
234.928	20.366	884.443	691.070
235.942	20.183	883.996	689.930
236.957	20.386	883.194	690.051
237.972	20.257	881.856	688.433
238.986	20.062	881.361	687.212
240.001	20.052	880.823	686.690
241.015	20.118	879.999	686.249
242.030	20.223	879.619	686.307
243.045	20.303	878.814	685.934
244.059	20.385	878.815	686.201
245.074	20.506	877.967	685.952
246.088	20.611	877.031	685.574
247.103	20.196	876.037	683.103
248.117	20.141	875.574	682.466
249.132	20.595	875.797	684.367
250.147	21.058	875.134	685.607
251.161	20.947	874.507	684.619
252.176	21.114	873.756	684.626
253.190	21.118	873.078	684.050
254.205	21.159	872.694	683.851
255.220	21.378	872.314	684.351
256.234	21.289	871.980	683.677
257.249	21.261	871.134	682.844
258.263	21.057	870.677	681.628
259.278	21.112	869.723	681.039
260.293	21.312	869.472	681.561
261.307	21.334	868.706	680.986
262.322	21.145	868.259	679.839
263.336	21.142	867.108	678.866
264.351	20.464	866.043	675.339
265.366	19.562	864.001	670.187
266.380	19.232	862.520	667.698
267.395	19.927	863.643	671.207
268.409	20.732	863.459	674.122
269.424	20.616	863.094	673.328
270.439	20.878	862.410	673.749
271.453	21.133	861.783	674.184
272.468	21.125	860.974	673.462
273.482	21.016	861.252	673.197
274.497	21.449	860.182	673.971
275.512	21.200	858.780	671.855
276.526	20.458	857.625	668.040
277.541	20.745	857.241	668.783
278.555	20.986	857.417	669.786
279.570	21.029	856.318	669.034
280.585	20.645	855.646	666.979
281.599	20.760	854.949	666.818
282.614	20.911	854.695	667.140
283.628	20.589	853.168	664.658
284.643	20.213	852.612	662.727
285.657	20.549	852.780	664.084
286.672	20.404	852.208	663.027
287.687	20.012	850.935	660.484
288.701	20.375	850.837	661.732
289.716	20.636	850.700	662.560
290.730	20.389	849.371	660.528
291.745	20.173	849.230	659.538
292.760	20.178	847.790	658.382
293.774	20.050	847.250	657.419
294.789	20.997	847.543	661.177
295.803	21.561	847.595	663.298
296.818	21.632	847.121	663.138
297.833	21.712	846.706	663.056
298.847	21.345	845.739	660.853
299.862	21.033	844.946	658.999
300.876	21.239	844.254	659.178
301.891	21.528	844.111	660.099
302.906	21.678	843.160	659.860
303.920	21.044	842.139	656.616
304.935	20.942	842.033	656.094
305.949	21.292	841.543	656.968
306.964	21.353	841.188	656.862
307.979	21.173	840.323	655.453
308.993	21.315	839.478	655.269
310.008	21.488	839.541	655.910
311.022	21.752	838.707	656.188
312.037	21.581	838.281	655.158
313.052	21.327	837.615	653.630
314.066	21.115	837.087	652.367
315.081	20.649	835.288	649.166
316.095	20.092	833.989	646.023
317.110	20.466	834.706	647.920
318.125	21.179	834.910	650.678
319.139	20.779	833.636	648.138
320.154	19.825	831.826	643.128
321.168	19.327	830.850	640.467
322.183	19.979	831.054	642.990
323.197	20.801	831.437	646.281
324.212	21.227	830.948	647.423
325.227	21.401	830.241	647.459
326.241	21.456	830.372	647.707
327.256	21.472	829.573	647.086
328.270	21.174	829.199	645.638
329.285	21.137	828.644	645.009
330.300	21.036	827.661	643.814
331.314	20.825	826.664	642.205
332.329	20.799	826.399	641.845
333.343	21.288	826.155	643.402
334.358	21.391	825.576	643.272
335.373	21.455	825.045	643.036
336.387	21.486	824.615	642.759
337.402	21.746	824.221	643.350
338.416	22.003	823.402	643.595
339.431	21.867	822.960	642.693
340.446	21.811	822.440	642.028
341.460	21.991	822.062	642.335
342.475	22.017	821.375	641.836
343.489	21.718	820.529	640.025
344.504	21.759	819.762	639.520
345.519	22.103	819.876	640.807
346.533	22.186	819.588	640.828
347.548	22.281	819.173	640.792
348.562	22.193	818.810	640.131
349.577	22.178	818.148	639.505
350.592	22.170	817.532	638.938
351.606	22.348	816.871	639.011
352.621	22.226	816.270	638.040
353.635	22.165	816.168	637.683
354.650	21.890	815.716	636.274
355.665	21.751	814.331	634.635
356.679	20.749	812.599	629.608
357.694	20.654	812.162	628.869
358.708	21.174	812.307	630.807
359.723	21.040	811.832	629.898
360.738	21.465	811.110	630.813
361.752	21.766	811.249	631.952
362.767	21.734	811.101	631.664
363.781	22.201	810.873	633.114
364.796	22.421	810.610	633.645
365.810	22.504	810.101	633.489
366.825	22.681	809.653	633.720
367.840	22.451	809.543	632.751
368.854	22.294	808.897	631.627
369.869	22.032	807.430	629.485
370.883	21.842	807.353	628.690
371.898	21.868	806.627	628.159
372.913	21.931	805.691	627.602
373.927	21.803	805.550	626.977
374.942	21.936	804.804	626.817
375.956	22.031	804.467	626.837
376.971	22.158	803.818	626.732
377.986	22.333	803.428	626.994
379.000	22.475	802.895	627.030
380.015	22.600	802.238	626.906
381.029	22.210	801.694	625.036
382.044	22.319	801.168	624.961
383.059	22.523	800.481	625.094
384.073	22.529	800.350	624.955
385.088	22.459	799.638	624.096
386.102	22.405	799.444	623.699
387.117	22.387	798.435	622.792
388.132	22.372	797.930	622.291
389.146	22.045	797.377	620.650
390.161	21.513	796.165	617.774
391.175	21.568	796.142	617.894
392.190	22.203	795.959	619.939
393.205	21.909	795.944	618.834
394.219	21.086	794.082	614.437
395.234	19.745	791.987	608.048
396.248	19.005	790.775	604.464
397.263	20.129	792.010	609.308
398.278	21.853	792.923	616.017
399.292	22.189	792.716	616.980
400.307	22.083	791.885	615.908
401.321	21.934	791.828	615.286
402.336	22.043	791.387	615.271
403.350	22.255	790.856	615.547
404.365	22.562	791.207	616.840
405.380	22.806	790.848	617.357
406.394	23.152	790.787	618.464
407.409	23.333	789.998	618.425
408.423	23.084	789.576	617.171
409.438	23.103	788.953	616.696
410.453	23.099	788.805	616.513
411.467	23.135	788.057	615.999
412.482	23.311	787.318	615.980
413.496	23.210	786.996	615.323
414.511	23.173	787.001	615.140
415.526	23.296	786.403	615.046
416.540	23.053	786.525	614.244
417.555	23.204	785.589	613.984
418.569	22.927	784.548	612.157
419.584	22.846	783.961	611.362
420.599	22.916	783.569	611.245
421.613	158.087	1363.610	1798.656
422.628	136.726	1448.106	1798.770
