DTS Sentinel unit serial number:	SN413079Multiplexer serial number:	ORYXHardware model number:	OX4-SRSoftware version number:	ORYX F/W v4.00 Oryx Data Collector v3.7.2.0data status	okinstallation	princeton_trtdifferential loss correction	single-endedforward channel	channel 3reverse channel	N/Adate	2019/09/14time	00:16:35forward acquisition time	60.00reverse acquisition time	0.00gamma	496.2192k internal	0.2340k external	0.2340temperature offset calibration	1.0055default loss term (dB/km)	0.3790temperature slope calibration	1.0000multiplexer offset coefficient	1.0000multiplexer slope coefficient	1.0000fibre end	0.00T internal ref (°C)	26.50T ext. ref 1 (°C)	3.18T ext. ref 2 (°C)	21.44length (m)	temperature (°C)	Stokes	anti-Stokes-747.200	-200.000	0.002	0.105
-746.185	800.000	0.042	0.184
-745.171	21.655	0.057	-0.047
-744.156	800.000	-0.153	0.514
-743.142	-98.155	-0.435	-0.112
-742.127	155.940	0.036	0.050
-741.112	800.000	-0.043	0.163
-740.098	-108.835	-0.314	-0.067
-739.083	23.245	-0.277	0.228
-738.069	732.335	-0.223	0.598
-737.054	-58.612	-0.306	0.133
-736.039	-87.226	0.252	0.077
-735.025	14.851	0.156	0.123
-734.010	479.065	-0.101	-0.228
-732.996	-200.000	-0.052	-0.683
-731.981	-31.911	-0.229	-0.129
-730.966	-63.830	-0.253	-0.104
-729.952	-200.000	-0.034	0.377
-728.937	-89.892	0.169	-0.049
-727.923	146.691	0.032	0.042
-726.908	-26.392	-0.132	-0.077
-725.894	-39.580	0.143	-0.075
-724.879	-92.274	-0.261	-0.074
-723.864	-200.000	0.001	-0.027
-722.850	-131.578	-0.256	-0.034
-721.835	3.741	0.107	-0.078
-720.821	-200.000	-0.003	-0.107
-719.806	-105.340	-0.695	0.159
-718.791	90.343	-0.076	-0.085
-717.777	351.950	0.036	0.072
-716.762	144.289	0.161	-0.215
-715.748	-200.000	0.012	0.080
-714.733	-20.069	-0.141	0.087
-713.718	76.679	-0.203	0.215
-712.704	-48.868	-0.137	0.066
-711.689	72.644	0.079	0.082
-710.675	148.480	-0.131	0.177
-709.660	-25.997	-0.239	-0.141
-708.645	-16.873	0.259	0.164
-707.631	800.000	-0.083	-0.326
-706.616	-71.389	0.057	0.021
-705.602	-131.449	0.272	-0.036
-704.587	85.663	0.128	-0.140
-703.572	181.671	-0.134	-0.197
-702.558	-16.419	-0.177	-0.112
-701.543	-124.187	0.101	-0.016
-700.529	-69.541	0.058	-0.022
-699.514	112.297	0.039	0.048
-698.499	-200.000	0.000	-0.048
-697.485	202.041	-0.140	-0.216
-696.470	347.212	-0.124	-0.243
-695.456	-141.207	0.254	0.026
-694.441	100.493	-0.038	0.044
-693.426	800.000	0.077	-0.280
-692.412	-200.000	0.022	0.234
-691.397	-200.000	-0.035	-0.231
-690.383	625.202	-0.072	-0.181
-689.368	-200.000	-0.014	0.226
-688.354	-81.728	0.150	0.049
-687.339	364.671	-0.102	-0.205
-686.324	728.612	0.046	-0.122
-685.310	-73.467	-0.535	0.195
-684.295	647.288	-0.106	0.271
-683.281	-10.375	-0.376	-0.249
-682.266	145.917	0.090	0.121
-681.251	383.267	-0.116	-0.239
-680.237	633.018	-0.077	0.194
-679.222	9.141	0.108	-0.081
-678.208	-200.000	-0.013	-0.155
-677.193	-58.337	0.086	0.037
-676.178	-78.967	-0.259	-0.088
-675.164	28.542	-0.168	-0.142
-674.149	-47.973	0.069	-0.033
-673.135	68.490	-0.098	-0.100
-672.120	-62.841	-0.160	-0.066
-671.105	14.097	-0.165	-0.128
-670.091	28.580	0.194	0.164
-669.076	800.000	-0.097	-0.305
-668.062	42.478	-0.148	-0.134
-667.047	-200.000	0.000	0.047
-666.032	-22.033	-0.135	-0.082
-665.018	242.499	0.145	-0.242
-664.003	210.028	-0.029	-0.046
-662.989	-13.342	-0.153	-0.099
-661.974	-35.782	0.203	-0.110
-660.959	-157.373	-0.160	-0.010
-659.945	166.771	-0.115	0.163
-658.930	-200.000	0.011	0.084
-657.916	-200.000	0.018	-0.144
-656.901	-25.292	-0.161	0.095
-655.886	-157.935	-0.152	0.009
-654.872	800.000	-0.015	-0.063
-653.857	-105.922	-0.245	0.055
-652.843	-173.189	0.383	-0.012
-651.828	-51.604	0.193	-0.090
-650.814	25.492	-0.150	0.125
-649.799	-141.251	-0.338	-0.034
-648.784	24.596	0.150	0.124
-647.770	-200.000	-0.040	0.305
-646.755	31.033	-0.105	0.090
-645.741	294.116	0.112	-0.205
-644.726	-200.000	-0.022	-0.117
-643.711	221.266	-0.177	0.283
-642.697	71.412	-0.146	0.151
-641.682	521.442	-0.090	-0.210
-640.668	710.680	0.085	-0.225
-639.653	-11.086	-0.099	-0.065
-638.638	-200.000	-0.078	-0.354
-637.624	191.908	0.234	0.352
-636.609	-60.664	-0.304	0.129
-635.595	-200.000	-0.011	-0.105
-634.580	800.000	-0.020	0.059
-633.565	40.828	0.073	-0.066
-632.551	800.000	0.090	0.263
-631.536	800.000	0.065	-0.179
-630.522	8.474	0.173	0.130
-629.507	5.979	-0.312	-0.231
-628.492	-40.194	-0.050	-0.026
-627.478	195.414	-0.166	0.252
-626.463	-200.000	-0.017	-0.332
-625.449	-89.241	-0.406	-0.120
-624.434	-42.718	0.051	-0.026
-623.419	-79.380	0.281	-0.095
-622.405	131.040	-0.191	0.245
-621.390	-6.855	0.242	0.164
-620.376	104.087	0.298	-0.350
-619.361	-200.000	0.028	-0.199
-618.346	800.000	0.067	0.274
-617.332	39.058	0.040	-0.035
-616.317	-51.738	-0.169	0.078
-615.303	-72.932	-0.125	-0.046
-614.288	31.217	-0.372	-0.318
-613.273	225.978	-0.097	-0.157
-612.259	-72.190	-0.228	-0.084
-611.244	81.199	-0.203	-0.219
-610.230	-106.020	-0.197	-0.044
-609.215	-88.056	0.161	-0.048
-608.201	-76.105	0.053	-0.019
-607.186	-200.000	-0.121	0.638
-606.171	130.922	0.054	0.069
-605.157	-15.706	0.013	-0.008
-604.142	-200.000	0.008	0.244
-603.128	-61.148	-0.259	-0.109
-602.113	105.183	-0.123	-0.145
-601.098	-69.047	0.407	0.156
-600.084	639.418	-0.011	-0.029
-599.069	-0.396	-0.387	0.274
-598.055	800.000	0.055	0.239
-597.040	185.462	-0.024	-0.035
-596.025	-39.645	-0.027	0.014
-595.011	12.184	0.211	0.162
-593.996	-200.000	-0.062	-0.304
-592.982	-16.673	-0.227	-0.143
-591.967	177.913	0.079	-0.115
-590.952	291.862	-0.021	-0.039
-589.938	592.054	0.027	0.067
-588.923	-23.233	0.161	0.097
-587.909	-152.002	-0.065	-0.005
-586.894	266.595	-0.170	0.297
-585.879	375.428	0.123	-0.249
-584.865	-200.000	0.001	0.315
-583.850	-116.948	-0.225	0.041
-582.836	-165.931	-0.258	0.011
-581.821	283.694	0.085	-0.152
-580.806	800.000	0.034	-0.142
-579.792	-200.000	-0.014	-0.122
-578.777	-200.000	-0.060	0.291
-577.763	800.000	0.087	-0.376
-576.748	-117.794	-0.121	0.022
-575.733	-1.352	0.028	-0.020
-574.719	-58.667	0.072	-0.031
-573.704	-1.697	-0.038	-0.027
-572.690	-200.000	-0.000	-0.250
-571.675	495.443	-0.220	-0.504
-570.661	283.323	-0.113	-0.202
-569.646	-95.968	0.179	0.048
-568.631	76.141	-0.081	-0.086
-567.617	800.000	-0.031	0.113
-566.602	98.649	-0.199	-0.228
-565.588	48.929	0.210	-0.196
-564.573	235.266	0.114	-0.187
-563.558	-200.000	-0.009	-0.186
-562.544	-200.000	-0.026	-0.147
-561.529	800.000	-0.043	-0.122
-560.515	-115.797	-0.145	0.027
-559.500	328.009	0.105	-0.200
-558.485	-101.401	0.243	0.059
-557.471	30.881	-0.361	0.308
-556.456	800.000	0.072	0.203
-555.442	-148.393	-0.129	-0.011
-554.427	-25.523	0.459	-0.270
-553.412	-14.388	-0.077	0.049
-552.398	-85.951	-0.238	-0.073
-551.383	26.603	-0.129	0.107
-550.369	81.038	-0.116	0.125
-549.354	-97.795	-0.092	0.024
-548.339	9.258	-0.231	0.174
-547.325	27.671	-0.113	-0.095
-546.310	-59.695	0.136	0.058
-545.296	225.344	-0.103	0.166
-544.281	-200.000	0.011	0.230
-543.266	-76.927	-0.167	-0.058
-542.252	-200.000	0.008	-0.187
-541.237	-178.765	0.348	0.008
-540.223	-134.163	0.187	-0.023
-539.208	39.888	-0.241	-0.215
-538.193	-90.769	-0.158	0.045
-537.179	-157.567	0.175	0.010
-536.164	-58.078	0.201	-0.087
-535.150	-29.493	0.136	0.078
-534.135	-200.000	0.013	0.330
-533.121	-200.000	-0.029	0.561
-532.106	800.000	-0.065	0.193
-531.091	-200.000	0.008	0.089
-530.077	-9.960	0.046	-0.030
-529.062	800.000	-0.047	-0.183
-528.048	366.450	0.101	-0.202
-527.033	-200.000	0.016	0.094
-526.018	-119.218	-0.370	-0.064
-525.004	1.379	-0.098	0.070
-523.989	254.510	0.049	0.083
-522.975	168.205	-0.068	0.096
-521.960	-148.715	0.069	-0.006
-520.945	163.693	-0.074	0.104
-519.931	368.213	0.084	0.168
-518.916	404.460	-0.069	0.144
-517.902	461.446	-0.015	-0.032
-516.887	800.000	-0.055	-0.185
-515.872	696.846	-0.072	0.188
-514.858	-200.000	-0.006	-0.124
-513.843	-116.475	-0.261	-0.048
-512.829	-56.256	-0.093	-0.041
-511.814	-200.000	0.011	0.057
-510.799	-50.082	-0.157	0.074
-509.785	-27.217	-0.325	-0.188
-508.770	-200.000	0.025	-0.125
-507.756	-133.363	0.210	-0.026
-506.741	46.974	0.232	0.214
-505.726	-177.257	-0.056	0.001
-504.712	-200.000	0.047	-0.226
-503.697	188.705	0.157	-0.233
-502.683	-21.479	-0.329	-0.200
-501.668	-110.198	-0.145	-0.030
-500.653	-200.000	0.023	0.134
-499.639	-75.380	0.143	-0.051
-498.624	-200.000	-0.010	0.169
-497.610	800.000	-0.056	-0.211
-496.595	800.000	-0.068	-0.200
-495.581	-33.967	0.230	0.126
-494.566	145.693	0.157	0.209
-493.551	-141.250	0.236	-0.024
-492.537	-200.000	-0.034	-0.169
-491.522	-96.458	0.449	0.118
-490.508	-61.339	0.300	0.125
-489.493	-99.247	-0.302	0.076
-488.478	512.358	-0.069	-0.159
-487.464	-112.495	0.150	0.030
-486.449	800.000	-0.093	0.297
-485.435	-82.081	0.168	0.054
-484.420	-144.036	0.445	-0.041
-483.405	525.864	0.052	-0.121
-482.391	-200.000	0.047	-0.273
-481.376	268.178	-0.121	-0.210
-480.362	-200.000	-0.017	-0.205
-479.347	217.201	-0.156	0.247
-478.332	-85.786	0.285	0.088
-477.318	91.322	-0.068	-0.076
-476.303	800.000	0.080	-0.276
-475.289	-132.620	-0.172	-0.022
-474.274	-105.767	0.197	-0.044
-473.259	-200.000	0.257	0.000
-472.245	-47.406	-0.157	0.076
-471.230	800.000	0.029	-0.081
-470.216	-41.512	0.213	-0.109
-469.201	370.431	-0.108	-0.216
-468.186	751.853	0.166	-0.445
-467.172	57.655	0.041	0.040
-466.157	800.000	0.083	0.285
-465.143	60.217	-0.092	0.091
-464.128	-3.314	0.227	-0.157
-463.113	236.077	-0.036	0.059
-462.099	-191.939	0.202	0.002
-461.084	-200.000	-0.018	0.125
-460.070	-200.000	0.042	0.241
-459.055	-169.009	0.105	0.004
-458.040	431.703	0.104	0.224
-457.026	-79.166	0.048	0.016
-456.011	-80.448	-0.188	-0.062
-454.997	769.399	0.023	-0.062
-453.982	-53.944	0.183	-0.083
-452.968	119.877	0.084	-0.104
-451.953	310.376	-0.173	0.321
-450.938	203.192	-0.094	-0.144
-449.924	89.288	-0.019	-0.021
-448.909	-200.000	-0.277	0.001
-447.895	58.293	0.122	0.119
-446.880	800.000	-0.030	0.105
-445.865	-200.000	0.024	0.347
-444.851	70.855	0.226	0.231
-443.836	350.321	-0.060	0.118
-442.822	800.000	-0.127	0.397
-441.807	151.867	0.213	0.288
-440.792	175.402	-0.236	0.339
-439.778	-200.000	-0.027	0.131
-438.763	800.000	-0.080	-0.344
-437.749	-200.000	0.022	-0.103
-436.734	-200.000	0.005	0.032
-435.719	-200.000	0.066	0.495
-434.705	-200.000	-0.022	-0.103
-433.690	-31.241	0.255	0.142
-432.676	690.048	-0.049	-0.128
-431.661	-123.092	0.239	0.038
-430.646	-39.884	-0.201	0.104
-429.632	334.700	-0.152	-0.291
-428.617	-35.583	-0.174	0.093
-427.603	101.286	-0.124	-0.143
-426.588	528.177	-0.087	0.203
-425.573	-200.000	-0.001	-0.101
-424.559	-124.075	0.073	-0.011
-423.544	-200.000	0.031	-0.174
-422.530	-111.606	-0.234	0.047
-421.515	-31.961	-0.138	0.076
-420.500	387.531	0.218	-0.446
-419.486	800.000	-0.054	0.181
-418.471	108.076	0.151	0.179
-417.457	-200.000	-0.002	-0.212
-416.442	-74.767	-0.351	-0.125
-415.428	800.000	-0.046	0.170
-414.413	-152.086	0.183	-0.013
-413.398	-171.642	0.045	-0.001
-412.384	-157.096	-0.263	-0.016
-411.369	-34.987	0.028	0.015
-410.355	139.154	0.164	-0.214
-409.340	-200.000	-0.033	-0.163
-408.325	-93.312	-0.077	-0.021
-407.311	-135.925	0.196	0.023
-406.296	-127.360	0.292	-0.042
-405.282	136.318	-0.196	0.253
-404.267	53.175	-0.168	-0.159
-403.252	-200.000	-0.061	0.338
-402.238	-61.378	0.264	0.110
-401.223	154.934	0.210	0.286
-400.209	-176.445	-0.190	-0.005
-399.194	-200.000	-0.019	-0.171
-398.179	772.357	0.064	-0.172
-397.165	-200.000	0.021	-0.258
-396.150	-43.579	0.298	-0.148
-395.136	800.000	0.142	0.389
-394.121	103.287	-0.085	0.098
-393.106	-200.000	-0.003	0.081
-392.092	42.966	0.076	0.069
-391.077	-71.632	0.600	0.221
-390.063	-110.292	0.190	-0.039
-389.048	-9.297	-0.214	0.141
-388.033	800.000	0.035	0.138
-387.019	-131.172	-0.255	0.034
-386.004	800.000	0.046	-0.127
-384.990	3.767	-0.156	-0.113
-383.975	-100.650	-0.210	0.051
-382.960	50.831	-0.157	0.147
-381.946	587.659	-0.085	0.206
-380.931	177.999	-0.159	-0.229
-379.917	78.897	0.030	0.031
-378.902	-200.000	0.017	0.138
-377.888	-79.948	-0.105	-0.035
-376.873	263.838	0.195	-0.335
-375.858	-66.118	-0.312	-0.123
-374.844	-81.339	0.170	-0.055
-373.829	26.588	0.100	0.083
-372.815	-0.335	-0.137	-0.096
-371.800	-200.000	0.001	-0.213
-370.785	-161.092	0.127	0.007
-369.771	-1.907	0.086	-0.060
-368.756	-200.000	0.012	-0.060
-367.742	-30.652	-0.024	-0.013
-366.727	110.577	0.084	-0.100
-365.712	-2.117	-0.062	-0.043
-364.698	-104.499	-0.334	0.076
-363.683	-71.484	-0.192	-0.071
-362.669	187.160	0.105	-0.155
-361.654	-96.979	0.280	-0.073
-360.639	-200.000	0.011	-0.151
-359.625	-200.000	0.013	0.244
-358.610	-20.646	0.220	-0.133
-357.596	-6.952	-0.292	0.196
-356.581	-103.318	0.108	0.025
-355.566	34.013	0.166	0.143
-354.552	640.167	0.035	-0.088
-353.537	800.000	0.027	0.078
-352.523	93.552	0.232	-0.260
-351.508	13.006	0.143	-0.109
-350.493	-200.000	-0.229	-0.001
-349.479	-101.811	0.484	0.116
-348.464	-88.230	0.136	0.040
-347.450	730.137	-0.073	-0.191
-346.435	-200.000	-0.043	0.220
-345.420	-200.000	-0.008	0.124
-344.406	800.000	0.018	-0.069
-343.391	-142.393	-0.201	-0.020
-342.377	244.487	0.080	-0.133
-341.362	502.740	-0.045	-0.103
-340.348	415.367	-0.218	-0.458
-339.333	-11.893	0.152	-0.098
-338.318	181.292	0.061	0.088
-337.304	-54.188	-0.209	0.094
-336.289	35.091	0.227	0.196
-335.275	-200.000	0.011	0.253
-334.260	-59.402	-0.251	0.106
-333.245	-23.840	0.204	-0.120
-332.231	22.921	-0.207	0.167
-331.216	-200.000	-0.006	0.051
-330.202	-129.967	0.214	-0.029
-329.187	800.000	0.060	-0.211
-328.172	-0.467	-0.057	-0.040
-327.158	-107.692	0.215	-0.046
-326.143	-84.072	-0.081	0.025
-325.129	428.161	0.064	0.136
-324.114	-29.757	-0.188	-0.106
-323.099	-200.000	-0.002	0.025
-322.085	201.645	0.139	-0.211
-321.070	-47.917	-0.120	-0.057
-320.056	363.357	-0.085	0.168
-319.041	-24.268	-0.232	0.137
-318.026	-119.995	0.259	0.044
-317.012	-143.638	0.290	-0.027
-315.997	-109.230	0.239	-0.050
-314.983	344.346	0.146	0.283
-313.968	195.084	-0.137	0.205
-312.953	-55.005	0.080	0.036
-311.939	-94.201	0.204	0.055
-310.924	737.021	0.097	-0.256
-309.910	16.929	-0.257	0.200
-308.895	-47.075	-0.458	-0.220
-307.880	800.000	-0.082	-0.277
-306.866	-200.000	-0.045	-0.304
-305.851	-145.949	-0.382	-0.033
-304.837	-19.139	-0.096	-0.058
-303.822	66.397	0.156	-0.157
-302.807	-78.073	-0.281	0.095
-301.793	163.167	-0.057	-0.079
-300.778	-200.000	0.055	-0.394
-299.764	-76.828	0.165	0.057
-298.749	-200.000	0.022	0.334
-297.735	102.925	-0.168	0.194
-296.720	-200.000	-0.015	-0.263
-295.705	102.754	-0.043	-0.050
-294.691	322.257	-0.141	-0.264
-293.676	87.583	0.106	0.116
-292.662	115.057	-0.187	0.224
-291.647	149.448	-0.088	0.118
-290.632	-163.775	0.109	-0.005
-289.618	-39.168	-0.114	0.059
-288.603	-57.622	-0.215	-0.093
-287.589	148.352	-0.079	-0.105
-286.574	-58.809	-0.132	-0.056
-285.559	22.058	0.085	0.068
-284.545	-200.000	0.004	-0.322
-283.530	-200.000	0.020	0.462
-282.516	-73.313	0.124	0.045
-281.501	146.956	0.025	0.033
-280.486	800.000	-0.020	0.081
-279.472	-37.407	-0.203	0.106
-278.457	-51.373	0.296	-0.136
-277.443	110.959	-0.067	0.080
-276.428	85.912	0.281	-0.305
-275.413	-130.303	-0.093	0.012
-274.399	113.516	-0.250	-0.299
-273.384	82.608	0.123	-0.132
-272.370	118.229	0.220	-0.268
-271.355	-200.000	0.025	0.130
-270.340	220.324	0.091	-0.143
-269.326	39.589	0.166	-0.146
-268.311	-14.966	-0.253	0.159
-267.297	28.639	0.201	0.167
-266.282	470.003	-0.213	0.471
-265.267	19.962	-0.121	0.096
-264.253	439.391	-0.091	0.195
-263.238	333.877	-0.148	-0.281
-262.224	8.139	0.030	-0.022
-261.209	87.133	0.075	-0.082
-260.195	641.461	0.042	-0.104
-259.180	-95.462	-0.191	-0.050
-258.165	-200.000	-0.019	0.129
-257.151	-42.561	-0.388	-0.194
-256.136	-55.701	0.323	-0.142
-255.122	-85.913	0.138	-0.042
-254.107	-120.456	-0.228	0.038
-253.092	21.879	0.130	0.104
-252.078	169.163	-0.058	0.081
-251.063	-32.035	-0.036	-0.020
-250.049	8.819	0.176	-0.131
-249.034	-200.000	0.019	0.164
-248.019	220.522	0.044	0.069
-247.005	-97.385	-0.118	-0.030
-245.990	-96.029	0.178	0.047
-244.976	800.000	-0.132	0.426
-243.961	37.008	0.218	-0.189
-242.946	-128.972	0.478	0.066
-241.932	-200.000	-0.021	0.178
-240.917	-84.420	-0.120	0.037
-239.903	105.651	0.050	-0.059
-238.888	-68.531	0.144	0.055
-237.873	252.048	0.119	-0.199
-236.859	777.066	-0.066	-0.178
-235.844	-200.000	-0.034	0.259
-234.830	160.121	0.099	0.136
-233.815	-67.062	-0.138	-0.053
-232.800	800.000	0.053	-0.157
-231.786	-36.905	-0.273	0.144
-230.771	62.107	-0.182	-0.178
-229.757	-200.000	-0.003	0.120
-228.742	-72.176	0.173	0.063
-227.727	130.033	0.238	-0.300
-226.713	-102.823	0.169	-0.039
-225.698	52.382	-0.148	-0.139
-224.684	-110.256	-0.105	0.022
-223.669	320.431	-0.089	0.165
-222.655	-8.391	0.366	-0.241
-221.640	800.000	-0.040	-0.166
-220.625	562.377	0.011	0.026
-219.611	46.735	-0.103	0.094
-218.596	-140.527	0.246	-0.025
-217.582	316.901	0.025	0.046
-216.567	197.734	-0.054	0.081
-215.552	-200.000	0.030	0.162
-214.538	134.329	-0.155	-0.198
-213.523	-166.354	-0.379	0.016
-212.509	-50.937	-0.200	-0.092
-211.494	30.982	0.039	-0.033
-210.479	800.000	-0.022	-0.082
-209.465	227.724	-0.096	0.153
-208.450	-39.825	-0.111	-0.057
-207.436	231.063	0.087	-0.139
-206.421	-68.153	-0.144	0.055
-205.406	135.586	0.287	0.367
-204.392	170.603	-0.236	-0.332
-203.377	-200.000	-0.008	0.356
-202.363	134.562	0.072	0.091
-201.348	-200.000	0.155	-0.000
-200.333	316.689	-0.099	-0.183
-199.319	-156.189	0.281	-0.017
-198.304	140.504	0.102	0.132
-197.290	-42.993	-0.129	0.064
-196.275	-44.897	-0.088	0.043
-195.260	69.598	-0.111	0.112
-194.246	-128.468	-0.067	0.009
-193.231	-115.635	0.213	-0.039
-192.217	-42.840	-0.102	0.051
-191.202	28.924	0.126	0.105
-190.187	187.390	-0.091	0.134
-189.173	-177.602	0.198	-0.005
-188.158	784.234	-0.129	0.347
-187.144	-200.000	-0.005	0.170
-186.129	189.752	0.098	-0.144
-185.114	8.745	-0.187	0.138
-184.100	49.322	0.089	0.082
-183.085	376.693	-0.042	0.085
-182.071	-200.000	0.010	0.180
-181.056	-52.176	0.301	0.137
-180.042	12.043	0.231	0.174
-179.027	-113.841	0.035	-0.007
-178.012	-65.404	0.194	-0.077
-176.998	631.740	0.081	-0.202
-175.983	70.031	-0.182	-0.184
-174.969	157.568	-0.120	-0.163
-173.954	-33.871	0.039	-0.021
-172.939	348.649	-0.050	0.097
-171.925	800.000	0.014	-0.051
-170.910	-88.690	0.354	-0.103
-169.896	-108.185	-0.105	-0.022
-168.881	800.000	0.082	-0.337
-167.866	-136.926	0.150	-0.017
-166.852	96.939	0.082	0.093
-165.837	-200.000	0.002	0.247
-164.823	-99.231	0.119	-0.029
-163.808	591.733	0.055	-0.133
-162.793	283.532	0.052	0.091
-161.779	42.569	-0.194	-0.173
-160.764	-200.000	-0.004	-0.160
-159.750	-200.000	0.015	0.360
-158.735	70.039	0.161	-0.163
-157.720	-200.000	0.041	0.407
-156.706	-33.566	0.512	0.277
-155.691	148.187	-0.110	-0.145
-154.677	259.449	-0.098	0.165
-153.662	312.674	-0.106	-0.195
-152.647	135.399	0.069	-0.088
-151.633	327.783	0.151	-0.283
-150.618	23.974	0.129	-0.104
-149.604	170.634	0.159	0.223
-148.589	-95.147	0.137	-0.036
-147.574	-36.875	-0.146	0.077
-146.560	-68.117	-0.344	-0.131
-145.545	-149.419	-0.317	0.025
-144.531	743.127	0.046	-0.122
-143.516	-200.000	-0.029	-0.218
-142.502	165.881	0.203	-0.282
-141.487	51.346	0.073	-0.068
-140.472	800.000	-0.075	0.216
-139.458	-200.000	-0.036	0.176
-138.443	-98.601	-0.090	-0.022
-137.429	63.822	-0.060	-0.059
-136.414	-169.752	0.213	-0.008
-135.399	-93.234	0.091	0.025
-134.385	-200.000	0.003	0.127
-133.370	667.564	-0.051	0.129
-132.356	104.083	0.071	0.082
-131.341	104.648	-0.071	0.082
-130.326	-200.000	0.013	-0.450
-129.312	-144.786	-0.337	-0.030
-128.297	-144.462	0.086	-0.008
-127.283	-200.000	-0.039	-0.350
-126.268	203.437	-0.112	0.170
-125.253	215.372	0.017	-0.026
-124.239	-48.347	-0.344	0.162
-123.224	-98.282	0.136	-0.034
-122.210	2.908	-0.114	-0.081
-121.195	384.983	-0.150	-0.302
-120.180	800.000	0.055	-0.176
-119.166	17.045	-0.228	-0.177
-118.151	-102.432	-0.555	0.130
-117.137	-59.873	0.306	0.128
-116.122	800.000	0.052	-0.173
-115.107	-96.143	0.309	0.080
-114.093	150.131	-0.151	0.201
-113.078	-200.000	0.061	0.410
-112.064	-200.000	0.047	0.284
-111.049	-120.446	0.080	-0.013
-110.034	-64.225	-0.325	0.129
-109.020	246.972	0.128	-0.211
-108.005	343.430	0.151	-0.290
-106.991	380.691	-0.128	-0.257
-105.976	-200.000	0.005	0.066
-104.962	-113.394	-0.197	-0.038
-103.947	-123.368	-0.111	0.017
-102.932	24.690	-0.143	0.116
-101.918	-87.462	-0.232	-0.069
-100.903	800.000	-0.058	-0.212
-99.889	106.444	-0.166	0.193
-98.874	-200.000	-0.017	0.192
-97.859	-45.010	-0.093	0.045
-96.845	223.061	0.148	0.234
-95.830	38.437	-0.207	0.181
-94.816	-13.146	0.250	0.159
-93.801	89.499	0.273	0.298
-92.786	-200.000	-0.027	-0.310
-91.772	10.422	0.096	0.071
-90.757	-200.000	0.015	-0.121
-89.743	-13.632	-0.094	-0.059
-88.728	-200.000	-0.009	-0.336
-87.713	-200.000	-0.043	0.259
-86.699	-200.000	0.029	0.137
-85.684	-200.000	-0.009	0.128
-84.670	560.472	-0.090	0.213
-83.655	-138.072	0.226	0.025
-82.640	-38.563	0.239	-0.124
-81.626	-78.387	0.111	-0.037
-80.611	-65.509	0.405	-0.159
-79.597	800.000	-0.029	-0.112
-78.582	104.489	0.234	0.269
-77.567	143.907	-0.040	0.052
-76.553	1.615	0.098	0.069
-75.538	-48.453	0.423	-0.199
-74.524	-200.000	0.045	-0.223
-73.509	56.741	0.199	-0.189
-72.494	321.995	0.188	-0.350
-71.480	-200.000	0.064	-0.382
-70.465	-22.224	0.256	0.152
-69.451	800.000	-0.087	-0.271
-68.436	800.000	-0.032	-0.096
-67.422	-10.659	0.165	-0.107
-66.407	-200.000	-0.348	-0.001
-65.392	226.973	-0.145	0.230
-64.378	73.453	0.063	-0.065
-63.363	-45.501	0.141	0.068
-62.349	-200.000	0.043	0.189
-61.334	56.078	-0.893	-0.846
-60.319	-59.250	0.495	0.208
-59.305	379.092	-0.587	-1.172
-58.290	194.601	0.800	1.184
-57.276	800.000	0.514	1.632
-56.261	-200.000	115.363	642.904
-55.246	506.803	1534.000	3471.471
-54.232	177.220	2704.001	3841.284
-53.217	105.062	2169.494	2497.564
-52.203	37.018	1687.451	1456.704
-51.188	29.720	1501.823	1247.385
-50.173	27.493	1477.103	1212.003
-49.159	49.828	1538.056	1414.548
-48.144	48.448	1552.397	1418.301
-47.130	29.767	1507.549	1252.258
-46.115	26.734	1492.629	1219.445
-45.100	26.552	1489.623	1215.714
-44.086	26.476	1487.637	1213.540
-43.071	26.484	1485.272	1211.617
-42.057	26.360	1484.373	1210.004
-41.042	26.483	1482.617	1209.344
-40.027	26.472	1481.253	1208.111
-39.013	26.429	1479.438	1206.298
-37.998	26.535	1478.273	1206.004
-36.984	26.489	1477.491	1205.016
-35.969	26.453	1476.263	1203.725
-34.954	26.447	1474.717	1202.375
-33.940	26.517	1473.292	1201.631
-32.925	26.559	1472.079	1200.874
-31.911	26.544	1470.711	1199.608
-30.896	26.507	1469.806	1198.582
-29.881	26.621	1467.802	1197.652
-28.867	26.614	1466.413	1196.424
-27.852	26.593	1465.475	1195.473
-26.838	26.599	1464.093	1194.339
-25.823	26.567	1462.519	1192.798
-24.809	26.554	1461.367	1191.721
-23.794	26.524	1459.967	1190.339
-22.779	26.558	1458.752	1189.522
-21.765	26.478	1457.694	1188.083
-20.750	26.497	1456.735	1187.380
-19.736	26.447	1455.891	1186.319
-18.721	26.619	1453.691	1185.605
-17.706	26.388	1453.264	1183.699
-16.692	26.516	1451.940	1183.411
-15.677	26.550	1450.729	1182.600
-14.663	26.501	1449.986	1181.625
-13.648	26.520	1449.237	1181.096
-12.633	26.436	1448.250	1179.693
-11.619	26.398	1447.577	1178.853
-10.604	26.416	1447.008	1178.456
-9.590	26.434	1445.827	1177.569
-8.575	26.476	1444.673	1176.850
-7.560	26.489	1443.764	1176.152
-6.546	26.488	1443.197	1175.636
-5.531	26.471	1441.994	1174.499
-4.517	26.420	1441.605	1173.802
-3.502	26.481	1440.254	1173.050
-2.487	26.449	1439.268	1171.996
-1.473	26.431	1438.373	1171.102
-0.458	26.469	1436.745	1169.978
0.556	26.645	1427.290	1158.767
1.571	23.687	1402.721	1120.089
2.586	20.370	1342.304	1051.697
3.600	18.728	1260.893	978.471
4.615	17.646	1217.008	938.378
5.629	15.024	1161.493	881.697
6.644	8.704	1080.329	788.954
7.659	3.931	1044.162	739.696
8.673	3.256	1038.928	732.710
9.688	3.063	1035.457	729.283
10.702	3.191	1033.905	728.734
11.717	3.231	1032.210	727.663
12.731	5.030	1033.402	736.946
13.746	11.657	1042.362	774.768
14.761	18.048	1050.272	811.004
15.775	19.766	1052.166	820.559
16.790	19.399	1050.557	817.488
17.804	18.430	1048.356	811.121
18.819	17.513	1046.627	805.377
19.834	17.112	1045.164	802.283
20.848	16.860	1044.639	800.620
21.863	16.767	1044.270	799.828
22.877	16.608	1043.488	798.405
23.892	16.410	1042.368	796.546
24.907	16.309	1041.786	795.555
25.921	16.248	1040.875	794.503
26.936	16.321	1040.219	794.276
27.950	16.288	1039.321	793.362
28.965	16.266	1038.441	792.519
29.980	16.460	1037.046	792.291
30.994	16.520	1035.955	791.673
32.009	16.561	1035.241	791.246
33.023	16.646	1034.584	791.070
34.038	16.627	1033.743	790.270
35.053	16.538	1032.529	788.857
36.067	16.561	1031.313	787.963
37.082	16.420	1030.801	786.847
38.096	16.486	1030.052	786.515
39.111	16.666	1029.180	786.615
40.126	16.540	1028.634	785.540
41.140	16.530	1027.246	784.365
42.155	16.230	1025.988	781.946
43.169	16.021	1025.511	780.547
44.184	16.094	1023.802	779.515
45.199	16.077	1022.879	778.665
46.213	16.105	1022.321	778.298
47.228	16.166	1020.977	777.487
48.242	16.437	1019.931	777.871
49.257	16.413	1019.241	777.163
50.271	16.391	1018.200	776.204
51.286	16.474	1017.108	775.680
52.301	16.460	1016.797	775.313
53.315	16.471	1016.092	774.754
54.330	16.297	1015.110	773.143
55.344	16.263	1014.270	772.277
56.359	16.340	1012.589	771.280
57.374	16.289	1011.512	770.161
58.388	16.264	1011.329	769.839
59.403	16.281	1010.399	769.142
60.417	16.066	1009.638	767.512
61.432	16.055	1008.995	766.906
62.447	16.043	1008.336	766.283
63.461	16.074	1007.680	765.857
64.476	15.966	1006.372	764.308
65.490	15.963	1005.571	763.616
66.505	15.825	1005.322	762.737
67.520	16.107	1004.252	763.133
68.534	16.035	1003.559	762.211
69.549	16.003	1003.063	761.625
70.563	16.068	1001.853	760.931
71.578	16.013	1001.288	760.186
72.593	15.773	1000.719	758.605
73.607	15.842	999.562	757.974
74.622	15.890	998.493	757.308
75.636	15.753	997.565	755.924
76.651	15.827	996.847	755.644
77.666	15.898	996.115	755.342
78.680	15.966	995.468	755.089
79.695	15.890	995.032	754.352
80.709	15.892	994.814	754.127
81.724	15.969	993.605	753.486
82.739	16.061	992.600	753.069
83.753	16.180	992.322	753.325
84.768	16.269	991.474	753.013
85.782	16.501	991.135	753.721
86.797	16.753	990.312	754.151
87.812	16.706	989.413	753.189
88.826	16.613	988.372	751.919
89.841	16.563	987.278	750.797
90.855	16.535	987.203	750.550
91.870	16.529	986.399	749.845
92.884	16.606	985.071	749.111
93.899	16.593	984.898	748.854
94.914	16.637	983.641	748.029
95.928	16.661	983.267	747.785
96.943	16.760	982.439	747.524
97.957	16.596	981.694	746.170
98.972	16.565	980.900	745.360
99.987	16.539	979.986	744.487
101.001	16.537	979.463	744.016
102.016	16.513	979.293	743.716
103.030	16.602	977.673	742.810
104.045	16.414	976.941	741.365
105.060	16.715	975.717	741.686
106.074	16.483	974.825	739.930
107.089	16.248	974.479	738.572
108.103	16.156	972.714	736.769
109.118	16.154	971.938	736.107
110.133	16.038	970.986	734.814
111.147	16.108	970.292	734.529
112.162	16.168	969.142	733.853
113.176	16.032	969.096	733.160
114.191	16.084	968.497	732.869
115.206	16.273	967.408	732.803
116.220	16.169	966.677	731.734
117.235	16.236	965.354	730.955
118.249	16.097	964.966	729.995
119.264	16.127	964.014	729.341
120.279	16.010	963.110	728.087
121.293	15.944	962.526	727.297
122.308	15.977	961.478	726.584
123.322	16.032	960.014	725.651
124.337	15.929	959.555	724.792
125.352	15.940	958.244	723.788
126.366	15.957	957.366	723.134
127.381	15.922	956.248	722.074
128.395	15.865	955.446	721.161
129.410	15.939	954.555	720.743
130.424	15.959	953.842	720.226
131.439	16.014	952.488	719.375
132.454	16.131	951.772	719.268
133.468	16.225	951.267	719.223
134.483	16.290	950.755	719.051
135.497	16.101	950.259	717.807
136.512	16.147	949.244	717.173
137.527	16.194	948.823	716.988
138.541	16.005	948.441	715.834
139.556	16.157	947.252	715.518
140.570	16.192	946.291	714.879
141.585	16.393	945.540	715.100
142.600	16.453	945.444	715.217
143.614	16.409	944.933	714.579
144.629	16.469	944.296	714.288
145.643	16.685	942.790	713.997
146.658	16.616	942.146	713.157
147.673	16.515	940.785	711.636
148.687	16.286	939.959	709.989
149.702	16.227	939.108	709.033
150.716	16.296	938.088	708.489
151.731	16.283	937.351	707.816
152.746	16.216	936.833	707.081
153.760	16.353	935.468	706.563
154.775	16.275	935.587	706.265
155.789	16.365	934.548	705.791
156.804	16.555	933.636	705.834
157.819	16.421	932.757	704.549
158.833	16.534	932.434	704.712
159.848	16.581	932.320	704.762
160.862	16.676	931.497	704.470
161.877	16.719	930.417	703.769
162.892	16.529	929.379	702.134
163.906	16.342	928.548	700.667
164.921	16.368	927.494	699.920
165.935	16.208	926.759	698.641
166.950	16.291	925.901	698.276
167.964	16.465	924.917	698.191
168.979	16.579	923.824	697.771
169.994	16.488	923.126	696.811
171.008	16.421	922.343	695.883
172.023	16.458	921.768	695.536
173.037	16.692	920.779	695.691
174.052	16.793	920.108	695.540
175.067	16.594	919.549	694.236
176.081	16.535	918.533	693.168
177.096	16.374	917.722	691.835
178.110	16.224	916.963	690.588
179.125	16.381	916.196	690.592
180.140	16.523	915.518	690.599
181.154	16.397	914.914	689.569
182.169	16.598	914.423	689.956
183.183	16.624	913.873	689.588
184.198	16.721	913.036	689.289
185.213	16.810	912.548	689.223
186.227	16.786	912.184	688.789
187.242	16.755	911.794	688.304
188.256	16.979	910.806	688.409
189.271	17.006	909.900	687.771
190.286	16.967	909.314	687.110
191.300	16.825	908.399	685.782
192.315	16.539	907.587	683.955
193.329	16.225	907.056	682.222
194.344	16.282	906.120	681.691
195.359	16.491	905.677	682.140
196.373	16.604	905.313	682.261
197.388	16.566	904.935	681.762
198.402	16.759	904.336	682.028
199.417	16.989	904.231	682.814
200.432	16.991	903.693	682.356
201.446	17.057	903.368	682.314
202.461	17.118	903.025	682.241
203.475	17.307	902.494	682.537
204.490	17.302	901.748	681.891
205.504	17.072	900.534	679.993
206.519	16.880	899.423	678.324
207.534	17.027	898.892	678.454
208.548	16.868	898.458	677.430
209.563	16.985	897.499	677.113
210.577	16.856	897.059	676.210
211.592	16.902	896.500	675.909
212.607	17.059	896.014	676.107
213.621	17.198	895.905	676.523
214.636	17.237	894.785	675.768
215.650	17.142	894.438	675.072
216.665	17.177	893.657	674.561
217.680	17.234	893.111	674.316
218.694	17.195	892.951	673.981
219.709	17.331	892.602	674.194
220.723	17.332	891.159	673.049
221.738	17.284	890.597	672.377
222.753	17.224	889.775	671.459
223.767	17.253	889.174	671.063
224.782	17.277	888.690	670.730
225.796	17.400	887.974	670.617
226.811	17.421	887.429	670.228
227.826	17.288	886.989	669.314
228.840	17.229	886.101	668.351
229.855	17.217	885.397	667.716
230.869	17.305	884.546	667.358
231.884	17.328	883.798	666.826
232.899	17.164	882.987	665.514
233.913	17.215	882.503	665.287
234.928	17.083	882.037	664.363
235.942	17.206	881.155	664.117
236.957	17.076	880.446	663.020
237.972	17.029	879.892	662.360
238.986	17.031	879.563	662.059
240.001	17.060	879.054	661.731
241.015	17.153	878.215	661.403
242.030	17.176	877.552	660.937
243.045	17.305	876.859	660.856
244.059	17.344	876.229	660.475
245.074	17.438	875.664	660.356
246.088	17.235	875.127	659.107
247.103	17.426	874.813	659.552
248.117	17.504	874.230	659.356
249.132	17.600	873.403	659.043
250.147	17.761	873.156	659.420
251.161	17.908	872.891	659.733
252.176	17.996	872.290	659.558
253.190	17.923	871.708	658.779
254.205	18.112	870.645	658.646
255.220	18.055	870.557	658.301
256.234	18.117	869.722	657.849
257.249	18.116	869.129	657.340
258.263	18.009	868.706	656.550
259.278	18.001	868.035	655.952
260.293	17.935	867.843	655.496
261.307	18.037	867.176	655.327
262.322	18.056	866.618	654.918
263.336	18.244	865.467	654.711
264.351	18.316	865.326	654.822
265.366	18.232	865.001	654.198
266.380	18.308	863.937	653.624
267.395	18.178	863.801	652.967
268.409	18.128	862.525	651.754
269.424	18.145	861.745	651.171
270.439	18.127	861.280	650.694
271.453	18.228	860.320	650.298
272.468	18.026	859.891	649.147
273.482	17.951	859.366	648.410
274.497	18.044	858.636	648.152
275.512	18.159	857.641	647.779
276.526	18.084	856.898	646.878
277.541	17.943	856.584	646.050
278.555	18.077	856.116	646.148
279.570	18.224	855.380	646.090
280.585	18.328	855.461	646.485
281.599	18.339	854.649	645.857
282.614	18.362	853.748	645.204
283.628	18.231	853.187	644.230
284.643	18.154	852.622	643.458
285.657	18.169	852.052	643.026
286.672	18.126	851.524	642.409
287.687	18.231	851.235	642.531
288.701	18.182	850.767	641.934
289.716	18.257	849.836	641.457
290.730	18.148	849.953	641.080
291.745	18.261	848.529	640.372
292.760	18.336	848.212	640.356
293.774	18.378	847.786	640.134
294.789	18.472	847.177	639.972
295.803	18.456	846.648	639.454
296.818	18.341	845.749	638.289
297.833	18.348	845.104	637.774
298.847	18.329	844.577	637.247
299.862	18.384	843.851	636.848
300.876	18.304	843.249	636.041
301.891	18.569	842.323	636.269
302.906	18.603	842.076	636.153
303.920	18.641	841.580	635.861
304.935	18.764	840.975	635.805
305.949	18.913	840.146	635.670
306.964	18.663	839.559	634.250
307.979	18.657	838.861	633.644
308.993	18.724	838.387	633.476
310.008	18.713	837.683	632.848
311.022	18.818	837.027	632.680
312.037	18.783	837.269	632.679
313.052	18.564	836.792	631.456
314.066	18.519	835.562	630.309
315.081	18.460	835.241	629.792
316.095	18.511	835.014	629.755
317.110	18.514	834.104	629.021
318.125	18.491	833.609	628.508
319.139	18.430	833.108	627.854
320.154	18.484	832.348	627.424
321.168	18.414	832.291	627.069
322.183	18.468	831.593	626.683
323.197	18.610	831.070	626.752
324.212	18.525	830.524	625.976
325.227	18.516	830.266	625.693
326.241	18.573	829.814	625.504
327.256	18.527	829.014	624.678
328.270	18.624	828.345	624.471
329.285	18.708	827.906	624.392
330.300	18.578	827.145	623.291
331.314	18.392	827.204	622.602
332.329	18.720	825.875	622.738
333.343	18.780	825.304	622.469
334.358	18.749	824.910	622.004
335.373	18.872	824.003	621.711
336.387	18.808	823.950	621.383
337.402	18.826	823.549	621.092
338.416	18.946	822.978	621.040
339.431	19.069	822.421	621.009
340.446	19.150	821.967	620.903
341.460	19.250	821.295	620.700
342.475	19.333	820.806	620.573
343.489	19.198	820.516	619.816
344.504	19.182	820.193	619.457
345.519	19.334	819.722	619.594
346.533	19.355	818.515	618.702
347.548	19.297	818.509	618.435
348.562	19.212	817.924	617.634
349.577	19.209	816.859	616.764
350.592	18.931	816.772	615.649
351.606	19.088	815.939	615.529
352.621	18.974	815.700	614.886
353.635	18.986	814.915	614.280
354.650	19.087	814.691	614.417
355.665	19.092	814.168	613.989
356.679	19.141	813.846	613.866
357.694	19.123	813.607	613.566
358.708	19.056	813.098	612.889
359.723	19.185	812.463	612.817
360.738	19.169	811.754	612.169
361.752	19.031	811.555	611.476
362.767	19.223	810.781	611.520
363.781	19.432	810.660	612.118
364.796	19.522	810.234	612.060
365.810	19.464	810.272	611.828
366.825	19.460	809.769	611.380
367.840	19.725	809.026	611.704
368.854	19.528	809.228	611.104
369.869	19.576	808.274	610.499
370.883	19.504	807.464	609.580
371.898	19.575	806.947	609.385
372.913	19.646	806.545	609.280
373.927	19.644	805.782	608.640
374.942	19.785	805.061	608.539
375.956	19.655	804.367	607.505
376.971	19.633	804.142	607.202
377.986	19.910	803.727	607.811
379.000	19.865	803.331	607.298
380.015	19.868	803.114	607.089
381.029	20.027	801.987	606.740
382.044	19.720	801.549	605.280
383.059	19.759	801.103	605.027
384.073	19.810	800.497	604.696
385.088	19.782	800.135	604.270
386.102	19.640	799.297	603.088
387.117	19.511	798.864	602.259
388.132	19.632	798.232	602.151
389.146	19.694	797.707	601.918
390.161	19.746	797.415	601.823
391.175	19.879	797.138	602.023
392.190	19.866	797.003	601.826
393.205	19.827	796.286	601.093
394.219	19.903	795.560	600.756
395.234	19.714	795.402	599.929
396.248	19.731	794.496	599.250
397.263	19.687	794.031	598.696
398.278	19.525	793.995	598.053
399.292	19.444	793.471	597.325
400.307	19.573	792.733	597.162
401.321	19.564	792.652	597.018
402.336	19.470	792.714	596.688
403.350	19.571	792.118	596.534
404.365	19.601	791.571	596.172
405.380	19.851	790.756	596.368
406.394	19.983	790.377	596.484
407.409	20.031	789.923	596.255
408.423	19.935	789.895	595.848
409.438	20.036	789.506	595.851
410.453	20.233	788.685	595.856
411.467	20.252	788.377	595.635
412.482	20.380	787.750	595.547
413.496	20.458	787.411	595.508
414.511	20.388	787.213	595.065
415.526	20.392	787.055	594.906
416.540	20.210	786.353	593.699
417.555	20.275	785.839	593.483
418.569	20.302	785.125	592.982
419.584	20.165	785.049	592.404
420.599	20.194	784.816	592.275
421.613	162.463	1370.190	1796.515
422.628	140.586	1455.459	1796.606
