DTS Sentinel unit serial number:	SN413079Multiplexer serial number:	ORYXHardware model number:	OX4-SRSoftware version number:	ORYX F/W v4.00 Oryx Data Collector v3.7.2.0data status	okinstallation	princeton_trtdifferential loss correction	single-endedforward channel	channel 3reverse channel	N/Adate	2019/09/13time	17:08:35forward acquisition time	60.00reverse acquisition time	0.00gamma	496.2192k internal	0.2296k external	0.2296temperature offset calibration	1.0130default loss term (dB/km)	0.3790temperature slope calibration	1.0000multiplexer offset coefficient	1.0000multiplexer slope coefficient	1.0000fibre end	0.00T internal ref (°C)	35.31T ext. ref 1 (°C)	4.81T ext. ref 2 (°C)	34.92length (m)	temperature (°C)	Stokes	anti-Stokes-747.200	32.127	-0.125	-0.110
-746.185	728.202	-0.105	0.286
-745.171	224.796	0.093	0.154
-744.156	-200.000	-0.042	0.378
-743.142	-61.772	-0.272	-0.116
-742.127	-137.587	-0.359	-0.041
-741.112	70.997	-0.055	-0.058
-740.098	-127.838	0.081	-0.012
-739.083	-74.843	-0.047	0.017
-738.069	-56.261	-0.172	0.078
-737.054	133.204	-0.177	-0.234
-736.039	-108.960	-0.088	0.019
-735.025	268.842	0.063	-0.113
-734.010	37.891	-0.138	-0.125
-732.996	27.350	-0.301	-0.258
-731.981	-200.000	0.039	-0.247
-730.966	457.295	0.139	-0.316
-729.952	800.000	0.023	-0.078
-728.937	-44.584	-0.187	-0.095
-727.923	-200.000	0.069	-0.353
-726.908	-98.522	-0.336	0.088
-725.894	-132.648	-0.374	-0.049
-724.879	340.558	0.060	0.120
-723.864	-108.984	-0.149	-0.032
-722.850	-55.114	0.149	-0.069
-721.835	160.308	0.086	0.123
-720.821	-200.000	0.080	-0.371
-719.806	-151.139	-0.126	0.010
-718.791	800.000	-0.037	-0.149
-717.777	-163.209	-0.125	-0.006
-716.762	800.000	-0.054	0.194
-715.748	-128.129	-0.211	0.031
-714.733	-22.035	-0.529	0.328
-713.718	-200.000	-0.025	-0.241
-712.704	137.834	-0.193	-0.258
-711.689	-144.896	0.423	0.039
-710.675	800.000	-0.024	-0.096
-709.660	-72.656	-0.089	0.034
-708.645	-182.789	0.365	-0.007
-707.631	-148.573	0.107	-0.009
-706.616	22.261	0.154	0.128
-705.602	13.887	0.244	-0.194
-704.587	-9.577	0.085	-0.058
-703.572	294.842	0.174	-0.324
-702.558	569.679	-0.148	0.367
-701.543	-40.674	0.041	0.022
-700.529	771.650	0.047	0.131
-699.514	800.000	-0.045	-0.142
-698.499	-88.153	-0.076	0.023
-697.485	-172.974	-0.485	-0.015
-696.470	476.525	0.137	-0.315
-695.456	496.461	-0.118	-0.277
-694.441	18.617	-0.095	0.077
-693.426	80.699	0.152	-0.167
-692.412	800.000	0.083	-0.298
-691.397	800.000	0.082	-0.243
-690.383	-166.888	-0.215	0.009
-689.368	-59.954	0.208	-0.091
-688.354	-200.000	0.018	-0.282
-687.339	-200.000	-0.003	-0.119
-686.324	-200.000	-0.032	0.244
-685.310	-200.000	-0.153	-0.001
-684.295	53.442	0.328	-0.321
-683.281	-200.000	0.065	-0.440
-682.266	-29.653	0.263	-0.153
-681.251	74.512	-0.085	-0.091
-680.237	9.356	-0.101	-0.078
-679.222	-177.724	-0.332	-0.008
-678.208	82.543	0.159	0.176
-677.193	35.103	0.030	0.027
-676.178	-200.000	-0.021	-0.099
-675.164	43.246	-0.072	-0.067
-674.149	46.016	-0.160	-0.151
-673.135	-200.000	-0.054	0.444
-672.120	-200.000	-0.008	0.039
-671.105	216.100	0.070	-0.113
-670.091	-113.407	0.269	0.054
-669.076	-200.000	0.013	-0.176
-668.062	-58.942	0.225	0.099
-667.047	-200.000	0.021	-0.206
-666.032	31.182	-0.141	0.123
-665.018	149.666	-0.181	-0.249
-664.003	-200.000	0.002	0.168
-662.989	-200.000	0.005	-0.320
-661.974	36.024	-0.277	-0.248
-660.959	199.879	-0.047	-0.073
-659.945	293.536	-0.044	-0.082
-658.930	-101.750	-0.111	0.027
-657.916	37.571	-0.129	0.117
-656.901	-200.000	0.017	0.157
-655.886	244.766	-0.094	-0.160
-654.872	228.175	0.071	0.117
-653.857	-58.881	-0.172	0.075
-652.843	762.997	-0.016	-0.044
-651.828	213.367	0.130	0.208
-650.814	800.000	-0.029	0.121
-649.799	-76.880	-0.139	-0.049
-648.784	30.248	0.001	-0.001
-647.770	-117.545	0.185	0.034
-646.755	800.000	0.080	0.335
-645.741	3.433	0.147	-0.109
-644.726	-13.858	-0.279	0.184
-643.711	350.055	-0.133	-0.268
-642.697	15.075	0.239	-0.190
-641.682	0.637	-0.149	-0.109
-640.668	-118.812	0.037	-0.007
-639.653	-200.000	-0.025	0.170
-638.638	800.000	0.065	-0.193
-637.624	148.536	-0.194	0.266
-636.609	-141.280	-0.611	-0.063
-635.595	91.408	-0.082	0.094
-634.580	-200.000	-0.005	0.218
-633.565	-47.740	-0.133	0.066
-632.551	-200.000	0.006	0.146
-631.536	27.891	0.118	-0.101
-630.522	-152.867	0.345	-0.025
-629.507	-200.000	-0.001	-0.039
-628.492	-108.190	-0.297	-0.065
-627.478	-82.944	0.220	-0.072
-626.463	155.817	-0.212	0.297
-625.449	-200.000	-0.012	-0.104
-624.434	-131.448	0.021	-0.003
-623.419	-157.732	-0.080	0.005
-622.405	-158.114	0.206	0.012
-621.390	-182.082	-0.266	-0.005
-620.376	-200.000	0.014	0.068
-619.361	114.725	-0.074	-0.092
-618.346	102.168	-0.083	-0.099
-617.332	-200.000	-0.007	-0.169
-616.317	-200.000	0.133	-0.000
-615.303	301.856	-0.262	-0.492
-614.288	-200.000	0.025	-0.241
-613.273	800.000	-0.021	0.090
-612.259	191.497	0.041	-0.063
-611.244	-61.716	-0.074	-0.032
-610.230	-200.000	0.077	-0.440
-609.215	25.146	-0.156	-0.132
-608.201	71.179	-0.132	-0.140
-607.186	621.778	0.109	-0.278
-606.171	68.268	-0.145	-0.151
-605.157	178.658	-0.103	-0.153
-604.142	-141.568	-0.258	-0.026
-603.128	67.606	0.102	-0.106
-602.113	-200.000	0.018	0.176
-601.098	66.970	0.179	-0.185
-600.084	34.570	0.141	0.125
-599.069	-107.944	0.244	-0.054
-598.055	800.000	0.059	-0.167
-597.040	-124.276	0.296	0.047
-596.025	-138.784	-0.352	-0.039
-595.011	-108.102	0.245	-0.054
-593.996	-54.525	0.121	-0.056
-592.982	-68.295	0.126	0.050
-591.967	-200.000	-0.004	-0.432
-590.952	-200.000	-0.023	0.246
-589.938	86.936	-0.229	-0.257
-588.923	116.819	-0.159	-0.198
-587.909	-177.854	0.200	0.005
-586.894	-1.248	0.302	0.216
-585.879	-159.389	-0.185	0.011
-584.865	-200.000	-0.040	0.200
-583.850	54.641	0.343	-0.336
-582.836	99.577	0.025	-0.030
-581.821	17.301	0.178	-0.144
-580.806	157.626	-0.119	0.168
-579.792	25.358	0.245	0.207
-578.777	800.000	0.088	0.288
-577.763	-153.044	0.306	-0.022
-576.748	-92.848	0.174	-0.049
-575.733	1.814	-0.210	-0.154
-574.719	-99.555	-0.099	-0.025
-573.704	213.772	0.101	0.161
-572.690	147.926	-0.012	-0.016
-571.675	-61.917	-0.126	0.054
-570.661	-36.285	0.220	0.120
-569.646	270.339	-0.129	0.230
-568.631	-25.065	-0.085	-0.051
-567.617	-0.032	-0.042	-0.030
-566.602	511.544	-0.172	0.405
-565.588	1.174	0.085	-0.062
-564.573	92.221	0.179	-0.205
-563.558	596.849	0.038	0.096
-562.544	780.805	-0.148	0.410
-561.529	0.594	-0.235	-0.171
-560.515	29.735	-0.158	0.136
-559.500	-99.757	0.237	-0.060
-558.485	-200.000	0.015	-0.086
-557.471	-141.365	-0.196	-0.020
-556.456	188.731	-0.133	-0.202
-555.442	218.017	-0.037	-0.060
-554.427	-200.000	-0.082	0.436
-553.412	451.062	0.106	-0.238
-552.398	-140.738	0.077	-0.008
-551.383	244.732	-0.125	-0.212
-550.369	-200.000	0.002	-0.486
-549.354	-56.366	0.211	0.095
-548.339	-123.128	0.353	0.057
-547.325	151.808	-0.171	-0.236
-546.310	169.165	0.169	0.244
-545.296	800.000	0.113	0.316
-544.281	-154.205	-0.467	0.032
-543.266	-131.048	-0.241	-0.033
-542.252	254.080	0.078	-0.135
-541.237	-101.529	0.349	-0.086
-540.223	-28.143	0.221	0.130
-539.208	605.498	0.111	0.279
-538.193	800.000	-0.105	0.331
-537.179	125.558	0.255	0.326
-536.164	18.404	-0.161	0.131
-535.150	16.026	-0.147	0.118
-534.135	100.362	0.077	0.091
-533.121	89.226	0.150	0.169
-532.106	-114.805	-0.072	-0.014
-531.091	518.694	0.046	0.108
-530.077	-43.472	-0.107	-0.055
-529.062	88.117	0.123	-0.138
-528.048	-180.652	0.302	-0.006
-527.033	-13.434	0.117	0.077
-526.018	-200.000	0.074	0.341
-525.004	-200.000	0.007	-0.071
-523.989	-92.660	-0.182	0.052
-522.975	32.389	-0.221	-0.194
-521.960	-200.000	0.024	-0.143
-520.945	-58.689	-0.127	0.056
-519.931	-98.093	0.219	-0.057
-518.916	-132.813	-0.201	-0.026
-517.902	32.531	-0.108	0.095
-516.887	65.263	0.387	-0.396
-515.872	800.000	0.108	-0.319
-514.858	21.993	-0.262	-0.216
-513.843	-40.649	0.010	-0.005
-512.829	194.305	0.151	0.231
-511.814	31.646	-0.085	0.074
-510.799	400.541	-0.118	0.251
-509.785	99.689	0.101	0.119
-508.770	35.855	0.266	-0.237
-507.756	178.758	-0.052	-0.076
-506.741	-179.267	0.113	-0.003
-505.726	-200.000	0.063	0.416
-504.712	800.000	0.109	0.321
-503.697	-96.013	0.102	-0.027
-502.683	70.481	0.259	0.271
-501.668	-200.000	0.030	0.183
-500.653	-160.104	-0.596	0.033
-499.639	-62.735	-0.262	-0.110
-498.624	800.000	-0.037	0.118
-497.610	-200.000	-0.009	0.204
-496.595	-76.032	-0.139	-0.050
-495.581	173.985	-0.174	0.254
-494.566	21.672	-0.234	-0.193
-493.551	170.863	-0.205	-0.297
-492.537	-59.941	-0.090	0.039
-491.522	-158.024	0.539	-0.032
-490.508	99.385	-0.160	-0.187
-489.493	207.692	-0.125	0.197
-488.478	800.000	-0.118	0.406
-487.464	338.275	-0.158	0.311
-486.449	-200.000	-0.041	0.196
-485.435	-200.000	0.000	0.411
-484.420	-154.765	0.217	0.015
-483.405	8.996	0.150	0.115
-482.391	-40.118	-0.221	-0.117
-481.376	-10.955	-0.142	0.094
-480.362	800.000	0.027	-0.115
-479.347	-89.457	0.150	0.045
-478.332	-62.083	0.162	0.068
-477.318	-200.000	0.004	-0.254
-476.303	-200.000	0.008	0.317
-475.289	-200.000	0.024	-0.193
-474.274	-98.873	0.502	0.129
-473.259	-64.637	-0.342	0.140
-472.245	-73.157	0.438	-0.162
-471.230	16.526	0.126	-0.101
-470.216	324.464	-0.156	-0.302
-469.201	168.598	-0.244	-0.351
-468.186	-61.158	-0.177	-0.075
-467.172	-39.925	-0.113	-0.060
-466.157	155.606	-0.291	0.405
-465.143	-85.111	-0.316	0.100
-464.128	-155.215	0.232	-0.015
-463.113	-156.006	0.230	-0.015
-462.099	-52.343	-0.112	0.053
-461.084	-66.948	-0.119	-0.048
-460.070	-26.063	-0.263	0.156
-459.055	-200.000	-0.061	-0.282
-458.040	-133.326	-0.100	0.013
-457.026	-148.882	-0.081	0.007
-456.011	-200.000	0.066	-0.401
-454.997	12.260	-0.065	0.050
-453.982	197.254	0.063	0.098
-452.968	-111.922	0.286	-0.058
-451.953	-91.963	0.135	-0.039
-450.938	-34.795	-0.209	0.115
-449.924	176.361	0.177	-0.260
-448.909	374.859	-0.100	-0.207
-447.895	77.487	0.195	-0.210
-446.880	2.466	-0.061	0.045
-445.865	-200.000	-0.018	0.268
-444.851	-67.512	0.348	0.138
-443.836	-200.000	-0.007	0.055
-442.822	47.051	-0.049	0.046
-441.807	88.593	0.286	-0.321
-440.792	-106.981	-0.281	-0.063
-439.778	124.349	-0.215	-0.273
-438.763	-25.731	0.205	-0.122
-437.749	67.605	-0.229	-0.236
-436.734	-46.910	-0.349	0.172
-435.719	197.581	0.115	0.178
-434.705	263.689	0.068	-0.119
-433.690	-115.300	0.143	0.027
-432.676	-98.927	0.206	-0.053
-431.661	500.859	-0.057	0.134
-430.646	146.853	0.084	-0.113
-429.632	-102.328	0.221	-0.054
-428.617	-141.595	-0.329	-0.033
-427.603	-15.155	0.142	-0.091
-426.588	-200.000	-0.029	-0.466
-425.573	547.044	0.126	-0.304
-424.559	-200.000	0.008	-0.142
-423.544	-143.717	0.127	0.012
-422.530	133.822	0.151	-0.197
-421.515	-200.000	-0.036	-0.176
-420.500	-198.808	0.205	0.001
-419.486	133.542	-0.106	0.138
-418.471	107.182	-0.066	0.080
-417.457	-172.933	-0.224	-0.007
-416.442	347.571	0.174	-0.346
-415.428	-57.681	-0.184	-0.081
-414.413	-200.000	-0.045	0.316
-413.398	-200.000	-0.047	0.280
-412.384	198.380	-0.058	-0.090
-411.369	327.165	0.105	-0.204
-410.355	-22.179	-0.178	-0.109
-409.340	68.557	0.071	-0.074
-408.325	-88.545	0.209	-0.063
-407.311	-200.000	-0.005	-0.110
-406.296	60.191	-0.167	-0.166
-405.282	-200.000	0.018	0.131
-404.267	64.684	-0.159	0.162
-403.252	-200.000	-0.010	0.103
-402.238	-200.000	0.032	-0.152
-401.223	6.491	-0.137	-0.103
-400.209	800.000	-0.039	0.133
-399.194	-87.724	-0.364	0.111
-398.179	-66.733	-0.305	0.122
-397.165	800.000	-0.170	0.481
-396.150	-148.823	0.261	0.021
-395.136	137.561	0.111	0.146
-394.121	-125.512	0.087	-0.013
-393.106	-86.530	0.156	-0.048
-392.092	-116.005	-0.274	0.051
-391.077	277.613	0.033	-0.058
-390.063	-15.515	0.070	-0.045
-389.048	-200.000	-0.003	0.204
-388.033	-48.796	-0.203	0.098
-387.019	165.638	-0.048	-0.068
-386.004	-132.693	0.117	-0.015
-384.990	800.000	0.096	0.289
-383.975	-41.755	0.110	0.057
-382.960	-200.000	0.005	-0.137
-381.946	-146.626	-0.006	-0.000
-380.931	-149.032	0.285	0.023
-379.917	-107.257	-0.204	0.045
-378.902	-172.168	-0.366	0.012
-377.888	-94.788	0.270	-0.074
-376.873	148.488	0.150	0.204
-375.858	341.764	-0.113	0.222
-374.844	-200.000	-0.067	-0.382
-373.829	-0.205	0.280	0.200
-372.815	172.606	-0.075	-0.109
-371.800	-200.000	-0.009	-0.150
-370.785	-200.000	-0.038	-0.310
-369.771	800.000	0.032	0.102
-368.756	-200.000	0.025	0.193
-367.742	147.449	0.155	0.210
-366.727	-200.000	-0.066	-0.295
-365.712	146.815	-0.176	0.238
-364.698	-111.792	-0.178	0.036
-363.683	800.000	0.032	-0.120
-362.669	10.975	-0.153	0.118
-361.654	-200.000	-0.014	-0.088
-360.639	136.081	0.332	0.435
-359.625	800.000	-0.058	0.194
-358.610	-46.482	-0.116	0.057
-357.596	-200.000	0.032	-0.163
-356.581	207.789	-0.050	0.079
-355.566	165.745	-0.056	-0.079
-354.552	-114.834	0.303	0.058
-353.537	-6.232	0.176	-0.121
-352.523	122.204	-0.172	0.216
-351.508	-105.323	-0.245	-0.056
-350.493	-197.043	-0.164	-0.001
-349.479	53.456	-0.097	0.093
-348.464	-118.999	0.289	-0.051
-347.450	5.539	-0.204	0.151
-346.435	640.713	0.032	-0.082
-345.420	800.000	0.028	-0.120
-344.406	-200.000	0.049	0.224
-343.391	47.599	0.119	0.112
-342.377	417.872	-0.118	-0.254
-341.362	-55.323	-0.121	0.055
-340.348	11.939	0.068	-0.053
-339.333	177.216	0.170	-0.249
-338.318	-40.060	-0.041	0.022
-337.304	-200.000	0.010	-0.330
-336.289	-6.063	0.314	0.216
-335.275	-200.000	-0.059	-0.398
-334.260	298.881	-0.101	0.186
-333.245	-200.000	-0.023	0.428
-332.231	-40.778	-0.375	-0.195
-331.216	22.828	0.201	-0.166
-330.202	-72.854	-0.154	-0.057
-329.187	295.799	0.085	-0.157
-328.172	14.306	-0.083	0.065
-327.158	-118.214	0.154	0.028
-326.143	53.778	0.315	-0.304
-325.129	119.047	-0.026	-0.032
-324.114	-127.452	0.111	0.016
-323.099	-200.000	-0.012	0.191
-322.085	221.268	0.029	-0.046
-321.070	-49.021	-0.385	-0.185
-320.056	-162.648	-0.220	-0.011
-319.041	39.377	0.222	0.199
-318.026	10.258	-0.155	0.118
-317.012	-85.987	0.367	-0.114
-315.997	164.791	-0.112	-0.159
-314.983	-69.431	0.248	0.096
-313.968	461.991	0.113	0.254
-312.953	800.000	0.017	0.060
-311.939	800.000	-0.084	-0.244
-310.924	82.071	0.082	-0.089
-309.910	-150.683	0.209	0.016
-308.895	48.047	0.255	-0.239
-307.880	45.115	-0.153	-0.142
-306.866	-103.188	-0.091	0.022
-305.851	-200.000	-0.020	0.217
-304.837	19.903	0.151	0.123
-303.822	-51.109	0.148	0.070
-302.807	-200.000	-0.002	0.021
-301.793	-200.000	0.045	0.215
-300.778	-103.063	0.194	0.046
-299.764	260.585	0.162	-0.281
-298.749	-200.000	0.007	-0.115
-297.735	-176.999	-0.199	0.005
-296.720	17.993	0.077	-0.062
-295.705	676.978	-0.113	0.294
-294.691	-140.372	-0.126	0.013
-293.676	34.935	0.218	0.191
-292.662	-200.000	-0.032	-0.168
-291.647	113.822	-0.156	-0.190
-290.632	-84.696	0.098	-0.031
-289.618	-132.103	0.081	-0.011
-288.603	-181.859	-0.307	0.006
-287.589	213.306	-0.147	-0.232
-286.574	30.104	-0.179	-0.153
-285.559	-44.847	-0.130	0.065
-284.545	-200.000	-0.001	-0.069
-283.530	-200.000	-0.008	0.166
-282.516	-181.161	-0.124	0.002
-281.501	32.998	-0.096	-0.084
-280.486	716.153	-0.142	0.379
-279.472	103.092	-0.155	-0.182
-278.457	17.211	-0.336	-0.267
-277.443	625.161	0.060	-0.153
-276.428	787.944	0.130	0.357
-275.413	17.566	-0.158	-0.126
-274.399	94.550	-0.045	-0.052
-273.384	800.000	0.098	0.303
-272.370	-200.000	0.009	0.063
-271.355	563.030	-0.116	0.282
-270.340	519.521	-0.059	0.138
-269.326	-43.245	-0.132	0.067
-268.311	771.570	-0.151	-0.413
-267.297	-58.477	-0.142	0.062
-266.282	-80.042	-0.263	-0.088
-265.267	42.474	-0.125	-0.114
-264.253	-200.000	0.034	-0.373
-263.238	-10.921	0.143	0.095
-262.224	28.560	-0.172	0.146
-261.209	15.738	-0.191	-0.151
-260.195	213.563	-0.149	-0.236
-259.180	247.826	0.221	0.375
-258.165	800.000	-0.042	-0.145
-257.151	-200.000	0.051	-0.324
-256.136	33.558	-0.179	0.156
-255.122	-154.645	0.316	-0.021
-254.107	-135.434	0.185	0.022
-253.092	800.000	-0.064	-0.237
-252.078	72.680	0.128	0.134
-251.063	-61.704	0.295	0.124
-250.049	-26.618	0.168	-0.099
-249.034	30.078	0.188	-0.160
-248.019	800.000	-0.061	0.215
-247.005	3.255	-0.155	0.113
-245.990	-59.334	-0.353	0.152
-244.976	-28.405	0.173	0.100
-243.961	-200.000	-0.003	-0.044
-242.946	-75.893	0.112	0.040
-241.932	-46.905	0.057	0.028
-240.917	34.984	0.390	-0.342
-239.903	613.381	0.029	-0.072
-238.888	-130.416	0.388	-0.053
-237.873	4.384	-0.244	-0.179
-236.859	-200.000	0.068	0.341
-235.844	548.462	0.060	0.143
-234.830	-200.000	-0.030	-0.289
-233.815	-200.000	-0.040	-0.320
-232.800	-128.368	0.031	-0.004
-231.786	173.061	0.141	-0.204
-230.771	370.284	0.170	0.345
-229.757	-45.350	0.205	0.102
-228.742	-89.804	0.229	0.067
-227.727	33.874	0.092	0.080
-226.713	-19.761	-0.243	-0.151
-225.698	211.622	0.117	-0.184
-224.684	800.000	0.030	-0.085
-223.669	-31.249	-0.143	-0.080
-222.655	800.000	0.071	-0.204
-221.640	53.216	0.187	-0.180
-220.625	0.974	-0.056	0.040
-219.611	-42.337	0.083	-0.043
-218.596	15.383	-0.130	0.102
-217.582	238.848	0.162	-0.270
-216.567	-200.000	0.038	0.268
-215.552	-200.000	0.001	-0.009
-214.538	-118.090	-0.304	0.054
-213.523	-140.048	0.225	0.024
-212.509	800.000	-0.059	0.223
-211.494	161.095	0.136	0.190
-210.479	-79.736	0.103	0.035
-209.465	-145.181	-0.071	0.006
-208.450	-133.491	-0.609	0.076
-207.436	-200.000	-0.002	0.183
-206.421	-200.000	0.038	0.186
-205.406	383.480	-0.026	0.054
-204.392	800.000	-0.047	-0.206
-203.377	-200.000	0.006	-0.118
-202.363	-200.000	-0.034	-0.221
-201.348	-27.441	0.185	-0.107
-200.333	124.887	0.041	-0.051
-199.319	800.000	0.155	0.557
-198.304	-200.000	-0.001	-0.060
-197.290	426.171	-0.026	-0.056
-196.275	-120.611	-0.217	0.037
-195.260	-108.086	0.094	-0.020
-194.246	383.464	-0.120	-0.248
-193.231	-0.878	-0.375	-0.265
-192.217	24.324	0.248	0.205
-191.202	64.295	0.199	-0.200
-190.187	-135.397	0.061	-0.007
-189.173	-200.000	-0.017	-0.088
-188.158	-15.797	0.080	0.051
-187.144	337.859	0.090	0.176
-186.129	-58.745	-0.265	0.115
-185.114	158.876	-0.234	-0.325
-184.100	-157.886	-0.435	-0.026
-183.085	-35.588	0.211	0.114
-182.071	-116.103	-0.149	-0.028
-181.056	-142.577	0.175	-0.017
-180.042	-29.460	0.205	0.117
-179.027	230.141	0.179	0.292
-178.012	-20.212	-0.165	0.101
-176.998	-200.000	0.021	0.440
-175.983	-93.050	-0.172	-0.048
-174.969	491.610	0.099	-0.226
-173.954	48.379	0.142	-0.132
-172.939	-200.000	-0.016	0.443
-171.925	-69.393	0.353	0.135
-170.910	80.367	-0.087	0.093
-169.896	70.496	0.042	-0.044
-168.881	66.432	0.151	0.153
-167.866	564.755	-0.100	-0.241
-166.852	-80.450	-0.348	0.116
-165.837	-26.573	-0.042	0.025
-164.823	-107.910	-0.098	-0.021
-163.808	44.382	0.206	0.189
-162.793	-89.547	-0.256	0.075
-161.779	363.772	0.128	-0.257
-160.764	-74.882	-0.037	0.013
-159.750	-200.000	-0.024	0.106
-158.735	141.818	0.099	0.131
-157.720	-1.109	-0.076	-0.053
-156.706	-200.000	-0.011	-0.197
-155.691	49.998	0.332	-0.312
-154.677	-29.737	0.212	0.121
-153.662	800.000	-0.082	0.311
-152.647	96.942	0.142	0.163
-151.633	-200.000	-0.060	0.291
-150.618	-167.900	0.141	-0.006
-149.604	-200.000	0.004	-0.190
-148.589	-200.000	0.006	0.309
-147.574	195.397	0.067	-0.102
-146.560	800.000	-0.093	0.285
-145.545	35.289	0.157	0.137
-144.531	-138.813	0.280	-0.030
-143.516	14.077	0.303	-0.235
-142.502	195.249	-0.021	0.031
-141.487	55.439	0.151	0.146
-140.472	-53.436	0.441	0.201
-139.458	692.537	0.052	-0.135
-138.443	-200.000	0.014	-0.142
-137.429	9.346	0.118	0.089
-136.414	-67.950	0.272	0.106
-135.399	246.953	-0.069	0.116
-134.385	-147.675	0.178	-0.015
-133.370	17.021	0.131	-0.104
-132.356	33.790	-0.213	-0.185
-131.341	116.389	0.021	0.026
-130.326	-132.494	-0.087	-0.011
-129.312	800.000	0.077	0.243
-128.297	10.537	0.252	0.192
-127.283	-159.603	-0.379	-0.021
-126.268	-173.135	0.183	0.006
-125.253	-6.695	-0.269	0.183
-124.239	65.713	0.063	0.064
-123.224	-118.582	-0.268	0.047
-122.210	-165.452	-0.156	0.007
-121.195	-128.820	-0.253	-0.035
-120.180	-200.000	-0.048	0.333
-119.166	-44.351	0.135	0.067
-118.151	800.000	-0.122	0.523
-117.137	-178.063	-0.240	-0.006
-116.122	-180.063	-0.163	-0.003
-115.107	-67.753	0.126	-0.049
-114.093	517.650	-0.132	-0.308
-113.078	-173.619	0.248	0.007
-112.064	-200.000	-0.011	0.122
-111.049	49.738	0.117	0.110
-110.034	150.457	-0.112	-0.151
-109.020	-12.793	0.313	-0.203
-108.005	-91.196	-0.219	0.063
-106.991	50.422	-0.292	-0.275
-105.976	427.547	-0.036	0.077
-104.962	27.967	-0.343	-0.288
-103.947	-104.183	-0.106	0.025
-102.932	129.927	-0.180	0.229
-101.918	-200.000	0.014	0.152
-100.903	208.277	-0.173	-0.270
-99.889	-144.396	-0.089	-0.008
-98.874	-200.000	-0.052	0.245
-97.859	-112.107	-0.334	-0.067
-96.845	20.421	0.116	0.093
-95.830	-44.127	-0.175	-0.087
-94.816	98.535	-0.074	0.085
-93.801	-99.993	0.628	0.156
-92.786	-200.000	-0.109	0.000
-91.772	-10.888	-0.170	0.112
-90.757	87.075	0.125	-0.137
-89.743	-99.327	0.325	0.082
-88.728	-200.000	0.007	0.103
-87.713	-200.000	0.031	0.309
-86.699	422.835	0.034	-0.072
-85.684	-136.080	-0.256	0.030
-84.670	-200.000	0.050	-0.405
-83.655	350.235	0.094	-0.185
-82.640	-200.000	-0.007	-0.258
-81.626	-8.198	0.181	0.121
-80.611	-107.841	-0.362	-0.079
-79.597	-200.000	0.013	0.171
-78.582	-200.000	-0.054	-0.262
-77.567	800.000	-0.159	-0.456
-76.553	74.849	-0.118	-0.123
-75.538	-45.927	0.124	0.061
-74.524	297.993	-0.018	-0.032
-73.509	282.059	-0.179	-0.319
-72.494	60.845	-0.159	-0.157
-71.480	-122.016	0.213	0.035
-70.465	196.693	-0.086	0.131
-69.451	-26.213	-0.207	0.121
-68.436	-89.745	-0.231	0.067
-67.422	-74.297	-0.220	-0.079
-66.407	243.718	-0.095	-0.159
-65.392	-99.586	-0.168	-0.042
-64.378	-17.468	-0.175	0.109
-63.363	-80.901	0.180	-0.059
-62.349	-200.000	0.014	0.476
-61.334	47.671	-0.806	-0.748
-60.319	140.698	0.395	0.519
-59.305	298.365	-0.215	-0.394
-58.290	800.000	0.353	1.099
-57.276	800.000	0.460	1.265
-56.261	-200.000	91.481	534.388
-55.246	573.241	1389.415	3368.518
-54.232	184.528	2602.748	3835.056
-53.217	119.374	2215.163	2726.282
-52.203	45.493	1743.932	1600.954
-51.188	38.320	1552.356	1374.826
-50.173	35.863	1524.335	1332.966
-49.159	53.427	1572.508	1499.070
-48.144	57.253	1592.275	1544.793
-47.130	38.877	1548.790	1375.356
-46.115	35.617	1533.128	1338.728
-45.100	35.375	1529.805	1334.093
-44.086	35.341	1528.433	1332.608
-43.071	35.251	1526.392	1330.148
-42.057	35.274	1524.629	1328.721
-41.042	35.245	1523.313	1327.315
-40.027	35.283	1521.898	1326.298
-39.013	35.263	1520.188	1324.615
-37.998	35.342	1518.784	1323.881
-36.984	35.292	1517.433	1322.307
-35.969	35.215	1516.803	1321.173
-34.954	35.287	1515.095	1320.131
-33.940	35.278	1513.591	1318.708
-32.925	35.314	1511.917	1317.441
-31.911	35.266	1511.183	1316.420
-30.896	35.356	1509.384	1315.423
-29.881	35.364	1508.140	1314.338
-28.867	35.456	1506.552	1313.534
-27.852	35.406	1505.509	1312.230
-26.838	35.295	1504.085	1310.177
-25.823	35.265	1502.714	1308.727
-24.809	35.390	1500.186	1307.321
-23.794	35.255	1499.581	1305.826
-22.779	35.303	1498.361	1305.041
-21.765	35.478	1496.831	1304.844
-20.750	35.365	1496.121	1303.404
-19.736	35.382	1495.207	1302.672
-18.721	35.394	1493.422	1301.149
-17.706	35.394	1492.543	1300.328
-16.692	35.295	1491.605	1298.789
-15.677	35.236	1491.278	1298.050
-14.663	35.252	1489.633	1296.682
-13.648	35.321	1488.180	1295.829
-12.633	35.288	1487.839	1295.259
-11.619	35.413	1486.651	1295.013
-10.604	35.263	1486.041	1293.417
-9.590	35.281	1485.162	1292.724
-8.575	35.225	1484.236	1291.488
-7.560	35.361	1483.371	1291.602
-6.546	35.290	1482.635	1290.434
-5.531	35.277	1481.260	1289.097
-4.517	35.264	1480.566	1288.355
-3.502	35.244	1479.667	1287.386
-2.487	35.284	1478.544	1286.631
-1.473	35.271	1477.563	1285.637
-0.458	35.339	1476.073	1284.742
0.556	37.563	1467.676	1277.558
1.571	35.546	1442.209	1242.250
2.586	32.089	1378.402	1165.768
3.600	29.667	1292.929	1079.259
4.615	26.766	1243.829	1021.853
5.629	22.104	1184.828	948.199
6.644	13.079	1099.012	834.052
7.659	6.103	1056.712	767.895
8.673	5.034	1050.842	758.364
9.688	4.805	1047.552	754.810
10.702	4.492	1046.186	752.246
11.717	4.921	1044.241	752.852
12.731	8.101	1047.758	770.716
13.746	16.173	1059.398	818.525
14.761	21.725	1065.468	850.161
15.775	21.838	1065.106	850.344
16.790	20.951	1062.889	844.204
17.804	19.913	1060.738	837.403
18.819	19.097	1059.326	832.271
19.834	18.561	1057.991	828.558
20.848	18.293	1057.110	826.500
21.863	18.377	1055.844	825.843
22.877	18.117	1055.711	824.412
23.892	18.032	1054.557	823.028
24.907	17.969	1053.374	821.727
25.921	17.907	1053.107	821.151
26.936	17.848	1052.541	820.353
27.950	17.967	1050.923	819.588
28.965	17.933	1050.148	818.748
29.980	17.995	1048.829	817.947
30.994	18.098	1047.855	817.608
32.009	18.135	1047.438	817.388
33.023	18.214	1046.822	817.209
34.038	18.154	1046.063	816.259
35.053	18.105	1044.875	815.025
36.067	18.034	1043.821	813.792
37.082	17.992	1042.619	812.586
38.096	18.003	1041.915	812.015
39.111	18.016	1041.699	811.837
40.126	18.242	1040.833	812.163
41.140	18.115	1039.386	810.363
42.155	17.901	1037.984	808.182
43.169	17.734	1037.167	806.685
44.184	17.631	1035.858	805.107
45.199	17.493	1034.917	803.657
46.213	17.634	1033.907	803.465
47.228	17.602	1033.235	802.723
48.242	17.899	1032.163	803.214
49.257	17.866	1031.868	802.758
50.271	18.065	1030.110	802.252
51.286	17.936	1029.742	801.290
52.301	18.146	1028.739	801.425
53.315	17.997	1028.132	800.181
54.330	17.978	1027.519	799.549
55.344	17.788	1025.916	797.340
56.359	17.819	1025.085	796.769
57.374	17.739	1024.304	795.719
58.388	17.604	1023.685	794.535
59.403	17.561	1022.875	793.640
60.417	17.548	1021.612	792.528
61.432	17.518	1021.471	792.209
62.447	17.525	1020.622	791.513
63.461	17.468	1019.350	790.192
64.476	17.394	1018.580	789.182
65.490	17.509	1017.439	788.761
66.505	17.368	1016.969	787.671
67.520	17.507	1016.166	787.623
68.534	17.553	1015.445	787.208
69.549	17.598	1014.577	786.673
70.563	17.478	1014.030	785.626
71.578	17.409	1012.959	784.409
72.593	17.444	1012.120	783.852
73.607	17.309	1010.991	782.285
74.622	17.264	1010.171	781.373
75.636	17.265	1009.556	780.834
76.651	17.184	1008.819	779.826
77.666	17.367	1007.917	779.898
78.680	17.254	1007.445	778.943
79.695	17.301	1006.899	778.669
80.709	17.326	1006.496	778.401
81.724	17.566	1005.364	778.555
82.739	17.727	1004.601	778.633
83.753	17.656	1004.069	777.827
84.768	17.853	1003.352	778.101
85.782	17.926	1002.994	778.087
86.797	18.278	1002.164	778.978
87.812	18.302	1001.543	778.534
88.826	18.025	1000.442	776.351
89.841	17.831	999.776	774.884
90.855	17.928	998.811	774.507
91.870	18.065	998.036	774.459
92.884	18.240	996.914	774.310
93.899	18.368	996.194	774.260
94.914	18.133	995.752	772.788
95.928	18.267	995.387	773.042
96.943	18.291	994.374	772.294
97.957	18.162	993.500	770.967
98.972	18.056	992.736	769.826
99.987	18.024	991.796	768.889
101.001	18.101	991.635	769.039
102.016	18.079	990.423	767.932
103.030	18.046	989.426	766.946
104.045	18.170	988.035	766.356
105.060	18.148	987.507	765.778
106.074	18.021	986.514	764.372
107.089	17.824	985.717	762.808
108.103	17.564	984.791	760.863
109.118	17.486	983.399	759.371
110.133	17.346	982.773	758.197
111.147	17.446	981.812	757.834
112.162	17.412	980.754	756.799
113.176	17.501	979.811	756.398
114.191	17.626	979.244	756.451
115.206	17.606	978.514	755.730
116.220	17.560	977.877	754.966
117.235	17.482	977.358	754.154
118.249	17.528	976.239	753.429
119.264	17.443	974.988	752.021
120.279	17.491	974.402	751.711
121.293	17.418	973.835	750.889
122.308	17.445	972.846	750.177
123.322	17.389	971.981	749.198
124.337	17.325	970.626	747.806
125.352	17.302	969.574	746.827
126.366	17.330	968.838	746.319
127.381	17.421	967.621	745.713
128.395	17.191	966.506	743.781
129.410	17.281	966.196	743.870
130.424	17.379	965.044	743.346
131.439	17.434	963.930	742.661
132.454	17.445	963.744	742.502
133.468	17.619	962.526	742.255
134.483	17.632	962.550	742.265
135.497	17.765	961.376	741.869
136.512	17.566	960.809	740.505
137.527	17.707	960.228	740.602
138.541	17.674	959.402	739.756
139.556	17.779	958.562	739.500
140.570	17.693	958.115	738.714
141.585	17.966	956.912	738.903
142.600	17.960	956.575	738.552
143.614	18.149	955.886	738.774
144.629	18.084	955.143	737.851
145.643	18.300	953.965	737.805
146.658	18.114	953.326	736.446
147.673	18.037	952.391	735.329
148.687	17.831	951.518	733.706
149.702	17.670	950.507	732.168
150.716	17.705	949.537	731.505
151.731	17.698	948.697	730.765
152.746	17.614	948.363	730.081
153.760	17.762	947.449	729.946
154.775	17.883	946.845	729.935
155.789	17.894	946.213	729.428
156.804	17.995	945.199	729.016
157.819	17.877	944.526	727.929
158.833	18.085	943.838	728.220
159.848	18.134	942.996	727.714
160.862	18.173	943.066	727.870
161.877	18.184	941.590	726.713
162.892	17.927	940.932	725.049
163.906	17.718	939.990	723.374
164.921	17.640	939.194	722.368
165.935	17.726	938.036	721.776
166.950	17.664	937.195	720.803
167.964	17.754	935.977	720.184
168.979	17.797	935.363	719.827
169.994	17.856	933.656	718.700
171.008	17.577	933.594	717.414
172.023	17.844	932.580	717.692
173.037	17.879	932.153	717.445
174.052	18.150	931.259	717.831
175.067	18.039	930.669	716.852
176.081	17.887	929.532	715.273
177.096	17.820	928.352	714.021
178.110	17.685	927.914	713.059
179.125	17.696	927.302	712.569
180.140	17.865	926.061	712.259
181.154	17.676	925.672	711.106
182.169	17.925	925.105	711.649
183.183	18.136	924.424	711.938
184.198	18.076	924.179	711.437
185.213	18.244	923.290	711.389
186.227	18.122	922.904	710.521
187.242	18.207	922.281	710.332
188.256	18.245	921.596	709.902
189.271	18.374	920.989	709.902
190.286	18.373	920.360	709.350
191.300	18.110	919.067	707.204
192.315	17.674	918.126	704.618
193.329	17.537	917.406	703.434
194.344	17.690	916.676	703.444
195.359	17.798	916.107	703.391
196.373	17.859	915.967	703.475
197.388	18.053	915.603	703.929
198.402	18.185	915.212	704.112
199.417	18.224	915.094	704.117
200.432	18.366	914.485	704.169
201.446	18.499	914.062	704.331
202.461	18.507	913.711	704.029
203.475	18.679	913.107	704.209
204.490	18.753	911.897	703.516
205.504	18.504	911.299	701.974
206.519	18.333	910.423	700.536
207.534	18.254	909.860	699.718
208.548	18.198	909.184	698.907
209.563	18.342	908.433	698.854
210.577	18.368	907.411	698.114
211.592	18.137	907.331	697.050
212.607	18.480	906.622	697.841
213.621	18.479	906.251	697.488
214.636	18.735	904.755	697.317
215.650	18.398	904.847	695.957
216.665	18.538	904.198	695.961
217.680	18.758	903.612	696.341
218.694	18.785	903.047	695.952
219.709	18.794	902.939	695.845
220.723	18.812	901.809	694.986
221.738	18.602	901.019	693.467
222.753	18.572	900.377	692.791
223.767	18.601	899.809	692.410
224.782	18.730	899.193	692.394
225.796	18.757	898.678	692.046
226.811	18.901	897.711	691.820
227.826	18.823	897.376	691.185
228.840	18.741	896.474	690.101
229.855	18.635	895.756	689.060
230.869	18.567	894.897	688.067
231.884	18.460	894.370	687.170
232.899	18.675	893.257	687.117
233.913	18.557	892.936	686.337
234.928	18.399	891.996	684.922
235.942	18.325	891.493	684.178
236.957	18.345	891.202	683.973
237.972	18.283	890.431	683.077
238.986	18.401	889.613	682.858
240.001	18.449	888.989	682.511
241.015	18.535	888.016	682.045
242.030	18.577	887.404	681.681
243.045	18.658	887.178	681.770
244.059	18.610	886.521	681.013
245.074	18.685	885.978	680.831
246.088	18.716	885.232	680.323
247.103	18.806	884.994	680.435
248.117	18.916	884.063	680.094
249.132	18.919	883.984	679.985
250.147	19.201	883.479	680.651
251.161	19.351	882.756	680.627
252.176	19.369	882.428	680.385
253.190	19.427	881.641	679.944
254.205	19.435	881.242	679.609
255.220	19.514	880.913	679.607
256.234	19.345	880.077	678.238
257.249	19.290	879.415	677.452
258.263	19.482	878.637	677.546
259.278	19.478	878.244	677.165
260.293	19.400	877.525	676.245
261.307	19.489	877.080	676.192
262.322	19.433	876.523	675.485
263.336	19.631	875.775	675.623
264.351	19.578	875.269	674.968
265.366	19.642	874.702	674.717
266.380	19.673	874.003	674.239
267.395	19.705	873.149	673.647
268.409	19.608	872.409	672.640
269.424	19.262	872.316	671.160
270.439	19.543	871.383	671.477
271.453	19.433	870.457	670.275
272.468	19.370	869.616	669.325
273.482	19.346	869.048	668.735
274.497	19.395	868.402	668.366
275.512	19.421	867.474	667.693
276.526	19.448	866.717	667.157
277.541	19.150	866.978	666.148
278.555	19.244	866.065	665.751
279.570	19.563	865.526	666.510
280.585	19.771	865.007	666.853
281.599	19.720	864.626	666.304
282.614	19.573	863.748	665.000
283.628	19.502	863.107	664.174
284.643	19.474	862.878	663.833
285.657	19.467	862.165	663.199
286.672	19.555	861.780	663.181
287.687	19.550	861.159	662.628
288.701	19.546	860.587	662.113
289.716	19.539	860.402	661.882
290.730	19.642	859.437	661.480
291.745	19.664	858.594	660.854
292.760	19.602	858.004	660.105
293.774	19.646	857.960	660.181
294.789	19.697	857.748	660.156
295.803	19.857	856.602	659.823
296.818	19.803	855.441	658.667
297.833	19.609	854.886	657.441
298.847	19.712	853.970	657.070
299.862	19.772	853.609	656.962
300.876	19.808	853.240	656.758
301.891	19.899	852.244	656.277
302.906	19.932	852.105	656.238
303.920	19.957	851.716	655.975
304.935	20.096	850.649	655.622
305.949	20.177	850.518	655.766
306.964	20.142	849.884	655.087
307.979	19.914	848.975	653.470
308.993	19.985	848.402	653.237
310.008	20.050	848.097	653.189
311.022	19.993	847.736	652.641
312.037	19.995	846.932	651.971
313.052	19.974	846.437	651.454
314.066	19.965	845.584	650.705
315.081	19.619	845.088	648.965
316.095	19.710	844.496	648.795
317.110	19.576	844.080	647.916
318.125	19.835	843.214	648.165
319.139	19.977	842.434	648.040
320.154	19.885	842.077	647.364
321.168	19.587	842.198	646.284
322.183	19.723	841.221	645.985
323.197	19.889	840.997	646.376
324.212	19.984	839.799	645.752
325.227	19.907	839.830	645.433
326.241	19.833	839.011	644.472
327.256	19.865	838.944	644.479
328.270	19.823	838.332	643.795
329.285	19.810	837.447	643.011
330.300	19.801	837.023	642.598
331.314	19.786	836.045	641.734
332.329	19.782	835.920	641.564
333.343	19.996	835.058	641.639
334.358	19.992	834.881	641.434
335.373	20.137	834.078	641.296
336.387	20.238	833.733	641.348
337.402	20.210	832.757	640.437
338.416	20.242	832.373	640.204
339.431	20.393	832.210	640.577
340.446	20.457	831.664	640.335
341.460	20.530	831.221	640.209
342.475	20.571	830.557	639.788
343.489	20.653	829.799	639.452
344.504	20.602	829.771	639.185
345.519	20.630	829.105	638.720
346.533	20.751	828.747	638.832
347.548	20.612	828.306	637.926
348.562	20.623	827.509	637.293
349.577	20.221	827.039	635.402
350.592	20.236	826.304	634.836
351.606	20.124	825.832	634.008
352.621	20.110	825.464	633.620
353.635	20.152	824.843	633.239
354.650	20.285	824.461	633.374
355.665	20.269	823.986	632.895
356.679	20.387	823.819	633.141
357.694	20.430	823.187	632.757
358.708	20.420	822.653	632.255
359.723	20.478	821.635	631.627
360.738	20.434	821.463	631.278
361.752	20.439	821.100	630.961
362.767	20.445	820.615	630.555
363.781	20.634	820.196	630.863
364.796	20.714	819.560	630.608
365.810	20.886	819.218	630.912
366.825	21.019	819.098	631.246
367.840	20.978	818.591	630.652
368.854	21.035	818.382	630.641
369.869	21.016	817.695	629.987
370.883	20.957	816.943	629.139
371.898	20.767	816.596	628.128
372.913	20.816	815.874	627.697
373.927	20.972	815.085	627.594
374.942	20.867	814.609	626.795
375.956	20.888	813.953	626.311
376.971	21.088	813.053	626.278
377.986	21.027	813.114	626.051
379.000	21.226	812.361	626.130
380.015	21.100	812.039	625.376
381.029	21.104	811.716	625.085
382.044	21.100	811.055	624.508
383.059	21.094	810.147	623.733
384.073	21.033	810.254	623.540
385.088	21.140	809.736	623.470
386.102	20.889	808.778	621.780
387.117	20.809	808.286	621.062
388.132	20.757	807.733	620.396
389.146	20.882	806.896	620.146
390.161	21.003	806.631	620.316
391.175	21.023	806.514	620.240
392.190	21.219	806.271	620.698
393.205	21.265	805.464	620.185
394.219	20.968	805.265	618.921
395.234	20.956	804.693	618.385
396.248	20.867	804.116	617.573
397.263	20.793	803.464	616.755
398.278	20.855	802.846	616.446
399.292	20.650	802.407	615.328
400.307	20.724	801.877	615.128
401.321	20.805	801.562	615.117
402.336	20.854	801.230	614.982
403.350	20.784	801.124	614.601
404.365	20.905	800.596	614.567
405.380	21.186	800.236	615.228
406.394	21.256	800.071	615.293
407.409	21.371	799.347	615.084
408.423	21.476	798.504	614.750
409.438	21.478	798.449	614.662
410.453	21.547	798.158	614.625
411.467	21.677	797.760	614.722
412.482	21.623	797.386	614.187
413.496	21.673	796.758	613.828
414.511	21.642	796.687	613.607
415.526	21.624	796.124	613.057
416.540	21.768	795.504	613.029
417.555	21.554	795.179	611.978
418.569	21.523	794.760	611.491
419.584	21.695	794.246	611.641
420.599	21.632	793.962	611.150
421.613	157.134	1366.874	1787.557
422.628	136.143	1450.378	1787.674
