DTS Sentinel unit serial number:	SN413079Multiplexer serial number:	ORYXHardware model number:	OX4-SRSoftware version number:	ORYX F/W v4.00 Oryx Data Collector v3.7.2.0data status	okinstallation	princeton_trtdifferential loss correction	single-endedforward channel	channel 3reverse channel	N/Adate	2019/09/14time	10:00:35forward acquisition time	60.00reverse acquisition time	0.00gamma	496.2192k internal	0.2313k external	0.2313temperature offset calibration	1.0055default loss term (dB/km)	0.3790temperature slope calibration	1.0000multiplexer offset coefficient	1.0000multiplexer slope coefficient	1.0000fibre end	0.00T internal ref (°C)	33.06T ext. ref 1 (°C)	4.01T ext. ref 2 (°C)	31.70length (m)	temperature (°C)	Stokes	anti-Stokes-747.200	595.454	0.032	0.081
-746.185	-200.000	-0.006	0.094
-745.171	-184.810	0.305	-0.005
-744.156	-200.000	-0.033	-0.155
-743.142	-145.889	-0.314	-0.028
-742.127	800.000	0.046	0.154
-741.112	138.494	-0.139	0.184
-740.098	-200.000	-0.029	0.402
-739.083	-101.751	-0.392	-0.096
-738.069	-200.000	0.019	0.101
-737.054	-96.316	0.153	-0.041
-736.039	-62.427	-0.073	-0.031
-735.025	-170.633	0.216	-0.008
-734.010	-8.761	0.090	0.061
-732.996	47.346	0.188	-0.177
-731.981	-200.000	0.043	-0.360
-730.966	496.393	-0.048	0.112
-729.952	8.940	-0.287	-0.219
-728.937	231.984	-0.124	0.206
-727.923	-200.000	0.012	-0.244
-726.908	6.752	-0.068	-0.051
-725.894	-200.000	0.006	0.126
-724.879	288.761	0.045	0.083
-723.864	-143.191	0.209	0.020
-722.850	-196.389	0.147	0.001
-721.835	113.121	-0.072	-0.088
-720.821	-200.000	-0.021	0.203
-719.806	-2.057	-0.368	0.262
-718.791	-200.000	0.006	-0.034
-717.777	-200.000	0.004	-0.051
-716.762	19.179	-0.213	-0.173
-715.748	217.206	0.058	0.094
-714.733	-200.000	0.004	-0.187
-713.718	163.900	-0.209	0.299
-712.704	141.791	0.031	0.041
-711.689	46.418	0.060	0.056
-710.675	-200.000	0.035	-0.184
-709.660	-4.931	0.370	0.258
-708.645	-141.398	0.074	0.008
-707.631	57.896	-0.064	-0.063
-706.616	800.000	0.125	-0.405
-705.602	-88.023	0.230	-0.070
-704.587	60.840	0.296	-0.297
-703.572	141.223	0.027	0.037
-702.558	325.820	0.236	0.458
-701.543	800.000	-0.006	-0.020
-700.529	-148.357	0.159	-0.013
-699.514	-200.000	-0.000	0.070
-698.499	131.909	-0.064	0.083
-697.485	-83.725	-0.186	0.060
-696.470	57.422	0.205	0.202
-695.456	800.000	0.056	0.172
-694.441	3.596	-0.156	-0.116
-693.426	641.250	-0.093	-0.240
-692.412	-40.148	-0.333	-0.176
-691.397	-200.000	0.010	0.052
-690.383	44.009	-0.088	0.082
-689.368	462.837	0.173	-0.391
-688.354	69.835	0.175	0.183
-687.339	-28.318	0.199	0.116
-686.324	134.596	-0.068	-0.090
-685.310	61.335	0.087	-0.087
-684.295	125.704	0.066	0.084
-683.281	163.620	-0.151	-0.215
-682.266	-99.255	-0.144	0.037
-681.251	-11.819	-0.235	0.156
-680.237	-200.000	-0.011	-0.344
-679.222	-124.683	-0.143	-0.022
-678.208	-127.085	-0.220	-0.033
-677.193	-200.000	0.006	0.075
-676.178	66.135	0.131	0.134
-675.164	160.324	0.055	-0.078
-674.149	379.856	-0.128	0.266
-673.135	800.000	-0.031	-0.124
-672.120	38.938	0.079	-0.071
-671.105	136.797	0.036	-0.048
-670.091	-86.919	-0.133	-0.041
-669.076	800.000	0.047	0.194
-668.062	-73.045	-0.208	0.077
-667.047	-34.171	0.254	-0.141
-666.032	-97.085	-0.099	-0.026
-665.018	14.550	0.144	0.114
-664.003	-22.888	-0.311	-0.190
-662.989	4.296	0.032	0.023
-661.974	-79.714	0.190	-0.065
-660.959	-16.486	0.062	-0.040
-659.945	-136.269	-0.333	0.039
-658.930	800.000	-0.069	-0.261
-657.916	-124.591	-0.270	-0.042
-656.901	-200.000	-0.004	0.052
-655.886	-64.667	-0.150	-0.062
-654.872	116.500	0.056	0.069
-653.857	191.940	0.097	0.147
-652.843	-200.000	-0.037	0.240
-651.828	800.000	0.033	0.130
-650.814	800.000	0.019	-0.076
-649.799	410.863	0.105	-0.225
-648.784	-200.000	-0.012	-0.183
-647.770	737.901	-0.123	0.333
-646.755	-55.884	-0.127	-0.057
-645.741	56.024	0.154	-0.151
-644.726	29.894	0.226	-0.195
-643.711	-133.088	-0.343	0.044
-642.697	800.000	0.042	-0.180
-641.682	286.828	-0.109	0.199
-640.668	-85.542	0.122	-0.038
-639.653	11.306	-0.223	-0.172
-638.638	-142.328	-0.285	0.028
-637.624	-164.079	0.045	-0.002
-636.609	-31.926	0.047	-0.026
-635.595	165.576	0.208	0.297
-634.580	168.682	-0.162	-0.234
-633.565	135.054	0.222	-0.292
-632.551	578.134	-0.047	0.117
-631.536	384.518	-0.173	-0.361
-630.522	-72.707	0.188	0.070
-629.507	-200.000	-0.000	0.342
-628.492	-200.000	0.012	-0.353
-627.478	800.000	-0.098	-0.344
-626.463	-200.000	-0.026	0.194
-625.449	88.425	-0.191	0.214
-624.434	-200.000	0.009	0.412
-623.419	-24.679	0.240	0.144
-622.405	-200.000	-0.012	-0.123
-621.390	-200.000	0.034	-0.178
-620.376	221.351	0.074	0.121
-619.361	72.989	0.094	0.099
-618.346	800.000	0.101	-0.381
-617.332	-200.000	-0.001	-0.338
-616.317	18.694	-0.124	0.100
-615.303	171.646	-0.065	0.095
-614.288	77.455	-0.087	-0.093
-613.273	800.000	0.099	0.333
-612.259	66.790	-0.154	-0.159
-611.244	-77.062	0.102	0.036
-610.230	257.453	-0.079	0.136
-609.215	-69.435	-0.242	0.094
-608.201	-67.279	-0.388	-0.154
-607.186	63.563	-0.175	0.178
-606.171	-200.000	0.005	0.176
-605.157	-200.000	-0.054	0.380
-604.142	281.072	-0.038	-0.068
-603.128	800.000	0.069	-0.235
-602.113	-92.467	-0.175	0.050
-601.098	109.469	-0.203	-0.245
-600.084	-92.562	0.435	0.123
-599.069	800.000	-0.112	-0.335
-598.055	258.685	0.059	-0.103
-597.040	-147.212	0.202	-0.017
-596.025	10.032	-0.312	-0.239
-595.011	-80.571	-0.163	-0.055
-593.996	-200.000	0.006	0.054
-592.982	136.094	-0.072	0.094
-591.967	508.042	0.134	-0.313
-590.952	-6.024	0.079	0.054
-589.938	800.000	0.094	0.274
-588.923	41.911	-0.182	-0.166
-587.909	-200.000	-0.050	0.285
-586.894	800.000	-0.096	0.288
-585.879	-110.062	0.221	-0.047
-584.865	133.714	-0.072	0.094
-583.850	-154.220	0.194	-0.013
-582.836	800.000	0.105	-0.331
-581.821	317.806	-0.174	-0.331
-580.806	259.212	-0.141	0.245
-579.792	13.263	0.031	0.025
-578.777	-200.000	0.003	0.271
-577.763	315.631	0.171	-0.325
-576.748	80.734	0.188	0.204
-575.733	-120.086	-0.345	-0.060
-574.719	-200.000	0.058	-0.301
-573.704	-200.000	0.024	0.166
-572.690	-171.396	-0.239	-0.008
-571.675	-78.520	0.454	0.157
-570.661	265.979	0.095	-0.167
-569.646	93.027	-0.121	-0.138
-568.631	599.842	0.044	-0.111
-567.617	28.114	0.042	0.036
-566.602	-43.138	-0.246	-0.126
-565.588	-134.792	-0.167	0.020
-564.573	-75.985	0.061	0.022
-563.558	-200.000	-0.004	0.280
-562.544	257.644	-0.191	0.331
-561.529	670.077	-0.079	-0.206
-560.515	-50.656	-0.202	-0.096
-559.500	-200.000	-0.028	-0.320
-558.485	-200.000	-0.010	-0.236
-557.471	-128.346	0.057	0.008
-556.456	-200.000	-0.017	-0.462
-555.442	-139.515	0.259	-0.028
-554.427	-20.145	0.125	0.077
-553.412	-200.000	-0.016	-0.225
-552.398	-112.294	-0.066	-0.013
-551.383	7.640	-0.369	-0.278
-550.369	129.129	0.045	0.058
-549.354	800.000	0.034	-0.147
-548.339	-200.000	0.049	0.236
-547.325	250.670	-0.229	-0.392
-546.310	-200.000	0.004	0.245
-545.296	283.307	-0.049	-0.088
-544.281	800.000	0.030	-0.093
-543.266	-79.064	0.371	-0.127
-542.252	-200.000	-0.005	-0.098
-541.237	-98.743	-0.170	0.044
-540.223	691.101	-0.094	-0.248
-539.208	103.142	0.133	-0.157
-538.193	-129.371	0.168	0.023
-537.179	-155.049	0.236	0.016
-536.164	-140.691	-0.458	0.048
-535.150	51.087	0.067	-0.064
-534.135	-60.649	-0.304	-0.130
-533.121	-126.573	-0.235	0.035
-532.106	800.000	0.022	0.062
-531.091	-109.417	0.276	-0.059
-530.077	-115.146	-0.135	0.026
-529.062	108.761	0.247	0.297
-528.048	-200.000	-0.014	-0.429
-527.033	-38.884	0.143	0.076
-526.018	-200.000	0.002	0.128
-525.004	-26.159	-0.322	0.190
-523.989	281.196	0.198	0.357
-522.975	800.000	-0.106	-0.449
-521.960	480.414	-0.095	0.217
-520.945	-127.530	-0.222	0.032
-519.931	-41.361	0.149	-0.077
-518.916	-6.719	0.130	-0.089
-517.902	18.506	0.195	0.157
-516.887	-63.579	-0.357	-0.147
-515.872	-98.253	-0.255	0.066
-514.858	-200.000	0.303	0.000
-513.843	-95.260	-0.220	0.060
-512.829	-189.786	0.388	-0.004
-511.814	23.066	0.122	0.101
-510.799	30.092	-0.174	-0.149
-509.785	-178.216	0.271	-0.006
-508.770	169.368	0.101	0.144
-507.756	208.801	-0.122	-0.192
-506.741	-200.000	0.125	-0.556
-505.726	-200.000	0.022	-0.134
-504.712	96.344	0.080	0.092
-503.697	-5.658	-0.163	-0.112
-502.683	-200.000	-0.012	0.130
-501.668	800.000	-0.070	-0.211
-500.653	218.907	-0.206	-0.331
-499.639	-200.000	0.005	-0.200
-498.624	-90.849	-0.149	-0.043
-497.610	800.000	0.036	0.145
-496.595	-200.000	0.007	-0.107
-495.581	37.339	0.191	-0.170
-494.566	144.238	-0.091	-0.122
-493.551	139.742	-0.038	-0.051
-492.537	-200.000	0.033	-0.358
-491.522	-104.079	0.086	-0.020
-490.508	-200.000	-0.001	0.031
-489.493	186.753	-0.058	-0.087
-488.478	800.000	-0.027	-0.099
-487.464	-112.748	0.332	-0.066
-486.449	-42.983	-0.106	0.054
-485.435	130.488	0.021	0.026
-484.420	30.247	0.167	0.143
-483.405	-73.981	-0.184	-0.067
-482.391	-99.150	0.139	0.035
-481.376	148.611	-0.037	-0.050
-480.362	-200.000	0.030	0.185
-479.347	348.740	0.097	0.192
-478.332	62.970	-0.222	0.223
-477.318	28.926	0.145	0.123
-476.303	-168.074	0.414	0.016
-475.289	292.676	-0.140	0.257
-474.274	800.000	-0.073	-0.207
-473.259	149.559	0.156	0.211
-472.245	12.606	0.135	0.104
-471.230	443.033	0.050	0.110
-470.216	787.451	-0.036	-0.098
-469.201	2.360	0.113	-0.082
-468.186	778.487	-0.016	-0.043
-467.172	132.565	-0.047	0.061
-466.157	68.729	0.138	0.142
-465.143	800.000	0.038	-0.114
-464.128	-41.291	0.073	0.038
-463.113	-200.000	-0.005	0.081
-462.099	-116.940	0.396	0.073
-461.084	411.179	-0.099	0.212
-460.070	-89.023	-0.311	-0.092
-459.055	39.136	-0.079	0.071
-458.040	-28.259	0.140	-0.081
-457.026	50.455	-0.094	-0.089
-456.011	47.838	-0.105	-0.098
-454.997	800.000	-0.024	-0.074
-453.982	-94.054	-0.373	-0.103
-452.968	-119.887	0.280	0.048
-451.953	-3.351	-0.181	0.126
-450.938	342.583	0.162	0.318
-449.924	-69.489	0.059	-0.023
-448.909	800.000	0.081	-0.278
-447.895	-3.224	0.039	0.027
-446.880	21.230	-0.200	-0.162
-445.865	489.207	0.056	0.129
-444.851	-171.165	-0.202	-0.007
-443.836	95.671	0.079	0.090
-442.822	456.898	-0.057	-0.127
-441.807	800.000	-0.036	0.144
-440.792	89.369	-0.028	0.031
-439.778	34.609	0.189	0.166
-438.763	-19.861	-0.453	0.280
-437.749	-200.000	0.005	-0.293
-436.734	-117.327	-0.267	0.049
-435.719	-120.492	0.182	-0.031
-434.705	26.784	-0.232	0.195
-433.690	399.155	0.147	-0.308
-432.676	-73.921	-0.503	0.183
-431.661	-118.451	-0.244	0.043
-430.646	-28.575	0.178	0.103
-429.632	69.367	-0.111	-0.114
-428.617	101.802	0.089	0.105
-427.603	-62.504	-0.144	-0.060
-426.588	800.000	-0.106	0.346
-425.573	1.466	0.332	0.239
-424.559	800.000	0.104	0.357
-423.544	292.816	-0.175	0.319
-422.530	-44.860	0.215	-0.108
-421.515	-55.017	0.086	0.039
-420.500	800.000	0.089	-0.306
-419.486	82.356	-0.086	-0.094
-418.471	-53.288	0.184	-0.085
-417.457	-200.000	0.012	0.309
-416.442	112.411	0.135	-0.163
-415.428	-72.080	0.055	-0.021
-414.413	-136.073	0.067	-0.008
-413.398	205.852	0.074	0.115
-412.384	100.831	-0.279	0.325
-411.369	285.150	-0.179	-0.323
-410.355	-200.000	-0.042	-0.354
-409.340	-119.142	-0.230	-0.040
-408.325	-200.000	-0.020	0.286
-407.311	-143.131	-0.426	-0.041
-406.296	131.062	-0.210	-0.269
-405.282	362.966	0.116	0.234
-404.267	-100.220	-0.231	0.058
-403.252	-41.956	-0.234	-0.120
-402.238	185.225	0.244	-0.362
-401.223	-46.285	0.110	-0.054
-400.209	-200.000	0.046	0.319
-399.194	-135.391	0.104	0.012
-398.179	-17.634	0.187	-0.118
-397.165	264.295	-0.097	0.169
-396.150	-132.332	-0.083	0.011
-395.136	-200.000	0.012	0.341
-394.121	-101.026	0.070	-0.017
-393.106	321.664	0.025	-0.047
-392.092	800.000	-0.070	0.246
-391.077	-200.000	0.053	-0.262
-390.063	140.823	-0.060	0.079
-389.048	-200.000	-0.033	-0.402
-388.033	41.449	0.094	-0.085
-387.019	130.098	0.155	-0.199
-386.004	-85.819	-0.187	0.058
-384.990	180.569	-0.219	-0.322
-383.975	113.207	0.178	-0.216
-382.960	-187.716	-0.112	-0.001
-381.946	-115.214	-0.068	0.013
-380.931	170.750	-0.207	0.297
-379.917	-31.417	-0.091	0.051
-378.902	-76.158	-0.119	-0.042
-377.888	167.765	0.073	0.104
-376.873	549.344	-0.031	0.074
-375.858	-200.000	-0.008	-0.162
-374.844	174.649	0.219	-0.316
-373.829	10.989	0.092	0.070
-372.815	800.000	-0.045	0.163
-371.800	-11.614	0.101	0.066
-370.785	162.056	-0.110	0.154
-369.771	344.585	-0.110	-0.216
-368.756	-66.113	0.355	0.141
-367.742	-156.075	0.312	0.020
-366.727	-176.975	-0.283	-0.007
-365.712	-68.508	0.061	-0.024
-364.698	499.243	-0.078	0.179
-363.683	-177.704	-0.210	-0.005
-362.669	139.116	0.181	0.238
-361.654	469.944	-0.126	0.284
-360.639	-180.761	-0.074	0.002
-359.625	1.562	-0.441	-0.317
-358.610	-200.000	-0.012	-0.195
-357.596	800.000	0.040	-0.122
-356.581	182.574	0.307	0.452
-355.566	229.957	0.126	0.206
-354.552	-60.868	-0.277	-0.117
-353.537	-200.000	0.014	0.092
-352.523	-70.608	-0.305	0.115
-351.508	5.680	-0.368	-0.271
-350.493	8.477	-0.233	0.175
-349.479	-33.332	0.208	0.115
-348.464	-200.000	0.026	-0.197
-347.450	800.000	-0.041	-0.151
-346.435	56.706	0.376	0.365
-345.420	166.696	-0.075	-0.107
-344.406	800.000	-0.033	0.114
-343.391	128.563	-0.018	-0.022
-342.377	205.007	0.074	-0.114
-341.362	-145.143	0.377	-0.034
-340.348	-200.000	0.036	-0.188
-339.333	167.031	0.127	-0.181
-338.318	26.984	0.125	0.105
-337.304	654.094	0.047	-0.121
-336.289	-194.304	-0.296	0.002
-335.275	-79.089	0.232	0.079
-334.260	-76.626	-0.081	0.029
-333.245	54.986	0.068	0.065
-332.231	317.961	-0.207	-0.391
-331.216	-93.687	0.174	0.048
-330.202	163.746	-0.170	0.239
-329.187	800.000	0.067	-0.251
-328.172	-200.000	0.033	0.378
-327.158	260.469	0.101	-0.175
-326.143	23.179	-0.159	-0.131
-325.129	-199.624	0.120	-0.001
-324.114	102.737	-0.053	0.061
-323.099	-116.416	-0.284	-0.052
-322.085	-200.000	0.082	0.360
-321.070	-200.000	0.007	0.177
-320.056	-200.000	0.000	-0.320
-319.041	113.450	0.191	-0.231
-318.026	-200.000	-0.038	-0.459
-317.012	800.000	0.070	0.256
-315.997	-31.607	-0.134	0.075
-314.983	65.565	0.148	-0.149
-313.968	-37.994	-0.514	-0.272
-312.953	800.000	-0.061	-0.248
-311.939	-4.539	0.156	0.108
-310.924	-10.156	0.123	0.082
-309.910	-200.000	-0.065	-0.000
-308.895	-118.109	-0.135	-0.024
-307.880	-72.467	0.347	-0.128
-306.866	578.053	-0.069	0.168
-305.851	-118.410	-0.070	-0.012
-304.837	398.097	0.085	0.178
-303.822	-65.564	-0.074	0.030
-302.807	23.943	-0.122	0.100
-301.793	-200.000	0.025	0.156
-300.778	-41.720	-0.319	0.163
-299.764	800.000	0.068	-0.234
-298.749	7.723	0.202	0.151
-297.735	-94.838	0.125	-0.034
-296.720	10.963	-0.090	0.068
-295.705	-129.699	-0.011	0.002
-294.691	-27.597	0.320	0.185
-293.676	106.847	0.121	0.143
-292.662	6.825	0.188	0.140
-291.647	-104.231	0.221	-0.051
-290.632	262.896	-0.068	0.118
-289.618	-163.200	0.201	-0.010
-288.603	800.000	0.036	-0.121
-287.589	-6.840	0.154	0.104
-286.574	-6.750	-0.204	0.138
-285.559	-28.036	0.134	-0.077
-284.545	-135.967	0.238	0.028
-283.530	35.640	-0.233	-0.204
-282.516	333.065	-0.088	-0.170
-281.501	623.201	0.077	-0.192
-280.486	-200.000	-0.050	-0.640
-279.472	539.054	-0.109	0.258
-278.457	800.000	0.066	-0.221
-277.443	800.000	0.061	0.228
-276.428	-21.910	0.236	-0.143
-275.413	347.440	-0.035	0.069
-274.399	-98.487	0.191	0.049
-273.384	507.892	0.031	0.072
-272.370	36.538	-0.135	-0.118
-271.355	-200.000	0.037	0.354
-270.340	80.413	-0.095	-0.102
-269.326	316.772	0.055	-0.103
-268.311	-134.636	0.202	-0.025
-267.297	240.452	0.159	0.263
-266.282	36.653	0.055	-0.049
-265.267	-200.000	-0.020	0.158
-264.253	-31.043	-0.130	-0.073
-263.238	-98.168	0.107	0.027
-262.224	46.081	-0.039	-0.036
-261.209	-25.441	0.061	-0.036
-260.195	616.996	-0.148	-0.371
-259.180	242.979	-0.043	-0.071
-258.165	-124.380	0.191	-0.030
-257.151	93.723	0.158	-0.178
-256.136	-131.886	-0.064	-0.008
-255.122	112.636	-0.079	-0.095
-254.107	800.000	-0.041	-0.167
-253.092	-105.469	0.188	0.042
-252.078	594.759	0.045	0.110
-251.063	-183.820	-0.124	0.002
-250.049	-113.433	-0.123	0.024
-249.034	800.000	-0.100	0.293
-248.019	-54.783	-0.119	-0.054
-247.005	-17.130	-0.130	0.082
-245.990	-181.127	0.209	0.004
-244.976	-104.750	0.139	-0.032
-243.961	15.992	0.244	0.191
-242.946	55.565	0.175	0.169
-241.932	-73.904	0.205	0.074
-240.917	391.812	-0.020	0.041
-239.903	62.125	0.075	-0.075
-238.888	161.797	-0.101	0.141
-237.873	123.570	-0.067	0.084
-236.859	-138.457	-0.366	-0.040
-235.844	-130.772	0.180	-0.024
-234.830	186.354	0.081	0.120
-233.815	614.955	-0.180	-0.449
-232.800	-73.102	-0.233	0.085
-231.786	-200.000	0.053	-0.282
-230.771	-84.143	0.129	-0.041
-229.757	-107.522	0.295	0.064
-228.742	-51.174	-0.127	0.059
-227.727	413.727	0.138	-0.291
-226.713	-112.279	0.117	0.023
-225.698	-200.000	-0.023	-0.533
-224.684	-146.328	0.397	-0.035
-223.669	131.823	-0.076	0.097
-222.655	4.601	0.289	-0.211
-221.640	-200.000	-0.079	0.496
-220.625	-96.661	0.234	-0.061
-219.611	-187.779	-0.127	-0.002
-218.596	-84.701	-0.252	0.079
-217.582	-46.702	0.225	0.110
-216.567	-131.726	-0.081	0.011
-215.552	132.075	-0.159	0.203
-214.538	566.687	0.041	0.099
-213.523	-200.000	-0.012	0.353
-212.509	-77.668	-0.281	0.097
-211.494	-25.329	0.160	-0.094
-210.479	98.881	-0.206	0.236
-209.465	-157.915	0.266	-0.016
-208.450	-130.743	-0.388	-0.052
-207.436	753.359	-0.020	0.055
-206.421	43.076	0.268	-0.243
-205.406	-48.210	0.215	-0.103
-204.392	-105.506	-0.264	0.060
-203.377	-6.652	-0.084	0.057
-202.363	-34.650	0.116	0.063
-201.348	800.000	-0.171	0.630
-200.333	-200.000	0.025	-0.201
-199.319	-119.559	0.296	-0.051
-198.304	-19.672	0.220	-0.135
-197.290	800.000	-0.043	0.165
-196.275	60.014	0.222	0.218
-195.260	5.766	-0.331	-0.243
-194.246	-76.514	-0.419	0.146
-193.231	800.000	0.067	0.284
-192.217	800.000	0.031	-0.090
-191.202	-83.627	-0.188	0.060
-190.187	800.000	0.098	0.286
-189.173	-200.000	0.053	-0.261
-188.158	-200.000	-0.009	-0.217
-187.144	131.951	0.071	-0.090
-186.129	-22.395	-0.423	-0.254
-185.114	-200.000	-0.054	-0.295
-184.100	-119.187	0.208	0.036
-183.085	7.376	-0.231	0.171
-182.071	16.666	0.138	0.108
-181.056	-200.000	0.056	-0.308
-180.042	-169.071	-0.104	-0.004
-179.027	294.369	0.008	0.014
-178.012	800.000	0.034	-0.107
-176.998	-150.604	0.308	-0.023
-175.983	-179.576	0.294	-0.006
-174.969	-200.000	-0.024	0.183
-173.954	-200.000	0.016	0.399
-172.939	-200.000	-0.021	-0.158
-171.925	-200.000	-0.018	0.283
-170.910	-71.159	0.187	-0.070
-169.896	-200.000	0.050	0.370
-168.881	-122.185	0.210	-0.034
-167.866	29.504	0.103	0.087
-166.852	-93.462	-0.137	0.038
-165.837	800.000	0.091	0.298
-164.823	14.286	-0.103	0.079
-163.808	-69.163	0.454	0.173
-162.793	566.011	0.179	0.431
-161.779	403.785	-0.109	0.227
-160.764	132.541	0.107	0.137
-159.750	-200.000	0.039	0.201
-158.735	585.255	-0.062	0.150
-157.720	-128.161	-0.372	-0.053
-156.706	-59.711	0.285	-0.121
-155.691	-200.000	-0.071	-0.337
-154.677	74.808	-0.126	0.132
-153.662	179.874	0.095	0.139
-152.647	189.490	-0.272	0.404
-151.633	119.043	0.267	0.327
-150.618	800.000	0.060	0.236
-149.604	20.293	-0.131	-0.105
-148.589	42.944	0.212	0.191
-147.574	794.500	-0.041	0.111
-146.560	-48.358	-0.266	-0.127
-145.545	-40.513	0.172	-0.088
-144.531	-200.000	0.037	-0.250
-143.516	-46.713	-0.190	-0.092
-142.502	-0.869	0.281	0.197
-141.487	393.853	-0.085	0.175
-140.472	249.933	-0.067	0.113
-139.458	620.210	-0.074	-0.185
-138.443	282.923	-0.147	0.261
-137.429	465.924	-0.018	0.041
-136.414	-43.218	0.152	-0.076
-135.399	-118.293	-0.105	0.018
-134.385	112.095	0.203	-0.244
-133.370	109.107	0.130	-0.155
-132.356	-69.822	-0.148	0.056
-131.341	-200.000	0.073	0.414
-130.326	191.323	0.166	-0.247
-129.312	-79.793	0.385	0.128
-128.297	-130.502	0.335	-0.045
-127.283	57.109	-0.197	0.190
-126.268	-11.833	-0.233	-0.151
-125.253	245.769	-0.050	-0.083
-124.239	87.634	0.146	0.160
-123.224	-109.748	0.229	-0.048
-122.210	-200.000	-0.052	-0.332
-121.195	-150.232	0.380	0.029
-120.180	266.645	-0.111	-0.192
-119.166	19.244	-0.144	0.115
-118.151	17.834	0.304	-0.239
-117.137	31.692	-0.177	0.150
-116.122	-135.011	-0.323	0.039
-115.107	33.417	-0.385	0.331
-114.093	-150.850	-0.176	0.013
-113.078	-78.231	0.354	0.120
-112.064	-35.048	0.175	-0.094
-111.049	154.611	-0.073	0.099
-110.034	-42.372	0.187	0.095
-109.020	-2.672	-0.178	0.123
-108.005	209.418	-0.143	-0.221
-106.991	668.463	0.230	-0.590
-105.976	-200.000	-0.034	0.248
-104.962	800.000	0.054	-0.187
-103.947	-92.611	-0.276	0.077
-102.932	110.539	0.131	-0.155
-101.918	-59.752	0.212	-0.090
-100.903	28.823	0.219	0.183
-99.889	-181.176	-0.233	0.005
-98.874	-109.427	-0.109	0.023
-97.859	35.393	0.155	-0.135
-96.845	-40.155	0.169	-0.087
-95.830	-200.000	-0.034	0.238
-94.816	-200.000	0.011	-0.210
-93.801	-6.040	0.232	0.157
-92.786	800.000	-0.057	0.179
-91.772	800.000	-0.056	0.189
-90.757	-27.969	0.295	0.169
-89.743	45.755	-0.257	0.235
-88.728	-45.063	0.369	0.181
-87.713	-19.628	-0.063	-0.039
-86.699	54.990	0.215	0.205
-85.684	-200.000	-0.029	0.234
-84.670	9.851	-0.169	0.127
-83.655	-118.046	0.194	-0.034
-82.640	170.557	0.194	0.275
-81.626	-200.000	0.065	0.382
-80.611	-200.000	0.062	0.469
-79.597	-200.000	0.036	0.604
-78.582	128.128	0.047	0.059
-77.567	-6.273	-0.218	-0.147
-76.553	105.197	0.159	-0.186
-75.538	-58.591	0.139	-0.060
-74.524	800.000	0.063	0.175
-73.509	-87.225	-0.462	0.139
-72.494	77.182	-0.285	0.300
-71.480	-200.000	0.018	-0.127
-70.465	-114.670	-0.030	0.006
-69.451	-200.000	-0.042	-0.259
-68.436	-200.000	0.011	-0.233
-67.422	20.813	-0.309	0.247
-66.407	-200.000	0.015	-0.121
-65.392	-110.252	0.047	0.010
-64.378	-200.000	-0.018	0.196
-63.363	-124.567	0.042	-0.006
-62.349	300.523	0.082	0.150
-61.334	49.769	-0.841	-0.783
-60.319	-200.000	-0.017	0.435
-59.305	-200.000	0.000	-0.977
-58.290	220.971	0.550	0.872
-57.276	-200.000	0.389	1.688
-56.261	-200.000	98.264	594.333
-55.246	606.394	1439.408	3542.528
-54.232	179.196	2656.539	3837.340
-53.217	118.615	2226.427	2714.150
-52.203	43.621	1750.700	1581.214
-51.188	36.123	1561.450	1357.674
-50.173	33.664	1534.607	1317.233
-49.159	53.736	1585.814	1503.248
-48.144	56.010	1604.446	1536.882
-47.130	36.579	1559.796	1359.223
-46.115	33.261	1544.236	1322.470
-45.100	33.100	1540.865	1318.406
-44.086	33.146	1538.893	1316.992
-43.071	33.047	1536.873	1314.521
-42.057	33.048	1535.123	1312.976
-41.042	33.085	1533.562	1311.849
-40.027	33.084	1532.272	1310.684
-39.013	33.071	1530.919	1309.388
-37.998	33.001	1529.665	1307.775
-36.984	33.041	1529.049	1307.478
-35.969	33.050	1527.317	1306.001
-34.954	33.057	1525.410	1304.368
-33.940	33.090	1523.853	1303.216
-32.925	33.082	1522.643	1302.073
-31.911	33.145	1521.514	1301.490
-30.896	33.141	1520.296	1300.368
-29.881	33.201	1518.614	1299.290
-28.867	33.169	1517.440	1298.017
-27.852	33.162	1516.233	1296.885
-26.838	33.079	1514.438	1294.725
-25.823	33.142	1512.879	1293.772
-24.809	33.089	1511.471	1292.159
-23.794	33.070	1510.222	1290.910
-22.779	33.107	1508.391	1289.543
-21.765	33.128	1507.003	1288.447
-20.750	33.124	1506.916	1288.298
-19.736	33.158	1505.017	1286.854
-18.721	32.989	1505.081	1285.708
-17.706	32.975	1503.197	1283.953
-16.692	32.995	1502.151	1283.143
-15.677	33.071	1501.000	1282.621
-14.663	33.108	1500.392	1282.303
-13.648	33.025	1499.351	1280.801
-12.633	32.932	1499.079	1279.889
-11.619	33.088	1497.287	1279.364
-10.604	33.014	1496.711	1278.322
-9.590	32.975	1495.623	1277.072
-8.575	33.046	1494.265	1276.343
-7.560	33.023	1494.185	1276.073
-6.546	33.020	1493.248	1275.200
-5.531	32.981	1492.132	1273.934
-4.517	32.997	1491.136	1273.142
-3.502	32.939	1490.335	1272.014
-2.487	33.011	1488.943	1271.258
-1.473	33.013	1487.673	1270.138
-0.458	33.098	1486.500	1269.658
0.556	33.674	1478.174	1261.413
1.571	31.676	1452.578	1226.391
2.586	28.773	1391.975	1156.872
3.600	27.191	1309.219	1078.621
4.615	25.232	1261.671	1028.143
5.629	21.058	1202.701	957.150
6.644	11.925	1114.396	840.145
7.659	5.037	1071.734	773.832
8.673	4.020	1066.467	764.939
9.688	4.038	1063.333	762.712
10.702	4.006	1061.945	761.492
11.717	3.955	1060.588	760.202
12.731	6.670	1063.221	775.374
13.746	15.095	1075.378	825.888
14.761	20.515	1081.845	857.604
15.775	20.060	1079.850	853.704
16.790	19.074	1078.147	847.432
17.804	18.137	1075.638	840.779
18.819	17.197	1073.685	834.561
19.834	16.739	1072.295	831.159
20.848	16.499	1071.332	829.162
21.863	16.350	1070.639	827.820
22.877	16.180	1069.944	826.378
23.892	15.983	1069.151	824.728
24.907	15.827	1068.423	823.333
25.921	15.770	1067.711	822.432
26.936	15.767	1067.288	822.017
27.950	15.982	1065.794	821.842
28.965	15.922	1064.769	820.690
29.980	15.939	1063.827	819.970
30.994	16.031	1062.475	819.305
32.009	16.204	1061.544	819.356
33.023	16.189	1061.301	819.024
34.038	16.140	1060.376	817.998
35.053	16.075	1059.154	816.666
36.067	16.083	1057.870	815.642
37.082	16.018	1057.214	814.751
38.096	15.984	1056.746	814.154
39.111	16.004	1055.888	813.520
40.126	16.133	1055.160	813.508
41.140	15.985	1053.957	811.794
42.155	15.760	1052.837	809.778
43.169	15.569	1051.795	807.985
44.184	15.575	1050.451	806.910
45.199	15.751	1049.081	806.632
46.213	15.721	1048.289	805.809
47.228	15.787	1047.193	805.211
48.242	15.836	1046.443	804.795
49.257	15.937	1045.926	804.812
50.271	15.933	1045.115	804.097
51.286	15.941	1043.781	803.037
52.301	15.958	1043.056	802.491
53.315	15.918	1042.735	801.980
54.330	15.887	1041.315	800.669
55.344	15.819	1040.899	799.955
56.359	15.753	1039.658	798.619
57.374	15.798	1038.988	798.244
58.388	15.715	1038.203	797.178
59.403	15.652	1037.090	795.955
60.417	15.716	1036.594	795.806
61.432	15.569	1036.189	794.728
62.447	15.640	1034.931	794.032
63.461	15.574	1034.184	793.073
64.476	15.567	1033.206	792.222
65.490	15.536	1032.339	791.340
66.505	15.513	1031.533	790.545
67.520	15.571	1030.531	789.979
68.534	15.557	1030.027	789.460
69.549	15.684	1029.103	789.275
70.563	15.598	1028.573	788.397
71.578	15.617	1027.819	787.839
72.593	15.441	1026.801	786.162
73.607	15.366	1025.478	784.730
74.622	15.402	1024.939	784.416
75.636	15.477	1023.814	783.837
76.651	15.484	1023.516	783.570
77.666	15.482	1022.769	782.920
78.680	15.494	1021.938	782.272
79.695	15.441	1021.682	781.760
80.709	15.510	1021.023	781.505
81.724	15.670	1019.969	781.374
82.739	15.735	1019.018	780.879
83.753	15.705	1018.945	780.615
84.768	15.807	1017.697	780.063
85.782	15.915	1017.456	780.310
86.797	16.205	1015.662	780.204
87.812	16.204	1015.396	779.926
88.826	15.971	1014.498	778.095
89.841	15.929	1013.631	777.165
90.855	16.142	1012.328	777.080
91.870	15.980	1012.042	776.043
92.884	16.030	1011.486	775.779
93.899	16.058	1011.049	775.506
94.914	16.068	1010.201	774.834
95.928	16.075	1009.580	774.319
96.943	16.343	1008.127	774.365
97.957	16.161	1007.752	773.173
98.972	16.055	1006.881	771.954
99.987	16.014	1006.236	771.200
101.001	16.080	1005.697	771.022
102.016	16.007	1004.870	769.985
103.030	16.031	1003.669	769.107
104.045	16.104	1002.277	768.307
105.060	16.162	1001.690	768.052
106.074	16.109	1000.383	766.740
107.089	15.860	999.388	764.779
108.103	15.637	999.056	763.445
109.118	15.641	997.660	762.329
110.133	15.556	997.184	761.511
111.147	15.575	996.393	760.925
112.162	15.632	995.158	760.172
113.176	15.576	994.911	759.666
114.191	15.666	993.615	759.016
115.206	15.758	992.846	758.773
116.220	15.707	991.972	757.810
117.235	15.698	991.517	757.354
118.249	15.697	990.488	756.497
119.264	15.610	989.477	755.266
120.279	15.595	988.111	754.089
121.293	15.640	987.722	753.928
122.308	15.703	986.590	753.280
123.322	15.665	986.032	752.617
124.337	15.586	984.749	751.218
125.352	15.390	983.927	749.648
126.366	15.426	982.574	748.713
127.381	15.420	981.791	748.024
128.395	15.476	980.991	747.597
129.410	15.651	979.411	747.104
130.424	15.513	978.882	746.021
131.439	15.720	977.650	745.936
132.454	15.624	977.102	745.026
133.468	15.701	976.450	744.804
134.483	15.838	976.089	745.068
135.497	15.830	974.949	744.097
136.512	15.780	974.016	743.099
137.527	15.750	973.642	742.613
138.541	15.796	972.702	742.036
139.556	15.794	972.244	741.613
140.570	15.808	971.150	740.775
141.585	15.937	970.711	740.941
142.600	16.094	969.947	740.981
143.614	16.030	969.520	740.310
144.629	16.028	968.372	739.359
145.643	16.087	967.709	739.045
146.658	16.095	966.905	738.402
147.673	15.950	965.847	736.892
148.687	15.913	965.062	736.065
149.702	15.866	964.061	735.034
150.716	15.775	963.318	734.006
151.731	15.767	962.478	733.267
152.746	15.733	961.525	732.324
153.760	15.787	960.824	731.961
154.775	15.859	960.362	731.858
155.789	15.820	959.444	730.922
156.804	15.979	958.826	731.080
157.819	15.961	958.259	730.504
158.833	16.094	957.244	730.242
159.848	16.028	956.878	729.614
160.862	16.277	955.662	729.699
161.877	16.288	954.697	728.944
162.892	15.973	954.154	727.106
163.906	15.937	953.361	726.280
164.921	15.907	952.148	725.162
165.935	16.001	951.077	724.688
166.950	16.005	950.253	724.013
167.964	15.989	949.812	723.546
168.979	16.004	948.723	722.715
169.994	15.980	947.342	721.498
171.008	16.038	946.206	720.815
172.023	16.050	946.052	720.683
173.037	16.056	945.388	720.141
174.052	16.231	944.375	720.053
175.067	16.205	943.790	719.432
176.081	16.141	942.910	718.423
177.096	15.926	942.151	716.867
178.110	15.935	941.259	716.167
179.125	15.877	940.727	715.449
180.140	15.910	939.846	714.856
181.154	15.910	939.050	714.186
182.169	16.072	938.438	714.345
183.183	16.159	937.835	714.193
184.198	16.288	937.436	714.370
185.213	16.343	936.310	713.682
186.227	16.368	935.990	713.480
187.242	16.279	935.560	712.715
188.256	16.274	934.917	712.139
189.271	16.457	934.111	712.234
190.286	16.453	933.248	711.495
191.300	16.174	932.712	709.851
192.315	16.059	931.555	708.425
193.329	16.010	930.594	707.424
194.344	15.978	930.073	706.834
195.359	15.894	929.826	706.231
196.373	16.071	929.236	706.462
197.388	16.382	928.527	707.161
198.402	16.313	928.108	706.492
199.417	16.444	928.118	706.983
200.432	16.564	927.482	706.938
201.446	16.656	927.133	706.995
202.461	16.685	926.555	706.610
203.475	16.779	926.019	706.532
204.490	16.686	925.192	705.453
205.504	16.634	924.010	704.272
206.519	16.479	923.555	703.219
207.534	16.435	922.636	702.274
208.548	16.413	921.918	701.571
209.563	16.388	921.661	701.212
210.577	16.438	920.601	700.551
211.592	16.497	920.141	700.383
212.607	16.622	920.006	700.737
213.621	16.743	919.049	700.446
214.636	16.687	918.290	699.573
215.650	16.729	917.497	699.082
216.665	16.750	916.823	698.592
217.680	16.619	916.665	697.869
218.694	16.808	916.336	698.336
219.709	16.864	915.776	698.076
220.723	16.854	915.490	697.758
221.738	16.806	914.369	696.643
222.753	16.813	913.513	695.959
223.767	16.836	912.502	695.220
224.782	16.947	911.594	694.924
225.796	16.875	911.087	694.182
226.811	16.948	910.744	694.157
227.826	16.884	909.802	693.114
228.840	16.820	909.138	692.288
229.855	16.751	908.799	691.687
230.869	16.758	907.701	690.815
231.884	16.777	907.068	690.352
232.899	16.769	906.732	690.003
233.913	16.628	906.069	688.861
234.928	16.723	905.012	688.386
235.942	16.558	904.545	687.298
236.957	16.722	903.477	687.092
237.972	16.708	902.910	686.543
238.986	16.621	902.690	685.961
240.001	16.760	901.708	685.718
241.015	16.709	900.731	684.708
242.030	16.750	900.437	684.589
243.045	16.832	899.701	684.299
244.059	16.940	899.276	684.353
245.074	16.871	898.583	683.485
246.088	16.922	897.751	682.997
247.103	16.830	898.075	682.815
248.117	17.131	896.804	682.998
249.132	17.065	896.500	682.442
250.147	17.049	896.233	682.112
251.161	17.463	895.708	683.316
252.176	17.319	894.852	682.023
253.190	17.391	894.284	681.818
254.205	17.568	893.526	681.890
255.220	17.597	892.758	681.357
256.234	17.522	892.225	680.592
257.249	17.618	891.313	680.220
258.263	17.547	891.134	679.738
259.278	17.466	890.644	678.981
260.293	17.416	889.906	678.162
261.307	17.474	889.237	677.822
262.322	17.703	888.675	678.246
263.336	17.669	888.388	677.831
264.351	17.627	887.607	677.008
265.366	17.782	886.950	677.063
266.380	17.638	886.859	676.361
267.395	17.660	885.689	675.494
268.409	17.755	884.584	674.969
269.424	17.514	884.463	673.863
270.439	17.483	883.478	672.931
271.453	17.602	882.627	672.694
272.468	17.678	881.726	672.247
273.482	17.626	881.101	671.505
274.497	17.547	880.706	670.833
275.512	17.539	880.021	670.224
276.526	17.408	879.590	669.318
277.541	17.484	878.771	668.935
278.555	17.650	878.214	669.105
279.570	17.703	877.687	668.853
280.585	17.704	877.379	668.561
281.599	17.780	876.805	668.361
282.614	17.832	875.954	667.857
283.628	17.524	875.362	666.144
284.643	17.678	874.931	666.358
285.657	17.669	874.314	665.793
286.672	17.563	873.940	665.035
287.687	17.764	873.353	665.314
288.701	17.746	872.834	664.791
289.716	17.749	871.839	663.986
290.730	17.725	871.609	663.660
291.745	17.996	870.868	664.087
292.760	17.767	870.116	662.566
293.774	17.900	869.573	662.612
294.789	17.874	869.273	662.223
295.803	17.835	869.017	661.819
296.818	17.872	868.165	661.256
297.833	17.802	867.343	660.300
298.847	17.696	866.687	659.330
299.862	17.921	865.661	659.361
300.876	17.963	865.106	659.040
301.891	17.829	865.206	658.542
302.906	17.969	864.034	658.132
303.920	18.061	863.361	657.915
304.935	18.140	862.661	657.627
305.949	18.190	862.118	657.350
306.964	18.277	861.545	657.187
307.979	18.095	861.059	656.058
308.993	18.078	860.534	655.538
310.008	18.218	860.168	655.736
311.022	18.295	859.100	655.157
312.037	18.293	858.800	654.865
313.052	18.024	858.537	653.578
314.066	18.025	857.684	652.875
315.081	17.966	856.818	651.932
316.095	17.994	856.814	651.978
317.110	17.998	856.146	651.427
318.125	17.982	855.145	650.548
319.139	18.130	854.616	650.650
320.154	17.938	854.638	649.878
321.168	18.036	853.977	649.691
322.183	18.275	853.204	649.955
323.197	18.172	852.632	649.069
324.212	18.195	851.879	648.526
325.227	18.283	851.588	648.582
326.241	18.083	850.943	647.273
327.256	18.039	850.629	646.813
328.270	18.205	849.545	646.557
329.285	18.254	848.949	646.234
330.300	18.145	848.545	645.457
331.314	18.114	847.868	644.768
332.329	18.176	847.394	644.581
333.343	18.311	847.026	644.755
334.358	18.418	846.231	644.495
335.373	18.461	845.449	644.002
336.387	18.504	845.142	643.874
337.402	18.421	844.736	643.198
338.416	18.593	843.986	643.215
339.431	18.593	843.668	642.913
340.446	18.664	843.032	642.640
341.460	18.609	842.561	642.015
342.475	18.746	841.910	641.975
343.489	18.673	841.970	641.693
344.504	18.797	841.314	641.598
345.519	18.783	840.624	640.962
346.533	18.651	840.437	640.270
347.548	18.865	839.757	640.493
348.562	18.732	839.028	639.388
349.577	18.425	838.774	637.995
350.592	18.594	837.811	637.834
351.606	18.457	837.490	637.022
352.621	18.457	837.123	636.687
353.635	18.587	836.676	636.774
354.650	18.578	836.293	636.394
355.665	18.594	835.385	635.706
356.679	18.668	835.049	635.668
357.694	18.723	834.545	635.431
358.708	18.703	833.999	634.884
359.723	18.825	833.470	634.876
360.738	18.834	832.825	634.362
361.752	18.685	832.761	633.706
362.767	18.676	832.402	633.346
363.781	18.822	831.655	633.260
364.796	18.833	831.611	633.210
365.810	19.112	830.590	633.402
366.825	19.114	830.279	633.118
367.840	19.174	830.081	633.131
368.854	19.093	829.608	632.416
369.869	19.043	829.265	631.914
370.883	19.038	828.790	631.478
371.898	19.073	827.781	630.781
372.913	19.140	827.359	630.652
373.927	19.187	826.442	630.067
374.942	19.176	825.938	629.586
375.956	19.111	825.379	628.868
376.971	19.217	824.973	628.892
377.986	19.301	824.639	628.888
379.000	19.394	823.880	628.591
380.015	19.315	823.443	627.915
381.029	19.372	823.004	627.731
382.044	19.283	822.353	626.857
383.059	19.335	821.808	626.573
384.073	19.579	821.348	627.055
385.088	19.330	821.043	625.863
386.102	19.207	820.247	624.754
387.117	19.139	819.658	624.003
388.132	18.929	819.208	622.846
389.146	19.062	818.793	622.957
390.161	19.269	818.421	623.364
391.175	19.211	818.532	623.187
392.190	19.261	817.713	622.687
393.205	19.387	817.210	622.704
394.219	19.161	816.677	621.429
395.234	19.206	815.901	620.945
396.248	19.329	815.283	620.861
397.263	19.012	815.132	619.552
398.278	19.116	814.271	619.218
399.292	19.126	813.858	618.882
400.307	19.174	813.399	618.651
401.321	19.115	813.394	618.380
402.336	19.178	812.655	617.991
403.350	19.293	812.575	618.287
404.365	19.342	811.944	617.927
405.380	19.314	811.667	617.561
406.394	19.534	810.923	617.730
407.409	19.675	810.498	617.854
408.423	19.681	810.453	617.789
409.438	19.612	809.752	616.950
410.453	19.666	809.216	616.681
411.467	19.631	808.681	616.094
412.482	19.749	808.478	616.307
413.496	19.748	807.991	615.876
414.511	19.818	807.853	615.966
415.526	19.831	807.232	615.484
416.540	19.887	806.536	615.098
417.555	19.833	806.244	614.629
418.569	19.740	806.065	614.109
419.584	19.961	805.282	614.241
420.599	19.786	804.995	613.348
421.613	156.322	1371.130	1789.929
422.628	135.698	1453.629	1790.028
