DTS Sentinel unit serial number:	SN413079Multiplexer serial number:	ORYXHardware model number:	OX4-SRSoftware version number:	ORYX F/W v4.00 Oryx Data Collector v3.7.2.0data status	okinstallation	princeton_trtdifferential loss correction	single-endedforward channel	channel 3reverse channel	N/Adate	2019/09/15time	21:12:35forward acquisition time	60.00reverse acquisition time	0.00gamma	496.2192k internal	0.2329k external	0.2329temperature offset calibration	0.9933default loss term (dB/km)	0.3790temperature slope calibration	1.0000multiplexer offset coefficient	1.0000multiplexer slope coefficient	1.0000fibre end	0.00T internal ref (°C)	31.31T ext. ref 1 (°C)	8.15T ext. ref 2 (°C)	24.22length (m)	temperature (°C)	Stokes	anti-Stokes-747.200	-77.801	-0.155	-0.054
-746.185	800.000	0.099	0.295
-745.171	1.395	-0.056	0.041
-744.156	668.686	-0.130	0.339
-743.142	-200.000	0.035	-0.232
-742.127	579.208	-0.149	0.368
-741.112	112.327	0.237	-0.289
-740.098	-200.000	-0.069	0.335
-739.083	-58.306	-0.383	0.168
-738.069	800.000	0.063	0.196
-737.054	-112.040	-0.405	-0.082
-736.039	800.000	-0.029	-0.084
-735.025	-200.000	0.043	0.250
-734.010	-135.259	-0.228	-0.028
-732.996	-200.000	-0.026	-0.148
-731.981	706.683	0.155	0.411
-730.966	-200.000	0.005	-0.031
-729.952	-61.936	0.215	-0.091
-728.937	-111.232	0.049	0.010
-727.923	-120.757	-0.207	0.035
-726.908	-98.145	-0.178	-0.046
-725.894	-102.048	0.074	0.018
-724.879	307.102	-0.168	-0.315
-723.864	-142.513	-0.192	-0.019
-722.850	15.172	0.060	0.047
-721.835	-120.354	-0.114	0.019
-720.821	-200.000	-0.027	0.224
-719.806	-73.667	-0.369	-0.135
-718.791	77.800	-0.152	0.163
-717.777	-126.534	0.171	0.026
-716.762	-14.261	-0.049	-0.032
-715.748	40.490	0.060	-0.055
-714.733	-118.795	-0.330	-0.058
-713.718	-105.001	-0.191	-0.044
-712.704	651.173	-0.070	0.181
-711.689	-172.268	-0.565	-0.018
-710.675	-140.986	0.133	-0.014
-709.660	-14.947	0.291	-0.187
-708.645	71.348	-0.166	0.173
-707.631	-60.726	0.093	-0.040
-706.616	-86.184	0.342	0.106
-705.602	155.152	0.123	0.170
-704.587	-85.760	0.192	-0.060
-703.572	-51.053	-0.370	0.175
-702.558	-200.000	-0.064	-0.309
-701.543	-34.577	0.266	0.147
-700.529	40.763	0.169	-0.153
-699.514	73.202	0.239	0.252
-698.499	-24.492	-0.104	0.062
-697.485	-27.100	-0.139	0.081
-696.470	208.219	-0.087	0.137
-695.456	800.000	0.102	-0.408
-694.441	-95.875	-0.364	-0.098
-693.426	311.237	-0.065	-0.122
-692.412	-160.372	-0.319	0.017
-691.397	-89.133	-0.298	-0.089
-690.383	800.000	0.105	0.299
-689.368	-200.000	0.021	-0.279
-688.354	503.646	0.020	0.047
-687.339	-82.272	0.016	0.005
-686.324	50.832	-0.071	0.067
-685.310	6.572	0.176	0.132
-684.295	163.364	0.146	0.206
-683.281	-76.837	0.273	0.096
-682.266	-80.678	0.100	-0.034
-681.251	-113.027	0.213	0.042
-680.237	478.083	-0.098	0.223
-679.222	146.830	-0.050	-0.068
-678.208	-106.626	-0.313	-0.070
-677.193	104.450	-0.099	-0.118
-676.178	-95.862	0.293	0.079
-675.164	-16.973	-0.246	-0.156
-674.149	-97.992	0.175	-0.045
-673.135	-44.822	0.113	-0.056
-672.120	78.764	-0.143	0.154
-671.105	-28.138	-0.077	0.045
-670.091	740.125	-0.063	0.170
-669.076	-200.000	0.006	0.126
-668.062	-33.985	0.026	-0.014
-667.047	-62.653	-0.144	0.060
-666.032	24.694	0.197	-0.164
-665.018	139.420	-0.227	-0.300
-664.003	-42.764	-0.235	0.120
-662.989	299.801	0.060	-0.111
-661.974	75.112	-0.016	-0.017
-660.959	800.000	0.106	0.346
-659.945	-104.981	0.275	0.063
-658.930	97.009	-0.096	-0.110
-657.916	-200.000	-0.084	0.384
-656.901	-93.552	-0.145	-0.040
-655.886	-200.000	-0.025	0.156
-654.872	429.356	-0.136	0.295
-653.857	800.000	0.114	-0.457
-652.843	-41.713	-0.403	0.208
-651.828	608.982	-0.080	-0.201
-650.814	419.643	-0.157	-0.337
-649.799	-9.339	0.056	-0.038
-648.784	-187.514	-0.262	-0.004
-647.770	800.000	0.047	-0.146
-646.755	-200.000	-0.026	-0.124
-645.741	463.316	0.123	0.277
-644.726	-101.080	-0.178	0.044
-643.711	578.575	-0.141	0.345
-642.697	800.000	-0.050	-0.158
-641.682	-74.522	0.158	-0.057
-640.668	57.390	0.024	-0.023
-639.653	3.925	0.301	-0.221
-638.638	-200.000	0.025	-0.227
-637.624	-200.000	-0.028	0.159
-636.609	315.131	0.184	0.349
-635.595	58.926	-0.063	-0.062
-634.580	495.162	0.055	0.126
-633.565	32.254	-0.039	-0.034
-632.551	-2.738	0.292	-0.205
-631.536	375.452	0.027	-0.055
-630.522	440.446	0.060	0.133
-629.507	-33.616	0.010	0.006
-628.492	-120.259	-0.210	-0.036
-627.478	161.581	0.173	-0.243
-626.463	45.441	0.055	0.051
-625.449	-130.258	-0.093	-0.013
-624.434	-200.000	-0.024	0.188
-623.419	-200.000	-0.035	-0.269
-622.405	-33.740	-0.191	-0.106
-621.390	439.584	0.067	0.146
-620.376	-133.933	-0.378	-0.047
-619.361	-72.532	0.112	-0.042
-618.346	-55.867	-0.359	0.161
-617.332	800.000	0.051	-0.160
-616.317	586.403	-0.010	0.025
-615.303	12.004	-0.235	-0.181
-614.288	-106.927	0.201	0.045
-613.273	-200.000	-0.031	-0.460
-612.259	401.682	-0.173	-0.364
-611.244	-107.547	-0.134	-0.029
-610.230	-200.000	-0.013	0.175
-609.215	-200.000	0.065	-0.435
-608.201	-5.641	-0.185	-0.127
-607.186	-45.766	-0.190	0.094
-606.171	357.737	-0.118	-0.235
-605.157	-200.000	0.065	-0.457
-604.142	-135.219	-0.092	0.011
-603.128	-200.000	0.045	-0.238
-602.113	160.477	-0.082	-0.114
-601.098	-200.000	-0.017	0.158
-600.084	163.738	-0.288	-0.406
-599.069	800.000	0.128	0.534
-598.055	-80.839	-0.230	-0.076
-597.040	31.547	-0.068	-0.059
-596.025	-64.661	0.197	0.080
-595.011	-91.588	-0.328	-0.094
-593.996	127.923	0.090	-0.115
-592.982	-200.000	-0.022	-0.169
-591.967	-89.388	0.269	0.079
-590.952	310.997	-0.088	-0.165
-589.938	-88.679	-0.373	-0.111
-588.923	12.897	-0.228	-0.176
-587.909	-106.883	0.031	-0.007
-586.894	191.889	-0.065	-0.098
-585.879	-61.273	0.475	0.200
-584.865	89.501	-0.124	0.138
-583.850	-111.831	0.327	-0.066
-582.836	-200.000	0.009	-0.266
-581.821	-200.000	-0.007	-0.114
-580.806	-200.000	-0.057	-0.277
-579.792	16.239	-0.231	-0.183
-578.777	449.068	-0.188	-0.416
-577.763	386.712	0.014	0.029
-576.748	738.892	0.128	-0.344
-575.733	94.806	-0.189	-0.215
-574.719	45.932	0.076	0.071
-573.704	-90.299	0.337	0.098
-572.690	-200.000	0.027	-0.174
-571.675	-200.000	-0.007	0.348
-570.661	141.704	0.084	-0.111
-569.646	-200.000	-0.034	0.274
-568.631	-86.834	0.197	0.060
-567.617	-200.000	0.033	-0.160
-566.602	-0.341	0.411	-0.292
-565.588	-89.770	0.285	-0.084
-564.573	112.290	-0.189	-0.229
-563.558	234.052	-0.126	0.208
-562.544	-10.360	0.040	-0.026
-561.529	2.294	0.079	0.057
-560.515	-199.433	0.214	-0.001
-559.500	-72.030	0.130	-0.048
-558.485	800.000	-0.048	0.136
-557.471	-15.711	-0.097	0.062
-556.456	15.904	-0.260	0.205
-555.442	-110.072	0.331	-0.069
-554.427	-134.452	0.268	-0.033
-553.412	768.264	0.011	-0.029
-552.398	26.026	-0.166	-0.139
-551.383	42.741	0.115	-0.105
-550.369	800.000	-0.098	0.298
-549.354	-15.499	-0.263	-0.168
-548.339	800.000	-0.100	-0.314
-547.325	-200.000	0.236	0.001
-546.310	387.805	-0.050	0.104
-545.296	132.283	0.171	-0.220
-544.281	213.755	-0.379	-0.599
-543.266	415.033	-0.043	0.091
-542.252	62.884	-0.099	0.099
-541.237	-28.511	-0.100	0.058
-540.223	-69.227	0.124	0.048
-539.208	-20.033	0.125	-0.077
-538.193	-200.000	0.042	-0.194
-537.179	-200.000	-0.040	0.228
-536.164	-34.640	-0.128	-0.070
-535.150	29.407	0.175	-0.149
-534.135	781.517	0.081	-0.223
-533.121	16.535	-0.036	-0.029
-532.106	-200.000	-0.029	0.177
-531.091	432.024	-0.106	-0.230
-530.077	-78.519	-0.299	0.102
-529.062	-200.000	-0.042	-0.186
-528.048	99.369	0.159	0.184
-527.033	280.924	0.009	-0.016
-526.018	626.405	-0.068	0.172
-525.004	-124.808	0.134	0.021
-523.989	14.187	0.399	-0.310
-522.975	374.823	0.081	-0.164
-521.960	369.294	0.071	0.143
-520.945	-59.572	-0.047	0.020
-519.931	-68.861	0.324	-0.125
-518.916	800.000	0.046	-0.170
-517.902	-200.000	0.004	-0.164
-516.887	240.815	-0.106	0.177
-515.872	62.898	0.233	0.233
-514.858	-74.828	0.334	-0.120
-513.843	80.790	-0.190	0.205
-512.829	62.173	-0.064	0.064
-511.814	-200.000	0.055	0.267
-510.799	293.109	-0.137	-0.250
-509.785	-116.094	-0.127	-0.024
-508.770	712.902	0.126	-0.333
-507.756	-110.850	-0.053	0.011
-506.741	311.123	-0.127	-0.237
-505.726	138.918	0.069	0.090
-504.712	-106.552	-0.230	-0.051
-503.697	292.586	0.078	-0.141
-502.683	800.000	0.078	0.230
-501.668	-200.000	0.038	-0.241
-500.653	-4.866	0.104	-0.071
-499.639	3.728	0.146	0.106
-498.624	29.435	0.186	0.158
-497.610	112.908	0.068	-0.082
-496.595	14.489	0.176	-0.137
-495.581	-17.122	-0.060	0.038
-494.566	-46.915	0.182	-0.089
-493.551	-19.410	-0.172	-0.106
-492.537	22.306	0.199	0.162
-491.522	603.634	-0.076	0.189
-490.508	34.140	0.162	0.141
-489.493	-200.000	-0.009	-0.207
-488.478	113.782	0.088	0.107
-487.464	-188.260	-0.112	-0.001
-486.449	-200.000	-0.036	-0.199
-485.435	-135.702	-0.102	0.012
-484.420	4.421	0.172	0.126
-483.405	-74.162	-0.081	-0.029
-482.391	557.963	-0.029	0.069
-481.376	-200.000	0.041	0.186
-480.362	-73.366	-0.165	-0.060
-479.347	73.926	0.129	-0.135
-478.332	-154.925	0.143	0.009
-477.318	-200.000	-0.024	-0.281
-476.303	372.397	0.133	0.268
-475.289	-200.000	0.001	-0.242
-474.274	315.490	-0.144	-0.270
-473.259	89.048	-0.052	0.057
-472.245	378.533	-0.170	0.346
-471.230	-12.541	-0.111	0.072
-470.216	31.553	-0.134	-0.115
-469.201	-200.000	0.002	0.211
-468.186	-46.624	0.055	-0.027
-467.172	-200.000	-0.008	0.057
-466.157	142.923	-0.106	-0.141
-465.143	206.497	0.129	-0.201
-464.128	-143.651	-0.144	-0.014
-463.113	27.752	-0.165	0.138
-462.099	-200.000	-0.023	0.300
-461.084	-18.158	0.086	0.054
-460.070	-200.000	-0.000	-0.104
-459.055	-100.282	-0.148	0.037
-458.040	96.866	-0.181	-0.206
-457.026	-200.000	0.000	-0.188
-456.011	-53.360	0.110	0.050
-454.997	-143.972	-0.208	0.019
-453.982	108.230	-0.256	-0.304
-452.968	519.741	-0.103	-0.241
-451.953	-58.222	0.306	-0.133
-450.938	-27.102	-0.215	-0.125
-449.924	-78.956	-0.371	0.126
-448.909	-125.212	-0.281	0.043
-447.895	-200.000	-0.016	-0.221
-446.880	-185.926	0.155	0.002
-445.865	-200.000	0.005	-0.087
-444.851	-92.375	-0.293	-0.082
-443.836	-31.968	0.273	0.152
-442.822	101.206	0.065	-0.076
-441.807	800.000	0.028	0.090
-440.792	-200.000	0.002	-0.038
-439.778	78.777	0.268	0.286
-438.763	-200.000	0.035	0.478
-437.749	31.090	0.161	0.137
-436.734	800.000	-0.084	0.298
-435.719	-200.000	0.053	-0.359
-434.705	62.467	-0.124	0.123
-433.690	588.559	-0.055	0.135
-432.676	327.666	0.101	0.193
-431.661	55.931	0.242	0.233
-430.646	69.758	-0.346	0.355
-429.632	-97.679	0.262	0.068
-428.617	784.695	0.080	0.217
-427.603	-82.851	-0.067	0.021
-426.588	316.759	-0.034	0.063
-425.573	20.636	-0.047	-0.038
-424.559	159.852	-0.190	0.264
-423.544	70.432	0.082	-0.085
-422.530	-97.430	-0.188	0.049
-421.515	310.563	-0.139	-0.259
-420.500	-112.236	-0.069	0.014
-419.486	3.829	0.222	0.161
-418.471	70.023	0.167	0.172
-417.457	547.764	-0.052	-0.125
-416.442	-121.089	0.182	-0.030
-415.428	578.052	-0.144	-0.351
-414.413	516.962	0.002	0.004
-413.398	-50.107	0.244	-0.115
-412.384	83.216	0.206	0.223
-411.369	-101.698	-0.145	0.035
-410.355	-26.754	0.209	-0.121
-409.340	-200.000	-0.001	-0.167
-408.325	-200.000	-0.072	-0.316
-407.311	-68.698	0.257	0.099
-406.296	32.133	0.193	0.165
-405.282	497.593	-0.077	-0.176
-404.267	-147.001	-0.168	-0.014
-403.252	-56.713	0.234	-0.103
-402.238	297.332	-0.092	0.167
-401.223	175.912	-0.085	0.122
-400.209	-12.273	0.139	-0.090
-399.194	407.121	0.135	-0.283
-398.179	113.119	-0.062	-0.074
-397.165	-170.198	-0.056	0.002
-396.150	-169.618	-0.179	-0.006
-395.136	225.290	-0.132	0.213
-394.121	-200.000	0.015	0.107
-393.106	-78.019	-0.181	-0.062
-392.092	-66.125	0.156	0.062
-391.077	800.000	-0.030	-0.123
-390.063	-24.590	0.141	-0.083
-389.048	-137.047	-0.282	0.032
-388.033	-200.000	0.013	0.278
-387.019	189.172	-0.153	0.228
-386.004	100.572	-0.098	-0.113
-384.990	91.836	-0.148	-0.166
-383.975	168.462	-0.188	-0.266
-382.960	-36.328	0.232	0.124
-381.946	65.765	0.201	0.202
-380.931	564.155	-0.128	0.309
-379.917	244.311	0.087	-0.146
-378.902	-200.000	-0.005	0.348
-377.888	152.900	0.138	0.187
-376.873	-151.354	-0.254	-0.019
-375.858	-64.979	-0.117	0.047
-374.844	-151.421	-0.320	0.024
-373.829	-161.978	-0.173	0.009
-372.815	18.576	-0.221	-0.175
-371.800	114.063	0.032	0.039
-370.785	131.609	0.144	-0.183
-369.771	737.802	0.024	0.064
-368.756	308.030	-0.250	-0.463
-367.742	71.436	-0.161	0.166
-366.727	165.099	-0.098	-0.137
-365.712	546.993	0.156	0.369
-364.698	-145.758	0.129	-0.011
-363.683	140.319	0.090	0.118
-362.669	-192.232	0.272	0.003
-361.654	118.424	-0.124	0.151
-360.639	3.538	0.247	0.179
-359.625	362.202	0.015	0.029
-358.610	-129.458	0.041	-0.006
-357.596	33.958	-0.221	0.191
-356.581	135.877	0.152	-0.196
-355.566	-200.000	0.030	0.193
-354.552	311.822	0.034	-0.064
-353.537	800.000	-0.074	0.242
-352.523	364.197	0.171	-0.341
-351.508	482.769	-0.055	0.124
-350.493	-120.391	-0.483	0.081
-349.479	-178.823	0.069	0.002
-348.464	45.534	0.183	0.167
-347.450	-200.000	-0.013	0.251
-346.435	-41.686	-0.202	0.103
-345.420	-94.222	0.051	0.014
-344.406	402.476	-0.191	-0.399
-343.391	9.962	-0.245	-0.184
-342.377	800.000	-0.049	0.154
-341.362	800.000	-0.005	-0.020
-340.348	-112.925	0.334	-0.066
-339.333	5.645	0.149	0.109
-338.318	800.000	-0.032	-0.098
-337.304	128.139	0.224	0.282
-336.289	-200.000	0.023	-0.270
-335.275	356.689	0.103	-0.203
-334.260	746.612	-0.047	0.126
-333.245	-81.506	-0.123	0.040
-332.231	14.030	-0.194	-0.150
-331.216	-200.000	0.004	-0.160
-330.202	-31.575	-0.084	0.047
-329.187	-200.000	-0.008	-0.082
-328.172	134.249	-0.190	0.244
-327.158	97.017	0.155	-0.176
-326.143	76.070	-0.218	-0.229
-325.129	206.238	-0.028	0.043
-324.114	-104.673	-0.240	-0.055
-323.099	-200.000	-0.034	0.263
-322.085	-200.000	0.034	0.486
-321.070	169.534	-0.053	0.074
-320.056	-200.000	0.041	0.261
-319.041	800.000	0.015	0.064
-318.026	800.000	-0.019	0.062
-317.012	800.000	-0.101	0.437
-315.997	-49.555	-0.081	-0.038
-314.983	-179.393	0.221	-0.005
-313.968	-90.634	-0.138	-0.039
-312.953	23.963	-0.351	0.286
-311.939	59.482	0.067	0.065
-310.924	-200.000	0.043	0.342
-309.910	-20.836	0.332	-0.201
-308.895	800.000	-0.025	0.093
-307.880	-104.203	-0.038	-0.009
-306.866	-134.941	0.177	-0.021
-305.851	800.000	-0.036	0.142
-304.837	248.860	0.029	0.048
-303.822	542.575	0.117	0.277
-302.807	800.000	0.043	-0.143
-301.793	-73.052	-0.130	-0.047
-300.778	-156.924	0.160	0.010
-299.764	-200.000	0.022	0.172
-298.749	800.000	-0.128	0.358
-297.735	800.000	0.031	0.121
-296.720	-54.780	-0.257	-0.115
-295.705	26.915	0.241	-0.200
-294.691	800.000	-0.120	-0.426
-293.676	-200.000	0.023	-0.181
-292.662	-200.000	0.017	0.249
-291.647	564.671	-0.103	-0.247
-290.632	256.763	-0.172	0.292
-289.618	276.366	-0.052	0.091
-288.603	54.757	0.246	-0.235
-287.589	-200.000	-0.024	-0.477
-286.574	-75.185	0.484	-0.171
-285.559	-32.948	0.169	-0.093
-284.545	88.051	0.123	-0.135
-283.530	47.651	0.011	0.010
-282.516	-50.677	0.208	0.097
-281.501	-39.365	-0.350	0.181
-280.486	-200.000	-0.012	-0.178
-279.472	-16.062	0.192	0.121
-278.457	-123.106	-0.171	-0.027
-277.443	-103.015	0.378	0.089
-276.428	800.000	0.033	-0.115
-275.413	-13.373	-0.255	0.164
-274.399	-200.000	0.008	0.061
-273.384	-200.000	-0.001	0.220
-272.370	663.219	-0.122	0.310
-271.355	-200.000	-0.054	0.268
-270.340	-200.000	0.010	0.089
-269.326	-158.166	-0.394	-0.023
-268.311	73.465	-0.034	0.036
-267.297	327.942	0.096	0.183
-266.282	-1.187	0.094	0.066
-265.267	-176.885	-0.176	-0.004
-264.253	800.000	-0.050	0.171
-263.238	-96.680	-0.053	-0.014
-262.224	191.768	-0.115	-0.172
-261.209	110.364	0.253	0.301
-260.195	-21.555	0.187	-0.113
-259.180	-200.000	0.049	-0.234
-258.165	321.246	-0.107	-0.201
-257.151	800.000	0.020	-0.071
-256.136	-122.652	0.127	-0.020
-255.122	-9.599	-0.211	-0.139
-254.107	800.000	-0.070	0.225
-253.092	-200.000	0.024	0.312
-252.078	35.921	0.103	-0.090
-251.063	-200.000	0.050	0.246
-250.049	-87.504	0.207	-0.062
-249.034	22.413	0.094	-0.076
-248.019	800.000	-0.065	-0.190
-247.005	18.535	0.098	-0.077
-245.990	-37.815	0.320	-0.168
-244.976	-182.525	-0.128	-0.002
-243.961	27.343	-0.229	-0.190
-242.946	-121.931	-0.295	0.048
-241.932	800.000	-0.080	0.277
-240.917	-70.391	0.152	-0.057
-239.903	-122.594	0.340	0.054
-238.888	-62.328	-0.133	-0.055
-237.873	800.000	0.039	0.108
-236.859	39.980	0.105	-0.094
-235.844	743.226	-0.094	-0.250
-234.830	-45.666	-0.279	0.136
-233.815	342.803	0.057	-0.111
-232.800	102.564	-0.126	0.145
-231.786	255.327	-0.049	-0.083
-230.771	-40.650	-0.089	-0.045
-229.757	-200.000	-0.027	0.322
-228.742	-128.992	0.070	0.010
-227.727	-200.000	0.002	-0.011
-226.713	-200.000	-0.021	-0.166
-225.698	800.000	0.012	-0.045
-224.684	278.342	-0.093	-0.163
-223.669	-34.019	0.165	-0.089
-222.655	800.000	-0.121	0.368
-221.640	163.273	-0.160	-0.222
-220.625	-200.000	-0.008	-0.235
-219.611	800.000	0.058	0.228
-218.596	-73.888	0.140	0.050
-217.582	8.217	0.162	0.120
-216.567	65.798	-0.244	0.244
-215.552	678.009	-0.089	-0.228
-214.538	-59.106	0.268	0.114
-213.523	61.011	0.151	-0.148
-212.509	-165.032	0.065	0.003
-211.494	-81.230	-0.026	0.008
-210.479	502.995	0.047	0.107
-209.465	396.611	0.032	0.066
-208.450	3.396	0.318	-0.229
-207.436	363.155	0.031	-0.061
-206.421	-192.613	0.103	0.001
-205.406	-200.000	0.024	-0.107
-204.392	800.000	0.146	0.550
-203.377	-159.958	-0.197	0.011
-202.363	-200.000	0.015	0.234
-201.348	-200.000	-0.026	-0.335
-200.333	546.934	-0.166	0.391
-199.319	-200.000	0.008	-0.081
-198.304	18.453	0.284	0.224
-197.290	-162.132	-0.127	0.006
-196.275	90.375	0.079	-0.087
-195.260	339.666	-0.105	0.203
-194.246	800.000	0.058	0.206
-193.231	-153.571	0.199	0.014
-192.217	-94.334	-0.015	-0.004
-191.202	-200.000	-0.048	-0.246
-190.187	44.826	0.082	-0.074
-189.173	-165.515	-0.098	0.004
-188.158	545.573	0.099	0.234
-187.144	-200.000	-0.041	-0.361
-186.129	375.076	0.049	-0.098
-185.114	-114.136	-0.164	0.031
-184.100	282.562	0.181	0.321
-183.085	-200.000	-0.009	-0.432
-182.071	9.042	-0.277	-0.206
-181.056	-26.458	-0.295	0.170
-180.042	572.635	0.051	-0.123
-179.027	-77.598	0.265	-0.090
-178.012	88.687	-0.162	0.177
-176.998	74.830	-0.052	0.054
-175.983	-43.402	0.154	0.077
-174.969	0.310	0.072	-0.051
-173.954	103.874	-0.115	-0.134
-172.939	292.561	0.038	0.068
-171.925	14.118	-0.175	-0.135
-170.910	165.765	0.170	0.237
-169.896	-200.000	0.017	0.270
-168.881	-102.117	-0.229	-0.054
-167.866	67.030	-0.067	-0.067
-166.852	-112.913	0.223	0.044
-165.837	-62.945	0.093	-0.038
-164.823	-3.433	0.305	0.209
-163.808	800.000	-0.019	-0.072
-162.793	546.321	0.084	0.198
-161.779	800.000	0.102	0.373
-160.764	174.549	0.185	0.263
-159.750	-200.000	-0.002	0.067
-158.735	102.752	0.084	0.097
-157.720	-4.824	-0.126	-0.086
-156.706	46.748	0.193	0.176
-155.691	800.000	0.150	0.599
-154.677	236.263	-0.083	0.135
-153.662	112.844	-0.092	-0.110
-152.647	-84.566	-0.175	0.054
-151.633	238.113	0.172	-0.281
-150.618	452.607	0.061	0.134
-149.604	-200.000	0.006	0.096
-148.589	-200.000	0.005	-0.072
-147.574	-22.689	-0.220	0.131
-146.560	-59.010	-0.227	-0.097
-145.545	439.768	-0.093	0.201
-144.531	800.000	0.113	0.326
-143.516	-112.696	0.187	0.037
-142.502	-56.429	-0.255	0.111
-141.487	163.607	-0.079	-0.109
-140.472	443.320	-0.087	-0.188
-139.458	-200.000	0.055	-0.287
-138.443	225.342	0.020	-0.032
-137.429	-152.034	-0.114	0.008
-136.414	35.236	-0.107	0.092
-135.399	-69.422	0.151	-0.057
-134.385	-0.906	0.201	-0.140
-133.370	57.801	0.073	0.070
-132.356	-49.077	-0.112	-0.053
-131.341	-200.000	0.009	0.041
-130.326	546.186	-0.100	0.235
-129.312	-61.041	0.214	-0.089
-128.297	-145.523	0.275	-0.024
-127.283	464.243	0.069	-0.151
-126.268	41.955	-0.095	0.084
-125.253	-140.906	0.080	-0.008
-124.239	187.615	-0.121	0.178
-123.224	40.464	0.362	0.320
-122.210	-200.000	-0.040	0.227
-121.195	-200.000	0.043	0.325
-120.180	348.971	-0.047	-0.092
-119.166	800.000	-0.043	-0.161
-118.151	652.095	0.153	-0.384
-117.137	-77.909	-0.119	-0.040
-116.122	800.000	0.045	-0.174
-115.107	-54.963	0.209	0.092
-114.093	-36.251	0.209	0.111
-113.078	132.188	-0.142	-0.180
-112.064	272.084	-0.221	0.384
-111.049	400.098	-0.091	0.188
-110.034	209.932	0.084	0.129
-109.020	-200.000	0.052	-0.599
-108.005	-165.387	-0.319	-0.014
-106.991	69.575	-0.323	0.326
-105.976	-110.485	0.142	-0.029
-104.962	277.937	0.094	0.164
-103.947	96.538	0.093	-0.104
-102.932	-121.397	0.130	0.021
-101.918	34.130	0.274	0.234
-100.903	-200.000	-0.026	-0.257
-99.889	487.895	-0.118	0.264
-98.874	-66.418	0.176	-0.069
-97.859	-76.806	0.150	0.052
-96.845	-200.000	0.008	0.138
-95.830	305.512	0.069	0.126
-94.816	20.218	-0.128	0.101
-93.801	-200.000	0.060	0.391
-92.786	147.138	0.230	0.303
-91.772	800.000	-0.074	-0.254
-90.757	-129.584	0.145	0.020
-89.743	-108.054	0.202	0.043
-88.728	96.673	-0.044	0.050
-87.713	-21.117	-0.359	-0.215
-86.699	-89.486	-0.151	-0.044
-85.684	46.348	0.210	-0.191
-84.670	-43.126	0.161	-0.080
-83.655	118.765	-0.156	0.189
-82.640	99.274	0.192	-0.218
-81.626	-16.227	-0.369	-0.230
-80.611	226.370	0.085	0.135
-79.597	75.697	-0.097	0.100
-78.582	-96.768	0.142	-0.037
-77.567	-200.000	-0.027	0.221
-76.553	352.833	-0.029	-0.056
-75.538	118.874	0.198	-0.240
-74.524	-65.528	-0.126	0.050
-73.509	78.067	-0.032	-0.034
-72.494	95.928	-0.159	0.178
-71.480	30.814	0.140	0.118
-70.465	-140.213	-0.356	-0.037
-69.451	-130.239	-0.158	0.021
-68.436	133.514	-0.107	-0.135
-67.422	-81.163	0.082	-0.026
-66.407	11.641	-0.153	0.115
-65.392	589.707	-0.033	-0.080
-64.378	-174.906	-0.235	-0.006
-63.363	-97.936	0.491	0.124
-62.349	86.011	-0.035	-0.037
-61.334	108.428	-0.948	-1.110
-60.319	95.693	0.557	0.624
-59.305	337.359	-0.592	-1.130
-58.290	613.695	0.512	1.258
-57.276	418.265	0.774	1.622
-56.261	-200.000	100.202	576.596
-55.246	499.053	1415.722	3199.103
-54.232	157.752	2585.632	3511.983
-53.217	109.410	2151.170	2526.066
-52.203	41.694	1689.475	1500.882
-51.188	34.505	1501.617	1285.706
-50.173	32.130	1474.097	1246.356
-49.159	51.938	1527.516	1425.929
-48.144	53.219	1545.479	1451.306
-47.130	34.637	1503.115	1287.675
-46.115	31.537	1488.560	1254.409
-45.100	31.325	1484.640	1249.635
-44.086	31.342	1482.510	1247.912
-43.071	31.322	1480.714	1246.212
-42.057	31.304	1478.820	1244.449
-41.042	31.328	1477.622	1243.550
-40.027	31.338	1476.139	1242.322
-39.013	31.174	1475.165	1240.364
-37.998	31.178	1473.819	1239.211
-36.984	31.205	1472.690	1238.391
-35.969	31.250	1470.968	1237.191
-34.954	31.294	1469.779	1236.432
-33.940	31.237	1468.560	1234.980
-32.925	31.379	1466.946	1234.515
-31.911	31.345	1465.859	1233.324
-30.896	31.342	1464.635	1232.225
-29.881	31.431	1463.268	1231.611
-28.867	31.368	1462.157	1230.214
-27.852	31.444	1460.170	1228.994
-26.838	31.460	1459.281	1228.304
-25.823	31.426	1457.612	1226.625
-24.809	31.364	1455.977	1224.793
-23.794	31.353	1454.329	1223.286
-22.779	31.406	1453.382	1222.790
-21.765	31.328	1452.639	1221.603
-20.750	31.353	1451.381	1220.662
-19.736	31.288	1450.358	1219.328
-18.721	31.309	1448.954	1218.235
-17.706	31.355	1447.795	1217.512
-16.692	31.280	1446.962	1216.278
-15.677	31.340	1445.882	1215.709
-14.663	31.323	1444.836	1214.676
-13.648	31.294	1444.642	1214.277
-12.633	31.337	1443.655	1213.677
-11.619	31.236	1442.752	1212.211
-10.604	31.306	1441.620	1211.669
-9.590	31.203	1441.024	1210.449
-8.575	31.287	1440.121	1210.189
-7.560	31.345	1439.290	1209.815
-6.546	31.238	1438.634	1208.522
-5.531	31.378	1437.299	1208.262
-4.517	31.228	1436.597	1206.653
-3.502	31.303	1435.520	1206.183
-2.487	31.296	1434.338	1205.099
-1.473	31.264	1433.184	1203.876
-0.458	31.248	1432.108	1202.822
0.556	29.112	1422.690	1190.978
1.571	25.585	1396.607	1146.602
2.586	21.614	1335.027	1071.692
3.600	19.555	1254.095	994.785
4.615	18.402	1210.048	953.346
5.629	17.083	1157.695	904.994
6.644	12.682	1080.809	822.867
7.659	8.741	1045.052	776.497
8.673	8.206	1039.470	769.699
9.688	8.222	1035.630	766.862
10.702	8.207	1034.215	765.675
11.717	7.976	1032.476	763.216
12.731	9.679	1033.436	772.021
13.746	14.285	1039.073	798.291
14.761	17.428	1042.824	816.204
15.775	17.686	1042.254	816.923
16.790	16.621	1040.675	810.511
17.804	15.560	1038.287	803.510
18.819	14.657	1036.094	797.428
19.834	14.150	1034.777	793.928
20.848	13.905	1033.994	792.087
21.863	13.719	1033.153	790.487
22.877	13.510	1032.063	788.588
23.892	13.314	1031.672	787.282
24.907	13.192	1030.485	785.727
25.921	13.135	1030.058	785.061
26.936	13.262	1029.106	784.871
27.950	13.296	1028.351	784.389
28.965	13.447	1026.623	783.715
29.980	13.254	1026.338	782.516
30.994	13.376	1024.601	781.697
32.009	13.470	1023.977	781.595
33.023	13.541	1023.346	781.378
34.038	13.469	1022.438	780.279
35.053	13.472	1021.462	779.476
36.067	13.430	1020.632	778.576
37.082	13.296	1019.873	777.303
38.096	13.439	1018.649	776.968
39.111	13.396	1018.088	776.273
40.126	13.500	1017.301	776.090
41.140	13.390	1016.469	774.870
42.155	13.361	1015.043	773.582
43.169	13.291	1013.908	772.322
44.184	13.297	1012.948	771.548
45.199	13.121	1012.452	770.283
46.213	13.279	1010.957	769.812
47.228	13.234	1010.181	768.946
48.242	13.303	1009.344	768.557
49.257	13.321	1008.447	767.893
50.271	13.331	1007.201	766.923
51.286	13.367	1006.234	766.283
52.301	13.412	1005.735	766.046
53.315	13.476	1004.634	765.433
54.330	13.311	1003.713	763.904
55.344	13.331	1002.824	763.252
56.359	13.218	1002.164	762.158
57.374	13.288	1001.231	761.705
58.388	13.349	1000.477	761.345
59.403	13.135	999.749	759.741
60.417	13.223	998.692	759.272
61.432	13.131	998.420	758.579
62.447	13.089	997.613	757.704
63.461	13.003	996.788	756.614
64.476	13.091	995.729	756.146
65.490	13.042	994.926	755.250
66.505	13.056	994.239	754.722
67.520	13.104	993.292	754.157
68.534	13.106	992.837	753.754
69.549	13.178	991.828	753.250
70.563	13.189	991.051	752.645
71.578	13.242	990.295	752.243
72.593	13.188	989.638	751.432
73.607	13.075	988.518	750.002
74.622	13.058	987.459	749.056
75.636	13.089	986.568	748.451
76.651	13.144	985.591	747.894
77.666	13.078	985.568	747.513
78.680	12.981	984.609	746.280
79.695	13.072	984.345	746.426
80.709	13.090	983.840	746.056
81.724	13.207	982.833	745.755
82.739	13.037	982.317	744.534
83.753	13.276	981.279	744.754
84.768	13.262	980.503	744.037
85.782	13.341	980.251	744.134
86.797	13.490	979.137	743.896
87.812	13.512	978.474	743.425
88.826	13.342	977.952	742.199
89.841	13.399	976.908	741.597
90.855	13.349	976.274	740.825
91.870	13.366	975.531	740.274
92.884	13.472	974.718	740.065
93.899	13.493	973.908	739.476
94.914	13.488	973.289	738.917
95.928	13.517	972.729	738.558
96.943	13.437	971.910	737.516
97.957	13.406	971.120	736.711
98.972	13.514	970.286	736.496
99.987	13.479	969.475	735.659
101.001	13.555	968.473	735.170
102.016	13.291	968.072	733.629
103.030	13.457	966.966	733.460
104.045	13.503	965.978	732.849
105.060	13.414	965.198	731.801
106.074	13.444	964.239	731.140
107.089	13.348	962.967	729.690
108.103	13.270	962.255	728.742
109.118	13.185	961.584	727.792
110.133	13.256	961.038	727.627
111.147	13.319	959.709	726.836
112.162	13.170	959.089	725.644
113.176	13.300	958.022	725.344
114.191	13.301	957.292	724.731
115.206	13.372	956.316	724.242
116.220	13.268	955.626	723.200
117.235	13.371	954.508	722.739
118.249	13.297	953.898	721.890
119.264	13.354	953.036	721.423
120.279	13.220	952.193	720.137
121.293	13.286	951.611	719.920
122.308	13.265	950.999	719.301
123.322	13.272	949.731	718.310
124.337	13.155	949.139	717.291
125.352	13.227	947.820	716.542
126.366	13.202	946.656	715.492
127.381	13.255	945.495	714.779
128.395	13.241	944.717	714.068
129.410	13.178	943.954	713.156
130.424	13.231	942.965	712.573
131.439	13.206	942.316	711.915
132.454	13.282	941.318	711.421
133.468	13.338	940.963	711.334
134.483	13.374	940.063	710.745
135.497	13.272	939.708	709.975
136.512	13.403	938.640	709.665
137.527	13.335	937.936	708.778
138.541	13.354	937.090	708.161
139.556	13.279	936.605	707.410
140.570	13.237	936.139	706.814
141.585	13.410	934.949	706.593
142.600	13.518	934.565	706.699
143.614	13.501	933.745	705.948
144.629	13.548	933.082	705.583
145.643	13.452	932.165	704.419
146.658	13.481	931.390	703.896
147.673	13.404	930.748	703.020
148.687	13.462	929.855	702.530
149.702	13.452	928.729	701.575
150.716	13.474	927.927	700.998
151.731	13.376	926.987	699.812
152.746	13.306	926.903	699.391
153.760	13.408	925.895	698.998
154.775	13.388	925.143	698.285
155.789	13.518	924.391	698.203
156.804	13.528	923.748	697.699
157.819	13.471	922.763	696.653
158.833	13.667	922.207	696.996
159.848	13.503	921.990	696.079
160.862	13.655	921.584	696.353
161.877	13.575	920.407	695.066
162.892	13.552	919.486	694.211
163.906	13.564	918.375	693.362
164.921	13.505	917.915	692.707
165.935	13.548	916.879	692.041
166.950	13.579	915.617	691.156
167.964	13.536	915.623	690.923
168.979	13.538	914.363	689.919
169.994	13.602	913.148	689.207
171.008	13.493	912.618	688.294
172.023	13.673	911.791	688.354
173.037	13.692	910.958	687.746
174.052	13.690	910.105	687.030
175.067	13.602	910.131	686.627
176.081	13.581	909.042	685.658
177.096	13.597	908.336	685.127
178.110	13.599	907.189	684.211
179.125	13.501	906.624	683.321
180.140	13.638	905.886	683.267
181.154	13.655	905.297	682.835
182.169	13.611	904.877	682.277
183.183	13.886	904.081	682.747
184.198	13.733	903.631	681.716
185.213	13.789	902.562	681.082
186.227	13.726	902.018	680.350
187.242	13.785	901.926	680.465
188.256	13.915	900.441	679.816
189.271	13.885	900.401	679.603
190.286	13.903	899.334	678.808
191.300	13.736	898.992	677.810
192.315	13.726	897.681	676.722
193.329	13.615	897.253	675.884
194.344	13.440	896.813	674.780
195.359	13.621	895.934	674.797
196.373	13.725	895.621	674.924
197.388	13.916	894.992	675.167
198.402	14.010	894.446	675.078
199.417	14.037	894.388	675.082
200.432	14.058	894.092	674.884
201.446	14.098	893.405	674.471
202.461	13.970	893.381	673.871
203.475	14.230	892.434	674.151
204.490	14.228	892.007	673.763
205.504	14.184	890.883	672.676
206.519	14.066	890.442	671.804
207.534	14.094	889.370	671.050
208.548	14.088	888.795	670.532
209.563	14.143	888.184	670.233
210.577	14.052	887.455	669.260
211.592	14.147	887.151	669.354
212.607	14.274	885.993	668.929
213.621	14.221	886.138	668.769
214.636	14.175	885.358	667.936
215.650	14.218	884.486	667.389
216.665	14.234	884.015	667.040
217.680	14.309	883.520	666.906
218.694	14.363	883.389	666.966
219.709	14.266	883.120	666.314
220.723	14.287	881.624	665.210
221.738	14.256	881.362	664.830
222.753	14.326	880.458	664.371
223.767	14.434	879.982	664.384
224.782	14.281	879.442	663.308
225.796	14.431	878.521	663.149
226.811	14.471	877.981	662.844
227.826	14.380	877.221	661.848
228.840	14.371	876.553	661.250
229.855	14.484	875.399	660.768
230.869	14.419	875.326	660.400
231.884	14.333	874.800	659.605
232.899	14.452	873.492	659.027
233.913	14.398	872.965	658.360
234.928	14.264	872.280	657.255
235.942	14.259	871.480	656.575
236.957	14.307	870.959	656.312
237.972	14.322	870.015	655.602
238.986	14.303	870.150	655.574
240.001	14.426	869.319	655.371
241.015	14.411	868.063	654.306
242.030	14.575	867.315	654.330
243.045	14.470	867.229	653.793
244.059	14.562	866.441	653.502
245.074	14.503	865.951	652.843
246.088	14.589	865.418	652.721
247.103	14.576	864.986	652.287
248.117	14.493	864.648	651.652
249.132	14.593	864.091	651.565
250.147	14.678	863.636	651.494
251.161	14.814	862.928	651.434
252.176	14.891	861.774	650.806
253.190	14.869	861.550	650.489
254.205	15.018	860.629	650.318
255.220	15.029	860.323	650.073
256.234	15.030	859.547	649.433
257.249	15.076	859.094	649.210
258.263	15.082	858.154	648.468
259.278	15.138	857.481	648.116
260.293	15.024	857.481	647.619
261.307	14.976	856.787	646.851
262.322	15.067	856.453	646.893
263.336	15.030	855.859	646.244
264.351	15.026	854.960	645.493
265.366	15.194	854.409	645.669
266.380	15.205	853.868	645.246
267.395	15.105	853.139	644.252
268.409	15.101	852.247	643.507
269.424	15.117	851.920	643.261
270.439	15.234	851.155	643.078
271.453	15.144	850.682	642.317
272.468	15.151	849.743	641.577
273.482	15.108	849.037	640.823
274.497	15.165	848.306	640.433
275.512	15.121	847.726	639.770
276.526	15.226	847.089	639.636
277.541	15.120	846.722	638.896
278.555	15.103	846.167	638.357
279.570	15.143	845.555	637.989
280.585	15.398	844.797	638.332
281.599	15.314	844.401	637.659
282.614	15.380	843.794	637.393
283.628	15.226	843.164	636.276
284.643	15.169	842.710	635.661
285.657	15.291	842.020	635.548
286.672	15.348	841.809	635.548
287.687	15.334	841.145	634.935
288.701	15.495	840.697	635.151
289.716	15.349	839.955	633.983
290.730	15.482	839.468	634.062
291.745	15.495	838.588	633.388
292.760	15.477	837.748	632.633
293.774	15.527	837.341	632.456
294.789	15.695	836.563	632.444
295.803	15.601	836.329	631.859
296.818	15.511	835.723	631.008
297.833	15.480	835.144	630.396
298.847	15.533	834.351	629.942
299.862	15.465	833.859	629.258
300.876	15.480	833.509	628.998
301.891	15.469	832.818	628.379
302.906	15.583	832.164	628.255
303.920	15.835	830.656	628.004
304.935	15.727	830.247	627.236
305.949	15.676	830.195	626.950
306.964	15.718	829.642	626.633
307.979	15.700	828.864	625.922
308.993	15.662	828.827	625.699
310.008	15.687	828.126	625.206
311.022	15.870	827.276	625.188
312.037	15.728	826.918	624.336
313.052	15.786	826.614	624.268
314.066	15.814	825.539	623.505
315.081	15.854	825.024	623.205
316.095	15.704	824.382	622.110
317.110	15.689	824.271	621.919
318.125	15.789	823.595	621.721
319.139	15.720	823.073	621.019
320.154	15.805	822.617	620.933
321.168	15.771	822.094	620.356
322.183	15.872	821.719	620.394
323.197	15.748	821.408	619.644
324.212	15.873	819.976	618.970
325.227	15.822	820.113	618.832
326.241	15.823	819.425	618.261
327.256	15.749	819.235	617.791
328.270	15.961	817.971	617.560
329.285	15.768	817.891	616.739
330.300	15.890	817.205	616.613
331.314	15.835	816.380	615.735
332.329	15.973	815.946	615.857
333.343	15.983	815.434	615.451
334.358	15.978	814.957	615.019
335.373	16.083	814.660	615.125
336.387	16.067	813.995	614.509
337.402	16.092	813.440	614.129
338.416	16.041	812.961	613.526
339.431	16.144	812.554	613.540
340.446	16.113	811.949	612.917
341.460	16.334	811.169	613.076
342.475	16.447	810.724	613.095
343.489	16.352	810.127	612.245
344.504	16.418	809.600	612.030
345.519	16.348	809.100	611.344
346.533	16.464	808.671	611.387
347.548	16.402	808.720	611.146
348.562	16.283	807.958	610.086
349.577	16.147	807.148	608.929
350.592	16.193	806.675	608.683
351.606	16.208	806.259	608.369
352.621	16.239	805.896	608.156
353.635	16.273	805.097	607.618
354.650	16.304	804.868	607.505
355.665	16.168	804.598	606.759
356.679	16.424	804.130	607.273
357.694	16.336	803.741	606.608
358.708	16.300	802.957	605.834
359.723	16.348	802.434	605.557
360.738	16.417	801.906	605.353
361.752	16.522	801.531	605.392
362.767	16.450	801.173	604.809
363.781	16.540	800.794	604.791
364.796	16.579	800.318	604.521
365.810	16.627	799.880	604.305
366.825	16.717	799.011	603.918
367.840	16.671	799.181	603.827
368.854	16.543	798.792	603.026
369.869	16.609	798.117	602.696
370.883	16.655	797.360	602.235
371.898	16.723	796.926	602.095
372.913	16.684	796.420	601.521
373.927	16.675	795.904	601.046
374.942	16.728	795.207	600.656
375.956	16.607	794.568	599.690
376.971	16.747	794.217	599.867
377.986	16.838	793.420	599.536
379.000	16.827	793.124	599.222
380.015	16.892	792.475	598.907
381.029	16.965	791.842	598.633
382.044	16.994	791.203	598.198
383.059	16.837	791.152	597.554
384.073	17.015	790.400	597.559
385.088	17.022	789.887	597.143
386.102	16.783	789.293	595.803
387.117	16.770	788.940	595.435
388.132	16.858	788.299	595.210
389.146	16.875	787.887	594.904
390.161	16.875	787.857	594.830
391.175	16.909	787.376	594.535
392.190	17.135	786.557	594.654
393.205	17.023	786.629	594.262
394.219	16.906	785.947	593.284
395.234	16.994	785.259	593.021
396.248	16.829	784.941	592.154
397.263	16.829	784.348	591.653
398.278	16.864	784.116	591.550
399.292	16.853	783.676	591.127
400.307	16.757	783.586	590.671
401.321	16.920	782.939	590.699
402.336	16.968	782.396	590.404
403.350	17.044	781.819	590.180
404.365	17.070	781.597	590.050
405.380	17.103	781.318	589.902
406.394	16.955	781.094	589.165
407.409	17.162	780.532	589.407
408.423	17.220	780.050	589.195
409.438	17.219	779.589	588.791
410.453	17.415	778.765	588.793
411.467	17.382	778.739	588.607
412.482	17.336	778.050	587.876
413.496	17.341	777.763	587.627
414.511	17.412	777.275	587.448
415.526	17.395	777.020	587.145
416.540	17.343	776.597	586.596
417.555	17.369	776.358	586.452
418.569	17.527	775.747	586.483
419.584	17.406	775.256	585.644
420.599	17.282	775.108	585.052
421.613	108.781	1288.274	1464.086
422.628	92.933	1363.014	1464.176
