DTS Sentinel unit serial number:	SN413079Multiplexer serial number:	ORYXHardware model number:	OX4-SRSoftware version number:	ORYX F/W v4.00 Oryx Data Collector v3.7.2.0data status	okinstallation	princeton_trtdifferential loss correction	single-endedforward channel	channel 3reverse channel	N/Adate	2019/09/18time	21:12:34forward acquisition time	60.00reverse acquisition time	0.00gamma	496.2192k internal	0.2345k external	0.2345temperature offset calibration	0.9995default loss term (dB/km)	0.3790temperature slope calibration	1.0000multiplexer offset coefficient	1.0000multiplexer slope coefficient	1.0000fibre end	0.00T internal ref (°C)	25.95T ext. ref 1 (°C)	0.83T ext. ref 2 (°C)	18.07length (m)	temperature (°C)	Stokes	anti-Stokes-747.200	-70.223	0.133	0.051
-746.185	-49.259	-0.121	0.058
-745.171	-115.884	-0.052	-0.010
-744.156	192.281	0.008	-0.012
-743.142	-200.000	0.012	-0.141
-742.127	-28.744	-0.291	0.168
-741.112	800.000	0.081	0.342
-740.098	-200.000	0.072	0.511
-739.083	-200.000	-0.049	0.320
-738.069	-110.568	-0.221	0.046
-737.054	800.000	0.104	-0.321
-736.039	211.368	0.128	-0.202
-735.025	800.000	0.053	0.161
-734.010	-46.778	-0.175	0.086
-732.996	-200.000	0.057	-0.308
-731.981	-61.323	-0.341	0.143
-730.966	308.007	-0.079	-0.148
-729.952	42.768	-0.103	-0.094
-728.937	-68.433	-0.287	0.111
-727.923	800.000	-0.029	0.100
-726.908	-58.872	0.090	0.039
-725.894	211.795	-0.190	-0.299
-724.879	-129.612	-0.242	0.033
-723.864	-200.000	-0.089	0.392
-722.850	800.000	-0.107	0.365
-721.835	798.715	-0.065	-0.179
-720.821	-148.017	0.196	0.016
-719.806	268.419	-0.107	-0.187
-718.791	-38.851	-0.275	-0.145
-717.777	-200.000	-0.034	0.387
-716.762	3.395	0.144	0.105
-715.748	389.529	0.056	0.115
-714.733	75.074	-0.114	0.120
-713.718	305.127	-0.109	-0.203
-712.704	-16.794	0.079	0.050
-711.689	800.000	0.042	0.146
-710.675	206.222	0.151	0.235
-709.660	299.545	0.176	-0.324
-708.645	356.984	0.147	-0.293
-707.631	-132.794	0.274	-0.035
-706.616	-41.819	0.383	-0.196
-705.602	-119.793	-0.169	0.029
-704.587	-8.757	0.379	0.254
-703.572	-200.000	-0.015	0.225
-702.558	-171.662	0.170	0.006
-701.543	-162.173	-0.072	0.004
-700.529	148.260	-0.056	-0.075
-699.514	-93.800	0.187	-0.052
-698.499	-200.000	0.025	0.111
-697.485	-162.409	-0.259	-0.013
-696.470	-130.680	-0.194	-0.026
-695.456	-141.097	-0.052	-0.005
-694.441	-107.472	-0.164	0.036
-693.426	-200.000	-0.106	0.000
-692.412	-141.607	0.308	-0.031
-691.397	-53.627	0.249	0.114
-690.383	800.000	0.069	0.227
-689.368	425.455	-0.036	0.077
-688.354	-84.360	-0.100	-0.031
-687.339	-200.000	0.032	-0.272
-686.324	333.887	0.063	-0.121
-685.310	-115.199	0.325	-0.061
-684.295	-35.268	-0.095	0.052
-683.281	61.846	0.079	0.078
-682.266	42.999	0.208	-0.189
-681.251	800.000	-0.085	-0.286
-680.237	-153.225	-0.323	-0.023
-679.222	328.521	0.197	0.378
-678.208	-143.724	-0.356	-0.034
-677.193	192.357	-0.228	-0.343
-676.178	-24.504	-0.135	-0.080
-675.164	-200.000	-0.016	-0.236
-674.149	-43.636	-0.222	0.112
-673.135	-60.413	-0.217	-0.092
-672.120	-36.616	0.419	-0.225
-671.105	317.724	0.138	0.260
-670.091	16.527	-0.080	-0.063
-669.076	-69.380	-0.151	-0.058
-668.062	-50.008	-0.059	-0.028
-667.047	-200.000	0.063	-0.409
-666.032	576.748	0.120	0.293
-665.018	75.825	-0.234	-0.247
-664.003	36.840	-0.204	-0.180
-662.989	-65.224	-0.412	-0.166
-661.974	380.758	-0.136	-0.278
-660.959	734.156	0.058	0.156
-659.945	131.965	-0.259	0.333
-658.930	800.000	-0.146	-0.484
-657.916	800.000	0.082	-0.285
-656.901	-51.529	-0.161	0.075
-655.886	-124.907	-0.132	0.020
-654.872	95.530	-0.221	-0.252
-653.857	-200.000	-0.031	-0.220
-652.843	-106.891	-0.035	-0.008
-651.828	265.760	-0.106	-0.184
-650.814	354.815	0.084	-0.167
-649.799	219.643	-0.125	0.200
-648.784	-147.489	-0.108	-0.009
-647.770	-156.315	0.225	0.014
-646.755	-200.000	0.024	-0.250
-645.741	-15.166	-0.148	0.094
-644.726	-81.780	-0.062	0.020
-643.711	714.061	-0.030	-0.078
-642.697	117.920	-0.034	-0.042
-641.682	-147.718	0.236	-0.020
-640.668	527.213	-0.134	-0.315
-639.653	24.707	0.362	-0.299
-638.638	800.000	-0.074	-0.208
-637.624	59.893	0.119	-0.117
-636.609	800.000	-0.037	0.138
-635.595	485.186	-0.096	0.217
-634.580	-71.958	-0.076	-0.028
-633.565	266.682	-0.064	0.112
-632.551	123.033	-0.247	0.309
-631.536	800.000	-0.067	0.194
-630.522	-59.602	-0.037	0.016
-629.507	-11.158	0.367	0.241
-628.492	-101.470	0.206	0.050
-627.478	12.871	-0.134	-0.103
-626.463	18.024	0.212	-0.168
-625.449	32.503	-0.139	0.119
-624.434	-90.135	0.185	0.054
-623.419	150.861	-0.168	-0.227
-622.405	-71.537	0.279	-0.104
-621.390	152.096	-0.199	-0.270
-620.376	129.095	0.091	-0.115
-619.361	597.888	0.060	0.148
-618.346	15.705	-0.158	-0.124
-617.332	-109.452	-0.288	-0.061
-616.317	800.000	0.007	-0.028
-615.303	-10.626	-0.150	0.099
-614.288	-200.000	-0.025	-0.133
-613.273	20.255	-0.124	0.100
-612.259	-192.520	-0.074	-0.001
-611.244	-108.422	0.313	-0.067
-610.230	-24.304	0.119	-0.071
-609.215	-92.493	0.143	-0.040
-608.201	-171.976	-0.195	0.006
-607.186	1.887	0.157	0.113
-606.171	87.433	-0.048	0.053
-605.157	-35.839	-0.156	0.084
-604.142	-183.887	0.048	0.001
-603.128	71.464	-0.158	-0.163
-602.113	141.214	0.157	-0.207
-601.098	-110.089	-0.361	-0.075
-600.084	43.137	-0.123	0.112
-599.069	800.000	-0.005	0.022
-598.055	-139.982	-0.102	0.011
-597.040	-200.000	0.022	0.302
-596.025	82.615	-0.129	0.139
-595.011	-8.780	-0.051	0.034
-593.996	-39.119	-0.233	0.122
-592.982	27.618	-0.200	0.167
-591.967	-200.000	0.034	0.398
-590.952	-144.839	0.246	-0.022
-589.938	143.907	-0.029	0.038
-588.923	-200.000	0.004	-0.107
-587.909	336.735	-0.133	-0.258
-586.894	160.170	0.088	-0.122
-585.879	-57.578	0.222	-0.097
-584.865	-84.603	-0.364	-0.114
-583.850	-122.784	-0.240	-0.038
-582.836	-200.000	-0.038	-0.238
-581.821	637.129	0.052	0.130
-580.806	437.532	0.084	-0.183
-579.792	75.809	0.141	-0.148
-578.777	23.802	-0.109	-0.089
-577.763	-135.489	0.101	-0.012
-576.748	-46.740	-0.241	0.117
-575.733	-101.306	0.307	-0.075
-574.719	-200.000	0.045	-0.237
-573.704	41.401	0.208	0.187
-572.690	-56.872	-0.215	0.094
-571.675	52.278	0.244	-0.231
-570.661	-158.604	-0.301	-0.017
-569.646	-160.700	0.212	-0.011
-568.631	-118.827	-0.115	0.020
-567.617	-20.364	-0.142	0.087
-566.602	-200.000	-0.008	-0.065
-565.588	40.527	0.323	-0.289
-564.573	-200.000	-0.021	0.170
-563.558	-200.000	-0.021	0.226
-562.544	52.830	0.105	0.099
-561.529	-200.000	0.000	0.330
-560.515	77.092	0.070	-0.074
-559.500	24.875	0.237	0.195
-558.485	-70.359	-0.158	-0.059
-557.471	14.102	0.329	-0.255
-556.456	-130.454	0.305	0.041
-555.442	132.249	-0.093	-0.119
-554.427	-200.000	0.043	-0.228
-553.412	-103.407	-0.286	-0.067
-552.398	-118.977	-0.396	-0.069
-551.383	338.789	-0.134	-0.259
-550.369	-200.000	0.026	-0.162
-549.354	-90.223	0.059	-0.017
-548.339	255.088	0.081	-0.137
-547.325	230.705	0.044	-0.071
-546.310	12.828	-0.037	0.028
-545.296	-34.877	-0.270	0.146
-544.281	-0.653	0.185	0.130
-543.266	-200.000	0.039	0.187
-542.252	-170.225	0.183	-0.006
-541.237	-99.935	-0.057	-0.014
-540.223	-138.364	0.670	0.073
-539.208	-200.000	0.034	0.396
-538.193	-106.303	0.077	0.017
-537.179	209.751	-0.059	0.092
-536.164	-49.697	-0.086	0.040
-535.150	-200.000	0.005	-0.104
-534.135	-82.078	0.181	-0.059
-533.121	158.879	-0.108	-0.149
-532.106	-103.806	0.065	-0.015
-531.091	182.125	-0.175	-0.255
-530.077	30.853	-0.182	0.155
-529.062	-200.000	0.007	0.222
-528.048	406.674	-0.027	-0.057
-527.033	800.000	-0.106	-0.377
-526.018	60.689	0.175	-0.173
-525.004	103.571	0.056	-0.065
-523.989	101.267	0.119	-0.137
-522.975	41.096	-0.188	-0.169
-521.960	304.816	-0.063	-0.117
-520.945	-93.598	0.173	0.047
-519.931	800.000	0.076	0.310
-518.916	318.904	-0.071	0.134
-517.902	94.299	0.240	0.270
-516.887	800.000	0.096	-0.286
-515.872	-25.684	-0.073	-0.043
-514.858	-99.692	0.109	-0.027
-513.843	444.388	0.059	0.128
-512.829	6.834	-0.180	-0.133
-511.814	-33.896	-0.259	0.141
-510.799	189.958	0.236	0.351
-509.785	-200.000	0.007	-0.147
-508.770	-154.359	0.139	-0.009
-507.756	-200.000	-0.016	0.193
-506.741	-101.955	-0.080	0.019
-505.726	13.447	0.223	0.171
-504.712	800.000	0.042	0.154
-503.697	544.879	-0.087	-0.206
-502.683	-75.831	0.420	-0.148
-501.668	-32.327	-0.183	-0.101
-500.653	800.000	-0.039	-0.112
-499.639	-200.000	-0.069	-0.472
-498.624	-81.295	-0.377	-0.123
-497.610	800.000	0.088	0.350
-496.595	306.720	-0.082	0.152
-495.581	26.236	-0.218	0.180
-494.566	138.974	-0.142	-0.185
-493.551	663.994	-0.090	0.230
-492.537	127.352	-0.134	-0.168
-491.522	-118.149	0.419	-0.074
-490.508	33.837	-0.224	0.193
-489.493	375.880	-0.134	0.272
-488.478	800.000	-0.070	0.239
-487.464	-170.400	-0.257	-0.009
-486.449	638.417	0.125	0.315
-485.435	-200.000	-0.059	-0.274
-484.420	-124.282	-0.243	0.038
-483.405	800.000	-0.029	0.081
-482.391	437.631	0.153	-0.330
-481.376	-111.857	-0.216	0.043
-480.362	-200.000	0.042	0.285
-479.347	-200.000	0.007	-0.258
-478.332	66.328	-0.174	-0.176
-477.318	106.049	0.172	0.202
-476.303	-200.000	-0.030	-0.167
-475.289	-182.404	0.107	-0.002
-474.274	57.296	-0.261	0.252
-473.259	62.033	0.055	-0.055
-472.245	18.746	-0.128	-0.101
-471.230	-200.000	-0.023	-0.231
-470.216	21.538	-0.216	0.174
-469.201	-35.281	-0.163	0.088
-468.186	-200.000	-0.223	-0.000
-467.172	-160.269	-0.291	0.016
-466.157	-24.044	0.100	0.059
-465.143	-200.000	0.049	-0.282
-464.128	494.210	-0.083	-0.188
-463.113	-37.044	-0.198	-0.105
-462.099	218.793	0.116	0.184
-461.084	67.307	-0.076	0.076
-460.070	59.740	0.101	0.099
-459.055	274.861	0.045	0.079
-458.040	483.187	-0.108	-0.244
-457.026	11.142	-0.165	0.125
-456.011	800.000	0.091	0.304
-454.997	270.965	-0.121	-0.210
-453.982	-200.000	0.035	0.234
-452.968	-200.000	0.022	0.154
-451.953	800.000	0.066	-0.203
-450.938	138.153	-0.222	-0.288
-449.924	-101.826	0.111	0.026
-448.909	43.359	-0.161	-0.146
-447.895	273.311	0.209	-0.365
-446.880	198.117	-0.220	0.333
-445.865	-108.917	-0.134	0.028
-444.851	800.000	-0.059	0.189
-443.836	228.109	-0.231	0.372
-442.822	-43.689	0.211	0.105
-441.807	780.548	0.130	0.352
-440.792	-85.943	-0.147	-0.045
-439.778	-142.767	-0.210	0.020
-438.763	-19.687	-0.177	-0.108
-437.749	338.743	0.125	-0.241
-436.734	-52.608	0.242	0.110
-435.719	800.000	-0.061	0.168
-434.705	-200.000	-0.063	0.335
-433.690	-83.013	-0.477	0.152
-432.676	-200.000	0.010	-0.163
-431.661	-200.000	0.100	-0.000
-430.646	-67.003	0.243	0.095
-429.632	509.819	0.140	0.321
-428.617	310.517	-0.028	-0.053
-427.603	126.635	0.062	0.078
-426.588	-10.112	0.110	0.072
-425.573	68.403	0.153	-0.155
-424.559	198.123	-0.073	-0.111
-423.544	-200.000	-0.018	-0.086
-422.530	386.009	0.093	0.190
-421.515	800.000	-0.053	-0.219
-420.500	-200.000	-0.007	-0.231
-419.486	750.197	-0.036	0.095
-418.471	-200.000	-0.011	-0.115
-417.457	800.000	-0.116	0.365
-416.442	-200.000	0.033	0.168
-415.428	800.000	-0.063	-0.240
-414.413	-138.421	0.254	-0.028
-413.398	-77.715	-0.324	0.111
-412.384	739.175	0.096	-0.254
-411.369	421.967	-0.071	0.150
-410.355	-164.838	-0.116	0.005
-409.340	800.000	-0.019	0.062
-408.325	-200.000	-0.004	0.097
-407.311	205.469	-0.017	0.026
-406.296	112.582	-0.243	0.290
-405.282	-123.589	0.408	-0.064
-404.267	712.279	0.101	0.264
-403.252	85.747	-0.102	-0.111
-402.238	151.013	0.298	0.400
-401.223	-102.471	-0.103	-0.024
-400.209	-200.000	0.040	-0.449
-399.194	-131.567	0.150	-0.020
-398.179	-50.932	0.246	-0.114
-397.165	-46.324	-0.287	-0.139
-396.150	800.000	0.055	0.191
-395.136	-200.000	-0.004	-0.100
-394.121	-112.916	0.066	0.013
-393.106	-164.915	-0.099	-0.004
-392.092	800.000	0.091	-0.300
-391.077	26.986	-0.200	-0.165
-390.063	122.055	-0.156	-0.192
-389.048	261.299	0.150	-0.256
-388.033	206.511	-0.056	-0.086
-387.019	339.322	-0.153	-0.295
-386.004	-200.000	-0.020	0.089
-384.990	800.000	0.113	0.352
-383.975	88.382	-0.214	-0.235
-382.960	-98.973	-0.355	0.089
-381.946	-71.730	0.250	0.092
-380.931	800.000	-0.034	-0.143
-379.917	-200.000	0.006	0.059
-378.902	311.949	-0.061	0.114
-377.888	-134.302	-0.168	-0.020
-376.873	-200.000	0.018	-0.228
-375.858	551.550	-0.083	0.197
-374.844	-200.000	-0.029	-0.142
-373.829	26.798	0.228	-0.188
-372.815	305.700	0.152	0.278
-371.800	468.882	0.061	-0.135
-370.785	800.000	-0.049	-0.133
-369.771	-72.112	-0.235	-0.086
-368.756	-200.000	-0.023	0.185
-367.742	-71.456	-0.223	-0.082
-366.727	-137.621	-0.207	-0.023
-365.712	-99.363	-0.200	0.050
-364.698	53.090	0.219	0.207
-363.683	325.681	-0.135	-0.255
-362.669	121.239	-0.050	0.061
-361.654	60.762	0.194	-0.190
-360.639	-2.923	0.340	-0.234
-359.625	-1.614	-0.244	-0.170
-358.610	-54.110	-0.293	-0.131
-357.596	-200.000	0.020	0.117
-356.581	31.940	-0.164	-0.139
-355.566	800.000	0.059	0.218
-354.552	-83.879	-0.214	0.067
-353.537	800.000	-0.032	-0.101
-352.523	358.710	-0.074	-0.146
-351.508	-141.067	0.372	-0.038
-350.493	-200.000	0.039	0.325
-349.479	646.636	0.123	-0.308
-348.464	800.000	0.070	-0.295
-347.450	-200.000	-0.006	0.114
-346.435	-103.666	0.154	0.036
-345.420	565.009	-0.140	-0.334
-344.406	-13.382	-0.118	0.075
-343.391	398.865	-0.069	0.141
-342.377	68.246	0.021	-0.021
-341.362	464.146	0.060	-0.133
-340.348	19.464	0.134	0.106
-339.333	800.000	-0.088	0.285
-338.318	-90.537	0.201	-0.057
-337.304	15.373	-0.078	-0.060
-336.289	800.000	-0.036	-0.114
-335.275	-50.474	0.112	0.052
-334.260	-106.078	-0.366	-0.081
-333.245	-9.216	-0.127	0.083
-332.231	-200.000	0.063	-0.300
-331.216	7.052	0.244	-0.179
-330.202	-140.736	0.231	-0.024
-329.187	-82.225	-0.135	0.043
-328.172	-90.124	0.314	0.090
-327.158	800.000	0.038	0.135
-326.143	-70.755	0.242	0.090
-325.129	-78.656	-0.177	-0.060
-324.114	-200.000	-0.000	0.315
-323.099	-200.000	0.043	-0.274
-322.085	-107.433	-0.263	-0.057
-321.070	488.694	0.054	-0.121
-320.056	-8.530	-0.165	-0.109
-319.041	379.234	0.074	0.150
-318.026	-200.000	0.008	-0.101
-317.012	4.767	0.085	-0.061
-315.997	80.332	-0.042	0.045
-314.983	-2.050	0.192	-0.132
-313.968	68.184	-0.059	-0.060
-312.953	-200.000	-0.016	0.074
-311.939	63.588	0.203	0.200
-310.924	-200.000	0.062	0.287
-309.910	38.350	-0.052	0.045
-308.895	550.426	-0.047	-0.111
-307.880	-200.000	0.033	-0.351
-306.866	-116.910	-0.659	-0.119
-305.851	-200.000	0.005	0.377
-304.837	187.654	-0.085	-0.124
-303.822	105.548	0.150	-0.174
-302.807	-200.000	0.007	-0.162
-301.793	-200.000	-0.030	0.189
-300.778	141.823	0.137	-0.179
-299.764	239.038	0.080	0.131
-298.749	800.000	-0.059	0.190
-297.735	340.117	0.082	-0.157
-296.720	29.597	0.094	-0.079
-295.705	-92.144	-0.213	-0.059
-294.691	-200.000	-0.003	0.081
-293.676	72.933	0.232	-0.239
-292.662	800.000	-0.089	0.384
-291.647	-200.000	-0.021	0.151
-290.632	-75.545	-0.284	-0.099
-289.618	-23.536	0.139	-0.082
-288.603	36.704	-0.074	-0.064
-287.589	177.027	0.140	-0.201
-286.574	800.000	-0.083	0.238
-285.559	533.198	0.207	0.482
-284.545	-88.890	-0.218	0.063
-283.530	107.452	-0.084	-0.098
-282.516	-200.000	-0.015	0.129
-281.501	531.234	-0.080	0.187
-280.486	240.387	0.114	0.188
-279.472	800.000	0.004	-0.016
-278.457	-200.000	-0.028	-0.381
-277.443	-69.140	0.225	-0.085
-276.428	-143.263	-0.107	-0.010
-275.413	74.323	0.088	0.091
-274.399	311.075	-0.076	0.139
-273.384	544.928	0.034	-0.079
-272.370	26.045	-0.066	-0.054
-271.355	368.801	-0.120	-0.238
-270.340	108.870	-0.066	0.078
-269.326	291.873	-0.047	0.084
-268.311	-94.658	0.238	-0.064
-267.297	-200.000	-0.057	-0.259
-266.282	14.457	0.140	0.107
-265.267	-50.985	-0.248	-0.114
-264.253	800.000	-0.083	0.339
-263.238	206.056	-0.094	0.143
-262.224	72.069	0.106	0.108
-261.209	287.378	-0.107	0.189
-260.195	-21.726	-0.025	0.015
-259.180	495.090	-0.118	-0.267
-258.165	47.803	-0.177	-0.163
-257.151	128.302	-0.213	-0.266
-256.136	369.746	0.060	-0.119
-255.122	272.031	-0.136	0.236
-254.107	61.025	-0.073	-0.072
-253.092	254.509	-0.053	-0.090
-252.078	-113.135	0.322	0.062
-251.063	1.048	-0.177	-0.125
-250.049	-200.000	0.000	-0.404
-249.034	-51.833	0.117	-0.053
-248.019	-126.170	0.260	-0.038
-247.005	160.568	-0.073	0.100
-245.990	-70.630	0.347	0.129
-244.976	-200.000	-0.009	-0.233
-243.961	114.477	-0.147	0.175
-242.946	212.522	0.177	0.274
-241.932	55.424	-0.159	0.151
-240.917	-169.460	0.432	-0.016
-239.903	188.864	-0.114	-0.167
-238.888	-113.078	-0.180	0.035
-237.873	-200.000	0.021	0.130
-236.859	-87.715	0.155	-0.046
-235.844	800.000	-0.121	0.356
-234.830	52.148	-0.130	-0.121
-233.815	118.866	0.141	-0.171
-232.800	-157.236	0.450	0.027
-231.786	18.213	0.057	-0.044
-230.771	-73.841	0.184	0.066
-229.757	-127.931	0.221	0.031
-228.742	-65.175	0.194	-0.077
-227.727	51.751	-0.164	0.153
-226.713	104.477	0.180	0.208
-225.698	135.863	0.336	0.429
-224.684	372.181	0.142	0.282
-223.669	138.066	0.133	0.172
-222.655	-133.925	-0.204	-0.025
-221.640	217.313	0.170	0.265
-220.625	-200.000	0.012	-0.096
-219.611	-26.260	0.104	0.060
-218.596	-200.000	0.022	0.252
-217.582	273.709	-0.084	-0.145
-216.567	39.991	0.319	0.281
-215.552	-154.582	0.257	-0.017
-214.538	59.634	-0.121	-0.117
-213.523	173.951	-0.120	-0.170
-212.509	249.898	-0.119	-0.199
-211.494	-81.277	0.296	0.096
-210.479	201.915	-0.030	-0.045
-209.465	5.579	-0.137	0.099
-208.450	-103.327	0.337	-0.078
-207.436	-61.720	-0.139	0.057
-206.421	-117.390	0.235	0.042
-205.406	800.000	0.051	-0.169
-204.392	-57.196	-0.076	0.033
-203.377	-139.883	-0.203	-0.021
-202.363	-200.000	0.001	-0.075
-201.348	27.821	0.175	0.145
-200.333	-200.000	0.022	0.392
-199.319	41.735	-0.129	-0.115
-198.304	573.429	0.056	0.135
-197.290	-165.966	0.081	0.003
-196.275	195.562	-0.044	-0.065
-195.260	33.073	-0.072	0.061
-194.246	-32.923	-0.233	-0.127
-193.231	-41.494	0.264	0.133
-192.217	-81.417	0.147	0.047
-191.202	8.351	0.211	0.155
-190.187	-200.000	-0.060	-0.451
-189.173	800.000	-0.070	-0.221
-188.158	420.877	-0.108	0.228
-187.144	-149.251	0.253	-0.020
-186.129	-73.724	0.091	-0.033
-185.114	-200.000	-0.028	0.202
-184.100	361.165	-0.088	0.174
-183.085	800.000	-0.072	0.211
-182.071	261.099	0.029	0.050
-181.056	-169.912	0.090	-0.003
-180.042	31.234	-0.218	0.183
-179.027	-200.000	0.022	0.171
-178.012	-200.000	-0.021	0.105
-176.998	-172.340	-0.170	0.005
-175.983	-97.604	-0.199	-0.051
-174.969	-24.352	-0.226	-0.132
-173.954	800.000	0.149	-0.444
-172.939	-37.487	0.519	-0.271
-171.925	800.000	0.024	0.076
-170.910	-21.647	0.189	-0.112
-169.896	-100.492	-0.145	0.035
-168.881	172.011	-0.074	0.105
-167.866	-108.282	0.096	-0.020
-166.852	-100.734	-0.129	-0.031
-165.837	-39.367	0.067	-0.034
-164.823	-200.000	0.094	-0.422
-163.808	-182.740	-0.131	-0.002
-162.793	-110.878	0.263	-0.053
-161.779	-118.015	0.036	0.006
-160.764	198.018	-0.150	-0.224
-159.750	-96.540	0.465	0.120
-158.735	-50.915	-0.242	0.111
-157.720	504.530	0.106	0.240
-156.706	-45.023	0.187	-0.091
-155.691	-16.472	0.183	0.114
-154.677	87.340	0.223	0.241
-153.662	388.874	0.041	-0.084
-152.647	-200.000	-0.017	-0.204
-151.633	-200.000	0.053	0.230
-150.618	-133.500	-0.076	0.009
-149.604	-200.000	-0.013	0.157
-148.589	350.332	0.221	0.426
-147.574	774.917	0.152	0.404
-146.560	166.762	0.157	0.218
-145.545	-200.000	-0.016	-0.176
-144.531	745.735	0.046	0.122
-143.516	-90.910	0.223	-0.063
-142.502	395.506	-0.089	-0.182
-141.487	112.426	0.178	-0.211
-140.472	-200.000	0.001	-0.055
-139.458	-4.617	0.149	-0.100
-138.443	-69.338	-0.370	0.139
-137.429	-114.104	0.104	-0.020
-136.414	-76.320	-0.164	-0.056
-135.399	-40.091	-0.021	-0.011
-134.385	138.319	-0.185	0.237
-133.370	-161.799	-0.220	-0.011
-132.356	440.581	0.091	-0.194
-131.341	-200.000	0.000	-0.243
-130.326	69.578	-0.212	0.214
-129.312	-122.780	0.179	-0.028
-128.297	536.798	0.123	0.286
-127.283	477.705	-0.060	-0.132
-126.268	-14.196	0.210	0.132
-125.253	800.000	-0.094	0.277
-124.239	214.332	0.046	0.070
-123.224	-28.197	0.089	0.050
-122.210	100.155	-0.051	0.058
-121.195	-34.685	-0.068	0.036
-120.180	-80.424	-0.110	0.036
-119.166	-200.000	-0.024	0.108
-118.151	161.278	0.086	0.117
-117.137	-13.378	-0.048	-0.030
-116.122	-148.828	0.242	-0.019
-115.107	289.019	-0.179	0.316
-114.093	800.000	-0.062	0.195
-113.078	201.466	-0.091	-0.137
-112.064	800.000	0.147	0.411
-111.049	250.627	0.060	-0.100
-110.034	-200.000	0.103	-0.448
-109.020	33.064	0.193	0.164
-108.005	800.000	-0.073	-0.209
-106.991	41.268	-0.115	0.101
-105.976	-200.000	-0.005	0.043
-104.962	155.166	-0.225	-0.302
-103.947	800.000	0.049	0.139
-102.932	29.341	-0.056	0.046
-101.918	44.187	0.192	-0.172
-100.903	-200.000	-0.047	0.309
-99.889	-102.035	-0.093	0.022
-98.874	11.058	0.249	-0.186
-97.859	0.546	0.107	-0.074
-96.845	800.000	0.030	-0.118
-95.830	-81.642	-0.149	-0.048
-94.816	-179.671	0.283	0.006
-93.801	-181.320	0.179	-0.003
-92.786	-112.114	-0.167	0.033
-91.772	-18.222	-0.283	0.173
-90.757	712.914	0.051	-0.131
-89.743	800.000	0.052	-0.209
-88.728	-107.942	0.128	-0.027
-87.713	-23.936	-0.105	-0.061
-86.699	-75.659	0.127	-0.044
-85.684	-32.635	-0.261	0.141
-84.670	88.990	0.170	0.185
-83.655	-200.000	0.013	0.138
-82.640	379.148	0.135	-0.269
-81.626	-147.127	-0.151	0.013
-80.611	-35.436	-0.159	-0.084
-79.597	-110.539	-0.435	-0.088
-78.582	800.000	-0.154	0.455
-77.567	507.882	-0.103	0.234
-76.553	-200.000	0.025	-0.176
-75.538	474.054	-0.087	0.190
-74.524	-73.967	-0.211	0.075
-73.509	739.522	-0.141	-0.370
-72.494	-200.000	-0.007	0.171
-71.480	-13.209	-0.342	0.216
-70.465	21.621	-0.028	0.022
-69.451	164.998	-0.147	0.202
-68.436	18.501	-0.118	0.092
-67.422	259.752	-0.274	0.461
-66.407	-46.722	-0.178	0.085
-65.392	51.325	0.205	0.189
-64.378	-145.053	0.213	-0.019
-63.363	-29.681	0.221	0.123
-62.349	-200.000	0.004	-0.120
-61.334	-7.020	-1.203	-0.796
-60.319	-31.205	0.670	0.368
-59.305	800.000	-0.448	-1.295
-58.290	253.520	0.857	1.426
-57.276	385.348	0.829	1.665
-56.261	-200.000	119.166	620.004
-55.246	409.918	1534.114	3166.291
-54.232	148.679	2685.369	3534.214
-53.217	96.989	2150.462	2401.369
-52.203	35.866	1675.719	1435.309
-51.188	29.107	1491.907	1232.750
-50.173	26.886	1467.666	1198.025
-49.159	47.832	1534.061	1394.873
-48.144	46.459	1548.050	1398.218
-47.130	29.090	1499.223	1238.482
-46.115	26.174	1483.673	1206.144
-45.100	25.944	1480.548	1202.018
-44.086	25.945	1478.083	1199.977
-43.071	25.913	1476.337	1198.303
-42.057	25.849	1474.521	1196.353
-41.042	25.957	1473.012	1195.800
-40.027	25.930	1472.054	1194.795
-39.013	25.895	1470.325	1193.116
-37.998	25.778	1469.461	1191.588
-36.984	25.915	1468.279	1191.491
-35.969	26.053	1466.284	1190.739
-34.954	25.907	1465.660	1189.220
-33.940	25.884	1464.092	1187.749
-32.925	25.980	1463.288	1187.683
-31.911	26.068	1460.773	1186.171
-30.896	26.028	1460.136	1185.340
-29.881	26.066	1458.994	1184.615
-28.867	26.048	1457.645	1183.356
-27.852	26.006	1456.514	1182.117
-26.838	25.983	1454.995	1180.686
-25.823	25.982	1453.385	1179.330
-24.809	25.970	1452.008	1178.087
-23.794	26.039	1450.159	1176.989
-22.779	25.874	1449.617	1175.425
-21.765	26.047	1448.097	1175.272
-20.750	25.958	1447.223	1173.934
-19.736	25.983	1446.054	1173.108
-18.721	25.909	1445.543	1172.160
-17.706	25.948	1444.301	1171.365
-16.692	25.972	1443.113	1170.510
-15.677	25.913	1442.354	1169.463
-14.663	26.009	1441.525	1169.365
-13.648	25.897	1440.343	1167.635
-12.633	25.950	1439.419	1167.186
-11.619	25.826	1439.009	1166.006
-10.604	26.010	1437.857	1166.212
-9.590	25.968	1436.926	1165.141
-8.575	25.938	1436.335	1164.423
-7.560	25.954	1434.885	1163.305
-6.546	26.035	1434.070	1163.118
-5.531	25.835	1433.810	1161.568
-4.517	25.934	1432.448	1161.060
-3.502	25.909	1431.961	1160.459
-2.487	25.947	1430.868	1159.773
-1.473	25.920	1429.736	1158.631
-0.458	25.977	1428.219	1157.722
0.556	24.816	1417.984	1144.287
1.571	20.988	1393.137	1100.035
2.586	16.872	1331.245	1026.202
3.600	14.816	1249.014	951.040
4.615	13.648	1205.605	911.489
5.629	12.078	1151.255	862.071
6.644	6.538	1072.378	775.739
7.659	1.627	1036.103	726.041
8.673	0.954	1030.634	718.950
9.688	0.760	1027.602	715.851
10.702	0.792	1026.647	715.271
11.717	0.834	1024.131	713.656
12.731	2.677	1025.069	722.943
13.746	9.088	1033.397	759.149
14.761	14.911	1042.041	793.120
15.775	17.251	1043.593	805.335
16.790	17.119	1042.094	803.483
17.804	16.063	1040.365	797.087
18.819	15.253	1037.786	791.220
19.834	14.840	1036.855	788.492
20.848	14.607	1035.618	786.385
21.863	14.335	1035.310	784.797
22.877	14.056	1034.565	782.849
23.892	13.965	1033.216	781.334
24.907	13.803	1032.835	780.212
25.921	13.757	1032.283	779.513
26.936	13.757	1031.965	779.202
27.950	13.783	1031.004	778.527
28.965	13.805	1029.984	777.793
29.980	13.906	1029.029	777.475
30.994	14.059	1028.175	777.480
32.009	14.048	1027.095	776.540
33.023	13.919	1027.044	775.830
34.038	14.012	1026.151	775.521
35.053	13.959	1025.526	774.736
36.067	13.873	1024.538	773.520
37.082	14.060	1023.547	773.573
38.096	13.919	1022.819	772.299
39.111	13.916	1021.988	771.587
40.126	13.933	1021.115	770.942
41.140	13.917	1020.161	770.076
42.155	13.912	1019.234	769.288
43.169	13.899	1018.343	768.483
44.184	13.838	1017.301	767.349
45.199	13.759	1015.913	765.870
46.213	13.809	1015.272	765.549
47.228	13.890	1014.339	765.153
48.242	13.850	1013.671	764.394
49.257	13.902	1012.458	763.652
50.271	13.824	1011.853	762.771
51.286	13.811	1010.783	761.836
52.301	13.859	1009.921	761.339
53.315	13.908	1009.233	760.975
54.330	13.972	1008.009	760.279
55.344	13.839	1007.441	759.174
56.359	13.870	1006.414	758.476
57.374	13.885	1005.565	757.837
58.388	13.924	1004.593	757.218
59.403	13.887	1003.964	756.509
60.417	13.894	1003.206	755.901
61.432	13.970	1002.399	755.571
62.447	13.756	1001.944	754.188
63.461	13.889	1000.831	753.889
64.476	13.838	999.943	752.923
65.490	13.793	999.180	752.075
66.505	13.760	998.500	751.350
67.520	13.892	997.409	751.058
68.534	13.752	997.219	750.216
69.549	13.889	996.280	750.059
70.563	13.778	995.492	748.899
71.578	13.785	995.114	748.582
72.593	13.739	994.149	747.584
73.607	13.804	993.048	746.979
74.622	13.817	991.888	746.100
75.636	13.802	991.305	745.527
76.651	13.671	990.520	744.285
77.666	13.828	989.973	744.510
78.680	13.796	989.150	743.685
79.695	13.695	988.983	743.039
80.709	13.878	987.876	742.963
81.724	13.747	987.564	742.073
82.739	13.805	986.890	741.762
83.753	13.809	985.779	740.880
84.768	13.922	984.789	740.572
85.782	14.042	983.844	740.330
86.797	14.077	983.009	739.794
87.812	14.083	982.192	739.141
88.826	13.944	981.425	737.878
89.841	13.926	980.780	737.249
90.855	13.904	980.387	736.790
91.870	14.021	979.387	736.493
92.884	14.073	978.314	735.851
93.899	14.046	978.171	735.557
94.914	14.132	977.100	735.070
95.928	13.984	976.416	733.834
96.943	13.996	975.956	733.476
97.957	14.072	974.686	732.794
98.972	14.005	974.387	732.211
99.987	14.145	972.967	731.692
101.001	13.900	972.910	730.510
102.016	14.053	972.040	730.462
103.030	13.967	971.445	729.574
104.045	14.005	970.547	728.999
105.060	14.000	969.540	728.158
106.074	13.942	968.932	727.381
107.089	14.017	967.384	726.484
108.103	13.900	966.883	725.532
109.118	13.970	965.767	724.938
110.133	13.942	964.997	724.171
111.147	13.892	964.020	723.155
112.162	13.978	963.314	722.938
113.176	13.967	962.720	722.379
114.191	14.008	961.974	721.933
115.206	14.023	960.682	720.967
116.220	13.922	960.340	720.209
117.235	14.011	959.077	719.580
118.249	14.030	958.212	718.952
119.264	14.101	957.494	718.657
120.279	14.001	957.103	717.869
121.293	13.860	956.140	716.472
122.308	13.838	955.788	716.051
123.322	13.819	955.030	715.337
124.337	13.881	953.603	714.474
125.352	13.839	952.671	713.531
126.366	13.783	951.879	712.634
127.381	13.886	950.389	711.899
128.395	13.875	949.575	711.176
129.410	13.870	948.775	710.493
130.424	13.908	947.543	709.670
131.439	13.928	946.711	709.070
132.454	13.959	946.251	708.794
133.468	13.909	945.763	708.152
134.483	13.970	944.862	707.677
135.497	13.949	943.865	706.777
136.512	13.931	943.860	706.636
137.527	13.886	942.608	705.443
138.541	13.903	941.943	704.957
139.556	13.893	941.537	704.548
140.570	14.020	940.447	704.209
141.585	14.100	939.526	703.796
142.600	14.029	939.057	703.079
143.614	13.911	938.877	702.385
144.629	14.275	937.254	702.643
145.643	14.171	936.799	701.801
146.658	14.164	935.477	700.722
147.673	14.111	934.790	699.921
148.687	14.080	934.520	699.525
149.702	14.119	933.577	698.922
150.716	14.145	932.758	698.356
151.731	14.074	931.680	697.189
152.746	14.004	931.227	696.498
153.760	14.217	930.080	696.468
154.775	14.164	929.632	695.850
155.789	14.154	928.727	695.070
156.804	14.170	927.892	694.446
157.819	14.118	927.401	693.803
158.833	14.185	926.403	693.276
159.848	14.254	926.175	693.328
160.862	14.287	925.571	692.955
161.877	14.305	924.505	692.170
162.892	14.242	923.601	691.170
163.906	14.183	923.151	690.525
164.921	14.182	922.340	689.856
165.935	14.159	921.144	688.803
166.950	14.301	920.002	688.475
167.964	14.201	919.746	687.809
168.979	14.280	918.173	686.899
169.994	14.187	917.579	686.012
171.008	14.302	916.616	685.703
172.023	14.330	916.133	685.397
173.037	14.341	915.261	684.730
174.052	14.539	914.234	684.712
175.067	14.466	913.664	683.926
176.081	14.214	913.053	682.373
177.096	14.274	912.254	681.962
178.110	14.241	911.484	681.191
179.125	14.379	910.582	681.020
180.140	14.342	909.808	680.231
181.154	14.266	909.621	679.720
182.169	14.394	908.564	679.394
183.183	14.428	908.150	679.164
184.198	14.575	907.186	678.978
185.213	14.466	906.629	678.060
186.227	14.497	905.727	677.449
187.242	14.470	905.775	677.316
188.256	14.474	905.223	676.861
189.271	14.612	903.871	676.348
190.286	14.640	903.070	675.803
191.300	14.576	902.304	674.913
192.315	14.439	902.074	674.126
193.329	14.466	901.079	673.433
194.344	14.439	900.510	672.839
195.359	14.541	899.923	672.753
196.373	14.600	899.403	672.542
197.388	14.515	898.954	671.802
198.402	14.582	898.502	671.676
199.417	14.608	897.972	671.324
200.432	14.723	897.323	671.242
201.446	14.637	897.051	670.632
202.461	14.703	896.484	670.415
203.475	14.715	896.395	670.338
204.490	14.864	895.243	670.012
205.504	14.790	894.265	668.927
206.519	14.804	893.772	668.554
207.534	14.739	893.302	667.885
208.548	14.819	892.578	667.601
209.563	14.859	891.839	667.150
210.577	14.873	890.916	666.455
211.592	14.867	890.051	665.725
212.607	14.878	889.918	665.611
213.621	14.978	889.368	665.540
214.636	14.916	888.509	664.591
215.650	14.936	887.959	664.201
216.665	14.856	887.578	663.539
217.680	14.938	887.015	663.386
218.694	15.011	886.496	663.228
219.709	15.028	885.684	662.627
220.723	14.949	885.310	661.976
221.738	15.001	884.389	661.438
222.753	15.033	883.584	660.903
223.767	14.888	883.216	659.998
224.782	15.034	882.377	659.886
225.796	15.157	881.553	659.695
226.811	15.037	881.127	658.849
227.826	15.038	880.879	658.607
228.840	15.097	879.858	658.017
229.855	15.032	879.054	657.102
230.869	15.050	878.433	656.651
231.884	14.970	877.959	655.926
232.899	15.147	877.311	656.074
233.913	15.321	875.923	655.660
234.928	15.123	875.632	654.610
235.942	15.197	875.224	654.536
236.957	15.080	874.268	653.306
237.972	15.192	873.854	653.376
238.986	15.065	873.175	652.316
240.001	15.234	872.367	652.312
241.015	15.167	872.061	651.765
242.030	15.178	871.297	651.180
243.045	15.158	870.636	650.551
244.059	15.359	869.634	650.523
245.074	15.226	869.460	649.819
246.088	15.265	868.977	649.555
247.103	15.347	868.276	649.291
248.117	15.391	867.578	648.879
249.132	15.425	866.938	648.475
250.147	15.371	866.525	647.900
251.161	15.548	865.814	647.994
252.176	15.481	865.063	647.117
253.190	15.391	864.608	646.371
254.205	15.521	863.995	646.356
255.220	15.640	863.496	646.383
256.234	15.730	862.738	646.105
257.249	15.675	862.127	645.380
258.263	15.663	861.553	644.846
259.278	15.617	860.718	643.989
260.293	15.798	860.318	644.325
261.307	15.760	859.970	643.863
262.322	15.879	859.117	643.621
263.336	15.946	858.677	643.491
264.351	15.802	858.242	642.559
265.366	15.648	857.785	641.571
266.380	15.891	857.149	641.965
267.395	15.863	856.262	641.140
268.409	15.777	855.456	640.152
269.424	15.667	854.943	639.292
270.439	15.850	854.180	639.361
271.453	15.793	853.393	638.499
272.468	16.045	852.292	638.573
273.482	15.729	852.417	637.412
274.497	15.872	851.558	637.257
275.512	15.832	850.942	636.585
276.526	15.896	850.105	636.146
277.541	15.940	849.512	635.812
278.555	15.915	848.870	635.181
279.570	15.991	848.276	634.965
280.585	15.942	848.113	634.604
281.599	16.204	847.062	634.749
282.614	16.303	846.297	634.490
283.628	16.210	845.782	633.697
284.643	16.108	845.635	633.148
285.657	16.099	844.995	632.581
286.672	16.125	844.448	632.212
287.687	16.142	843.911	631.816
288.701	16.233	843.312	631.654
289.716	16.134	842.797	630.843
290.730	16.288	842.154	630.879
291.745	16.099	841.917	629.942
292.760	16.216	841.058	629.680
293.774	16.164	840.337	628.890
294.789	16.114	840.172	628.525
295.803	16.319	839.562	628.777
296.818	16.303	839.102	628.314
297.833	16.318	838.105	627.570
298.847	16.268	837.373	626.782
299.862	16.320	837.079	626.698
300.876	16.326	836.575	626.286
301.891	16.256	835.762	625.363
302.906	16.406	834.938	625.246
303.920	16.424	834.170	624.682
304.935	16.475	833.572	624.370
305.949	16.369	833.258	623.688
306.964	16.576	832.324	623.695
307.979	16.326	832.213	622.638
308.993	16.382	831.754	622.442
310.008	16.644	830.551	622.453
311.022	16.443	830.828	621.863
312.037	16.634	830.029	621.914
313.052	16.501	829.648	621.085
314.066	16.496	829.019	620.540
315.081	16.610	828.420	620.454
316.095	16.471	828.136	619.679
317.110	16.526	827.506	619.354
318.125	16.506	826.510	618.482
319.139	16.442	826.077	617.868
320.154	16.520	825.672	617.795
321.168	16.562	825.153	617.503
322.183	16.448	825.266	617.118
323.197	16.554	824.318	616.743
324.212	16.701	823.455	616.579
325.227	16.602	823.140	615.928
326.241	16.739	822.317	615.755
327.256	16.568	821.983	614.830
328.270	16.729	821.172	614.753
329.285	16.790	820.751	614.604
330.300	16.729	820.002	613.766
331.314	16.678	819.612	613.236
332.329	16.679	818.918	612.668
333.343	16.727	818.843	612.728
334.358	16.634	818.135	611.811
335.373	16.768	817.848	612.024
336.387	16.823	816.966	611.508
337.402	16.875	816.159	611.039
338.416	16.828	815.866	610.595
339.431	16.910	815.196	610.334
340.446	16.986	814.792	610.254
341.460	16.914	814.119	609.437
342.475	17.035	813.442	609.309
343.489	17.026	813.028	608.914
344.504	16.936	812.633	608.241
345.519	17.030	812.072	608.103
346.533	17.085	811.726	607.988
347.548	17.022	811.425	607.482
348.562	16.955	810.836	606.749
349.577	17.041	810.124	606.471
350.592	17.030	809.758	606.103
351.606	16.940	808.889	605.076
352.621	17.046	808.243	604.918
353.635	17.033	808.390	604.928
354.650	16.924	808.200	604.344
355.665	17.001	807.539	604.069
356.679	17.084	806.822	603.777
357.694	17.292	806.199	603.996
358.708	17.166	805.998	603.344
359.723	17.211	805.362	602.973
360.738	17.201	804.893	602.534
361.752	17.086	804.291	601.621
362.767	17.032	804.174	601.293
363.781	17.131	803.623	601.175
364.796	17.404	802.886	601.537
365.810	17.231	802.482	600.570
366.825	17.282	802.361	600.604
367.840	17.305	802.010	600.370
368.854	17.437	801.455	600.369
369.869	17.418	800.907	599.837
370.883	17.345	800.564	599.269
371.898	17.360	800.020	598.862
372.913	17.500	799.063	598.586
373.927	17.497	798.703	598.251
374.942	17.603	797.774	597.877
375.956	17.538	797.252	597.204
376.971	17.491	796.718	596.586
377.986	17.469	796.389	596.209
379.000	17.526	795.655	595.808
380.015	17.670	795.212	595.926
381.029	17.653	794.993	595.650
382.044	17.723	794.726	595.642
383.059	17.595	793.853	594.488
384.073	17.628	793.186	594.051
385.088	17.708	792.877	594.046
386.102	17.752	791.955	593.458
387.117	17.685	791.715	592.992
388.132	17.567	791.611	592.451
389.146	17.617	790.848	591.998
390.161	17.572	790.658	591.648
391.175	17.669	789.925	591.385
392.190	17.937	789.351	591.833
393.205	17.816	789.353	591.360
394.219	17.955	788.795	591.372
395.234	17.843	788.321	590.578
396.248	17.779	787.760	589.885
397.263	17.656	787.659	589.330
398.278	17.732	787.016	589.059
399.292	17.803	786.617	588.953
400.307	17.836	786.091	588.623
401.321	17.712	785.619	587.790
402.336	17.730	785.392	587.629
403.350	17.907	784.868	587.795
404.365	17.909	784.110	587.182
405.380	17.881	783.819	586.815
406.394	17.865	783.775	586.677
407.409	17.984	783.320	586.690
408.423	18.097	782.718	586.577
409.438	18.029	782.012	585.764
410.453	17.951	781.967	585.411
411.467	18.095	781.441	585.456
412.482	17.960	781.144	584.722
413.496	18.134	780.516	584.796
414.511	18.090	780.136	584.306
415.526	18.208	779.946	584.517
416.540	18.207	779.553	584.166
417.555	18.140	778.737	583.275
418.569	18.199	778.289	583.090
419.584	18.196	778.274	583.017
420.599	18.129	777.685	582.296
421.613	115.990	1294.522	1487.544
422.628	99.511	1369.805	1487.621
