DTS Sentinel unit serial number:	SN413079Multiplexer serial number:	ORYXHardware model number:	OX4-SRSoftware version number:	ORYX F/W v4.00 Oryx Data Collector v3.7.2.0data status	okinstallation	princeton_trtdifferential loss correction	single-endedforward channel	channel 3reverse channel	N/Adate	2019/09/15time	22:44:35forward acquisition time	60.00reverse acquisition time	0.00gamma	496.2192k internal	0.2333k external	0.2333temperature offset calibration	0.9943default loss term (dB/km)	0.3790temperature slope calibration	1.0000multiplexer offset coefficient	1.0000multiplexer slope coefficient	1.0000fibre end	0.00T internal ref (°C)	28.87T ext. ref 1 (°C)	8.85T ext. ref 2 (°C)	22.35length (m)	temperature (°C)	Stokes	anti-Stokes-747.200	-200.000	0.003	-0.070
-746.185	122.192	-0.351	0.441
-745.171	-200.000	0.019	0.453
-744.156	-164.050	0.033	-0.002
-743.142	-200.000	-0.066	0.462
-742.127	-200.000	-0.049	0.323
-741.112	367.567	-0.146	0.296
-740.098	-200.000	-0.025	0.139
-739.083	-61.726	-0.450	-0.189
-738.069	248.888	-0.181	0.308
-737.054	96.415	-0.245	0.282
-736.039	7.912	-0.125	0.094
-735.025	35.239	0.454	0.400
-734.010	-48.589	-0.157	0.076
-732.996	129.186	-0.214	-0.274
-731.981	52.929	-0.183	-0.176
-730.966	-95.977	0.126	-0.034
-729.952	8.583	-0.206	-0.156
-728.937	12.043	-0.398	0.307
-727.923	-57.130	-0.265	0.117
-726.908	166.190	-0.066	-0.095
-725.894	166.878	0.088	0.125
-724.879	-101.259	0.126	-0.031
-723.864	-200.000	-0.046	0.320
-722.850	-200.000	0.006	0.244
-721.835	545.453	-0.077	-0.184
-720.821	-118.232	-0.248	-0.044
-719.806	48.203	0.124	0.117
-718.791	-130.667	0.121	0.016
-717.777	-30.715	0.083	-0.047
-716.762	587.274	0.082	-0.203
-715.748	49.556	-0.151	0.142
-714.733	-91.149	0.195	-0.056
-713.718	-20.672	-0.091	0.056
-712.704	-154.556	0.246	0.017
-711.689	-150.063	0.277	0.022
-710.675	114.354	-0.259	-0.316
-709.660	262.105	-0.082	-0.142
-708.645	169.760	0.132	-0.190
-707.631	415.475	0.163	-0.348
-706.616	1.468	0.101	-0.073
-705.602	-19.865	0.174	0.108
-704.587	144.688	-0.136	0.183
-703.572	-131.075	-0.306	-0.041
-702.558	216.977	-0.064	0.102
-701.543	-200.000	0.007	-0.194
-700.529	78.948	-0.097	-0.104
-699.514	-200.000	0.034	-0.179
-698.499	115.065	0.191	-0.234
-697.485	800.000	-0.100	-0.288
-696.470	-200.000	0.012	-0.129
-695.456	-71.086	-0.256	-0.097
-694.441	-200.000	0.020	-0.121
-693.426	107.508	-0.022	0.026
-692.412	800.000	-0.085	0.238
-691.397	297.955	-0.077	-0.143
-690.383	252.270	-0.069	0.119
-689.368	-90.058	-0.174	-0.051
-688.354	25.734	-0.111	0.093
-687.339	-98.518	0.018	-0.004
-686.324	-147.966	-0.141	-0.012
-685.310	-173.186	0.037	0.001
-684.295	61.932	0.213	-0.213
-683.281	-85.835	0.279	0.087
-682.266	355.508	0.089	-0.178
-681.251	-28.055	-0.217	-0.126
-680.237	277.654	0.167	-0.298
-679.222	532.207	0.122	0.289
-678.208	24.288	-0.177	0.147
-677.193	-200.000	0.026	-0.223
-676.178	-169.764	0.366	0.013
-675.164	-160.908	0.069	0.004
-674.149	-200.000	-0.018	0.119
-673.135	-117.671	-0.137	0.025
-672.120	-7.863	-0.111	-0.075
-671.105	-55.069	-0.169	0.076
-670.091	16.396	-0.212	-0.168
-669.076	786.992	0.099	-0.273
-668.062	-91.135	-0.197	0.057
-667.047	-154.068	0.123	-0.008
-666.032	-200.000	0.035	0.307
-665.018	-46.150	0.125	0.062
-664.003	-4.119	-0.325	-0.226
-662.989	-200.000	-0.025	0.217
-661.974	277.537	-0.033	-0.059
-660.959	6.537	-0.203	0.151
-659.945	688.878	0.108	-0.283
-658.930	-200.000	0.015	-0.126
-657.916	800.000	-0.030	-0.117
-656.901	-37.677	-0.229	0.122
-655.886	555.810	-0.163	-0.394
-654.872	-27.202	0.212	-0.124
-653.857	434.296	-0.115	-0.251
-652.843	-183.545	-0.192	-0.003
-651.828	78.867	-0.146	0.157
-650.814	367.128	-0.156	-0.316
-649.799	-132.979	0.151	-0.019
-648.784	64.604	0.177	-0.179
-647.770	77.680	0.134	0.143
-646.755	-17.884	0.104	-0.065
-645.741	590.765	-0.066	0.163
-644.726	-137.567	-0.188	-0.021
-643.711	-145.811	-0.053	-0.005
-642.697	-38.981	0.129	-0.068
-641.682	107.030	-0.153	0.182
-640.668	-57.416	0.413	0.182
-639.653	408.801	0.131	0.277
-638.638	2.855	-0.241	-0.175
-637.624	375.467	0.148	-0.303
-636.609	-22.636	0.161	-0.098
-635.595	30.388	-0.262	-0.224
-634.580	157.753	0.297	0.412
-633.565	797.364	-0.091	-0.251
-632.551	771.540	-0.066	0.181
-631.536	-75.787	0.043	-0.015
-630.522	-95.601	0.168	-0.045
-629.507	-72.963	-0.191	0.070
-628.492	-200.000	0.014	-0.169
-627.478	193.230	0.199	-0.301
-626.463	-124.963	0.067	0.010
-625.449	366.175	-0.035	0.070
-624.434	277.344	0.051	-0.090
-623.419	-103.870	0.205	-0.048
-622.405	800.000	0.066	-0.213
-621.390	146.539	-0.292	-0.393
-620.376	370.437	-0.309	-0.626
-619.361	225.674	-0.121	0.195
-618.346	-175.830	0.181	0.005
-617.332	23.053	0.293	-0.240
-616.317	240.374	-0.134	-0.223
-615.303	-118.033	0.445	-0.080
-614.288	-137.517	-0.107	-0.012
-613.273	-200.000	-0.020	0.208
-612.259	-62.523	-0.059	-0.025
-611.244	-94.170	0.344	-0.094
-610.230	-200.000	-0.009	0.265
-609.215	-31.633	0.124	-0.070
-608.201	141.561	-0.229	-0.303
-607.186	273.189	0.036	-0.064
-606.171	-146.169	-0.193	-0.017
-605.157	-200.000	0.001	0.019
-604.142	-200.000	0.007	0.265
-603.128	-54.277	0.439	0.199
-602.113	-200.000	0.018	0.278
-601.098	152.403	0.211	0.288
-600.084	236.715	-0.134	-0.221
-599.069	60.996	-0.298	-0.295
-598.055	-158.038	-0.113	0.007
-597.040	141.111	-0.150	-0.198
-596.025	134.655	0.198	0.257
-595.011	800.000	-0.074	0.288
-593.996	34.591	0.450	0.393
-592.982	71.522	0.252	-0.261
-591.967	591.715	-0.082	0.202
-590.952	-50.567	-0.033	-0.016
-589.938	-69.897	-0.311	-0.119
-588.923	-200.000	0.029	0.338
-587.909	-200.000	-0.050	-0.373
-586.894	-88.812	0.042	0.012
-585.879	800.000	0.070	-0.250
-584.865	78.863	-0.394	-0.422
-583.850	-200.000	-0.027	0.216
-582.836	-50.417	0.308	0.146
-581.821	-140.024	0.089	-0.009
-580.806	3.301	-0.090	0.065
-579.792	-16.332	0.293	0.186
-578.777	800.000	0.024	0.078
-577.763	800.000	-0.042	0.119
-576.748	-69.985	-0.287	-0.109
-575.733	-88.389	0.072	0.022
-574.719	800.000	0.042	-0.150
-573.704	420.684	0.069	-0.149
-572.690	568.981	0.132	0.320
-571.675	-23.447	0.336	-0.201
-570.661	262.932	-0.153	-0.265
-569.646	26.959	-0.258	-0.216
-568.631	-25.414	-0.187	0.111
-567.617	800.000	-0.052	-0.143
-566.602	341.819	0.110	-0.215
-565.588	800.000	-0.099	-0.287
-564.573	472.862	-0.133	-0.300
-563.558	204.541	0.232	-0.359
-562.544	800.000	0.044	0.139
-561.529	606.274	-0.036	0.088
-560.515	-92.632	0.171	-0.048
-559.500	-200.000	-0.013	0.245
-558.485	-200.000	-0.062	0.280
-557.471	-48.122	0.257	0.124
-556.456	363.722	0.082	-0.165
-555.442	-12.833	0.225	0.146
-554.427	-200.000	0.005	0.053
-553.412	449.659	-0.090	-0.199
-552.398	230.260	-0.092	-0.150
-551.383	-200.000	0.003	-0.225
-550.369	-200.000	-0.004	-0.377
-549.354	-28.161	-0.170	-0.098
-548.339	800.000	0.032	-0.129
-547.325	-53.347	-0.317	-0.145
-546.310	-200.000	0.023	-0.119
-545.296	101.655	0.115	-0.134
-544.281	800.000	0.047	-0.161
-543.266	800.000	-0.082	0.255
-542.252	-97.078	0.153	0.040
-541.237	395.270	0.107	0.223
-540.223	-200.000	-0.017	-0.169
-539.208	-200.000	-0.052	-0.310
-538.193	-101.680	0.385	-0.093
-537.179	-124.369	-0.286	-0.045
-536.164	106.904	-0.149	0.176
-535.150	70.529	-0.083	-0.085
-534.135	203.274	0.076	-0.118
-533.121	164.058	0.102	0.143
-532.106	-192.322	-0.278	-0.003
-531.091	283.250	0.081	-0.145
-530.077	-200.000	-0.043	-0.298
-529.062	-200.000	-0.004	0.258
-528.048	-200.000	0.023	0.132
-527.033	26.535	-0.291	0.243
-526.018	-102.943	0.241	0.057
-525.004	-200.000	0.065	0.428
-523.989	-200.000	0.007	0.071
-522.975	800.000	0.069	0.296
-521.960	800.000	-0.046	0.147
-520.945	50.522	-0.122	0.115
-519.931	800.000	0.060	0.171
-518.916	163.707	-0.023	-0.033
-517.902	-26.008	-0.119	0.070
-516.887	-200.000	-0.034	-0.198
-515.872	-40.252	0.106	0.055
-514.858	56.820	0.070	-0.068
-513.843	-66.248	0.112	0.045
-512.829	-200.000	-0.009	0.101
-511.814	-157.176	-0.200	-0.012
-510.799	-128.504	-0.207	0.029
-509.785	-27.124	-0.143	-0.083
-508.770	7.813	-0.198	0.148
-507.756	-68.900	-0.244	0.094
-506.741	-41.718	-0.307	0.157
-505.726	128.498	-0.190	-0.241
-504.712	-200.000	0.000	-0.091
-503.697	122.671	0.031	0.039
-502.683	49.656	0.097	0.091
-501.668	111.561	0.221	0.265
-500.653	74.360	-0.068	-0.072
-499.639	-153.746	0.420	-0.029
-498.624	44.417	0.241	-0.221
-497.610	69.469	0.265	0.272
-496.595	-156.763	-0.150	-0.009
-495.581	373.080	0.153	0.309
-494.566	-200.000	-0.017	-0.230
-493.551	124.347	0.168	0.211
-492.537	328.312	0.112	0.215
-491.522	-85.915	-0.100	-0.031
-490.508	800.000	-0.065	0.243
-489.493	-42.973	0.161	-0.081
-488.478	31.911	0.071	0.061
-487.464	-200.000	0.004	-0.204
-486.449	-200.000	0.021	-0.110
-485.435	39.362	-0.045	0.040
-484.420	-56.353	0.080	-0.035
-483.405	-110.342	0.209	-0.043
-482.391	-113.246	0.027	0.005
-481.376	138.531	-0.091	0.118
-480.362	72.905	0.165	-0.172
-479.347	-200.000	0.026	-0.169
-478.332	-174.253	-0.158	0.005
-477.318	50.875	-0.028	0.026
-476.303	47.518	-0.124	-0.115
-475.289	100.549	-0.133	-0.154
-474.274	92.938	-0.035	0.039
-473.259	-64.977	-0.364	0.146
-472.245	-189.364	0.385	-0.004
-471.230	-38.499	-0.275	0.145
-470.216	-37.996	-0.188	-0.099
-469.201	-97.146	0.080	-0.021
-468.186	-178.396	-0.145	0.003
-467.172	148.515	0.116	-0.156
-466.157	-7.134	0.064	0.043
-465.143	91.133	0.144	-0.161
-464.128	-200.000	-0.017	0.101
-463.113	74.926	-0.217	-0.228
-462.099	-200.000	0.014	0.115
-461.084	-200.000	0.005	-0.071
-460.070	356.210	-0.040	-0.080
-459.055	172.919	-0.167	-0.239
-458.040	105.367	0.150	0.176
-457.026	800.000	-0.068	0.262
-456.011	-116.768	-0.087	0.016
-454.997	479.979	0.086	0.194
-453.982	-129.351	0.197	0.027
-452.968	140.105	-0.314	-0.412
-451.953	800.000	-0.035	-0.152
-450.938	460.971	-0.025	0.055
-449.924	190.262	-0.112	-0.167
-448.909	-70.238	0.225	0.085
-447.895	-47.878	0.082	0.040
-446.880	292.138	-0.130	-0.236
-445.865	70.581	0.111	-0.115
-444.851	49.423	-0.100	0.093
-443.836	195.898	0.081	-0.123
-442.822	-200.000	0.005	-0.105
-441.807	-200.000	-0.007	-0.130
-440.792	87.286	0.074	0.081
-439.778	65.994	0.095	-0.096
-438.763	800.000	0.044	0.172
-437.749	800.000	-0.096	-0.280
-436.734	436.178	-0.068	0.146
-435.719	14.303	-0.182	0.141
-434.705	563.933	0.069	-0.167
-433.690	-156.054	0.074	-0.005
-432.676	56.754	0.092	-0.089
-431.661	385.837	-0.130	-0.266
-430.646	-48.174	-0.177	-0.085
-429.632	-200.000	-0.008	0.492
-428.617	235.472	-0.061	0.100
-427.603	-148.726	0.374	0.030
-426.588	242.587	-0.115	-0.192
-425.573	-59.684	0.113	-0.048
-424.559	-200.000	-0.011	-0.278
-423.544	-41.122	-0.050	0.026
-422.530	-141.200	-0.245	0.025
-421.515	-200.000	0.103	0.456
-420.500	355.240	0.123	0.243
-419.486	243.487	-0.090	-0.149
-418.471	412.804	-0.071	-0.149
-417.457	350.024	-0.063	-0.124
-416.442	-43.404	0.331	0.166
-415.428	228.364	0.217	-0.351
-414.413	139.024	-0.192	-0.251
-413.398	-154.744	-0.276	0.018
-412.384	800.000	-0.012	-0.039
-411.369	-200.000	0.017	0.140
-410.355	-68.419	-0.462	0.178
-409.340	369.949	0.070	-0.141
-408.325	327.929	-0.156	-0.298
-407.311	27.043	-0.239	0.199
-406.296	-200.000	0.029	0.346
-405.282	149.913	0.166	0.224
-404.267	-200.000	0.075	0.423
-403.252	-46.045	-0.231	-0.113
-402.238	747.323	0.120	0.321
-401.223	88.077	-0.104	-0.114
-400.209	112.428	0.182	0.219
-399.194	-80.075	-0.064	-0.021
-398.179	76.141	0.250	0.263
-397.165	193.694	0.143	-0.214
-396.150	-200.000	0.083	-0.392
-395.136	-94.329	-0.148	0.040
-394.121	-74.186	0.344	-0.123
-393.106	-47.379	-0.082	-0.039
-392.092	26.671	0.311	0.258
-391.077	-80.138	0.203	-0.067
-390.063	159.391	-0.195	0.268
-389.048	-200.000	-0.010	0.287
-388.033	53.458	-0.172	0.163
-387.019	-46.868	-0.241	-0.117
-386.004	100.756	-0.075	-0.087
-384.990	-14.581	0.379	0.242
-383.975	32.961	-0.246	-0.212
-382.960	-32.655	0.278	-0.153
-381.946	800.000	-0.062	-0.228
-380.931	21.930	-0.044	-0.036
-379.917	25.945	0.274	0.227
-378.902	-77.757	-0.212	-0.073
-377.888	800.000	-0.051	0.178
-376.873	-22.645	0.077	0.046
-375.858	-200.000	-0.075	0.376
-374.844	650.477	0.013	-0.033
-373.829	-175.751	0.281	0.007
-372.815	-200.000	0.002	-0.129
-371.800	-200.000	0.012	-0.150
-370.785	-76.165	-0.378	-0.132
-369.771	265.202	-0.100	0.173
-368.756	-200.000	-0.005	-0.129
-367.742	-96.812	0.252	0.066
-366.727	-64.851	-0.286	0.115
-365.712	-89.277	-0.080	0.023
-364.698	-200.000	-0.061	-0.378
-363.683	6.609	0.023	0.017
-362.669	148.318	-0.180	-0.241
-361.654	85.606	0.188	0.205
-360.639	-200.000	0.371	-0.000
-359.625	131.325	0.119	-0.151
-358.610	189.674	-0.137	-0.203
-357.596	335.888	0.082	0.158
-356.581	122.191	-0.133	-0.164
-355.566	-16.241	-0.346	-0.218
-354.552	-13.038	-0.310	0.199
-353.537	-83.036	-0.336	0.107
-352.523	434.499	0.092	-0.197
-351.508	133.196	0.208	0.266
-350.493	72.202	0.200	-0.206
-349.479	-184.892	0.186	-0.003
-348.464	200.974	0.085	0.129
-347.450	-172.004	-0.137	-0.004
-346.435	-200.000	-0.026	0.228
-345.420	-200.000	-0.006	-0.291
-344.406	-129.468	-0.402	0.055
-343.391	238.082	-0.047	-0.077
-342.377	-49.116	-0.238	-0.113
-341.362	-200.000	-0.002	-0.144
-340.348	800.000	0.080	-0.238
-339.333	-186.697	0.156	-0.002
-338.318	-200.000	-0.011	0.149
-337.304	-156.886	-0.267	0.016
-336.289	99.605	0.117	-0.134
-335.275	-51.319	-0.251	0.116
-334.260	-132.823	0.191	0.024
-333.245	800.000	-0.044	0.133
-332.231	89.799	-0.199	0.220
-331.216	93.450	0.076	0.085
-330.202	-127.135	-0.360	0.052
-329.187	-200.000	0.133	-0.000
-328.172	53.104	0.137	-0.130
-327.158	39.716	0.395	0.350
-326.143	-111.240	0.266	-0.054
-325.129	-200.000	0.048	0.276
-324.114	-19.005	0.121	0.075
-323.099	-200.000	-0.012	-0.103
-322.085	433.901	0.055	-0.118
-321.070	-51.944	-0.199	-0.092
-320.056	800.000	0.080	0.261
-319.041	-58.068	0.290	-0.125
-318.026	177.446	-0.097	-0.140
-317.012	30.652	0.099	-0.083
-315.997	494.519	0.136	0.308
-314.983	-160.209	-0.231	0.012
-313.968	-144.685	0.030	-0.003
-312.953	140.484	-0.276	-0.360
-311.939	186.699	-0.043	0.064
-310.924	-97.703	-0.075	0.019
-309.910	-117.577	-0.417	0.074
-308.895	-82.651	0.206	0.066
-307.880	172.046	-0.195	0.277
-306.866	-97.158	0.320	-0.083
-305.851	372.383	0.072	-0.144
-304.837	-200.000	0.040	0.211
-303.822	778.944	0.072	-0.196
-302.807	-41.863	-0.167	-0.085
-301.793	-10.193	0.194	0.127
-300.778	-200.000	0.011	0.265
-299.764	800.000	-0.022	-0.061
-298.749	159.846	-0.258	0.356
-297.735	-200.000	-0.004	-0.022
-296.720	133.536	-0.243	-0.311
-295.705	-84.631	-0.216	0.067
-294.691	-7.181	0.288	0.193
-293.676	0.147	0.173	0.122
-292.662	154.311	-0.026	-0.035
-291.647	474.019	-0.079	0.175
-290.632	-69.323	-0.267	-0.101
-289.618	42.209	0.111	-0.100
-288.603	624.801	0.028	-0.069
-287.589	-195.140	0.172	0.001
-286.574	-14.307	0.254	0.162
-285.559	-200.000	0.043	-0.265
-284.545	-103.728	0.370	-0.086
-283.530	182.769	0.216	0.314
-282.516	15.601	-0.194	-0.151
-281.501	199.147	-0.069	-0.104
-280.486	15.855	-0.197	-0.153
-279.472	-131.506	0.217	0.028
-278.457	-111.814	-0.332	0.066
-277.443	-117.627	-0.131	0.023
-276.428	-57.954	-0.180	0.078
-275.413	-168.714	0.152	-0.006
-274.399	275.702	-0.122	-0.214
-273.384	-70.191	-0.116	-0.043
-272.370	-200.000	-0.009	-0.145
-271.355	-129.676	0.285	0.039
-270.340	800.000	0.018	-0.062
-269.326	66.956	0.167	-0.168
-268.311	523.724	0.017	0.040
-267.297	389.059	0.088	0.180
-266.282	-200.000	-0.032	-0.199
-265.267	-84.103	-0.436	0.137
-264.253	-150.082	-0.175	0.013
-263.238	3.748	0.186	-0.134
-262.224	-185.073	-0.246	-0.004
-261.209	764.501	0.005	0.014
-260.195	-18.506	0.104	0.064
-259.180	312.497	-0.092	0.170
-258.165	473.869	-0.139	-0.309
-257.151	800.000	-0.046	0.164
-256.136	-41.073	0.115	0.058
-255.122	392.651	-0.083	-0.170
-254.107	49.534	0.047	0.044
-253.092	-33.470	-0.253	0.138
-252.078	-65.093	-0.394	0.157
-251.063	13.544	0.047	-0.036
-250.049	89.850	0.247	0.273
-249.034	800.000	-0.094	-0.278
-248.019	800.000	0.015	-0.050
-247.005	-146.252	-0.237	-0.021
-245.990	-27.528	-0.094	0.054
-244.976	308.495	0.175	-0.321
-243.961	-72.237	-0.290	-0.106
-242.946	800.000	-0.058	0.240
-241.932	279.426	-0.211	-0.371
-240.917	-106.125	-0.268	-0.059
-239.903	38.081	0.239	-0.210
-238.888	623.578	0.082	0.203
-237.873	315.648	0.050	0.093
-236.859	-200.000	0.054	0.422
-235.844	-50.823	-0.216	0.100
-234.830	-30.693	-0.302	0.168
-233.815	413.302	0.086	-0.180
-232.800	-121.978	0.147	0.024
-231.786	-5.828	-0.181	-0.122
-230.771	-95.697	-0.393	0.104
-229.757	35.441	0.133	-0.115
-228.742	52.224	0.085	0.080
-227.727	236.405	-0.094	-0.153
-226.713	-200.000	-0.041	-0.361
-225.698	-101.168	0.089	-0.021
-224.684	800.000	-0.071	-0.249
-223.669	-200.000	0.036	-0.207
-222.655	-200.000	-0.071	0.373
-221.640	788.869	0.050	0.136
-220.625	-1.205	0.056	0.039
-219.611	-179.847	0.108	0.002
-218.596	-200.000	-0.003	0.314
-217.582	-200.000	-0.007	0.367
-216.567	-200.000	0.022	-0.242
-215.552	-113.669	-0.184	0.035
-214.538	800.000	-0.025	0.087
-213.523	-30.687	0.266	-0.148
-212.509	43.462	0.190	-0.171
-211.494	-9.548	-0.202	-0.133
-210.479	-127.102	0.108	0.016
-209.465	800.000	0.098	0.320
-208.450	279.455	0.044	0.077
-207.436	-200.000	-0.016	-0.187
-206.421	-147.143	0.250	0.021
-205.406	800.000	0.086	0.235
-204.392	800.000	-0.071	-0.210
-203.377	800.000	0.128	-0.362
-202.363	-200.000	-0.022	-0.293
-201.348	14.225	-0.250	0.192
-200.333	-200.000	0.035	0.455
-199.319	-18.125	-0.181	-0.111
-198.304	-28.952	0.145	0.082
-197.290	-128.596	0.276	-0.038
-196.275	800.000	0.069	-0.279
-195.260	505.296	-0.130	-0.295
-194.246	1.859	0.400	0.284
-193.231	-139.710	0.209	-0.022
-192.217	800.000	-0.083	-0.249
-191.202	-43.841	-0.430	0.213
-190.187	222.938	-0.077	0.122
-189.173	107.473	-0.128	0.150
-188.158	-9.396	0.190	0.125
-187.144	111.626	0.097	0.115
-186.129	-74.805	-0.288	-0.102
-185.114	-60.633	0.046	0.019
-184.100	-200.000	-0.038	-0.337
-183.085	-135.179	0.097	-0.012
-182.071	-200.000	0.014	-0.127
-181.056	800.000	0.094	-0.268
-180.042	-190.734	0.350	0.004
-179.027	-65.191	0.272	-0.108
-178.012	-26.680	-0.194	0.112
-176.998	800.000	0.138	0.395
-175.983	-200.000	-0.056	0.293
-174.969	-200.000	-0.004	-0.220
-173.954	176.805	0.088	-0.126
-172.939	-200.000	-0.112	0.000
-171.925	800.000	-0.091	-0.272
-170.910	584.752	0.112	-0.270
-169.896	-200.000	0.042	0.200
-168.881	179.285	-0.352	0.507
-167.866	-200.000	0.022	0.096
-166.852	50.595	-0.201	0.187
-165.837	335.165	0.203	0.387
-164.823	328.418	0.198	0.373
-163.808	-200.000	-0.059	0.286
-162.793	800.000	0.036	0.148
-161.779	-200.000	0.034	0.200
-160.764	-19.874	-0.213	-0.129
-159.750	17.124	0.223	0.174
-158.735	-200.000	0.002	0.184
-157.720	204.912	0.059	-0.090
-156.706	-200.000	0.004	0.066
-155.691	800.000	-0.083	0.346
-154.677	526.180	-0.063	0.147
-153.662	-200.000	-0.031	0.241
-152.647	-72.082	0.410	-0.150
-151.633	-200.000	-0.006	-0.372
-150.618	-120.865	0.152	-0.025
-149.604	420.176	0.094	-0.197
-148.589	-180.878	-0.077	0.002
-147.574	-46.844	0.150	-0.072
-146.560	80.893	-0.093	-0.099
-145.545	-183.257	-0.367	0.006
-144.531	402.031	0.118	-0.243
-143.516	-113.179	0.053	-0.010
-142.502	-92.948	0.216	-0.059
-141.487	245.641	0.124	0.206
-140.472	-125.807	0.243	-0.036
-139.458	-200.000	0.004	0.127
-138.443	-20.056	0.276	-0.167
-137.429	-200.000	-0.018	0.130
-136.414	107.995	-0.184	-0.216
-135.399	800.000	-0.022	0.087
-134.385	-200.000	-0.006	-0.345
-133.370	109.839	0.160	-0.188
-132.356	494.478	0.029	-0.065
-131.341	800.000	-0.099	-0.374
-130.326	107.385	-0.140	-0.164
-129.312	-94.606	0.190	0.051
-128.297	266.674	0.020	0.034
-127.283	-54.908	-0.152	0.067
-126.268	770.918	-0.052	0.140
-125.253	402.012	-0.107	0.221
-124.239	-144.057	0.059	-0.005
-123.224	-60.470	-0.036	0.015
-122.210	-90.310	0.247	0.070
-121.195	-9.465	-0.121	-0.079
-120.180	-200.000	0.016	-0.308
-119.166	196.828	-0.108	0.162
-118.151	260.412	-0.096	-0.163
-117.137	-13.231	-0.303	0.193
-116.122	-116.236	0.184	0.034
-115.107	-110.804	0.303	0.061
-114.093	123.871	-0.236	0.291
-113.078	120.531	0.146	-0.178
-112.064	-81.658	0.201	0.065
-111.049	-132.877	0.315	-0.039
-110.034	-101.951	0.218	-0.052
-109.020	344.133	0.134	-0.258
-108.005	800.000	0.060	-0.188
-106.991	135.896	0.160	-0.205
-105.976	-88.721	0.223	0.065
-104.962	-65.615	0.250	0.098
-103.947	-72.582	0.262	0.095
-102.932	276.321	0.296	0.515
-101.918	-200.000	0.056	-0.255
-100.903	-17.536	0.370	0.228
-99.889	-200.000	-0.000	-0.267
-98.874	-200.000	0.032	0.171
-97.859	-200.000	-0.022	0.223
-96.845	8.281	0.219	-0.161
-95.830	88.908	-0.081	-0.088
-94.816	104.652	0.037	-0.043
-93.801	267.857	0.157	0.269
-92.786	-119.829	-0.243	-0.041
-91.772	-200.000	-0.079	0.477
-90.757	-37.371	-0.288	0.151
-89.743	-129.924	0.141	-0.019
-88.728	-20.616	0.196	0.118
-87.713	-45.211	-0.027	-0.013
-86.699	337.295	-0.057	0.110
-85.684	325.498	0.078	-0.147
-84.670	800.000	-0.064	0.262
-83.655	800.000	-0.056	0.214
-82.640	135.365	-0.195	-0.249
-81.626	-108.029	0.310	-0.066
-80.611	265.356	0.140	0.239
-79.597	753.216	-0.077	0.205
-78.582	-91.463	0.177	0.049
-77.567	800.000	-0.073	-0.260
-76.553	-130.774	-0.124	0.016
-75.538	-147.670	0.131	-0.011
-74.524	-200.000	0.057	0.296
-73.509	-123.152	-0.328	-0.052
-72.494	-115.172	-0.424	0.079
-71.480	-115.825	-0.111	-0.020
-70.465	800.000	-0.024	0.086
-69.451	139.128	0.302	0.389
-68.436	-72.728	-0.105	0.038
-67.422	800.000	0.029	-0.101
-66.407	-102.064	0.380	0.090
-65.392	-51.696	0.272	-0.124
-64.378	800.000	-0.081	0.229
-63.363	35.776	-0.175	0.151
-62.349	-161.901	0.170	0.008
-61.334	72.576	-0.878	-0.897
-60.319	387.754	0.266	0.538
-59.305	800.000	-0.243	-0.827
-58.290	222.344	0.829	1.306
-57.276	800.000	0.556	1.633
-56.261	-200.000	110.119	642.952
-55.246	484.314	1488.880	3316.688
-54.232	149.710	2655.237	3522.108
-53.217	107.544	2159.429	2515.204
-52.203	39.336	1696.040	1486.244
-51.188	31.904	1515.982	1277.993
-50.173	29.752	1491.143	1242.562
-49.159	53.057	1546.935	1449.048
-48.144	53.111	1563.663	1465.024
-47.130	32.301	1520.834	1284.597
-46.115	29.236	1505.972	1251.220
-45.100	29.010	1502.859	1247.050
-44.086	28.998	1501.028	1245.397
-43.071	28.892	1499.066	1243.004
-42.057	28.811	1497.836	1241.392
-41.042	28.808	1496.669	1240.351
-40.027	28.830	1494.543	1238.689
-39.013	28.839	1493.124	1237.526
-37.998	28.831	1491.893	1236.405
-36.984	28.810	1491.075	1235.536
-35.969	28.879	1489.339	1234.513
-34.954	28.824	1488.014	1232.990
-33.940	28.855	1486.543	1231.932
-32.925	28.814	1485.341	1230.615
-31.911	28.904	1483.896	1229.972
-30.896	28.909	1482.493	1228.794
-29.881	28.939	1481.859	1228.420
-28.867	28.932	1480.026	1226.802
-27.852	28.903	1478.919	1225.640
-26.838	28.901	1477.792	1224.647
-25.823	28.857	1476.452	1223.194
-24.809	28.848	1474.861	1221.768
-23.794	28.873	1473.102	1220.429
-22.779	28.888	1471.981	1219.553
-21.765	28.971	1471.037	1219.274
-20.750	28.931	1469.958	1218.064
-19.736	28.979	1468.537	1217.159
-18.721	28.978	1467.691	1216.401
-17.706	28.950	1466.362	1215.062
-16.692	28.961	1465.423	1214.307
-15.677	28.916	1464.613	1213.295
-14.663	28.972	1462.927	1212.219
-13.648	28.912	1462.199	1211.175
-12.633	28.883	1461.421	1210.291
-11.619	28.811	1460.720	1209.189
-10.604	28.794	1459.730	1208.209
-9.590	28.688	1459.600	1207.354
-8.575	28.856	1458.328	1207.361
-7.560	28.900	1457.016	1206.513
-6.546	28.824	1457.006	1205.960
-5.531	28.857	1455.445	1204.836
-4.517	28.800	1454.437	1203.579
-3.502	28.786	1453.975	1203.057
-2.487	28.857	1452.470	1202.226
-1.473	28.775	1451.533	1200.867
-0.458	28.809	1450.478	1200.168
0.556	26.859	1440.632	1187.950
1.571	23.690	1415.257	1146.497
2.586	19.952	1353.080	1072.914
3.600	18.140	1270.241	996.587
4.615	17.099	1224.883	955.061
5.629	16.109	1172.365	908.696
6.644	12.526	1095.946	831.309
7.659	9.384	1061.239	789.513
8.673	9.073	1055.738	783.835
9.688	8.800	1053.253	780.587
10.702	8.763	1051.180	778.805
11.717	8.744	1048.900	776.956
12.731	10.178	1049.289	784.131
13.746	14.002	1053.352	805.668
14.761	17.001	1057.701	823.499
15.775	17.580	1057.834	826.344
16.790	16.753	1056.250	821.022
17.804	15.801	1053.521	814.225
18.819	14.805	1051.976	808.145
19.834	14.286	1050.535	804.460
20.848	13.987	1049.699	802.302
21.863	13.842	1048.502	800.617
22.877	13.586	1047.745	798.737
23.892	13.479	1046.612	797.284
24.907	13.336	1046.212	796.223
25.921	13.236	1045.575	795.187
26.936	13.367	1044.773	795.135
27.950	13.318	1043.588	793.927
28.965	13.410	1042.189	793.237
29.980	13.432	1041.468	792.723
30.994	13.564	1040.176	792.298
32.009	13.540	1039.310	791.455
33.023	13.703	1038.473	791.526
34.038	13.618	1037.756	790.505
35.053	13.515	1036.834	789.240
36.067	13.532	1035.737	788.417
37.082	13.646	1035.002	788.331
38.096	13.501	1034.549	787.225
39.111	13.439	1033.602	786.139
40.126	13.623	1032.069	785.780
41.140	13.541	1031.363	784.782
42.155	13.396	1030.353	783.260
43.169	13.317	1029.332	782.040
44.184	13.291	1028.323	781.080
45.199	13.299	1027.280	780.259
46.213	13.140	1026.462	778.817
47.228	13.357	1025.278	778.874
48.242	13.400	1024.420	778.355
49.257	13.461	1023.795	778.098
50.271	13.464	1022.595	777.127
51.286	13.436	1021.672	776.228
52.301	13.534	1020.577	775.787
53.315	13.498	1020.307	775.344
54.330	13.281	1019.435	773.596
55.344	13.355	1018.298	773.014
56.359	13.352	1017.144	772.054
57.374	13.331	1016.766	771.599
58.388	13.352	1015.674	770.799
59.403	13.245	1015.130	769.821
60.417	13.244	1014.181	769.029
61.432	13.268	1013.428	768.500
62.447	13.174	1012.864	767.568
63.461	12.994	1011.819	765.876
64.476	13.118	1011.248	765.951
65.490	13.204	1009.928	765.282
66.505	13.201	1008.723	764.287
67.520	13.192	1008.182	763.768
68.534	13.203	1007.615	763.323
69.549	13.311	1006.537	762.932
70.563	13.169	1005.995	761.803
71.578	13.183	1005.315	761.285
72.593	13.143	1004.314	760.274
73.607	13.091	1003.605	759.432
74.622	13.239	1002.492	759.199
75.636	13.131	1001.675	758.018
76.651	13.154	1000.882	757.460
77.666	13.190	1000.350	757.155
78.680	13.096	999.689	756.158
79.695	13.157	999.080	755.909
80.709	13.232	998.701	755.897
81.724	13.277	997.932	755.453
82.739	13.181	996.982	754.230
83.753	13.425	995.859	754.425
84.768	13.403	995.443	753.945
85.782	13.544	994.585	753.868
86.797	13.434	994.404	753.162
87.812	13.542	993.162	752.648
88.826	13.493	992.445	751.816
89.841	13.290	991.738	750.289
90.855	13.510	990.616	750.373
91.870	13.577	989.960	750.112
92.884	13.576	989.054	749.357
93.899	13.498	988.875	748.804
94.914	13.498	987.880	747.982
95.928	13.634	987.326	748.110
96.943	13.641	986.075	747.126
97.957	13.511	985.649	746.154
98.972	13.591	984.335	745.451
99.987	13.534	983.921	744.816
101.001	13.479	983.409	744.115
102.016	13.499	982.215	743.238
103.030	13.453	981.648	742.535
104.045	13.512	980.754	742.058
105.060	13.490	979.374	740.850
106.074	13.581	978.364	740.427
107.089	13.457	977.820	739.394
108.103	13.329	977.057	738.183
109.118	13.283	975.952	737.076
110.133	13.443	975.305	737.237
111.147	13.387	974.206	736.090
112.162	13.312	973.499	735.157
113.176	13.368	972.480	734.573
114.191	13.340	971.841	733.900
115.206	13.479	971.098	733.891
116.220	13.438	970.005	732.819
117.235	13.394	969.673	732.307
118.249	13.354	968.665	731.306
119.264	13.348	967.454	730.298
120.279	13.397	966.635	729.832
121.293	13.257	966.229	728.842
122.308	13.273	965.640	728.407
123.322	13.249	964.460	727.344
124.337	13.257	963.312	726.450
125.352	13.304	962.264	725.802
126.366	13.235	961.423	724.803
127.381	13.171	960.848	724.024
128.395	13.288	959.807	723.686
129.410	13.256	958.787	722.714
130.424	13.216	957.779	721.714
131.439	13.344	957.124	721.718
132.454	13.335	955.926	720.711
133.468	13.346	955.403	720.301
134.483	13.329	955.108	719.940
135.497	13.300	954.187	719.056
136.512	13.339	953.324	718.512
137.527	13.373	952.583	718.038
138.541	13.349	951.601	717.128
139.556	13.471	950.917	717.079
140.570	13.306	950.598	716.058
141.585	13.459	949.697	715.981
142.600	13.491	949.097	715.601
143.614	13.577	948.045	715.119
144.629	13.524	947.578	714.475
145.643	13.506	947.031	713.919
146.658	13.717	945.683	713.748
147.673	13.445	944.995	711.996
148.687	13.589	944.143	711.911
149.702	13.589	942.983	710.971
150.716	13.443	942.261	709.740
151.731	13.477	941.267	709.076
152.746	13.581	940.421	708.819
153.760	13.462	940.130	708.026
154.775	13.552	938.867	707.400
155.789	13.624	938.388	707.283
156.804	13.517	937.920	706.409
157.819	13.715	936.748	706.307
158.833	13.603	936.401	705.507
159.848	13.636	936.072	705.338
160.862	13.817	935.045	705.271
161.877	13.703	934.327	704.183
162.892	13.640	933.474	703.208
163.906	13.581	932.323	702.029
164.921	13.690	931.552	701.850
165.935	13.560	930.595	700.518
166.950	13.651	929.844	700.272
167.964	13.516	928.904	698.935
168.979	13.732	927.478	698.711
169.994	13.689	926.996	698.104
171.008	13.744	926.077	697.579
172.023	13.554	925.624	696.379
173.037	13.755	924.697	696.465
174.052	13.755	924.117	695.967
175.067	13.826	923.346	695.622
176.081	13.639	922.513	694.149
177.096	13.644	921.767	693.548
178.110	13.592	920.821	692.558
179.125	13.651	920.239	692.306
180.140	13.578	919.751	691.571
181.154	13.694	918.783	691.265
182.169	13.750	917.987	690.839
183.183	13.777	917.428	690.472
184.198	13.699	917.407	690.067
185.213	13.786	916.370	689.588
186.227	13.833	915.788	689.285
187.242	13.808	915.159	688.648
188.256	13.982	914.448	688.773
189.271	14.117	913.534	688.582
190.286	13.926	912.846	687.212
191.300	13.863	912.339	686.511
192.315	13.672	911.481	685.013
193.329	13.610	910.890	684.252
194.344	13.628	910.177	683.730
195.359	13.736	909.426	683.552
196.373	13.784	908.843	683.251
197.388	13.863	908.641	683.363
198.402	14.010	908.233	683.600
199.417	14.097	907.378	683.253
200.432	14.078	907.206	682.987
201.446	14.152	906.745	682.882
202.461	14.176	906.582	682.799
203.475	14.167	905.986	682.251
204.490	14.294	904.986	681.959
205.504	14.198	904.061	680.807
206.519	14.273	903.103	680.333
207.534	14.247	902.502	679.715
208.548	14.105	901.932	678.644
209.563	14.116	901.210	678.086
210.577	13.923	900.905	677.012
211.592	14.082	900.156	677.035
212.607	14.211	899.483	676.995
213.621	14.325	899.035	677.058
214.636	14.252	898.476	676.284
215.650	14.159	897.753	675.302
216.665	14.337	896.755	675.214
217.680	14.329	896.280	674.764
218.694	14.333	896.180	674.644
219.709	14.313	895.774	674.197
220.723	14.260	895.384	673.631
221.738	14.435	894.073	673.289
222.753	14.360	893.393	672.416
223.767	14.322	892.795	671.753
224.782	14.447	891.564	671.271
225.796	14.552	891.335	671.460
226.811	14.380	890.695	670.230
227.826	14.504	889.758	669.961
228.840	14.381	888.866	668.737
229.855	14.450	888.612	668.765
230.869	14.364	888.268	668.101
231.884	14.452	887.390	667.737
232.899	14.418	886.519	666.883
233.913	14.424	885.719	666.249
234.928	14.356	885.046	665.412
235.942	14.358	884.399	664.874
236.957	14.299	883.595	663.977
237.972	14.332	883.259	663.795
238.986	14.494	882.071	663.489
240.001	14.449	881.496	662.820
241.015	14.381	881.446	662.451
242.030	14.408	880.718	661.953
243.045	14.636	879.499	661.883
244.059	14.519	879.611	661.443
245.074	14.587	878.839	661.074
246.088	14.521	878.071	660.178
247.103	14.664	877.404	660.181
248.117	14.726	876.784	659.902
249.132	14.695	876.624	659.601
250.147	14.856	875.853	659.598
251.161	14.868	875.461	659.292
252.176	14.878	874.445	658.509
253.190	14.967	873.576	658.147
254.205	15.055	873.310	658.232
255.220	15.022	872.810	657.667
256.234	15.054	871.926	657.070
257.249	15.100	871.262	656.691
258.263	15.058	870.557	655.937
259.278	15.017	870.412	655.610
260.293	15.104	869.868	655.482
261.307	15.044	869.625	655.006
262.322	15.313	868.566	655.201
263.336	15.310	868.001	654.707
264.351	15.122	867.762	653.736
265.366	15.173	867.014	653.311
266.380	15.226	866.295	652.918
267.395	15.216	865.558	652.268
268.409	15.237	864.783	651.707
269.424	15.138	864.428	650.995
270.439	15.264	863.294	650.575
271.453	15.170	862.867	649.831
272.468	15.236	861.863	649.273
273.482	15.116	861.795	648.697
274.497	15.145	861.198	648.305
275.512	15.276	860.109	647.933
276.526	15.168	859.636	647.104
277.541	15.207	858.819	646.580
278.555	15.188	858.436	646.162
279.570	15.262	857.872	645.967
280.585	15.401	857.191	645.932
281.599	15.436	856.784	645.700
282.614	15.341	856.166	644.814
283.628	15.342	855.618	644.347
284.643	15.346	854.968	643.815
285.657	15.196	854.714	642.994
286.672	15.383	853.952	643.079
287.687	15.430	853.440	642.815
288.701	15.408	852.801	642.195
289.716	15.305	852.187	641.280
290.730	15.399	851.562	641.113
291.745	15.447	850.866	640.716
292.760	15.663	850.619	641.296
293.774	15.595	849.936	640.467
294.789	15.515	849.492	639.770
295.803	15.622	848.749	639.561
296.818	15.449	848.171	638.411
297.833	15.667	847.246	638.486
298.847	15.435	846.826	637.231
299.862	15.654	845.734	637.186
300.876	15.604	845.376	636.671
301.891	15.702	844.629	636.423
302.906	15.772	843.823	636.023
303.920	15.658	843.580	635.351
304.935	15.795	842.776	635.206
305.949	15.737	842.117	634.436
306.964	15.866	841.766	634.600
307.979	15.703	840.851	633.243
308.993	15.750	840.907	633.406
310.008	15.826	840.296	633.174
311.022	15.843	839.480	632.569
312.037	15.833	839.393	632.410
313.052	16.018	838.427	632.320
314.066	15.787	837.861	630.971
315.081	15.817	837.480	630.741
316.095	15.678	837.491	630.173
317.110	15.810	836.120	629.578
318.125	15.621	836.013	628.736
319.139	15.887	835.011	628.918
320.154	15.887	834.957	628.823
321.168	15.725	834.205	627.595
322.183	15.901	833.552	627.704
323.197	15.946	833.019	627.417
324.212	15.910	832.468	626.813
325.227	15.824	832.236	626.261
326.241	15.854	831.693	625.910
327.256	15.769	831.112	625.100
328.270	15.825	830.548	624.828
329.285	15.935	829.681	624.531
330.300	15.721	829.539	623.575
331.314	16.041	828.369	623.824
332.329	15.965	828.011	623.218
333.343	15.790	827.966	622.482
334.358	15.964	827.402	622.645
335.373	16.102	826.721	622.589
336.387	16.028	826.057	621.759
337.402	16.060	825.532	621.427
338.416	16.014	824.842	620.682
339.431	16.181	823.997	620.606
340.446	16.074	823.976	620.142
341.460	16.282	823.075	620.173
342.475	16.338	822.559	619.935
343.489	16.281	822.196	619.397
344.504	16.306	821.681	619.049
345.519	16.355	821.134	618.760
346.533	16.302	820.910	618.344
347.548	16.589	819.772	618.478
348.562	16.488	819.314	617.712
349.577	16.352	819.039	616.951
350.592	16.303	818.432	616.263
351.606	16.315	817.773	615.755
352.621	16.287	817.799	615.616
353.635	16.254	817.390	615.135
354.650	16.355	816.818	615.018
355.665	16.369	815.977	614.382
356.679	16.220	816.120	613.893
357.694	16.470	815.180	614.038
358.708	16.395	814.747	613.386
359.723	16.349	814.139	612.708
360.738	16.357	813.937	612.531
361.752	16.451	813.370	612.390
362.767	16.427	812.569	611.645
363.781	16.586	812.179	611.874
364.796	16.606	811.942	611.714
365.810	16.575	811.733	611.388
366.825	16.513	811.506	610.939
367.840	16.740	811.145	611.435
368.854	16.760	810.641	611.073
369.869	16.719	810.127	610.483
370.883	16.684	809.169	609.580
371.898	16.685	808.637	609.129
372.913	16.735	807.917	608.714
373.927	16.721	807.551	608.334
374.942	16.665	807.211	607.822
375.956	16.645	806.406	607.091
376.971	16.801	805.800	607.141
377.986	16.740	805.424	606.585
379.000	16.825	804.735	606.315
380.015	16.939	804.492	606.485
381.029	16.812	803.866	605.508
382.044	16.858	803.110	605.047
383.059	17.050	802.772	605.424
384.073	16.790	802.241	604.043
385.088	16.898	801.707	603.975
386.102	16.894	801.132	603.474
387.117	16.935	800.621	603.181
388.132	16.904	800.075	602.604
389.146	16.865	799.801	602.208
390.161	16.971	799.263	602.125
391.175	17.056	798.981	602.163
392.190	16.960	798.633	601.506
393.205	17.181	798.131	601.857
394.219	16.856	797.685	600.317
395.234	16.977	796.974	600.155
396.248	16.883	796.363	599.309
397.263	16.865	796.178	599.054
398.278	16.747	795.608	598.154
399.292	16.798	795.106	597.907
400.307	16.957	794.693	598.103
401.321	16.969	794.477	597.930
402.336	16.884	794.069	597.270
403.350	17.130	793.451	597.618
404.365	17.108	792.942	597.105
405.380	17.029	792.888	596.732
406.394	17.151	792.261	596.638
407.409	17.316	791.517	596.604
408.423	17.202	791.364	596.036
409.438	17.227	790.995	595.791
410.453	17.254	790.503	595.463
411.467	17.394	789.975	595.505
412.482	17.351	789.769	595.146
413.496	17.332	789.263	594.645
414.511	17.474	788.860	594.786
415.526	17.396	788.550	594.224
416.540	17.484	788.046	594.102
417.555	17.469	787.679	593.719
418.569	17.385	787.374	593.142
419.584	17.428	786.562	592.627
420.599	17.573	786.119	592.747
421.613	110.642	1292.566	1474.189
422.628	94.895	1366.319	1474.311
