DTS Sentinel unit serial number:	SN413079Multiplexer serial number:	ORYXHardware model number:	OX4-SRSoftware version number:	ORYX F/W v4.00 Oryx Data Collector v3.7.2.0data status	okinstallation	princeton_trtdifferential loss correction	single-endedforward channel	channel 3reverse channel	N/Adate	2019/09/14time	23:08:34forward acquisition time	60.00reverse acquisition time	0.00gamma	496.2192k internal	0.2319k external	0.2319temperature offset calibration	0.9989default loss term (dB/km)	0.3790temperature slope calibration	1.0000multiplexer offset coefficient	1.0000multiplexer slope coefficient	1.0000fibre end	0.00T internal ref (°C)	32.42T ext. ref 1 (°C)	4.69T ext. ref 2 (°C)	27.40length (m)	temperature (°C)	Stokes	anti-Stokes-747.200	-83.338	-0.257	0.083
-746.185	-200.000	0.031	0.241
-745.171	-200.000	-0.026	0.118
-744.156	800.000	-0.046	-0.143
-743.142	220.005	-0.181	-0.294
-742.127	-200.000	0.018	-0.287
-741.112	-15.180	-0.122	-0.079
-740.098	586.599	-0.169	0.419
-739.083	-2.735	-0.201	0.142
-738.069	-134.942	0.105	-0.013
-737.054	-70.001	-0.022	-0.008
-736.039	-40.761	-0.463	0.243
-735.025	-77.511	-0.167	0.059
-734.010	-4.736	-0.152	0.106
-732.996	-7.102	0.120	0.082
-731.981	800.000	-0.106	0.384
-730.966	40.319	-0.338	0.308
-729.952	643.840	-0.041	0.107
-728.937	-92.419	-0.333	0.095
-727.923	-186.349	0.333	0.005
-726.908	-68.728	-0.335	-0.131
-725.894	119.180	0.209	-0.261
-724.879	-134.191	-0.387	-0.048
-723.864	-200.000	0.053	0.355
-722.850	58.314	0.270	0.268
-721.835	-130.601	-0.233	-0.032
-720.821	800.000	0.057	0.199
-719.806	242.605	-0.219	0.371
-718.791	687.047	0.054	0.144
-717.777	-200.000	-0.015	-0.144
-716.762	-200.000	0.058	-0.473
-715.748	-125.121	-0.153	0.024
-714.733	800.000	-0.073	-0.239
-713.718	800.000	-0.103	-0.345
-712.704	164.144	-0.139	-0.198
-711.689	51.839	0.135	-0.130
-710.675	-200.000	-0.031	-0.500
-709.660	-200.000	-0.043	-0.208
-708.645	-200.000	-0.029	0.188
-707.631	281.776	-0.095	0.172
-706.616	579.117	-0.083	-0.205
-705.602	3.554	0.079	0.058
-704.587	114.061	-0.184	-0.226
-703.572	-40.142	-0.172	-0.091
-702.558	-200.000	0.033	0.185
-701.543	-48.941	0.427	0.207
-700.529	81.882	0.126	-0.138
-699.514	-200.000	0.076	-0.628
-698.499	-128.451	-0.121	-0.017
-697.485	-200.000	-0.008	-0.229
-696.470	-53.855	-0.241	0.111
-695.456	-200.000	0.268	0.001
-694.441	-52.652	0.243	-0.113
-693.426	-200.000	-0.005	-0.232
-692.412	-200.000	0.009	-0.213
-691.397	237.395	-0.170	-0.285
-690.383	-200.000	-0.011	0.115
-689.368	-119.634	0.186	0.032
-688.354	800.000	-0.028	-0.097
-687.339	95.187	-0.088	-0.101
-686.324	-32.825	-0.308	-0.173
-685.310	800.000	0.032	-0.140
-684.295	800.000	0.108	0.421
-683.281	-176.129	-0.319	-0.008
-682.266	800.000	0.075	0.248
-681.251	491.052	0.130	-0.299
-680.237	32.416	0.136	0.119
-679.222	-52.224	-0.229	-0.107
-678.208	-27.921	0.160	0.094
-677.193	88.378	-0.177	0.199
-676.178	-200.000	-0.005	0.194
-675.164	202.276	0.086	0.134
-674.149	-105.852	0.143	0.033
-673.135	-3.960	-0.334	0.234
-672.120	83.567	-0.248	-0.273
-671.105	-57.207	0.454	0.202
-670.091	87.247	-0.257	-0.287
-669.076	-200.000	-0.041	-0.221
-668.062	-200.000	-0.006	-0.064
-667.047	425.454	0.118	0.257
-666.032	800.000	0.077	0.334
-665.018	-43.733	-0.144	-0.073
-664.003	800.000	0.124	-0.375
-662.989	-200.000	0.017	-0.318
-661.974	-1.282	-0.097	0.069
-660.959	-29.904	-0.244	0.140
-659.945	-200.000	0.016	0.112
-658.930	184.550	-0.134	0.200
-657.916	-79.467	-0.282	-0.096
-656.901	13.984	0.227	-0.178
-655.886	-162.532	-0.068	0.003
-654.872	146.970	-0.099	-0.134
-653.857	33.420	-0.027	0.024
-652.843	-200.000	0.015	-0.189
-651.828	-9.273	0.160	-0.108
-650.814	72.131	-0.096	0.101
-649.799	-51.088	-0.239	0.113
-648.784	-20.192	-0.189	0.117
-647.770	37.743	0.163	0.146
-646.755	800.000	-0.058	-0.168
-645.741	576.394	0.075	-0.184
-644.726	-101.010	0.204	-0.050
-643.711	-116.191	0.305	-0.057
-642.697	114.937	-0.072	0.089
-641.682	-92.029	0.149	0.042
-640.668	-88.120	-0.059	0.018
-639.653	130.651	-0.077	0.100
-638.638	-200.000	-0.012	0.241
-637.624	-23.137	-0.260	0.157
-636.609	140.723	-0.227	-0.302
-635.595	-172.337	0.094	-0.003
-634.580	113.564	0.091	-0.111
-633.565	-86.594	-0.133	-0.041
-632.551	-139.928	-0.349	-0.037
-631.536	304.496	-0.105	-0.196
-630.522	-96.540	0.251	-0.067
-629.507	-200.000	-0.009	-0.047
-628.492	-50.114	-0.075	0.036
-627.478	-118.877	-0.214	-0.038
-626.463	-188.539	0.169	-0.002
-625.449	119.710	-0.058	0.072
-624.434	-200.000	-0.052	-0.430
-623.419	95.429	-0.167	-0.192
-622.405	-200.000	0.004	0.087
-621.390	-115.844	-0.183	0.035
-620.376	15.802	0.296	0.234
-619.361	253.735	0.105	-0.181
-618.346	38.770	-0.174	0.157
-617.332	800.000	-0.024	-0.077
-616.317	-110.415	-0.069	0.014
-615.303	800.000	0.073	0.272
-614.288	-17.267	0.175	-0.111
-613.273	-101.492	0.141	-0.035
-612.259	236.812	0.090	0.150
-611.244	-94.646	-0.436	0.119
-610.230	800.000	-0.019	-0.064
-609.215	201.217	0.052	-0.081
-608.201	-138.158	-0.214	0.024
-607.186	497.355	0.042	0.098
-606.171	-200.000	-0.039	0.171
-605.157	800.000	0.055	-0.193
-604.142	146.276	0.033	-0.045
-603.128	139.894	-0.208	0.275
-602.113	387.370	-0.173	-0.359
-601.098	-200.000	-0.033	0.151
-600.084	-121.240	-0.080	-0.013
-599.069	212.877	0.159	-0.253
-598.055	-146.347	0.243	-0.021
-597.040	88.810	-0.169	-0.189
-596.025	-200.000	0.072	-0.326
-595.011	-193.053	-0.242	0.002
-593.996	-165.265	-0.212	-0.009
-592.982	-135.432	-0.171	0.021
-591.967	228.988	0.293	-0.481
-590.952	-92.360	-0.134	-0.038
-589.938	6.864	-0.178	-0.133
-588.923	-142.916	-0.107	0.010
-587.909	-200.000	-0.011	-0.072
-586.894	70.493	-0.273	-0.284
-585.879	-125.894	0.293	0.044
-584.865	139.163	-0.093	-0.123
-583.850	-200.000	0.000	0.068
-582.836	180.384	-0.125	0.185
-581.821	215.138	0.037	-0.058
-580.806	-187.790	0.410	-0.005
-579.792	357.855	-0.154	0.309
-578.777	748.915	0.056	0.151
-577.763	4.664	0.137	-0.101
-576.748	800.000	-0.028	-0.090
-575.733	-118.030	0.096	0.017
-574.719	-29.404	0.171	0.098
-573.704	-200.000	0.003	0.256
-572.690	-62.575	-0.066	-0.027
-571.675	-87.641	-0.106	0.032
-570.661	-200.000	0.009	0.079
-569.646	25.258	0.078	0.065
-568.631	-0.415	0.116	0.083
-567.617	-144.765	0.327	0.030
-566.602	-200.000	0.033	-0.236
-565.588	1.196	-0.244	0.176
-564.573	-200.000	0.038	-0.190
-563.558	-42.129	-0.155	-0.080
-562.544	182.054	-0.252	-0.372
-561.529	278.715	0.018	0.033
-560.515	800.000	-0.047	0.163
-559.500	-86.933	-0.268	-0.082
-558.485	18.699	-0.309	-0.248
-557.471	412.182	0.065	-0.139
-556.456	110.185	0.011	-0.014
-555.442	-200.000	-0.009	0.106
-554.427	15.656	-0.169	0.133
-553.412	-156.129	-0.297	0.019
-552.398	789.099	-0.062	0.172
-551.383	211.366	-0.185	0.293
-550.369	-81.091	-0.339	0.113
-549.354	-113.511	-0.127	0.025
-548.339	-47.425	0.198	0.097
-547.325	-200.000	-0.023	0.424
-546.310	-115.402	-0.029	-0.006
-545.296	-116.930	-0.039	-0.007
-544.281	-119.114	-0.145	0.025
-543.266	-200.000	-0.039	-0.199
-542.252	-63.659	-0.156	-0.064
-541.237	-200.000	-0.019	0.132
-540.223	6.153	0.112	-0.083
-539.208	-143.467	0.424	-0.041
-538.193	42.037	-0.146	0.133
-537.179	-168.695	0.377	0.014
-536.164	-200.000	-0.003	-0.118
-535.150	705.781	-0.143	-0.380
-534.135	-200.000	-0.078	-0.356
-533.121	449.399	0.014	0.031
-532.106	800.000	0.084	0.264
-531.091	-40.433	-0.489	-0.255
-530.077	-200.000	0.046	0.276
-529.062	-126.410	-0.503	-0.075
-528.048	-92.296	0.106	0.030
-527.033	107.755	0.168	0.201
-526.018	-200.000	0.041	0.183
-525.004	-35.406	-0.113	0.062
-523.989	45.408	-0.165	0.152
-522.975	154.635	0.182	0.251
-521.960	-143.571	0.223	-0.021
-520.945	-26.597	0.179	0.105
-519.931	10.139	-0.186	0.142
-518.916	-124.280	0.244	-0.038
-517.902	59.630	-0.284	-0.281
-516.887	402.732	0.136	-0.287
-515.872	-86.168	0.200	0.062
-514.858	-61.591	0.171	0.072
-513.843	-200.000	0.033	-0.234
-512.829	511.597	-0.102	-0.238
-511.814	-22.711	-0.179	-0.108
-510.799	-56.299	0.115	0.051
-509.785	-107.958	-0.200	-0.044
-508.770	34.757	0.270	0.236
-507.756	-147.482	-0.281	0.024
-506.741	-94.561	0.295	0.080
-505.726	-200.000	0.003	0.339
-504.712	375.775	0.098	0.201
-503.697	125.420	0.053	-0.067
-502.683	552.552	-0.096	-0.232
-501.668	-20.519	0.282	0.174
-500.653	-120.485	0.050	-0.008
-499.639	-32.922	0.281	-0.156
-498.624	-52.960	-0.206	0.095
-497.610	69.804	0.254	-0.263
-496.595	-113.302	0.225	0.044
-495.581	-200.000	0.008	0.182
-494.566	-17.907	0.123	-0.077
-493.551	208.825	-0.152	0.238
-492.537	-98.431	-0.174	-0.045
-491.522	-200.000	0.030	0.297
-490.508	-136.356	0.373	-0.043
-489.493	-48.353	-0.218	0.105
-488.478	7.228	-0.115	-0.086
-487.464	-200.000	0.021	-0.098
-486.449	135.709	0.118	0.154
-485.435	-85.703	0.195	0.061
-484.420	19.699	-0.182	-0.147
-483.405	166.713	0.122	-0.173
-482.391	800.000	0.128	-0.448
-481.376	-162.292	0.222	0.011
-480.362	-89.125	-0.146	0.043
-479.347	139.794	-0.195	0.258
-478.332	251.300	-0.019	-0.033
-477.318	174.333	-0.093	-0.134
-476.303	-40.542	-0.181	0.094
-475.289	7.621	0.249	-0.187
-474.274	37.442	-0.114	-0.101
-473.259	302.108	-0.165	0.306
-472.245	-200.000	-0.016	-0.121
-471.230	-200.000	-0.041	-0.421
-470.216	265.624	-0.129	-0.224
-469.201	108.980	-0.125	0.149
-468.186	38.546	-0.154	-0.137
-467.172	-142.674	-0.192	0.019
-466.157	231.129	-0.037	-0.061
-465.143	237.604	-0.197	-0.326
-464.128	-200.000	-0.056	-0.305
-463.113	-50.901	0.056	0.026
-462.099	-63.824	0.180	0.074
-461.084	-55.785	0.421	-0.188
-460.070	-48.491	-0.221	0.106
-459.055	-198.502	0.218	-0.001
-458.040	-200.000	-0.006	0.134
-457.026	340.964	0.100	-0.195
-456.011	800.000	-0.079	0.234
-454.997	721.702	0.039	0.103
-453.982	800.000	-0.097	0.353
-452.968	-180.013	-0.493	0.010
-451.953	-200.000	0.045	-0.200
-450.938	518.200	0.084	0.198
-449.924	-167.552	0.406	-0.016
-448.909	576.030	-0.033	-0.081
-447.895	373.778	-0.048	0.098
-446.880	82.722	0.332	-0.360
-445.865	800.000	0.124	-0.446
-444.851	18.026	-0.057	0.045
-443.836	-18.751	0.300	0.187
-442.822	-77.638	-0.299	0.104
-441.807	-78.595	0.116	0.040
-440.792	800.000	-0.090	-0.269
-439.778	260.856	-0.063	0.110
-438.763	-38.227	-0.115	-0.061
-437.749	107.880	0.087	0.104
-436.734	-80.164	0.283	-0.095
-435.719	-200.000	0.003	-0.018
-434.705	-200.000	0.002	0.440
-433.690	-200.000	0.033	-0.222
-432.676	-200.000	0.006	-0.263
-431.661	306.597	-0.045	-0.084
-430.646	83.576	-0.088	-0.096
-429.632	800.000	-0.040	-0.165
-428.617	-20.879	0.382	0.234
-427.603	183.009	0.061	0.090
-426.588	-85.916	0.100	-0.031
-425.573	36.600	0.139	0.123
-424.559	-200.000	-0.011	0.453
-423.544	345.193	-0.182	0.358
-422.530	-200.000	0.022	0.116
-421.515	-119.502	-0.113	0.020
-420.500	457.518	0.120	-0.267
-419.486	156.273	0.170	0.234
-418.471	800.000	0.011	0.041
-417.457	14.730	-0.197	0.154
-416.442	280.185	0.174	-0.310
-415.428	161.404	0.086	0.121
-414.413	-127.143	-0.240	0.035
-413.398	-188.145	0.032	0.000
-412.384	-10.067	-0.120	0.079
-411.369	800.000	0.053	-0.228
-410.355	18.810	0.121	0.097
-409.340	56.665	-0.197	-0.191
-408.325	800.000	-0.093	-0.341
-407.311	-200.000	-0.055	0.291
-406.296	313.439	-0.063	-0.118
-405.282	217.523	-0.166	-0.264
-404.267	534.965	-0.082	-0.195
-403.252	110.134	-0.099	-0.119
-402.238	-63.373	-0.059	-0.024
-401.223	-115.837	0.411	0.077
-400.209	-50.503	-0.024	-0.011
-399.194	-200.000	-0.013	-0.124
-398.179	800.000	-0.052	-0.189
-397.165	-30.154	0.230	-0.131
-396.150	114.972	0.090	-0.109
-395.136	-76.025	0.028	0.010
-394.121	-63.779	-0.105	0.043
-393.106	55.156	0.090	0.087
-392.092	800.000	-0.072	0.254
-391.077	-152.821	-0.242	-0.017
-390.063	325.335	-0.268	-0.511
-389.048	-48.754	-0.300	-0.144
-388.033	33.360	-0.112	0.097
-387.019	-200.000	-0.019	-0.162
-386.004	-139.924	-0.315	0.033
-384.990	633.977	-0.068	0.172
-383.975	-77.634	-0.069	0.024
-382.960	-43.289	0.291	0.147
-381.946	-84.529	-0.152	0.048
-380.931	112.994	0.015	-0.018
-379.917	309.060	0.109	-0.203
-378.902	800.000	0.053	0.185
-377.888	800.000	0.040	0.168
-376.873	-200.000	-0.025	0.125
-375.858	139.067	0.071	0.093
-374.844	-200.000	-0.012	0.253
-373.829	-200.000	-0.001	0.149
-372.815	-23.799	0.300	-0.179
-371.800	800.000	-0.039	0.127
-370.785	535.066	0.105	-0.249
-369.771	102.035	0.367	0.427
-368.756	143.817	-0.111	-0.147
-367.742	-200.000	-0.024	0.260
-366.727	433.635	-0.064	0.139
-365.712	-167.126	0.170	-0.007
-364.698	-200.000	0.036	0.383
-363.683	169.146	-0.174	-0.247
-362.669	-200.000	0.003	0.119
-361.654	800.000	0.041	-0.119
-360.639	-37.929	0.148	0.079
-359.625	-200.000	0.031	-0.146
-358.610	112.287	0.044	-0.053
-357.596	265.416	0.119	0.206
-356.581	-87.884	0.376	-0.113
-355.566	-67.362	-0.250	-0.098
-354.552	-200.000	0.039	0.176
-353.537	84.038	0.195	0.212
-352.523	206.662	-0.105	-0.162
-351.508	603.685	0.099	0.245
-350.493	32.594	0.082	-0.071
-349.479	-40.077	-0.102	-0.053
-348.464	-200.000	0.009	0.041
-347.450	-200.000	-0.035	-0.180
-346.435	-113.621	0.312	0.061
-345.420	-136.950	0.129	0.015
-344.406	-124.447	0.113	0.017
-343.391	800.000	-0.122	-0.372
-342.377	179.992	0.144	-0.210
-341.362	-200.000	0.017	-0.104
-340.348	-200.000	-0.011	0.133
-339.333	-116.536	0.399	-0.073
-338.318	-40.957	-0.375	0.193
-337.304	-200.000	-0.029	0.280
-336.289	-29.037	-0.230	0.132
-335.275	345.545	-0.087	0.171
-334.260	113.884	-0.068	0.082
-333.245	417.205	-0.104	-0.220
-332.231	552.474	0.046	0.111
-331.216	-70.801	0.143	0.054
-330.202	-6.825	-0.063	0.043
-329.187	606.250	-0.095	0.237
-328.172	-119.679	-0.276	0.047
-327.158	105.993	-0.234	-0.276
-326.143	67.527	-0.233	-0.237
-325.129	-200.000	-0.023	-0.131
-324.114	435.265	0.002	-0.005
-323.099	-200.000	-0.013	0.371
-322.085	-75.795	0.110	-0.039
-321.070	-16.412	-0.102	-0.064
-320.056	-82.621	-0.370	-0.119
-319.041	449.041	-0.265	0.582
-318.026	-9.230	0.151	-0.101
-317.012	-143.971	0.266	0.025
-315.997	-200.000	0.003	0.350
-314.983	351.995	0.152	0.299
-313.968	775.039	-0.154	-0.419
-312.953	800.000	0.043	0.147
-311.939	-85.191	0.116	-0.036
-310.924	800.000	0.067	-0.241
-309.910	-93.166	-0.187	-0.052
-308.895	582.937	0.062	0.151
-307.880	-200.000	-0.012	0.079
-306.866	141.614	0.098	-0.129
-305.851	-91.884	0.128	0.036
-304.837	-150.437	0.092	-0.007
-303.822	-47.465	0.227	-0.110
-302.807	-24.990	0.327	-0.193
-301.793	-51.719	-0.142	-0.066
-300.778	-54.149	-0.195	-0.088
-299.764	-66.418	-0.423	-0.167
-298.749	-200.000	0.056	-0.284
-297.735	800.000	-0.116	-0.332
-296.720	105.922	0.113	0.133
-295.705	396.074	-0.173	0.358
-294.691	-3.207	0.123	0.085
-293.676	-116.220	-0.241	-0.044
-292.662	544.957	0.138	-0.327
-291.647	7.359	0.134	-0.099
-290.632	-125.967	-0.188	0.028
-289.618	303.760	-0.099	0.183
-288.603	147.950	-0.238	0.319
-287.589	-200.000	0.041	0.338
-286.574	-200.000	-0.027	0.138
-285.559	54.950	-0.178	-0.170
-284.545	-48.908	-0.050	0.024
-283.530	621.959	0.104	0.261
-282.516	-84.942	-0.422	0.131
-281.501	-82.861	0.074	-0.024
-280.486	-200.000	-0.035	0.481
-279.472	-19.345	0.225	-0.139
-278.457	800.000	0.047	0.153
-277.443	-138.305	0.092	0.010
-276.428	800.000	0.034	0.121
-275.413	30.459	-0.272	0.231
-274.399	208.797	-0.229	0.356
-273.384	-118.581	0.026	0.005
-272.370	800.000	0.029	0.100
-271.355	-1.224	0.052	0.036
-270.340	145.678	0.168	0.224
-269.326	31.338	0.021	0.018
-268.311	-74.478	0.235	0.084
-267.297	-10.896	0.031	-0.021
-266.282	-200.000	0.033	0.293
-265.267	53.091	0.145	0.138
-264.253	203.150	0.111	0.170
-263.238	347.421	-0.155	0.303
-262.224	137.003	0.069	-0.089
-261.209	57.586	0.057	0.056
-260.195	-200.000	-0.025	0.116
-259.180	162.313	-0.061	0.085
-258.165	4.022	0.360	0.261
-257.151	240.645	0.124	-0.205
-256.136	-83.135	0.292	-0.093
-255.122	800.000	-0.010	-0.031
-254.107	45.425	0.228	-0.209
-253.092	-200.000	-0.029	-0.136
-252.078	-200.000	0.026	-0.136
-251.063	81.641	-0.138	-0.148
-250.049	-177.511	-0.377	0.009
-249.034	716.541	0.033	-0.088
-248.019	-200.000	0.104	-0.454
-247.005	-89.868	0.296	-0.086
-245.990	319.461	-0.131	0.247
-244.976	-96.943	-0.078	-0.020
-243.961	-89.948	0.118	-0.034
-242.946	-200.000	-0.008	0.200
-241.932	259.715	0.062	0.107
-240.917	-200.000	0.046	-0.205
-239.903	-29.342	0.108	-0.061
-238.888	-100.784	-0.153	-0.037
-237.873	-200.000	0.000	-0.023
-236.859	63.505	0.077	0.077
-235.844	-99.795	0.384	0.095
-234.830	9.261	0.271	0.203
-233.815	-1.116	0.160	-0.112
-232.800	-9.450	-0.141	-0.093
-231.786	333.022	-0.025	0.047
-230.771	800.000	-0.121	-0.342
-229.757	-183.527	0.292	0.005
-228.742	800.000	0.015	0.062
-227.727	-200.000	-0.058	-0.269
-226.713	800.000	-0.022	-0.086
-225.698	-62.783	-0.050	0.020
-224.684	-200.000	0.031	0.197
-223.669	18.404	0.111	-0.088
-222.655	214.456	0.174	-0.273
-221.640	794.927	0.083	-0.227
-220.625	800.000	-0.053	0.152
-219.611	511.006	0.061	-0.140
-218.596	288.949	-0.057	-0.102
-217.582	-28.011	0.338	0.194
-216.567	138.030	-0.114	-0.148
-215.552	-6.544	0.097	0.065
-214.538	-200.000	0.035	0.216
-213.523	5.997	-0.128	-0.094
-212.509	-73.215	-0.167	0.060
-211.494	-73.132	0.295	0.107
-210.479	-86.932	0.196	-0.059
-209.465	125.987	0.236	-0.295
-208.450	-61.788	0.097	-0.040
-207.436	-118.864	-0.272	0.047
-206.421	107.824	-0.071	-0.084
-205.406	-200.000	0.025	0.265
-204.392	-73.430	0.092	0.033
-203.377	76.993	0.322	0.339
-202.363	729.198	-0.130	0.344
-201.348	90.636	-0.115	0.127
-200.333	800.000	0.020	-0.059
-199.319	117.121	-0.120	-0.147
-198.304	698.060	-0.108	0.281
-197.290	286.420	-0.156	-0.278
-196.275	223.968	0.040	0.064
-195.260	-30.099	-0.210	0.118
-194.246	11.462	0.115	0.087
-193.231	-200.000	0.035	-0.274
-192.217	-70.612	0.140	-0.053
-191.202	621.480	-0.116	0.288
-190.187	-200.000	-0.442	0.002
-189.173	632.263	0.070	-0.175
-188.158	-200.000	-0.029	-0.138
-187.144	65.356	0.294	-0.295
-186.129	-168.947	-0.213	-0.008
-185.114	333.465	0.081	0.154
-184.100	-200.000	0.009	0.185
-183.085	800.000	-0.030	-0.082
-182.071	73.531	0.196	-0.203
-181.056	592.203	-0.086	-0.211
-180.042	-35.452	0.064	0.034
-179.027	-200.000	-0.040	-0.258
-178.012	98.082	0.175	-0.199
-176.998	97.001	0.116	0.131
-175.983	800.000	0.022	-0.086
-174.969	-66.638	-0.218	-0.086
-173.954	12.797	-0.074	-0.057
-172.939	-200.000	-0.001	-0.222
-171.925	421.402	0.036	0.076
-170.910	-153.697	0.260	-0.018
-169.896	-110.262	-0.303	-0.062
-168.881	-88.586	0.150	0.044
-167.866	800.000	0.051	0.181
-166.852	737.130	-0.080	0.212
-165.837	-200.000	0.023	0.207
-164.823	-171.069	0.273	0.009
-163.808	11.913	0.197	0.150
-162.793	-200.000	-0.009	0.115
-161.779	-200.000	0.028	-0.417
-160.764	-20.389	-0.398	-0.242
-159.750	800.000	-0.047	0.165
-158.735	47.873	0.291	-0.269
-157.720	-200.000	-0.054	0.267
-156.706	692.771	-0.055	-0.143
-155.691	63.650	-0.121	0.120
-154.677	-28.921	-0.219	-0.124
-153.662	187.573	0.109	-0.161
-152.647	-89.878	-0.066	-0.019
-151.633	125.413	0.158	-0.198
-150.618	-66.569	-0.319	0.125
-149.604	-200.000	0.019	0.309
-148.589	-200.000	-0.034	-0.460
-147.574	-80.494	-0.188	0.062
-146.560	-21.438	0.325	-0.196
-145.545	-39.327	0.339	-0.176
-144.531	796.653	-0.080	-0.218
-143.516	40.507	-0.166	0.148
-142.502	12.072	0.343	0.260
-141.487	59.978	0.056	-0.055
-140.472	-200.000	0.021	-0.159
-139.458	199.551	-0.084	0.128
-138.443	-200.000	-0.002	0.023
-137.429	-82.662	0.429	-0.137
-136.414	135.579	-0.195	0.251
-135.399	792.427	-0.021	0.058
-134.385	11.044	0.265	0.200
-133.370	-102.448	-0.103	0.024
-132.356	31.858	-0.126	0.107
-131.341	800.000	-0.019	-0.065
-130.326	294.420	-0.079	0.143
-129.312	-167.297	-0.187	-0.007
-128.297	666.006	-0.041	0.104
-127.283	-113.065	0.091	0.018
-126.268	54.066	0.137	-0.130
-125.253	204.905	0.047	0.073
-124.239	-56.427	0.264	-0.116
-123.224	-19.086	-0.049	0.030
-122.210	198.271	0.127	0.192
-121.195	-9.224	0.365	0.241
-120.180	800.000	-0.049	0.142
-119.166	-167.093	-0.210	0.008
-118.151	167.395	-0.088	-0.124
-117.137	800.000	-0.005	0.019
-116.122	3.305	0.107	-0.077
-115.107	-200.000	-0.026	-0.410
-114.093	157.479	-0.311	0.425
-113.078	257.700	0.097	0.165
-112.064	-200.000	-0.014	-0.135
-111.049	-32.969	0.118	-0.065
-110.034	-94.012	0.166	0.045
-109.020	152.903	-0.105	0.141
-108.005	-93.215	0.180	-0.049
-106.991	-96.979	0.151	0.039
-105.976	-48.936	-0.076	0.036
-104.962	-124.281	0.453	0.070
-103.947	-0.322	0.291	-0.204
-102.932	-27.380	-0.259	0.149
-101.918	-114.385	0.188	0.036
-100.903	-200.000	-0.008	-0.284
-99.889	-121.025	-0.288	0.048
-98.874	51.145	0.117	0.109
-97.859	-119.859	-0.166	-0.028
-96.845	-136.678	0.057	0.006
-95.830	263.945	0.060	0.103
-94.816	-134.396	-0.479	0.058
-93.801	124.433	0.070	0.087
-92.786	-68.768	0.159	0.061
-91.772	-200.000	0.007	-0.038
-90.757	-145.009	0.185	-0.017
-89.743	66.118	0.112	-0.112
-88.728	-200.000	0.041	0.190
-87.713	-107.198	0.348	-0.076
-86.699	-99.914	-0.147	0.036
-85.684	-80.773	-0.488	-0.160
-84.670	-160.728	0.284	-0.015
-83.655	60.630	0.156	-0.152
-82.640	-69.511	0.043	0.016
-81.626	800.000	0.010	0.027
-80.611	198.215	0.169	-0.255
-79.597	62.574	-0.075	0.074
-78.582	-149.782	-0.085	-0.007
-77.567	-173.306	0.043	0.001
-76.553	738.085	0.087	-0.231
-75.538	800.000	0.066	-0.197
-74.524	-73.840	-0.197	0.070
-73.509	-200.000	-0.007	-0.222
-72.494	-200.000	0.027	0.121
-71.480	334.080	0.116	0.221
-70.465	425.499	-0.051	0.109
-69.451	13.410	0.230	0.175
-68.436	76.513	-0.105	-0.110
-67.422	215.311	-0.218	0.341
-66.407	127.409	0.198	-0.247
-65.392	94.078	0.098	-0.109
-64.378	-71.927	-0.261	0.096
-63.363	155.739	0.141	0.192
-62.349	28.954	-0.211	0.176
-61.334	52.410	-0.852	-0.801
-60.319	10.949	0.679	0.511
-59.305	267.981	-0.532	-0.918
-58.290	133.773	0.592	0.755
-57.276	170.705	0.956	1.349
-56.261	-200.000	95.121	589.444
-55.246	668.331	1369.491	3488.352
-54.232	199.832	2541.727	3840.981
-53.217	120.370	2161.339	2642.498
-52.203	43.167	1707.600	1534.616
-51.188	35.638	1520.532	1315.170
-50.173	33.344	1493.298	1276.118
-49.159	52.466	1541.984	1449.105
-48.144	54.445	1559.037	1478.618
-47.130	35.836	1519.374	1315.313
-46.115	32.672	1505.438	1281.723
-45.100	32.479	1501.806	1277.271
-44.086	32.495	1499.673	1275.511
-43.071	32.536	1498.282	1274.553
-42.057	32.448	1496.329	1272.251
-41.042	32.487	1494.509	1270.914
-40.027	32.410	1493.129	1269.171
-39.013	32.383	1491.696	1267.722
-37.998	32.394	1490.248	1266.512
-36.984	32.545	1489.189	1266.579
-35.969	32.415	1488.264	1264.867
-34.954	32.425	1486.779	1263.625
-33.940	32.422	1485.692	1262.631
-32.925	32.397	1483.902	1260.889
-31.911	32.429	1482.766	1260.089
-30.896	32.527	1481.162	1259.332
-29.881	32.512	1479.720	1257.953
-28.867	32.445	1478.295	1256.246
-27.852	32.482	1476.899	1255.260
-26.838	32.576	1475.293	1254.466
-25.823	32.520	1473.876	1252.840
-24.809	32.522	1471.979	1251.193
-23.794	32.463	1470.977	1249.897
-22.779	32.437	1470.038	1248.881
-21.765	32.594	1468.364	1248.448
-20.750	32.436	1467.568	1246.676
-19.736	32.422	1466.508	1245.630
-18.721	32.352	1465.551	1244.308
-17.706	32.268	1464.650	1242.940
-16.692	32.437	1462.982	1242.587
-15.677	32.373	1462.030	1241.310
-14.663	32.340	1461.424	1240.524
-13.648	32.427	1460.254	1240.057
-12.633	32.353	1459.418	1238.809
-11.619	32.364	1458.504	1238.060
-10.604	32.470	1457.295	1237.682
-9.590	32.369	1456.872	1236.609
-8.575	32.391	1456.045	1236.000
-7.560	32.418	1455.250	1235.455
-6.546	32.330	1454.640	1234.309
-5.531	32.338	1453.194	1233.087
-4.517	32.385	1452.004	1232.338
-3.502	32.358	1451.250	1231.467
-2.487	32.421	1450.030	1230.801
-1.473	32.354	1449.005	1229.444
-0.458	32.398	1447.753	1228.615
0.556	31.433	1438.396	1217.525
1.571	28.553	1412.338	1176.912
2.586	25.018	1352.311	1105.037
3.600	23.414	1270.366	1028.678
4.615	21.947	1224.658	983.367
5.629	19.110	1168.399	922.923
6.644	11.488	1085.237	819.059
7.659	5.669	1045.392	760.730
8.673	4.868	1040.523	753.244
9.688	4.695	1037.551	750.194
10.702	4.505	1036.468	748.430
11.717	4.692	1033.745	747.294
12.731	6.804	1035.833	758.893
13.746	13.896	1045.660	800.319
14.761	18.949	1051.914	829.471
15.775	18.880	1050.199	827.711
16.790	17.701	1047.834	820.109
17.804	16.732	1046.069	813.996
18.819	15.749	1044.202	807.756
19.834	15.370	1042.906	804.863
20.848	15.046	1042.175	802.673
21.863	14.949	1040.921	801.173
22.877	14.590	1040.218	798.843
23.892	14.519	1039.444	797.835
24.907	14.265	1038.911	796.143
25.921	14.365	1037.905	795.780
26.936	14.412	1036.952	795.204
27.950	14.362	1036.095	794.238
28.965	14.528	1034.790	793.956
29.980	14.427	1034.112	792.886
30.994	14.616	1032.705	792.636
32.009	14.680	1032.099	792.402
33.023	14.660	1031.361	791.671
34.038	14.612	1030.300	790.557
35.053	14.561	1029.619	789.725
36.067	14.574	1028.562	788.906
37.082	14.428	1027.720	787.499
38.096	14.514	1027.220	787.453
39.111	14.633	1025.952	786.972
40.126	14.629	1025.660	786.660
41.140	14.525	1023.918	784.767
42.155	14.456	1022.929	783.614
43.169	14.275	1022.050	782.023
44.184	14.254	1020.880	780.960
45.199	14.122	1020.327	779.850
46.213	14.197	1019.471	779.477
47.228	14.364	1018.186	779.207
48.242	14.428	1016.998	778.527
49.257	14.505	1016.517	778.449
50.271	14.545	1014.990	777.395
51.286	14.490	1014.342	776.577
52.301	14.538	1013.417	776.020
53.315	14.605	1013.154	776.066
54.330	14.493	1012.344	774.854
55.344	14.310	1011.449	773.249
56.359	14.361	1010.196	772.460
57.374	14.381	1009.229	771.748
58.388	14.344	1008.541	770.980
59.403	14.131	1007.808	769.365
60.417	14.263	1006.734	769.087
61.432	14.358	1005.891	768.816
62.447	14.283	1005.355	767.992
63.461	14.208	1004.772	767.133
64.476	14.104	1003.665	765.741
65.490	14.187	1002.802	765.397
66.505	14.065	1002.135	764.258
67.520	14.323	1001.446	764.849
68.534	14.288	1000.351	763.785
69.549	14.100	1000.361	762.864
70.563	14.278	998.781	762.407
71.578	14.239	998.427	761.889
72.593	14.171	997.511	760.814
73.607	14.012	996.647	759.362
74.622	14.054	995.672	758.741
75.636	14.131	994.412	758.064
76.651	14.146	993.516	757.386
77.666	14.069	993.348	756.837
78.680	13.987	992.439	755.703
79.695	14.064	992.152	755.768
80.709	14.107	991.305	755.252
81.724	14.201	990.856	755.270
82.739	14.166	990.105	754.474
83.753	14.279	989.023	754.092
84.768	14.423	988.201	754.054
85.782	14.503	987.736	753.993
86.797	14.748	986.513	754.096
87.812	14.678	985.877	753.228
88.826	14.416	985.492	751.685
89.841	14.499	984.340	751.115
90.855	14.564	983.762	750.899
91.870	14.483	982.923	749.831
92.884	14.515	982.519	749.599
93.899	14.604	981.727	749.328
94.914	14.635	980.695	748.612
95.928	14.649	979.961	748.048
96.943	14.643	979.536	747.630
97.957	14.533	978.845	746.544
98.972	14.484	978.054	745.657
99.987	14.580	976.779	745.047
101.001	14.659	976.136	744.843
102.016	14.657	975.326	744.152
103.030	14.546	974.590	743.029
104.045	14.566	973.693	742.370
105.060	14.589	972.542	741.528
106.074	14.520	971.615	740.450
107.089	14.392	971.038	739.378
108.103	14.360	970.070	738.430
109.118	14.299	968.922	737.221
110.133	14.364	967.906	736.672
111.147	14.277	967.436	735.864
112.162	14.214	966.489	734.801
113.176	14.190	965.888	734.174
114.191	14.284	965.277	734.056
115.206	14.393	964.235	733.679
116.220	14.323	963.609	732.832
117.235	14.335	962.231	731.770
118.249	14.269	961.990	731.233
119.264	14.310	960.522	730.233
120.279	14.212	959.800	729.192
121.293	14.310	959.044	728.981
122.308	14.159	958.530	727.865
123.322	14.240	957.661	727.492
124.337	14.194	956.684	726.487
125.352	14.211	955.120	725.307
126.366	14.179	954.312	724.493
127.381	14.182	953.151	723.560
128.395	14.001	952.587	722.281
129.410	14.171	951.427	722.076
130.424	14.320	950.037	721.600
131.439	14.260	949.485	720.859
132.454	14.329	948.880	720.632
133.468	14.397	947.769	720.022
134.483	14.459	947.585	720.085
135.497	14.360	946.954	719.115
136.512	14.255	946.259	718.071
137.527	14.461	945.115	718.026
138.541	14.328	944.802	717.152
139.556	14.440	943.871	716.863
140.570	14.369	942.698	715.603
141.585	14.417	942.369	715.496
142.600	14.562	941.810	715.632
143.614	14.604	940.966	715.107
144.629	14.595	940.308	714.506
145.643	14.673	939.710	714.323
146.658	14.656	938.835	713.519
147.673	14.505	937.689	711.943
148.687	14.496	936.795	711.162
149.702	14.512	935.788	710.402
150.716	14.416	935.251	709.520
151.731	14.391	934.752	708.977
152.746	14.439	934.064	708.593
153.760	14.422	933.200	707.802
154.775	14.552	932.278	707.594
155.789	14.573	931.274	706.860
156.804	14.499	930.997	706.272
157.819	14.636	929.783	705.870
158.833	14.575	929.238	705.136
159.848	14.732	928.855	705.446
160.862	14.829	927.998	705.142
161.877	14.748	927.418	704.294
162.892	14.580	926.737	703.008
163.906	14.533	925.652	701.924
164.921	14.594	924.739	701.428
165.935	14.534	923.734	700.351
166.950	14.448	922.919	699.312
167.964	14.651	922.030	699.425
168.979	14.694	920.809	698.619
169.994	14.513	920.182	697.322
171.008	14.520	919.508	696.782
172.023	14.667	918.625	696.664
173.037	14.599	917.996	695.842
174.052	14.730	917.329	695.820
175.067	14.661	917.032	695.245
176.081	14.696	915.778	694.377
177.096	14.525	915.148	693.127
178.110	14.666	914.185	692.924
179.125	14.655	913.495	692.292
180.140	14.553	912.662	691.176
181.154	14.585	912.006	690.752
182.169	14.638	911.706	690.685
183.183	14.694	911.114	690.404
184.198	14.855	910.228	690.336
185.213	14.865	909.538	689.796
186.227	14.820	909.136	689.243
187.242	14.822	908.743	688.891
188.256	14.914	907.947	688.606
189.271	14.889	907.500	688.102
190.286	14.952	906.445	687.502
191.300	14.727	905.799	686.028
192.315	14.709	904.552	684.948
193.329	14.614	904.197	684.231
194.344	14.533	903.617	683.399
195.359	14.638	902.788	683.140
196.373	14.862	902.099	683.473
197.388	14.866	901.818	683.216
198.402	14.931	901.235	682.980
199.417	14.986	901.392	683.263
200.432	15.087	900.782	683.153
201.446	15.138	900.207	682.867
202.461	15.212	899.952	682.913
203.475	15.338	899.049	682.681
204.490	15.219	898.565	681.767
205.504	15.187	897.415	680.704
206.519	15.157	896.187	679.592
207.534	15.031	895.966	678.853
208.548	15.142	894.763	678.330
209.563	15.024	894.640	677.698
210.577	15.106	893.792	677.330
211.592	15.085	893.306	676.817
212.607	15.203	892.676	676.757
213.621	15.199	892.511	676.553
214.636	15.278	891.646	676.158
215.650	15.147	891.174	675.210
216.665	15.179	890.715	674.932
217.680	15.276	889.906	674.649
218.694	15.403	889.242	674.599
219.709	15.393	888.976	674.298
220.723	15.396	888.295	673.732
221.738	15.411	887.206	672.908
222.753	15.273	886.512	671.767
223.767	15.478	885.831	672.014
224.782	15.452	884.910	671.151
225.796	15.488	884.637	671.027
226.811	15.471	884.075	670.475
227.826	15.386	883.643	669.748
228.840	15.387	882.624	668.922
229.855	15.293	882.222	668.183
230.869	15.330	881.336	667.602
231.884	15.261	881.103	667.089
232.899	15.337	880.242	666.682
233.913	15.356	879.438	666.090
234.928	15.314	878.553	665.192
235.942	15.131	878.208	664.148
236.957	15.330	877.341	664.222
237.972	15.179	876.661	663.049
238.986	15.363	875.621	662.933
240.001	15.405	875.093	662.639
241.015	15.360	874.895	662.252
242.030	15.363	874.253	661.719
243.045	15.533	873.634	661.862
244.059	15.435	873.379	661.224
245.074	15.538	872.092	660.597
246.088	15.473	872.041	660.246
247.103	15.731	870.993	660.407
248.117	15.627	870.841	659.823
249.132	15.736	869.896	659.476
250.147	15.696	869.608	659.044
251.161	15.892	868.755	659.106
252.176	15.858	868.619	658.813
253.190	15.909	867.831	658.354
254.205	15.923	867.109	657.806
255.220	16.008	866.700	657.766
256.234	16.016	866.309	657.443
257.249	16.029	865.482	656.807
258.263	16.031	865.114	656.480
259.278	16.163	864.078	656.148
260.293	16.273	863.523	656.095
261.307	16.182	863.182	655.425
262.322	16.187	862.576	654.925
263.336	16.211	862.050	654.564
264.351	16.170	861.228	653.723
265.366	16.246	860.592	653.474
266.380	16.332	859.835	653.175
267.395	16.284	859.500	652.676
268.409	16.212	858.797	651.808
269.424	16.249	857.735	651.088
270.439	16.211	857.417	650.640
271.453	16.264	856.325	649.958
272.468	16.257	855.873	649.531
273.482	16.076	854.992	648.111
274.497	16.027	855.093	647.942
275.512	16.196	853.775	647.531
276.526	16.239	853.107	647.133
277.541	16.046	852.974	646.235
278.555	16.184	852.293	646.190
279.570	16.294	851.752	646.144
280.585	16.380	851.096	645.918
281.599	16.403	850.824	645.742
282.614	16.318	850.432	645.063
283.628	16.300	849.480	644.218
284.643	16.330	848.777	643.740
285.657	16.325	848.144	643.185
286.672	16.334	847.783	642.888
287.687	16.291	847.467	642.427
288.701	16.403	846.658	642.185
289.716	16.408	846.384	641.936
290.730	16.361	845.786	641.249
291.745	16.326	845.268	640.666
292.760	16.468	844.491	640.559
293.774	16.475	843.893	640.075
294.789	16.398	843.633	639.533
295.803	16.465	842.795	639.091
296.818	16.414	842.423	638.559
297.833	16.367	841.723	637.797
298.847	16.596	840.711	637.837
299.862	16.445	840.057	636.715
300.876	16.484	839.278	636.216
301.891	16.569	838.739	636.071
302.906	16.636	838.239	635.887
303.920	16.742	837.441	635.622
304.935	16.849	836.908	635.565
305.949	16.856	836.078	634.901
306.964	16.905	835.995	634.966
307.979	16.689	835.472	633.705
308.993	16.766	834.769	633.403
310.008	16.792	834.538	633.269
311.022	16.801	834.190	632.983
312.037	16.902	833.259	632.595
313.052	16.714	833.116	631.732
314.066	16.750	831.977	630.945
315.081	16.592	831.576	629.998
316.095	16.573	831.216	629.598
317.110	16.753	830.185	629.433
318.125	16.670	830.024	628.944
319.139	16.452	829.898	627.983
320.154	16.592	829.250	627.958
321.168	16.667	828.363	627.507
322.183	16.687	827.954	627.217
323.197	16.825	827.580	627.391
324.212	16.780	827.031	626.751
325.227	16.845	825.926	626.098
326.241	16.663	825.997	625.425
327.256	16.686	825.408	625.008
328.270	16.777	824.168	624.349
329.285	16.764	824.328	624.367
330.300	16.762	823.526	623.695
331.314	16.822	822.821	623.329
332.329	16.934	821.998	623.060
333.343	16.978	821.649	622.903
334.358	17.044	820.637	622.322
335.373	16.940	820.791	622.002
336.387	17.129	819.967	622.016
337.402	16.874	820.024	621.068
338.416	17.090	818.963	621.000
339.431	17.033	818.522	620.406
340.446	17.192	817.965	620.506
341.460	17.066	817.700	619.792
342.475	17.319	816.914	620.064
343.489	17.340	816.282	619.607
344.504	17.364	816.131	619.523
345.519	17.251	815.562	618.627
346.533	17.301	815.251	618.517
347.548	17.426	814.536	618.376
348.562	17.418	813.602	617.582
349.577	17.106	813.508	616.324
350.592	17.126	813.011	615.964
351.606	16.995	812.456	615.013
352.621	17.159	811.712	614.993
353.635	17.210	811.248	614.768
354.650	17.278	811.309	615.008
355.665	17.160	811.055	614.334
356.679	17.158	810.371	613.754
357.694	17.192	809.926	613.487
358.708	17.316	809.186	613.316
359.723	17.424	808.443	613.088
360.738	17.360	808.038	612.497
361.752	17.317	807.362	611.778
362.767	17.451	807.239	612.111
363.781	17.403	806.848	611.589
364.796	17.588	806.232	611.733
365.810	17.624	805.621	611.345
366.825	17.769	805.345	611.598
367.840	17.708	805.249	611.253
368.854	17.694	804.773	610.788
369.869	17.757	804.113	610.459
370.883	17.662	803.438	609.553
371.898	17.604	803.000	608.959
372.913	17.688	802.606	608.904
373.927	17.539	802.546	608.275
374.942	17.710	801.192	607.803
375.956	17.607	800.950	607.200
376.971	17.834	800.230	607.410
377.986	17.894	799.404	606.939
379.000	17.954	798.932	606.742
380.015	17.841	798.876	606.246
381.029	17.956	798.143	606.042
382.044	17.950	797.292	605.320
383.059	17.891	797.034	604.864
384.073	17.836	796.791	604.429
385.088	17.931	796.051	604.151
386.102	17.818	795.417	603.218
387.117	17.800	794.651	602.519
388.132	17.764	794.681	602.362
389.146	17.753	794.086	601.819
390.161	17.727	794.108	601.689
391.175	17.871	793.371	601.587
392.190	17.900	793.390	601.649
393.205	17.881	792.891	601.153
394.219	17.934	792.200	600.760
395.234	17.936	791.716	600.349
396.248	17.775	791.031	599.209
397.263	17.658	790.747	598.530
398.278	17.650	790.533	598.288
399.292	17.678	789.761	597.749
400.307	17.836	789.065	597.722
401.321	17.906	788.517	597.501
402.336	17.803	788.771	597.278
403.350	17.879	788.239	597.088
404.365	18.011	787.482	596.923
405.380	18.075	787.210	596.889
406.394	18.063	786.964	596.606
407.409	18.085	786.309	596.133
408.423	18.217	785.973	596.287
409.438	18.302	785.474	596.152
410.453	18.182	785.283	595.537
411.467	18.344	784.748	595.641
412.482	18.322	784.019	594.958
413.496	18.367	783.648	594.782
414.511	18.435	783.522	594.869
415.526	18.399	783.211	594.455
416.540	18.273	783.112	593.891
417.555	18.373	781.935	593.292
418.569	18.482	781.610	593.369
419.584	18.340	781.368	592.641
420.599	18.450	780.710	592.471
421.613	156.136	1369.601	1793.777
422.628	134.742	1455.427	1793.888
