DTS Sentinel unit serial number:	SN413079Multiplexer serial number:	ORYXHardware model number:	OX4-SRSoftware version number:	ORYX F/W v4.00 Oryx Data Collector v3.7.2.0data status	okinstallation	princeton_trtdifferential loss correction	single-endedforward channel	channel 3reverse channel	N/Adate	2019/09/12time	05:38:10forward acquisition time	60.00reverse acquisition time	0.00gamma	496.2192k internal	0.2321k external	0.2321temperature offset calibration	1.0030default loss term (dB/km)	0.3790temperature slope calibration	1.0000multiplexer offset coefficient	1.0000multiplexer slope coefficient	1.0000fibre end	0.00T internal ref (°C)	32.00T ext. ref 1 (°C)	1.59T ext. ref 2 (°C)	27.51length (m)	temperature (°C)	Stokes	anti-Stokes-747.200	-43.462	-0.273	0.140
-746.185	182.315	-0.062	0.092
-745.171	80.411	-0.105	0.114
-744.156	-5.102	-0.227	0.158
-743.142	8.991	-0.117	0.089
-742.127	98.716	0.021	-0.025
-741.112	800.000	0.128	0.404
-740.098	-27.190	-0.148	0.087
-739.083	-33.135	-0.181	-0.102
-738.069	-74.678	0.175	-0.064
-737.054	259.104	-0.175	-0.305
-736.039	-29.968	-0.181	-0.104
-735.025	-32.275	0.366	0.206
-734.010	-83.370	-0.175	-0.057
-732.996	-200.000	0.035	0.324
-731.981	-25.009	0.063	-0.038
-730.966	-98.204	-0.113	0.029
-729.952	115.720	0.118	0.145
-728.937	-200.000	-0.031	-0.218
-727.923	82.236	-0.019	0.021
-726.908	103.055	0.161	-0.191
-725.894	-94.544	0.148	0.041
-724.879	54.735	0.171	0.167
-723.864	-103.417	-0.109	-0.026
-722.850	186.417	0.128	-0.192
-721.835	35.970	0.118	-0.105
-720.821	-200.000	0.041	0.224
-719.806	-9.227	0.385	-0.260
-718.791	-157.043	-0.461	-0.028
-717.777	-45.671	0.487	0.243
-716.762	-200.000	-0.014	-0.358
-715.748	-105.320	-0.220	-0.051
-714.733	-127.564	0.449	-0.066
-713.718	0.141	-0.243	-0.175
-712.704	-145.235	-0.009	-0.001
-711.689	800.000	-0.072	0.252
-710.675	-38.059	-0.259	0.139
-709.660	-30.422	-0.211	-0.121
-708.645	595.783	0.145	-0.361
-707.631	-60.198	-0.194	-0.083
-706.616	-200.000	-0.035	0.182
-705.602	-200.000	0.000	-0.023
-704.587	72.601	0.054	-0.057
-703.572	800.000	-0.012	-0.040
-702.558	89.692	-0.085	-0.096
-701.543	32.720	-0.393	0.343
-700.529	-173.169	0.194	0.006
-699.514	1.686	-0.301	-0.218
-698.499	58.130	-0.122	-0.120
-697.485	-200.000	0.021	0.153
-696.470	-108.335	0.193	0.042
-695.456	12.326	0.211	-0.164
-694.441	401.995	-0.141	-0.299
-693.426	-63.143	-0.280	0.117
-692.412	-85.588	-0.300	0.094
-691.397	125.022	-0.093	-0.118
-690.383	-7.433	-0.252	-0.172
-689.368	690.817	0.112	0.297
-688.354	86.910	-0.118	-0.131
-687.339	-200.000	0.015	0.204
-686.324	-132.556	0.072	-0.009
-685.310	-8.782	0.119	0.081
-684.295	332.950	-0.052	0.102
-683.281	126.722	0.071	-0.091
-682.266	-63.138	0.300	-0.125
-681.251	-2.998	-0.060	0.043
-680.237	-163.354	-0.347	0.017
-679.222	-49.355	-0.253	-0.122
-678.208	768.572	0.021	-0.059
-677.193	-120.615	-0.027	0.005
-676.178	-44.436	-0.150	0.076
-675.164	800.000	0.044	-0.179
-674.149	800.000	-0.104	-0.333
-673.135	-52.564	0.205	0.095
-672.120	800.000	0.099	0.302
-671.105	-167.128	0.447	-0.018
-670.091	-200.000	-0.065	0.370
-669.076	-105.812	0.168	-0.038
-668.062	617.080	-0.030	-0.076
-667.047	80.724	0.361	-0.392
-666.032	68.028	-0.112	-0.116
-665.018	-200.000	0.006	-0.026
-664.003	27.171	-0.101	0.086
-662.989	90.442	0.179	0.201
-661.974	5.034	0.230	-0.171
-660.959	508.770	0.017	-0.040
-659.945	-130.609	0.189	-0.026
-658.930	-0.975	-0.148	-0.106
-657.916	-15.451	-0.216	-0.139
-656.901	-150.630	0.327	-0.025
-655.886	525.961	-0.072	-0.171
-654.872	-80.021	0.180	0.061
-653.857	800.000	-0.087	0.349
-652.843	-39.867	0.294	-0.155
-651.828	757.316	-0.065	0.177
-650.814	-198.574	-0.329	0.002
-649.799	-93.123	0.139	0.039
-648.784	443.298	0.164	0.361
-647.770	-200.000	-0.006	0.039
-646.755	-132.641	0.386	0.050
-645.741	800.000	-0.081	-0.228
-644.726	-52.958	-0.227	-0.105
-643.711	800.000	0.033	0.128
-642.697	800.000	-0.040	-0.140
-641.682	498.031	0.044	-0.102
-640.668	88.340	-0.204	0.228
-639.653	110.429	-0.058	-0.071
-638.638	-64.835	-0.055	0.022
-637.624	274.221	-0.082	-0.147
-636.609	-129.785	-0.430	-0.060
-635.595	-63.170	-0.204	0.085
-634.580	346.529	-0.013	0.026
-633.565	-200.000	-0.004	0.289
-632.551	-3.845	-0.215	-0.150
-631.536	-200.000	0.012	0.215
-630.522	53.187	-0.036	-0.035
-629.507	-200.000	-0.046	-0.320
-628.492	304.700	-0.165	-0.309
-627.478	-200.000	0.031	-0.239
-626.463	-29.279	-0.169	0.098
-625.449	-181.700	0.210	0.004
-624.434	303.089	0.085	0.158
-623.419	-100.490	-0.237	0.059
-622.405	800.000	0.027	-0.092
-621.390	184.630	0.102	-0.152
-620.376	-102.528	0.294	-0.071
-619.361	-200.000	-0.037	0.199
-618.346	14.065	-0.200	-0.157
-617.332	-59.774	-0.167	-0.072
-616.317	-96.288	0.098	0.026
-615.303	800.000	0.073	0.268
-614.288	-160.736	0.160	-0.009
-613.273	-17.352	-0.113	-0.072
-612.259	518.841	-0.080	-0.189
-611.244	45.253	-0.211	-0.196
-610.230	-131.578	-0.155	0.021
-609.215	-200.000	0.002	0.238
-608.201	93.427	0.057	0.065
-607.186	-92.662	-0.174	0.049
-606.171	357.269	-0.067	0.134
-605.157	51.949	-0.074	-0.071
-604.142	-136.266	-0.122	0.014
-603.128	431.308	0.164	-0.357
-602.113	-191.348	-0.038	0.000
-601.098	-200.000	-0.070	0.517
-600.084	656.273	-0.107	-0.277
-599.069	-200.000	0.022	-0.124
-598.055	60.728	-0.110	-0.110
-597.040	-200.000	-0.004	-0.053
-596.025	-51.836	-0.170	0.080
-595.011	192.717	0.183	0.278
-593.996	-200.000	0.032	0.209
-592.982	268.623	-0.183	0.322
-591.967	164.733	0.170	0.242
-590.952	-20.464	0.415	0.257
-589.938	-174.014	-0.184	0.005
-588.923	-45.579	0.260	-0.130
-587.909	800.000	-0.145	0.567
-586.894	100.670	-0.185	-0.216
-585.879	800.000	-0.010	0.030
-584.865	-181.745	0.181	0.003
-583.850	-200.000	-0.062	-0.309
-582.836	33.467	0.116	-0.101
-581.821	800.000	-0.042	-0.172
-580.806	-112.098	-0.362	0.073
-579.792	42.986	-0.112	-0.103
-578.777	89.346	0.105	-0.117
-577.763	-140.271	-0.109	-0.011
-576.748	435.847	0.081	-0.177
-575.733	-162.013	-0.503	0.025
-574.719	442.527	0.098	0.216
-573.704	-49.241	0.219	-0.105
-572.690	-90.797	-0.145	-0.042
-571.675	-13.744	0.033	-0.022
-570.661	22.325	-0.143	0.117
-569.646	95.469	0.325	-0.372
-568.631	-23.908	0.118	-0.071
-567.617	-200.000	-0.057	-0.254
-566.602	224.705	0.300	-0.486
-565.588	71.370	-0.232	-0.241
-564.573	-89.811	0.285	0.084
-563.558	281.328	-0.243	-0.436
-562.544	-200.000	-0.025	0.207
-561.529	-151.311	-0.248	-0.019
-560.515	-139.310	-0.226	0.024
-559.500	524.179	0.077	0.181
-558.485	-26.722	-0.180	0.106
-557.471	2.038	-0.147	0.106
-556.456	517.149	-0.025	0.058
-555.442	-200.000	0.021	-0.134
-554.427	-195.880	-0.051	-0.000
-553.412	-66.762	0.199	0.079
-552.398	-53.374	0.048	-0.022
-551.383	329.041	0.081	0.156
-550.369	574.752	0.168	0.412
-549.354	216.186	-0.255	0.407
-548.339	-200.000	-0.027	-0.209
-547.325	-103.803	0.117	-0.027
-546.310	-189.848	-0.111	0.001
-545.296	456.269	-0.121	0.269
-544.281	-178.916	0.160	-0.004
-543.266	199.366	0.064	-0.098
-542.252	489.911	-0.235	-0.539
-541.237	23.032	0.308	0.253
-540.223	800.000	0.029	0.126
-539.208	-168.762	-0.128	0.005
-538.193	-200.000	0.000	-0.204
-537.179	-89.612	0.054	0.016
-536.164	44.108	-0.142	-0.131
-535.150	-200.000	-0.025	0.180
-534.135	201.068	-0.021	-0.033
-533.121	154.288	0.050	-0.069
-532.106	-84.279	0.136	-0.043
-531.091	-200.000	-0.113	-0.001
-530.077	800.000	-0.084	-0.302
-529.062	6.335	-0.259	-0.193
-528.048	82.253	-0.074	-0.081
-527.033	36.615	-0.087	-0.077
-526.018	-105.854	0.202	0.046
-525.004	15.146	0.347	-0.273
-523.989	12.998	0.142	-0.110
-522.975	-137.066	0.110	0.013
-521.960	470.289	0.069	-0.156
-520.945	800.000	0.035	-0.140
-519.931	-113.406	-0.517	-0.102
-518.916	12.588	0.269	-0.208
-517.902	-61.007	0.095	0.040
-516.887	-78.236	-0.385	0.133
-515.872	-200.000	0.024	0.327
-514.858	-88.345	0.172	-0.051
-513.843	2.145	0.096	0.070
-512.829	13.776	0.247	-0.192
-511.814	-200.000	-0.047	-0.262
-510.799	-200.000	-0.036	0.167
-509.785	800.000	-0.085	0.262
-508.770	-194.328	-0.213	0.002
-507.756	-21.716	-0.193	-0.118
-506.741	332.603	-0.123	0.239
-505.726	-152.633	-0.225	-0.016
-504.712	800.000	-0.058	-0.199
-503.697	-48.907	-0.188	0.090
-502.683	547.586	-0.039	-0.093
-501.668	800.000	0.070	0.223
-500.653	78.243	-0.184	-0.196
-499.639	35.166	-0.117	-0.102
-498.624	113.875	0.117	-0.142
-497.610	-78.629	0.125	-0.043
-496.595	117.969	-0.153	-0.188
-495.581	-61.328	0.132	0.056
-494.566	-200.000	0.076	0.394
-493.551	51.569	0.066	0.063
-492.537	-64.605	-0.400	-0.162
-491.522	-160.774	-0.234	-0.012
-490.508	-105.251	-0.281	0.064
-489.493	263.071	-0.169	-0.294
-488.478	113.628	0.110	-0.134
-487.464	-54.504	0.097	-0.044
-486.449	-114.017	-0.202	-0.039
-485.435	-68.865	0.213	-0.082
-484.420	87.788	0.267	-0.296
-483.405	285.424	-0.042	-0.076
-482.391	-158.403	0.216	0.013
-481.376	-126.967	0.220	-0.032
-480.362	-51.961	-0.245	-0.114
-479.347	800.000	-0.050	0.143
-478.332	171.308	-0.028	-0.041
-477.318	-47.121	-0.023	0.011
-476.303	33.862	0.050	0.043
-475.289	800.000	-0.083	-0.280
-474.274	20.925	0.068	0.055
-473.259	-94.670	-0.084	0.023
-472.245	-9.800	-0.071	-0.048
-471.230	800.000	-0.023	-0.076
-470.216	60.578	0.208	0.206
-469.201	183.180	-0.130	0.193
-468.186	-200.000	0.043	0.252
-467.172	-172.663	0.328	-0.010
-466.157	374.330	-0.047	0.095
-465.143	800.000	-0.112	0.314
-464.128	-79.550	0.212	-0.072
-463.113	800.000	-0.121	0.476
-462.099	-200.000	-0.019	0.332
-461.084	77.352	-0.166	0.176
-460.070	2.233	-0.202	0.146
-459.055	-200.000	-0.040	-0.265
-458.040	-73.214	-0.146	-0.054
-457.026	-200.000	-0.022	0.106
-456.011	150.349	0.247	-0.336
-454.997	-6.301	-0.150	-0.103
-453.982	132.362	-0.091	-0.118
-452.968	33.092	0.382	-0.331
-451.953	-126.537	0.052	0.008
-450.938	344.775	0.211	-0.413
-449.924	-200.000	0.008	0.307
-448.909	29.089	-0.206	0.174
-447.895	-162.380	0.285	-0.014
-446.880	572.132	-0.136	0.331
-445.865	-49.293	-0.035	0.017
-444.851	800.000	0.019	-0.066
-443.836	-200.000	0.045	-0.279
-442.822	-200.000	-0.030	-0.212
-441.807	91.494	-0.091	-0.102
-440.792	64.773	-0.143	-0.144
-439.778	-110.500	0.386	0.080
-438.763	26.350	-0.016	0.013
-437.749	92.064	-0.089	0.100
-436.734	508.720	0.071	0.165
-435.719	-48.726	-0.143	-0.068
-434.705	-144.565	-0.247	0.023
-433.690	15.092	-0.085	0.066
-432.676	67.072	0.146	-0.148
-431.661	157.767	0.393	0.544
-430.646	65.146	0.103	-0.104
-429.632	117.547	0.091	-0.111
-428.617	-144.123	-0.267	0.025
-427.603	-200.000	0.016	0.198
-426.588	-200.000	-0.032	-0.232
-425.573	139.631	-0.087	0.114
-424.559	351.928	-0.133	-0.263
-423.544	-200.000	-0.027	-0.159
-422.530	762.479	-0.069	0.188
-421.515	-21.408	0.147	0.090
-420.500	-1.484	0.205	0.144
-419.486	-139.531	0.237	0.025
-418.471	-164.347	-0.200	0.009
-417.457	800.000	-0.089	0.272
-416.442	-134.395	-0.420	-0.051
-415.428	-174.384	0.219	-0.006
-414.413	800.000	-0.024	0.097
-413.398	-9.209	0.362	0.241
-412.384	-145.023	-0.218	-0.020
-411.369	-47.272	-0.144	-0.070
-410.355	114.306	0.147	-0.179
-409.340	383.082	-0.197	0.404
-408.325	20.526	0.035	0.028
-407.311	203.928	-0.055	-0.085
-406.296	-200.000	0.001	0.049
-405.282	-200.000	-0.081	-0.505
-404.267	19.482	0.146	0.117
-403.252	-149.838	0.217	-0.017
-402.238	54.172	-0.108	-0.104
-401.223	-73.481	-0.113	-0.041
-400.209	-22.095	-0.082	0.050
-399.194	45.269	0.104	-0.096
-398.179	-200.000	0.024	0.190
-397.165	-200.000	0.040	-0.227
-396.150	-177.256	0.309	-0.008
-395.136	-84.854	-0.126	0.040
-394.121	71.812	0.293	-0.303
-393.106	120.030	0.181	-0.224
-392.092	-107.803	0.168	0.036
-391.077	756.557	0.048	0.130
-390.063	-8.368	-0.257	0.172
-389.048	-84.503	0.231	0.073
-388.033	313.886	0.090	0.169
-387.019	12.241	-0.190	-0.146
-386.004	800.000	-0.121	-0.476
-384.990	130.734	-0.116	-0.149
-383.975	-182.783	0.383	0.007
-382.960	-144.096	0.315	0.029
-381.946	37.487	0.107	0.094
-380.931	184.184	0.085	0.126
-379.917	-97.729	0.055	0.014
-378.902	-20.158	-0.381	0.234
-377.888	-200.000	-0.018	-0.213
-376.873	-200.000	0.019	-0.103
-375.858	61.717	-0.173	-0.172
-374.844	-29.164	0.285	-0.163
-373.829	183.335	0.240	-0.353
-372.815	410.110	-0.097	0.206
-371.800	-31.738	0.288	-0.161
-370.785	800.000	0.031	-0.093
-369.771	-200.000	0.001	0.156
-368.756	800.000	0.066	-0.258
-367.742	-42.340	-0.071	-0.036
-366.727	-49.456	-0.115	0.054
-365.712	-200.000	0.000	-0.169
-364.698	82.850	-0.129	-0.140
-363.683	7.990	-0.274	0.205
-362.669	-200.000	0.013	0.355
-361.654	-29.669	0.185	0.105
-360.639	-200.000	-0.067	0.376
-359.625	-200.000	0.010	0.128
-358.610	182.757	-0.243	0.357
-357.596	-63.084	-0.137	-0.056
-356.581	83.289	-0.060	-0.065
-355.566	-200.000	-0.022	0.205
-354.552	-150.878	-0.280	-0.021
-353.537	-22.771	-0.298	0.179
-352.523	-198.412	-0.192	-0.001
-351.508	581.522	0.067	-0.164
-350.493	800.000	0.175	-0.652
-349.479	14.246	-0.126	0.098
-348.464	176.879	0.039	0.056
-347.450	-200.000	0.030	-0.145
-346.435	613.819	0.117	-0.291
-345.420	299.475	-0.055	-0.101
-344.406	26.475	0.102	0.085
-343.391	0.179	0.174	0.123
-342.377	-5.669	-0.061	-0.041
-341.362	417.824	0.101	0.216
-340.348	765.821	-0.047	-0.128
-339.333	-96.684	0.177	0.046
-338.318	-200.000	0.033	0.152
-337.304	5.473	-0.222	-0.163
-336.289	-20.598	-0.088	0.053
-335.275	16.330	0.225	-0.176
-334.260	800.000	-0.069	0.270
-333.245	-101.505	0.098	-0.024
-332.231	-33.576	0.095	0.052
-331.216	800.000	-0.072	-0.203
-330.202	-106.100	-0.319	-0.071
-329.187	-200.000	-0.013	-0.066
-328.172	131.948	0.158	-0.202
-327.158	-200.000	0.049	0.225
-326.143	733.248	-0.148	0.394
-325.129	-16.318	-0.005	-0.003
-324.114	66.472	0.160	-0.162
-323.099	108.855	0.143	-0.170
-322.085	800.000	0.020	0.072
-321.070	-33.523	-0.289	0.159
-320.056	300.741	0.108	-0.198
-319.041	-200.000	0.007	0.112
-318.026	800.000	0.073	-0.228
-317.012	-50.364	-0.175	0.082
-315.997	483.366	0.120	-0.270
-314.983	800.000	0.057	-0.247
-313.968	-41.517	-0.205	0.105
-312.953	46.921	-0.147	-0.136
-311.939	-115.635	0.238	-0.044
-310.924	163.654	-0.238	0.333
-309.910	-131.538	0.041	-0.005
-308.895	-94.099	-0.344	0.094
-307.880	-200.000	0.003	-0.130
-306.866	13.091	0.160	0.123
-305.851	-27.892	0.047	-0.027
-304.837	26.342	0.105	0.087
-303.822	-4.958	0.152	-0.104
-302.807	-200.000	-0.014	0.186
-301.793	-200.000	-0.004	0.091
-300.778	-65.871	0.075	-0.030
-299.764	-200.000	-0.000	-0.195
-298.749	-103.843	0.258	0.060
-297.735	-200.000	0.042	-0.226
-296.720	53.064	0.267	-0.254
-295.705	-200.000	-0.019	0.232
-294.691	-156.509	-0.208	0.013
-293.676	740.599	-0.118	0.314
-292.662	-200.000	0.011	0.112
-291.647	-67.480	0.144	-0.056
-290.632	-200.000	-0.023	-0.267
-289.618	-200.000	-0.077	0.419
-288.603	40.598	0.269	-0.240
-287.589	439.102	0.151	-0.327
-286.574	569.785	-0.047	0.114
-285.559	-200.000	-0.018	0.104
-284.545	453.970	-0.014	0.031
-283.530	18.755	-0.255	0.203
-282.516	574.696	0.139	-0.336
-281.501	3.359	-0.108	-0.078
-280.486	800.000	-0.020	-0.080
-279.472	718.189	0.063	-0.166
-278.457	-184.735	0.537	-0.009
-277.443	277.284	0.117	0.207
-276.428	197.685	0.008	0.011
-275.413	-200.000	0.078	-0.381
-274.399	800.000	-0.040	0.157
-273.384	-30.983	0.194	0.108
-272.370	-97.759	-0.109	-0.028
-271.355	-200.000	-0.048	0.284
-270.340	-60.967	0.213	0.090
-269.326	-69.744	0.075	0.028
-268.311	-112.800	-0.107	0.021
-267.297	-200.000	-0.016	0.361
-266.282	433.442	-0.073	-0.157
-265.267	454.822	0.059	0.130
-264.253	-123.087	-0.352	0.056
-263.238	120.741	0.226	0.278
-262.224	116.380	0.041	0.050
-261.209	246.966	-0.060	0.101
-260.195	-200.000	-0.029	0.377
-259.180	112.676	-0.126	-0.152
-258.165	184.339	-0.037	-0.055
-257.151	196.026	-0.043	-0.065
-256.136	-88.920	-0.294	0.086
-255.122	49.767	0.198	-0.185
-254.107	134.613	0.096	0.124
-253.092	-22.225	0.081	0.049
-252.078	81.198	-0.118	0.127
-251.063	183.160	0.083	-0.121
-250.049	800.000	0.011	0.041
-249.034	-200.000	0.055	-0.297
-248.019	526.911	0.110	-0.257
-247.005	203.253	0.143	-0.219
-245.990	-200.000	0.040	0.233
-244.976	800.000	-0.034	-0.142
-243.961	-200.000	0.004	0.037
-242.946	9.552	-0.153	-0.115
-241.932	-63.520	-0.302	-0.123
-240.917	800.000	0.126	0.447
-239.903	-117.444	0.251	-0.045
-238.888	105.141	0.021	-0.025
-237.873	91.754	-0.138	0.154
-236.859	-200.000	-0.006	-0.168
-235.844	36.204	-0.197	0.172
-234.830	185.058	-0.046	-0.068
-233.815	-79.316	0.223	-0.075
-232.800	47.103	0.284	-0.262
-231.786	60.732	0.270	0.265
-230.771	-101.403	0.214	0.052
-229.757	-35.203	-0.279	0.151
-228.742	-113.893	-0.260	0.050
-227.727	-77.196	0.210	0.073
-226.713	-200.000	-0.014	0.297
-225.698	61.185	0.180	0.177
-224.684	183.740	-0.146	0.214
-223.669	-65.225	0.172	0.069
-222.655	89.784	0.300	0.332
-221.640	-104.890	0.229	-0.052
-220.625	150.796	-0.202	0.272
-219.611	43.342	-0.234	-0.212
-218.596	28.273	0.433	0.362
-217.582	800.000	-0.090	-0.317
-216.567	42.712	-0.063	-0.057
-215.552	-72.819	0.400	-0.146
-214.538	-200.000	-0.010	-0.356
-213.523	433.769	-0.053	0.114
-212.509	425.941	0.203	-0.432
-211.494	-130.309	-0.340	0.046
-210.479	-200.000	0.002	0.156
-209.465	-90.717	-0.111	0.032
-208.450	800.000	0.039	0.147
-207.436	-158.215	-0.122	-0.007
-206.421	-200.000	0.044	-0.212
-205.406	800.000	-0.041	-0.115
-204.392	626.401	-0.090	0.226
-203.377	-138.666	-0.244	-0.026
-202.363	513.540	-0.137	0.316
-201.348	800.000	0.049	-0.147
-200.333	-200.000	-0.002	-0.104
-199.319	-200.000	0.013	0.092
-198.304	-143.337	-0.141	-0.013
-197.290	111.248	0.193	0.230
-196.275	730.029	-0.091	0.240
-195.260	89.641	0.036	0.040
-194.246	29.404	0.307	-0.258
-193.231	-200.000	0.011	0.076
-192.217	-18.614	-0.198	-0.122
-191.202	41.745	-0.052	0.047
-190.187	-122.285	0.280	-0.045
-189.173	124.635	0.035	-0.043
-188.158	200.228	0.133	-0.202
-187.144	49.162	0.344	-0.320
-186.129	-172.422	0.154	0.005
-185.114	149.956	-0.033	0.044
-184.100	59.787	0.032	0.032
-183.085	97.464	-0.120	0.136
-182.071	-57.597	0.126	-0.055
-181.056	800.000	0.071	0.212
-180.042	800.000	-0.109	0.404
-179.027	800.000	0.061	0.195
-178.012	207.383	-0.073	0.112
-176.998	11.056	-0.182	-0.137
-175.983	425.552	-0.080	0.169
-174.969	-200.000	-0.046	0.229
-173.954	-98.455	0.211	-0.053
-172.939	-200.000	0.020	0.179
-171.925	-200.000	-0.015	-0.237
-170.910	-146.241	-0.071	-0.006
-169.896	-129.426	0.266	-0.037
-168.881	89.816	0.128	0.141
-167.866	-147.640	-0.365	-0.030
-166.852	117.353	0.160	0.195
-165.837	181.089	0.118	-0.171
-164.823	-140.984	0.267	-0.027
-163.808	-58.216	0.059	0.025
-162.793	18.535	0.163	-0.129
-161.779	0.221	0.077	-0.054
-160.764	-141.405	-0.195	-0.019
-159.750	424.989	-0.161	0.342
-158.735	-200.000	-0.013	0.277
-157.720	800.000	-0.068	-0.192
-156.706	-70.929	0.321	-0.119
-155.691	-200.000	0.002	0.031
-154.677	9.810	-0.093	-0.070
-153.662	-39.495	-0.174	0.090
-152.647	21.002	0.145	-0.116
-151.633	-86.216	-0.198	-0.060
-150.618	-146.101	0.135	0.012
-149.604	-5.372	-0.301	-0.204
-148.589	-61.110	-0.264	0.110
-147.574	689.548	0.048	0.123
-146.560	800.000	-0.045	0.127
-145.545	98.614	-0.119	-0.135
-144.531	-200.000	-0.011	-0.213
-143.516	230.157	0.037	-0.059
-142.502	162.288	-0.075	0.104
-141.487	730.504	0.099	0.262
-140.472	218.114	-0.143	0.226
-139.458	-164.345	0.123	0.006
-138.443	-174.825	-0.259	0.007
-137.429	800.000	0.043	-0.130
-136.414	-200.000	-0.039	0.512
-135.399	-200.000	0.001	-0.110
-134.385	800.000	0.031	-0.091
-133.370	-97.785	-0.304	0.078
-132.356	615.846	-0.138	-0.341
-131.341	154.876	-0.168	-0.228
-130.326	619.832	-0.039	0.096
-129.312	192.814	0.116	-0.173
-128.297	-116.067	0.291	-0.053
-127.283	-200.000	-0.005	0.036
-126.268	108.965	0.096	0.113
-125.253	800.000	-0.099	-0.335
-124.239	514.471	-0.083	0.192
-123.224	-200.000	0.053	-0.296
-122.210	57.897	-0.182	0.176
-121.195	-50.808	0.176	0.082
-120.180	174.554	-0.060	-0.086
-119.166	-200.000	0.021	-0.252
-118.151	-200.000	0.029	-0.220
-117.137	-65.009	-0.242	-0.096
-116.122	-87.345	-0.133	0.040
-115.107	-160.414	0.114	0.006
-114.093	22.696	-0.268	-0.216
-113.078	-122.582	0.212	-0.034
-112.064	-200.000	0.032	0.182
-111.049	629.677	-0.072	-0.180
-110.034	535.717	-0.086	-0.200
-109.020	277.959	-0.059	-0.104
-108.005	-56.811	0.291	0.127
-106.991	295.535	-0.049	0.088
-105.976	-41.316	-0.158	-0.080
-104.962	800.000	0.017	-0.056
-103.947	800.000	0.067	0.228
-102.932	-117.722	0.175	0.031
-101.918	-67.316	-0.113	-0.044
-100.903	72.869	0.281	-0.289
-99.889	333.176	-0.150	0.286
-98.874	180.899	-0.336	0.486
-97.859	-41.964	0.260	0.131
-96.845	67.821	0.148	-0.150
-95.830	293.036	0.116	-0.209
-94.816	-200.000	-0.047	0.204
-93.801	-8.582	-0.313	0.207
-92.786	347.445	0.080	0.156
-91.772	98.232	0.231	0.263
-90.757	25.856	-0.087	-0.071
-89.743	800.000	0.076	0.274
-88.728	-88.533	-0.241	-0.071
-87.713	-200.000	0.038	0.295
-86.699	-200.000	0.112	0.621
-85.684	-16.032	0.347	-0.218
-84.670	-200.000	-0.017	-0.127
-83.655	-200.000	-0.008	-0.106
-82.640	-120.037	0.167	0.028
-81.626	76.770	-0.091	-0.095
-80.611	800.000	0.055	0.218
-79.597	-104.174	-0.278	-0.064
-78.582	-200.000	0.018	0.164
-77.567	-200.000	-0.040	-0.242
-76.553	22.850	-0.166	0.134
-75.538	-56.733	-0.376	-0.164
-74.524	124.615	0.194	0.240
-73.509	225.470	0.101	-0.162
-72.494	-142.719	0.163	-0.016
-71.480	251.245	-0.195	0.327
-70.465	-94.227	-0.129	0.035
-69.451	-70.349	0.084	0.032
-68.436	-200.000	-0.016	-0.423
-67.422	46.590	-0.049	-0.045
-66.407	605.147	-0.061	0.148
-65.392	362.332	0.149	0.294
-64.378	304.109	0.020	0.037
-63.363	78.487	-0.056	-0.059
-62.349	364.670	0.239	0.474
-61.334	68.450	-1.049	-1.058
-60.319	-55.080	0.430	0.191
-59.305	526.731	-0.383	-0.889
-58.290	49.401	0.774	0.717
-57.276	398.832	0.724	1.491
-56.261	-200.000	95.593	597.016
-55.246	569.882	1368.628	3275.289
-54.232	161.646	2548.222	3508.880
-53.217	112.857	2161.131	2576.017
-52.203	42.803	1705.717	1528.871
-51.188	35.151	1519.254	1309.624
-50.173	32.820	1492.321	1270.682
-49.159	52.374	1541.280	1446.599
-48.144	54.199	1558.400	1475.090
-47.130	35.384	1518.907	1310.714
-46.115	32.215	1503.834	1276.174
-45.100	32.065	1500.560	1272.325
-44.086	32.039	1499.296	1271.033
-43.071	32.025	1496.836	1268.799
-42.057	32.062	1494.919	1267.375
-41.042	32.035	1493.689	1266.099
-40.027	32.043	1491.994	1264.667
-39.013	32.068	1491.179	1264.095
-37.998	31.898	1490.288	1262.144
-36.984	31.956	1488.456	1260.934
-35.969	32.072	1486.822	1260.274
-34.954	32.084	1485.048	1258.804
-33.940	31.857	1484.724	1256.954
-32.925	32.063	1482.647	1256.526
-31.911	32.146	1481.308	1255.900
-30.896	32.085	1480.429	1254.696
-29.881	32.076	1479.134	1253.487
-28.867	32.100	1477.659	1252.349
-27.852	32.029	1476.122	1250.524
-26.838	32.100	1474.856	1249.873
-25.823	32.063	1473.349	1248.303
-24.809	32.136	1470.924	1246.679
-23.794	31.995	1469.961	1244.882
-22.779	32.050	1468.930	1244.320
-21.765	32.108	1467.599	1243.529
-20.750	31.977	1466.696	1241.851
-19.736	31.967	1465.904	1241.059
-18.721	31.988	1464.819	1240.231
-17.706	31.937	1463.506	1238.734
-16.692	32.012	1462.207	1238.080
-15.677	32.042	1460.977	1237.186
-14.663	31.978	1459.871	1235.780
-13.648	31.952	1459.455	1235.209
-12.633	31.923	1458.934	1234.527
-11.619	31.993	1457.213	1233.481
-10.604	31.990	1456.695	1232.973
-9.590	31.895	1455.842	1231.578
-8.575	31.835	1455.605	1230.940
-7.560	31.964	1453.633	1230.067
-6.546	31.979	1452.974	1229.561
-5.531	31.923	1452.231	1228.517
-4.517	31.864	1451.280	1227.277
-3.502	31.938	1450.138	1226.747
-2.487	31.946	1449.055	1225.832
-1.473	31.900	1447.968	1224.562
-0.458	31.853	1447.085	1223.462
0.556	31.888	1437.060	1213.377
1.571	29.144	1412.498	1175.049
2.586	26.005	1357.150	1109.631
3.600	24.549	1278.347	1036.662
4.615	23.267	1231.337	991.277
5.629	19.496	1173.191	924.231
6.644	9.657	1086.075	806.516
7.659	2.725	1044.323	741.995
8.673	1.788	1039.289	733.841
9.688	1.627	1036.273	730.873
10.702	1.463	1034.153	728.529
11.717	1.483	1032.244	727.218
12.731	4.340	1035.668	743.263
13.746	13.851	1049.790	799.321
14.761	22.290	1060.552	848.326
15.775	24.615	1062.586	861.094
16.790	24.977	1061.955	862.251
17.804	24.783	1061.485	860.858
18.819	24.590	1060.941	859.413
19.834	24.791	1060.053	859.583
20.848	24.863	1059.922	859.746
21.863	24.943	1059.574	859.775
22.877	24.871	1059.069	858.945
23.892	24.887	1058.296	858.316
24.907	24.782	1057.426	857.032
25.921	24.830	1056.735	856.627
26.936	24.822	1056.167	856.051
27.950	24.871	1054.706	855.028
28.965	24.830	1053.902	854.102
29.980	24.729	1052.466	852.381
30.994	24.756	1051.000	851.248
32.009	24.884	1050.318	851.227
33.023	25.009	1049.629	851.190
34.038	24.697	1048.843	848.996
35.053	24.699	1048.222	848.426
36.067	24.883	1047.183	848.382
37.082	24.795	1046.766	847.551
38.096	25.079	1045.666	847.931
39.111	25.130	1045.031	847.579
40.126	25.096	1044.419	846.848
41.140	25.201	1042.653	845.838
42.155	24.783	1041.877	843.164
43.169	24.511	1040.428	840.638
44.184	24.594	1039.165	839.930
45.199	24.486	1038.651	838.933
46.213	24.548	1037.139	837.928
47.228	24.539	1036.467	837.268
48.242	24.839	1035.745	838.019
49.257	24.658	1035.861	837.188
50.271	24.851	1034.612	837.010
51.286	24.918	1033.892	836.667
52.301	25.019	1032.884	836.246
53.315	25.047	1032.392	835.905
54.330	24.930	1031.496	834.561
55.344	24.862	1030.928	833.709
56.359	24.843	1029.821	832.652
57.374	24.940	1028.607	832.049
58.388	24.730	1027.999	830.509
59.403	24.661	1027.582	829.778
60.417	24.681	1026.679	829.069
61.432	24.472	1025.895	827.392
62.447	24.549	1025.277	827.181
63.461	24.603	1024.717	826.902
64.476	24.745	1023.667	826.641
65.490	24.532	1023.348	825.325
66.505	24.536	1022.090	824.255
67.520	24.445	1021.540	823.319
68.534	24.560	1020.767	823.155
69.549	24.652	1019.450	822.443
70.563	24.283	1018.377	819.806
71.578	24.095	1017.825	818.424
72.593	24.113	1016.825	817.632
73.607	24.082	1016.023	816.772
74.622	24.118	1014.656	815.768
75.636	24.199	1014.510	815.947
76.651	24.446	1013.652	816.318
77.666	24.338	1012.692	814.978
78.680	24.115	1011.597	813.004
79.695	24.294	1011.443	813.629
80.709	24.227	1010.879	812.796
81.724	24.448	1010.151	813.146
82.739	24.382	1009.159	811.974
83.753	24.527	1008.071	811.687
84.768	24.868	1007.376	812.603
85.782	25.067	1006.879	813.032
86.797	25.310	1006.361	813.644
87.812	25.190	1005.571	812.388
88.826	24.971	1004.734	810.649
89.841	24.906	1004.230	809.880
90.855	25.132	1003.221	810.015
91.870	25.054	1002.553	809.051
92.884	25.154	1001.636	808.693
93.899	25.001	1000.574	807.075
94.914	24.897	999.688	805.820
95.928	25.168	998.943	806.365
96.943	25.004	997.919	804.732
97.957	24.822	996.980	803.087
98.972	24.651	995.949	801.418
99.987	24.433	994.919	799.542
101.001	24.636	993.984	799.628
102.016	24.899	993.696	800.501
103.030	24.867	992.624	799.424
104.045	24.690	992.073	798.121
105.060	24.594	990.831	796.621
106.074	24.559	989.379	795.228
107.089	24.449	988.619	794.055
108.103	24.910	988.323	795.800
109.118	24.926	987.577	795.201
110.133	24.660	986.356	792.964
111.147	24.648	985.116	791.843
112.162	24.481	984.388	790.450
113.176	24.237	983.330	788.451
114.191	24.462	982.410	788.640
115.206	24.500	981.455	787.971
116.220	24.194	980.505	785.787
117.235	24.014	979.821	784.378
118.249	24.289	979.190	785.015
119.264	24.384	978.065	784.459
120.279	24.102	977.509	782.703
121.293	24.178	976.562	782.211
122.308	24.239	976.336	782.229
123.322	24.266	975.202	781.372
124.337	24.234	973.985	780.185
125.352	24.075	973.171	778.770
126.366	23.742	971.196	775.664
127.381	23.329	970.100	772.920
128.395	23.909	969.780	775.124
129.410	24.635	969.759	778.203
130.424	24.755	969.116	778.140
131.439	24.861	967.461	777.201
132.454	24.758	966.808	776.162
133.468	24.754	965.874	775.328
134.483	24.612	965.232	774.128
135.497	24.613	964.517	773.489
136.512	24.869	964.111	774.203
137.527	24.992	963.164	773.907
138.541	24.984	962.867	773.566
139.556	25.055	961.569	772.758
140.570	24.946	960.822	771.621
141.585	25.074	960.212	771.615
142.600	25.123	959.638	771.296
143.614	24.900	958.514	769.364
144.629	25.091	957.725	769.483
145.643	25.377	957.029	770.081
146.658	25.142	956.371	768.481
147.673	24.987	955.252	766.846
148.687	24.981	953.974	765.730
149.702	24.926	952.951	764.604
150.716	24.888	951.769	763.427
151.731	24.754	951.130	762.276
152.746	24.851	950.216	761.890
153.760	24.951	950.538	762.503
154.775	25.214	949.229	762.504
155.789	25.276	948.217	761.889
156.804	25.173	947.305	760.652
157.819	25.041	946.767	759.591
158.833	25.108	945.844	759.069
159.848	25.284	944.964	759.040
160.862	25.369	944.041	758.590
161.877	25.194	943.308	757.197
162.892	25.104	942.569	756.155
163.906	25.178	941.848	755.822
164.921	25.203	940.215	754.551
165.935	25.027	939.643	753.283
166.950	25.088	938.924	752.899
167.964	25.287	937.779	752.746
168.979	25.129	936.948	751.353
169.994	25.103	935.781	750.241
171.008	25.163	934.489	749.391
172.023	25.110	933.863	748.598
173.037	25.353	933.216	749.031
174.052	25.227	932.088	747.531
175.067	24.878	931.238	745.334
176.081	24.757	930.513	744.181
177.096	24.937	929.834	744.321
178.110	25.050	928.878	743.959
179.125	24.866	927.573	742.086
180.140	24.384	926.925	739.505
181.154	24.451	926.162	739.109
182.169	24.755	925.586	739.839
183.183	24.924	925.531	740.429
184.198	25.190	925.014	741.049
185.213	25.116	924.154	739.989
186.227	25.087	923.317	739.136
187.242	25.203	922.950	739.253
188.256	25.196	922.281	738.624
189.271	25.163	921.568	737.850
190.286	25.313	920.982	737.931
191.300	25.059	920.098	736.118
192.315	24.469	918.890	732.666
193.329	23.855	916.783	728.403
194.344	23.178	915.968	724.918
195.359	23.995	916.284	728.451
196.373	25.040	916.505	732.839
197.388	25.092	916.470	732.958
198.402	25.072	915.645	732.152
199.417	24.971	915.432	731.507
200.432	24.906	915.090	730.900
201.446	24.845	914.309	729.964
202.461	24.481	913.466	727.743
203.475	24.708	912.445	727.790
204.490	24.089	911.554	724.497
205.504	23.232	908.974	718.902
206.519	23.464	909.264	720.012
207.534	24.632	909.103	724.558
208.548	24.590	908.657	723.968
209.563	24.928	908.758	725.354
210.577	24.996	907.880	724.867
211.592	24.679	906.953	722.778
212.607	25.064	907.222	724.489
213.621	25.324	906.427	724.836
214.636	25.321	905.504	724.024
215.650	25.257	905.090	723.371
216.665	25.219	904.305	722.527
217.680	25.144	904.167	722.051
218.694	25.259	903.786	722.144
219.709	24.915	902.511	719.681
220.723	24.604	901.753	717.762
221.738	24.879	901.281	718.425
222.753	24.943	901.127	718.498
223.767	25.005	900.113	717.873
224.782	25.109	899.433	717.683
225.796	25.238	898.926	717.734
226.811	25.419	898.288	717.882
227.826	25.055	896.897	715.253
228.840	24.096	895.711	710.424
229.855	23.967	895.397	709.595
230.869	24.362	894.349	710.275
231.884	24.030	893.552	708.259
232.899	24.015	893.076	707.758
233.913	24.874	893.703	711.611
234.928	24.981	893.255	711.616
235.942	24.811	892.529	710.299
236.957	24.866	891.727	709.817
237.972	24.538	891.037	707.905
238.986	24.445	890.282	706.873
240.001	24.608	889.657	706.961
241.015	24.749	888.572	706.593
242.030	24.726	888.309	706.230
243.045	24.982	887.787	706.765
244.059	25.073	887.205	706.594
245.074	25.103	886.596	706.167
246.088	25.149	885.987	705.800
247.103	24.711	885.142	703.340
248.117	24.772	884.652	703.129
249.132	25.341	884.766	705.394
250.147	25.708	884.513	706.570
251.161	25.695	883.976	706.030
252.176	25.967	883.698	706.811
253.190	25.874	883.131	705.929
254.205	25.997	882.257	705.649
255.220	26.121	882.542	706.302
256.234	26.224	881.320	705.661
257.249	26.049	880.773	704.480
258.263	25.842	880.095	703.066
259.278	25.925	879.444	702.810
260.293	25.790	879.207	702.030
261.307	26.024	878.678	702.456
262.322	25.871	878.134	701.364
263.336	25.817	877.432	700.532
264.351	25.383	875.945	697.598
265.366	24.352	873.609	691.681
266.380	23.770	872.950	688.839
267.395	24.796	873.274	693.013
268.409	25.510	873.588	695.965
269.424	25.405	873.107	695.114
270.439	25.688	872.547	695.703
271.453	25.804	871.749	695.452
272.468	25.735	871.307	694.773
273.482	25.977	870.900	695.319
274.497	25.940	870.499	694.793
275.512	25.881	869.296	693.548
276.526	25.061	868.112	689.386
277.541	25.469	867.714	690.578
278.555	25.730	867.784	691.577
279.570	25.591	866.938	690.306
280.585	25.489	865.917	689.041
281.599	25.397	865.774	688.512
282.614	25.591	865.038	688.609
283.628	25.237	863.936	686.320
284.643	24.820	863.077	683.984
285.657	25.181	863.348	685.516
286.672	25.191	862.780	685.044
287.687	24.690	861.650	682.175
288.701	24.899	861.415	682.726
289.716	25.441	861.293	684.635
290.730	25.113	860.390	682.607
291.745	24.968	859.519	681.304
292.760	24.841	858.238	679.745
293.774	24.607	858.079	678.672
294.789	25.533	858.741	682.653
295.803	26.215	858.504	684.989
296.818	26.332	858.092	685.044
297.833	26.354	857.309	684.441
298.847	26.184	856.396	683.011
299.862	25.663	855.265	680.078
300.876	25.819	855.166	680.530
301.891	26.141	855.027	681.576
302.906	26.368	854.290	681.785
303.920	25.906	853.028	678.975
304.935	25.767	852.559	678.019
305.949	26.149	852.408	679.278
306.964	26.264	851.917	679.258
307.979	26.111	850.913	677.824
308.993	25.870	850.668	676.664
310.008	26.203	850.811	677.968
311.022	26.520	850.135	678.557
312.037	26.225	849.536	676.914
313.052	25.968	848.683	675.213
314.066	25.907	847.869	674.275
315.081	25.239	846.623	670.727
316.095	24.481	845.437	666.899
317.110	24.982	845.372	668.662
318.125	25.795	845.758	671.941
319.139	25.314	844.845	669.361
320.154	24.417	842.471	664.087
321.168	23.957	841.855	661.832
322.183	24.425	842.287	663.852
323.197	25.516	842.444	667.973
324.212	25.769	842.103	668.584
325.227	25.879	841.994	668.847
326.241	26.008	841.714	669.044
327.256	26.015	840.972	668.423
328.270	25.751	840.317	666.865
329.285	25.707	839.887	666.300
330.300	25.645	838.552	664.955
331.314	25.379	838.049	663.512
332.329	25.566	837.181	663.457
333.343	25.845	837.229	664.465
334.358	26.084	836.789	664.938
335.373	26.141	836.267	664.675
336.387	26.152	835.936	664.394
337.402	26.424	835.384	664.897
338.416	26.616	835.089	665.310
339.431	26.494	834.631	664.436
340.446	26.591	834.030	664.254
341.460	26.790	833.573	664.561
342.475	26.665	832.921	663.526
343.489	26.663	832.247	662.924
344.504	26.415	831.554	661.405
345.519	26.736	831.667	662.612
346.533	26.908	831.546	663.085
347.548	27.041	830.939	663.026
348.562	27.143	830.110	662.679
349.577	26.939	829.745	661.585
350.592	26.808	829.319	660.709
351.606	26.884	828.510	660.282
352.621	27.039	827.907	660.306
353.635	26.736	827.733	659.011
354.650	26.681	827.106	658.251
355.665	26.413	825.760	656.150
356.679	25.242	824.479	650.829
357.694	25.188	823.977	650.180
358.708	25.881	823.653	652.377
359.723	25.811	823.508	651.950
360.738	26.105	822.935	652.504
361.752	26.377	823.252	653.679
362.767	26.528	822.818	653.822
363.781	26.713	822.628	654.284
364.796	27.132	822.458	655.600
365.810	27.247	822.346	655.869
366.825	27.415	821.666	655.874
367.840	27.346	821.653	655.555
368.854	27.104	820.644	653.824
369.869	26.719	819.977	651.850
370.883	26.567	818.821	650.324
371.898	26.767	818.402	650.654
372.913	26.633	817.933	649.743
373.927	26.616	817.328	649.143
374.942	26.791	817.032	649.479
375.956	26.793	816.323	648.864
376.971	26.952	815.618	648.813
377.986	26.939	815.203	648.380
379.000	27.344	814.812	649.458
380.015	27.310	814.035	648.659
381.029	27.147	813.508	647.603
382.044	27.098	813.088	647.037
383.059	27.287	812.922	647.518
384.073	27.205	812.115	646.529
385.088	27.208	811.735	646.179
386.102	27.166	811.280	645.612
387.117	27.126	810.288	644.624
388.132	26.854	809.884	643.280
389.146	26.828	809.119	642.522
390.161	26.241	808.129	639.603
391.175	26.189	807.898	639.177
392.190	26.801	808.012	641.378
393.205	26.802	807.569	640.971
394.219	25.852	805.478	635.906
395.234	24.149	803.536	628.312
396.248	23.423	802.550	624.929
397.263	24.487	803.219	629.146
398.278	26.204	804.843	636.421
399.292	26.698	804.722	638.007
400.307	26.513	804.138	636.836
401.321	26.439	803.555	636.057
402.336	26.502	802.849	635.665
403.350	26.858	802.589	636.651
404.365	27.234	803.394	638.554
405.380	27.628	802.850	639.448
406.394	27.882	802.249	639.802
407.409	28.193	801.846	640.513
408.423	27.869	801.688	639.198
409.438	27.791	801.050	638.358
410.453	27.840	800.444	637.992
411.467	27.958	800.007	637.997
412.482	27.749	799.799	637.045
413.496	27.808	799.170	636.695
414.511	27.862	798.798	636.531
415.526	28.053	798.364	636.793
416.540	27.976	797.994	636.174
417.555	27.936	797.408	635.510
418.569	27.684	796.731	634.040
419.584	27.589	796.150	633.192
420.599	27.705	795.574	633.081
421.613	110.502	1286.148	1460.894
422.628	95.145	1357.630	1460.994
