DTS Sentinel unit serial number:	SN413079Multiplexer serial number:	ORYXHardware model number:	OX4-SRSoftware version number:	ORYX F/W v4.00 Oryx Data Collector v3.7.2.0data status	okinstallation	princeton_trtdifferential loss correction	single-endedforward channel	channel 3reverse channel	N/Adate	2019/09/11time	21:22:10forward acquisition time	60.00reverse acquisition time	0.00gamma	496.2192k internal	0.2309k external	0.2309temperature offset calibration	1.0033default loss term (dB/km)	0.3790temperature slope calibration	1.0000multiplexer offset coefficient	1.0000multiplexer slope coefficient	1.0000fibre end	0.00T internal ref (°C)	36.17T ext. ref 1 (°C)	1.56T ext. ref 2 (°C)	30.02length (m)	temperature (°C)	Stokes	anti-Stokes-747.200	76.197	-0.168	-0.180
-746.185	-3.755	0.300	0.212
-745.171	76.635	0.105	-0.113
-744.156	-44.268	0.137	-0.070
-743.142	-107.400	-0.062	-0.014
-742.127	-200.000	0.075	0.334
-741.112	18.338	-0.169	-0.137
-740.098	800.000	0.043	0.122
-739.083	-103.002	0.199	-0.048
-738.069	295.188	-0.066	0.123
-737.054	-126.561	-0.199	-0.030
-736.039	-85.681	-0.184	0.058
-735.025	-106.137	0.546	0.125
-734.010	135.296	-0.166	0.219
-732.996	800.000	0.034	-0.133
-731.981	86.521	-0.309	0.346
-730.966	-55.097	0.395	0.181
-729.952	-178.573	0.136	-0.003
-728.937	-200.000	0.003	-0.152
-727.923	217.872	-0.079	-0.128
-726.908	-24.812	-0.245	-0.148
-725.894	800.000	-0.088	-0.320
-724.879	-111.679	-0.257	-0.053
-723.864	-75.580	-0.128	0.046
-722.850	-103.856	-0.134	-0.032
-721.835	222.998	-0.086	-0.141
-720.821	135.247	0.022	0.029
-719.806	-107.764	-0.210	0.046
-718.791	58.675	-0.064	-0.063
-717.777	-200.000	-0.030	0.135
-716.762	165.383	0.084	0.121
-715.748	308.186	0.095	0.180
-714.733	1.949	-0.119	0.087
-713.718	-152.838	0.366	-0.026
-712.704	-52.469	-0.355	0.167
-711.689	-141.432	-0.131	-0.013
-710.675	-200.000	-0.024	-0.108
-709.660	94.841	-0.057	-0.066
-708.645	-200.000	-0.028	-0.141
-707.631	-48.440	-0.417	-0.204
-706.616	-165.218	0.037	0.002
-705.602	-200.000	0.025	-0.225
-704.587	-114.182	0.177	-0.035
-703.572	800.000	-0.100	-0.296
-702.558	-144.693	0.313	0.029
-701.543	610.759	-0.049	-0.125
-700.529	271.889	-0.073	-0.131
-699.514	-200.000	-0.017	-0.209
-698.499	-114.861	0.196	0.038
-697.485	593.376	-0.085	-0.212
-696.470	57.423	-0.123	0.122
-695.456	-90.549	-0.177	-0.052
-694.441	-6.528	0.284	-0.196
-693.426	800.000	0.044	-0.186
-692.412	800.000	-0.058	0.227
-691.397	177.297	-0.113	0.167
-690.383	341.942	0.017	-0.034
-689.368	-200.000	-0.031	-0.414
-688.354	-138.244	-0.473	0.053
-687.339	-67.238	-0.185	0.074
-686.324	147.085	-0.257	-0.351
-685.310	-10.541	-0.116	0.078
-684.295	-80.783	0.272	0.092
-683.281	800.000	0.062	-0.246
-682.266	-145.673	-0.197	0.018
-681.251	386.853	-0.039	0.082
-680.237	10.683	-0.129	0.100
-679.222	-200.000	-0.033	-0.165
-678.208	-14.039	-0.242	-0.158
-677.193	-71.668	0.172	-0.065
-676.178	-40.587	-0.117	-0.061
-675.164	17.538	-0.100	0.081
-674.149	225.076	-0.057	0.094
-673.135	45.485	-0.346	0.324
-672.120	74.654	-0.130	-0.138
-671.105	146.512	0.193	0.263
-670.091	8.671	-0.103	0.078
-669.076	7.667	0.088	0.067
-668.062	101.489	-0.178	0.211
-667.047	71.934	-0.127	-0.134
-666.032	-200.000	-0.027	-0.153
-665.018	157.055	0.091	0.127
-664.003	-28.059	-0.132	-0.078
-662.989	-77.705	0.141	-0.049
-661.974	-36.438	0.577	-0.315
-660.959	-200.000	-0.021	0.125
-659.945	419.923	-0.168	0.364
-658.930	35.485	0.305	0.271
-657.916	174.951	-0.177	0.260
-656.901	-200.000	-0.007	-0.281
-655.886	-43.035	-0.249	-0.128
-654.872	-99.107	0.095	-0.024
-653.857	-121.043	-0.203	-0.035
-652.843	86.234	0.260	-0.290
-651.828	-200.000	0.007	-0.404
-650.814	-107.712	0.214	-0.047
-649.799	-38.136	0.400	-0.215
-648.784	-200.000	0.067	-0.477
-647.770	319.027	0.029	-0.056
-646.755	-10.571	-0.265	-0.177
-645.741	-44.324	-0.016	-0.008
-644.726	-120.481	-0.210	-0.036
-643.711	-200.000	0.011	-0.151
-642.697	70.787	0.108	-0.113
-641.682	2.260	0.288	0.211
-640.668	-200.000	0.012	-0.068
-639.653	-95.672	-0.237	0.064
-638.638	-29.308	-0.412	0.239
-637.624	447.608	-0.091	0.203
-636.609	-200.000	0.005	0.133
-635.595	-200.000	-0.039	-0.264
-634.580	-62.439	0.273	0.115
-633.565	-134.436	-0.232	-0.029
-632.551	255.197	-0.288	-0.499
-631.536	60.326	0.137	-0.138
-630.522	-200.000	0.011	-0.251
-629.507	21.482	-0.269	-0.221
-628.492	-106.862	0.136	0.030
-627.478	-200.000	-0.010	0.092
-626.463	11.952	0.069	0.053
-625.449	-104.140	0.400	-0.094
-624.434	-71.239	0.106	-0.040
-623.419	241.847	0.094	-0.160
-622.405	349.722	0.249	-0.497
-621.390	-77.974	0.102	-0.036
-620.376	-133.894	0.417	-0.052
-619.361	20.140	-0.217	0.177
-618.346	-200.000	-0.026	0.228
-617.332	24.343	-0.040	0.033
-616.317	-107.502	-0.185	0.041
-615.303	-121.832	0.355	-0.059
-614.288	219.453	0.036	-0.059
-613.273	84.442	-0.170	0.188
-612.259	-200.000	0.021	-0.166
-611.244	438.813	0.137	-0.302
-610.230	145.511	0.057	0.078
-609.215	-105.837	0.180	0.041
-608.201	-67.573	0.093	0.037
-607.186	-10.667	-0.128	-0.085
-606.171	-118.848	0.286	-0.051
-605.157	87.988	-0.155	0.174
-604.142	201.366	-0.111	0.173
-603.128	33.079	-0.125	0.110
-602.113	-124.982	0.123	-0.019
-601.098	-128.220	0.146	-0.021
-600.084	800.000	0.016	0.060
-599.069	-101.377	0.082	0.020
-598.055	-111.030	0.204	0.042
-597.040	67.342	-0.193	0.199
-596.025	377.264	0.019	-0.038
-595.011	800.000	0.038	-0.168
-593.996	-111.903	-0.243	0.049
-592.982	-181.889	0.314	-0.006
-591.967	18.796	-0.119	-0.096
-590.952	120.593	-0.158	0.198
-589.938	309.331	-0.142	-0.267
-588.923	-74.996	-0.100	0.036
-587.909	71.449	0.073	0.076
-586.894	-147.338	-0.445	0.038
-585.879	6.932	0.216	0.162
-584.865	40.269	-0.248	0.225
-583.850	-62.351	-0.182	0.076
-582.836	-45.462	-0.089	-0.045
-581.821	-100.432	0.171	0.043
-580.806	6.804	-0.111	-0.084
-579.792	-200.000	0.049	0.230
-578.777	32.621	-0.038	-0.033
-577.763	-123.902	-0.163	-0.026
-576.748	-114.059	-0.178	0.035
-575.733	-71.580	-0.411	-0.155
-574.719	-14.078	-0.197	0.128
-573.704	-200.000	0.030	-0.333
-572.690	-108.335	0.283	-0.062
-571.675	99.387	-0.290	-0.339
-570.661	133.761	-0.241	-0.314
-569.646	-200.000	0.000	0.332
-568.631	-112.335	-0.628	0.127
-567.617	52.953	0.271	-0.262
-566.602	593.140	-0.043	-0.108
-565.588	92.675	-0.175	0.200
-564.573	-117.190	-0.251	0.046
-563.558	11.065	-0.214	0.165
-562.544	8.411	-0.189	0.143
-561.529	-147.621	0.053	0.005
-560.515	-80.763	0.120	-0.040
-559.500	201.221	0.076	0.117
-558.485	59.872	0.307	-0.306
-557.471	-152.978	-0.059	-0.004
-556.456	-46.812	0.151	-0.074
-555.442	-147.872	0.216	0.018
-554.427	-127.733	-0.094	-0.014
-553.412	-69.007	-0.148	-0.058
-552.398	559.377	0.048	0.117
-551.383	800.000	-0.076	0.256
-550.369	47.119	-0.098	0.092
-549.354	198.832	-0.226	0.349
-548.339	-200.000	0.005	-0.172
-547.325	-40.881	0.052	0.027
-546.310	-49.449	-0.017	-0.008
-545.296	411.600	0.127	-0.272
-544.281	-200.000	0.057	0.289
-543.266	800.000	0.044	0.137
-542.252	-200.000	0.066	0.306
-541.237	-194.593	-0.140	0.001
-540.223	182.921	-0.030	0.045
-539.208	166.616	0.159	0.227
-538.193	-200.000	-0.049	-0.395
-537.179	676.566	0.071	0.185
-536.164	70.603	-0.080	0.084
-535.150	-200.000	-0.019	0.215
-534.135	523.206	-0.086	-0.205
-533.121	13.694	-0.043	-0.034
-532.106	-200.000	-0.036	0.218
-531.091	800.000	0.101	0.326
-530.077	-52.993	0.139	-0.064
-529.062	-57.720	-0.308	-0.136
-528.048	-9.196	-0.178	-0.120
-527.033	725.674	-0.005	-0.014
-526.018	-200.000	0.031	-0.208
-525.004	800.000	-0.085	0.344
-523.989	-161.584	0.255	-0.013
-522.975	-115.027	0.055	0.011
-521.960	-200.000	-0.002	-0.195
-520.945	-91.144	-0.261	0.075
-519.931	-200.000	0.043	0.292
-518.916	-200.000	0.003	0.161
-517.902	-200.000	-0.033	-0.176
-516.887	-43.917	-0.235	-0.119
-515.872	254.366	0.068	0.117
-514.858	-200.000	0.008	0.045
-513.843	800.000	0.074	0.209
-512.829	-200.000	0.005	-0.120
-511.814	-103.556	-0.226	-0.053
-510.799	26.300	0.088	-0.074
-509.785	800.000	-0.037	-0.119
-508.770	121.939	-0.126	0.159
-507.756	-110.754	0.200	-0.041
-506.741	-79.958	-0.261	-0.088
-505.726	-61.301	0.160	0.068
-504.712	287.989	-0.146	0.265
-503.697	-131.913	-0.140	-0.018
-502.683	-200.000	-0.013	-0.272
-501.668	-200.000	0.009	-0.130
-500.653	172.822	0.198	0.287
-499.639	-106.279	0.232	0.052
-498.624	-200.000	0.019	-0.358
-497.610	-116.432	0.172	-0.032
-496.595	-200.000	-0.005	-0.049
-495.581	-119.966	-0.303	0.052
-494.566	14.879	-0.076	0.060
-493.551	800.000	0.061	-0.179
-492.537	-105.681	-0.071	-0.016
-491.522	15.980	-0.266	0.210
-490.508	800.000	-0.054	-0.225
-489.493	789.580	0.042	-0.116
-488.478	-89.090	0.175	-0.052
-487.464	-187.014	-0.365	0.005
-486.449	41.462	0.157	0.143
-485.435	751.140	-0.094	0.255
-484.420	377.785	0.153	0.315
-483.405	473.243	0.090	0.203
-482.391	106.027	-0.225	0.268
-481.376	652.520	-0.110	0.284
-480.362	-161.561	0.246	-0.013
-479.347	800.000	-0.066	0.208
-478.332	-200.000	-0.010	-0.052
-477.318	-42.484	0.187	-0.096
-476.303	-46.207	-0.104	-0.052
-475.289	38.831	-0.164	0.147
-474.274	-200.000	-0.111	0.000
-473.259	190.571	0.127	0.192
-472.245	24.952	0.080	-0.066
-471.230	-139.118	-0.238	0.026
-470.216	460.150	-0.179	-0.402
-469.201	800.000	0.023	-0.066
-468.186	60.438	0.098	-0.097
-467.172	25.672	0.025	0.021
-466.157	-63.393	0.139	-0.057
-465.143	-200.000	0.023	0.545
-464.128	49.493	-0.225	-0.212
-463.113	-68.055	0.100	0.039
-462.099	477.630	0.040	0.091
-461.084	-200.000	0.015	0.366
-460.070	192.748	0.054	0.082
-459.055	-85.145	-0.495	-0.156
-458.040	171.917	0.350	-0.505
-457.026	-200.000	-0.015	0.147
-456.011	-200.000	-0.068	0.455
-454.997	-200.000	0.030	0.337
-453.982	-200.000	-0.036	-0.211
-452.968	-116.280	-0.315	0.059
-451.953	-42.424	-0.292	0.150
-450.938	170.992	-0.265	-0.382
-449.924	-115.071	-0.136	0.026
-448.909	60.289	-0.124	-0.123
-447.895	-40.112	-0.165	0.086
-446.880	-131.017	-0.064	0.009
-445.865	204.290	0.261	0.407
-444.851	-200.000	0.004	0.183
-443.836	-200.000	-0.100	-0.000
-442.822	7.707	-0.118	-0.089
-441.807	581.348	0.102	-0.251
-440.792	111.252	-0.117	0.141
-439.778	228.850	0.101	-0.165
-438.763	-96.816	0.273	-0.072
-437.749	-200.000	-0.007	-0.229
-436.734	-200.000	-0.019	-0.162
-435.719	189.307	-0.071	-0.106
-434.705	-196.995	0.574	0.004
-433.690	54.653	0.233	-0.225
-432.676	800.000	-0.074	-0.265
-431.661	-114.492	0.263	-0.051
-430.646	49.605	-0.279	0.263
-429.632	-181.513	-0.315	0.006
-428.617	-200.000	-0.014	0.147
-427.603	-76.363	0.305	0.108
-426.588	-11.710	0.254	-0.167
-425.573	-154.893	0.185	0.012
-424.559	-200.000	0.012	0.162
-423.544	-4.571	-0.174	-0.121
-422.530	-200.000	-0.025	-0.174
-421.515	-200.000	0.029	0.200
-420.500	-50.145	0.197	0.094
-419.486	-66.153	0.246	0.098
-418.471	151.467	-0.071	-0.097
-417.457	-58.117	0.214	0.094
-416.442	336.129	0.211	-0.412
-415.428	800.000	0.021	-0.063
-414.413	-200.000	0.009	0.162
-413.398	-157.040	-0.159	0.010
-412.384	620.669	0.053	-0.134
-411.369	32.807	0.049	-0.042
-410.355	-200.000	0.031	0.298
-409.340	-122.531	-0.090	-0.015
-408.325	216.663	0.106	-0.170
-407.311	254.230	-0.157	-0.269
-406.296	800.000	-0.072	0.283
-405.282	18.574	-0.105	0.084
-404.267	102.251	-0.085	0.099
-403.252	-46.171	-0.268	-0.132
-402.238	-200.000	0.046	-0.246
-401.223	-200.000	0.035	-0.154
-400.209	57.200	-0.114	0.112
-399.194	-200.000	-0.013	-0.180
-398.179	800.000	-0.048	0.193
-397.165	29.383	-0.171	0.146
-396.150	-50.137	0.150	0.071
-395.136	-102.211	0.241	-0.058
-394.121	-200.000	-0.034	-0.218
-393.106	-100.240	-0.208	-0.052
-392.092	800.000	0.071	-0.199
-391.077	-191.524	-0.140	-0.001
-390.063	110.467	0.071	0.085
-389.048	378.654	-0.067	0.138
-388.033	-200.000	0.053	0.338
-387.019	-200.000	-0.008	-0.063
-386.004	-200.000	0.011	-0.088
-384.990	102.533	0.122	0.143
-383.975	170.334	-0.142	-0.204
-382.960	103.702	0.234	-0.276
-381.946	175.647	-0.036	0.052
-380.931	-200.000	0.018	0.190
-379.917	700.546	0.042	0.111
-378.902	29.441	-0.120	0.102
-377.888	-118.114	0.026	-0.005
-376.873	316.617	-0.113	-0.213
-375.858	-200.000	-0.004	-0.075
-374.844	111.720	-0.107	-0.129
-373.829	-200.000	-0.009	0.163
-372.815	47.881	-0.089	-0.083
-371.800	800.000	0.076	0.283
-370.785	-106.524	0.136	-0.030
-369.771	-47.032	-0.176	-0.086
-368.756	85.703	-0.260	-0.286
-367.742	-136.560	0.059	-0.007
-366.727	800.000	-0.056	0.189
-365.712	598.503	-0.080	-0.200
-364.698	10.130	-0.196	-0.149
-363.683	-65.280	0.127	0.051
-362.669	-76.074	-0.125	0.044
-361.654	-120.949	-0.180	0.030
-360.639	-110.840	0.090	0.019
-359.625	207.401	0.258	-0.404
-358.610	-67.260	-0.202	0.080
-357.596	800.000	-0.100	0.396
-356.581	-200.000	0.001	-0.199
-355.566	750.861	0.071	0.192
-354.552	-2.826	-0.226	0.158
-353.537	70.785	0.070	-0.072
-352.523	-183.907	-0.233	0.004
-351.508	109.118	0.046	0.055
-350.493	93.111	-0.349	-0.394
-349.479	-125.400	-0.091	0.014
-348.464	88.815	-0.093	-0.104
-347.450	-38.884	0.045	0.024
-346.435	-173.376	0.262	0.008
-345.420	-200.000	0.065	0.297
-344.406	45.617	-0.086	-0.079
-343.391	-76.121	0.270	-0.095
-342.377	21.164	-0.135	0.110
-341.362	302.255	0.092	0.170
-340.348	-87.774	-0.181	0.055
-339.333	-139.618	-0.087	-0.009
-338.318	-34.122	-0.056	-0.031
-337.304	-155.661	0.211	0.014
-336.289	-200.000	-0.026	-0.295
-335.275	596.833	0.096	-0.238
-334.260	-123.238	0.288	-0.046
-333.245	800.000	-0.032	-0.103
-332.231	-200.000	-0.000	0.057
-331.216	800.000	-0.091	0.278
-330.202	223.812	0.150	-0.242
-329.187	-200.000	-0.035	0.160
-328.172	470.822	0.109	0.246
-327.158	-89.905	0.268	-0.078
-326.143	-200.000	-0.015	-0.121
-325.129	-200.000	-0.017	0.330
-324.114	116.459	-0.124	0.153
-323.099	-55.802	-0.153	-0.068
-322.085	-129.330	0.336	-0.047
-321.070	93.410	-0.054	0.062
-320.056	-200.000	-0.019	0.133
-319.041	800.000	-0.102	-0.321
-318.026	-90.336	-0.297	0.086
-317.012	43.035	-0.079	-0.072
-315.997	-14.730	0.220	0.141
-314.983	176.630	0.133	0.194
-313.968	-97.134	0.127	0.033
-312.953	-63.444	0.127	-0.052
-311.939	39.909	0.234	-0.210
-310.924	-96.343	-0.038	0.010
-309.910	-51.936	-0.437	0.203
-308.895	-18.781	-0.141	0.088
-307.880	176.360	0.053	-0.078
-306.866	661.958	-0.084	-0.216
-305.851	15.918	-0.123	0.096
-304.837	296.260	0.075	0.137
-303.822	26.512	-0.039	-0.033
-302.807	800.000	0.032	-0.102
-301.793	-64.283	0.293	0.119
-300.778	-101.229	0.289	0.070
-299.764	-112.931	-0.391	0.077
-298.749	800.000	-0.038	-0.133
-297.735	-29.280	0.167	-0.096
-296.720	69.084	0.304	-0.312
-295.705	-166.138	0.303	-0.013
-294.691	236.511	-0.079	0.130
-293.676	-39.946	0.054	0.028
-292.662	25.024	-0.258	0.214
-291.647	-131.068	0.100	0.013
-290.632	62.833	-0.105	0.105
-289.618	-200.000	0.066	-0.375
-288.603	-177.634	0.246	0.006
-287.589	-46.987	0.205	0.100
-286.574	-51.522	-0.324	-0.151
-285.559	-25.283	-0.198	-0.117
-284.545	145.842	0.163	0.217
-283.530	800.000	0.099	0.322
-282.516	-122.878	-0.163	0.026
-281.501	164.954	0.071	0.100
-280.486	-151.875	-0.483	0.035
-279.472	323.449	-0.081	0.154
-278.457	800.000	0.039	0.155
-277.443	126.114	-0.183	0.231
-276.428	80.258	0.181	-0.195
-275.413	-41.657	0.150	-0.077
-274.399	800.000	-0.042	-0.123
-273.384	-200.000	0.037	-0.282
-272.370	-32.630	0.133	0.074
-271.355	-153.465	0.108	-0.007
-270.340	35.906	0.230	0.201
-269.326	-200.000	0.003	0.200
-268.311	800.000	0.082	0.292
-267.297	196.472	-0.179	-0.272
-266.282	800.000	0.049	-0.141
-265.267	52.926	0.120	0.114
-264.253	128.235	-0.164	-0.208
-263.238	-200.000	-0.035	0.415
-262.224	-20.753	0.145	0.089
-261.209	644.105	-0.042	0.107
-260.195	-103.158	0.108	0.025
-259.180	-97.011	0.121	-0.032
-258.165	-20.851	0.357	0.218
-257.151	-200.000	0.001	0.166
-256.136	188.320	-0.036	-0.054
-255.122	-200.000	0.004	-0.060
-254.107	17.717	0.201	-0.159
-253.092	12.753	0.258	-0.199
-252.078	800.000	0.059	-0.179
-251.063	45.280	-0.141	0.130
-250.049	-23.410	0.066	0.039
-249.034	-11.490	-0.291	0.191
-248.019	-132.242	-0.291	0.038
-247.005	-200.000	0.016	0.477
-245.990	53.413	-0.240	-0.230
-244.976	41.161	-0.268	0.241
-243.961	-50.029	0.172	-0.081
-242.946	550.585	-0.075	0.180
-241.932	113.149	0.196	-0.237
-240.917	-200.000	0.024	-0.107
-239.903	29.721	-0.320	0.272
-238.888	663.949	-0.034	0.088
-237.873	-113.254	-0.206	-0.040
-236.859	43.547	-0.133	0.121
-235.844	116.793	0.061	-0.075
-234.830	766.450	0.032	0.087
-233.815	-200.000	0.009	-0.248
-232.800	-200.000	0.042	-0.369
-231.786	331.409	0.177	-0.340
-230.771	-200.000	-0.027	0.169
-229.757	231.822	0.129	-0.211
-228.742	-77.884	-0.173	0.060
-227.727	-97.967	0.331	0.085
-226.713	-133.474	-0.251	0.031
-225.698	148.297	0.184	-0.247
-224.684	-63.676	0.395	0.161
-223.669	51.777	0.206	-0.195
-222.655	-70.486	-0.092	-0.035
-221.640	-157.648	-0.255	0.015
-220.625	362.213	0.057	-0.113
-219.611	-115.244	0.149	-0.028
-218.596	5.305	-0.211	0.155
-217.582	800.000	-0.096	0.279
-216.567	15.883	0.056	-0.044
-215.552	257.980	-0.078	-0.134
-214.538	800.000	0.093	-0.322
-213.523	800.000	-0.055	-0.159
-212.509	6.143	0.225	-0.166
-211.494	464.267	0.143	0.318
-210.479	216.178	0.150	0.237
-209.465	4.554	-0.220	0.161
-208.450	-131.511	-0.309	-0.041
-207.436	89.378	0.181	0.201
-206.421	-200.000	0.029	-0.184
-205.406	72.866	0.099	-0.102
-204.392	89.173	0.436	0.483
-203.377	-200.000	-0.035	-0.231
-202.363	-107.558	0.120	0.026
-201.348	-200.000	0.006	-0.191
-200.333	58.660	-0.172	0.168
-199.319	20.115	0.320	0.257
-198.304	-39.355	-0.043	0.023
-197.290	406.059	-0.162	0.340
-196.275	29.656	0.264	-0.223
-195.260	-26.070	0.093	-0.055
-194.246	29.287	0.119	0.101
-193.231	38.993	-0.187	0.166
-192.217	-60.352	0.204	0.086
-191.202	-31.313	0.097	0.054
-190.187	-127.753	0.143	-0.021
-189.173	-200.000	0.041	-0.495
-188.158	-103.740	0.367	-0.085
-187.144	20.237	0.157	-0.126
-186.129	-4.492	0.198	0.136
-185.114	25.282	0.071	0.059
-184.100	-122.242	0.094	0.015
-183.085	-162.719	-0.194	-0.009
-182.071	-77.959	0.136	0.047
-181.056	25.919	0.256	-0.212
-180.042	34.304	-0.185	-0.160
-179.027	289.208	0.013	-0.024
-178.012	-174.771	0.156	-0.004
-176.998	-43.305	0.374	-0.188
-175.983	-15.333	-0.126	0.080
-174.969	230.612	-0.120	-0.196
-173.954	282.519	0.085	-0.152
-172.939	800.000	0.042	0.116
-171.925	-76.291	-0.385	0.135
-170.910	82.253	-0.136	0.146
-169.896	-5.215	-0.084	0.057
-168.881	-198.254	0.133	0.001
-167.866	84.154	0.008	-0.009
-166.852	123.040	-0.041	0.051
-165.837	-79.119	-0.115	0.039
-164.823	14.643	0.234	-0.181
-163.808	-151.642	0.339	-0.025
-162.793	800.000	0.094	-0.333
-161.779	-132.588	0.290	-0.037
-160.764	-200.000	-0.023	0.147
-159.750	-90.415	0.107	0.031
-158.735	-166.735	-0.573	-0.024
-157.720	5.557	0.350	-0.257
-156.706	800.000	-0.049	-0.196
-155.691	61.147	-0.179	-0.177
-154.677	-200.000	-0.010	-0.073
-153.662	-149.750	0.121	-0.009
-152.647	175.585	-0.180	-0.260
-151.633	-109.780	0.143	-0.030
-150.618	-200.000	0.009	0.359
-149.604	-78.973	0.188	0.063
-148.589	800.000	0.129	-0.525
-147.574	723.852	0.051	0.134
-146.560	749.722	-0.049	-0.130
-145.545	-200.000	0.010	0.283
-144.531	-200.000	0.007	-0.376
-143.516	-200.000	0.000	0.095
-142.502	309.618	-0.011	-0.020
-141.487	80.288	0.233	0.249
-140.472	-200.000	0.054	0.301
-139.458	599.237	-0.053	0.131
-138.443	143.187	-0.275	0.363
-137.429	-63.460	-0.117	0.048
-136.414	-81.112	-0.234	-0.077
-135.399	89.743	0.118	0.131
-134.385	-77.234	-0.315	-0.109
-133.370	-45.123	0.130	-0.064
-132.356	222.601	0.188	-0.301
-131.341	-43.735	0.272	-0.136
-130.326	186.202	0.080	0.118
-129.312	-75.331	-0.192	0.068
-128.297	-70.166	0.133	0.050
-127.283	-32.143	-0.261	0.145
-126.268	34.308	-0.078	-0.068
-125.253	150.441	0.043	0.058
-124.239	-39.485	-0.027	0.014
-123.224	-200.000	-0.037	-0.184
-122.210	-61.104	-0.195	0.082
-121.195	613.951	-0.060	-0.150
-120.180	139.827	-0.135	-0.176
-119.166	385.843	-0.170	0.348
-118.151	-75.232	0.195	0.069
-117.137	64.533	0.056	-0.056
-116.122	-200.000	0.011	-0.077
-115.107	-70.381	0.104	0.039
-114.093	-78.338	0.267	0.091
-113.078	15.232	0.205	-0.159
-112.064	199.160	0.124	0.188
-111.049	-80.199	-0.188	0.063
-110.034	-15.860	0.178	-0.112
-109.020	247.679	0.154	-0.258
-108.005	-200.000	0.014	0.186
-106.991	-59.620	-0.113	-0.048
-105.976	800.000	-0.035	0.136
-104.962	478.019	-0.123	0.277
-103.947	-171.629	0.153	-0.005
-102.932	34.104	0.288	-0.249
-101.918	800.000	-0.072	0.208
-100.903	-200.000	0.009	-0.106
-99.889	64.123	0.053	-0.053
-98.874	152.368	0.094	-0.127
-97.859	77.133	-0.230	0.243
-96.845	2.532	0.111	0.080
-95.830	751.733	-0.121	0.325
-94.816	800.000	0.077	-0.263
-93.801	98.119	-0.175	-0.200
-92.786	-92.587	-0.224	0.062
-91.772	-200.000	-0.028	-0.433
-90.757	-83.433	0.263	0.084
-89.743	-146.485	0.313	0.027
-88.728	-98.267	-0.300	0.076
-87.713	-135.345	-0.098	0.012
-86.699	199.099	-0.130	0.197
-85.684	-86.932	0.325	-0.098
-84.670	288.512	-0.022	0.040
-83.655	-61.859	-0.282	0.117
-82.640	714.900	0.147	0.385
-81.626	-14.213	-0.127	0.081
-80.611	-101.889	0.155	0.037
-79.597	800.000	-0.084	0.245
-78.582	50.170	-0.093	0.087
-77.567	-86.929	0.502	0.152
-76.553	-161.347	0.320	-0.016
-75.538	58.931	-0.118	-0.115
-74.524	40.316	0.208	0.185
-73.509	-75.753	0.293	-0.103
-72.494	213.539	0.047	-0.073
-71.480	-70.660	0.076	0.029
-70.465	-117.353	0.086	-0.015
-69.451	-165.217	-0.248	0.011
-68.436	26.359	-0.225	-0.186
-67.422	-200.000	0.010	-0.103
-66.407	98.011	-0.052	-0.059
-65.392	24.433	0.170	0.139
-64.378	-126.188	0.338	0.050
-63.363	-47.949	-0.096	0.046
-62.349	-200.000	0.021	0.351
-61.334	94.454	-0.761	-0.855
-60.319	75.002	0.344	0.358
-59.305	-200.000	-0.168	-0.867
-58.290	99.946	0.699	0.801
-57.276	800.000	0.441	1.723
-56.261	-200.000	92.337	552.153
-55.246	544.166	1363.951	3220.984
-54.232	153.268	2572.742	3482.236
-53.217	116.150	2187.491	2649.749
-52.203	46.648	1725.804	1584.618
-51.188	39.270	1535.708	1359.286
-50.173	36.767	1508.498	1318.127
-49.159	55.756	1557.490	1492.685
-48.144	59.642	1576.939	1538.121
-47.130	39.724	1533.191	1359.969
-46.115	36.445	1517.149	1323.273
-45.100	36.246	1514.485	1319.534
-44.086	36.149	1512.592	1317.172
-43.071	36.097	1510.546	1314.985
-42.057	36.070	1509.068	1313.458
-41.042	36.112	1507.978	1312.743
-40.027	36.102	1506.210	1311.084
-39.013	36.145	1504.397	1309.746
-37.998	36.013	1504.166	1308.601
-36.984	36.111	1502.590	1307.842
-35.969	36.113	1500.860	1306.298
-34.954	36.086	1499.437	1304.826
-33.940	36.155	1497.914	1303.913
-32.925	36.229	1496.404	1303.047
-31.911	36.227	1495.353	1302.063
-30.896	36.287	1493.751	1301.027
-29.881	36.214	1493.104	1299.917
-28.867	36.301	1491.311	1298.892
-27.852	36.118	1489.929	1296.402
-26.838	36.266	1488.335	1295.957
-25.823	36.267	1486.707	1294.496
-24.809	36.215	1485.030	1292.636
-23.794	36.136	1484.136	1291.277
-22.779	36.267	1482.671	1290.829
-21.765	36.306	1481.453	1289.979
-20.750	36.152	1480.187	1287.796
-19.736	36.240	1479.435	1287.676
-18.721	36.213	1478.154	1286.335
-17.706	36.208	1477.228	1285.442
-16.692	36.108	1476.316	1283.931
-15.677	36.254	1474.864	1283.586
-14.663	36.191	1474.003	1282.371
-13.648	36.023	1473.828	1281.047
-12.633	36.147	1472.017	1280.249
-11.619	36.179	1471.332	1279.814
-10.604	36.158	1470.387	1278.801
-9.590	36.180	1469.234	1277.896
-8.575	36.215	1468.518	1277.455
-7.560	36.209	1467.693	1276.647
-6.546	36.066	1467.347	1275.345
-5.531	36.086	1465.899	1274.170
-4.517	36.159	1465.008	1273.827
-3.502	36.009	1464.426	1272.279
-2.487	36.058	1463.172	1271.464
-1.473	36.101	1462.307	1270.944
-0.458	36.182	1460.416	1269.786
0.556	36.017	1450.948	1258.164
1.571	32.899	1424.727	1215.276
2.586	29.326	1362.780	1140.287
3.600	27.459	1279.479	1059.637
4.615	25.829	1232.668	1011.636
5.629	21.838	1174.927	942.755
6.644	11.215	1086.571	818.681
7.659	3.024	1042.508	745.798
8.673	1.744	1036.969	735.589
9.688	1.561	1033.643	732.284
10.702	1.363	1032.480	730.446
11.717	1.563	1029.988	729.574
12.731	5.173	1034.960	750.408
13.746	15.372	1049.258	810.194
14.761	22.926	1058.812	854.171
15.775	24.337	1060.060	861.925
16.790	24.482	1059.214	861.863
17.804	24.354	1058.782	860.818
18.819	24.273	1057.348	859.184
19.834	24.298	1056.988	858.935
20.848	24.380	1056.832	859.130
21.863	24.450	1056.588	859.193
22.877	24.627	1055.710	859.250
23.892	24.433	1055.390	857.984
24.907	24.337	1054.346	856.596
25.921	24.272	1054.106	856.017
26.936	24.474	1052.870	855.904
27.950	24.321	1052.192	854.543
28.965	24.241	1051.329	853.386
29.980	24.165	1049.450	851.419
30.994	24.199	1047.942	850.282
32.009	24.433	1047.097	850.638
33.023	24.406	1046.639	850.063
34.038	24.323	1045.150	848.383
35.053	24.177	1044.728	847.273
36.067	24.330	1044.359	847.625
37.082	24.415	1043.221	847.031
38.096	24.273	1043.330	846.368
39.111	24.528	1042.356	846.713
40.126	24.623	1041.494	846.387
41.140	24.569	1039.900	844.762
42.155	24.298	1038.553	842.315
43.169	23.914	1037.421	839.509
44.184	23.966	1036.326	838.793
45.199	24.015	1035.560	838.329
46.213	24.129	1034.233	837.719
47.228	24.016	1033.577	836.583
48.242	24.112	1033.201	836.654
49.257	24.253	1032.215	836.443
50.271	24.243	1031.589	835.814
51.286	24.452	1030.752	836.040
52.301	24.470	1029.924	835.380
53.315	24.431	1029.486	834.768
54.330	24.442	1028.431	833.893
55.344	24.362	1027.472	832.667
56.359	24.374	1026.811	832.113
57.374	24.433	1025.968	831.632
58.388	24.240	1025.088	829.946
59.403	24.117	1024.186	828.572
60.417	24.213	1023.517	828.402
61.432	23.849	1023.247	826.417
62.447	23.991	1022.297	826.237
63.461	24.213	1021.473	826.528
64.476	24.106	1020.758	825.380
65.490	24.085	1019.848	824.474
66.505	24.132	1018.647	823.649
67.520	24.222	1017.741	823.255
68.534	24.281	1017.550	823.303
69.549	24.036	1016.826	821.511
70.563	23.736	1015.298	818.826
71.578	23.605	1014.651	817.626
72.593	23.610	1013.755	816.852
73.607	23.627	1012.567	815.902
74.622	23.488	1011.687	814.484
75.636	23.757	1011.334	815.364
76.651	23.832	1011.043	815.401
77.666	23.821	1009.629	814.138
78.680	23.691	1008.812	812.811
79.695	23.641	1008.377	812.161
80.709	23.780	1007.867	812.312
81.724	23.892	1006.781	811.877
82.739	24.057	1005.703	811.686
83.753	23.984	1005.179	810.859
84.768	24.268	1004.625	811.635
85.782	24.569	1003.762	812.233
86.797	24.725	1003.632	812.769
87.812	24.784	1002.279	811.866
88.826	24.439	1001.859	809.889
89.841	24.464	1001.088	809.307
90.855	24.610	1000.013	809.027
91.870	24.664	999.507	808.791
92.884	24.571	998.724	807.668
93.899	24.591	997.325	806.556
94.914	24.446	996.453	805.122
95.928	24.614	996.076	805.504
96.943	24.586	995.154	804.563
97.957	24.292	994.191	802.388
98.972	24.027	993.072	800.223
99.987	23.862	991.632	798.254
101.001	23.898	991.198	797.996
102.016	24.298	990.721	799.333
103.030	24.472	989.659	799.184
104.045	24.303	988.627	797.524
105.060	24.135	987.920	796.133
106.074	24.086	986.274	794.517
107.089	23.997	985.841	793.701
108.103	24.224	985.821	794.627
109.118	24.449	984.793	794.731
110.133	24.115	983.688	792.285
111.147	24.074	982.679	791.217
112.162	24.004	981.358	789.774
113.176	23.772	980.079	787.647
114.191	23.910	979.769	787.938
115.206	23.899	978.878	787.104
116.220	23.728	977.748	785.368
117.235	23.381	976.897	783.082
118.249	23.601	976.591	783.739
119.264	23.796	975.494	783.649
120.279	23.792	974.026	782.383
121.293	23.678	973.374	781.289
122.308	23.750	973.300	781.478
123.322	23.940	971.816	781.050
124.337	23.708	970.980	779.295
125.352	23.669	969.760	778.072
126.366	23.287	968.120	775.017
127.381	22.966	966.476	772.230
128.395	23.444	966.561	774.318
129.410	24.109	966.425	777.046
130.424	24.288	965.818	777.268
131.439	24.268	964.354	775.932
132.454	24.304	963.687	775.484
133.468	24.181	962.831	774.193
134.483	24.131	962.191	773.394
135.497	24.288	961.118	773.141
136.512	24.445	960.743	773.453
137.527	24.465	960.043	772.907
138.541	24.534	959.383	772.607
139.556	24.517	958.707	771.918
140.570	24.565	957.376	770.988
141.585	24.578	956.767	770.485
142.600	24.654	955.934	770.071
143.614	24.420	954.961	768.216
144.629	24.542	954.603	768.384
145.643	24.813	953.953	768.956
146.658	24.749	952.799	767.686
147.673	24.492	951.339	765.337
148.687	24.392	950.497	764.164
149.702	24.348	949.604	763.190
150.716	24.265	948.285	761.709
151.731	24.262	947.429	760.941
152.746	24.275	946.523	760.200
153.760	24.362	946.591	760.559
154.775	24.689	945.337	760.877
155.789	24.687	944.431	760.073
156.804	24.574	943.789	759.009
157.819	24.666	942.674	758.436
158.833	24.515	942.187	757.333
159.848	24.761	941.199	757.516
160.862	24.649	941.031	756.840
161.877	24.710	939.708	755.967
162.892	24.595	937.979	754.024
163.906	24.603	937.871	753.903
164.921	24.749	936.676	753.493
165.935	24.575	935.808	751.995
166.950	24.646	935.013	751.588
167.964	24.590	934.151	750.593
168.979	24.618	932.833	749.586
169.994	24.498	931.775	748.165
171.008	24.410	930.651	746.828
172.023	24.542	929.967	746.764
173.037	24.571	929.643	746.562
174.052	24.617	928.122	745.467
175.067	24.419	926.904	743.598
176.081	24.276	926.507	742.618
177.096	24.443	925.998	742.839
178.110	24.443	924.894	741.885
179.125	24.262	923.461	739.921
180.140	23.883	922.553	737.557
181.154	23.838	922.571	737.318
182.169	24.121	921.639	737.680
183.183	24.218	921.619	737.999
184.198	24.621	920.906	739.031
185.213	24.573	920.205	738.204
186.227	24.462	919.930	737.459
187.242	24.561	919.553	737.502
188.256	24.640	918.433	736.865
189.271	24.557	917.639	735.821
190.286	24.573	917.162	735.440
191.300	24.599	916.056	734.595
192.315	24.070	914.352	730.991
193.329	23.203	913.258	726.494
194.344	22.775	912.179	723.817
195.359	23.328	912.731	726.457
196.373	24.311	912.784	730.466
197.388	24.462	912.613	730.881
198.402	24.642	911.271	730.478
199.417	24.413	911.293	729.498
200.432	24.390	910.850	728.984
201.446	24.423	909.820	728.230
202.461	24.215	909.104	726.744
203.475	24.213	908.639	726.298
204.490	23.674	907.385	723.038
205.504	22.641	905.334	717.139
206.519	23.036	905.185	718.563
207.534	24.044	905.458	722.815
208.548	24.216	904.903	723.004
209.563	24.455	905.070	724.044
210.577	24.337	904.174	722.785
211.592	24.196	903.282	721.437
212.607	24.504	903.177	722.536
213.621	24.534	903.050	722.492
214.636	24.530	902.439	721.923
215.650	24.709	901.627	721.931
216.665	24.563	901.075	720.835
217.680	24.678	900.325	720.635
218.694	24.788	899.902	720.677
219.709	24.413	898.548	718.022
220.723	24.102	897.619	715.966
221.738	24.120	897.720	716.053
222.753	24.398	897.280	716.758
223.767	24.440	896.306	716.083
224.782	24.630	895.321	715.994
225.796	24.657	894.993	715.779
226.811	24.838	894.765	716.257
227.826	24.476	892.866	713.229
228.840	23.612	891.347	708.503
229.855	23.595	891.045	708.132
230.869	23.866	890.528	708.738
231.884	23.400	889.797	706.240
232.899	23.507	889.652	706.486
233.913	24.292	889.564	709.479
234.928	24.417	889.518	709.876
235.942	24.290	888.744	708.693
236.957	24.351	887.960	708.247
237.972	24.036	887.149	706.289
238.986	23.887	886.357	705.003
240.001	24.120	885.551	705.222
241.015	24.135	885.004	704.784
242.030	24.313	884.372	704.924
243.045	24.375	884.066	704.859
244.059	24.474	883.306	704.582
245.074	24.581	883.066	704.751
246.088	24.479	882.285	703.663
247.103	24.087	881.506	701.435
248.117	24.230	881.217	701.708
249.132	24.657	880.545	702.792
250.147	25.020	880.752	704.321
251.161	25.246	880.010	704.554
252.176	25.387	879.691	704.788
253.190	25.269	879.244	703.906
254.205	25.384	878.318	703.551
255.220	25.471	878.467	703.949
256.234	25.536	877.504	703.371
257.249	25.561	876.585	702.668
258.263	25.300	875.991	701.110
259.278	25.499	875.171	701.167
260.293	25.440	875.118	700.833
261.307	25.388	874.627	700.174
262.322	25.330	874.035	699.413
263.336	25.252	873.268	698.433
264.351	24.845	871.749	695.576
265.366	23.643	870.049	689.494
266.380	23.310	868.899	687.228
267.395	24.156	869.390	690.838
268.409	24.955	869.240	693.754
269.424	24.977	868.772	693.408
270.439	24.962	868.579	693.130
271.453	25.143	867.918	693.244
272.468	25.237	867.067	692.865
273.482	25.277	867.001	692.906
274.497	25.469	866.203	692.948
275.512	25.186	865.362	691.122
276.526	24.614	863.961	687.741
277.541	24.857	863.603	688.329
278.555	25.340	863.383	689.951
279.570	24.991	862.941	688.196
280.585	24.971	861.617	687.005
281.599	24.953	861.603	686.861
282.614	25.154	861.119	687.186
283.628	24.646	860.024	684.304
284.643	24.202	859.202	681.891
285.657	24.815	859.347	684.291
286.672	24.611	858.404	682.704
287.687	24.004	857.758	679.811
288.701	24.396	857.258	680.849
289.716	24.914	856.805	682.404
290.730	24.543	856.226	680.469
291.745	24.405	855.325	679.168
292.760	24.203	854.882	677.990
293.774	24.041	854.021	676.631
294.789	25.119	854.585	681.116
295.803	25.636	854.709	683.117
296.818	25.646	854.019	682.544
297.833	25.807	853.655	682.802
298.847	25.306	853.064	680.370
299.862	25.138	851.537	678.456
300.876	25.400	851.157	679.085
301.891	25.626	850.840	679.623
302.906	25.806	850.155	679.697
303.920	25.378	849.117	677.192
304.935	25.124	848.500	675.685
305.949	25.510	848.218	676.854
306.964	25.655	848.023	677.184
307.979	25.307	847.338	675.269
308.993	25.473	846.239	674.958
310.008	25.677	846.398	675.790
311.022	25.870	845.943	676.089
312.037	25.695	845.328	674.884
313.052	25.500	844.622	673.531
314.066	25.385	843.872	672.440
315.081	24.691	842.461	668.664
316.095	24.025	841.244	665.148
317.110	24.285	841.662	666.393
318.125	25.318	841.633	670.171
319.139	24.992	840.493	667.986
320.154	23.783	839.011	662.248
321.168	23.248	838.198	659.554
322.183	23.960	838.172	662.126
323.197	24.928	838.548	665.967
324.212	25.203	838.199	666.654
325.227	25.261	837.863	666.542
326.241	25.407	837.721	666.912
327.256	25.477	836.780	666.365
328.270	25.358	836.448	665.600
329.285	25.110	835.714	664.040
330.300	25.099	834.710	663.142
331.314	24.848	834.197	661.746
332.329	24.904	833.606	661.427
333.343	25.297	833.191	662.489
334.358	25.653	832.805	663.436
335.373	25.504	832.325	662.448
336.387	25.589	831.989	662.432
337.402	25.796	831.209	662.515
338.416	26.053	830.849	663.116
339.431	25.807	830.594	661.948
340.446	25.991	830.020	662.107
341.460	26.260	829.657	662.746
342.475	26.138	829.099	661.797
343.489	25.847	828.455	660.156
344.504	25.894	827.863	659.798
345.519	26.182	827.526	660.524
346.533	26.422	826.821	660.781
347.548	26.445	826.752	660.753
348.562	26.509	825.825	660.186
349.577	26.362	825.640	659.444
350.592	26.316	824.726	658.489
351.606	26.255	824.748	658.222
352.621	26.157	824.297	657.447
353.635	26.271	823.628	657.271
354.650	26.106	823.079	656.176
355.665	25.838	821.891	654.199
356.679	24.872	820.313	649.380
357.694	24.671	819.877	648.251
358.708	25.464	819.469	650.743
359.723	25.181	819.041	649.321
360.738	25.488	818.842	650.216
361.752	25.930	818.750	651.685
362.767	25.986	818.609	651.715
363.781	26.308	818.471	652.711
364.796	26.672	818.278	653.816
365.810	26.562	817.959	653.104
366.825	26.709	817.670	653.347
367.840	26.626	817.046	652.490
368.854	26.579	816.492	651.823
369.869	26.121	815.756	649.529
370.883	25.934	815.051	648.239
371.898	26.168	814.601	648.664
372.913	26.081	813.589	647.489
373.927	26.049	812.989	646.839
374.942	26.144	812.749	646.931
375.956	26.164	812.097	646.426
376.971	26.222	811.946	646.457
377.986	26.346	811.539	646.518
379.000	26.563	810.982	646.792
380.015	26.616	810.564	646.589
381.029	26.709	809.379	645.921
382.044	26.427	809.009	644.564
383.059	26.605	808.631	644.839
384.073	26.627	808.143	644.471
385.088	26.500	807.744	643.645
386.102	26.648	806.964	643.490
387.117	26.480	806.257	642.275
388.132	26.166	805.823	640.758
389.146	26.213	805.140	640.325
390.161	25.710	804.136	637.686
391.175	25.817	803.729	637.689
392.190	26.217	803.870	639.158
393.205	26.367	803.297	639.175
394.219	25.398	801.609	634.357
395.234	23.856	798.949	626.764
396.248	22.793	798.469	622.585
397.263	24.047	799.094	627.440
398.278	25.730	800.367	634.320
399.292	26.306	800.506	636.402
400.307	25.847	799.921	634.268
401.321	25.811	799.335	633.619
402.336	26.032	798.804	633.919
403.350	26.323	799.101	635.122
404.365	26.596	799.141	636.056
405.380	26.980	798.871	637.134
406.394	27.384	798.114	637.887
407.409	27.564	798.017	638.384
408.423	27.385	797.420	637.224
409.438	27.323	796.727	636.397
410.453	27.273	796.323	635.842
411.467	27.546	795.847	636.360
412.482	27.369	795.188	635.160
413.496	27.317	795.069	634.829
414.511	27.487	794.765	635.121
415.526	27.470	794.419	634.730
416.540	27.251	794.215	633.747
417.555	27.495	793.482	633.957
418.569	27.091	792.730	631.895
419.584	27.034	792.121	631.153
420.599	27.011	791.581	630.588
421.613	105.864	1276.505	1434.186
422.628	90.931	1347.148	1434.298
