DTS Sentinel unit serial number:	SN413079Multiplexer serial number:	ORYXHardware model number:	OX4-SRSoftware version number:	ORYX F/W v4.00 Oryx Data Collector v3.7.2.0data status	okinstallation	princeton_trtdifferential loss correction	single-endedforward channel	channel 3reverse channel	N/Adate	2019/09/13time	16:24:35forward acquisition time	60.00reverse acquisition time	0.00gamma	496.2192k internal	0.2302k external	0.2302temperature offset calibration	1.0145default loss term (dB/km)	0.3790temperature slope calibration	1.0000multiplexer offset coefficient	1.0000multiplexer slope coefficient	1.0000fibre end	0.00T internal ref (°C)	35.00T ext. ref 1 (°C)	4.88T ext. ref 2 (°C)	31.05length (m)	temperature (°C)	Stokes	anti-Stokes-747.200	-147.395	-0.235	0.020
-746.185	-131.874	0.103	-0.014
-745.171	800.000	-0.078	-0.302
-744.156	581.650	0.057	0.141
-743.142	-44.924	0.392	-0.199
-742.127	-200.000	-0.017	-0.176
-741.112	64.204	-0.358	-0.367
-740.098	44.453	-0.183	-0.171
-739.083	668.460	0.047	-0.123
-738.069	-36.283	-0.247	0.136
-737.054	219.747	0.148	-0.242
-736.039	-8.082	0.089	-0.061
-735.025	-126.013	0.219	-0.034
-734.010	4.680	0.110	0.082
-732.996	-56.625	0.185	0.084
-731.981	-96.854	0.148	0.040
-730.966	39.973	-0.340	-0.311
-729.952	-59.379	-0.056	0.025
-728.937	-123.916	0.265	-0.043
-727.923	-127.644	-0.191	0.028
-726.908	-200.000	-0.053	-0.284
-725.894	-132.913	-0.201	0.026
-724.879	327.078	0.180	-0.352
-723.864	-108.531	0.121	-0.026
-722.850	91.238	0.046	0.052
-721.835	-188.612	-0.311	-0.004
-720.821	-74.285	0.305	-0.112
-719.806	-86.543	-0.290	0.091
-718.791	124.904	-0.286	0.367
-717.777	-200.000	-0.004	-0.042
-716.762	204.941	0.115	-0.182
-715.748	167.021	-0.092	-0.132
-714.733	-135.575	-0.282	0.034
-713.718	800.000	0.043	0.185
-712.704	800.000	0.050	-0.223
-711.689	800.000	0.065	0.290
-710.675	195.780	0.192	0.297
-709.660	800.000	-0.097	-0.321
-708.645	103.009	-0.294	0.350
-707.631	-200.000	0.006	0.135
-706.616	284.027	-0.069	-0.127
-705.602	-122.388	-0.144	0.024
-704.587	-200.000	-0.025	0.124
-703.572	445.726	0.195	0.437
-702.558	800.000	0.121	0.482
-701.543	78.740	-0.166	-0.181
-700.529	113.242	0.164	0.203
-699.514	800.000	0.083	-0.247
-698.499	32.763	0.053	0.047
-697.485	2.490	-0.129	-0.095
-696.470	-118.826	-0.281	0.050
-695.456	162.932	-0.168	0.239
-694.441	-56.489	0.096	0.043
-693.426	0.627	-0.098	0.072
-692.412	-81.545	0.314	-0.105
-691.397	-139.206	-0.179	0.020
-690.383	88.694	-0.153	0.173
-689.368	-50.084	0.170	-0.082
-688.354	32.670	0.248	-0.218
-687.339	-130.809	0.293	-0.040
-686.324	439.229	0.136	-0.302
-685.310	-171.080	-0.217	-0.007
-684.295	36.577	0.142	0.127
-683.281	800.000	0.072	0.238
-682.266	425.566	-0.137	0.300
-681.251	-200.000	0.015	0.116
-680.237	-58.190	0.111	0.049
-679.222	390.362	-0.066	-0.140
-678.208	19.209	-0.158	-0.129
-677.193	63.632	0.230	-0.234
-676.178	-200.000	0.001	-0.191
-675.164	19.458	-0.180	0.147
-674.149	-77.541	0.189	-0.067
-673.135	-34.324	0.266	0.148
-672.120	-0.926	-0.345	0.248
-671.105	-200.000	0.016	0.144
-670.091	3.741	0.257	-0.190
-669.076	-92.660	0.037	-0.011
-668.062	373.789	-0.067	-0.139
-667.047	-26.995	0.203	-0.121
-666.032	-91.483	-0.306	0.089
-665.018	-105.468	-0.462	-0.107
-664.003	-99.516	-0.394	-0.101
-662.989	145.904	-0.190	-0.259
-661.974	-35.494	0.134	0.074
-660.959	478.720	-0.043	0.100
-659.945	800.000	0.015	0.064
-658.930	38.580	0.154	0.140
-657.916	111.722	-0.094	-0.115
-656.901	154.194	-0.026	-0.036
-655.886	19.123	0.124	0.101
-654.872	-127.307	0.393	-0.058
-653.857	4.017	0.337	-0.250
-652.843	124.156	-0.221	0.282
-651.828	-200.000	-0.050	-0.299
-650.814	-92.943	0.173	0.049
-649.799	89.230	-0.123	0.139
-648.784	585.189	-0.052	-0.130
-647.770	119.006	-0.175	0.219
-646.755	800.000	-0.025	-0.083
-645.741	-200.000	-0.000	-0.057
-644.726	1.486	-0.037	-0.027
-643.711	-19.905	-0.154	-0.097
-642.697	-26.973	-0.191	0.113
-641.682	-200.000	-0.044	0.220
-640.668	-200.000	-0.045	0.310
-639.653	-67.800	-0.367	-0.146
-638.638	-59.427	0.239	0.104
-637.624	21.822	-0.101	0.083
-636.609	323.159	0.204	-0.395
-635.595	-200.000	-0.049	-0.533
-634.580	-80.151	-0.221	0.075
-633.565	290.856	0.148	-0.273
-632.551	-133.269	-0.107	0.014
-631.536	147.074	0.147	0.200
-630.522	-200.000	0.022	-0.188
-629.507	-136.994	0.252	-0.029
-628.492	-200.000	-0.025	0.230
-627.478	-58.974	-0.132	-0.058
-626.463	800.000	0.107	-0.325
-625.449	473.130	0.137	-0.314
-624.434	-200.000	0.024	0.321
-623.419	-18.390	0.144	0.091
-622.405	-142.392	0.152	-0.015
-621.390	-200.000	0.022	0.117
-620.376	-193.912	-0.217	-0.002
-619.361	800.000	0.098	0.422
-618.346	-2.087	0.073	0.052
-617.332	-118.000	0.375	-0.068
-616.317	-200.000	0.002	0.084
-615.303	32.435	0.254	0.223
-614.288	59.896	-0.026	0.026
-613.273	472.190	-0.073	0.167
-612.259	-136.140	-0.302	0.036
-611.244	-58.029	-0.210	-0.093
-610.230	-200.000	0.054	0.383
-609.215	-60.833	-0.052	0.022
-608.201	-200.000	-0.054	-0.428
-607.186	131.246	0.165	0.214
-606.171	0.326	-0.175	-0.127
-605.157	-63.891	-0.174	0.072
-604.142	-29.443	-0.184	0.107
-603.128	-44.013	0.168	0.086
-602.113	-13.884	0.158	0.104
-601.098	800.000	-0.056	-0.187
-600.084	185.875	-0.048	0.072
-599.069	-109.680	-0.287	0.061
-598.055	57.002	0.253	0.250
-597.040	-200.000	0.003	-0.032
-596.025	159.731	0.105	0.149
-595.011	-200.000	0.007	-0.158
-593.996	-131.116	0.173	-0.023
-592.982	800.000	0.030	0.119
-591.967	38.858	-0.076	0.069
-590.952	-80.290	-0.258	-0.087
-589.938	103.501	0.141	-0.168
-588.923	-39.931	0.339	0.179
-587.909	-150.043	0.260	-0.021
-586.894	-200.000	-0.002	0.305
-585.879	-200.000	-0.016	0.376
-584.865	136.633	-0.143	0.188
-583.850	-200.000	0.015	-0.097
-582.836	-78.141	0.052	-0.018
-581.821	-17.840	0.160	-0.101
-580.806	17.524	-0.187	0.151
-579.792	-2.391	0.172	-0.122
-578.777	-131.256	0.197	-0.026
-577.763	-56.251	0.261	0.118
-576.748	-80.926	-0.193	-0.065
-575.733	-123.493	-0.100	0.016
-574.719	-19.905	0.154	-0.096
-573.704	243.505	-0.117	-0.198
-572.690	34.215	0.039	-0.034
-571.675	-151.259	-0.203	0.015
-570.661	-39.042	-0.378	-0.201
-569.646	359.449	0.118	-0.239
-568.631	65.578	-0.111	0.114
-567.617	28.760	0.154	-0.132
-566.602	-142.292	-0.212	-0.021
-565.588	-165.450	0.089	0.004
-564.573	617.614	-0.063	0.161
-563.558	45.267	-0.147	-0.137
-562.544	131.106	0.056	-0.072
-561.529	-200.000	-0.039	-0.182
-560.515	0.608	0.354	-0.256
-559.500	-169.828	0.194	0.007
-558.485	800.000	0.104	-0.321
-557.471	-200.000	-0.006	-0.072
-556.456	161.216	0.223	0.316
-555.442	331.237	-0.168	-0.327
-554.427	800.000	-0.074	-0.256
-553.412	83.693	-0.178	-0.196
-552.398	55.319	0.237	-0.232
-551.383	-113.911	0.106	-0.021
-550.369	-77.864	0.155	-0.054
-549.354	-40.854	0.167	0.087
-548.339	536.535	-0.200	0.479
-547.325	-200.000	-0.023	0.224
-546.310	800.000	-0.118	0.334
-545.296	67.088	0.136	0.140
-544.281	-132.216	0.250	-0.033
-543.266	-200.000	0.015	0.290
-542.252	14.338	0.146	0.115
-541.237	213.046	0.116	0.186
-540.223	-92.684	0.317	0.090
-539.208	-27.634	-0.153	-0.090
-538.193	-200.000	0.030	0.142
-537.179	72.023	0.274	0.288
-536.164	-92.848	0.409	0.116
-535.150	71.048	-0.143	-0.150
-534.135	-45.655	0.156	0.078
-533.121	562.655	0.118	0.287
-532.106	800.000	0.126	-0.458
-531.091	289.221	0.057	0.105
-530.077	-3.292	-0.242	0.170
-529.062	-200.000	0.054	0.442
-528.048	25.243	0.221	-0.186
-527.033	260.117	-0.076	0.133
-526.018	544.481	0.149	0.360
-525.004	-158.876	-0.287	-0.017
-523.989	-118.175	-0.362	0.065
-522.975	497.345	-0.038	-0.089
-521.960	-164.122	-0.304	0.014
-520.945	-88.331	-0.218	-0.066
-519.931	-200.000	0.008	-0.283
-518.916	329.974	0.079	0.153
-517.902	113.783	0.139	-0.171
-516.887	-162.416	-0.315	-0.016
-515.872	800.000	-0.052	-0.182
-514.858	-192.915	0.201	-0.002
-513.843	51.850	0.195	0.187
-512.829	64.048	0.176	-0.179
-511.814	95.410	-0.102	-0.117
-510.799	800.000	0.139	-0.523
-509.785	3.602	-0.292	0.215
-508.770	-34.419	-0.175	-0.097
-507.756	96.711	0.171	0.197
-506.741	-56.920	-0.143	0.064
-505.726	509.932	-0.151	-0.355
-504.712	551.853	0.101	-0.245
-503.697	-200.000	-0.043	0.273
-502.683	-200.000	-0.011	-0.189
-501.668	20.617	0.223	-0.182
-500.653	-200.000	-0.019	-0.360
-499.639	-188.417	0.505	-0.006
-498.624	-200.000	-0.024	0.251
-497.610	-200.000	0.015	-0.207
-496.595	-5.787	-0.202	0.139
-495.581	232.895	-0.129	0.215
-494.566	60.018	-0.093	0.093
-493.551	800.000	0.028	0.095
-492.537	-80.030	0.219	0.074
-491.522	35.635	0.078	-0.069
-490.508	92.986	0.165	-0.188
-489.493	-103.204	-0.334	-0.080
-488.478	88.119	-0.274	0.306
-487.464	2.901	-0.098	0.072
-486.449	622.174	-0.023	0.059
-485.435	548.930	0.045	-0.109
-484.420	-72.838	-0.239	-0.089
-483.405	800.000	-0.025	-0.095
-482.391	10.455	0.246	0.189
-481.376	-91.403	0.159	-0.046
-480.362	50.815	0.054	-0.052
-479.347	-200.000	-0.005	-0.062
-478.332	-200.000	0.026	0.150
-477.318	60.208	0.103	0.103
-476.303	-17.753	0.084	-0.053
-475.289	40.515	-0.107	0.098
-474.274	31.706	0.158	0.137
-473.259	-66.051	0.212	-0.085
-472.245	-184.787	-0.142	-0.002
-471.230	65.161	0.275	-0.280
-470.216	800.000	-0.033	-0.120
-469.201	-26.068	-0.135	-0.080
-468.186	800.000	-0.098	0.314
-467.172	3.430	0.149	-0.110
-466.157	800.000	-0.014	0.049
-465.143	791.085	-0.096	0.267
-464.128	800.000	-0.097	0.309
-463.113	-200.000	0.021	0.119
-462.099	103.804	-0.121	0.143
-461.084	800.000	0.058	-0.181
-460.070	354.235	-0.104	-0.208
-459.055	66.122	-0.095	0.097
-458.040	-200.000	-0.031	0.198
-457.026	-200.000	-0.049	-0.229
-456.011	-200.000	0.002	-0.498
-454.997	-16.670	0.050	-0.032
-453.982	364.898	0.100	-0.202
-452.968	432.922	-0.016	-0.036
-451.953	147.297	0.081	0.110
-450.938	-200.000	-0.031	0.168
-449.924	-5.620	0.369	0.255
-448.909	800.000	0.040	0.128
-447.895	613.742	0.042	-0.105
-446.880	-11.799	0.209	0.138
-445.865	-23.212	0.117	-0.071
-444.851	-112.767	-0.124	0.025
-443.836	-142.352	-0.260	-0.026
-442.822	483.214	0.166	-0.379
-441.807	-200.000	0.067	0.341
-440.792	97.472	0.213	0.246
-439.778	46.076	-0.132	-0.123
-438.763	473.606	-0.170	-0.386
-437.749	-44.070	-0.031	-0.016
-436.734	-65.137	0.141	0.057
-435.719	-35.760	-0.124	0.067
-434.705	37.795	0.123	0.110
-433.690	-136.096	0.208	0.025
-432.676	-145.778	-0.205	-0.018
-431.661	-18.616	0.153	0.096
-430.646	28.927	0.313	-0.267
-429.632	-152.633	0.340	0.024
-428.617	-17.382	0.255	-0.162
-427.603	-200.000	-0.042	-0.192
-426.588	-48.009	-0.101	-0.049
-425.573	-54.953	0.272	-0.123
-424.559	-116.953	-0.099	-0.018
-423.544	190.618	0.126	0.190
-422.530	-130.661	-0.044	0.006
-421.515	504.608	0.096	-0.223
-420.500	-108.468	-0.294	0.064
-419.486	800.000	0.044	-0.160
-418.471	-41.360	0.359	-0.186
-417.457	128.018	-0.133	-0.170
-416.442	-98.371	0.270	0.070
-415.428	-78.013	-0.191	0.066
-414.413	-167.097	-0.363	-0.015
-413.398	-115.841	-0.133	-0.025
-412.384	49.186	-0.204	-0.193
-411.369	-200.000	0.010	0.143
-410.355	-200.000	0.010	0.235
-409.340	5.278	0.041	0.031
-408.325	176.151	-0.145	0.211
-407.311	39.545	-0.110	0.099
-406.296	-70.541	0.198	-0.076
-405.282	172.481	0.188	-0.272
-404.267	-70.596	0.090	0.034
-403.252	236.812	0.203	-0.338
-402.238	751.808	-0.085	-0.230
-401.223	-200.000	0.017	-0.272
-400.209	245.135	0.064	-0.108
-399.194	-48.682	0.102	0.049
-398.179	-200.000	-0.045	-0.392
-397.165	225.106	-0.160	0.261
-396.150	52.751	-0.327	-0.314
-395.136	-200.000	-0.030	0.172
-394.121	-200.000	-0.059	-0.426
-393.106	-200.000	-0.033	-0.255
-392.092	-53.278	0.312	0.144
-391.077	719.182	-0.054	0.144
-390.063	451.398	-0.132	-0.294
-389.048	800.000	0.060	0.248
-388.033	439.755	-0.076	0.167
-387.019	800.000	-0.101	-0.304
-386.004	-50.761	-0.326	0.154
-384.990	525.987	0.068	0.161
-383.975	-10.251	0.071	0.047
-382.960	255.453	0.036	0.061
-381.946	-57.908	-0.073	-0.032
-380.931	26.495	-0.341	-0.287
-379.917	66.502	0.072	-0.074
-378.902	-103.726	-0.341	-0.080
-377.888	-67.818	0.245	0.096
-376.873	-90.713	-0.262	0.076
-375.858	-153.523	0.139	-0.010
-374.844	-200.000	0.006	0.161
-373.829	-35.847	-0.153	0.083
-372.815	314.439	-0.046	-0.086
-371.800	-93.172	-0.189	-0.053
-370.785	-89.670	0.186	-0.055
-369.771	621.302	0.180	-0.454
-368.756	-159.359	0.347	0.020
-367.742	-66.214	0.076	0.030
-366.727	-12.872	0.135	-0.088
-365.712	-91.756	-0.485	0.138
-364.698	-70.293	0.180	-0.068
-363.683	-101.358	-0.157	0.039
-362.669	-7.524	0.101	-0.069
-361.654	-156.239	0.268	0.017
-360.639	800.000	0.067	0.275
-359.625	83.046	-0.124	-0.135
-358.610	-86.951	0.121	-0.037
-357.596	-67.192	-0.360	-0.142
-356.581	800.000	-0.073	0.222
-355.566	-119.307	-0.290	0.051
-354.552	800.000	-0.009	0.027
-353.537	59.414	-0.232	-0.229
-352.523	800.000	-0.153	-0.483
-351.508	291.076	-0.038	0.069
-350.493	-200.000	0.008	-0.039
-349.479	-137.487	-0.358	-0.041
-348.464	800.000	-0.100	0.382
-347.450	-96.061	-0.228	0.061
-346.435	-200.000	0.032	0.149
-345.420	-200.000	-0.002	-0.158
-344.406	718.685	-0.039	-0.105
-343.391	-200.000	0.010	-0.242
-342.377	-200.000	-0.027	-0.297
-341.362	-200.000	0.042	0.243
-340.348	97.282	0.071	-0.082
-339.333	-76.061	-0.183	-0.065
-338.318	800.000	-0.047	-0.179
-337.304	-82.733	-0.311	0.101
-336.289	16.814	-0.194	-0.154
-335.275	-29.781	0.297	-0.170
-334.260	88.336	-0.178	0.198
-333.245	-200.000	0.028	-0.167
-332.231	127.692	0.080	-0.103
-331.216	31.612	0.288	-0.249
-330.202	249.412	0.041	0.070
-329.187	-10.746	-0.094	0.063
-328.172	789.490	-0.093	-0.255
-327.158	-33.821	-0.121	0.067
-326.143	-200.000	0.049	-0.343
-325.129	-51.928	-0.383	0.179
-324.114	-22.087	0.121	0.074
-323.099	-200.000	0.021	0.655
-322.085	181.974	-0.209	0.309
-321.070	75.348	-0.180	-0.190
-320.056	-123.328	0.274	-0.044
-319.041	265.233	0.073	-0.127
-318.026	-30.944	0.231	-0.131
-317.012	-24.591	0.207	0.123
-315.997	356.121	0.100	-0.200
-314.983	-82.071	-0.071	-0.023
-313.968	-200.000	0.013	-0.247
-312.953	14.714	0.073	-0.057
-311.939	-71.711	0.092	-0.034
-310.924	-111.137	0.207	0.042
-309.910	97.138	-0.239	0.275
-308.895	-75.138	-0.104	-0.037
-307.880	-104.731	-0.076	0.018
-306.866	121.679	-0.209	0.261
-305.851	-87.487	-0.097	-0.029
-304.837	800.000	-0.048	-0.178
-303.822	-200.000	0.123	-0.562
-302.807	37.495	0.417	0.371
-301.793	-37.703	-0.152	-0.081
-300.778	158.200	0.142	-0.197
-299.764	-101.445	-0.388	-0.095
-298.749	359.384	-0.075	0.150
-297.735	510.611	-0.076	-0.177
-296.720	-183.541	0.121	-0.002
-295.705	-107.481	-0.327	0.072
-294.691	800.000	-0.011	0.038
-293.676	800.000	-0.089	-0.255
-292.662	-200.000	0.016	0.437
-291.647	-20.014	-0.110	0.068
-290.632	341.870	0.253	-0.496
-289.618	-200.000	-0.025	-0.185
-288.603	800.000	-0.019	0.058
-287.589	89.338	-0.041	-0.046
-286.574	-167.437	0.285	-0.011
-285.559	44.654	0.090	-0.083
-284.545	499.174	0.148	-0.342
-283.530	-13.979	0.179	0.116
-282.516	188.187	0.193	-0.288
-281.501	800.000	0.063	-0.247
-280.486	344.958	-0.184	0.362
-279.472	34.495	-0.113	0.098
-278.457	83.550	-0.075	-0.082
-277.443	-117.786	-0.202	0.036
-276.428	-146.547	-0.134	0.012
-275.413	-12.444	0.083	-0.054
-274.399	-118.524	-0.438	-0.078
-273.384	-92.948	0.280	0.078
-272.370	-200.000	0.025	0.244
-271.355	-66.793	-0.203	0.080
-270.340	100.434	-0.149	-0.173
-269.326	-200.000	-0.010	-0.061
-268.311	-53.803	-0.165	-0.075
-267.297	351.169	0.121	0.239
-266.282	-134.491	-0.217	-0.027
-265.267	-87.614	-0.249	-0.075
-264.253	-59.385	0.210	0.090
-263.238	20.298	-0.265	0.214
-262.224	-135.596	-0.200	0.024
-261.209	486.299	0.079	-0.179
-260.195	139.966	0.121	0.160
-259.180	-200.000	-0.025	-0.261
-258.165	-200.000	0.026	0.140
-257.151	-49.542	-0.239	-0.114
-256.136	32.901	-0.022	-0.019
-255.122	-86.632	-0.110	-0.034
-254.107	54.641	0.086	0.083
-253.092	-24.745	-0.222	-0.132
-252.078	-200.000	0.006	-0.104
-251.063	521.742	-0.139	0.326
-250.049	-71.236	-0.208	-0.078
-249.034	-117.896	0.238	-0.043
-248.019	60.141	0.286	0.282
-247.005	172.878	0.056	0.081
-245.990	152.759	-0.110	-0.150
-244.976	-34.233	-0.269	0.148
-243.961	11.311	-0.131	0.100
-242.946	-53.315	-0.079	-0.036
-241.932	123.227	0.106	-0.133
-240.917	30.547	0.320	0.273
-239.903	-200.000	0.022	-0.117
-238.888	-54.743	-0.244	0.110
-237.873	-147.961	0.266	0.022
-236.859	9.066	0.047	0.036
-235.844	-200.000	0.031	0.315
-234.830	-36.567	-0.242	0.130
-233.815	-14.498	-0.142	0.091
-232.800	-97.529	0.066	0.017
-231.786	566.769	0.067	0.163
-230.771	-108.803	-0.047	0.010
-229.757	-200.000	-0.009	0.076
-228.742	-147.175	0.059	0.005
-227.727	-19.595	-0.182	-0.112
-226.713	705.406	0.079	0.208
-225.698	-200.000	0.030	0.380
-224.684	221.172	-0.085	0.137
-223.669	-200.000	0.078	0.429
-222.655	-97.899	0.114	-0.029
-221.640	20.305	-0.363	-0.292
-220.625	800.000	-0.087	0.254
-219.611	265.788	0.096	0.167
-218.596	-200.000	0.043	0.385
-217.582	-200.000	-0.010	0.192
-216.567	-110.846	0.255	0.052
-215.552	800.000	0.034	0.117
-214.538	140.470	-0.150	-0.198
-213.523	228.349	0.110	-0.178
-212.509	-22.513	0.166	-0.100
-211.494	-200.000	0.005	0.103
-210.479	95.549	0.088	0.100
-209.465	-105.125	-0.088	-0.020
-208.450	-135.212	0.152	0.018
-207.436	114.248	0.021	-0.026
-206.421	143.610	-0.094	0.125
-205.406	-23.833	-0.109	-0.065
-204.392	-200.000	-0.074	0.414
-203.377	-200.000	0.007	0.066
-202.363	-35.832	-0.224	-0.121
-201.348	-68.305	0.403	0.156
-200.333	-200.000	0.021	0.101
-199.319	-58.606	-0.242	0.105
-198.304	160.280	0.306	-0.426
-197.290	-11.011	0.100	0.066
-196.275	-23.099	0.166	0.100
-195.260	800.000	-0.013	0.056
-194.246	-115.810	0.255	-0.048
-193.231	-79.813	0.319	-0.107
-192.217	-200.000	0.010	-0.088
-191.202	800.000	0.082	-0.311
-190.187	164.079	0.178	-0.250
-189.173	104.568	-0.127	-0.150
-188.158	800.000	-0.117	0.327
-187.144	-175.343	0.353	-0.010
-186.129	-102.175	-0.255	0.061
-185.114	-200.000	0.014	0.151
-184.100	-200.000	0.012	0.122
-183.085	-57.528	0.226	0.099
-182.071	-146.344	-0.242	0.021
-181.056	15.068	-0.224	0.175
-180.042	-49.508	0.109	-0.052
-179.027	-200.000	0.064	-0.320
-178.012	-200.000	0.003	0.164
-176.998	-200.000	0.009	0.125
-175.983	-78.230	-0.041	0.014
-174.969	190.118	0.145	0.216
-173.954	-142.971	0.021	-0.002
-172.939	-42.629	-0.207	0.105
-171.925	394.246	0.069	0.143
-170.910	82.746	0.240	0.260
-169.896	454.104	-0.039	0.085
-168.881	166.175	-0.157	-0.222
-167.866	565.671	-0.021	0.051
-166.852	341.580	-0.032	-0.063
-165.837	102.889	0.023	-0.027
-164.823	800.000	0.067	0.229
-163.808	-121.670	0.177	-0.029
-162.793	-58.188	-0.252	-0.109
-161.779	-118.037	0.079	-0.014
-160.764	-69.140	-0.369	0.141
-159.750	-190.007	0.088	0.001
-158.735	-151.532	0.410	-0.030
-157.720	45.795	0.096	-0.088
-156.706	800.000	-0.084	-0.359
-155.691	-6.583	0.234	-0.159
-154.677	53.323	-0.173	-0.165
-153.662	23.893	-0.023	-0.019
-152.647	25.684	-0.078	0.065
-151.633	-48.754	-0.135	0.065
-150.618	-143.560	0.159	0.015
-149.604	-27.569	0.112	0.065
-148.589	37.392	0.180	0.159
-147.574	298.136	-0.183	0.334
-146.560	695.251	0.145	0.379
-145.545	357.085	0.067	-0.134
-144.531	-144.903	-0.101	-0.009
-143.516	458.882	0.126	-0.279
-142.502	-62.570	0.208	-0.086
-141.487	408.214	-0.154	-0.325
-140.472	141.041	0.098	0.129
-139.458	-54.131	0.094	0.043
-138.443	-78.248	0.318	0.109
-137.429	-14.172	0.143	-0.092
-136.414	800.000	-0.046	-0.178
-135.399	116.053	0.171	-0.208
-134.385	-99.937	0.178	0.044
-133.370	-1.813	-0.033	0.023
-132.356	689.467	-0.110	0.287
-131.341	194.929	-0.001	0.001
-130.326	88.814	0.124	-0.137
-129.312	-200.000	0.009	-0.418
-128.297	800.000	0.107	0.390
-127.283	800.000	0.047	-0.168
-126.268	-200.000	0.001	-0.050
-125.253	800.000	-0.077	-0.298
-124.239	-37.944	0.304	0.161
-123.224	160.976	-0.085	-0.118
-122.210	-32.576	0.337	-0.187
-121.195	246.506	-0.091	-0.153
-120.180	-81.107	-0.253	0.083
-119.166	64.626	0.053	0.053
-118.151	-8.516	0.142	0.095
-117.137	-200.000	-0.003	-0.050
-116.122	-200.000	0.014	0.312
-115.107	-200.000	0.020	-0.094
-114.093	167.426	-0.088	0.125
-113.078	-148.193	0.115	0.009
-112.064	-20.463	0.087	0.053
-111.049	-121.834	-0.174	0.029
-110.034	-124.164	0.123	-0.019
-109.020	160.874	-0.027	0.038
-108.005	-22.598	-0.104	-0.063
-106.991	-67.382	-0.178	0.070
-105.976	-82.330	0.218	0.070
-104.962	-98.411	-0.084	-0.021
-103.947	-200.000	0.011	0.417
-102.932	73.212	-0.204	0.212
-101.918	183.939	-0.350	0.514
-100.903	-126.467	-0.282	0.042
-99.889	376.007	-0.095	-0.193
-98.874	800.000	0.024	0.067
-97.859	119.843	-0.146	0.179
-96.845	-78.468	-0.401	-0.137
-95.830	565.876	0.076	-0.183
-94.816	-123.752	0.185	-0.029
-93.801	-200.000	-0.039	0.228
-92.786	-150.654	-0.142	0.011
-91.772	800.000	0.108	-0.333
-90.757	206.703	0.101	-0.157
-89.743	42.567	-0.216	-0.196
-88.728	2.153	0.152	0.109
-87.713	137.841	0.062	-0.081
-86.699	-98.553	0.088	-0.022
-85.684	-67.369	-0.245	-0.096
-84.670	84.740	-0.196	-0.213
-83.655	179.744	0.133	-0.193
-82.640	253.899	0.024	-0.041
-81.626	800.000	0.098	0.316
-80.611	72.449	0.155	-0.161
-79.597	800.000	-0.061	-0.211
-78.582	-72.804	0.056	-0.021
-77.567	-50.965	-0.240	0.112
-76.553	-28.088	0.270	-0.155
-75.538	-200.000	0.020	0.391
-74.524	-71.545	0.334	-0.124
-73.509	530.939	0.132	-0.309
-72.494	254.621	-0.093	0.157
-71.480	326.939	-0.063	0.121
-70.465	314.683	-0.160	0.298
-69.451	-200.000	-0.013	0.245
-68.436	-163.158	0.067	0.003
-67.422	81.010	0.052	0.056
-66.407	-200.000	0.006	0.033
-65.392	-200.000	0.014	-0.097
-64.378	-132.957	0.158	0.020
-63.363	-200.000	0.032	0.156
-62.349	-74.469	-0.042	-0.015
-61.334	85.404	-0.883	-0.962
-60.319	272.965	0.209	0.366
-59.305	-200.000	0.009	-0.678
-58.290	758.066	0.370	0.995
-57.276	800.000	0.482	1.379
-56.261	-200.000	95.067	565.878
-55.246	641.975	1379.072	3485.303
-54.232	187.039	2594.638	3836.259
-53.217	122.657	2205.613	2736.347
-52.203	45.650	1740.377	1594.955
-51.188	38.075	1550.741	1368.277
-50.173	35.599	1523.060	1326.725
-49.159	53.723	1573.229	1498.101
-48.144	57.573	1592.191	1543.129
-47.130	38.514	1547.337	1368.128
-46.115	35.275	1531.745	1331.829
-45.100	35.069	1528.566	1327.587
-44.086	35.065	1526.681	1325.867
-43.071	35.091	1524.202	1323.840
-42.057	35.012	1523.354	1322.509
-41.042	34.954	1521.730	1320.647
-40.027	34.928	1520.615	1319.445
-39.013	35.001	1519.037	1318.528
-37.998	34.888	1518.117	1316.900
-36.984	35.009	1516.805	1316.537
-35.969	34.962	1515.323	1314.881
-34.954	34.876	1514.011	1313.099
-33.940	34.936	1512.510	1312.154
-32.925	35.082	1510.554	1311.405
-31.911	35.059	1509.156	1309.984
-30.896	35.138	1508.044	1309.503
-29.881	35.139	1506.525	1308.139
-28.867	35.071	1505.161	1306.439
-27.852	35.078	1503.791	1305.246
-26.838	35.083	1502.370	1303.995
-25.823	35.081	1500.876	1302.636
-24.809	34.956	1499.737	1300.746
-23.794	35.000	1497.988	1299.477
-22.779	35.086	1497.083	1299.222
-21.765	35.057	1496.146	1298.163
-20.750	35.006	1495.014	1296.782
-19.736	35.099	1493.375	1295.940
-18.721	35.028	1492.218	1294.405
-17.706	34.997	1491.308	1293.353
-16.692	35.039	1490.184	1292.608
-15.677	34.980	1489.354	1291.440
-14.663	35.014	1488.301	1290.706
-13.648	34.899	1487.577	1289.250
-12.633	34.962	1486.391	1288.594
-11.619	34.949	1485.369	1287.569
-10.604	34.958	1484.432	1286.768
-9.590	34.967	1483.883	1286.303
-8.575	35.032	1482.820	1285.768
-7.560	34.870	1482.444	1284.304
-6.546	34.960	1481.434	1283.979
-5.531	34.986	1480.654	1283.427
-4.517	34.978	1479.463	1282.290
-3.502	34.867	1478.801	1280.919
-2.487	35.084	1477.214	1280.950
-1.473	34.981	1476.612	1279.688
-0.458	34.873	1475.523	1277.969
0.556	37.238	1465.266	1268.258
1.571	34.135	1438.427	1224.980
2.586	29.882	1374.032	1143.814
3.600	27.596	1288.949	1059.623
4.615	25.076	1241.315	1006.245
5.629	21.189	1183.577	938.506
6.644	12.806	1098.737	829.149
7.659	6.204	1056.795	765.387
8.673	5.169	1050.578	755.805
9.688	4.770	1047.678	751.724
10.702	4.703	1046.114	750.212
11.717	4.890	1044.568	749.938
12.731	8.106	1047.671	767.607
13.746	16.070	1059.025	814.478
14.761	21.626	1065.944	846.672
15.775	22.128	1064.888	848.181
16.790	21.293	1063.318	842.828
17.804	20.236	1061.159	835.950
18.819	19.275	1059.842	830.213
19.834	18.956	1057.714	826.940
20.848	18.686	1057.384	825.309
21.863	18.752	1056.253	824.670
22.877	18.479	1055.942	823.044
23.892	18.230	1055.338	821.304
24.907	18.096	1054.352	819.824
25.921	18.222	1053.516	819.705
26.936	18.076	1053.030	818.552
27.950	18.327	1051.651	818.611
28.965	18.137	1050.808	816.973
29.980	18.214	1049.580	816.312
30.994	18.492	1048.414	816.662
32.009	18.537	1047.459	816.056
33.023	18.660	1047.011	816.222
34.038	18.429	1046.532	814.677
35.053	18.476	1045.044	813.672
36.067	18.385	1044.139	812.463
37.082	18.243	1043.559	811.264
38.096	18.371	1042.633	811.079
39.111	18.349	1042.253	810.607
40.126	18.692	1041.314	811.427
41.140	18.320	1040.085	808.643
42.155	18.169	1038.775	806.840
43.169	17.925	1038.013	805.025
44.184	17.886	1036.650	803.715
45.199	17.884	1035.374	802.647
46.213	17.919	1034.650	802.176
47.228	18.025	1034.177	802.236
48.242	18.250	1033.155	802.430
49.257	18.178	1032.849	801.784
50.271	18.303	1031.553	801.290
51.286	18.296	1030.392	800.285
52.301	18.340	1029.852	800.002
53.315	18.379	1028.928	799.394
54.330	18.214	1028.072	797.891
55.344	18.045	1027.041	796.231
56.359	18.115	1025.772	795.500
57.374	18.008	1025.258	794.534
58.388	18.042	1024.438	793.988
59.403	17.962	1023.236	792.615
60.417	17.975	1022.366	791.931
61.432	17.978	1021.821	791.454
62.447	17.962	1021.269	790.881
63.461	17.789	1020.361	789.308
64.476	17.671	1019.728	788.204
65.490	17.670	1018.733	787.358
66.505	17.702	1017.711	786.648
67.520	17.857	1016.631	786.455
68.534	17.764	1016.679	785.997
69.549	17.851	1015.664	785.543
70.563	17.709	1014.449	783.878
71.578	17.770	1013.831	783.612
72.593	17.698	1012.645	782.296
73.607	17.637	1011.856	781.341
74.622	17.544	1011.016	780.193
75.636	17.610	1009.736	779.438
76.651	17.481	1009.523	778.616
77.666	17.622	1008.896	778.709
78.680	17.767	1007.740	778.409
79.695	17.707	1007.468	777.859
80.709	17.699	1006.645	777.117
81.724	17.675	1006.687	776.972
82.739	17.954	1005.459	777.225
83.753	18.014	1004.627	776.784
84.768	18.208	1004.001	777.113
85.782	18.357	1003.393	777.249
86.797	18.561	1002.889	777.715
87.812	18.516	1002.237	776.938
88.826	18.318	1001.089	775.083
89.841	18.309	1000.131	774.233
90.855	18.329	999.154	773.499
91.870	18.365	998.735	773.268
92.884	18.580	997.847	773.481
93.899	18.476	997.105	772.370
94.914	18.402	996.636	771.604
95.928	18.509	995.878	771.431
96.943	18.530	995.262	770.980
97.957	18.403	994.226	769.539
98.972	18.396	992.847	768.373
99.987	18.422	992.292	767.992
101.001	18.441	991.308	767.246
102.016	18.378	990.765	766.475
103.030	18.332	989.816	765.470
104.045	18.430	989.099	765.281
105.060	18.443	987.868	764.324
106.074	18.343	986.628	762.848
107.089	18.244	985.844	761.736
108.103	17.969	984.772	759.618
109.118	17.815	983.653	758.001
110.133	17.870	982.694	757.439
111.147	17.798	982.018	756.532
112.162	17.769	980.998	755.552
113.176	17.775	980.493	755.120
114.191	17.930	979.444	754.933
115.206	18.090	978.855	755.121
116.220	17.994	978.296	754.196
117.235	17.992	977.006	753.127
118.249	17.929	976.313	752.248
119.264	17.926	975.416	751.476
120.279	17.822	974.584	750.312
121.293	17.812	973.820	749.616
122.308	17.795	973.048	748.878
123.322	17.717	972.181	747.802
124.337	17.502	971.430	746.219
125.352	17.566	969.769	745.153
126.366	17.666	968.666	744.679
127.381	17.623	967.988	743.905
128.395	17.581	967.285	743.115
129.410	17.784	965.963	742.917
130.424	17.642	965.564	741.929
131.439	17.790	964.695	741.838
132.454	17.893	963.987	741.676
133.468	18.037	963.312	741.717
134.483	18.129	962.050	741.075
135.497	18.062	961.598	740.372
136.512	18.066	960.941	739.818
137.527	18.054	960.324	739.228
138.541	18.052	959.558	738.561
139.556	18.056	958.981	738.072
140.570	17.994	958.161	737.104
141.585	18.136	957.430	737.089
142.600	18.363	956.736	737.471
143.614	18.335	956.159	736.840
144.629	18.443	955.582	736.791
145.643	18.533	954.698	736.432
146.658	18.321	953.859	734.812
147.673	18.216	952.921	733.573
148.687	18.102	951.859	732.202
149.702	17.977	951.243	731.126
150.716	17.897	950.136	729.873
151.731	17.946	949.183	729.282
152.746	18.039	947.872	728.609
153.760	18.010	947.674	728.267
154.775	18.156	946.674	728.059
155.789	18.262	946.231	728.104
156.804	18.189	945.826	727.416
157.819	18.248	944.898	726.888
158.833	18.396	943.796	726.603
159.848	18.430	943.413	726.390
160.862	18.554	942.869	726.431
161.877	18.435	942.660	725.703
162.892	18.166	941.486	723.595
163.906	18.089	940.172	722.196
164.921	18.037	938.962	720.984
165.935	17.996	938.189	720.153
166.950	18.084	937.300	719.778
167.964	18.204	936.443	719.563
168.979	18.060	935.658	718.291
169.994	18.143	934.177	717.437
171.008	18.166	933.309	716.803
172.023	18.181	932.655	716.300
173.037	18.170	932.454	716.037
174.052	18.419	931.566	716.335
175.067	18.608	930.407	716.167
176.081	18.283	929.613	714.137
177.096	17.967	928.989	712.277
178.110	18.060	927.781	711.676
179.125	17.946	927.459	710.893
180.140	18.031	926.752	710.642
181.154	18.197	926.170	710.820
182.169	18.212	925.426	710.248
183.183	18.348	925.021	710.439
184.198	18.502	924.392	710.531
185.213	18.588	923.393	710.059
186.227	18.545	922.895	709.433
187.242	18.539	922.713	709.208
188.256	18.440	921.947	708.144
189.271	18.641	921.415	708.505
190.286	18.746	920.348	708.053
191.300	18.543	919.570	706.558
192.315	18.098	918.479	703.822
193.329	17.983	917.433	702.488
194.344	17.919	917.048	701.866
195.359	18.119	916.638	702.312
196.373	18.211	916.338	702.397
197.388	18.333	915.902	702.501
198.402	18.537	915.270	702.791
199.417	18.590	915.096	702.815
200.432	18.796	914.682	703.278
201.446	18.897	914.230	703.282
202.461	18.841	914.562	703.245
203.475	18.994	913.690	703.136
204.490	19.001	912.826	702.439
205.504	18.918	911.338	700.895
206.519	18.666	910.764	699.363
207.534	18.608	910.302	698.709
208.548	18.570	909.208	697.652
209.563	18.688	908.425	697.470
210.577	18.679	907.752	696.856
211.592	18.575	907.369	696.078
212.607	18.802	906.900	696.575
213.621	18.950	906.596	696.882
214.636	18.847	906.068	695.999
215.650	18.836	905.073	695.125
216.665	18.881	904.500	694.808
217.680	18.837	904.393	694.485
218.694	18.996	904.138	694.872
219.709	19.125	903.288	694.676
220.723	18.966	902.843	693.632
221.738	18.895	901.956	692.601
222.753	18.841	900.875	691.494
223.767	18.866	900.395	691.164
224.782	18.933	899.867	690.967
225.796	19.149	899.146	691.222
226.811	19.114	898.586	690.590
227.826	18.946	898.039	689.432
228.840	18.963	897.047	688.679
229.855	18.744	896.334	687.194
230.869	18.873	895.632	687.109
231.884	19.015	894.672	686.880
232.899	18.943	894.068	686.068
233.913	18.872	893.559	685.333
234.928	18.732	892.692	684.050
235.942	18.710	891.848	683.256
236.957	18.638	891.295	682.487
237.972	18.699	890.638	682.163
238.986	18.747	890.015	681.818
240.001	18.819	889.234	681.443
241.015	18.774	888.803	680.875
242.030	18.839	888.125	680.553
243.045	18.916	887.662	680.443
244.059	18.953	887.139	680.130
245.074	18.884	886.294	679.149
246.088	18.941	885.702	678.860
247.103	19.109	885.502	679.308
248.117	19.226	884.553	678.984
249.132	19.319	884.314	679.104
250.147	19.382	884.131	679.150
251.161	19.566	883.571	679.384
252.176	19.688	882.722	679.154
253.190	19.843	882.258	679.346
254.205	19.810	881.817	678.816
255.220	19.969	881.011	678.758
256.234	19.808	880.438	677.624
257.249	19.837	879.716	677.122
258.263	19.795	878.721	676.135
259.278	19.817	878.656	676.109
260.293	19.860	877.938	675.665
261.307	19.770	877.532	674.943
262.322	19.869	877.252	675.053
263.336	20.006	876.563	674.997
264.351	19.922	875.823	674.042
265.366	20.045	875.017	673.838
266.380	20.060	874.720	673.610
267.395	20.027	873.538	672.510
268.409	19.856	872.858	671.265
269.424	19.952	872.296	671.143
270.439	19.747	871.432	669.626
271.453	19.790	870.808	669.256
272.468	19.660	869.932	668.020
273.482	19.672	869.427	667.620
274.497	19.666	869.237	667.390
275.512	19.711	868.154	666.672
276.526	19.749	867.320	666.123
277.541	19.897	866.542	666.033
278.555	19.602	866.531	664.833
279.570	19.930	865.674	665.378
280.585	20.010	865.388	665.403
281.599	20.143	864.619	665.266
282.614	19.970	864.157	664.188
283.628	19.743	863.666	662.881
284.643	19.670	863.134	662.134
285.657	19.836	862.617	662.313
286.672	19.834	861.912	661.708
287.687	19.748	861.840	661.263
288.701	19.982	860.842	661.335
289.716	20.030	860.065	660.863
290.730	20.003	859.908	660.579
291.745	19.991	859.226	659.953
292.760	19.790	859.086	659.021
293.774	20.088	857.937	659.212
294.789	20.113	857.578	658.975
295.803	20.204	856.958	658.786
296.818	20.024	856.037	657.337
297.833	19.914	855.550	656.489
298.847	19.930	854.690	655.830
299.862	20.087	853.997	655.835
300.876	20.028	853.482	655.157
301.891	20.167	852.772	655.080
302.906	20.175	852.149	654.572
303.920	20.346	851.526	654.681
304.935	20.365	851.584	654.741
305.949	20.486	850.431	654.251
306.964	20.483	849.983	653.837
307.979	20.303	849.136	652.450
308.993	20.334	848.759	652.220
310.008	20.351	848.482	652.015
311.022	20.426	847.803	651.715
312.037	20.441	847.151	651.212
313.052	20.291	846.892	650.395
314.066	20.200	846.159	649.432
315.081	20.094	845.219	648.259
316.095	19.947	844.804	647.333
317.110	20.048	844.318	647.280
318.125	20.187	843.549	647.153
319.139	19.987	843.355	646.200
320.154	19.970	843.036	645.835
321.168	20.159	842.317	645.931
322.183	20.108	841.807	645.291
323.197	20.197	841.521	645.346
324.212	20.283	840.832	645.083
325.227	20.195	839.999	644.058
326.241	20.285	839.623	644.048
327.256	20.293	839.125	643.640
328.270	20.202	838.341	642.643
329.285	20.198	838.129	642.410
330.300	20.232	837.100	641.690
331.314	20.125	836.722	640.948
332.329	20.240	835.617	640.470
333.343	20.427	835.620	641.103
334.358	20.306	835.393	640.425
335.373	20.373	834.912	640.247
336.387	20.466	833.984	639.825
337.402	20.444	834.089	639.766
338.416	20.649	832.909	639.557
339.431	20.696	832.894	639.663
340.446	20.943	831.949	639.787
341.460	20.979	831.415	639.452
342.475	20.803	831.321	638.675
343.489	20.834	830.611	638.188
344.504	21.105	830.060	638.700
345.519	20.984	829.948	638.114
346.533	20.998	829.514	637.775
347.548	20.930	828.801	636.924
348.562	20.956	827.986	636.336
349.577	20.683	827.276	634.738
350.592	20.655	826.384	633.894
351.606	20.662	825.732	633.365
352.621	20.510	825.821	632.824
353.635	20.635	825.145	632.704
354.650	20.637	824.412	632.095
355.665	20.733	824.150	632.186
356.679	20.666	823.994	631.767
357.694	20.852	823.618	632.097
358.708	20.820	823.167	631.580
359.723	20.721	822.695	630.802
360.738	20.923	821.451	630.523
361.752	20.853	821.285	630.089
362.767	20.782	820.806	629.409
363.781	20.883	820.847	629.749
364.796	21.069	820.389	630.013
365.810	21.233	819.942	630.205
366.825	21.284	819.582	630.055
367.840	21.368	819.340	630.119
368.854	21.479	818.710	629.976
369.869	21.272	818.063	628.679
370.883	21.268	817.581	628.238
371.898	21.215	816.929	627.491
372.913	21.245	816.503	627.218
373.927	21.409	816.094	627.436
374.942	21.304	815.359	626.438
375.956	21.238	814.913	625.802
376.971	21.248	814.195	625.234
377.986	21.442	813.784	625.557
379.000	21.574	813.241	625.556
380.015	21.520	812.507	624.741
381.029	21.426	812.449	624.305
382.044	21.579	811.542	624.100
383.059	21.561	810.875	623.468
384.073	21.721	810.028	623.330
385.088	21.455	809.627	622.020
386.102	21.347	809.000	621.101
387.117	21.436	808.515	620.990
388.132	21.326	808.119	620.240
389.146	21.156	807.574	619.165
390.161	21.328	807.358	619.553
391.175	21.431	807.106	619.669
392.190	21.538	806.933	619.862
393.205	21.434	806.221	618.891
394.219	21.476	805.293	618.273
395.234	21.416	805.216	617.946
396.248	21.232	804.848	616.959
397.263	21.182	803.857	615.969
398.278	20.974	803.566	614.959
399.292	21.109	802.885	614.857
400.307	20.940	803.200	614.448
401.321	21.194	801.999	614.370
402.336	21.172	801.749	614.047
403.350	21.141	801.684	613.835
404.365	21.393	800.848	614.026
405.380	21.465	800.585	614.022
406.394	21.596	800.168	614.107
407.409	21.668	799.749	613.984
408.423	21.683	799.648	613.904
409.438	21.833	799.077	613.937
410.453	21.812	799.025	613.767
411.467	21.941	798.221	613.548
412.482	21.989	797.946	613.448
413.496	22.028	797.128	612.904
414.511	22.013	797.193	612.845
415.526	21.964	796.762	612.290
416.540	21.962	796.446	611.987
417.555	21.823	795.926	611.046
418.569	21.991	795.423	611.191
419.584	22.014	794.843	610.771
420.599	21.926	794.718	610.318
421.613	158.422	1368.356	1788.512
422.628	137.311	1451.943	1788.632
