DTS Sentinel unit serial number:	SN413079Multiplexer serial number:	ORYXHardware model number:	OX4-SRSoftware version number:	ORYX F/W v4.00 Oryx Data Collector v3.7.2.0data status	okinstallation	princeton_trtdifferential loss correction	single-endedforward channel	channel 3reverse channel	N/Adate	2019/09/14time	20:24:35forward acquisition time	60.00reverse acquisition time	0.00gamma	496.2192k internal	0.2315k external	0.2315temperature offset calibration	1.0009default loss term (dB/km)	0.3790temperature slope calibration	1.0000multiplexer offset coefficient	1.0000multiplexer slope coefficient	1.0000fibre end	0.00T internal ref (°C)	33.62T ext. ref 1 (°C)	4.85T ext. ref 2 (°C)	28.18length (m)	temperature (°C)	Stokes	anti-Stokes-747.200	-79.014	-0.321	0.111
-746.185	476.740	-0.017	-0.040
-745.171	-123.081	0.135	-0.022
-744.156	-200.000	-0.029	0.285
-743.142	-151.096	0.189	-0.014
-742.127	21.060	-0.025	0.020
-741.112	-141.959	0.176	-0.018
-740.098	57.205	0.041	0.040
-739.083	-200.000	0.030	0.179
-738.069	800.000	0.164	0.593
-737.054	800.000	0.012	-0.038
-736.039	-200.000	-0.026	-0.316
-735.025	-93.444	0.274	0.077
-734.010	153.979	-0.131	0.181
-732.996	538.028	-0.125	-0.302
-731.981	800.000	0.019	-0.082
-730.966	177.648	-0.257	0.379
-729.952	-109.859	-0.221	-0.047
-728.937	-200.000	-0.012	-0.205
-727.923	800.000	-0.085	0.348
-726.908	113.467	-0.238	0.293
-725.894	-200.000	0.052	0.379
-724.879	-104.641	0.317	-0.074
-723.864	-200.000	-0.028	-0.244
-722.850	22.034	0.121	-0.100
-721.835	-200.000	0.033	-0.177
-720.821	-102.608	-0.110	0.027
-719.806	-27.561	-0.198	-0.117
-718.791	-135.783	-0.274	-0.033
-717.777	800.000	-0.092	-0.318
-716.762	218.633	-0.235	-0.379
-715.748	133.496	-0.279	-0.365
-714.733	256.285	0.123	-0.214
-713.718	376.474	0.036	-0.073
-712.704	388.336	-0.113	-0.236
-711.689	40.009	-0.104	-0.095
-710.675	235.720	0.124	0.207
-709.660	114.767	-0.238	-0.294
-708.645	21.481	0.102	-0.084
-707.631	-93.838	-0.366	-0.102
-706.616	51.578	0.046	0.044
-705.602	-126.235	-0.239	-0.036
-704.587	-184.675	-0.184	0.003
-703.572	216.978	0.067	0.108
-702.558	800.000	0.071	0.211
-701.543	168.093	-0.119	-0.171
-700.529	390.150	0.066	0.138
-699.514	-200.000	-0.053	0.456
-698.499	-200.000	0.001	0.020
-697.485	244.738	0.053	-0.089
-696.470	456.272	-0.129	-0.290
-695.456	118.665	0.150	-0.188
-694.441	800.000	0.045	-0.168
-693.426	800.000	0.082	0.270
-692.412	248.353	0.064	0.109
-691.397	-200.000	0.034	0.231
-690.383	-36.478	0.146	0.080
-689.368	295.939	-0.113	-0.210
-688.354	203.562	0.220	-0.344
-687.339	208.508	-0.197	0.311
-686.324	-80.548	0.093	-0.031
-685.310	68.467	-0.099	-0.102
-684.295	-200.000	0.052	-0.257
-683.281	-174.867	-0.141	-0.004
-682.266	-60.653	-0.276	0.118
-681.251	800.000	-0.090	-0.320
-680.237	-151.533	0.553	-0.041
-679.222	800.000	0.085	-0.326
-678.208	-200.000	0.087	-0.423
-677.193	-116.915	0.263	0.049
-676.178	-80.072	-0.201	-0.068
-675.164	300.890	-0.176	0.329
-674.149	60.013	-0.092	0.091
-673.135	123.677	0.137	0.174
-672.120	210.825	-0.239	-0.380
-671.105	-90.206	-0.391	0.115
-670.091	-167.608	-0.103	-0.004
-669.076	-200.000	0.000	-0.196
-668.062	342.802	0.161	-0.318
-667.047	271.859	0.075	-0.133
-666.032	-6.123	-0.325	-0.224
-665.018	44.825	0.247	0.230
-664.003	430.940	-0.037	-0.081
-662.989	-67.370	-0.037	0.015
-661.974	-84.437	0.347	-0.111
-660.959	59.985	0.007	-0.007
-659.945	-89.221	-0.231	-0.069
-658.930	-105.161	-0.230	-0.053
-657.916	800.000	-0.042	0.178
-656.901	697.594	0.097	-0.257
-655.886	36.740	-0.263	-0.235
-654.872	317.010	-0.094	0.179
-653.857	-39.836	-0.331	0.174
-652.843	-200.000	-0.020	-0.125
-651.828	-200.000	0.043	0.216
-650.814	59.054	0.113	-0.112
-649.799	-153.544	-0.179	0.012
-648.784	184.587	-0.010	-0.015
-647.770	800.000	-0.041	0.150
-646.755	-46.745	0.370	0.183
-645.741	494.989	-0.170	0.394
-644.726	-200.000	-0.005	0.348
-643.711	-132.535	-0.125	-0.016
-642.697	56.327	-0.146	0.143
-641.682	-149.551	-0.111	-0.009
-640.668	66.995	0.063	-0.065
-639.653	717.660	0.023	0.063
-638.638	-200.000	-0.018	-0.302
-637.624	-200.000	0.007	0.527
-636.609	-36.390	-0.129	0.070
-635.595	-141.639	0.332	0.034
-634.580	-66.426	-0.147	-0.059
-633.565	800.000	0.076	-0.311
-632.551	-200.000	-0.110	-0.546
-631.536	23.678	-0.317	-0.263
-630.522	-62.990	-0.245	-0.102
-629.507	38.406	-0.231	-0.208
-628.492	-101.649	0.293	-0.072
-627.478	325.368	-0.047	-0.090
-626.463	-64.982	-0.144	-0.059
-625.449	326.883	0.099	0.191
-624.434	78.454	0.174	-0.188
-623.419	800.000	0.061	-0.177
-622.405	-93.601	-0.185	0.052
-621.390	12.114	-0.079	-0.061
-620.376	112.965	-0.063	-0.077
-619.361	520.131	0.094	-0.221
-618.346	-128.923	0.182	-0.026
-617.332	-21.146	0.212	0.131
-616.317	-20.260	-0.077	-0.048
-615.303	137.112	-0.042	0.055
-614.288	-76.553	-0.305	-0.108
-613.273	-92.817	-0.118	0.033
-612.259	362.082	0.131	-0.265
-611.244	30.009	-0.185	0.159
-610.230	-24.344	-0.118	0.071
-609.215	755.803	-0.071	-0.193
-608.201	-3.755	-0.358	0.251
-607.186	-132.934	0.148	-0.019
-606.171	-10.305	-0.115	-0.077
-605.157	-114.904	-0.491	0.094
-604.142	-37.982	0.118	-0.063
-603.128	-5.141	0.322	0.223
-602.113	800.000	-0.038	0.125
-601.098	-65.717	-0.166	0.067
-600.084	298.437	-0.121	0.224
-599.069	-200.000	0.001	0.241
-598.055	800.000	0.037	0.140
-597.040	437.197	-0.092	-0.201
-596.025	-158.018	0.506	0.030
-595.011	118.087	-0.186	0.231
-593.996	-121.607	0.196	0.033
-592.982	63.600	-0.146	0.148
-591.967	23.461	0.094	0.077
-590.952	-134.944	-0.161	-0.020
-589.938	-200.000	0.011	0.053
-588.923	-88.040	0.212	0.064
-587.909	-91.872	0.087	-0.025
-586.894	186.268	-0.113	-0.170
-585.879	-200.000	-0.001	-0.161
-584.865	-200.000	-0.019	-0.147
-583.850	-17.564	0.249	-0.158
-582.836	-200.000	0.043	-0.200
-581.821	308.321	-0.065	0.122
-580.806	584.102	0.083	0.204
-579.792	800.000	0.105	0.337
-578.777	96.932	0.111	0.128
-577.763	65.430	-0.192	0.195
-576.748	32.333	0.132	0.115
-575.733	-70.470	-0.173	0.066
-574.719	43.717	0.162	0.149
-573.704	-87.139	-0.081	-0.025
-572.690	800.000	-0.037	-0.146
-571.675	-6.186	-0.063	0.043
-570.661	-200.000	-0.008	0.341
-569.646	-61.503	0.230	-0.097
-568.631	19.952	0.219	-0.178
-567.617	-200.000	0.027	-0.392
-566.602	-123.709	-0.139	0.022
-565.588	-200.000	-0.051	-0.240
-564.573	30.058	0.202	0.173
-563.558	156.331	0.146	0.203
-562.544	315.105	-0.137	-0.259
-561.529	-36.215	0.121	0.066
-560.515	581.434	-0.059	-0.146
-559.500	-19.446	-0.238	-0.148
-558.485	342.066	0.040	0.078
-557.471	800.000	-0.037	-0.118
-556.456	185.133	-0.135	-0.201
-555.442	-64.980	-0.142	-0.058
-554.427	-200.000	-0.025	0.184
-553.412	-100.084	-0.203	0.051
-552.398	-200.000	0.016	-0.139
-551.383	-93.945	-0.129	0.036
-550.369	158.635	0.219	0.306
-549.354	-197.269	0.187	-0.001
-548.339	-65.837	0.391	0.157
-547.325	-35.120	-0.120	-0.066
-546.310	602.098	-0.015	0.038
-545.296	-56.986	0.088	-0.039
-544.281	402.608	0.075	0.158
-543.266	-117.969	-0.289	-0.052
-542.252	-158.434	0.249	-0.015
-541.237	-43.012	-0.234	-0.119
-540.223	-200.000	-0.032	0.370
-539.208	-35.965	-0.116	-0.063
-538.193	-114.445	0.132	0.025
-537.179	-200.000	-0.053	0.337
-536.164	340.750	-0.207	-0.405
-535.150	800.000	0.140	0.451
-534.135	117.509	-0.144	-0.178
-533.121	-173.883	0.315	0.009
-532.106	33.040	0.189	-0.164
-531.091	-200.000	-0.035	0.165
-530.077	800.000	0.074	0.314
-529.062	261.852	-0.186	0.324
-528.048	-59.362	-0.222	0.096
-527.033	-97.554	0.143	0.037
-526.018	149.246	-0.107	-0.146
-525.004	98.031	-0.176	0.203
-523.989	-200.000	0.049	-0.361
-522.975	246.917	0.200	0.339
-521.960	-47.970	-0.081	-0.039
-520.945	-200.000	0.082	-0.536
-519.931	-20.912	0.135	0.083
-518.916	-48.458	0.352	-0.170
-517.902	47.542	0.060	0.056
-516.887	-136.754	0.063	0.007
-515.872	-97.048	-0.480	-0.126
-514.858	104.345	0.156	0.184
-513.843	-105.049	0.255	-0.059
-512.829	-81.441	0.040	0.013
-511.814	70.510	0.039	-0.040
-510.799	-200.000	-0.015	-0.122
-509.785	-114.309	0.126	-0.024
-508.770	-41.292	-0.213	-0.110
-507.756	28.349	0.083	0.070
-506.741	-111.654	0.047	0.009
-505.726	77.756	-0.192	-0.205
-504.712	-58.066	0.063	-0.028
-503.697	-107.273	-0.221	-0.049
-502.683	-103.581	-0.197	0.046
-501.668	-53.023	-0.231	-0.106
-500.653	-200.000	-0.062	-0.288
-499.639	800.000	0.073	0.229
-498.624	584.068	-0.009	-0.022
-497.610	676.046	-0.079	0.206
-496.595	15.064	0.245	-0.193
-495.581	-49.209	-0.304	0.146
-494.566	10.726	-0.075	-0.058
-493.551	146.895	-0.006	0.009
-492.537	800.000	-0.035	-0.101
-491.522	-41.447	-0.411	-0.212
-490.508	-200.000	0.007	0.059
-489.493	71.299	-0.250	-0.260
-488.478	-39.446	0.140	0.074
-487.464	577.885	-0.072	0.177
-486.449	85.325	0.025	-0.027
-485.435	242.613	0.148	0.249
-484.420	244.254	-0.097	0.163
-483.405	25.069	-0.178	-0.148
-482.391	159.016	-0.260	-0.363
-481.376	152.079	0.086	-0.117
-480.362	-173.274	-0.122	-0.004
-479.347	-47.238	0.105	-0.051
-478.332	170.887	-0.132	-0.189
-477.318	11.742	0.393	0.303
-476.303	800.000	0.027	-0.098
-475.289	-93.595	0.264	-0.073
-474.274	460.422	-0.047	0.105
-473.259	15.475	-0.457	0.360
-472.245	800.000	-0.090	-0.290
-471.230	7.800	0.172	0.129
-470.216	167.648	-0.227	-0.324
-469.201	163.346	0.250	0.352
-468.186	539.520	-0.102	-0.242
-467.172	-72.379	0.258	-0.096
-466.157	-142.907	-0.069	-0.007
-465.143	-18.286	0.270	0.169
-464.128	240.731	-0.136	0.227
-463.113	-200.000	-0.031	0.318
-462.099	92.856	-0.129	0.145
-461.084	323.687	0.168	-0.322
-460.070	31.972	-0.113	0.098
-459.055	61.902	-0.116	-0.116
-458.040	800.000	-0.084	0.274
-457.026	10.741	0.125	-0.095
-456.011	-101.413	0.209	-0.051
-454.997	8.101	-0.153	-0.115
-453.982	-142.008	-0.046	-0.005
-452.968	193.694	0.127	-0.193
-451.953	-89.493	-0.368	0.108
-450.938	34.027	-0.097	0.084
-449.924	800.000	0.031	-0.111
-448.909	14.459	-0.063	-0.050
-447.895	-61.924	0.130	0.054
-446.880	-140.255	-0.078	-0.008
-445.865	-200.000	0.013	0.300
-444.851	-106.938	0.226	0.050
-443.836	-200.000	-0.043	-0.404
-442.822	-51.347	-0.306	-0.144
-441.807	-106.512	0.258	0.058
-440.792	65.296	-0.329	0.333
-439.778	81.825	0.197	0.214
-438.763	-200.000	0.021	-0.175
-437.749	292.002	-0.164	-0.300
-436.734	230.235	0.078	-0.128
-435.719	716.256	0.068	-0.181
-434.705	55.672	-0.039	0.038
-433.690	362.688	-0.065	-0.131
-432.676	-133.294	0.090	-0.011
-431.661	-200.000	0.011	0.139
-430.646	-147.199	0.167	0.014
-429.632	-132.055	0.170	0.022
-428.617	242.355	-0.166	-0.278
-427.603	-200.000	-0.056	-0.342
-426.588	-200.000	0.017	-0.412
-425.573	-38.831	0.183	0.097
-424.559	-135.182	-0.322	-0.039
-423.544	800.000	0.035	0.128
-422.530	26.162	0.123	0.103
-421.515	-200.000	0.009	-0.167
-420.500	432.864	-0.060	-0.130
-419.486	492.275	0.199	-0.457
-418.471	-102.147	0.094	0.023
-417.457	-200.000	-0.008	0.343
-416.442	-131.138	0.279	0.037
-415.428	-136.439	-0.384	0.045
-414.413	193.300	0.076	-0.115
-413.398	329.741	0.118	0.228
-412.384	-20.277	0.174	0.107
-411.369	-200.000	0.045	0.330
-410.355	-200.000	0.448	-0.001
-409.340	36.055	-0.268	0.236
-408.325	-41.888	0.049	0.025
-407.311	506.991	-0.047	0.109
-406.296	-152.316	0.319	-0.023
-405.282	307.011	-0.109	0.203
-404.267	-40.315	-0.101	0.052
-403.252	398.032	0.116	-0.243
-402.238	-0.542	0.370	-0.262
-401.223	-85.941	-0.290	-0.090
-400.209	-200.000	-0.059	0.319
-399.194	-134.033	-0.240	-0.030
-398.179	359.198	-0.122	-0.244
-397.165	-91.337	0.226	0.065
-396.150	-134.468	-0.500	-0.061
-395.136	-87.474	-0.062	-0.019
-394.121	6.098	0.173	0.128
-393.106	-200.000	0.081	0.397
-392.092	45.786	0.195	0.180
-391.077	-115.572	0.259	-0.049
-390.063	34.069	0.196	-0.171
-389.048	-200.000	-0.003	-0.597
-388.033	-200.000	-0.009	-0.054
-387.019	-181.966	0.392	-0.007
-386.004	-200.000	0.032	-0.159
-384.990	23.110	-0.177	-0.145
-383.975	403.528	0.065	-0.137
-382.960	-124.750	-0.065	0.010
-381.946	-166.737	0.148	0.006
-380.931	-19.258	-0.123	-0.076
-379.917	-200.000	-0.050	0.269
-378.902	-200.000	0.008	-0.087
-377.888	800.000	0.067	-0.218
-376.873	-108.156	0.166	-0.036
-375.858	48.230	0.233	0.217
-374.844	426.252	0.152	0.328
-373.829	800.000	0.057	-0.179
-372.815	642.437	0.078	0.199
-371.800	141.784	-0.029	0.039
-370.785	254.566	-0.021	0.035
-369.771	105.882	0.258	0.305
-368.756	-38.831	-0.212	-0.112
-367.742	351.476	0.049	0.097
-366.727	432.473	0.114	0.246
-365.712	321.412	0.198	-0.376
-364.698	270.957	-0.143	-0.251
-363.683	-64.527	0.147	0.060
-362.669	29.234	0.244	-0.207
-361.654	283.125	-0.113	-0.202
-360.639	-80.169	0.100	-0.033
-359.625	-0.569	-0.236	0.167
-358.610	192.897	-0.060	-0.090
-357.596	-200.000	0.009	0.068
-356.581	-103.157	0.235	-0.055
-355.566	800.000	-0.135	-0.382
-354.552	-53.825	-0.076	0.035
-353.537	94.783	0.250	-0.283
-352.523	153.305	0.015	-0.020
-351.508	607.472	-0.057	-0.143
-350.493	-144.923	0.256	0.023
-349.479	549.243	0.111	0.266
-348.464	58.991	0.160	-0.157
-347.450	800.000	0.043	-0.164
-346.435	-132.827	0.243	-0.031
-345.420	64.257	-0.173	0.174
-344.406	-64.419	-0.076	-0.031
-343.391	-73.891	-0.312	-0.113
-342.377	230.069	0.042	0.068
-341.362	80.356	-0.187	0.201
-340.348	33.936	-0.183	-0.159
-339.333	93.799	0.216	-0.245
-338.318	-200.000	-0.001	0.063
-337.304	-8.508	0.067	0.045
-336.289	-92.239	0.353	-0.099
-335.275	-147.001	0.151	0.013
-334.260	112.295	-0.115	0.139
-333.245	800.000	-0.095	-0.360
-332.231	-36.366	0.205	-0.110
-331.216	435.873	-0.131	-0.284
-330.202	-105.624	-0.275	-0.062
-329.187	-8.605	0.120	0.080
-328.172	178.770	-0.115	0.167
-327.158	223.128	-0.080	0.128
-326.143	800.000	0.040	0.114
-325.129	-200.000	-0.050	0.330
-324.114	404.327	0.082	-0.171
-323.099	504.672	-0.037	-0.084
-322.085	173.781	0.124	-0.179
-321.070	66.844	0.091	-0.092
-320.056	-86.998	-0.066	-0.020
-319.041	-111.432	-0.179	-0.036
-318.026	-101.284	0.430	0.105
-317.012	334.642	-0.028	0.053
-315.997	-117.860	0.193	0.035
-314.983	214.413	0.189	-0.298
-313.968	34.104	-0.205	0.178
-312.953	238.065	-0.123	0.204
-311.939	769.756	0.045	0.122
-310.924	-32.043	-0.197	-0.110
-309.910	17.992	0.311	0.247
-308.895	-84.605	-0.196	-0.062
-307.880	17.890	0.115	0.091
-306.866	52.386	0.209	0.199
-305.851	115.453	-0.243	0.296
-304.837	-139.316	0.111	-0.012
-303.822	-200.000	0.007	0.096
-302.807	-96.902	0.413	0.108
-301.793	9.923	-0.144	0.109
-300.778	196.798	0.126	0.192
-299.764	-138.676	-0.112	-0.012
-298.749	-6.985	-0.151	-0.102
-297.735	192.753	0.088	-0.133
-296.720	800.000	-0.038	0.115
-295.705	-43.178	0.276	0.139
-294.691	800.000	-0.039	-0.132
-293.676	305.482	0.085	0.157
-292.662	-154.069	-0.136	-0.009
-291.647	506.709	-0.108	0.249
-290.632	-200.000	-0.026	0.446
-289.618	156.793	0.085	0.117
-288.603	-65.197	-0.262	-0.105
-287.589	-40.734	0.156	-0.080
-286.574	-114.417	-0.044	-0.008
-285.559	-115.666	-0.185	0.035
-284.545	800.000	-0.059	-0.257
-283.530	4.087	-0.269	0.196
-282.516	665.035	0.032	-0.083
-281.501	-47.362	-0.178	-0.086
-280.486	-5.999	0.052	0.036
-279.472	-200.000	0.032	0.185
-278.457	-47.918	-0.190	-0.092
-277.443	12.022	-0.050	0.038
-276.428	-22.579	0.267	0.161
-275.413	83.047	0.142	0.154
-274.399	720.884	0.081	0.214
-273.384	-74.781	0.163	-0.058
-272.370	-200.000	0.087	0.544
-271.355	-66.879	-0.094	-0.037
-270.340	-187.679	-0.183	0.002
-269.326	800.000	-0.055	-0.215
-268.311	-21.578	-0.253	-0.153
-267.297	-200.000	0.022	-0.147
-266.282	-123.314	-0.240	-0.038
-265.267	-137.862	0.132	-0.015
-264.253	-134.219	0.250	-0.031
-263.238	-200.000	0.004	0.147
-262.224	-200.000	-0.025	-0.172
-261.209	-200.000	-0.040	0.289
-260.195	800.000	-0.060	-0.204
-259.180	-147.173	0.156	0.013
-258.165	102.542	0.190	-0.221
-257.151	-106.459	0.122	-0.027
-256.136	-137.627	-0.228	0.026
-255.122	-200.000	-0.031	0.173
-254.107	21.349	-0.077	-0.062
-253.092	-108.168	0.299	-0.064
-252.078	14.980	0.182	0.142
-251.063	542.305	-0.079	-0.187
-250.049	-200.000	0.049	-0.218
-249.034	-200.000	-0.018	-0.174
-248.019	-43.132	0.101	-0.051
-247.005	-9.741	0.270	-0.179
-245.990	-200.000	0.012	0.065
-244.976	207.194	0.114	0.177
-243.961	288.767	0.016	-0.028
-242.946	-119.798	0.278	-0.048
-241.932	800.000	0.050	0.147
-240.917	15.256	-0.040	-0.031
-239.903	739.176	-0.158	-0.420
-238.888	800.000	-0.037	-0.137
-237.873	-200.000	-0.014	0.410
-236.859	-82.438	-0.272	-0.088
-235.844	-39.801	0.136	-0.071
-234.830	10.188	0.188	-0.142
-233.815	63.956	-0.213	0.212
-232.800	336.466	0.094	0.181
-231.786	-67.548	-0.236	0.092
-230.771	-30.691	0.104	0.058
-229.757	-107.534	-0.152	0.033
-228.742	158.425	-0.158	-0.218
-227.727	207.931	-0.099	0.153
-226.713	-141.899	-0.320	-0.032
-225.698	800.000	-0.114	-0.353
-224.684	800.000	-0.066	-0.231
-223.669	37.893	-0.043	-0.038
-222.655	-30.726	0.326	0.183
-221.640	25.002	0.079	-0.065
-220.625	-200.000	-0.044	0.283
-219.611	-150.408	0.156	0.012
-218.596	-200.000	-0.056	-0.262
-217.582	800.000	-0.035	-0.131
-216.567	420.813	0.092	-0.195
-215.552	343.298	0.037	-0.072
-214.538	485.299	-0.033	-0.074
-213.523	-100.600	0.186	-0.046
-212.509	-200.000	-0.049	0.245
-211.494	800.000	-0.079	-0.258
-210.479	-20.606	-0.262	-0.160
-209.465	147.570	0.072	-0.097
-208.450	800.000	0.031	0.101
-207.436	-149.531	-0.242	0.019
-206.421	-155.069	0.386	0.025
-205.406	800.000	0.074	-0.255
-204.392	-60.892	-0.114	0.048
-203.377	-178.044	0.182	-0.004
-202.363	800.000	0.129	-0.362
-201.348	56.708	-0.164	0.158
-200.333	34.992	0.175	-0.152
-199.319	-48.086	-0.141	-0.068
-198.304	-185.505	-0.393	0.006
-197.290	800.000	-0.038	0.109
-196.275	66.136	-0.271	0.272
-195.260	245.857	-0.188	0.314
-194.246	-54.346	-0.194	-0.087
-193.231	-128.155	0.262	0.037
-192.217	389.237	0.145	-0.297
-191.202	-159.953	-0.380	-0.021
-190.187	586.680	-0.213	0.519
-189.173	368.579	0.129	0.259
-188.158	-31.902	-0.363	-0.202
-187.144	126.031	-0.186	0.233
-186.129	-43.917	0.165	-0.082
-185.114	7.962	-0.275	0.205
-184.100	-12.323	0.088	-0.057
-183.085	-85.517	-0.095	-0.029
-182.071	-178.043	-0.252	0.006
-181.056	-72.193	0.376	0.138
-180.042	-4.867	0.174	-0.119
-179.027	182.470	0.142	-0.208
-178.012	-13.610	-0.022	0.014
-176.998	-66.299	0.379	0.150
-175.983	-200.000	-0.015	0.203
-174.969	-42.159	0.443	-0.224
-173.954	121.624	-0.220	-0.272
-172.939	271.843	0.020	0.036
-171.925	134.543	-0.132	0.169
-170.910	106.000	0.054	0.064
-169.896	-8.915	-0.202	0.134
-168.881	-200.000	0.007	0.138
-167.866	82.995	0.147	0.158
-166.852	-146.706	-0.140	-0.012
-165.837	206.022	0.184	0.284
-164.823	349.298	-0.152	-0.297
-163.808	83.237	-0.195	-0.211
-162.793	-70.321	-0.172	-0.065
-161.779	206.801	-0.040	-0.062
-160.764	-200.000	0.024	-0.301
-159.750	800.000	0.011	-0.046
-158.735	800.000	-0.141	0.395
-157.720	-153.582	-0.085	0.006
-156.706	-200.000	0.050	-0.246
-155.691	800.000	-0.090	0.378
-154.677	115.400	-0.067	0.081
-153.662	171.533	0.107	0.152
-152.647	765.717	0.070	0.189
-151.633	800.000	0.042	-0.170
-150.618	13.024	-0.193	0.148
-149.604	-168.221	0.275	0.011
-148.589	-85.045	-0.101	-0.031
-147.574	-147.613	0.102	0.008
-146.560	800.000	0.073	0.250
-145.545	59.210	-0.290	0.283
-144.531	800.000	-0.067	0.235
-143.516	-200.000	0.027	-0.168
-142.502	-200.000	0.012	-0.099
-141.487	113.321	-0.195	0.234
-140.472	140.178	-0.183	-0.239
-139.458	-78.380	-0.240	0.081
-138.443	799.676	0.085	-0.233
-137.429	-52.339	0.160	-0.073
-136.414	-200.000	0.001	0.137
-135.399	-200.000	-0.022	0.276
-134.385	-200.000	-0.069	0.386
-133.370	-200.000	0.016	0.111
-132.356	24.641	0.039	0.032
-131.341	-15.961	0.283	0.178
-130.326	-150.358	-0.154	-0.012
-129.312	647.741	0.097	0.244
-128.297	-200.000	-0.012	-0.340
-127.283	96.948	-0.133	0.151
-126.268	-99.817	-0.216	-0.054
-125.253	-179.588	0.469	-0.010
-124.239	-7.023	-0.269	0.181
-123.224	800.000	0.088	0.305
-122.210	-99.542	0.166	0.041
-121.195	-200.000	-0.032	-0.212
-120.180	50.571	-0.182	0.170
-119.166	413.559	0.152	-0.320
-118.151	800.000	0.047	-0.163
-117.137	-200.000	0.051	0.235
-116.122	38.783	-0.056	-0.049
-115.107	-200.000	-0.020	0.100
-114.093	78.976	0.097	0.103
-113.078	-200.000	-0.024	-0.183
-112.064	-200.000	0.038	-0.252
-111.049	-6.411	0.139	0.094
-110.034	-200.000	-0.027	0.315
-109.020	458.592	0.153	0.337
-108.005	-122.099	0.235	0.038
-106.991	800.000	0.054	-0.219
-105.976	-200.000	0.019	0.284
-104.962	332.334	0.038	0.072
-103.947	-49.992	-0.127	0.060
-102.932	-33.694	-0.254	0.138
-101.918	-200.000	0.056	0.392
-100.903	-123.836	0.305	0.048
-99.889	-60.361	0.147	0.062
-98.874	800.000	-0.058	-0.187
-97.859	800.000	0.007	0.023
-96.845	-14.392	0.203	0.129
-95.830	800.000	-0.094	-0.257
-94.816	800.000	-0.044	-0.122
-93.801	-162.963	0.261	0.012
-92.786	-52.357	-0.200	0.091
-91.772	612.467	0.088	-0.216
-90.757	800.000	-0.086	0.244
-89.743	-200.000	0.038	-0.198
-88.728	800.000	0.041	-0.162
-87.713	435.713	0.073	0.157
-86.699	-155.037	-0.215	-0.014
-85.684	108.082	0.066	0.078
-84.670	800.000	0.038	0.104
-83.655	-145.493	-0.188	0.017
-82.640	651.642	-0.027	-0.068
-81.626	-200.000	-0.005	0.134
-80.611	-26.973	-0.278	0.160
-79.597	199.367	-0.214	0.324
-78.582	112.410	-0.230	0.275
-77.567	-2.003	0.290	-0.201
-76.553	-87.624	0.505	-0.151
-75.538	-200.000	-0.004	-0.079
-74.524	800.000	-0.081	-0.228
-73.509	610.885	-0.033	-0.082
-72.494	-200.000	0.027	-0.473
-71.480	-59.057	0.455	0.194
-70.465	683.837	0.062	0.159
-69.451	-11.255	0.313	0.204
-68.436	-200.000	-0.028	0.225
-67.422	628.947	0.077	-0.192
-66.407	-200.000	-0.009	-0.102
-65.392	127.183	0.278	-0.348
-64.378	-12.313	0.092	-0.059
-63.363	-153.330	0.201	-0.014
-62.349	46.826	0.232	0.213
-61.334	42.255	-0.873	-0.782
-60.319	45.414	0.436	0.397
-59.305	800.000	-0.286	-1.146
-58.290	121.479	0.605	0.744
-57.276	268.677	0.764	1.322
-56.261	-200.000	96.067	567.894
-55.246	620.898	1387.721	3442.778
-54.232	193.545	2572.166	3838.526
-53.217	117.866	2173.773	2640.518
-52.203	43.851	1713.669	1547.750
-51.188	36.826	1525.878	1330.060
-50.173	34.478	1499.170	1290.852
-49.159	53.393	1547.642	1463.048
-48.144	55.700	1565.866	1496.080
-47.130	36.941	1525.271	1330.104
-46.115	33.923	1509.648	1295.891
-45.100	33.699	1506.946	1291.991
-44.086	33.667	1504.662	1289.768
-43.071	33.710	1502.460	1288.114
-42.057	33.649	1500.785	1286.219
-41.042	33.603	1499.804	1285.014
-40.027	33.684	1497.950	1283.920
-39.013	33.635	1497.102	1282.816
-37.998	33.640	1495.862	1281.730
-36.984	33.609	1494.912	1280.656
-35.969	33.600	1493.380	1279.233
-34.954	33.621	1492.087	1278.219
-33.940	33.650	1490.312	1276.839
-32.925	33.601	1488.930	1275.280
-31.911	33.746	1487.690	1275.141
-30.896	33.738	1486.089	1273.661
-29.881	33.636	1485.207	1272.171
-28.867	33.784	1483.196	1271.393
-27.852	33.663	1481.987	1269.491
-26.838	33.692	1481.301	1269.052
-25.823	33.616	1479.844	1267.246
-24.809	33.691	1477.810	1265.954
-23.794	33.633	1476.103	1264.050
-22.779	33.565	1475.187	1262.767
-21.765	33.641	1473.686	1261.939
-20.750	33.725	1472.560	1261.482
-19.736	33.629	1471.690	1260.046
-18.721	33.680	1470.398	1259.230
-17.706	33.577	1469.336	1257.589
-16.692	33.574	1468.694	1256.969
-15.677	33.639	1467.705	1256.501
-14.663	33.538	1466.946	1255.134
-13.648	33.584	1465.935	1254.520
-12.633	33.521	1465.135	1253.370
-11.619	33.566	1464.001	1252.647
-10.604	33.600	1463.287	1252.211
-9.590	33.585	1462.232	1251.161
-8.575	33.536	1461.543	1250.199
-7.560	33.663	1460.701	1250.264
-6.546	33.641	1459.577	1249.111
-5.531	33.678	1458.588	1248.460
-4.517	33.637	1457.755	1247.428
-3.502	33.554	1456.896	1246.098
-2.487	33.523	1455.750	1244.861
-1.473	33.584	1454.680	1244.297
-0.458	33.574	1453.343	1243.039
0.556	32.940	1443.970	1231.602
1.571	29.899	1417.531	1189.439
2.586	26.205	1356.442	1115.313
3.600	24.216	1274.883	1036.606
4.615	22.795	1228.765	991.044
5.629	19.550	1172.976	928.542
6.644	11.717	1089.618	823.194
7.659	5.605	1049.215	762.900
8.673	4.919	1043.527	755.370
9.688	4.846	1041.243	753.300
10.702	4.822	1039.403	751.784
11.717	4.824	1037.370	750.256
12.731	6.915	1039.613	761.903
13.746	14.153	1049.202	803.958
14.761	19.182	1055.859	833.383
15.775	19.260	1054.194	832.374
16.790	18.103	1052.375	825.283
17.804	17.028	1049.896	818.086
18.819	16.134	1047.963	812.204
19.834	15.728	1046.597	809.118
20.848	15.449	1045.632	806.960
21.863	15.206	1045.264	805.436
22.877	14.967	1044.261	803.443
23.892	14.801	1043.222	801.776
24.907	14.827	1042.495	801.273
25.921	14.630	1042.194	800.028
26.936	14.713	1041.318	799.679
27.950	14.799	1040.090	799.076
28.965	14.781	1039.258	798.284
29.980	14.935	1037.730	797.775
30.994	14.961	1036.710	797.040
32.009	15.143	1035.970	797.269
33.023	15.092	1035.210	796.371
34.038	15.055	1034.666	795.705
35.053	15.014	1033.709	794.705
36.067	14.982	1032.569	793.605
37.082	14.931	1031.667	792.601
38.096	14.996	1030.917	792.265
39.111	14.986	1030.573	791.881
40.126	15.014	1029.397	791.039
41.140	14.927	1028.383	789.782
42.155	14.751	1027.670	788.334
43.169	14.597	1026.393	786.554
44.184	14.596	1025.385	785.711
45.199	14.609	1024.003	784.641
46.213	14.590	1023.387	784.014
47.228	14.692	1022.155	783.476
48.242	14.758	1021.390	783.132
49.257	14.949	1020.016	782.903
50.271	14.858	1019.333	781.884
51.286	14.850	1018.388	781.050
52.301	14.862	1017.863	780.634
53.315	14.949	1016.901	780.237
54.330	14.787	1016.359	778.995
55.344	14.744	1015.340	777.944
56.359	14.750	1014.232	777.055
57.374	14.766	1013.242	776.301
58.388	14.778	1012.422	775.662
59.403	14.683	1012.070	774.884
60.417	14.594	1010.768	773.403
61.432	14.729	1009.943	773.330
62.447	14.676	1009.215	772.458
63.461	14.498	1008.737	771.202
64.476	14.565	1007.749	770.686
65.490	14.535	1006.661	769.646
66.505	14.491	1006.492	769.250
67.520	14.458	1005.609	768.351
68.534	14.627	1004.375	768.121
69.549	14.583	1004.249	767.755
70.563	14.506	1003.346	766.639
71.578	14.542	1002.659	766.214
72.593	14.480	1001.207	764.750
73.607	14.400	1000.394	763.697
74.622	14.377	999.648	762.954
75.636	14.444	998.711	762.479
76.651	14.438	998.115	761.929
77.666	14.485	997.583	761.670
78.680	14.475	996.876	761.018
79.695	14.319	996.441	759.907
80.709	14.496	995.731	760.102
81.724	14.549	994.950	759.679
82.739	14.731	993.672	759.468
83.753	14.557	993.497	758.474
84.768	14.787	992.670	758.822
85.782	14.917	992.163	758.955
86.797	14.967	991.599	758.685
87.812	15.058	990.674	758.319
88.826	14.797	990.055	756.597
89.841	14.933	988.573	756.012
90.855	14.899	988.026	755.375
91.870	14.970	987.426	755.172
92.884	14.989	986.651	754.594
93.899	14.994	985.958	754.023
94.914	14.845	985.317	752.794
95.928	15.138	984.254	753.232
96.943	14.977	984.025	752.267
97.957	15.064	982.775	751.634
98.972	14.823	982.378	750.184
99.987	14.938	981.656	750.083
101.001	14.908	980.665	749.125
102.016	15.038	979.897	749.053
103.030	14.909	978.954	747.687
104.045	14.982	978.165	747.348
105.060	14.932	977.396	746.468
106.074	14.888	975.967	745.116
107.089	14.874	975.328	744.498
108.103	14.668	974.337	742.762
109.118	14.671	973.180	741.827
110.133	14.591	972.936	741.221
111.147	14.545	972.129	740.336
112.162	14.577	970.973	739.533
113.176	14.569	970.486	739.058
114.191	14.669	969.583	738.750
115.206	14.718	968.755	738.272
116.220	14.722	967.931	737.592
117.235	14.729	966.879	736.760
118.249	14.716	966.408	736.275
119.264	14.673	965.221	735.118
120.279	14.700	964.507	734.628
121.293	14.563	963.959	733.543
122.308	14.696	963.021	733.350
123.322	14.554	962.052	731.923
124.337	14.572	961.143	731.246
125.352	14.609	959.450	730.053
126.366	14.551	958.734	729.191
127.381	14.528	957.745	728.275
128.395	14.562	956.778	727.624
129.410	14.635	955.593	726.974
130.424	14.560	955.062	726.179
131.439	14.677	953.877	725.722
132.454	14.649	953.571	725.304
133.468	14.682	952.783	724.784
134.483	14.708	952.391	724.536
135.497	14.862	951.364	724.358
136.512	14.835	950.535	723.544
137.527	14.821	950.218	723.178
138.541	14.787	949.492	722.416
139.556	14.788	949.026	722.004
140.570	14.804	948.243	721.410
141.585	14.824	947.038	720.518
142.600	14.946	946.362	720.463
143.614	15.003	945.794	720.214
144.629	15.044	945.053	719.763
145.643	15.070	944.037	719.034
146.658	15.098	943.676	718.817
147.673	15.019	942.502	717.523
148.687	14.802	941.970	716.120
149.702	14.756	940.888	715.039
150.716	14.753	939.970	714.267
151.731	14.795	939.143	713.755
152.746	14.946	938.411	713.778
153.760	14.841	937.864	712.851
154.775	14.793	937.313	712.167
155.789	14.918	936.473	711.998
156.804	14.989	935.790	711.718
157.819	15.005	935.040	711.151
158.833	14.843	934.736	710.169
159.848	14.937	933.944	709.903
160.862	15.119	933.094	709.967
161.877	15.225	932.297	709.745
162.892	14.988	931.478	708.055
163.906	14.869	930.441	706.701
164.921	14.929	929.714	706.342
165.935	14.902	928.929	705.570
166.950	14.718	928.269	704.230
167.964	14.842	927.263	703.923
168.979	15.044	925.869	703.654
169.994	14.927	925.390	702.736
171.008	14.813	924.381	701.429
172.023	15.011	923.341	701.409
173.037	15.055	922.773	701.100
174.052	15.194	921.897	700.951
175.067	15.200	921.386	700.527
176.081	15.008	920.648	699.103
177.096	14.913	919.917	698.088
178.110	14.847	919.078	697.116
179.125	14.871	918.473	696.693
180.140	14.902	918.098	696.478
181.154	14.867	917.284	695.652
182.169	15.054	916.566	695.825
183.183	15.143	915.719	695.489
184.198	15.250	914.929	695.273
185.213	15.201	914.309	694.537
186.227	15.206	914.051	694.299
187.242	15.091	913.943	693.680
188.256	15.326	912.602	693.570
189.271	15.389	911.733	693.110
190.286	15.364	911.046	692.425
191.300	15.407	910.270	691.951
192.315	14.981	909.558	689.591
193.329	14.913	908.841	688.706
194.344	14.937	908.324	688.354
195.359	15.007	907.772	688.160
196.373	15.115	906.946	687.919
197.388	15.186	906.885	688.104
198.402	15.342	906.366	688.288
199.417	15.348	906.054	688.017
200.432	15.500	905.023	687.796
201.446	15.669	904.609	688.110
202.461	15.525	904.878	687.665
203.475	15.603	903.960	687.224
204.490	15.585	903.519	686.757
205.504	15.547	902.097	685.461
206.519	15.416	901.576	684.469
207.534	15.509	900.775	684.179
208.548	15.439	899.742	683.050
209.563	15.424	899.028	682.385
210.577	15.444	898.661	682.129
211.592	15.551	897.950	681.963
212.607	15.627	897.693	682.014
213.621	15.655	897.198	681.692
214.636	15.572	896.381	680.674
215.650	15.621	895.853	680.410
216.665	15.687	895.000	679.971
217.680	15.617	895.003	679.628
218.694	15.736	894.270	679.493
219.709	15.691	893.848	678.933
220.723	15.832	892.795	678.639
221.738	15.842	892.183	678.153
222.753	15.619	891.915	676.993
223.767	15.656	890.941	676.341
224.782	15.799	889.808	675.996
225.796	15.719	889.705	675.539
226.811	15.842	888.946	675.397
227.826	15.810	888.335	674.741
228.840	15.706	887.710	673.790
229.855	15.786	886.541	673.166
230.869	15.755	886.180	672.707
231.884	15.705	885.355	671.822
232.899	15.662	884.929	671.267
233.913	15.718	884.198	670.878
234.928	15.723	883.630	670.408
235.942	15.691	882.609	669.447
236.957	15.690	881.624	668.636
237.972	15.772	881.330	668.678
238.986	15.767	880.623	668.063
240.001	15.811	880.052	667.747
241.015	15.588	879.942	666.719
242.030	15.727	878.814	666.355
243.045	15.734	878.568	666.139
244.059	15.815	878.159	666.090
245.074	15.939	877.102	665.721
246.088	15.841	876.471	664.794
247.103	16.019	875.778	664.911
248.117	15.866	875.804	664.267
249.132	16.010	875.200	664.320
250.147	16.204	874.563	664.541
251.161	16.264	873.899	664.215
252.176	16.282	873.538	663.953
253.190	16.410	872.682	663.748
254.205	16.349	872.149	663.043
255.220	16.358	871.971	662.883
256.234	16.451	870.515	662.083
257.249	16.477	869.958	661.703
258.263	16.371	869.821	661.126
259.278	16.390	869.546	660.930
260.293	16.425	868.381	660.124
261.307	16.435	868.129	659.911
262.322	16.475	867.763	659.734
263.336	16.558	867.124	659.514
264.351	16.693	866.443	659.463
265.366	16.632	865.584	658.511
266.380	16.673	865.135	658.271
267.395	16.599	864.236	657.240
268.409	16.625	863.457	656.694
269.424	16.567	862.739	655.863
270.439	16.422	862.371	654.962
271.453	16.587	861.222	654.671
272.468	16.453	860.513	653.556
273.482	16.453	860.067	653.160
274.497	16.538	859.357	652.892
275.512	16.574	858.807	652.554
276.526	16.479	858.422	651.836
277.541	16.565	857.854	651.680
278.555	16.543	857.216	651.053
279.570	16.672	856.394	650.866
280.585	16.839	855.865	651.049
281.599	16.803	855.557	650.618
282.614	16.679	854.819	649.525
283.628	16.712	854.247	649.159
284.643	16.645	853.489	648.268
285.657	16.585	853.248	647.798
286.672	16.621	852.968	647.668
287.687	16.648	852.775	647.566
288.701	16.824	851.478	647.196
289.716	16.759	851.137	646.630
290.730	16.738	850.604	646.088
291.745	16.765	850.073	645.731
292.760	16.878	849.300	645.516
293.774	16.688	848.913	644.442
294.789	16.912	848.189	644.688
295.803	16.968	847.517	644.332
296.818	17.035	847.056	644.182
297.833	16.838	846.268	642.776
298.847	16.887	845.464	642.295
299.862	16.937	844.841	641.956
300.876	16.834	844.501	641.247
301.891	16.831	844.112	640.885
302.906	17.041	843.234	640.957
303.920	17.071	842.608	640.536
304.935	17.129	842.149	640.348
305.949	17.298	841.398	640.357
306.964	17.133	840.900	639.302
307.979	17.104	840.181	638.588
308.993	17.121	839.498	638.077
310.008	17.202	839.186	638.087
311.022	17.219	838.684	637.716
312.037	17.189	838.195	637.174
313.052	17.061	837.452	636.073
314.066	17.017	836.809	635.362
315.081	16.990	836.187	634.733
316.095	17.060	835.529	634.440
317.110	17.052	835.219	634.119
318.125	17.105	834.612	633.798
319.139	17.046	834.151	633.171
320.154	17.138	833.666	633.091
321.168	17.007	833.010	632.050
322.183	17.270	832.031	632.229
323.197	17.169	832.258	631.970
324.212	17.191	831.737	631.600
325.227	17.061	831.245	630.686
326.241	17.180	830.563	630.555
327.256	17.219	829.774	630.044
328.270	17.204	829.087	629.412
329.285	17.186	828.463	628.815
330.300	17.173	828.011	628.371
331.314	17.200	827.759	628.224
332.329	17.239	827.044	627.770
333.343	17.149	826.431	626.916
334.358	17.278	825.795	626.852
335.373	17.377	825.291	626.779
336.387	17.467	824.786	626.674
337.402	17.393	824.337	626.005
338.416	17.492	823.682	625.815
339.431	17.398	823.697	625.427
340.446	17.662	823.117	625.899
341.460	17.524	822.605	624.949
342.475	17.561	821.880	624.477
343.489	17.741	820.890	624.330
344.504	17.759	820.694	624.190
345.519	17.763	820.300	623.849
346.533	17.828	819.865	623.703
347.548	17.740	819.371	622.952
348.562	17.672	819.036	622.390
349.577	17.653	818.247	621.667
350.592	17.492	817.905	620.766
351.606	17.627	817.040	620.545
352.621	17.532	816.383	619.646
353.635	17.457	816.361	619.302
354.650	17.751	815.789	619.881
355.665	17.728	815.233	619.322
356.679	17.638	815.033	618.789
357.694	17.654	814.412	618.318
358.708	17.662	814.071	618.033
359.723	17.663	813.158	617.292
360.738	17.716	812.824	617.174
361.752	17.784	812.297	616.966
362.767	17.817	811.846	616.688
363.781	17.739	811.537	616.115
364.796	17.852	811.009	616.069
365.810	18.042	810.870	616.595
366.825	18.055	810.361	616.200
367.840	18.065	810.331	616.161
368.854	18.198	809.166	615.699
369.869	18.117	808.813	615.084
370.883	18.065	808.342	614.483
371.898	17.987	807.727	613.680
372.913	18.097	806.873	613.371
373.927	18.220	806.725	613.648
374.942	18.119	805.718	612.464
375.956	18.002	805.227	611.618
376.971	18.133	804.594	611.554
377.986	18.254	804.467	611.834
379.000	18.132	803.893	610.909
380.015	18.268	803.801	611.270
381.029	18.309	802.786	610.588
382.044	18.355	801.834	609.975
383.059	18.399	801.562	609.871
384.073	18.272	801.303	609.167
385.088	18.288	800.799	608.787
386.102	18.172	800.428	608.039
387.117	18.234	799.682	607.638
388.132	18.095	799.011	606.585
389.146	18.125	798.794	606.473
390.161	18.257	798.216	606.446
391.175	18.169	797.968	605.892
392.190	18.285	797.473	605.872
393.205	18.333	797.020	605.646
394.219	18.313	796.268	604.951
395.234	18.238	796.244	604.612
396.248	18.247	795.638	604.132
397.263	18.252	794.653	603.348
398.278	18.118	794.543	602.739
399.292	18.063	794.068	602.130
400.307	18.027	793.607	601.600
401.321	18.026	793.771	601.668
402.336	18.087	793.370	601.526
403.350	18.319	792.407	601.557
404.365	18.400	792.345	601.743
405.380	18.327	791.804	601.024
406.394	18.575	791.198	601.379
407.409	18.564	790.711	600.917
408.423	18.618	790.526	600.913
409.438	18.504	789.947	600.019
410.453	18.596	789.551	599.986
411.467	18.715	789.210	600.093
412.482	18.684	788.700	599.540
413.496	18.807	788.191	599.533
414.511	18.719	787.916	598.961
415.526	18.840	787.506	599.021
416.540	18.794	787.145	598.530
417.555	18.708	786.973	598.048
418.569	18.712	786.124	597.365
419.584	18.857	785.701	597.494
420.599	18.807	785.102	596.813
421.613	155.697	1370.128	1791.643
422.628	134.485	1455.377	1791.751
