DTS Sentinel unit serial number:	SN413079Multiplexer serial number:	ORYXHardware model number:	OX4-SRSoftware version number:	ORYX F/W v4.00 Oryx Data Collector v3.7.2.0data status	okinstallation	princeton_trtdifferential loss correction	single-endedforward channel	channel 3reverse channel	N/Adate	2019/09/15time	20:40:35forward acquisition time	60.00reverse acquisition time	0.00gamma	496.2192k internal	0.2325k external	0.2325temperature offset calibration	0.9940default loss term (dB/km)	0.3790temperature slope calibration	1.0000multiplexer offset coefficient	1.0000multiplexer slope coefficient	1.0000fibre end	0.00T internal ref (°C)	32.83T ext. ref 1 (°C)	7.90T ext. ref 2 (°C)	24.60length (m)	temperature (°C)	Stokes	anti-Stokes-747.200	67.567	-0.144	-0.149
-746.185	-200.000	0.020	-0.251
-745.171	-119.049	0.242	0.043
-744.156	776.428	0.052	0.144
-743.142	-56.801	0.240	0.107
-742.127	780.207	0.029	0.081
-741.112	-165.292	0.250	-0.011
-740.098	-65.628	0.350	0.142
-739.083	43.028	0.098	-0.091
-738.069	800.000	-0.053	-0.204
-737.054	-118.656	0.160	-0.028
-736.039	16.703	-0.070	0.056
-735.025	593.575	0.145	0.362
-734.010	278.142	-0.195	-0.350
-732.996	800.000	-0.064	0.180
-731.981	-200.000	-0.009	-0.175
-730.966	-70.238	-0.148	0.057
-729.952	800.000	-0.137	-0.537
-728.937	-190.469	-0.394	0.004
-727.923	-4.418	0.138	-0.096
-726.908	800.000	-0.076	-0.248
-725.894	800.000	-0.011	0.049
-724.879	-200.000	-0.013	-0.097
-723.864	-33.111	-0.288	-0.161
-722.850	-79.761	0.180	0.061
-721.835	-200.000	0.003	-0.031
-720.821	595.762	0.044	-0.109
-719.806	397.268	-0.154	-0.324
-718.791	-42.695	0.311	-0.160
-717.777	-200.000	-0.048	0.354
-716.762	-81.121	0.226	-0.075
-715.748	314.561	0.125	-0.238
-714.733	1.344	0.296	-0.215
-713.718	-50.975	-0.165	-0.078
-712.704	-100.711	0.207	0.051
-711.689	-139.753	-0.349	-0.037
-710.675	-75.514	0.058	0.021
-709.660	-200.000	-0.012	-0.287
-708.645	-110.441	-0.245	-0.051
-707.631	55.508	-0.130	-0.127
-706.616	58.583	0.096	-0.095
-705.602	800.000	-0.047	0.180
-704.587	61.271	-0.139	0.139
-703.572	-179.416	-0.241	-0.005
-702.558	800.000	-0.055	-0.178
-701.543	-12.156	-0.197	-0.130
-700.529	800.000	-0.087	0.309
-699.514	-57.450	-0.267	0.118
-698.499	83.932	0.039	-0.043
-697.485	-137.307	0.376	-0.043
-696.470	-194.366	0.166	0.001
-695.456	-108.831	-0.157	-0.034
-694.441	-120.432	0.182	-0.031
-693.426	-200.000	0.006	0.049
-692.412	437.203	-0.106	-0.232
-691.397	-200.000	-0.006	-0.062
-690.383	14.119	0.239	-0.188
-689.368	113.376	0.087	-0.106
-688.354	-200.000	-0.004	0.120
-687.339	790.515	0.044	0.122
-686.324	306.995	0.162	-0.303
-685.310	-138.911	-0.211	0.023
-684.295	646.687	0.012	0.031
-683.281	800.000	-0.125	-0.516
-682.266	33.340	0.228	-0.199
-681.251	-42.442	-0.287	0.147
-680.237	538.934	0.198	-0.474
-679.222	531.601	0.042	-0.099
-678.208	-200.000	0.054	-0.366
-677.193	800.000	0.039	-0.147
-676.178	4.914	0.195	0.144
-675.164	800.000	0.154	-0.491
-674.149	-156.940	0.363	0.022
-673.135	-163.713	0.031	0.001
-672.120	-196.750	-0.136	0.001
-671.105	-200.000	-0.037	-0.342
-670.091	208.498	0.173	0.272
-669.076	-17.032	0.418	0.265
-668.062	59.675	0.395	0.392
-667.047	-51.757	-0.212	-0.099
-666.032	54.366	-0.072	-0.070
-665.018	369.740	-0.128	-0.261
-664.003	363.858	-0.231	0.466
-662.989	126.726	-0.169	0.215
-661.974	138.210	-0.201	0.265
-660.959	217.599	0.040	0.064
-659.945	4.486	0.109	-0.081
-658.930	7.687	-0.300	0.226
-657.916	-25.870	-0.046	0.027
-656.901	93.670	0.168	0.191
-655.886	424.018	0.123	-0.267
-654.872	-46.761	-0.468	0.230
-653.857	54.861	-0.212	-0.206
-652.843	-154.933	0.170	-0.011
-651.828	-200.000	-0.036	-0.161
-650.814	-58.235	-0.285	0.125
-649.799	-51.893	0.226	0.106
-648.784	170.369	-0.071	0.102
-647.770	34.188	0.266	0.233
-646.755	-200.000	-0.029	-0.177
-645.741	301.693	-0.044	-0.082
-644.726	-200.000	0.047	0.411
-643.711	-87.415	0.173	-0.053
-642.697	-200.000	-0.011	-0.139
-641.682	-54.309	0.345	-0.157
-640.668	800.000	0.021	-0.087
-639.653	21.744	-0.225	0.184
-638.638	-58.900	-0.038	0.016
-637.624	-62.538	-0.315	-0.132
-636.609	-18.477	0.139	0.087
-635.595	-200.000	-0.020	-0.214
-634.580	8.748	0.096	0.073
-633.565	35.237	-0.125	-0.110
-632.551	-200.000	0.003	0.020
-631.536	171.403	-0.103	0.149
-630.522	-52.718	0.392	0.182
-629.507	308.553	-0.184	0.344
-628.492	-200.000	-0.002	-0.010
-627.478	-0.053	0.224	0.160
-626.463	-132.926	-0.211	-0.027
-625.449	5.633	-0.140	-0.104
-624.434	-176.589	0.121	-0.003
-623.419	-200.000	0.007	-0.086
-622.405	-128.698	0.265	-0.038
-621.390	209.169	0.071	-0.112
-620.376	438.743	0.114	0.250
-619.361	55.198	-0.132	0.128
-618.346	244.818	-0.073	-0.123
-617.332	118.230	0.051	0.063
-616.317	800.000	0.027	0.105
-615.303	415.716	0.174	-0.373
-614.288	794.425	-0.074	0.204
-613.273	611.933	0.140	0.351
-612.259	-65.216	0.365	0.148
-611.244	218.046	0.189	0.302
-610.230	-65.432	-0.155	0.062
-609.215	351.256	0.130	0.259
-608.201	-3.387	0.168	-0.117
-607.186	-200.000	-0.006	-0.414
-606.171	-149.626	0.094	-0.007
-605.157	203.072	-0.157	-0.244
-604.142	-200.000	0.007	-0.250
-603.128	-119.828	0.167	0.029
-602.113	227.228	-0.142	-0.232
-601.098	-200.000	0.052	0.378
-600.084	80.784	0.272	-0.295
-599.069	-143.876	-0.583	-0.055
-598.055	-133.364	-0.092	-0.012
-597.040	-200.000	0.049	0.325
-596.025	-19.673	-0.351	-0.218
-595.011	267.775	-0.111	-0.195
-593.996	218.687	0.309	0.495
-592.982	49.708	-0.038	0.036
-591.967	-83.936	-0.058	0.018
-590.952	800.000	-0.109	-0.423
-589.938	800.000	0.053	-0.213
-588.923	-113.988	-0.094	-0.018
-587.909	-109.996	-0.256	-0.054
-586.894	-2.265	-0.283	-0.199
-585.879	48.728	-0.220	0.207
-584.865	263.173	0.146	0.255
-583.850	-45.697	-0.207	-0.102
-582.836	-200.000	0.007	-0.047
-581.821	138.685	0.158	0.207
-580.806	203.639	-0.177	0.274
-579.792	-200.000	0.018	0.126
-578.777	291.505	-0.159	-0.290
-577.763	-15.946	-0.164	0.105
-576.748	314.370	0.053	-0.099
-575.733	655.602	-0.092	-0.237
-574.719	-66.225	0.160	-0.064
-573.704	71.138	0.165	0.171
-572.690	526.899	0.156	-0.369
-571.675	-200.000	0.021	0.097
-570.661	-200.000	0.048	-0.313
-569.646	-82.809	-0.060	-0.020
-568.631	97.508	0.211	-0.243
-567.617	61.929	-0.059	-0.059
-566.602	456.414	0.105	0.234
-565.588	-200.000	-0.039	0.430
-564.573	-50.051	0.083	-0.039
-563.558	189.919	-0.073	0.109
-562.544	-84.282	0.423	0.134
-561.529	-200.000	0.045	-0.249
-560.515	575.009	-0.204	-0.500
-559.500	-119.437	-0.202	0.035
-558.485	-168.596	-0.109	-0.004
-557.471	350.039	0.057	-0.114
-556.456	-29.828	0.115	0.066
-555.442	-67.435	0.173	0.068
-554.427	141.901	-0.176	0.234
-553.412	526.831	0.018	0.043
-552.398	-118.847	-0.249	0.044
-551.383	-117.107	-0.102	0.019
-550.369	67.076	-0.230	-0.234
-549.354	800.000	0.056	0.229
-548.339	-45.965	-0.132	0.065
-547.325	-200.000	-0.026	0.152
-546.310	126.512	-0.029	0.037
-545.296	800.000	0.032	-0.122
-544.281	2.937	0.437	0.318
-543.266	21.371	-0.067	0.055
-542.252	408.274	-0.082	-0.173
-541.237	-200.000	0.033	-0.193
-540.223	-200.000	-0.027	-0.286
-539.208	6.510	0.170	-0.127
-538.193	800.000	-0.125	-0.465
-537.179	85.626	0.222	-0.244
-536.164	-68.335	-0.018	0.007
-535.150	343.048	-0.067	-0.132
-534.135	-149.726	0.413	-0.032
-533.121	139.398	0.069	0.091
-532.106	800.000	0.035	0.139
-531.091	262.309	-0.030	0.053
-530.077	-200.000	-0.004	0.321
-529.062	-135.405	0.274	0.033
-528.048	731.058	-0.037	-0.099
-527.033	11.903	-0.164	-0.126
-526.018	-84.265	-0.154	-0.049
-525.004	-21.761	-0.158	0.096
-523.989	-16.323	-0.243	-0.155
-522.975	418.186	-0.061	-0.130
-521.960	-13.263	0.068	0.044
-520.945	88.819	-0.139	-0.154
-519.931	390.737	-0.094	-0.195
-518.916	621.460	0.061	-0.153
-517.902	-16.736	0.163	0.103
-516.887	23.274	-0.166	0.136
-515.872	34.651	0.165	0.144
-514.858	-62.553	-0.293	-0.122
-513.843	70.189	-0.099	-0.102
-512.829	-100.646	-0.400	0.099
-511.814	528.431	-0.090	-0.213
-510.799	-108.268	0.323	0.070
-509.785	-200.000	0.022	0.209
-508.770	220.496	-0.071	0.114
-507.756	-52.957	0.421	0.194
-506.741	1.987	-0.291	0.210
-505.726	-28.701	0.310	-0.178
-504.712	-26.472	0.151	-0.088
-503.697	186.523	-0.022	-0.032
-502.683	122.423	-0.136	-0.170
-501.668	-113.149	-0.275	-0.054
-500.653	800.000	0.054	0.212
-499.639	800.000	0.100	-0.289
-498.624	149.120	-0.147	0.198
-497.610	10.405	-0.205	-0.156
-496.595	-200.000	0.014	-0.331
-495.581	-124.434	-0.093	0.015
-494.566	-37.886	-0.248	-0.132
-493.551	-200.000	-0.045	0.284
-492.537	-88.014	0.294	-0.088
-491.522	-118.851	0.476	-0.084
-490.508	-200.000	0.037	-0.350
-489.493	-200.000	-0.033	0.152
-488.478	-200.000	-0.454	0.002
-487.464	204.685	-0.166	0.258
-486.449	-39.514	-0.364	-0.190
-485.435	-39.028	0.364	-0.192
-484.420	122.318	0.150	-0.188
-483.405	-25.033	-0.200	0.118
-482.391	-78.200	-0.295	-0.101
-481.376	42.507	-0.023	-0.021
-480.362	52.033	-0.118	-0.112
-479.347	-125.426	-0.195	-0.030
-478.332	23.496	0.071	0.058
-477.318	230.814	-0.129	0.212
-476.303	800.000	-0.043	0.125
-475.289	800.000	0.049	0.188
-474.274	-200.000	0.047	0.247
-473.259	-7.925	0.138	0.093
-472.245	101.265	-0.056	0.065
-471.230	30.755	-0.180	-0.154
-470.216	-18.669	0.257	-0.160
-469.201	-200.000	-0.006	0.190
-468.186	-58.089	-0.442	0.192
-467.172	-200.000	-0.047	0.417
-466.157	-3.386	-0.202	-0.141
-465.143	6.975	-0.028	-0.021
-464.128	-46.070	-0.329	-0.162
-463.113	-31.756	-0.202	-0.113
-462.099	800.000	-0.068	0.216
-461.084	800.000	0.050	-0.178
-460.070	35.653	0.371	0.325
-459.055	26.349	-0.351	-0.293
-458.040	124.962	-0.122	0.153
-457.026	800.000	-0.149	-0.545
-456.011	-180.203	0.134	0.003
-454.997	-61.239	-0.303	0.127
-453.982	-200.000	-0.027	-0.248
-452.968	-200.000	-0.014	-0.106
-451.953	-103.471	-0.147	0.034
-450.938	360.694	0.190	0.380
-449.924	474.637	-0.089	0.201
-448.909	-109.722	0.071	-0.015
-447.895	-8.485	-0.478	0.320
-446.880	493.620	-0.098	0.225
-445.865	-136.596	0.330	-0.038
-444.851	-200.000	-0.005	0.065
-443.836	-48.011	0.248	-0.120
-442.822	800.000	-0.038	0.157
-441.807	-86.956	0.082	-0.025
-440.792	124.769	-0.143	-0.180
-439.778	191.130	-0.069	-0.104
-438.763	322.057	-0.020	0.039
-437.749	-70.655	-0.390	0.147
-436.734	-181.689	-0.223	-0.004
-435.719	-137.539	-0.277	-0.031
-434.705	173.530	0.262	-0.376
-433.690	-139.279	-0.366	0.039
-432.676	-46.457	-0.030	-0.015
-431.661	-49.136	0.208	-0.099
-430.646	-52.315	0.052	0.024
-429.632	800.000	0.046	-0.196
-428.617	73.083	0.373	-0.389
-427.603	-67.135	-0.249	0.098
-426.588	76.194	0.108	-0.114
-425.573	123.924	-0.088	0.110
-424.559	-16.016	-0.167	-0.106
-423.544	-200.000	0.035	0.354
-422.530	-42.959	-0.296	-0.150
-421.515	27.348	0.097	0.081
-420.500	66.836	-0.143	-0.145
-419.486	-34.075	-0.305	0.167
-418.471	-102.019	-0.228	0.055
-417.457	21.108	0.198	0.160
-416.442	800.000	0.034	0.114
-415.428	-200.000	0.021	-0.240
-414.413	-200.000	-0.021	0.193
-413.398	229.105	-0.148	-0.240
-412.384	141.920	0.218	-0.287
-411.369	-51.295	-0.352	-0.164
-410.355	102.675	0.203	0.236
-409.340	44.939	0.115	-0.106
-408.325	-65.580	-0.269	0.107
-407.311	-200.000	-0.018	0.164
-406.296	-162.333	-0.291	0.014
-405.282	-200.000	-0.028	0.172
-404.267	-200.000	-0.002	-0.031
-403.252	800.000	0.033	0.139
-402.238	0.824	0.070	0.050
-401.223	-90.556	0.200	0.058
-400.209	160.195	-0.282	-0.392
-399.194	179.899	0.087	0.127
-398.179	129.635	0.251	0.319
-397.165	-123.012	0.256	0.041
-396.150	800.000	-0.039	0.141
-395.136	-6.340	0.132	-0.090
-394.121	-78.481	-0.192	0.065
-393.106	-200.000	-0.033	0.193
-392.092	-92.768	-0.211	-0.059
-391.077	60.529	-0.088	0.087
-390.063	-93.022	-0.425	0.118
-389.048	226.922	0.024	-0.039
-388.033	-21.213	0.393	0.239
-387.019	-101.948	-0.021	0.005
-386.004	185.349	-0.121	0.178
-384.990	59.410	0.034	-0.033
-383.975	-57.048	0.131	-0.057
-382.960	-143.310	0.361	0.034
-381.946	-200.000	0.049	-0.000
-380.931	-200.000	0.066	0.414
-379.917	14.777	0.253	-0.197
-378.902	-95.172	-0.432	-0.116
-377.888	72.499	-0.051	-0.053
-376.873	-25.189	-0.304	-0.179
-375.858	-117.221	0.291	0.053
-374.844	-183.074	0.050	-0.001
-373.829	291.607	-0.148	-0.269
-372.815	-95.215	-0.143	0.038
-371.800	-133.247	0.281	-0.035
-370.785	461.156	-0.163	-0.361
-369.771	-60.582	-0.169	-0.071
-368.756	33.223	-0.169	-0.146
-367.742	595.097	0.109	-0.268
-366.727	-113.389	-0.341	0.066
-365.712	-176.571	0.076	0.002
-364.698	270.951	0.105	0.185
-363.683	73.165	-0.048	-0.050
-362.669	45.020	-0.344	0.315
-361.654	-113.966	0.105	-0.020
-360.639	22.463	0.125	-0.101
-359.625	193.080	-0.090	0.136
-358.610	26.177	-0.150	-0.124
-357.596	619.028	-0.032	0.080
-356.581	800.000	0.130	-0.407
-355.566	-74.134	-0.401	-0.144
-354.552	137.447	0.078	-0.101
-353.537	-54.989	-0.199	0.089
-352.523	-16.824	0.310	-0.195
-351.508	158.819	-0.065	0.090
-350.493	34.152	0.215	-0.187
-349.479	305.841	-0.037	0.069
-348.464	-34.562	0.178	0.097
-347.450	-200.000	0.083	0.456
-346.435	-162.226	0.287	0.014
-345.420	-28.072	-0.117	-0.067
-344.406	-200.000	0.002	0.015
-343.391	731.563	0.070	0.186
-342.377	387.122	0.107	0.220
-341.362	-100.003	0.393	0.097
-340.348	87.425	0.203	-0.223
-339.333	-200.000	0.016	-0.269
-338.318	-68.670	-0.334	0.128
-337.304	800.000	-0.102	-0.321
-336.289	-74.840	-0.353	0.126
-335.275	-42.059	0.243	-0.124
-334.260	-130.457	0.221	0.030
-333.245	45.308	-0.079	0.073
-332.231	-36.488	0.345	0.184
-331.216	-142.050	-0.125	0.012
-330.202	-200.000	-0.008	0.264
-329.187	-180.156	-0.155	-0.003
-328.172	800.000	-0.119	-0.368
-327.158	11.340	-0.272	0.207
-326.143	505.479	-0.070	-0.161
-325.129	39.455	0.106	0.094
-324.114	-30.006	0.251	0.142
-323.099	-89.976	0.407	0.118
-322.085	800.000	-0.172	0.537
-321.070	-129.448	0.216	0.030
-320.056	12.939	-0.120	-0.092
-319.041	136.821	0.100	-0.129
-318.026	200.641	0.190	-0.289
-317.012	173.925	0.264	0.378
-315.997	-200.000	0.058	0.439
-314.983	97.041	-0.077	0.088
-313.968	-200.000	-0.045	0.272
-312.953	-90.385	0.192	0.055
-311.939	44.098	0.158	-0.144
-310.924	141.770	-0.122	0.160
-309.910	-154.507	-0.110	-0.007
-308.895	-109.140	0.113	0.024
-307.880	-184.532	0.240	0.004
-306.866	-67.306	-0.182	-0.071
-305.851	-82.070	-0.055	0.018
-304.837	75.371	0.182	-0.190
-303.822	-72.331	-0.109	0.040
-302.807	228.175	0.099	-0.160
-301.793	-13.610	0.323	0.208
-300.778	249.016	0.060	-0.101
-299.764	-200.000	-0.025	-0.156
-298.749	800.000	-0.140	-0.511
-297.735	132.555	-0.136	-0.174
-296.720	343.329	-0.132	-0.257
-295.705	-200.000	-0.013	-0.236
-294.691	-85.509	0.031	0.010
-293.676	162.714	0.084	0.116
-292.662	201.937	-0.046	-0.070
-291.647	-113.470	0.110	-0.021
-290.632	-200.000	0.022	0.291
-289.618	-73.688	-0.184	-0.066
-288.603	-114.289	-0.331	-0.063
-287.589	-200.000	-0.018	0.134
-286.574	306.285	0.109	-0.200
-285.559	-200.000	0.017	-0.166
-284.545	800.000	-0.077	-0.211
-283.530	92.838	0.171	0.192
-282.516	-167.716	0.204	-0.008
-281.501	-200.000	-0.022	0.277
-280.486	-4.813	0.118	0.081
-279.472	-150.689	0.320	0.024
-278.457	205.036	0.128	0.196
-277.443	489.218	0.023	0.052
-276.428	-126.572	0.146	0.022
-275.413	630.180	0.081	0.202
-274.399	-200.000	0.021	-0.109
-273.384	-3.094	0.182	-0.126
-272.370	717.490	0.027	0.071
-271.355	800.000	0.049	-0.146
-270.340	37.363	-0.152	0.133
-269.326	-177.578	0.375	-0.009
-268.311	143.924	0.204	-0.270
-267.297	-200.000	0.011	0.090
-266.282	-106.750	0.084	-0.019
-265.267	-200.000	-0.006	-0.164
-264.253	89.037	0.101	-0.112
-263.238	106.261	0.075	0.088
-262.224	615.905	-0.044	0.110
-261.209	-200.000	-0.011	-0.347
-260.195	800.000	-0.192	-0.603
-259.180	42.504	0.252	-0.227
-258.165	-10.560	0.060	0.039
-257.151	-23.583	0.281	0.167
-256.136	-200.000	-0.000	-0.066
-255.122	74.091	0.223	0.231
-254.107	-200.000	0.009	0.193
-253.092	-0.830	0.209	-0.147
-252.078	-200.000	0.015	0.124
-251.063	-187.182	-0.308	0.004
-250.049	-200.000	0.027	-0.195
-249.034	-77.815	0.124	-0.043
-248.019	-56.412	0.182	-0.080
-247.005	56.231	0.166	0.160
-245.990	11.315	-0.241	0.183
-244.976	-200.000	-0.052	0.370
-243.961	-68.086	0.252	0.097
-242.946	800.000	-0.045	0.151
-241.932	49.769	0.063	0.059
-240.917	-192.304	0.142	-0.001
-239.903	-135.193	0.125	-0.015
-238.888	-21.761	-0.212	-0.128
-237.873	-117.717	0.230	0.041
-236.859	441.116	0.085	-0.184
-235.844	800.000	0.076	0.212
-234.830	-200.000	0.003	0.316
-233.815	669.004	-0.179	0.459
-232.800	165.530	0.159	0.223
-231.786	-151.057	-0.050	0.004
-230.771	533.009	0.168	-0.393
-229.757	-159.932	-0.153	-0.008
-228.742	-107.480	-0.066	0.014
-227.727	-153.039	-0.567	-0.039
-226.713	136.479	0.094	-0.121
-225.698	-200.000	-0.000	0.014
-224.684	596.290	0.082	-0.201
-223.669	-117.352	-0.148	0.027
-222.655	133.049	-0.148	-0.189
-221.640	130.003	-0.155	-0.197
-220.625	-79.112	0.215	-0.072
-219.611	-118.478	0.066	-0.012
-218.596	-44.894	0.074	0.037
-217.582	-200.000	-0.037	0.161
-216.567	-149.791	0.048	0.004
-215.552	800.000	0.129	0.391
-214.538	136.819	0.229	-0.296
-213.523	-200.000	0.011	-0.047
-212.509	332.538	-0.037	-0.071
-211.494	-120.704	0.427	0.071
-210.479	-200.000	-0.019	0.156
-209.465	64.322	-0.248	-0.247
-208.450	-15.933	0.365	-0.230
-207.436	61.506	0.129	-0.127
-206.421	-200.000	-0.032	0.000
-205.406	-115.962	-0.227	0.042
-204.392	392.227	0.114	0.234
-203.377	108.497	0.056	0.066
-202.363	194.442	0.081	-0.121
-201.348	-54.977	0.122	-0.054
-200.333	-200.000	-0.012	0.160
-199.319	-200.000	0.002	0.054
-198.304	800.000	-0.048	-0.198
-197.290	-186.314	0.105	0.001
-196.275	-85.135	-0.284	-0.088
-195.260	33.917	-0.094	-0.081
-194.246	-53.720	-0.155	-0.070
-193.231	-16.693	0.221	-0.138
-192.217	-67.402	0.231	0.089
-191.202	800.000	-0.056	-0.154
-190.187	-120.148	0.161	-0.027
-189.173	-170.235	0.209	0.007
-188.158	-55.721	-0.209	0.092
-187.144	104.016	-0.226	0.262
-186.129	800.000	-0.072	0.251
-185.114	353.444	-0.066	0.129
-184.100	-200.000	0.000	-0.697
-183.085	-200.000	0.067	0.383
-182.071	-200.000	-0.036	0.463
-181.056	260.432	0.157	0.269
-180.042	800.000	-0.062	0.236
-179.027	-117.063	-0.312	-0.056
-178.012	10.420	-0.056	-0.042
-176.998	-57.264	-0.053	-0.023
-175.983	-177.679	0.484	0.012
-174.969	-7.741	0.309	-0.206
-173.954	-56.954	-0.434	-0.189
-172.939	255.607	0.086	-0.145
-171.925	39.383	-0.224	0.198
-170.910	-25.147	-0.094	0.055
-169.896	-84.645	-0.256	0.080
-168.881	-71.733	-0.077	-0.028
-167.866	-50.386	0.156	-0.073
-166.852	73.449	0.082	-0.084
-165.837	800.000	-0.055	-0.222
-164.823	800.000	-0.037	0.124
-163.808	223.521	0.068	0.108
-162.793	172.567	-0.281	0.399
-161.779	5.919	0.318	-0.233
-160.764	800.000	-0.132	0.541
-159.750	23.495	0.117	-0.095
-158.735	-200.000	-0.069	0.431
-157.720	534.382	-0.115	-0.269
-156.706	-195.271	0.199	-0.001
-155.691	257.675	-0.202	-0.343
-154.677	-0.200	0.256	-0.179
-153.662	800.000	-0.091	-0.318
-152.647	-128.398	0.195	-0.027
-151.633	-127.166	-0.170	0.024
-150.618	305.042	0.029	0.053
-149.604	-200.000	0.067	0.439
-148.589	-200.000	0.020	-0.349
-147.574	-57.549	0.182	0.079
-146.560	-93.448	0.114	0.031
-145.545	-157.456	0.133	-0.008
-144.531	-200.000	-0.046	0.282
-143.516	289.389	-0.135	0.241
-142.502	-157.668	0.255	-0.015
-141.487	482.440	-0.061	-0.137
-140.472	-136.849	-0.210	0.024
-139.458	33.683	-0.259	-0.222
-138.443	800.000	0.090	0.297
-137.429	548.132	0.060	-0.141
-136.414	1.913	-0.029	0.021
-135.399	79.039	0.066	0.070
-134.385	-200.000	0.021	-0.372
-133.370	-200.000	0.022	-0.125
-132.356	191.399	0.156	-0.231
-131.341	-188.360	-0.359	0.004
-130.326	173.978	-0.228	0.324
-129.312	139.069	-0.115	-0.149
-128.297	-174.018	-0.600	0.017
-127.283	258.022	-0.142	-0.241
-126.268	44.696	-0.085	-0.077
-125.253	-157.245	-0.263	-0.016
-124.239	274.110	-0.066	-0.115
-123.224	800.000	0.057	-0.195
-122.210	-200.000	0.021	0.102
-121.195	-95.648	0.439	0.116
-120.180	102.023	0.060	-0.070
-119.166	-200.000	-0.022	0.152
-118.151	101.687	-0.209	-0.240
-117.137	38.896	0.040	0.035
-116.122	135.624	0.072	-0.093
-115.107	800.000	-0.055	-0.182
-114.093	-0.165	-0.377	0.264
-113.078	-200.000	-0.029	0.163
-112.064	-87.696	0.196	-0.058
-111.049	-200.000	0.003	0.135
-110.034	-100.157	0.243	-0.059
-109.020	-200.000	-0.036	-0.157
-108.005	340.732	0.087	0.166
-106.991	88.472	0.166	0.182
-105.976	18.540	0.054	-0.043
-104.962	-44.665	-0.335	-0.165
-103.947	13.886	-0.360	-0.276
-102.932	800.000	-0.080	0.250
-101.918	504.265	-0.090	0.206
-100.903	-15.108	-0.280	-0.177
-99.889	-73.372	-0.194	0.070
-98.874	218.959	0.176	-0.277
-97.859	-74.490	-0.093	0.033
-96.845	608.375	0.080	-0.196
-95.830	-101.045	-0.111	-0.027
-94.816	-150.734	0.254	-0.019
-93.801	254.191	-0.128	0.216
-92.786	-74.731	-0.193	0.068
-91.772	341.330	-0.056	-0.107
-90.757	1.873	-0.426	0.302
-89.743	488.808	-0.054	0.121
-88.728	-112.893	0.203	0.040
-87.713	-200.000	0.040	0.184
-86.699	-200.000	0.029	0.529
-85.684	-44.467	-0.055	0.027
-84.670	-57.638	0.142	-0.061
-83.655	61.134	-0.051	-0.050
-82.640	104.397	-0.190	-0.220
-81.626	550.039	0.104	-0.245
-80.611	159.051	-0.130	-0.178
-79.597	33.558	0.230	0.196
-78.582	157.482	-0.095	0.129
-77.567	-200.000	0.000	-0.067
-76.553	290.960	-0.090	0.161
-75.538	-106.692	0.407	0.089
-74.524	-153.061	0.470	0.032
-73.509	20.770	-0.148	-0.118
-72.494	-200.000	-0.012	0.128
-71.480	-109.456	0.227	0.047
-70.465	-109.654	0.252	0.052
-69.451	127.025	0.142	-0.176
-68.436	304.866	0.052	0.096
-67.422	-72.800	0.055	0.020
-66.407	800.000	-0.040	0.165
-65.392	-118.079	0.038	0.007
-64.378	-200.000	0.023	0.114
-63.363	-101.116	0.187	0.045
-62.349	-200.000	-0.001	0.149
-61.334	62.691	-0.857	-0.842
-60.319	60.593	0.456	0.444
-59.305	472.052	-0.450	-0.994
-58.290	343.538	0.688	1.324
-57.276	800.000	0.384	1.151
-56.261	-200.000	93.886	573.978
-55.246	562.582	1354.043	3218.146
-54.232	166.827	2515.646	3504.771
-53.217	112.270	2146.398	2548.995
-52.203	43.181	1696.571	1520.868
-51.188	35.910	1509.760	1304.321
-50.173	33.544	1482.863	1265.262
-49.159	52.995	1530.307	1437.963
-48.144	54.544	1548.564	1465.560
-47.130	36.118	1509.336	1305.151
-46.115	33.013	1494.861	1271.722
-45.100	32.926	1491.423	1268.162
-44.086	32.835	1489.361	1265.752
-43.071	32.699	1487.871	1263.521
-42.057	32.756	1485.912	1262.191
-41.042	32.746	1484.595	1260.954
-40.027	32.909	1483.057	1260.683
-39.013	32.814	1481.156	1258.386
-37.998	32.742	1480.069	1256.929
-36.984	32.756	1478.809	1255.905
-35.969	32.783	1478.068	1255.405
-34.954	32.830	1476.179	1254.065
-33.940	32.873	1474.920	1253.234
-32.925	32.836	1473.556	1251.779
-31.911	32.859	1472.534	1251.015
-30.896	32.898	1470.876	1249.811
-29.881	32.943	1469.385	1248.793
-28.867	32.894	1468.551	1247.711
-27.852	32.777	1467.159	1245.702
-26.838	32.836	1465.658	1244.770
-25.823	32.907	1464.262	1244.003
-24.809	32.925	1462.112	1242.244
-23.794	32.809	1461.227	1240.681
-22.779	32.927	1459.610	1240.035
-21.765	32.861	1458.800	1238.862
-20.750	32.828	1457.826	1237.770
-19.736	32.871	1456.266	1236.682
-18.721	32.841	1455.184	1235.514
-17.706	32.810	1454.328	1234.535
-16.692	32.750	1453.615	1233.488
-15.677	32.852	1452.437	1233.106
-14.663	32.856	1451.028	1231.887
-13.648	32.832	1450.184	1230.968
-12.633	32.867	1449.569	1230.621
-11.619	32.814	1448.502	1229.323
-10.604	32.751	1447.817	1228.286
-9.590	32.728	1447.621	1227.920
-8.575	32.832	1445.948	1227.128
-7.560	32.830	1444.985	1226.252
-6.546	32.835	1444.233	1225.595
-5.531	32.823	1443.468	1224.821
-4.517	32.757	1442.421	1223.455
-3.502	32.641	1441.810	1222.134
-2.487	32.841	1440.005	1221.849
-1.473	32.792	1439.402	1220.974
-0.458	32.719	1438.482	1219.672
0.556	30.471	1428.044	1205.397
1.571	26.760	1400.234	1158.159
2.586	22.164	1338.376	1078.763
3.600	19.948	1255.806	999.340
4.615	18.633	1210.085	955.554
5.629	17.121	1157.463	905.860
6.644	12.620	1080.003	822.711
7.659	8.798	1043.088	776.034
8.673	8.082	1038.082	768.791
9.688	7.899	1035.010	765.566
10.702	7.741	1033.800	763.845
11.717	7.868	1031.720	762.851
12.731	9.652	1032.240	771.714
13.746	14.007	1038.316	797.119
14.761	17.374	1042.247	816.251
15.775	17.756	1041.425	817.367
16.790	16.728	1040.118	811.349
17.804	15.719	1037.605	804.488
18.819	14.830	1035.129	798.255
19.834	14.255	1034.523	794.972
20.848	13.913	1033.230	792.277
21.863	13.771	1032.492	790.962
22.877	13.623	1031.455	789.395
23.892	13.247	1030.859	787.076
24.907	13.304	1030.063	786.672
25.921	13.311	1029.646	786.317
26.936	13.285	1028.601	785.327
27.950	13.309	1027.588	784.596
28.965	13.386	1026.576	784.121
29.980	13.526	1025.048	783.544
30.994	13.535	1023.924	782.660
32.009	13.705	1023.335	782.942
33.023	13.661	1022.492	782.023
34.038	13.643	1021.613	781.195
35.053	13.611	1020.608	780.206
36.067	13.554	1019.886	779.319
37.082	13.493	1019.082	778.350
38.096	13.567	1018.332	778.056
39.111	13.540	1017.887	777.517
40.126	13.676	1016.299	776.874
41.140	13.714	1014.980	775.976
42.155	13.433	1014.274	774.051
43.169	13.189	1013.878	772.542
44.184	13.328	1012.436	772.024
45.199	13.268	1011.333	770.831
46.213	13.226	1010.574	769.991
47.228	13.324	1009.641	769.666
48.242	13.448	1008.425	769.251
49.257	13.369	1007.891	768.406
50.271	13.493	1006.538	767.884
51.286	13.580	1005.759	767.622
52.301	13.470	1005.214	766.632
53.315	13.508	1004.395	766.115
54.330	13.431	1003.534	765.032
55.344	13.455	1002.323	764.152
56.359	13.336	1001.658	763.027
57.374	13.298	1000.872	762.189
58.388	13.346	1000.135	761.780
59.403	13.238	999.179	760.488
60.417	13.132	998.855	759.685
61.432	13.261	997.800	759.411
62.447	13.290	997.168	758.994
63.461	13.211	996.081	757.738
64.476	13.242	994.987	756.982
65.490	13.161	994.344	756.055
66.505	13.232	993.496	755.665
67.520	13.122	992.714	754.501
68.534	13.267	991.253	753.988
69.549	13.314	991.145	754.051
70.563	13.321	990.283	753.362
71.578	13.089	989.915	751.959
72.593	13.159	988.906	751.445
73.607	13.050	988.124	750.288
74.622	12.921	987.242	748.964
75.636	13.104	985.981	748.772
76.651	13.033	985.783	748.236
77.666	13.116	984.976	747.932
78.680	13.140	983.956	747.202
79.695	13.166	983.569	746.957
80.709	13.137	982.932	746.279
81.724	13.268	981.908	746.026
82.739	13.289	981.120	745.454
83.753	13.393	980.455	745.351
84.768	13.321	979.806	744.467
85.782	13.458	979.031	744.429
86.797	13.548	978.060	744.029
87.812	13.638	977.185	743.700
88.826	13.434	976.640	742.305
89.841	13.412	975.804	741.508
90.855	13.409	975.337	741.073
91.870	13.498	973.856	740.279
92.884	13.576	973.599	740.366
93.899	13.591	972.371	739.437
94.914	13.577	972.220	739.193
95.928	13.660	971.085	738.634
96.943	13.560	970.866	737.956
97.957	13.531	970.134	737.207
98.972	13.544	969.048	736.372
99.987	13.591	968.432	736.048
101.001	13.591	967.418	735.214
102.016	13.638	966.455	734.625
103.030	13.468	965.535	733.109
104.045	13.621	964.551	732.972
105.060	13.612	963.696	732.218
106.074	13.551	962.871	731.256
107.089	13.375	962.065	729.805
108.103	13.400	961.411	729.354
109.118	13.377	960.384	728.408
110.133	13.260	959.542	727.191
111.147	13.134	958.902	726.087
112.162	13.242	957.938	725.766
113.176	13.377	957.066	725.636
114.191	13.376	956.146	724.869
115.206	13.306	955.433	723.956
116.220	13.377	954.749	723.688
117.235	13.473	953.500	723.096
118.249	13.351	953.102	722.196
119.264	13.438	952.020	721.690
120.279	13.420	951.397	721.078
121.293	13.278	950.740	719.898
122.308	13.375	950.056	719.738
123.322	13.270	949.003	718.421
124.337	13.275	947.923	717.561
125.352	13.247	947.018	716.691
126.366	13.319	945.542	715.821
127.381	13.237	944.984	714.980
128.395	13.357	943.854	714.583
129.410	13.435	942.723	714.000
130.424	13.230	942.404	712.808
131.439	13.360	941.317	712.485
132.454	13.425	940.260	711.901
133.468	13.472	939.912	711.776
134.483	13.435	939.139	710.968
135.497	13.552	938.174	710.678
136.512	13.396	937.866	709.712
137.527	13.433	936.783	708.989
138.541	13.526	935.899	708.656
139.556	13.534	935.362	708.219
140.570	13.459	934.527	707.205
141.585	13.618	933.142	706.772
142.600	13.578	933.533	706.835
143.614	13.585	932.663	706.143
144.629	13.610	931.650	705.420
145.643	13.594	931.555	705.217
146.658	13.678	930.348	704.597
147.673	13.514	929.634	703.299
148.687	13.474	928.645	702.321
149.702	13.537	927.529	701.678
150.716	13.481	926.662	700.725
151.731	13.523	925.803	700.190
152.746	13.515	925.369	699.766
153.760	13.567	924.468	699.244
154.775	13.554	923.885	698.684
155.789	13.702	922.999	698.577
156.804	13.636	922.065	697.531
157.819	13.564	921.533	696.765
158.833	13.668	920.761	696.555
159.848	13.740	920.319	696.461
160.862	13.758	919.578	695.915
161.877	13.753	919.020	695.412
162.892	13.703	917.999	694.368
163.906	13.711	916.729	693.379
164.921	13.646	916.214	692.657
165.935	13.553	915.787	691.882
166.950	13.705	914.176	691.240
167.964	13.577	913.832	690.383
168.979	13.780	912.206	689.939
169.994	13.647	911.438	688.746
171.008	13.591	911.220	688.285
172.023	13.703	910.269	687.972
173.037	13.807	909.489	687.754
174.052	13.959	908.394	687.491
175.067	13.911	907.636	686.659
176.081	13.656	907.516	685.452
177.096	13.623	906.708	684.647
178.110	13.707	905.694	684.165
179.125	13.660	904.951	683.350
180.140	13.779	904.205	683.215
181.154	13.713	903.553	682.395
182.169	13.698	903.074	681.908
183.183	13.837	902.428	681.933
184.198	13.892	901.684	681.534
185.213	13.966	900.818	681.123
186.227	13.921	900.465	680.614
187.242	13.891	899.708	679.859
188.256	13.926	899.179	679.540
189.271	13.967	898.503	679.135
190.286	13.931	898.001	678.550
191.300	13.898	897.079	677.658
192.315	13.759	896.150	676.330
193.329	13.570	895.578	675.068
194.344	13.669	895.070	675.028
195.359	13.807	894.355	674.991
196.373	13.802	894.209	674.802
197.388	13.970	893.358	674.782
198.402	13.839	893.238	674.100
199.417	13.930	892.823	674.095
200.432	14.108	892.334	674.391
201.446	14.230	891.912	674.506
202.461	14.192	891.461	673.950
203.475	14.139	891.013	673.336
204.490	14.357	889.962	673.365
205.504	14.206	889.257	672.162
206.519	14.104	888.552	671.159
207.534	14.081	887.816	670.451
208.548	14.151	886.818	669.920
209.563	14.227	886.050	669.585
210.577	14.161	885.803	669.073
211.592	14.255	884.932	668.734
212.607	14.226	884.615	668.319
213.621	14.275	883.910	667.923
214.636	14.353	883.208	667.649
215.650	14.225	882.831	666.792
216.665	14.319	882.319	666.721
217.680	14.366	881.674	666.363
218.694	14.463	881.140	666.288
219.709	14.419	880.538	665.598
220.723	14.423	879.807	665.002
221.738	14.415	879.241	664.483
222.753	14.360	878.695	663.791
223.767	14.409	877.805	663.259
224.782	14.397	877.309	662.776
225.796	14.489	876.433	662.421
226.811	14.533	875.963	662.183
227.826	14.494	875.363	661.516
228.840	14.305	875.139	660.539
229.855	14.534	874.047	660.564
230.869	14.446	873.295	659.588
231.884	14.494	872.478	659.101
232.899	14.499	872.120	658.791
233.913	14.504	870.853	657.798
234.928	14.522	870.432	657.490
235.942	14.443	869.915	656.732
236.957	14.430	869.277	656.142
237.972	14.449	868.780	655.783
238.986	14.410	868.469	655.338
240.001	14.466	867.655	654.885
241.015	14.514	866.840	654.401
242.030	14.531	866.113	653.858
243.045	14.764	865.129	653.969
244.059	14.714	864.833	653.493
245.074	14.539	864.276	652.331
246.088	14.505	863.915	651.867
247.103	14.628	862.850	651.486
248.117	14.743	862.560	651.659
249.132	14.698	862.060	651.048
250.147	14.845	861.397	651.062
251.161	14.898	860.740	650.715
252.176	14.998	860.061	650.534
253.190	15.071	859.297	650.180
254.205	15.012	859.046	649.704
255.220	15.159	858.189	649.569
256.234	15.016	857.885	648.726
257.249	15.054	857.061	648.194
258.263	15.150	856.512	648.093
259.278	15.061	856.047	647.339
260.293	15.090	855.568	647.032
261.307	15.210	855.044	647.041
262.322	15.180	854.422	646.397
263.336	15.140	854.201	646.019
264.351	15.201	853.779	645.879
265.366	15.266	852.728	645.275
266.380	15.346	851.946	644.932
267.395	15.272	851.220	644.044
268.409	15.094	850.805	642.989
269.424	15.253	849.599	642.629
270.439	15.304	849.176	642.449
271.453	15.132	848.678	641.356
272.468	15.220	847.495	640.744
273.482	15.221	847.294	640.536
274.497	15.171	846.729	639.862
275.512	15.304	845.754	639.578
276.526	15.246	845.143	638.836
277.541	15.339	844.708	638.807
278.555	15.342	843.738	638.026
279.570	15.260	843.233	637.275
280.585	15.413	843.056	637.668
281.599	15.468	842.454	637.363
282.614	15.423	841.962	636.768
283.628	15.443	841.072	636.113
284.643	15.378	840.441	635.332
285.657	15.480	839.723	635.121
286.672	15.367	840.150	634.958
287.687	15.486	839.347	634.745
288.701	15.388	838.771	633.884
289.716	15.664	837.869	634.187
290.730	15.377	837.811	633.005
291.745	15.592	837.041	633.176
292.760	15.663	835.962	632.573
293.774	15.629	835.531	632.063
294.789	15.750	834.851	631.946
295.803	15.736	834.441	631.527
296.818	15.605	834.067	630.697
297.833	15.477	833.894	630.029
298.847	15.492	832.911	629.287
299.862	15.616	831.775	628.836
300.876	15.803	831.294	629.117
301.891	15.669	830.929	628.286
302.906	15.684	830.457	627.927
303.920	15.702	829.951	627.559
304.935	15.858	828.867	627.266
305.949	15.901	828.467	627.066
306.964	15.823	827.659	626.110
307.979	15.847	827.075	625.700
308.993	15.765	826.785	625.121
310.008	15.809	826.480	624.998
311.022	15.900	825.696	624.688
312.037	15.932	824.752	624.038
313.052	15.954	824.446	623.833
314.066	15.871	823.465	622.728
315.081	15.813	822.780	621.939
316.095	15.909	822.388	621.944
317.110	15.724	822.198	621.062
318.125	15.812	821.536	620.830
319.139	15.803	820.980	620.322
320.154	15.790	821.178	620.368
321.168	15.991	820.168	620.293
322.183	15.861	819.888	619.546
323.197	15.941	819.195	619.262
324.212	16.048	818.563	619.123
325.227	15.979	818.011	618.396
326.241	16.004	817.654	618.164
327.256	15.981	817.144	617.639
328.270	15.890	816.388	616.680
329.285	15.853	816.000	616.197
330.300	15.894	815.619	616.006
331.314	16.033	814.684	615.753
332.329	15.850	814.180	614.647
333.343	16.024	813.588	614.780
334.358	16.164	812.988	614.785
335.373	16.132	812.482	614.230
336.387	16.176	811.655	613.711
337.402	16.118	811.387	613.245
338.416	16.114	811.266	613.083
339.431	16.173	810.639	612.770
340.446	16.210	810.082	612.429
341.460	16.377	809.374	612.445
342.475	16.199	809.008	611.470
343.489	16.293	808.476	611.354
344.504	16.315	807.714	610.801
345.519	16.588	807.135	611.296
346.533	16.579	806.668	610.855
347.548	16.373	806.662	610.053
348.562	16.477	805.654	609.612
349.577	16.273	805.406	608.634
350.592	16.325	804.822	608.328
351.606	16.261	804.300	607.650
352.621	16.283	803.631	607.169
353.635	16.229	803.268	606.648
354.650	16.337	803.070	606.831
355.665	16.314	802.784	606.480
356.679	16.419	802.248	606.400
357.694	16.539	801.669	606.337
358.708	16.671	800.749	606.061
359.723	16.551	800.280	605.223
360.738	16.570	799.796	604.869
361.752	16.428	799.844	604.344
362.767	16.369	799.470	603.798
363.781	16.541	799.036	604.030
364.796	16.618	798.387	603.762
365.810	16.640	798.122	603.586
366.825	16.681	797.573	603.263
367.840	16.713	797.313	603.129
368.854	16.778	796.752	602.882
369.869	16.655	796.419	602.137
370.883	16.707	795.639	601.680
371.898	16.778	795.268	601.598
372.913	16.919	794.366	601.364
373.927	16.913	793.773	600.840
374.942	16.866	793.290	600.256
375.956	16.839	792.777	599.718
376.971	16.738	792.433	599.049
377.986	16.842	791.813	598.895
379.000	16.832	791.276	598.400
380.015	17.098	790.574	598.753
381.029	17.029	790.260	598.219
382.044	17.131	789.610	598.035
383.059	17.114	789.013	597.470
384.073	16.985	788.467	596.547
385.088	17.103	787.911	596.491
386.102	16.925	787.528	595.522
387.117	16.842	787.021	594.795
388.132	16.864	786.726	594.595
389.146	16.982	786.021	594.425
390.161	16.900	785.611	593.775
391.175	16.964	785.782	594.074
392.190	17.140	784.926	593.992
393.205	17.084	784.888	593.715
394.219	17.074	783.918	592.892
395.234	17.109	783.434	592.597
396.248	16.898	783.129	591.576
397.263	17.049	782.718	591.742
398.278	17.113	782.126	591.465
399.292	17.080	781.900	591.128
400.307	16.959	781.566	590.399
401.321	16.869	781.069	589.658
402.336	17.069	780.733	590.049
403.350	17.043	780.277	589.561
404.365	17.183	779.432	589.357
405.380	17.211	779.051	589.112
406.394	17.208	778.789	588.853
407.409	17.259	778.498	588.758
408.423	17.493	777.762	588.959
409.438	17.419	777.408	588.382
410.453	17.414	777.120	588.095
411.467	17.461	776.672	587.867
412.482	17.433	776.539	587.618
413.496	17.449	776.176	587.347
414.511	17.442	775.920	587.074
415.526	17.352	775.381	586.304
416.540	17.428	774.991	586.220
417.555	17.481	774.261	585.798
418.569	17.625	773.666	585.792
419.584	17.464	773.383	584.974
420.599	17.572	773.165	585.125
421.613	107.545	1286.108	1456.832
422.628	91.781	1360.815	1456.932
