DTS Sentinel unit serial number:	SN413079Multiplexer serial number:	ORYXHardware model number:	OX4-SRSoftware version number:	ORYX F/W v4.00 Oryx Data Collector v3.7.2.0data status	okinstallation	princeton_trtdifferential loss correction	single-endedforward channel	channel 3reverse channel	N/Adate	2019/09/14time	04:44:35forward acquisition time	60.00reverse acquisition time	0.00gamma	496.2192k internal	0.2337k external	0.2337temperature offset calibration	1.0054default loss term (dB/km)	0.3790temperature slope calibration	1.0000multiplexer offset coefficient	1.0000multiplexer slope coefficient	1.0000fibre end	0.00T internal ref (°C)	26.81T ext. ref 1 (°C)	3.35T ext. ref 2 (°C)	21.98length (m)	temperature (°C)	Stokes	anti-Stokes-747.200	800.000	-0.096	-0.419
-746.185	157.737	-0.253	0.352
-745.171	199.591	0.104	0.160
-744.156	-101.123	-0.239	0.059
-743.142	44.033	-0.049	0.045
-742.127	349.821	-0.150	0.298
-741.112	800.000	-0.061	-0.172
-740.098	-149.076	0.081	0.007
-739.083	-2.967	-0.025	0.017
-738.069	800.000	0.073	0.287
-737.054	-200.000	0.013	-0.295
-736.039	-116.215	-0.494	-0.092
-735.025	-60.795	0.304	-0.129
-734.010	-50.948	0.259	-0.122
-732.996	70.015	-0.248	-0.257
-731.981	800.000	-0.014	-0.055
-730.966	47.894	-0.165	-0.154
-729.952	-200.000	-0.068	-0.352
-728.937	312.305	0.072	-0.136
-727.923	-140.429	0.208	-0.022
-726.908	-200.000	-0.000	0.230
-725.894	-163.302	-0.194	-0.009
-724.879	331.207	-0.213	-0.413
-723.864	-18.528	0.246	-0.154
-722.850	-200.000	0.007	0.087
-721.835	-200.000	-0.013	-0.132
-720.821	218.414	0.039	0.063
-719.806	800.000	0.071	-0.291
-718.791	88.548	-0.310	0.346
-717.777	216.215	0.186	0.296
-716.762	-200.000	0.070	-0.325
-715.748	-200.000	-0.052	-0.293
-714.733	-72.862	-0.189	-0.070
-713.718	-200.000	0.005	0.158
-712.704	-200.000	-0.009	-0.137
-711.689	-144.564	-0.231	0.021
-710.675	800.000	-0.048	-0.190
-709.660	-119.650	0.056	-0.010
-708.645	-88.314	-0.265	0.080
-707.631	-200.000	0.039	-0.000
-706.616	-39.011	-0.028	0.015
-705.602	20.738	-0.186	-0.151
-704.587	-62.076	0.656	0.275
-703.572	800.000	0.073	0.300
-702.558	-45.315	0.140	0.070
-701.543	1.070	-0.225	-0.161
-700.529	-39.548	0.251	0.132
-699.514	800.000	-0.072	0.270
-698.499	800.000	0.064	-0.252
-697.485	-65.939	-0.093	0.037
-696.470	9.040	0.113	-0.086
-695.456	-200.000	0.014	0.195
-694.441	-71.487	0.140	0.052
-693.426	231.114	-0.139	-0.228
-692.412	-122.097	0.352	0.058
-691.397	-154.380	-0.205	-0.014
-690.383	-5.720	0.217	-0.149
-689.368	123.748	-0.068	-0.086
-688.354	638.870	-0.051	0.131
-687.339	-200.000	-0.041	-0.427
-686.324	279.364	-0.136	-0.243
-685.310	72.737	0.058	-0.060
-684.295	800.000	-0.082	-0.248
-683.281	-37.347	0.112	0.060
-682.266	-61.083	-0.091	0.038
-681.251	-200.000	0.017	0.332
-680.237	-4.548	-0.111	0.077
-679.222	-200.000	-0.060	0.330
-678.208	-200.000	-0.010	0.102
-677.193	-42.040	0.178	0.091
-676.178	512.867	-0.141	-0.330
-675.164	613.367	-0.020	0.050
-674.149	800.000	0.035	-0.144
-673.135	15.419	-0.144	-0.113
-672.120	-25.620	0.302	0.179
-671.105	-68.716	-0.339	-0.131
-670.091	347.585	-0.092	-0.182
-669.076	511.733	0.028	0.064
-668.062	-38.383	0.068	0.036
-667.047	-137.872	-0.270	0.030
-666.032	72.605	-0.072	0.076
-665.018	-87.102	0.185	0.056
-664.003	-63.529	0.240	-0.098
-662.989	421.056	0.070	0.150
-661.974	-71.337	-0.226	0.085
-660.959	122.628	0.240	0.300
-659.945	800.000	0.121	0.356
-658.930	231.709	0.152	-0.249
-657.916	200.237	0.030	-0.047
-656.901	-32.072	-0.116	0.065
-655.886	-138.367	-0.090	-0.010
-654.872	260.197	0.193	-0.333
-653.857	195.180	0.058	-0.088
-652.843	27.718	-0.152	-0.128
-651.828	-112.470	-0.174	-0.035
-650.814	-142.185	-0.483	0.048
-649.799	-100.495	0.070	-0.017
-648.784	274.162	-0.161	-0.285
-647.770	371.058	-0.107	-0.218
-646.755	800.000	-0.054	-0.227
-645.741	-183.893	-0.069	-0.001
-644.726	-125.361	0.202	0.031
-643.711	159.375	0.097	-0.134
-642.697	6.385	-0.240	0.178
-641.682	-200.000	0.015	-0.289
-640.668	99.908	-0.129	-0.150
-639.653	-200.000	0.002	-0.383
-638.638	-200.000	-0.079	-0.348
-637.624	111.623	-0.177	0.214
-636.609	23.916	0.268	-0.221
-635.595	35.317	0.083	-0.073
-634.580	-200.000	0.035	-0.296
-633.565	30.191	-0.048	-0.041
-632.551	800.000	-0.065	-0.239
-631.536	-200.000	0.012	0.277
-630.522	402.177	-0.059	0.124
-629.507	-87.468	0.100	-0.030
-628.492	356.244	0.086	-0.171
-627.478	-30.390	0.133	0.075
-626.463	-113.533	-0.383	-0.075
-625.449	24.531	-0.168	-0.138
-624.434	21.379	-0.217	0.176
-623.419	-154.327	0.099	-0.007
-622.405	102.841	0.122	-0.143
-621.390	179.375	0.080	-0.117
-620.376	351.757	-0.153	0.302
-619.361	73.674	0.114	0.120
-618.346	19.360	-0.208	0.167
-617.332	2.615	-0.138	-0.100
-616.317	800.000	0.051	-0.202
-615.303	38.084	-0.069	0.061
-614.288	-18.074	0.307	0.192
-613.273	800.000	0.108	0.349
-612.259	334.232	-0.079	-0.152
-611.244	70.085	-0.271	-0.279
-610.230	-173.129	0.107	0.003
-609.215	37.609	-0.031	-0.028
-608.201	-6.977	-0.221	-0.150
-607.186	800.000	0.123	-0.390
-606.171	-121.940	-0.223	0.037
-605.157	-146.129	0.159	0.014
-604.142	11.958	0.108	0.083
-603.128	367.388	0.032	-0.064
-602.113	-65.118	0.280	0.113
-601.098	25.573	0.114	0.095
-600.084	34.550	0.152	-0.133
-599.069	7.272	-0.021	0.015
-598.055	-104.977	-0.093	-0.021
-597.040	-2.172	-0.151	0.106
-596.025	91.162	-0.130	-0.146
-595.011	-86.173	-0.083	-0.026
-593.996	-200.000	-0.004	0.087
-592.982	-53.499	0.434	0.198
-591.967	-200.000	-0.018	-0.225
-590.952	-200.000	-0.010	0.155
-589.938	-200.000	0.002	-0.251
-588.923	-145.576	0.320	0.029
-587.909	-106.132	0.087	-0.019
-586.894	-116.032	-0.048	0.009
-585.879	70.119	-0.155	-0.160
-584.865	-200.000	0.076	-0.387
-583.850	74.327	-0.109	-0.114
-582.836	800.000	0.035	0.126
-581.821	800.000	0.045	0.171
-580.806	-65.764	0.144	-0.058
-579.792	328.463	0.047	-0.090
-578.777	-87.539	0.496	0.150
-577.763	18.128	0.107	0.085
-576.748	-55.623	-0.379	-0.169
-575.733	64.174	-0.142	0.143
-574.719	-200.000	-0.010	0.368
-573.704	800.000	0.035	0.115
-572.690	-200.000	-0.017	-0.357
-571.675	232.022	0.081	-0.133
-570.661	-126.278	-0.057	-0.008
-569.646	-114.399	-0.239	-0.046
-568.631	800.000	0.077	0.305
-567.617	-132.563	0.303	-0.039
-566.602	293.357	-0.041	-0.075
-565.588	-22.662	0.169	0.102
-564.573	-18.231	0.323	-0.201
-563.558	-200.000	0.032	0.280
-562.544	-27.557	0.056	-0.032
-561.529	174.923	-0.131	-0.190
-560.515	-55.182	-0.229	-0.103
-559.500	-90.598	0.132	0.038
-558.485	-20.436	0.389	-0.239
-557.471	-168.466	-0.136	-0.005
-556.456	-43.151	0.272	-0.137
-555.442	-110.211	0.382	-0.079
-554.427	-200.000	0.024	-0.428
-553.412	764.546	-0.125	-0.339
-552.398	-63.727	-0.305	0.125
-551.383	75.887	-0.201	-0.211
-550.369	469.492	-0.057	0.128
-549.354	26.677	-0.107	0.089
-548.339	-200.000	-0.005	-0.133
-547.325	800.000	-0.050	-0.154
-546.310	800.000	0.070	0.293
-545.296	-75.620	-0.249	0.088
-544.281	-33.491	0.027	-0.015
-543.266	85.114	0.098	0.107
-542.252	-152.209	0.249	-0.018
-541.237	-200.000	-0.012	-0.153
-540.223	118.478	0.166	0.205
-539.208	54.885	0.150	0.144
-538.193	-73.996	-0.120	0.043
-537.179	-158.942	-0.192	0.011
-536.164	206.850	-0.140	0.217
-535.150	162.713	0.125	-0.175
-534.135	35.448	-0.199	0.174
-533.121	116.580	-0.133	-0.162
-532.106	-4.280	-0.116	0.080
-531.091	153.090	-0.109	0.149
-530.077	43.600	-0.187	-0.170
-529.062	-200.000	-0.057	-0.260
-528.048	-200.000	-0.006	0.054
-527.033	169.533	0.279	-0.396
-526.018	-200.000	0.003	0.116
-525.004	-48.659	-0.136	-0.065
-523.989	173.148	-0.061	0.087
-522.975	-71.765	-0.536	0.199
-521.960	103.616	0.134	0.156
-520.945	-6.556	-0.053	0.036
-519.931	-22.335	-0.124	-0.075
-518.916	-30.750	-0.141	0.079
-517.902	553.494	0.030	0.072
-516.887	-88.312	-0.084	-0.025
-515.872	2.493	-0.286	-0.206
-514.858	200.996	-0.039	0.060
-513.843	-200.000	-0.009	0.148
-512.829	-140.803	-0.210	-0.021
-511.814	-96.510	-0.391	0.103
-510.799	-71.388	0.045	0.017
-509.785	800.000	0.051	-0.203
-508.770	-90.039	-0.402	-0.117
-507.756	-128.678	0.454	-0.064
-506.741	-189.054	-0.225	0.003
-505.726	-47.580	-0.309	0.149
-504.712	-131.756	-0.161	-0.021
-503.697	79.205	-0.266	0.283
-502.683	-23.441	-0.145	0.087
-501.668	166.248	0.089	0.126
-500.653	205.403	0.103	-0.159
-499.639	800.000	-0.018	0.066
-498.624	-74.237	0.240	0.086
-497.610	-112.873	-0.149	0.029
-496.595	33.263	-0.093	0.081
-495.581	-18.798	-0.156	0.097
-494.566	-200.000	-0.026	-0.247
-493.551	-60.749	0.099	0.042
-492.537	-200.000	-0.020	-0.173
-491.522	-107.979	-0.328	0.071
-490.508	23.753	0.099	0.081
-489.493	39.349	-0.151	-0.134
-488.478	-200.000	0.028	0.147
-487.464	-67.211	0.223	0.087
-486.449	-64.969	0.076	-0.031
-485.435	-119.315	-0.221	-0.038
-484.420	-106.919	0.590	-0.130
-483.405	-200.000	0.015	-0.299
-482.391	-125.904	-0.209	-0.031
-481.376	59.954	0.115	-0.113
-480.362	-100.286	0.310	0.076
-479.347	172.859	-0.148	-0.212
-478.332	33.576	0.106	-0.091
-477.318	101.357	0.072	-0.084
-476.303	800.000	0.132	-0.468
-475.289	-10.107	0.504	-0.333
-474.274	506.605	-0.052	0.119
-473.259	-59.934	0.220	-0.093
-472.245	208.930	0.200	-0.310
-471.230	-137.969	-0.168	0.019
-470.216	227.041	0.218	0.353
-469.201	484.071	-0.106	0.240
-468.186	-140.129	-0.294	0.031
-467.172	-200.000	-0.006	-0.134
-466.157	-200.000	0.013	0.196
-465.143	690.376	-0.041	0.108
-464.128	-46.306	-0.111	-0.054
-463.113	179.842	0.084	0.122
-462.099	-25.196	0.151	0.089
-461.084	-200.000	0.030	-0.179
-460.070	800.000	0.028	-0.120
-459.055	-200.000	0.021	-0.303
-458.040	79.056	-0.086	0.091
-457.026	-200.000	0.045	0.358
-456.011	-171.883	-0.179	0.006
-454.997	800.000	0.068	-0.277
-453.982	-200.000	-0.013	0.220
-452.968	-138.613	-0.127	-0.014
-451.953	-200.000	0.072	-0.451
-450.938	-200.000	0.003	-0.147
-449.924	-97.714	0.342	0.088
-448.909	400.070	0.141	-0.293
-447.895	270.390	-0.039	-0.067
-446.880	85.639	0.133	0.145
-445.865	-75.199	-0.183	-0.065
-444.851	800.000	0.056	-0.207
-443.836	-116.836	-0.127	-0.023
-442.822	-200.000	0.008	0.205
-441.807	334.763	0.074	0.143
-440.792	57.111	-0.009	-0.008
-439.778	-17.645	0.232	-0.145
-438.763	-164.228	-0.266	-0.012
-437.749	228.792	0.208	-0.336
-436.734	243.464	-0.165	0.275
-435.719	70.177	0.146	-0.149
-434.705	158.965	-0.185	0.255
-433.690	601.731	-0.077	0.190
-432.676	-93.862	0.242	-0.066
-431.661	596.204	0.136	-0.335
-430.646	-164.927	-0.302	0.013
-429.632	-111.531	-0.162	-0.033
-428.617	-53.672	0.055	0.025
-427.603	-200.000	-0.018	-0.446
-426.588	800.000	-0.067	0.241
-425.573	-121.259	-0.071	0.012
-424.559	800.000	-0.034	-0.124
-423.544	-200.000	0.000	-0.083
-422.530	-200.000	0.011	0.089
-421.515	623.442	0.080	0.199
-420.500	-109.438	0.307	0.064
-419.486	194.677	-0.035	-0.053
-418.471	518.418	0.134	0.311
-417.457	-113.597	-0.155	-0.030
-416.442	-200.000	0.023	-0.294
-415.428	-200.000	0.013	0.116
-414.413	150.648	0.211	-0.285
-413.398	-98.646	-0.228	-0.058
-412.384	204.744	0.196	-0.302
-411.369	-104.786	0.313	0.071
-410.355	-165.459	-0.158	0.007
-409.340	800.000	-0.099	-0.339
-408.325	800.000	-0.090	0.304
-407.311	325.502	-0.073	-0.138
-406.296	10.707	-0.192	-0.145
-405.282	218.136	0.207	0.327
-404.267	52.223	-0.178	0.168
-403.252	800.000	-0.080	0.229
-402.238	497.782	0.109	0.250
-401.223	268.446	-0.080	0.140
-400.209	0.766	0.271	-0.192
-399.194	513.827	0.068	-0.156
-398.179	67.041	-0.084	-0.085
-397.165	539.049	-0.044	-0.105
-396.150	800.000	-0.098	0.296
-395.136	410.759	0.057	0.120
-394.121	-61.983	-0.287	0.119
-393.106	38.439	0.100	0.088
-392.092	-183.990	-0.126	0.002
-391.077	-200.000	-0.005	0.192
-390.063	218.343	0.047	0.075
-389.048	-200.000	0.001	-0.031
-388.033	78.674	0.121	-0.128
-387.019	100.673	0.189	-0.218
-386.004	-161.402	0.174	0.009
-384.990	800.000	0.102	0.292
-383.975	-200.000	0.057	0.375
-382.960	240.927	0.174	-0.287
-381.946	800.000	0.066	0.206
-380.931	-200.000	0.023	0.168
-379.917	-111.400	-0.320	-0.065
-378.902	-9.936	-0.236	-0.155
-377.888	-45.325	-0.120	0.059
-376.873	-36.440	0.196	0.105
-375.858	800.000	-0.032	0.088
-374.844	279.750	0.117	-0.208
-373.829	-45.303	-0.120	0.059
-372.815	800.000	0.088	0.374
-371.800	-124.685	0.316	0.048
-370.785	-1.601	0.339	-0.237
-369.771	-200.000	-0.052	0.326
-368.756	75.235	-0.156	0.163
-367.742	5.583	0.209	-0.153
-366.727	616.255	-0.047	0.117
-365.712	-156.321	0.239	-0.015
-364.698	-73.206	-0.029	-0.011
-363.683	304.213	0.099	0.182
-362.669	189.774	0.023	-0.033
-361.654	78.941	0.139	0.147
-360.639	800.000	-0.004	0.010
-359.625	-142.947	-0.272	-0.026
-358.610	54.867	0.050	-0.048
-357.596	-20.218	-0.224	0.136
-356.581	-61.236	0.252	0.105
-355.566	-54.441	-0.116	0.052
-354.552	-140.318	0.181	-0.019
-353.537	127.301	0.125	-0.157
-352.523	556.191	0.136	-0.323
-351.508	213.233	-0.083	-0.129
-350.493	800.000	-0.070	0.237
-349.479	754.601	-0.049	0.131
-348.464	-200.000	0.037	0.210
-347.450	-94.510	-0.325	-0.087
-346.435	800.000	-0.030	0.104
-345.420	-200.000	-0.012	0.376
-344.406	800.000	-0.039	0.160
-343.391	-109.578	-0.122	-0.025
-342.377	-200.000	0.013	-0.129
-341.362	268.483	-0.160	0.276
-340.348	29.518	0.223	-0.187
-339.333	546.236	-0.119	-0.282
-338.318	43.635	0.232	0.209
-337.304	-200.000	-0.002	0.161
-336.289	22.201	0.207	-0.167
-335.275	-200.000	0.008	0.116
-334.260	111.873	0.054	0.065
-333.245	-92.087	-0.216	-0.060
-332.231	-153.084	0.051	-0.004
-331.216	-86.132	-0.258	-0.079
-330.202	-37.308	0.176	0.093
-329.187	800.000	0.069	0.280
-328.172	-200.000	0.052	-0.231
-327.158	240.393	-0.279	0.459
-326.143	-200.000	0.083	-0.393
-325.129	-200.000	0.006	-0.034
-324.114	189.291	-0.092	-0.136
-323.099	-32.469	-0.162	0.089
-322.085	75.386	0.138	0.144
-321.070	-118.194	0.164	0.029
-320.056	3.177	0.263	-0.189
-319.041	96.218	0.158	0.178
-318.026	52.791	0.088	-0.083
-317.012	-75.715	-0.157	-0.055
-315.997	81.079	-0.238	0.254
-314.983	69.109	0.424	0.430
-313.968	-34.026	-0.101	0.055
-312.953	-200.000	0.022	0.096
-311.939	800.000	-0.062	-0.266
-310.924	-124.834	-0.272	-0.042
-309.910	326.962	0.021	-0.040
-308.895	-108.621	0.204	0.043
-307.880	800.000	0.082	-0.297
-306.866	98.196	-0.084	-0.095
-305.851	800.000	-0.052	0.207
-304.837	-0.733	-0.181	-0.127
-303.822	-157.433	0.230	-0.014
-302.807	-68.306	-0.226	0.086
-301.793	-93.220	0.046	-0.013
-300.778	800.000	-0.155	-0.612
-299.764	-104.382	-0.327	0.075
-298.749	-196.162	0.349	0.002
-297.735	-136.283	0.106	0.012
-296.720	-200.000	0.006	-0.164
-295.705	-151.740	0.276	0.020
-294.691	474.853	-0.099	0.220
-293.676	-200.000	0.339	-0.002
-292.662	-45.219	0.173	-0.085
-291.647	-142.804	-0.073	0.007
-290.632	66.855	-0.089	0.090
-289.618	78.920	-0.228	-0.241
-288.603	61.308	0.386	-0.379
-287.589	-164.719	0.263	-0.012
-286.574	800.000	-0.016	0.062
-285.559	249.929	-0.104	-0.173
-284.545	315.124	-0.115	0.215
-283.530	-28.255	-0.320	0.182
-282.516	-200.000	0.001	-0.024
-281.501	-29.595	0.242	0.136
-280.486	-64.807	0.361	0.144
-279.472	281.937	0.279	0.492
-278.457	6.437	-0.258	0.189
-277.443	-200.000	-0.083	0.439
-276.428	523.037	-0.165	-0.382
-275.413	-154.667	-0.383	0.025
-274.399	250.403	0.115	0.192
-273.384	692.600	-0.246	0.637
-272.370	298.809	0.174	-0.316
-271.355	-161.037	0.287	-0.015
-270.340	800.000	0.074	-0.289
-269.326	178.721	-0.234	-0.337
-268.311	-200.000	0.010	-0.194
-267.297	-46.196	0.206	0.100
-266.282	-200.000	-0.065	0.385
-265.267	-31.387	-0.099	0.055
-264.253	-200.000	0.022	-0.210
-263.238	332.316	-0.147	0.279
-262.224	-200.000	0.025	-0.249
-261.209	-111.045	-0.387	0.078
-260.195	-167.446	0.480	-0.019
-259.180	-200.000	0.007	0.429
-258.165	426.851	-0.151	-0.321
-257.151	28.112	-0.376	-0.312
-256.136	-107.392	0.256	-0.055
-255.122	-107.355	-0.214	0.046
-254.107	239.469	-0.142	-0.233
-253.092	52.882	0.163	0.154
-252.078	-76.862	-0.142	0.049
-251.063	800.000	-0.053	0.154
-250.049	145.885	0.113	0.150
-249.034	-98.712	-0.168	-0.042
-248.019	-200.000	-0.010	0.244
-247.005	126.674	-0.072	0.090
-245.990	109.695	-0.107	-0.126
-244.976	-200.000	0.003	0.431
-243.961	170.020	0.236	-0.332
-242.946	328.528	-0.082	-0.155
-241.932	40.476	-0.142	-0.126
-240.917	47.608	0.149	0.136
-239.903	15.894	0.270	-0.209
-238.888	322.978	-0.140	-0.263
-237.873	546.850	-0.045	0.107
-236.859	800.000	-0.085	0.296
-235.844	-106.731	0.108	-0.024
-234.830	-9.171	0.401	0.264
-233.815	213.746	0.155	-0.241
-232.800	57.827	0.056	0.054
-231.786	-80.714	0.037	-0.012
-230.771	50.815	-0.217	0.202
-229.757	67.867	0.097	0.098
-228.742	800.000	-0.059	0.215
-227.727	14.731	-0.251	-0.193
-226.713	151.044	0.077	0.103
-225.698	22.687	-0.079	-0.064
-224.684	-38.385	-0.296	-0.154
-223.669	-7.630	-0.202	0.134
-222.655	-46.819	-0.188	-0.090
-221.640	102.976	-0.138	0.159
-220.625	298.831	0.077	0.139
-219.611	79.164	0.085	-0.089
-218.596	452.248	0.152	-0.331
-217.582	800.000	-0.087	-0.298
-216.567	-116.339	-0.303	-0.055
-215.552	-200.000	-0.009	0.046
-214.538	-22.550	-0.256	0.152
-213.523	210.930	0.124	-0.191
-212.509	190.445	-0.174	0.256
-211.494	-200.000	-0.005	-0.155
-210.479	99.812	-0.102	-0.116
-209.465	-118.419	-0.191	-0.033
-208.450	800.000	-0.091	-0.291
-207.436	491.574	0.060	0.135
-206.421	-8.757	0.254	0.167
-205.406	67.532	0.163	0.163
-204.392	256.884	0.194	0.328
-203.377	-200.000	0.002	0.099
-202.363	14.233	-0.125	-0.095
-201.348	-200.000	-0.041	0.201
-200.333	58.556	0.156	0.150
-199.319	17.793	0.139	-0.109
-198.304	-141.167	-0.240	0.024
-197.290	-22.630	0.249	0.148
-196.275	800.000	-0.029	0.093
-195.260	-50.885	0.101	0.046
-194.246	-0.187	0.256	-0.179
-193.231	-140.572	-0.128	-0.013
-192.217	-143.633	-0.288	0.027
-191.202	197.729	-0.096	-0.144
-190.187	55.184	0.033	0.031
-189.173	499.580	-0.061	-0.139
-188.158	133.890	0.010	0.013
-187.144	155.242	-0.175	0.236
-186.129	-106.877	-0.227	0.049
-185.114	38.367	0.148	0.130
-184.100	-200.000	0.025	-0.210
-183.085	323.463	-0.108	-0.202
-182.071	758.035	-0.145	0.385
-181.056	-200.000	-0.035	-0.353
-180.042	77.675	0.185	0.193
-179.027	-142.951	-0.136	0.013
-178.012	208.944	-0.131	0.201
-176.998	-144.306	0.271	-0.025
-175.983	-55.693	-0.096	0.042
-174.969	14.626	-0.181	-0.138
-173.954	71.187	0.071	-0.073
-172.939	-200.000	0.018	0.164
-171.925	46.085	0.126	0.114
-170.910	38.451	-0.296	0.259
-169.896	49.448	0.206	0.190
-168.881	464.465	0.067	-0.146
-167.866	-13.538	0.211	0.134
-166.852	92.656	0.069	0.076
-165.837	800.000	-0.092	0.311
-164.823	-46.523	-0.101	0.049
-163.808	-144.877	0.153	-0.014
-162.793	783.098	-0.101	0.271
-161.779	-1.280	0.149	-0.103
-160.764	-119.862	-0.153	-0.026
-159.750	-155.946	0.302	-0.019
-158.735	99.079	0.202	0.229
-157.720	11.770	-0.131	-0.099
-156.706	698.205	0.099	0.255
-155.691	-83.459	0.095	0.030
-154.677	6.785	0.275	-0.201
-153.662	62.084	-0.024	0.024
-152.647	-200.000	-0.025	-0.232
-151.633	-200.000	-0.012	0.110
-150.618	428.003	-0.114	0.242
-149.604	-200.000	0.086	0.408
-148.589	549.685	0.081	0.189
-147.574	412.152	0.121	0.252
-146.560	255.357	0.081	0.137
-145.545	150.939	-0.289	-0.385
-144.531	-164.411	-0.159	0.007
-143.516	254.191	0.126	0.211
-142.502	-15.073	-0.092	-0.058
-141.487	-188.375	0.432	-0.005
-140.472	-33.521	-0.342	-0.185
-139.458	800.000	0.077	-0.330
-138.443	-200.000	-0.052	0.255
-137.429	-112.863	0.196	0.038
-136.414	-72.124	0.170	0.062
-135.399	24.191	0.027	0.022
-134.385	-39.082	0.098	-0.051
-133.370	-102.740	-0.027	-0.006
-132.356	89.436	0.115	-0.125
-131.341	-56.107	-0.094	-0.041
-130.326	16.956	0.148	-0.115
-129.312	8.285	-0.246	0.181
-128.297	800.000	0.036	-0.102
-127.283	358.181	0.131	-0.257
-126.268	-200.000	-0.000	-0.034
-125.253	-11.188	-0.073	-0.047
-124.239	-133.405	0.168	-0.021
-123.224	-128.167	-0.234	0.033
-122.210	-51.318	-0.045	0.021
-121.195	-200.000	-0.025	0.157
-120.180	-63.076	0.359	0.145
-119.166	-200.000	0.069	0.322
-118.151	800.000	-0.048	0.152
-117.137	-16.585	0.262	0.162
-116.122	-85.942	0.276	-0.084
-115.107	-67.256	-0.057	0.022
-114.093	155.322	0.208	-0.281
-113.078	-200.000	-0.010	-0.064
-112.064	46.085	-0.206	0.187
-111.049	-110.189	-0.090	-0.018
-110.034	417.948	-0.083	0.173
-109.020	42.023	0.127	0.113
-108.005	-49.770	-0.617	-0.287
-106.991	-107.786	0.113	-0.024
-105.976	-200.000	0.006	0.535
-104.962	-200.000	-0.042	0.192
-103.947	-130.407	0.146	0.019
-102.932	800.000	0.110	0.315
-101.918	-200.000	-0.038	0.264
-100.903	-126.759	-0.061	0.009
-99.889	-88.177	0.232	0.068
-98.874	-200.000	-0.007	-0.430
-97.859	-200.000	0.018	-0.207
-96.845	791.863	-0.158	-0.426
-95.830	182.107	-0.107	-0.155
-94.816	-112.233	-0.139	0.027
-93.801	359.521	-0.078	-0.153
-92.786	-58.074	0.402	0.172
-91.772	568.452	-0.097	-0.230
-90.757	-127.611	0.409	-0.058
-89.743	-95.760	-0.318	-0.083
-88.728	-46.328	0.078	0.037
-87.713	-200.000	-0.003	0.314
-86.699	32.044	-0.179	0.151
-85.684	201.074	0.146	0.220
-84.670	-64.883	0.198	0.078
-83.655	-43.415	0.415	0.205
-82.640	250.236	0.140	0.232
-81.626	2.972	0.261	0.185
-80.611	24.183	-0.206	-0.166
-79.597	800.000	0.020	0.063
-78.582	122.095	-0.170	0.208
-77.567	149.610	0.038	-0.050
-76.553	-200.000	-0.020	0.180
-75.538	-200.000	-0.011	0.258
-74.524	-200.000	0.006	0.084
-73.509	-68.149	-0.258	0.098
-72.494	596.412	0.118	-0.286
-71.480	653.394	-0.045	0.113
-70.465	-200.000	-0.003	-0.191
-69.451	-144.595	0.322	-0.029
-68.436	0.531	0.062	-0.043
-67.422	7.430	-0.168	0.123
-66.407	-200.000	-0.010	-0.108
-65.392	-27.891	0.173	0.098
-64.378	-144.335	-0.063	-0.006
-63.363	317.407	-0.150	-0.278
-62.349	72.591	-0.064	0.065
-61.334	76.861	-0.980	-1.016
-60.319	-54.192	0.598	0.265
-59.305	800.000	-0.317	-0.945
-58.290	647.089	0.552	1.378
-57.276	800.000	0.538	1.738
-56.261	-200.000	116.565	658.676
-55.246	526.078	1535.258	3532.588
-54.232	176.419	2707.553	3843.736
-53.217	107.540	2182.105	2536.897
-52.203	37.708	1699.911	1474.585
-51.188	29.959	1515.560	1262.044
-50.173	27.730	1491.029	1226.600
-49.159	52.105	1550.418	1443.195
-48.144	50.029	1564.908	1442.423
-47.130	30.150	1520.771	1267.489
-46.115	27.090	1505.390	1233.875
-45.100	26.941	1501.757	1229.837
-44.086	26.715	1500.408	1227.152
-43.071	26.788	1498.476	1226.018
-42.057	26.761	1496.770	1224.390
-41.042	26.835	1495.307	1223.646
-40.027	26.770	1493.965	1222.059
-39.013	26.742	1492.532	1220.652
-37.998	26.709	1491.373	1219.433
-36.984	26.754	1490.007	1218.573
-35.969	26.784	1489.092	1217.976
-34.954	26.712	1487.270	1215.956
-33.940	26.791	1485.829	1215.260
-32.925	26.793	1484.421	1214.071
-31.911	26.851	1482.982	1213.233
-30.896	26.852	1481.952	1212.352
-29.881	26.816	1480.928	1211.223
-28.867	26.790	1479.872	1210.135
-27.852	26.852	1478.477	1209.364
-26.838	26.846	1476.483	1207.642
-25.823	26.928	1474.933	1206.872
-24.809	26.862	1473.622	1205.317
-23.794	26.905	1471.894	1204.136
-22.779	26.851	1471.091	1203.073
-21.765	26.826	1470.061	1202.020
-20.750	26.860	1468.803	1201.165
-19.736	26.918	1467.856	1200.728
-18.721	26.748	1467.230	1199.044
-17.706	26.747	1465.389	1197.488
-16.692	26.767	1464.795	1197.088
-15.677	26.863	1463.584	1196.684
-14.663	26.946	1462.354	1196.175
-13.648	26.819	1461.923	1194.938
-12.633	26.869	1460.255	1193.858
-11.619	26.803	1460.395	1193.491
-10.604	26.789	1459.142	1192.327
-9.590	26.787	1458.223	1191.515
-8.575	26.836	1457.360	1191.082
-7.560	26.852	1456.504	1190.442
-6.546	26.797	1455.600	1189.295
-5.531	26.784	1454.893	1188.584
-4.517	26.808	1453.862	1187.851
-3.502	26.743	1452.732	1186.460
-2.487	26.894	1451.537	1186.422
-1.473	26.707	1450.948	1184.670
-0.458	26.807	1449.045	1183.726
0.556	27.068	1439.635	1173.169
1.571	24.201	1414.421	1134.303
2.586	20.848	1353.686	1065.033
3.600	19.195	1270.499	990.003
4.615	17.967	1225.920	948.369
5.629	15.373	1169.493	890.880
6.644	8.823	1087.554	795.946
7.659	4.100	1050.741	746.226
8.673	3.384	1045.885	739.276
9.688	3.319	1042.705	736.653
10.702	3.206	1041.647	735.299
11.717	3.471	1038.883	734.548
12.731	5.118	1040.252	743.299
13.746	11.722	1049.436	781.440
14.761	17.843	1057.189	816.523
15.775	19.709	1058.525	826.409
16.790	19.311	1057.024	823.266
17.804	18.136	1055.094	816.082
18.819	17.227	1053.321	810.307
19.834	16.703	1052.255	806.920
20.848	16.678	1050.870	805.666
21.863	16.474	1050.594	804.413
22.877	16.265	1050.038	802.925
23.892	16.238	1048.770	801.752
24.907	16.046	1048.030	800.208
25.921	15.998	1047.459	799.469
26.936	16.030	1046.957	799.168
27.950	15.976	1045.978	798.094
28.965	16.153	1044.556	797.776
29.980	16.087	1043.752	796.780
30.994	16.325	1042.470	796.856
32.009	16.316	1041.817	796.242
33.023	16.406	1040.854	795.861
34.038	16.267	1040.129	794.583
35.053	16.287	1039.122	793.833
36.067	16.267	1037.714	792.596
37.082	16.139	1036.792	791.220
38.096	16.182	1036.559	791.173
39.111	16.133	1036.027	790.469
40.126	16.302	1035.048	790.444
41.140	16.224	1033.461	788.797
42.155	15.961	1032.761	786.966
43.169	15.912	1031.115	785.413
44.184	15.848	1030.221	784.362
45.199	15.840	1029.451	783.671
46.213	15.873	1028.213	782.815
47.228	15.899	1027.293	782.162
48.242	16.018	1026.759	782.238
49.257	16.188	1025.891	782.297
50.271	16.164	1024.444	781.016
51.286	16.126	1024.062	780.479
52.301	16.198	1023.176	780.067
53.315	16.135	1022.133	778.913
54.330	16.129	1021.280	778.166
55.344	16.004	1020.630	777.027
56.359	16.067	1019.131	776.105
57.374	15.925	1018.691	775.049
58.388	16.027	1017.920	774.861
59.403	15.979	1016.495	773.489
60.417	15.834	1016.074	772.433
61.432	15.874	1015.416	772.050
62.447	15.800	1015.179	771.462
63.461	15.819	1013.659	770.323
64.476	15.687	1012.635	768.876
65.490	15.777	1011.813	768.594
66.505	15.623	1011.078	767.266
67.520	15.782	1010.380	767.390
68.534	15.725	1009.664	766.519
69.549	15.839	1009.164	766.593
70.563	15.875	1008.245	765.989
71.578	15.762	1007.664	764.968
72.593	15.693	1006.585	763.767
73.607	15.557	1005.638	762.362
74.622	15.705	1004.398	762.028
75.636	15.654	1003.570	761.099
76.651	15.717	1002.668	760.633
77.666	15.755	1002.148	760.343
78.680	15.662	1001.758	759.560
79.695	15.812	1001.060	759.641
80.709	15.827	1000.415	759.151
81.724	15.800	999.780	758.481
82.739	15.930	999.115	758.497
83.753	15.929	998.429	757.902
84.768	16.019	997.557	757.579
85.782	16.191	997.324	758.107
86.797	16.417	995.990	758.041
87.812	16.229	995.891	757.054
88.826	16.247	994.424	755.953
89.841	16.161	993.734	754.978
90.855	16.258	993.263	754.987
91.870	16.266	992.303	754.224
92.884	16.399	991.541	754.176
93.899	16.312	990.749	753.115
94.914	16.284	990.321	752.599
95.928	16.334	989.255	751.946
96.943	16.503	988.362	751.952
97.957	16.376	987.546	750.700
98.972	16.367	987.069	750.231
99.987	16.222	986.349	748.972
101.001	16.238	985.497	748.332
102.016	16.268	984.628	747.737
103.030	16.314	983.468	746.993
104.045	16.249	983.109	746.367
105.060	16.318	981.867	745.666
106.074	16.200	980.546	744.074
107.089	16.145	979.461	742.941
108.103	16.059	978.752	741.963
109.118	15.832	977.782	740.161
110.133	15.837	977.096	739.600
111.147	15.808	976.440	738.910
112.162	15.856	975.460	738.313
113.176	15.902	974.431	737.669
114.191	15.803	973.918	736.786
115.206	16.031	973.139	737.129
116.220	16.122	971.896	736.518
117.235	15.908	970.915	734.775
118.249	15.968	970.630	734.756
119.264	15.865	970.012	733.775
120.279	15.742	969.137	732.512
121.293	15.912	968.095	732.400
122.308	15.795	967.579	731.437
123.322	15.794	966.486	730.542
124.337	15.764	965.301	729.451
125.352	15.772	963.911	728.370
126.366	15.763	963.279	727.787
127.381	15.740	962.163	726.782
128.395	15.679	961.325	725.819
129.410	15.601	960.850	725.060
130.424	15.719	959.523	724.503
131.439	15.828	958.327	724.008
132.454	15.941	957.789	724.020
133.468	16.022	957.089	723.774
134.483	15.889	956.418	722.635
135.497	15.924	955.972	722.382
136.512	15.924	955.099	721.662
137.527	15.860	954.248	720.678
138.541	15.974	953.444	720.494
139.556	15.997	952.899	720.119
140.570	15.913	952.578	719.454
141.585	16.093	951.490	719.337
142.600	16.125	951.386	719.330
143.614	16.257	950.595	719.230
144.629	16.283	949.592	718.519
145.643	16.362	949.300	718.568
146.658	16.274	948.470	717.503
147.673	16.180	947.493	716.302
148.687	16.178	946.461	715.449
149.702	16.151	945.206	714.326
150.716	16.023	944.229	712.983
151.731	16.027	943.763	712.585
152.746	15.935	943.021	711.572
153.760	16.051	942.203	711.381
154.775	16.143	941.436	711.124
155.789	16.364	940.562	711.333
156.804	16.377	940.158	711.022
157.819	16.107	939.421	709.267
158.833	16.217	938.716	709.134
159.848	16.379	938.212	709.367
160.862	16.417	937.416	708.863
161.877	16.496	936.674	708.569
162.892	16.311	935.553	706.885
163.906	16.062	934.826	705.232
164.921	15.998	934.071	704.334
165.935	16.061	933.128	703.822
166.950	16.082	932.065	703.044
167.964	16.153	931.462	702.824
168.979	16.184	930.168	701.915
169.994	16.188	929.444	701.322
171.008	16.222	928.467	700.664
172.023	16.229	927.723	700.071
173.037	16.300	927.297	699.980
174.052	16.380	926.954	699.991
175.067	16.462	925.958	699.517
176.081	16.366	924.647	698.071
177.096	16.204	923.924	696.793
178.110	16.165	922.988	695.864
179.125	16.180	922.448	695.456
180.140	16.336	921.655	695.442
181.154	16.424	920.484	694.858
182.169	16.301	920.722	694.471
183.183	16.474	919.951	694.536
184.198	16.498	919.230	694.029
185.213	16.452	918.854	693.497
186.227	16.441	918.078	692.802
187.242	16.521	917.532	692.659
188.256	16.607	916.988	692.540
189.271	16.689	916.228	692.238
190.286	16.639	915.720	691.590
191.300	16.581	914.665	690.495
192.315	16.154	914.003	688.189
193.329	16.122	913.082	687.307
194.344	16.120	912.418	686.739
195.359	16.095	912.126	686.357
196.373	16.399	911.308	686.915
197.388	16.442	911.143	686.903
198.402	16.522	910.845	686.945
199.417	16.721	910.393	687.351
200.432	16.725	909.933	686.960
201.446	16.746	909.349	686.543
202.461	16.839	909.238	686.776
203.475	16.948	908.618	686.687
204.490	17.018	907.594	686.136
205.504	16.738	906.850	684.380
206.519	16.666	905.825	683.257
207.534	16.643	905.179	682.615
208.548	16.609	904.277	681.740
209.563	16.747	903.552	681.688
210.577	16.680	903.309	681.175
211.592	16.766	902.288	680.689
212.607	16.861	902.136	680.896
213.621	17.013	901.422	680.906
214.636	16.923	900.747	679.978
215.650	16.947	900.210	679.608
216.665	16.927	899.636	679.031
217.680	17.045	898.880	678.876
218.694	16.827	898.838	677.911
219.709	17.067	897.949	678.137
220.723	17.092	897.463	677.813
221.738	17.137	896.580	677.262
222.753	16.938	896.123	676.067
223.767	17.003	895.241	675.599
224.782	17.204	894.274	675.609
225.796	17.222	893.714	675.199
226.811	17.248	893.383	674.991
227.826	17.166	892.647	674.051
228.840	17.005	891.743	672.669
229.855	17.046	890.900	672.136
230.869	17.113	890.352	671.927
231.884	17.066	889.876	671.323
232.899	17.013	889.412	670.704
233.913	16.962	888.134	669.480
234.928	16.855	887.566	668.570
235.942	17.043	886.681	668.586
236.957	16.952	886.238	667.833
237.972	16.867	885.708	667.042
238.986	16.832	885.295	666.534
240.001	16.872	884.551	666.074
241.015	16.906	883.895	665.653
242.030	17.134	882.889	665.729
243.045	17.073	882.679	665.274
244.059	16.985	882.617	664.823
245.074	17.115	881.210	664.213
246.088	17.253	880.656	664.278
247.103	17.095	880.578	663.541
248.117	17.357	879.713	663.854
249.132	17.458	879.011	663.660
250.147	17.527	878.896	663.783
251.161	17.628	878.223	663.609
252.176	17.804	877.654	663.806
253.190	17.701	877.208	663.009
254.205	17.811	876.497	662.839
255.220	17.856	876.116	662.669
256.234	17.822	875.198	661.784
257.249	17.782	874.788	661.260
258.263	17.837	874.350	661.083
259.278	17.950	873.164	660.563
260.293	17.826	873.119	659.993
261.307	17.779	872.831	659.534
262.322	17.998	871.933	659.643
263.336	17.992	871.488	659.226
264.351	17.954	870.995	658.649
265.366	18.048	870.385	658.490
266.380	17.906	869.749	657.403
267.395	17.975	868.607	656.750
268.409	17.800	867.976	655.540
269.424	17.875	867.009	655.041
270.439	17.681	866.715	654.018
271.453	17.824	865.943	653.924
272.468	17.774	865.080	653.024
273.482	17.850	864.263	652.640
274.497	17.787	864.252	652.332
275.512	17.839	863.215	651.688
276.526	17.847	862.521	651.139
277.541	17.845	861.963	650.652
278.555	17.795	861.524	650.072
279.570	17.879	861.092	650.008
280.585	18.027	860.194	649.837
281.599	18.106	859.858	649.824
282.614	18.039	859.004	648.869
283.628	17.929	858.171	647.765
284.643	18.002	857.727	647.648
285.657	17.992	857.613	647.468
286.672	18.007	856.859	646.899
287.687	17.901	856.702	646.322
288.701	17.959	856.316	646.192
289.716	18.011	855.574	645.770
290.730	17.898	854.728	644.651
291.745	18.085	854.194	644.894
292.760	18.140	853.313	644.380
293.774	18.186	852.593	643.951
294.789	18.218	852.262	643.764
295.803	18.126	852.079	643.224
296.818	18.036	851.276	642.224
297.833	18.100	850.215	641.608
298.847	18.048	849.766	641.016
299.862	18.184	848.937	640.843
300.876	18.117	848.340	640.084
301.891	18.251	847.987	640.263
302.906	18.163	847.527	639.529
303.920	18.378	846.381	639.412
304.935	18.407	846.352	639.442
305.949	18.538	845.507	639.234
306.964	18.592	844.820	638.859
307.979	18.565	843.993	638.078
308.993	18.315	844.097	637.169
310.008	18.525	843.079	637.124
311.022	18.582	842.964	637.194
312.037	18.382	842.464	636.017
313.052	18.430	841.567	635.460
314.066	18.387	840.902	634.742
315.081	18.180	840.257	633.434
316.095	18.149	839.613	632.776
317.110	18.332	839.233	633.113
318.125	18.280	838.305	632.163
319.139	18.216	838.432	631.967
320.154	18.331	837.585	631.697
321.168	18.290	837.262	631.246
322.183	18.276	836.630	630.663
323.197	18.355	836.321	630.664
324.212	18.315	835.728	630.016
325.227	18.395	835.269	629.908
326.241	18.426	834.611	629.468
327.256	18.405	833.717	628.661
328.270	18.353	833.521	628.268
329.285	18.318	832.760	627.511
330.300	18.319	832.118	626.974
331.314	18.267	831.731	626.436
332.329	18.425	830.993	626.406
333.343	18.558	830.269	626.287
334.358	18.564	830.082	626.112
335.373	18.734	829.562	626.288
336.387	18.620	829.021	625.408
337.402	18.680	828.484	625.166
338.416	18.728	827.746	624.727
339.431	18.692	827.779	624.566
340.446	18.859	826.827	624.399
341.460	18.951	826.327	624.301
342.475	18.862	825.689	623.440
343.489	18.948	825.534	623.580
344.504	19.072	824.557	623.236
345.519	19.179	824.211	623.306
346.533	19.122	823.728	622.681
347.548	19.293	823.087	622.760
348.562	19.019	822.513	621.278
349.577	18.951	821.989	620.585
350.592	18.912	821.397	619.943
351.606	18.684	821.275	618.972
352.621	18.680	820.581	618.381
353.635	18.889	819.790	618.480
354.650	18.758	819.812	617.971
355.665	18.983	818.936	618.065
356.679	18.857	819.057	617.650
357.694	18.789	819.250	617.496
358.708	18.895	817.638	616.606
359.723	18.970	817.307	616.570
360.738	19.038	816.531	616.173
361.752	18.960	816.269	615.645
362.767	19.031	815.787	615.478
363.781	19.072	815.866	615.631
364.796	19.223	814.809	615.318
365.810	19.299	814.637	615.407
366.825	19.483	814.266	615.726
367.840	19.572	813.892	615.706
368.854	19.473	813.487	614.995
369.869	19.170	813.425	613.812
370.883	19.199	812.484	613.153
371.898	19.273	812.047	613.029
372.913	19.332	811.137	612.500
373.927	19.563	810.824	613.027
374.942	19.347	810.702	612.114
375.956	19.309	809.915	611.331
376.971	19.616	808.622	611.388
377.986	19.545	808.670	611.121
379.000	19.634	808.001	610.874
380.015	19.410	807.905	609.955
381.029	19.593	807.121	609.956
382.044	19.538	806.589	609.306
383.059	19.690	805.759	609.162
384.073	19.524	805.650	608.441
385.088	19.469	804.979	607.685
386.102	19.442	804.229	606.971
387.117	19.431	803.820	606.569
388.132	19.415	803.055	605.884
389.146	19.537	802.917	606.155
390.161	19.569	802.276	605.728
391.175	19.431	802.473	605.338
392.190	19.732	801.209	605.385
393.205	19.705	800.918	605.017
394.219	19.527	800.969	604.381
395.234	19.492	800.530	603.874
396.248	19.426	799.787	603.028
397.263	19.413	799.107	602.416
398.278	19.284	798.528	601.477
399.292	19.353	798.120	601.358
400.307	19.327	797.843	601.004
401.321	19.432	797.711	601.218
402.336	19.411	797.299	600.779
403.350	19.445	796.953	600.587
404.365	19.485	796.529	600.352
405.380	19.587	796.169	600.382
406.394	19.746	795.700	600.528
407.409	19.766	795.349	600.278
408.423	19.752	794.993	599.909
409.438	19.925	794.416	600.019
410.453	20.013	793.697	599.728
411.467	19.914	793.895	599.481
412.482	19.924	793.266	598.988
413.496	20.071	792.954	599.209
414.511	20.120	792.236	598.783
415.526	20.156	791.898	598.599
416.540	20.124	791.287	597.973
417.555	20.073	790.689	597.292
418.569	20.132	790.105	597.003
419.584	19.948	789.941	596.192
420.599	20.058	789.474	596.166
421.613	162.000	1370.893	1797.795
422.628	140.311	1455.600	1797.883
