DTS Sentinel unit serial number:	SN413079Multiplexer serial number:	ORYXHardware model number:	OX4-SRSoftware version number:	ORYX F/W v4.00 Oryx Data Collector v3.7.2.0data status	okinstallation	princeton_trtdifferential loss correction	single-endedforward channel	channel 3reverse channel	N/Adate	2019/09/12time	16:46:10forward acquisition time	60.00reverse acquisition time	0.00gamma	496.2192k internal	0.2308k external	0.2308temperature offset calibration	1.0081default loss term (dB/km)	0.3790temperature slope calibration	1.0000multiplexer offset coefficient	1.0000multiplexer slope coefficient	1.0000fibre end	0.00T internal ref (°C)	36.42T ext. ref 1 (°C)	2.70T ext. ref 2 (°C)	29.61length (m)	temperature (°C)	Stokes	anti-Stokes-747.200	-81.362	0.274	-0.092
-746.185	-200.000	0.032	0.158
-745.171	15.170	0.194	0.155
-744.156	-61.663	-0.139	0.059
-743.142	397.432	0.013	0.027
-742.127	-200.000	-0.038	0.522
-741.112	499.695	0.033	-0.078
-740.098	-89.045	-0.135	0.041
-739.083	-105.339	-0.060	-0.014
-738.069	-200.000	-0.049	0.270
-737.054	114.320	0.077	0.095
-736.039	-0.388	0.112	-0.081
-735.025	800.000	0.113	0.469
-734.010	-24.958	0.315	0.190
-732.996	458.649	-0.113	-0.256
-731.981	-75.518	-0.196	0.071
-730.966	-86.112	-0.240	-0.075
-729.952	181.164	-0.110	0.164
-728.937	-24.784	-0.055	0.033
-727.923	800.000	0.094	-0.283
-726.908	-108.173	0.160	0.035
-725.894	682.916	-0.205	-0.542
-724.879	81.615	0.087	-0.095
-723.864	-153.961	-0.280	0.019
-722.850	644.335	-0.057	0.147
-721.835	-81.199	-0.438	-0.147
-720.821	112.975	-0.212	0.261
-719.806	146.088	0.244	-0.332
-718.791	64.895	0.187	-0.192
-717.777	47.464	0.196	-0.185
-716.762	761.571	0.087	-0.239
-715.748	41.510	0.155	0.142
-714.733	-200.000	-0.016	0.223
-713.718	-93.455	-0.245	0.069
-712.704	-145.306	-0.236	-0.022
-711.689	-133.478	0.152	-0.019
-710.675	800.000	-0.088	-0.284
-709.660	-200.000	-0.003	0.086
-708.645	-157.944	-0.280	-0.017
-707.631	98.342	-0.152	-0.177
-706.616	-200.000	-0.011	0.189
-705.602	451.667	-0.019	0.043
-704.587	-126.966	-0.274	0.041
-703.572	-88.166	-0.166	0.051
-702.558	-200.000	-0.003	-0.072
-701.543	-200.000	0.011	-0.196
-700.529	-200.000	-0.018	-0.193
-699.514	800.000	-0.063	0.191
-698.499	-47.899	0.053	-0.026
-697.485	41.306	-0.190	-0.174
-696.470	-200.000	0.016	0.106
-695.456	62.648	-0.045	-0.045
-694.441	-81.481	-0.188	-0.063
-693.426	1.368	-0.137	0.100
-692.412	800.000	0.052	0.182
-691.397	-200.000	0.052	-0.340
-690.383	15.074	-0.146	-0.116
-689.368	-46.061	0.121	-0.060
-688.354	-200.000	0.022	-0.150
-687.339	-200.000	0.011	-0.094
-686.324	-69.606	-0.269	0.104
-685.310	-62.225	0.135	0.057
-684.295	-68.233	-0.148	0.058
-683.281	-200.000	0.022	-0.329
-682.266	-200.000	-0.037	-0.408
-681.251	110.355	-0.286	-0.349
-680.237	-200.000	0.013	-0.230
-679.222	50.889	0.240	-0.231
-678.208	93.996	-0.222	-0.255
-677.193	-25.459	0.169	0.101
-676.178	800.000	-0.160	0.520
-675.164	-25.357	0.414	-0.248
-674.149	-171.207	-0.161	0.005
-673.135	800.000	0.067	-0.273
-672.120	800.000	0.054	-0.205
-671.105	106.932	0.233	-0.280
-670.091	600.276	0.073	-0.185
-669.076	-90.973	-0.231	-0.067
-668.062	-115.515	0.216	0.041
-667.047	189.620	-0.055	-0.083
-666.032	315.521	-0.035	0.066
-665.018	543.261	-0.108	-0.261
-664.003	-47.443	-0.295	-0.145
-662.989	297.553	0.156	-0.291
-661.974	-200.000	-0.021	-0.333
-660.959	611.788	0.039	-0.099
-659.945	-154.495	-0.081	0.005
-658.930	800.000	-0.052	-0.203
-657.916	-102.963	-0.561	0.135
-656.901	-3.589	-0.096	-0.067
-655.886	32.097	-0.188	0.165
-654.872	-78.834	0.116	-0.040
-653.857	39.720	0.164	0.149
-652.843	-98.738	-0.322	-0.083
-651.828	695.491	0.083	0.220
-650.814	-200.000	0.001	0.029
-649.799	109.223	0.077	0.093
-648.784	-200.000	-0.003	-0.116
-647.770	-99.112	-0.163	-0.042
-646.755	-81.913	0.166	-0.055
-645.741	-64.886	-0.185	0.076
-644.726	-61.254	0.112	0.048
-643.711	-181.840	0.138	0.003
-642.697	34.274	0.096	-0.085
-641.682	800.000	-0.089	-0.290
-640.668	-82.191	-0.482	-0.159
-639.653	212.404	0.103	-0.165
-638.638	-49.813	0.045	0.022
-637.624	48.795	-0.226	0.215
-636.609	261.011	0.080	0.141
-635.595	724.795	0.015	-0.042
-634.580	-142.619	0.166	0.016
-633.565	-55.396	-0.034	-0.015
-632.551	800.000	0.018	-0.051
-631.536	395.128	-0.110	-0.233
-630.522	-60.328	0.221	0.095
-629.507	-200.000	0.002	-0.113
-628.492	79.995	0.170	0.185
-627.478	-200.000	0.011	-0.293
-626.463	-158.807	0.371	0.021
-625.449	-200.000	-0.011	0.126
-624.434	731.476	-0.151	-0.408
-623.419	-8.774	-0.276	-0.187
-622.405	-200.000	0.011	0.238
-621.390	26.163	0.078	-0.066
-620.376	68.757	-0.164	-0.170
-619.361	-163.516	-0.238	-0.011
-618.346	-96.304	0.258	0.069
-617.332	-128.638	0.195	0.028
-616.317	-33.089	-0.367	0.206
-615.303	164.060	0.170	-0.243
-614.288	4.258	-0.309	-0.229
-613.273	47.294	-0.168	-0.159
-612.259	72.263	0.112	-0.118
-611.244	-113.194	-0.149	-0.030
-610.230	30.719	-0.165	-0.143
-609.215	-57.070	0.234	0.104
-608.201	-117.436	-0.077	-0.014
-607.186	-200.000	0.010	0.116
-606.171	-66.437	0.139	-0.056
-605.157	-147.810	0.140	0.012
-604.142	-125.828	0.479	-0.073
-603.128	-200.000	-0.004	-0.138
-602.113	-109.835	-0.164	-0.035
-601.098	-52.177	-0.343	-0.161
-600.084	800.000	0.070	-0.255
-599.069	-169.608	0.016	-0.001
-598.055	800.000	-0.043	0.129
-597.040	18.104	0.216	0.174
-596.025	23.368	0.112	0.093
-595.011	11.120	-0.157	0.121
-593.996	89.917	0.223	-0.251
-592.982	-91.543	-0.212	0.061
-591.967	85.634	-0.016	0.017
-590.952	-200.000	-0.054	0.338
-589.938	145.226	0.024	0.032
-588.923	-90.994	-0.152	0.044
-587.909	-135.741	-0.169	-0.020
-586.894	-200.000	-0.042	-0.235
-585.879	-60.579	-0.399	0.171
-584.865	-200.000	0.025	-0.125
-583.850	-94.092	0.278	0.077
-582.836	800.000	-0.042	-0.123
-581.821	-65.200	-0.194	0.079
-580.806	-200.000	-0.058	0.475
-579.792	-151.618	-0.194	-0.014
-578.777	133.461	-0.090	-0.117
-577.763	-52.234	-0.085	-0.040
-576.748	-200.000	0.038	-0.294
-575.733	35.604	0.073	-0.065
-574.719	800.000	0.074	-0.303
-573.704	800.000	0.100	-0.434
-572.690	-160.691	0.174	-0.009
-571.675	129.930	0.059	0.077
-570.661	-140.030	0.330	0.035
-569.646	-188.244	0.355	0.005
-568.631	800.000	0.043	-0.128
-567.617	397.327	0.135	-0.285
-566.602	-7.912	-0.113	-0.077
-565.588	-200.000	-0.039	0.296
-564.573	58.013	-0.217	-0.215
-563.558	53.540	0.237	-0.229
-562.544	24.456	0.266	-0.222
-561.529	-74.442	-0.211	0.077
-560.515	540.011	-0.081	0.195
-559.500	190.432	-0.258	0.391
-558.485	-7.863	-0.167	-0.114
-557.471	-200.000	-0.034	0.284
-556.456	94.866	0.199	0.229
-555.442	456.279	-0.113	0.253
-554.427	-146.055	-0.101	-0.009
-553.412	102.804	0.240	-0.284
-552.398	-81.099	-0.386	-0.129
-551.383	-117.311	-0.043	0.008
-550.369	397.106	-0.117	-0.246
-549.354	252.208	0.042	0.072
-548.339	14.845	-0.043	-0.034
-547.325	-50.383	-0.260	0.124
-546.310	-4.354	-0.380	-0.265
-545.296	122.465	0.129	-0.163
-544.281	-116.924	-0.240	0.044
-543.266	211.241	-0.152	0.241
-542.252	-172.807	0.137	0.004
-541.237	538.288	-0.157	0.375
-540.223	-139.936	0.118	-0.013
-539.208	-130.366	-0.402	-0.055
-538.193	-142.743	0.244	0.024
-537.179	26.972	-0.239	0.202
-536.164	-19.669	0.172	-0.108
-535.150	-200.000	-0.034	-0.307
-534.135	680.766	-0.034	-0.089
-533.121	309.630	0.193	-0.365
-532.106	-86.297	0.271	-0.084
-531.091	18.862	0.135	-0.109
-530.077	-200.000	-0.014	-0.110
-529.062	9.818	-0.139	-0.106
-528.048	-200.000	-0.010	-0.056
-527.033	800.000	0.113	0.325
-526.018	234.698	-0.124	0.206
-525.004	-109.044	0.108	0.023
-523.989	211.832	0.100	0.159
-522.975	-124.172	-0.172	-0.027
-521.960	-188.565	-0.084	0.001
-520.945	-169.464	0.260	0.010
-519.931	37.801	0.311	-0.279
-518.916	-25.581	-0.226	0.134
-517.902	-145.449	-0.283	-0.026
-516.887	-77.771	0.100	-0.035
-515.872	-200.000	0.050	0.236
-514.858	221.102	-0.321	0.519
-513.843	-200.000	0.062	-0.301
-512.829	-200.000	-0.000	0.109
-511.814	-200.000	0.044	0.225
-510.799	228.556	-0.181	-0.297
-509.785	10.105	0.333	-0.255
-508.770	-200.000	-0.065	-0.380
-507.756	208.226	-0.225	0.353
-506.741	-7.133	-0.196	0.134
-505.726	-91.046	-0.034	0.010
-504.712	-200.000	0.067	-0.504
-503.697	-95.696	0.294	0.079
-502.683	-52.853	-0.162	0.075
-501.668	96.476	0.094	-0.109
-500.653	-114.277	0.136	0.026
-499.639	259.064	-0.139	0.242
-498.624	-200.000	0.009	0.122
-497.610	82.640	0.060	0.066
-496.595	437.347	0.053	-0.116
-495.581	23.873	0.396	0.328
-494.566	-56.244	-0.219	-0.098
-493.551	-179.202	-0.172	-0.004
-492.537	-130.808	0.172	0.023
-491.522	58.867	0.085	0.084
-490.508	-41.992	0.177	-0.091
-489.493	-124.023	0.313	0.050
-488.478	-163.923	0.116	0.005
-487.464	-63.858	0.334	0.137
-486.449	-114.239	0.239	0.046
-485.435	-170.450	0.198	-0.007
-484.420	-100.848	0.110	0.027
-483.405	800.000	0.045	-0.179
-482.391	-105.982	-0.115	-0.026
-481.376	800.000	0.071	-0.212
-480.362	-170.175	0.136	0.005
-479.347	-11.016	0.093	0.062
-478.332	-200.000	0.012	-0.144
-477.318	87.920	0.155	-0.173
-476.303	78.934	-0.066	-0.071
-475.289	291.279	-0.297	0.544
-474.274	800.000	-0.054	0.161
-473.259	132.449	0.153	-0.199
-472.245	-200.000	-0.037	-0.207
-471.230	282.210	-0.158	0.285
-470.216	-83.400	0.297	-0.096
-469.201	-85.495	0.223	-0.070
-468.186	666.533	0.065	0.169
-467.172	-200.000	-0.051	-0.321
-466.157	-161.682	-0.342	-0.018
-465.143	-200.000	-0.017	-0.278
-464.128	343.074	-0.056	-0.111
-463.113	-101.387	-0.246	0.060
-462.099	-120.541	0.172	0.029
-461.084	126.223	0.142	0.180
-460.070	27.616	-0.137	0.116
-459.055	187.752	-0.115	-0.172
-458.040	92.157	0.173	-0.196
-457.026	23.964	-0.261	0.216
-456.011	800.000	0.036	-0.140
-454.997	-75.800	0.437	0.156
-453.982	-200.000	0.056	-0.311
-452.968	-68.439	-0.380	-0.148
-451.953	-200.000	-0.025	-0.214
-450.938	165.043	0.053	-0.075
-449.924	-12.985	-0.115	0.075
-448.909	2.755	-0.134	0.098
-447.895	-128.629	0.122	0.017
-446.880	163.701	0.130	-0.184
-445.865	800.000	0.023	0.082
-444.851	58.378	-0.121	-0.120
-443.836	2.217	-0.198	0.144
-442.822	665.295	0.023	0.060
-441.807	-56.048	-0.331	-0.148
-440.792	800.000	-0.064	-0.251
-439.778	29.390	-0.077	-0.065
-438.763	-11.476	-0.120	0.079
-437.749	800.000	-0.194	-0.565
-436.734	-97.365	0.193	0.050
-435.719	52.277	-0.055	-0.053
-434.705	-88.464	0.260	-0.078
-433.690	-39.072	0.204	-0.108
-432.676	2.110	0.076	-0.055
-431.661	-46.119	0.091	0.045
-430.646	800.000	0.075	0.225
-429.632	-129.920	0.234	-0.032
-428.617	-59.248	0.150	-0.065
-427.603	800.000	-0.012	0.047
-426.588	-200.000	0.031	-0.432
-425.573	-200.000	-0.066	0.300
-424.559	-16.165	-0.123	0.078
-423.544	-16.624	-0.341	0.217
-422.530	-32.377	-0.257	-0.144
-421.515	800.000	0.082	0.281
-420.500	-200.000	-0.009	-0.456
-419.486	-151.677	-0.277	-0.021
-418.471	627.957	-0.094	0.238
-417.457	666.684	-0.020	0.052
-416.442	110.251	-0.074	0.089
-415.428	800.000	-0.044	-0.137
-414.413	800.000	0.012	0.047
-413.398	248.136	-0.048	0.082
-412.384	243.012	-0.119	0.201
-411.369	419.722	-0.075	-0.162
-410.355	-63.714	-0.272	-0.112
-409.340	800.000	-0.029	-0.098
-408.325	-200.000	-0.009	-0.043
-407.311	60.435	0.158	0.157
-406.296	-200.000	-0.199	0.001
-405.282	-200.000	-0.002	0.158
-404.267	-200.000	-0.004	-0.024
-403.252	203.804	-0.120	0.186
-402.238	382.073	-0.150	0.308
-401.223	275.532	-0.031	0.055
-400.209	-101.960	-0.102	0.025
-399.194	-118.686	0.229	0.041
-398.179	334.077	-0.092	-0.179
-397.165	-56.248	0.363	-0.162
-396.150	-200.000	-0.009	-0.177
-395.136	-200.000	-0.002	-0.192
-394.121	-152.677	0.453	0.032
-393.106	70.967	0.182	0.189
-392.092	-200.000	-0.025	0.137
-391.077	56.408	-0.109	-0.106
-390.063	53.535	-0.437	0.421
-389.048	262.087	-0.159	-0.276
-388.033	-3.128	-0.271	-0.189
-387.019	-91.894	0.153	-0.044
-386.004	-113.962	0.031	0.006
-384.990	-80.326	-0.121	-0.040
-383.975	84.282	-0.226	-0.248
-382.960	-47.251	0.317	-0.155
-381.946	-4.126	0.051	-0.035
-380.931	-62.501	0.297	0.124
-379.917	357.030	-0.194	0.387
-378.902	-200.000	-0.004	-0.247
-377.888	36.027	-0.272	-0.239
-376.873	387.544	0.040	-0.083
-375.858	-62.079	-0.208	0.087
-374.844	-40.235	-0.078	-0.041
-373.829	122.026	0.093	0.117
-372.815	77.528	0.086	0.092
-371.800	235.548	-0.211	0.350
-370.785	13.633	0.204	0.159
-369.771	147.789	0.219	-0.296
-368.756	800.000	-0.012	0.039
-367.742	-92.060	-0.092	0.026
-366.727	248.622	0.190	0.322
-365.712	295.545	0.087	-0.159
-364.698	174.213	-0.114	0.165
-363.683	-200.000	-0.038	0.289
-362.669	204.023	0.128	0.199
-361.654	116.184	-0.244	-0.299
-360.639	32.314	-0.155	0.134
-359.625	14.403	0.237	0.185
-358.610	115.978	0.164	-0.201
-357.596	315.756	0.095	-0.180
-356.581	-48.480	-0.142	0.069
-355.566	68.431	-0.170	-0.175
-354.552	-200.000	0.035	-0.584
-353.537	-7.522	-0.266	0.180
-352.523	207.159	0.421	0.657
-351.508	800.000	-0.047	0.180
-350.493	9.219	-0.149	0.113
-349.479	-200.000	-0.020	-0.218
-348.464	-155.455	-0.095	-0.006
-347.450	-134.569	-0.244	-0.030
-346.435	-129.257	0.175	0.024
-345.420	-187.103	0.292	0.004
-344.406	-25.020	0.271	-0.161
-343.391	-126.790	-0.124	-0.018
-342.377	-157.187	0.245	-0.015
-341.362	159.638	0.104	-0.144
-340.348	82.778	0.049	0.053
-339.333	800.000	-0.087	-0.349
-338.318	152.558	0.137	0.187
-337.304	800.000	0.039	-0.161
-336.289	76.039	-0.106	0.112
-335.275	59.197	0.227	-0.224
-334.260	-200.000	-0.037	0.375
-333.245	800.000	-0.056	0.210
-332.231	90.372	0.156	0.175
-331.216	-95.361	0.082	-0.022
-330.202	29.167	-0.283	0.240
-329.187	-112.133	-0.296	0.059
-328.172	-200.000	-0.016	0.248
-327.158	-120.953	-0.525	0.088
-326.143	-45.399	0.150	-0.074
-325.129	-143.997	-0.230	-0.022
-324.114	-136.140	0.118	-0.014
-323.099	756.982	-0.045	0.122
-322.085	60.879	-0.151	0.150
-321.070	-129.635	0.204	-0.028
-320.056	-76.598	0.028	0.010
-319.041	235.020	0.084	0.139
-318.026	-96.053	-0.537	0.143
-317.012	-20.290	-0.315	0.194
-315.997	-106.275	-0.252	0.056
-314.983	285.584	0.044	0.080
-313.968	-44.467	0.217	0.108
-312.953	-14.830	-0.089	0.057
-311.939	-182.945	-0.094	-0.002
-310.924	99.322	0.276	0.319
-309.910	-200.000	-0.008	-0.231
-308.895	480.569	-0.039	0.087
-307.880	21.809	0.190	-0.155
-306.866	18.213	-0.161	0.128
-305.851	234.296	-0.080	-0.131
-304.837	-78.776	-0.171	-0.058
-303.822	-193.590	-0.392	0.003
-302.807	-200.000	0.030	0.208
-301.793	705.038	0.137	-0.362
-300.778	800.000	0.060	0.193
-299.764	4.672	0.221	-0.162
-298.749	-96.420	0.288	-0.076
-297.735	800.000	0.034	-0.101
-296.720	-26.150	-0.228	-0.134
-295.705	-48.109	-0.027	-0.013
-294.691	-10.908	-0.131	0.086
-293.676	401.644	-0.078	-0.163
-292.662	-67.481	0.185	0.072
-291.647	124.858	-0.192	0.242
-290.632	800.000	-0.067	-0.186
-289.618	-200.000	0.019	-0.112
-288.603	-200.000	0.027	0.147
-287.589	473.200	0.084	-0.189
-286.574	81.966	-0.207	-0.224
-285.559	-72.735	0.142	0.052
-284.545	-107.133	0.187	0.041
-283.530	800.000	-0.094	0.276
-282.516	-171.950	0.252	0.008
-281.501	178.854	-0.108	-0.158
-280.486	-182.878	-0.198	-0.004
-279.472	-52.627	0.183	-0.084
-278.457	132.226	0.294	0.377
-277.443	696.118	-0.070	0.183
-276.428	428.967	-0.056	0.121
-275.413	232.990	-0.179	0.293
-274.399	46.761	0.245	-0.227
-273.384	3.707	-0.095	0.069
-272.370	-15.326	-0.250	0.159
-271.355	195.387	-0.147	0.223
-270.340	336.731	0.049	-0.094
-269.326	800.000	0.082	-0.314
-268.311	800.000	0.063	-0.174
-267.297	-200.000	0.005	-0.054
-266.282	576.577	-0.134	0.326
-265.267	-197.127	-0.340	0.002
-264.253	106.497	0.096	0.114
-263.238	44.716	0.114	-0.105
-262.224	-150.571	-0.356	-0.027
-261.209	587.358	0.123	-0.302
-260.195	84.954	0.122	-0.133
-259.180	-200.000	-0.042	0.390
-258.165	-28.631	0.124	0.071
-257.151	-81.924	-0.139	-0.045
-256.136	-154.833	0.281	0.019
-255.122	437.939	0.095	-0.208
-254.107	11.958	0.127	0.097
-253.092	-42.465	0.359	-0.183
-252.078	-0.829	0.185	-0.131
-251.063	-126.160	0.292	0.044
-250.049	85.312	-0.302	0.331
-249.034	800.000	0.031	0.094
-248.019	-59.852	-0.201	0.086
-247.005	71.834	0.100	0.104
-245.990	-20.778	-0.230	0.140
-244.976	-28.442	0.131	-0.076
-243.961	-156.877	0.238	0.015
-242.946	151.220	-0.045	-0.061
-241.932	-200.000	0.052	-0.345
-240.917	-163.517	0.165	0.008
-239.903	-186.187	-0.184	0.003
-238.888	-73.986	0.144	0.052
-237.873	87.701	0.060	-0.066
-236.859	1.572	-0.208	0.149
-235.844	-171.426	0.455	-0.015
-234.830	-117.081	-0.191	-0.035
-233.815	800.000	-0.024	0.101
-232.800	168.447	-0.172	-0.244
-231.786	103.139	-0.224	0.261
-230.771	-84.305	0.088	0.028
-229.757	-200.000	0.038	0.355
-228.742	74.830	-0.209	0.219
-227.727	-200.000	0.010	0.051
-226.713	800.000	0.040	-0.158
-225.698	-38.321	0.253	0.134
-224.684	-178.207	0.167	-0.004
-223.669	-47.105	0.322	-0.156
-222.655	658.495	0.017	0.044
-221.640	266.119	0.046	0.079
-220.625	559.063	-0.052	0.126
-219.611	47.278	0.278	-0.258
-218.596	63.247	0.025	0.025
-217.582	358.267	-0.189	-0.375
-216.567	800.000	0.039	-0.118
-215.552	-49.691	0.118	0.056
-214.538	40.490	-0.080	-0.072
-213.523	-192.257	0.266	-0.003
-212.509	-9.714	0.070	-0.046
-211.494	-85.048	0.430	-0.134
-210.479	-101.631	-0.275	-0.066
-209.465	-200.000	0.015	0.138
-208.450	800.000	0.095	0.402
-207.436	-40.813	0.179	0.092
-206.421	593.316	-0.115	-0.283
-205.406	143.635	0.130	0.172
-204.392	-107.674	0.164	0.036
-203.377	800.000	-0.056	0.219
-202.363	-200.000	-0.044	0.259
-201.348	-57.282	-0.400	-0.175
-200.333	-55.026	-0.208	-0.093
-199.319	800.000	0.073	0.307
-198.304	182.445	0.060	0.088
-197.290	153.615	0.079	-0.107
-196.275	2.561	0.143	0.103
-195.260	-200.000	-0.034	0.231
-194.246	27.276	-0.150	0.126
-193.231	-88.276	0.169	0.050
-192.217	495.254	-0.044	-0.101
-191.202	315.327	0.068	0.128
-190.187	-88.015	-0.160	-0.048
-189.173	-106.969	-0.214	-0.047
-188.158	-116.903	0.155	-0.028
-187.144	-110.605	0.292	0.060
-186.129	-32.320	-0.102	0.057
-185.114	7.881	-0.328	0.244
-184.100	168.950	-0.116	-0.164
-183.085	800.000	0.032	-0.127
-182.071	96.386	-0.434	0.493
-181.056	460.272	0.079	0.175
-180.042	83.412	-0.186	0.202
-179.027	319.490	0.132	-0.248
-178.012	-200.000	0.006	-0.154
-176.998	800.000	-0.020	0.075
-175.983	251.298	0.134	0.226
-174.969	672.179	-0.046	0.119
-173.954	46.693	-0.015	-0.014
-172.939	133.471	0.142	-0.183
-171.925	-106.954	0.267	-0.059
-170.910	515.095	0.106	-0.246
-169.896	-120.970	-0.242	0.040
-168.881	-99.979	0.158	-0.039
-167.866	135.669	0.058	-0.075
-166.852	19.997	-0.134	0.108
-165.837	-81.285	-0.354	0.116
-164.823	251.752	0.089	-0.150
-163.808	-200.000	-0.021	-0.116
-162.793	-200.000	0.007	0.065
-161.779	-53.184	0.126	0.058
-160.764	800.000	0.088	0.293
-159.750	-117.911	-0.097	0.017
-158.735	-200.000	-0.025	0.238
-157.720	17.382	-0.247	-0.195
-156.706	465.876	-0.054	-0.121
-155.691	-165.771	0.331	0.014
-154.677	107.645	0.107	-0.127
-153.662	-32.965	0.241	-0.133
-152.647	-97.169	0.397	-0.103
-151.633	-95.946	0.243	-0.064
-150.618	-90.642	0.401	0.115
-149.604	-196.829	0.371	-0.002
-148.589	-94.747	0.124	-0.034
-147.574	-65.169	0.158	-0.063
-146.560	693.888	-0.074	-0.193
-145.545	55.226	0.225	-0.216
-144.531	59.124	-0.389	0.380
-143.516	5.060	0.458	0.335
-142.502	-54.733	0.083	-0.037
-141.487	800.000	0.018	0.056
-140.472	-164.213	0.175	0.008
-139.458	41.909	0.160	-0.144
-138.443	800.000	-0.053	-0.170
-137.429	-172.138	-0.178	-0.006
-136.414	91.901	0.135	-0.151
-135.399	-109.957	0.375	-0.078
-134.385	-200.000	-0.030	0.198
-133.370	-60.007	-0.213	-0.090
-132.356	-41.054	-0.165	0.085
-131.341	-48.279	0.101	-0.049
-130.326	800.000	0.130	0.473
-129.312	117.415	0.120	0.146
-128.297	585.502	0.079	0.193
-127.283	-36.998	0.114	-0.061
-126.268	-126.773	-0.210	-0.031
-125.253	-112.422	-0.256	-0.051
-124.239	-200.000	-0.037	-0.166
-123.224	640.995	-0.135	-0.341
-122.210	-200.000	-0.007	0.144
-121.195	-116.196	0.054	0.010
-120.180	-127.168	0.095	-0.014
-119.166	-200.000	0.012	-0.083
-118.151	-153.400	0.090	0.006
-117.137	-31.553	-0.203	0.113
-116.122	90.711	0.128	-0.142
-115.107	-105.791	0.324	-0.073
-114.093	-62.307	0.359	0.148
-113.078	183.606	0.034	0.050
-112.064	746.764	0.043	0.116
-111.049	1.838	-0.217	-0.155
-110.034	800.000	0.063	0.250
-109.020	287.139	0.156	0.280
-108.005	-37.011	0.107	0.057
-106.991	7.138	-0.344	0.254
-105.976	-9.825	0.114	-0.075
-104.962	-31.925	-0.023	0.013
-103.947	-200.000	-0.047	0.384
-102.932	56.025	-0.060	0.058
-101.918	800.000	-0.049	-0.137
-100.903	-78.074	-0.168	-0.057
-99.889	-159.572	-0.224	-0.012
-98.874	800.000	0.015	0.047
-97.859	484.447	0.247	0.557
-96.845	34.929	0.080	0.069
-95.830	2.483	-0.187	-0.134
-94.816	0.219	0.061	0.043
-93.801	800.000	0.008	0.032
-92.786	671.865	-0.042	-0.107
-91.772	-158.882	-0.467	-0.026
-90.757	-200.000	-0.036	-0.190
-89.743	503.712	0.117	0.269
-88.728	-200.000	0.050	0.261
-87.713	-80.745	0.053	-0.017
-86.699	298.422	0.138	-0.251
-85.684	400.108	0.044	0.091
-84.670	-200.000	0.005	-0.231
-83.655	301.514	-0.055	-0.100
-82.640	-70.621	0.315	0.118
-81.626	-53.779	0.053	0.024
-80.611	57.992	-0.102	-0.099
-79.597	-19.293	0.092	-0.057
-78.582	57.192	0.124	0.120
-77.567	800.000	-0.080	0.298
-76.553	-71.029	-0.139	-0.052
-75.538	800.000	0.037	0.135
-74.524	-106.960	0.278	-0.061
-73.509	-134.919	0.254	-0.030
-72.494	-200.000	0.017	0.078
-71.480	800.000	-0.062	-0.246
-70.465	134.779	-0.048	-0.062
-69.451	-70.834	0.132	0.049
-68.436	-178.600	0.249	-0.006
-67.422	-9.913	-0.337	0.222
-66.407	2.608	0.281	-0.202
-65.392	465.623	0.042	-0.092
-64.378	4.644	-0.095	0.069
-63.363	456.589	-0.137	0.301
-62.349	431.749	0.088	0.188
-61.334	157.912	-0.600	-0.822
-60.319	287.843	0.352	0.630
-59.305	800.000	-0.316	-1.086
-58.290	-26.680	0.970	0.562
-57.276	265.954	0.831	1.435
-56.261	-200.000	93.355	561.879
-55.246	548.499	1370.869	3249.055
-54.232	153.112	2572.106	3481.338
-53.217	116.117	2188.841	2652.202
-52.203	46.901	1727.831	1589.087
-51.188	39.593	1537.617	1363.774
-50.173	37.074	1509.897	1321.994
-49.159	55.762	1559.718	1495.484
-48.144	59.207	1579.529	1538.285
-47.130	39.954	1534.340	1363.144
-46.115	36.693	1519.318	1327.416
-45.100	36.459	1516.242	1323.079
-44.086	36.465	1514.061	1321.162
-43.071	36.312	1513.022	1319.154
-42.057	36.356	1510.950	1317.601
-41.042	36.281	1509.619	1315.874
-40.027	36.362	1508.212	1315.150
-39.013	36.339	1506.527	1313.471
-37.998	36.362	1505.366	1312.562
-36.984	36.303	1504.535	1311.382
-35.969	36.350	1502.866	1310.193
-34.954	36.350	1501.371	1308.838
-33.940	36.404	1499.746	1307.737
-32.925	36.381	1498.954	1306.839
-31.911	36.474	1497.368	1306.037
-30.896	36.503	1496.161	1305.126
-29.881	36.522	1494.425	1303.685
-28.867	36.522	1493.118	1302.497
-27.852	36.506	1491.794	1301.181
-26.838	36.553	1490.169	1300.026
-25.823	36.528	1488.719	1298.541
-24.809	36.499	1486.772	1296.599
-23.794	36.425	1485.762	1295.171
-22.779	36.455	1484.232	1293.987
-21.765	36.473	1483.647	1293.544
-20.750	36.466	1482.418	1292.372
-19.736	36.530	1481.371	1291.839
-18.721	36.477	1479.910	1290.156
-17.706	36.404	1479.226	1289.026
-16.692	36.388	1477.804	1287.625
-15.677	36.383	1477.533	1287.309
-14.663	36.367	1476.294	1286.070
-13.648	36.504	1474.840	1285.664
-12.633	36.378	1473.817	1283.885
-11.619	36.476	1473.041	1283.808
-10.604	36.371	1472.116	1282.253
-9.590	36.343	1471.398	1281.392
-8.575	36.446	1470.617	1281.344
-7.560	36.370	1470.066	1280.310
-6.546	36.334	1469.411	1279.448
-5.531	36.401	1468.210	1278.794
-4.517	36.401	1466.920	1277.620
-3.502	36.397	1466.009	1276.754
-2.487	36.420	1464.839	1275.835
-1.473	36.430	1464.004	1275.120
-0.458	36.420	1462.257	1273.481
0.556	36.950	1452.628	1260.251
1.571	33.258	1424.615	1212.234
2.586	28.628	1362.281	1130.645
3.600	26.400	1278.715	1048.298
4.615	24.721	1230.943	999.668
5.629	20.756	1173.822	932.009
6.644	11.457	1087.510	817.063
7.659	4.064	1045.026	749.406
8.673	2.958	1039.340	739.939
9.688	2.757	1036.133	736.623
10.702	2.514	1034.699	734.374
11.717	2.582	1032.596	733.142
12.731	5.713	1036.009	750.515
13.746	15.208	1049.534	806.117
14.761	23.336	1060.527	853.835
15.775	25.821	1062.854	867.622
16.790	26.231	1062.592	869.304
17.804	26.067	1062.032	867.977
18.819	25.833	1061.535	866.372
19.834	26.089	1060.622	866.777
20.848	26.174	1060.352	866.887
21.863	26.309	1059.930	867.115
22.877	26.295	1059.427	866.560
23.892	26.323	1058.460	865.828
24.907	26.230	1057.435	864.467
25.921	26.163	1057.332	863.986
26.936	26.110	1056.759	863.186
27.950	25.983	1055.637	861.588
28.965	26.093	1053.911	860.629
29.980	26.076	1052.677	859.463
30.994	26.029	1051.484	858.190
32.009	26.169	1050.833	858.247
33.023	26.220	1050.492	858.137
34.038	26.162	1049.163	856.700
35.053	26.094	1048.387	855.669
36.067	26.236	1047.851	855.825
37.082	26.125	1046.822	854.385
38.096	26.233	1046.578	854.623
39.111	26.378	1045.970	854.735
40.126	26.632	1045.007	855.069
41.140	26.424	1043.892	853.100
42.155	26.125	1042.240	850.268
43.169	25.868	1041.090	848.045
44.184	25.764	1039.988	846.586
45.199	25.884	1038.781	846.089
46.213	25.665	1037.934	844.298
47.228	25.771	1036.970	843.937
48.242	25.842	1036.681	843.959
49.257	25.965	1036.023	843.922
50.271	26.010	1035.495	843.628
51.286	26.262	1034.521	843.941
52.301	26.351	1033.351	843.326
53.315	26.163	1032.785	841.914
54.330	26.261	1031.639	841.357
55.344	26.114	1031.236	840.274
56.359	26.150	1030.776	839.992
57.374	26.019	1029.628	838.370
58.388	25.959	1028.777	837.328
59.403	25.915	1027.750	836.211
60.417	25.921	1027.185	835.708
61.432	25.802	1026.571	834.583
62.447	25.889	1025.671	834.179
63.461	25.738	1025.669	833.406
64.476	25.869	1024.780	833.215
65.490	25.883	1023.669	832.303
66.505	25.778	1022.685	830.941
67.520	25.850	1021.861	830.534
68.534	25.941	1021.062	830.227
69.549	25.778	1020.267	828.757
70.563	25.513	1018.939	826.386
71.578	25.411	1018.057	825.131
72.593	25.298	1017.776	824.313
73.607	25.170	1016.767	822.836
74.622	25.230	1015.711	822.183
75.636	25.588	1015.091	823.245
76.651	25.665	1014.207	822.808
77.666	25.747	1013.287	822.366
78.680	25.573	1012.475	820.840
79.695	25.534	1012.192	820.358
80.709	25.711	1011.225	820.310
81.724	25.778	1010.602	820.038
82.739	25.687	1009.657	818.782
83.753	25.732	1008.828	818.241
84.768	26.179	1008.251	819.732
85.782	26.346	1008.129	820.316
86.797	26.633	1006.994	820.624
87.812	26.476	1006.368	819.328
88.826	26.190	1005.644	817.372
89.841	26.259	1004.532	816.707
90.855	26.483	1004.309	817.466
91.870	26.385	1003.088	815.960
92.884	26.314	1002.530	815.112
93.899	26.296	1001.377	814.021
94.914	26.258	1000.454	813.029
95.928	26.315	1000.189	813.000
96.943	26.421	999.166	812.569
97.957	26.023	998.055	809.808
98.972	25.806	997.002	807.909
99.987	25.645	996.000	806.305
101.001	25.849	994.977	806.318
102.016	26.092	994.911	807.279
103.030	26.120	993.898	806.512
104.045	26.086	992.780	805.383
105.060	25.934	991.709	803.762
106.074	25.905	990.284	802.411
107.089	25.685	990.440	801.483
108.103	26.051	989.584	802.350
109.118	26.197	988.731	802.234
110.133	25.826	987.819	799.777
111.147	25.990	986.515	799.376
112.162	25.656	985.988	797.399
113.176	25.497	984.554	795.467
114.191	25.759	983.502	795.702
115.206	25.735	982.864	795.012
116.220	25.535	981.671	793.095
117.235	25.361	980.776	791.532
118.249	25.544	980.127	791.746
119.264	25.487	979.802	791.161
120.279	25.325	978.426	789.270
121.293	25.350	978.107	789.052
122.308	25.496	977.474	789.114
123.322	25.583	976.633	788.747
124.337	25.541	975.581	787.642
125.352	25.448	974.173	786.030
126.366	24.868	973.017	782.493
127.381	24.758	971.465	780.694
128.395	25.236	971.310	782.586
129.410	25.769	971.198	784.752
130.424	26.063	970.516	785.408
131.439	26.103	970.014	785.109
132.454	26.103	968.348	783.692
133.468	26.036	968.006	783.053
134.483	26.054	966.974	782.227
135.497	26.029	966.095	781.338
136.512	26.428	965.648	782.635
137.527	26.302	965.544	781.938
138.541	26.353	964.842	781.518
139.556	26.329	963.933	780.608
140.570	26.314	962.653	779.440
141.585	26.200	962.504	778.757
142.600	26.403	961.075	778.407
143.614	26.314	960.363	777.378
144.629	26.395	959.810	777.212
145.643	26.609	959.177	777.547
146.658	26.505	957.828	775.942
147.673	26.266	956.899	774.096
148.687	26.226	955.594	772.799
149.702	26.190	954.704	771.857
150.716	26.033	953.722	770.327
151.731	26.070	952.901	769.751
152.746	26.056	952.590	769.374
153.760	26.239	951.763	769.415
154.775	26.396	950.833	769.265
155.789	26.508	949.949	768.957
156.804	26.479	949.158	768.126
157.819	26.438	948.247	767.148
158.833	26.473	947.752	766.825
159.848	26.457	946.902	766.004
160.862	26.519	946.259	765.676
161.877	26.510	945.349	764.837
162.892	26.419	944.129	763.395
163.906	26.444	943.760	763.138
164.921	26.262	943.060	761.734
165.935	26.381	941.645	761.027
166.950	26.393	940.691	760.238
167.964	26.493	940.078	760.095
168.979	26.500	938.949	759.143
169.994	26.328	937.676	757.330
171.008	26.183	936.907	756.035
172.023	26.266	936.096	755.657
173.037	26.530	935.466	756.188
174.052	26.315	934.470	754.415
175.067	26.122	933.235	752.548
176.081	26.000	932.897	751.702
177.096	26.163	931.682	751.332
178.110	26.351	930.977	751.479
179.125	26.015	930.006	749.235
180.140	25.711	928.728	746.878
181.154	25.751	928.117	746.488
182.169	25.887	928.021	746.908
183.183	26.135	927.591	747.523
184.198	26.456	927.206	748.473
185.213	26.357	926.703	747.593
186.227	26.468	925.312	746.861
187.242	26.381	925.463	746.559
188.256	26.478	924.613	746.206
189.271	26.485	923.706	745.439
190.286	26.604	923.344	745.572
191.300	26.437	922.491	744.127
192.315	25.766	921.348	740.382
193.329	25.041	919.133	735.564
194.344	24.576	918.205	732.848
195.359	25.150	918.768	735.587
196.373	26.068	919.136	739.581
197.388	26.375	918.701	740.425
198.402	26.286	918.087	739.497
199.417	26.159	917.876	738.746
200.432	26.366	916.926	738.760
201.446	26.217	916.440	737.696
202.461	26.001	915.851	736.272
203.475	26.004	915.396	735.852
204.490	25.652	913.552	732.872
205.504	24.462	911.672	726.461
206.519	24.735	911.687	727.518
207.534	25.739	912.113	731.881
208.548	25.864	911.417	731.761
209.563	26.268	911.410	733.334
210.577	26.397	910.661	733.187
211.592	26.083	909.610	731.006
212.607	26.522	909.403	732.553
213.621	26.522	908.969	732.137
214.636	26.511	908.189	731.400
215.650	26.370	908.099	730.695
216.665	26.355	907.369	729.979
217.680	26.466	906.789	729.896
218.694	26.669	906.249	730.217
219.709	26.234	905.433	727.742
220.723	25.885	904.151	725.244
221.738	26.007	904.078	725.612
222.753	26.211	903.737	726.092
223.767	26.172	902.887	725.189
224.782	26.230	901.978	724.628
225.796	26.615	901.671	725.862
226.811	26.646	900.904	725.305
227.826	26.246	900.097	722.990
228.840	25.281	898.255	717.591
229.855	25.434	897.338	717.403
230.869	25.559	897.355	717.852
231.884	25.273	896.288	715.797
232.899	25.234	896.055	715.392
233.913	26.120	896.400	719.137
234.928	26.204	895.745	718.880
235.942	26.133	895.243	718.132
236.957	26.255	894.491	717.949
237.972	26.004	893.203	715.856
238.986	25.802	892.833	714.694
240.001	26.002	892.257	714.965
241.015	25.967	891.282	713.980
242.030	26.001	891.279	714.048
243.045	26.178	890.411	713.989
244.059	26.162	890.034	713.563
245.074	26.275	889.903	713.840
246.088	26.354	888.913	713.296
247.103	26.060	887.833	711.205
248.117	26.121	887.324	710.976
249.132	26.612	887.222	712.762
250.147	26.961	887.279	714.121
251.161	27.089	886.804	714.176
252.176	27.345	886.211	714.641
253.190	27.197	885.803	713.668
254.205	27.308	885.255	713.599
255.220	27.361	884.907	713.466
256.234	27.386	883.878	712.668
257.249	27.261	883.288	711.642
258.263	27.133	882.880	710.749
259.278	27.102	882.035	709.885
260.293	27.267	881.708	710.204
261.307	27.136	881.650	709.582
262.322	27.031	880.661	708.315
263.336	27.064	879.635	707.554
264.351	26.563	878.355	704.514
265.366	25.412	876.695	698.645
266.380	25.018	875.605	696.186
267.395	25.875	876.160	699.894
268.409	26.878	876.077	703.659
269.424	26.738	875.449	702.552
270.439	26.853	875.170	702.711
271.453	26.930	874.304	702.251
272.468	26.982	873.809	701.993
273.482	27.078	873.502	702.054
274.497	27.236	873.100	702.280
275.512	27.108	872.078	700.901
276.526	26.551	870.529	697.450
277.541	26.694	870.263	697.723
278.555	26.984	870.177	698.711
279.570	26.891	869.305	697.590
280.585	26.738	868.495	696.292
281.599	26.657	868.599	696.002
282.614	26.841	867.775	695.986
283.628	26.405	866.738	693.421
284.643	25.874	866.266	690.948
285.657	26.469	865.992	692.949
286.672	26.432	865.112	692.041
287.687	25.869	864.046	688.975
288.701	26.240	863.938	690.243
289.716	26.601	864.156	691.739
290.730	26.200	863.224	689.400
291.745	26.083	862.315	688.168
292.760	26.123	860.955	687.172
293.774	25.892	860.605	685.951
294.789	26.821	861.248	689.943
295.803	27.467	861.201	692.299
296.818	27.574	860.978	692.465
297.833	27.627	859.883	691.725
298.847	27.257	859.417	689.885
299.862	27.030	858.060	687.877
300.876	27.144	857.803	688.042
301.891	27.345	857.721	688.674
302.906	27.458	856.991	688.456
303.920	27.082	856.026	686.198
304.935	27.099	855.019	685.395
305.949	27.331	855.425	686.534
306.964	27.476	854.874	686.577
307.979	27.100	854.084	684.466
308.993	27.124	853.465	684.002
310.008	27.519	853.174	685.191
311.022	27.645	853.215	685.639
312.037	27.565	852.226	684.482
313.052	27.136	851.860	682.519
314.066	27.224	850.522	681.715
315.081	26.391	849.250	677.515
316.095	25.579	848.177	673.560
317.110	26.142	848.174	675.606
318.125	26.910	848.782	678.903
319.139	26.752	847.629	677.334
320.154	25.585	845.520	671.234
321.168	24.910	844.769	668.061
322.183	25.781	844.798	671.273
323.197	26.713	845.159	674.972
324.212	26.904	845.285	675.727
325.227	27.076	844.743	675.874
326.241	27.322	844.218	676.309
327.256	27.222	843.464	675.273
328.270	26.987	842.897	673.889
329.285	26.986	842.118	673.200
330.300	26.905	841.558	672.392
331.314	26.560	840.723	670.390
332.329	26.643	840.108	670.148
333.343	27.051	839.760	671.319
334.358	27.466	839.671	672.722
335.373	27.400	839.010	671.889
336.387	27.308	838.722	671.260
337.402	27.593	838.228	671.855
338.416	27.820	837.910	672.376
339.431	27.818	837.249	671.782
340.446	27.764	836.865	671.213
341.460	27.956	836.484	671.553
342.475	27.890	835.913	670.794
343.489	27.720	835.117	669.472
344.504	27.678	834.520	668.781
345.519	27.877	834.451	669.396
346.533	28.196	833.938	670.094
347.548	28.176	833.456	669.574
348.562	28.283	833.033	669.567
349.577	27.983	832.653	668.104
350.592	28.084	831.731	667.673
351.606	28.063	831.472	667.330
352.621	28.026	830.912	666.685
353.635	27.940	830.353	665.866
354.650	27.856	829.814	665.068
355.665	27.657	828.767	663.446
356.679	26.502	827.285	658.005
357.694	26.462	827.069	657.631
358.708	27.051	827.082	659.721
359.723	27.099	825.998	658.972
360.738	27.197	825.560	658.920
361.752	27.633	825.729	660.577
362.767	27.839	825.494	661.077
363.781	28.025	825.503	661.697
364.796	28.270	825.386	662.432
365.810	28.548	824.408	662.594
366.825	28.719	824.086	662.892
367.840	28.636	824.037	662.495
368.854	28.320	823.685	661.014
369.869	27.984	822.458	658.760
370.883	27.734	821.717	657.206
371.898	27.836	821.669	657.478
372.913	27.778	820.529	656.300
373.927	27.776	820.196	655.967
374.942	27.940	819.525	655.962
375.956	27.827	819.233	655.265
376.971	28.105	818.264	655.427
377.986	28.209	818.085	655.597
379.000	28.376	817.674	655.811
380.015	28.444	817.256	655.660
381.029	28.301	816.384	654.389
382.044	28.240	815.824	653.666
383.059	28.395	815.311	653.750
384.073	28.508	814.517	653.458
385.088	28.427	814.318	652.954
386.102	28.542	813.547	652.685
387.117	28.190	813.306	651.181
388.132	28.190	812.521	650.498
389.146	27.858	811.796	648.680
390.161	27.485	810.725	646.442
391.175	27.560	810.404	646.396
392.190	28.070	810.813	648.473
393.205	28.122	810.121	648.047
394.219	26.985	808.749	642.867
395.234	25.399	806.379	635.322
396.248	24.764	804.897	631.856
397.263	25.606	806.107	635.729
398.278	27.493	807.232	643.230
399.292	28.049	807.025	644.970
400.307	27.692	806.393	643.149
401.321	27.757	805.906	642.933
402.336	27.713	805.874	642.695
403.350	28.158	805.510	643.913
404.365	28.454	805.631	644.996
405.380	28.852	805.425	646.173
406.394	29.023	805.085	646.445
407.409	29.169	805.014	646.843
408.423	29.074	804.352	645.919
409.438	29.080	803.516	645.212
410.453	29.069	803.307	644.951
411.467	29.252	802.676	645.026
412.482	29.216	802.141	644.414
413.496	29.128	801.808	643.780
414.511	29.083	801.814	643.573
415.526	29.245	801.136	643.537
416.540	29.232	800.599	643.003
417.555	29.066	800.260	642.094
418.569	28.855	799.347	640.570
419.584	28.745	798.884	639.759
420.599	28.928	798.484	640.021
421.613	106.241	1279.589	1433.308
422.628	91.417	1349.699	1433.408
