DTS Sentinel unit serial number:	SN413079Multiplexer serial number:	ORYXHardware model number:	OX4-SRSoftware version number:	ORYX F/W v4.00 Oryx Data Collector v3.7.2.0data status	okinstallation	princeton_trtdifferential loss correction	single-endedforward channel	channel 3reverse channel	N/Adate	2019/09/17time	09:04:35forward acquisition time	60.00reverse acquisition time	0.00gamma	496.2192k internal	0.2328k external	0.2328temperature offset calibration	0.9939default loss term (dB/km)	0.3790temperature slope calibration	1.0000multiplexer offset coefficient	1.0000multiplexer slope coefficient	1.0000fibre end	0.00T internal ref (°C)	28.12T ext. ref 1 (°C)	0.13T ext. ref 2 (°C)	24.80length (m)	temperature (°C)	Stokes	anti-Stokes-747.200	27.500	0.244	-0.206
-746.185	-200.000	-0.012	0.181
-745.171	-48.050	-0.075	-0.036
-744.156	-6.152	0.158	-0.109
-743.142	-200.000	-0.003	-0.035
-742.127	-200.000	0.028	0.277
-741.112	-101.131	-0.076	-0.019
-740.098	-46.082	-0.296	0.147
-739.083	-159.205	0.401	0.023
-738.069	126.350	-0.026	0.034
-737.054	-59.226	-0.261	0.113
-736.039	-48.659	-0.414	-0.200
-735.025	35.647	0.110	0.097
-734.010	-57.293	-0.263	-0.117
-732.996	-114.726	0.102	-0.020
-731.981	246.632	-0.096	0.163
-730.966	355.560	0.107	-0.215
-729.952	-46.229	-0.432	-0.214
-728.937	142.132	-0.156	-0.208
-727.923	-200.000	0.066	-0.307
-726.908	25.080	0.345	-0.288
-725.894	-26.861	-0.282	-0.166
-724.879	192.344	-0.089	0.135
-723.864	-200.000	-0.342	0.001
-722.850	-200.000	-0.002	-0.201
-721.835	-200.000	-0.035	-0.274
-720.821	-200.000	-0.020	0.180
-719.806	174.959	-0.086	0.126
-718.791	800.000	0.010	-0.039
-717.777	741.094	-0.067	0.181
-716.762	-120.544	-0.238	0.041
-715.748	-155.252	-0.182	-0.012
-714.733	-129.705	-0.108	-0.015
-713.718	91.410	0.208	-0.235
-712.704	20.840	0.158	0.129
-711.689	-19.160	-0.329	-0.206
-710.675	20.557	-0.229	0.186
-709.660	-200.000	-0.013	0.130
-708.645	-161.934	-0.080	-0.004
-707.631	-8.796	0.132	-0.089
-706.616	-113.311	0.205	-0.041
-705.602	684.648	0.071	-0.188
-704.587	-154.344	0.172	0.012
-703.572	327.749	0.029	-0.056
-702.558	-123.317	-0.176	-0.028
-701.543	384.723	0.104	-0.216
-700.529	-200.000	-0.037	0.221
-699.514	253.221	0.084	0.145
-698.499	-195.089	-0.182	0.001
-697.485	-104.554	0.106	0.025
-696.470	136.057	-0.053	-0.069
-695.456	106.429	-0.208	0.248
-694.441	-151.260	0.127	0.010
-693.426	-200.000	-0.282	-0.001
-692.412	96.184	-0.119	-0.137
-691.397	395.134	-0.116	-0.243
-690.383	588.861	0.033	0.082
-689.368	-34.756	0.078	0.043
-688.354	800.000	-0.045	-0.134
-687.339	-200.000	-0.003	-0.041
-686.324	-112.067	0.141	-0.029
-685.310	-52.827	0.150	-0.070
-684.295	49.304	-0.347	-0.328
-683.281	-74.910	-0.223	-0.080
-682.266	191.337	0.105	-0.159
-681.251	-11.382	-0.042	-0.028
-680.237	-106.011	-0.258	0.058
-679.222	-200.000	0.065	-0.701
-678.208	-36.601	0.109	-0.059
-677.193	-200.000	-0.010	-0.060
-676.178	624.397	0.085	-0.216
-675.164	-200.000	-0.112	-0.520
-674.149	-200.000	-0.031	-0.262
-673.135	800.000	-0.052	-0.155
-672.120	53.768	-0.041	-0.039
-671.105	-71.613	-0.558	0.209
-670.091	-90.634	0.193	0.056
-669.076	-200.000	-0.016	-0.303
-668.062	-44.843	0.089	0.045
-667.047	-146.959	-0.168	-0.014
-666.032	-153.286	0.263	0.018
-665.018	-104.315	0.081	-0.019
-664.003	130.059	-0.187	-0.240
-662.989	-46.743	-0.434	-0.213
-661.974	800.000	-0.058	0.243
-660.959	-200.000	-0.047	-0.301
-659.945	-151.473	-0.124	0.009
-658.930	-200.000	0.017	0.358
-657.916	-81.356	0.140	0.046
-656.901	89.325	0.097	0.108
-655.886	-100.052	0.201	-0.050
-654.872	-82.742	0.076	0.025
-653.857	190.512	0.194	-0.292
-652.843	143.739	-0.294	-0.393
-651.828	-29.232	0.388	-0.223
-650.814	-200.000	-0.003	-0.118
-649.799	-131.437	-0.117	0.015
-648.784	320.947	0.053	0.100
-647.770	-19.064	0.275	0.171
-646.755	-12.451	-0.252	-0.165
-645.741	800.000	0.105	-0.297
-644.726	-66.518	0.212	-0.084
-643.711	-65.499	0.262	-0.106
-642.697	-2.216	0.281	0.198
-641.682	-52.842	0.096	-0.044
-640.668	-114.511	-0.112	-0.022
-639.653	-27.923	0.122	0.071
-638.638	-200.000	0.005	-0.148
-637.624	-200.000	-0.025	0.312
-636.609	-116.027	-0.041	0.008
-635.595	162.611	0.165	-0.232
-634.580	-49.324	-0.343	0.164
-633.565	-57.252	-0.305	0.134
-632.551	498.591	-0.108	0.250
-631.536	-148.060	-0.368	0.031
-630.522	-68.048	0.445	-0.174
-629.507	-200.000	0.012	-0.400
-628.492	49.900	0.316	-0.299
-627.478	227.756	0.141	-0.231
-626.463	55.809	-0.214	-0.208
-625.449	-135.852	-0.135	0.016
-624.434	81.456	0.121	-0.131
-623.419	-105.853	0.120	-0.027
-622.405	195.025	-0.114	-0.174
-621.390	326.544	-0.034	0.065
-620.376	45.449	-0.269	0.249
-619.361	-135.111	0.191	0.023
-618.346	-200.000	-0.003	0.076
-617.332	-200.000	0.052	-0.343
-616.317	342.666	-0.018	0.034
-615.303	-157.778	-0.338	-0.020
-614.288	-200.000	0.035	-0.238
-613.273	93.726	-0.213	-0.242
-612.259	-150.981	0.236	-0.018
-611.244	-200.000	0.009	0.087
-610.230	-50.509	-0.392	0.185
-609.215	200.502	0.133	0.204
-608.201	498.071	0.076	0.176
-607.186	-200.000	0.352	0.001
-606.171	-83.343	0.159	-0.051
-605.157	-39.591	0.116	-0.061
-604.142	-57.428	0.095	0.042
-603.128	-105.064	-0.141	-0.032
-602.113	-145.297	0.209	0.019
-601.098	84.122	-0.087	-0.095
-600.084	7.601	0.199	-0.149
-599.069	-50.438	0.018	-0.009
-598.055	-89.121	-0.234	0.069
-597.040	800.000	-0.099	0.341
-596.025	-42.373	-0.004	-0.002
-595.011	240.058	0.059	-0.098
-593.996	178.497	-0.167	-0.244
-592.982	175.873	-0.181	-0.264
-591.967	800.000	0.120	-0.334
-590.952	35.478	-0.150	0.131
-589.938	12.277	-0.115	-0.089
-588.923	-52.145	0.226	-0.105
-587.909	97.832	-0.094	0.108
-586.894	346.947	-0.083	0.163
-585.879	-145.254	-0.106	0.010
-584.865	-200.000	-0.016	-0.089
-583.850	19.081	0.250	0.201
-582.836	508.948	-0.069	-0.160
-581.821	-14.184	-0.152	-0.098
-580.806	-173.023	-0.055	0.002
-579.792	-9.991	-0.407	0.271
-578.777	126.471	-0.144	-0.183
-577.763	51.162	-0.100	0.095
-576.748	210.129	-0.136	0.213
-575.733	-92.426	0.297	0.084
-574.719	130.348	-0.173	0.222
-573.704	-184.240	-0.175	0.003
-572.690	800.000	-0.046	0.162
-571.675	136.376	0.174	0.227
-570.661	800.000	0.061	0.202
-569.646	699.827	-0.062	-0.164
-568.631	-86.407	-0.152	0.047
-567.617	-142.990	0.201	-0.020
-566.602	-1.470	-0.126	0.089
-565.588	-200.000	0.090	-0.484
-564.573	-35.497	-0.553	0.301
-563.558	-131.597	0.118	0.015
-562.544	-200.000	0.027	-0.135
-561.529	-20.513	-0.191	-0.118
-560.515	112.033	0.059	-0.071
-559.500	-200.000	0.028	-0.362
-558.485	64.758	-0.292	-0.295
-557.471	24.516	-0.082	-0.068
-556.456	-200.000	0.029	-0.169
-555.442	800.000	0.024	-0.097
-554.427	-75.653	-0.440	0.156
-553.412	-140.072	-0.044	-0.005
-552.398	46.171	0.124	0.115
-551.383	377.096	0.119	-0.243
-550.369	121.297	-0.111	-0.138
-549.354	-82.399	0.243	-0.079
-548.339	800.000	-0.046	0.172
-547.325	6.440	0.358	-0.266
-546.310	213.059	0.035	0.056
-545.296	516.266	-0.160	-0.374
-544.281	70.920	-0.147	-0.152
-543.266	-200.000	-0.006	0.049
-542.252	-159.801	0.045	-0.002
-541.237	63.434	-0.109	-0.109
-540.223	-200.000	0.009	-0.114
-539.208	-200.000	-0.014	0.184
-538.193	-156.911	-0.292	-0.018
-537.179	-28.314	-0.473	-0.273
-536.164	631.204	0.062	0.156
-535.150	-200.000	-0.008	0.158
-534.135	-200.000	-0.021	0.214
-533.121	800.000	-0.080	-0.243
-532.106	-9.260	-0.113	0.075
-531.091	-127.328	0.038	-0.006
-530.077	800.000	-0.040	0.118
-529.062	800.000	-0.078	0.228
-528.048	-12.662	-0.094	-0.061
-527.033	166.694	-0.122	0.173
-526.018	-37.933	-0.160	0.085
-525.004	-101.097	0.089	0.022
-523.989	403.421	-0.035	0.073
-522.975	67.621	-0.146	-0.149
-521.960	60.079	0.002	-0.002
-520.945	-102.217	0.096	0.023
-519.931	-200.000	0.025	0.146
-518.916	-50.390	-0.187	-0.088
-517.902	-114.866	0.618	-0.118
-516.887	-70.789	-0.295	-0.111
-515.872	367.627	0.016	0.033
-514.858	-200.000	0.051	-0.298
-513.843	-85.058	0.255	-0.080
-512.829	-136.282	-0.069	0.008
-511.814	7.641	-0.032	-0.024
-510.799	-89.210	-0.358	-0.106
-509.785	-75.550	0.091	-0.032
-508.770	-15.765	0.208	-0.132
-507.756	443.831	-0.024	-0.053
-506.741	-123.947	0.313	-0.049
-505.726	39.599	0.122	-0.109
-504.712	388.345	-0.107	-0.222
-503.697	800.000	0.082	-0.265
-502.683	800.000	0.082	0.247
-501.668	260.507	-0.046	0.079
-500.653	-57.348	-0.171	0.075
-499.639	-0.512	-0.081	-0.057
-498.624	165.557	-0.060	0.084
-497.610	-116.794	-0.149	-0.027
-496.595	-92.458	-0.279	0.078
-495.581	50.989	0.140	-0.133
-494.566	-200.000	0.006	0.123
-493.551	-200.000	0.075	0.353
-492.537	-69.720	0.103	0.039
-491.522	-131.873	-0.344	0.045
-490.508	-200.000	0.017	0.079
-489.493	-200.000	0.054	-0.408
-488.478	70.299	-0.150	-0.155
-487.464	311.872	0.189	-0.354
-486.449	-200.000	0.037	0.189
-485.435	-200.000	0.054	0.318
-484.420	-38.674	-0.315	-0.166
-483.405	800.000	0.022	-0.073
-482.391	-200.000	-0.039	-0.257
-481.376	3.992	-0.256	0.186
-480.362	-200.000	-0.049	-0.305
-479.347	-70.627	-0.158	-0.060
-478.332	-200.000	0.108	-0.590
-477.318	-43.695	-0.132	0.066
-476.303	253.010	0.125	-0.213
-475.289	356.732	0.083	0.164
-474.274	151.970	0.147	-0.200
-473.259	-88.460	-0.242	-0.072
-472.245	800.000	0.081	-0.260
-471.230	-112.627	-0.204	-0.041
-470.216	800.000	0.045	0.169
-469.201	223.809	-0.036	-0.057
-468.186	-76.226	-0.327	-0.115
-467.172	-200.000	-0.071	0.358
-466.157	800.000	-0.073	0.219
-465.143	220.757	0.103	0.165
-464.128	340.620	0.070	-0.136
-463.113	800.000	-0.010	-0.035
-462.099	114.019	-0.238	-0.288
-461.084	557.618	0.111	-0.267
-460.070	-200.000	-0.031	0.180
-459.055	-4.780	-0.157	-0.108
-458.040	59.568	-0.111	0.109
-457.026	-138.315	0.121	-0.013
-456.011	-30.945	0.198	-0.111
-454.997	463.831	0.056	0.124
-453.982	-156.461	0.147	-0.009
-452.968	-133.922	-0.265	-0.033
-451.953	-200.000	0.017	0.245
-450.938	9.679	-0.151	-0.114
-449.924	30.458	-0.307	0.262
-448.909	31.189	0.120	0.102
-447.895	-51.200	0.143	-0.067
-446.880	-200.000	-0.017	-0.135
-445.865	206.949	0.064	0.100
-444.851	-200.000	-0.011	-0.077
-443.836	800.000	0.134	0.445
-442.822	-52.687	-0.242	-0.111
-441.807	-200.000	-0.013	0.087
-440.792	-121.149	0.292	0.049
-439.778	652.989	-0.050	0.127
-438.763	136.719	-0.219	-0.284
-437.749	87.011	-0.113	0.124
-436.734	800.000	-0.031	-0.088
-435.719	-150.888	0.154	0.012
-434.705	162.531	0.199	0.278
-433.690	800.000	0.021	-0.089
-432.676	-55.854	0.058	-0.026
-431.661	103.631	0.039	0.045
-430.646	173.795	-0.082	0.118
-429.632	492.644	-0.067	0.153
-428.617	69.285	-0.046	-0.047
-427.603	-200.000	0.018	0.325
-426.588	178.593	0.031	-0.045
-425.573	-108.399	0.320	0.069
-424.559	-73.523	-0.357	-0.130
-423.544	-200.000	0.052	-0.248
-422.530	19.045	-0.056	-0.044
-421.515	-200.000	-0.004	-0.057
-420.500	-21.951	0.263	-0.159
-419.486	132.145	-0.148	0.190
-418.471	-200.000	0.020	0.364
-417.457	5.895	0.192	0.142
-416.442	-200.000	-0.027	-0.122
-415.428	7.621	0.078	0.058
-414.413	97.811	0.156	-0.179
-413.398	-160.950	0.112	-0.006
-412.384	499.004	0.070	0.159
-411.369	15.041	-0.150	-0.117
-410.355	210.441	0.052	0.081
-409.340	-98.637	-0.194	0.049
-408.325	-25.932	-0.083	-0.049
-407.311	295.942	0.100	-0.181
-406.296	61.800	-0.303	-0.300
-405.282	-103.714	0.214	-0.050
-404.267	73.204	-0.072	-0.075
-403.252	35.837	-0.099	0.087
-402.238	-185.930	0.145	0.002
-401.223	-200.000	-0.024	0.150
-400.209	27.969	0.082	0.069
-399.194	48.319	-0.143	0.133
-398.179	-104.183	-0.326	-0.075
-397.165	25.023	0.160	0.132
-396.150	230.809	-0.119	0.193
-395.136	-3.190	-0.052	0.036
-394.121	61.458	-0.075	0.074
-393.106	54.810	0.229	0.219
-392.092	-122.797	-0.306	-0.049
-391.077	276.605	0.038	0.067
-390.063	-33.499	-0.195	-0.107
-389.048	323.953	0.054	-0.102
-388.033	-133.239	0.249	0.031
-387.019	-200.000	-0.034	0.352
-386.004	-98.029	0.325	-0.083
-384.990	-76.574	0.439	-0.153
-383.975	-200.000	0.006	0.054
-382.960	-200.000	0.036	0.461
-381.946	21.682	0.094	0.076
-380.931	-200.000	0.015	0.140
-379.917	-114.841	0.173	-0.033
-378.902	-174.622	0.265	-0.007
-377.888	-95.571	-0.212	0.056
-376.873	44.140	-0.190	-0.173
-375.858	74.379	-0.191	0.199
-374.844	-118.990	0.196	-0.034
-373.829	191.913	0.039	0.058
-372.815	319.112	0.113	0.213
-371.800	-200.000	0.026	0.193
-370.785	-147.679	-0.385	0.032
-369.771	-25.303	-0.140	0.082
-368.756	-135.806	-0.198	0.023
-367.742	-154.905	0.155	-0.010
-366.727	-183.756	-0.162	0.003
-365.712	-92.042	0.069	0.019
-364.698	-185.376	0.093	-0.001
-363.683	800.000	-0.157	0.441
-362.669	337.863	0.027	0.052
-361.654	-123.583	0.137	-0.022
-360.639	-132.715	0.241	0.031
-359.625	-16.128	-0.089	0.056
-358.610	-200.000	0.053	0.319
-357.596	22.184	0.335	0.271
-356.581	27.724	-0.271	-0.226
-355.566	53.179	-0.355	-0.338
-354.552	-126.664	0.253	0.037
-353.537	295.379	-0.175	0.319
-352.523	108.842	-0.108	0.128
-351.508	66.659	0.120	0.121
-350.493	800.000	0.022	-0.068
-349.479	-179.324	0.341	0.007
-348.464	-200.000	-0.039	-0.279
-347.450	172.784	0.221	0.316
-346.435	-108.307	-0.106	0.023
-345.420	800.000	-0.037	-0.153
-344.406	800.000	0.085	0.279
-343.391	62.570	-0.165	-0.163
-342.377	-200.000	-0.010	0.127
-341.362	-145.609	0.308	-0.027
-340.348	-200.000	-0.025	0.560
-339.333	135.308	-0.178	0.230
-338.318	-200.000	-0.015	0.213
-337.304	248.644	-0.158	0.265
-336.289	800.000	0.041	-0.140
-335.275	412.816	0.040	0.084
-334.260	326.245	0.093	0.177
-333.245	687.025	0.054	0.141
-332.231	479.365	0.104	0.234
-331.216	-200.000	0.000	-0.196
-330.202	-138.487	-0.348	-0.038
-329.187	-54.828	0.127	0.057
-328.172	-6.704	0.233	-0.157
-327.158	-46.911	0.091	0.044
-326.143	516.801	0.123	-0.285
-325.129	-52.162	-0.353	-0.162
-324.114	290.302	0.085	-0.153
-323.099	143.895	-0.050	-0.067
-322.085	-200.000	0.026	0.289
-321.070	800.000	-0.040	-0.118
-320.056	-61.636	-0.176	0.073
-319.041	163.748	0.184	0.257
-318.026	-152.164	-0.030	0.002
-317.012	-200.000	-0.001	-0.067
-315.997	-97.198	-0.054	-0.014
-314.983	56.961	0.118	0.114
-313.968	136.146	-0.226	0.292
-312.953	-84.855	0.402	0.125
-311.939	209.926	-0.071	0.110
-310.924	83.081	0.241	-0.260
-309.910	-92.152	0.414	0.116
-308.895	11.582	-0.383	-0.291
-307.880	800.000	-0.097	0.276
-306.866	79.712	-0.106	-0.113
-305.851	-169.915	0.186	0.007
-304.837	-200.000	0.028	-0.257
-303.822	800.000	-0.026	-0.077
-302.807	76.128	-0.140	-0.146
-301.793	399.317	-0.023	-0.048
-300.778	-119.806	-0.077	-0.013
-299.764	-20.464	0.324	-0.197
-298.749	97.269	0.255	-0.290
-297.735	-93.414	0.119	0.033
-296.720	-34.637	0.226	-0.123
-295.705	163.755	-0.026	0.036
-294.691	218.969	0.070	0.111
-293.676	14.750	0.112	0.086
-292.662	314.056	-0.060	-0.111
-291.647	680.032	0.121	0.312
-290.632	26.157	0.156	-0.129
-289.618	472.259	-0.138	-0.307
-288.603	-126.276	0.106	0.016
-287.589	-103.897	0.220	0.051
-286.574	6.671	0.333	0.245
-285.559	-143.331	0.439	0.042
-284.545	800.000	-0.091	-0.286
-283.530	145.062	-0.146	-0.193
-282.516	-95.627	0.309	-0.082
-281.501	-200.000	0.034	-0.164
-280.486	-130.043	-0.352	-0.048
-279.472	99.924	0.125	0.144
-278.457	31.881	0.023	-0.020
-277.443	37.431	0.155	0.136
-276.428	97.611	-0.060	-0.068
-275.413	795.067	-0.111	0.302
-274.399	241.515	-0.037	-0.061
-273.384	-200.000	0.048	-0.383
-272.370	-200.000	0.003	-0.172
-271.355	67.235	0.203	-0.205
-270.340	65.376	-0.258	0.258
-269.326	-156.840	-0.274	0.017
-268.311	-120.521	0.143	-0.024
-267.297	-104.463	0.238	-0.054
-266.282	-119.234	0.370	0.064
-265.267	4.061	0.118	-0.085
-264.253	800.000	0.028	-0.077
-263.238	-69.578	-0.243	-0.092
-262.224	-38.801	-0.359	0.187
-261.209	39.648	0.118	-0.104
-260.195	-155.303	0.417	-0.027
-259.180	-200.000	0.023	0.256
-258.165	10.992	0.034	-0.026
-257.151	-200.000	0.024	-0.340
-256.136	3.782	0.207	0.149
-255.122	-139.419	0.055	0.006
-254.107	68.846	0.127	-0.129
-253.092	800.000	-0.077	-0.228
-252.078	434.168	-0.044	0.095
-251.063	-62.286	-0.124	-0.051
-250.049	736.856	0.068	-0.179
-249.034	446.952	-0.165	0.359
-248.019	800.000	0.040	0.116
-247.005	-139.815	-0.203	0.021
-245.990	-200.000	-0.020	0.099
-244.976	-200.000	0.013	0.252
-243.961	-86.020	0.121	0.037
-242.946	34.126	0.166	-0.143
-241.932	-82.271	0.286	0.092
-240.917	-109.211	0.091	-0.019
-239.903	77.600	-0.290	-0.305
-238.888	-71.265	0.310	0.115
-237.873	-28.850	-0.376	0.213
-236.859	-87.034	-0.230	-0.069
-235.844	-200.000	-0.012	0.051
-234.830	-65.423	-0.216	0.086
-233.815	-185.653	-0.145	-0.002
-232.800	-142.411	-0.355	0.034
-231.786	131.897	0.061	-0.077
-230.771	-12.378	-0.073	-0.047
-229.757	800.000	0.107	-0.314
-228.742	119.067	0.242	-0.295
-227.727	4.093	-0.183	-0.132
-226.713	122.957	0.102	0.126
-225.698	-65.931	-0.161	0.064
-224.684	-200.000	-0.041	0.226
-223.669	-14.079	-0.197	0.125
-222.655	-15.850	0.187	-0.118
-221.640	-125.453	0.138	-0.021
-220.625	-96.920	-0.122	0.032
-219.611	11.639	0.372	-0.282
-218.596	-200.000	0.021	-0.160
-217.582	-39.292	0.217	0.112
-216.567	-42.949	0.259	0.130
-215.552	-200.000	0.025	0.135
-214.538	-93.015	-0.116	0.032
-213.523	-118.209	-0.182	0.032
-212.509	-74.794	-0.160	-0.057
-211.494	-118.656	-0.215	-0.037
-210.479	-48.454	-0.138	0.066
-209.465	-83.466	0.199	0.063
-208.450	-140.144	-0.087	0.009
-207.436	57.137	-0.094	0.090
-206.421	-200.000	0.052	-0.230
-205.406	-200.000	-0.003	0.237
-204.392	800.000	0.090	0.272
-203.377	-108.268	0.120	0.026
-202.363	254.026	0.112	0.189
-201.348	-61.438	0.045	0.019
-200.333	-81.894	0.112	-0.036
-199.319	75.307	-0.129	0.134
-198.304	-77.585	-0.218	-0.075
-197.290	59.101	-0.134	-0.130
-196.275	-91.690	-0.212	0.059
-195.260	-13.046	0.163	-0.105
-194.246	-71.968	0.056	0.021
-193.231	800.000	-0.022	0.081
-192.217	418.313	-0.013	0.028
-191.202	-200.000	0.023	-0.113
-190.187	163.017	-0.355	0.491
-189.173	-200.000	0.028	0.268
-188.158	-156.392	0.528	0.033
-187.144	-22.114	0.195	-0.117
-186.129	-200.000	0.106	0.522
-185.114	-186.828	0.026	0.000
-184.100	228.721	0.009	0.014
-183.085	-21.581	0.339	-0.204
-182.071	-9.678	-0.213	-0.140
-181.056	-40.684	0.398	-0.203
-180.042	-200.000	0.015	-0.173
-179.027	-81.068	0.124	-0.040
-178.012	-18.243	-0.184	-0.114
-176.998	-107.206	0.261	-0.057
-175.983	29.142	0.108	0.090
-174.969	36.597	-0.204	-0.177
-173.954	-94.137	0.049	-0.013
-172.939	-200.000	0.206	-0.001
-171.925	800.000	0.071	0.273
-170.910	238.993	0.045	0.073
-169.896	-125.253	-0.471	0.071
-168.881	-200.000	0.020	0.132
-167.866	-116.615	-0.072	0.013
-166.852	-70.803	0.190	-0.071
-165.837	358.558	0.187	-0.367
-164.823	-92.333	0.151	-0.042
-163.808	45.485	0.111	-0.101
-162.793	800.000	0.073	0.243
-161.779	197.184	-0.161	-0.241
-160.764	56.843	0.242	0.232
-159.750	447.841	0.032	-0.070
-158.735	-25.503	-0.022	0.013
-157.720	15.154	0.187	-0.144
-156.706	-24.335	-0.372	0.218
-155.691	-55.006	-0.312	-0.139
-154.677	-200.000	0.069	0.304
-153.662	69.539	-0.297	-0.301
-152.647	-56.375	-0.167	-0.073
-151.633	800.000	-0.035	-0.103
-150.618	776.853	-0.009	-0.023
-149.604	-89.567	-0.126	-0.036
-148.589	33.335	-0.308	0.263
-147.574	-64.346	0.113	0.045
-146.560	178.099	0.079	-0.114
-145.545	-121.928	-0.282	0.046
-144.531	297.959	0.051	0.091
-143.516	-200.000	0.003	-0.082
-142.502	-62.512	0.172	0.070
-141.487	-200.000	-0.027	0.282
-140.472	11.276	-0.121	0.091
-139.458	-200.000	0.045	0.239
-138.443	247.290	-0.120	0.200
-137.429	800.000	0.174	0.554
-136.414	8.802	-0.091	0.067
-135.399	6.386	0.167	0.122
-134.385	-200.000	-0.008	-0.418
-133.370	435.591	-0.125	0.268
-132.356	-200.000	-0.017	-0.265
-131.341	-175.417	-0.080	0.002
-130.326	800.000	-0.037	-0.142
-129.312	98.465	0.113	-0.128
-128.297	-200.000	0.033	0.514
-127.283	59.174	0.252	-0.244
-126.268	-68.522	0.123	0.047
-125.253	0.702	0.136	-0.096
-124.239	-64.905	-0.417	-0.166
-123.224	-103.835	-0.291	-0.067
-122.210	325.592	-0.057	-0.108
-121.195	-200.000	-0.041	0.182
-120.180	-3.621	0.153	-0.105
-119.166	-200.000	-0.037	-0.162
-118.151	8.217	0.255	0.188
-117.137	-125.465	0.066	-0.010
-116.122	431.584	-0.071	-0.150
-115.107	-200.000	-0.001	-0.013
-114.093	-13.545	-0.065	0.042
-113.078	0.020	0.210	0.147
-112.064	-56.645	0.102	0.044
-111.049	-88.762	-0.143	-0.042
-110.034	-30.528	0.219	-0.122
-109.020	800.000	0.048	-0.143
-108.005	-200.000	-0.011	0.122
-106.991	-200.000	0.067	0.296
-105.976	-85.358	0.160	0.049
-104.962	-136.698	-0.531	0.060
-103.947	169.703	-0.115	-0.161
-102.932	30.134	-0.154	-0.129
-101.918	-30.712	-0.104	-0.058
-100.903	-200.000	-0.022	-0.216
-99.889	-113.087	0.062	-0.012
-98.874	129.722	0.242	-0.304
-97.859	800.000	0.102	-0.398
-96.845	-181.386	0.250	-0.005
-95.830	12.111	-0.182	0.138
-94.816	-111.339	0.297	0.060
-93.801	-200.000	-0.009	0.206
-92.786	-6.837	-0.108	0.072
-91.772	129.267	0.342	0.429
-90.757	121.328	0.255	-0.312
-89.743	380.775	0.118	0.237
-88.728	800.000	-0.030	0.123
-87.713	800.000	0.131	-0.458
-86.699	140.497	-0.236	0.305
-85.684	88.445	-0.077	0.084
-84.670	91.894	0.123	0.136
-83.655	344.435	0.133	0.257
-82.640	-68.478	-0.135	-0.052
-81.626	-38.289	-0.220	0.114
-80.611	155.182	-0.188	-0.254
-79.597	800.000	0.044	-0.141
-78.582	800.000	0.114	0.320
-77.567	658.910	-0.068	0.172
-76.553	-200.000	0.051	-0.282
-75.538	-200.000	0.040	-0.405
-74.524	800.000	-0.100	-0.309
-73.509	740.442	0.052	-0.137
-72.494	28.989	-0.218	0.182
-71.480	680.369	-0.060	0.152
-70.465	-175.000	0.328	-0.009
-69.451	-53.474	-0.050	-0.022
-68.436	250.717	0.256	0.427
-67.422	480.095	0.099	-0.220
-66.407	163.262	0.086	-0.118
-65.392	171.916	0.169	0.239
-64.378	-18.751	-0.168	-0.103
-63.363	258.767	0.140	-0.237
-62.349	800.000	-0.117	-0.480
-61.334	46.058	-1.078	-0.979
-60.319	218.486	0.462	0.724
-59.305	387.268	-0.452	-0.916
-58.290	165.119	0.636	0.881
-57.276	800.000	0.485	1.705
-56.261	-200.000	110.339	609.219
-55.246	443.129	1511.844	3249.933
-54.232	144.868	2687.011	3523.275
-53.217	103.072	2183.577	2509.314
-52.203	38.584	1710.214	1495.966
-51.188	31.257	1527.784	1286.106
-50.173	29.001	1502.467	1249.447
-49.159	51.083	1559.245	1450.053
-48.144	50.730	1576.056	1463.187
-47.130	31.426	1532.301	1290.869
-46.115	28.373	1517.252	1257.234
-45.100	28.263	1513.774	1253.545
-44.086	28.239	1512.267	1252.084
-43.071	28.124	1510.104	1249.460
-42.057	28.064	1508.436	1247.620
-41.042	28.132	1506.862	1246.735
-40.027	28.113	1505.558	1245.477
-39.013	28.128	1504.006	1244.242
-37.998	28.035	1502.871	1242.620
-36.984	28.109	1501.432	1241.886
-35.969	28.045	1500.418	1240.562
-34.954	28.087	1498.735	1239.407
-33.940	28.099	1497.061	1238.058
-32.925	28.074	1495.934	1236.906
-31.911	28.155	1494.732	1236.413
-30.896	28.136	1493.342	1235.080
-29.881	28.226	1491.656	1234.244
-28.867	28.169	1490.671	1233.000
-27.852	28.149	1489.848	1232.137
-26.838	28.204	1488.093	1231.005
-25.823	28.139	1486.415	1229.130
-24.809	28.153	1484.688	1227.748
-23.794	28.156	1483.931	1227.091
-22.779	28.034	1482.929	1225.394
-21.765	28.166	1481.291	1224.879
-20.750	28.130	1480.345	1223.808
-19.736	28.345	1478.925	1224.024
-18.721	28.141	1478.349	1222.134
-17.706	28.196	1477.533	1221.776
-16.692	28.046	1476.358	1219.759
-15.677	28.192	1474.625	1219.247
-14.663	28.150	1474.200	1218.571
-13.648	28.093	1473.100	1217.235
-12.633	28.094	1472.213	1216.457
-11.619	28.034	1472.023	1215.857
-10.604	28.220	1470.162	1215.507
-9.590	28.113	1469.251	1213.993
-8.575	28.128	1468.576	1213.487
-7.560	28.202	1467.285	1212.860
-6.546	28.037	1466.997	1211.480
-5.531	28.105	1465.872	1210.954
-4.517	28.150	1465.095	1210.563
-3.502	28.118	1463.752	1209.192
-2.487	28.073	1463.256	1208.438
-1.473	28.196	1461.559	1207.800
-0.458	28.081	1460.631	1206.230
0.556	26.473	1451.378	1197.143
1.571	23.818	1426.780	1159.450
2.586	20.714	1366.285	1090.771
3.600	19.183	1283.125	1015.270
4.615	17.815	1238.256	971.896
5.629	15.188	1181.312	912.824
6.644	7.658	1096.337	808.882
7.659	1.199	1057.181	748.144
8.673	0.251	1051.415	739.347
9.688	0.174	1048.229	736.661
10.702	0.072	1046.560	734.923
11.717	0.034	1044.889	733.502
12.731	2.512	1047.096	747.087
13.746	10.209	1057.417	792.188
14.761	16.173	1064.920	827.063
15.775	17.092	1065.192	831.703
16.790	16.546	1062.830	827.116
17.804	15.411	1061.093	820.146
18.819	14.321	1059.252	813.331
19.834	14.039	1057.795	810.764
20.848	13.698	1056.852	808.306
21.863	13.495	1056.299	806.825
22.877	13.305	1055.302	805.067
23.892	13.106	1054.393	803.335
24.907	13.006	1053.463	802.071
25.921	13.071	1052.637	801.685
26.936	13.211	1051.959	801.775
27.950	13.171	1051.636	801.264
28.965	13.077	1050.844	800.136
29.980	13.229	1049.627	799.874
30.994	13.327	1048.579	799.480
32.009	13.320	1047.823	798.797
33.023	13.344	1047.367	798.493
34.038	13.356	1046.685	797.960
35.053	13.304	1046.062	797.164
36.067	13.183	1044.864	795.600
37.082	13.347	1043.856	795.551
38.096	13.169	1043.668	794.479
39.111	13.179	1042.749	793.760
40.126	13.355	1041.509	793.590
41.140	13.255	1040.725	792.444
42.155	13.123	1039.517	790.821
43.169	13.018	1038.866	789.752
44.184	13.101	1037.779	789.253
45.199	12.980	1036.851	787.901
46.213	12.971	1035.776	786.969
47.228	13.040	1035.253	786.835
48.242	13.252	1033.573	786.496
49.257	13.194	1032.971	785.690
50.271	13.199	1031.630	784.628
51.286	13.156	1030.970	783.851
52.301	13.308	1030.136	783.867
53.315	13.217	1029.210	782.664
54.330	13.154	1028.369	781.655
55.344	13.131	1027.483	780.803
56.359	13.229	1026.282	780.286
57.374	13.021	1026.113	779.107
58.388	13.118	1025.169	778.778
59.403	13.111	1024.191	777.935
60.417	13.035	1023.489	776.974
61.432	13.138	1022.433	776.585
62.447	12.973	1022.368	775.695
63.461	13.089	1021.258	775.326
64.476	13.163	1019.969	774.627
65.490	13.017	1019.457	773.484
66.505	12.974	1018.857	772.762
67.520	12.954	1018.210	772.108
68.534	13.074	1017.348	771.946
69.549	13.083	1016.476	771.260
70.563	13.043	1015.628	770.361
71.578	13.027	1015.150	769.854
72.593	13.080	1014.292	769.381
73.607	12.826	1013.616	767.621
74.622	13.062	1012.203	767.580
75.636	13.074	1011.401	766.958
76.651	12.899	1010.946	765.732
77.666	12.935	1009.843	764.997
78.680	12.932	1009.281	764.490
79.695	12.848	1008.969	763.799
80.709	12.902	1008.087	763.309
81.724	12.861	1007.385	762.523
82.739	12.982	1006.716	762.510
83.753	13.054	1005.940	762.185
84.768	13.213	1004.787	761.976
85.782	13.110	1004.414	761.152
86.797	13.278	1003.623	761.258
87.812	13.206	1002.609	760.092
88.826	13.200	1001.690	759.300
89.841	13.209	1000.776	758.580
90.855	13.196	1000.059	757.912
91.870	13.172	999.486	757.302
92.884	13.342	998.460	757.233
93.899	13.205	998.167	756.315
94.914	13.220	997.217	755.599
95.928	13.353	996.340	755.473
96.943	13.254	995.976	754.681
97.957	13.205	995.095	753.722
98.972	13.323	993.756	753.177
99.987	13.229	993.050	752.151
101.001	13.267	992.512	751.849
102.016	13.115	992.297	750.928
103.030	13.222	990.888	750.281
104.045	13.214	989.799	749.355
105.060	13.201	989.106	748.704
106.074	13.173	988.260	747.871
107.089	13.111	987.512	746.958
108.103	13.053	986.997	746.242
109.118	13.060	985.810	745.308
110.133	13.131	984.735	744.748
111.147	13.172	984.034	744.339
112.162	13.105	982.807	743.043
113.176	13.143	982.235	742.716
114.191	13.208	981.229	742.183
115.206	13.154	980.436	741.274
116.220	13.279	979.605	741.142
117.235	13.226	978.622	740.093
118.249	13.171	977.973	739.291
119.264	13.098	977.158	738.282
120.279	13.198	976.199	737.938
121.293	13.062	975.487	736.728
122.308	13.159	974.687	736.490
123.322	13.112	973.907	735.630
124.337	12.980	973.047	734.327
125.352	13.077	971.707	733.682
126.366	13.124	970.279	732.747
127.381	13.183	969.192	732.121
128.395	13.097	968.324	731.023
129.410	13.110	967.431	730.340
130.424	13.172	966.460	729.816
131.439	13.215	965.725	729.385
132.454	13.179	964.807	728.472
133.468	13.092	964.356	727.682
134.483	13.068	963.702	727.018
135.497	13.155	962.874	726.712
136.512	13.267	961.995	726.476
137.527	13.151	961.130	725.251
138.541	13.076	960.478	724.365
139.556	13.114	959.640	723.835
140.570	13.187	959.380	723.893
141.585	13.276	958.463	723.527
142.600	13.262	957.505	722.678
143.614	13.394	956.879	722.720
144.629	13.362	956.198	722.002
145.643	13.412	955.443	721.585
146.658	13.350	954.405	720.467
147.673	13.294	953.399	719.400
148.687	13.385	952.507	719.062
149.702	13.305	951.504	717.892
150.716	13.202	951.037	717.029
151.731	13.262	950.426	716.764
152.746	13.286	949.176	715.862
153.760	13.257	948.575	715.220
154.775	13.294	947.881	714.793
155.789	13.294	947.332	714.317
156.804	13.325	946.583	713.821
157.819	13.400	945.670	713.395
158.833	13.363	944.978	712.649
159.848	13.489	944.080	712.453
160.862	13.381	943.716	711.650
161.877	13.416	942.574	710.876
162.892	13.471	941.602	710.314
163.906	13.229	941.560	709.183
164.921	13.330	940.351	708.642
165.935	13.282	939.686	707.872
166.950	13.361	938.390	707.172
167.964	13.399	937.817	706.841
168.979	13.453	936.290	705.858
169.994	13.393	935.572	704.999
171.008	13.366	935.153	704.503
172.023	13.360	934.210	703.708
173.037	13.489	933.639	703.761
174.052	13.426	932.887	702.866
175.067	13.529	932.068	702.623
176.081	13.492	931.486	701.965
177.096	13.403	930.979	701.144
178.110	13.393	929.766	700.126
179.125	13.538	928.983	700.090
180.140	13.458	928.466	699.300
181.154	13.572	927.545	699.025
182.169	13.450	927.176	698.171
183.183	13.612	926.303	698.134
184.198	13.825	925.386	698.275
185.213	13.627	925.113	697.178
186.227	13.732	924.060	696.764
187.242	13.639	924.185	696.403
188.256	13.714	923.278	695.974
189.271	13.789	922.424	695.583
190.286	13.773	921.538	694.784
191.300	13.641	920.704	693.545
192.315	13.688	920.084	693.212
193.329	13.453	919.375	691.635
194.344	13.490	918.861	691.341
195.359	13.527	918.251	690.973
196.373	13.594	917.620	690.718
197.388	13.563	917.414	690.372
198.402	13.747	916.812	690.627
199.417	13.730	916.332	690.129
200.432	13.877	915.737	690.235
201.446	13.962	915.116	690.058
202.461	13.897	915.101	689.716
203.475	13.805	914.653	688.935
204.490	13.991	913.539	688.807
205.504	13.942	912.490	687.751
206.519	13.923	911.826	687.113
207.534	13.782	911.484	686.209
208.548	13.893	910.593	685.935
209.563	14.015	909.367	685.457
210.577	13.973	909.026	684.966
211.592	14.016	908.426	684.629
212.607	13.949	908.319	684.213
213.621	14.101	907.160	683.903
214.636	14.127	906.311	683.312
215.650	14.007	905.947	682.483
216.665	14.088	905.252	682.232
217.680	14.256	904.303	682.145
218.694	14.196	904.448	681.945
219.709	14.089	903.691	680.878
220.723	14.084	903.206	680.433
221.738	14.123	902.505	680.001
222.753	14.167	901.428	679.310
223.767	14.056	901.291	678.692
224.782	14.285	900.429	678.917
225.796	14.237	899.450	677.925
226.811	14.324	898.792	677.722
227.826	14.274	897.926	676.806
228.840	14.226	897.534	676.257
229.855	14.086	897.212	675.385
230.869	14.202	896.231	675.056
231.884	14.219	895.822	674.759
232.899	14.125	895.350	673.963
233.913	14.219	893.950	673.228
234.928	14.205	893.376	672.680
235.942	14.356	892.669	672.697
236.957	14.229	891.968	671.598
237.972	14.165	891.342	670.812
238.986	14.210	890.997	670.674
240.001	14.192	890.245	669.975
241.015	14.397	889.464	670.152
242.030	14.340	888.671	669.267
243.045	14.224	888.294	668.458
244.059	14.349	887.199	668.076
245.074	14.355	886.903	667.819
246.088	14.469	886.104	667.612
247.103	14.410	885.616	666.950
248.117	14.479	884.847	666.587
249.132	14.384	884.489	665.878
250.147	14.648	884.018	666.522
251.161	14.690	883.039	665.891
252.176	14.656	882.491	665.284
253.190	14.769	881.777	665.136
254.205	14.699	881.359	664.484
255.220	14.602	881.087	663.833
256.234	14.696	880.082	663.392
257.249	14.676	879.822	663.058
258.263	14.747	878.638	662.389
259.278	14.768	878.343	662.191
260.293	14.791	878.021	661.980
261.307	14.841	877.132	661.447
262.322	14.815	876.552	660.852
263.336	14.934	876.300	661.073
264.351	14.956	875.427	660.440
265.366	14.865	874.715	659.488
266.380	15.038	873.892	659.490
267.395	14.967	873.759	659.051
268.409	14.890	873.174	658.249
269.424	14.948	871.938	657.488
270.439	14.904	871.878	657.209
271.453	14.999	870.385	656.399
272.468	15.015	869.623	655.831
273.482	14.962	869.000	655.092
274.497	14.994	868.421	654.727
275.512	15.007	867.789	654.242
276.526	14.919	867.614	653.708
277.541	15.021	866.550	653.247
278.555	15.038	866.151	652.954
279.570	14.959	865.424	652.040
280.585	15.189	864.916	652.497
281.599	15.125	864.299	651.723
282.614	15.165	863.849	651.482
283.628	15.171	863.305	651.037
284.643	15.106	862.768	650.323
285.657	15.037	862.248	649.607
286.672	15.150	861.715	649.584
287.687	15.153	861.061	649.045
288.701	15.253	860.651	649.066
289.716	15.174	860.100	648.289
290.730	15.173	859.437	647.727
291.745	15.201	859.107	647.530
292.760	15.275	858.009	646.931
293.774	15.267	857.348	646.342
294.789	15.357	856.903	646.296
295.803	15.349	856.253	645.720
296.818	15.276	855.853	645.081
297.833	15.238	855.559	644.656
298.847	15.265	854.580	643.965
299.862	15.307	853.892	643.549
300.876	15.365	853.140	643.150
301.891	15.346	852.350	642.423
302.906	15.484	851.709	642.410
303.920	15.366	851.618	641.836
304.935	15.473	850.658	641.463
305.949	15.583	849.893	641.248
306.964	15.606	849.056	640.649
307.979	15.426	849.122	639.955
308.993	15.514	848.303	639.616
310.008	15.623	847.727	639.540
311.022	15.553	847.299	638.894
312.037	15.527	846.894	638.433
313.052	15.640	845.820	637.997
314.066	15.586	845.259	637.311
315.081	15.526	844.971	636.813
316.095	15.535	844.112	636.142
317.110	15.660	843.620	636.189
318.125	15.477	843.188	635.112
319.139	15.511	842.930	634.990
320.154	15.708	842.322	635.221
321.168	15.742	841.521	634.689
322.183	15.721	840.899	634.086
323.197	15.729	840.488	633.750
324.212	15.701	840.105	633.298
325.227	15.706	839.621	632.899
326.241	15.686	838.907	632.226
327.256	15.706	838.297	631.788
328.270	15.721	838.018	631.575
329.285	15.770	837.368	631.214
330.300	15.678	837.032	630.563
331.314	15.837	835.842	630.206
332.329	15.770	835.480	629.623
333.343	15.755	834.633	628.874
334.358	15.803	834.272	628.724
335.373	15.853	833.917	628.591
336.387	15.876	833.035	627.957
337.402	15.854	832.906	627.720
338.416	15.963	831.917	627.327
339.431	16.044	831.397	627.180
340.446	15.789	831.194	626.022
341.460	16.021	830.225	626.097
342.475	16.045	829.748	625.773
343.489	16.050	829.503	625.551
344.504	16.099	828.893	625.220
345.519	16.095	828.438	624.803
346.533	16.143	827.962	624.569
347.548	16.165	827.571	624.300
348.562	16.132	826.994	623.687
349.577	16.079	826.216	622.849
350.592	16.124	825.542	622.451
351.606	15.976	825.331	621.692
352.621	16.113	824.755	621.709
353.635	16.063	824.245	621.083
354.650	16.160	823.786	621.039
355.665	16.060	823.585	620.467
356.679	16.232	822.881	620.513
357.694	16.246	822.274	620.051
358.708	16.185	821.722	619.355
359.723	16.187	821.354	619.034
360.738	16.338	820.159	618.630
361.752	16.268	820.211	618.358
362.767	16.319	819.756	618.148
363.781	16.382	819.718	618.294
364.796	16.391	819.160	617.850
365.810	16.470	818.458	617.556
366.825	16.490	817.972	617.207
367.840	16.395	818.122	616.918
368.854	16.332	817.829	616.415
369.869	16.461	816.885	616.117
370.883	16.511	816.276	615.786
371.898	16.418	815.956	615.151
372.913	16.543	815.044	614.863
373.927	16.539	814.411	614.316
374.942	16.458	813.829	613.529
375.956	16.487	813.751	613.524
376.971	16.526	812.981	613.030
377.986	16.725	812.023	612.972
379.000	16.662	811.782	612.508
380.015	16.563	811.695	612.032
381.029	16.696	811.063	611.981
382.044	16.636	810.541	611.316
383.059	16.782	809.693	611.149
384.073	16.870	808.919	610.827
385.088	16.681	808.548	609.811
386.102	16.670	807.862	609.203
387.117	16.601	807.375	608.533
388.132	16.561	807.389	608.344
389.146	16.513	807.012	607.835
390.161	16.820	806.195	608.266
391.175	16.694	805.901	607.541
392.190	16.750	805.599	607.461
393.205	16.812	804.901	607.101
394.219	16.610	804.936	606.352
395.234	16.831	803.952	606.345
396.248	16.781	803.900	606.074
397.263	16.603	803.296	604.931
398.278	16.669	802.636	604.616
399.292	16.755	802.228	604.560
400.307	16.759	801.529	603.996
401.321	16.802	801.290	603.916
402.336	16.695	801.086	603.327
403.350	16.959	800.563	603.818
404.365	16.828	800.491	603.243
405.380	16.954	799.550	602.929
406.394	16.918	798.694	602.103
407.409	16.828	798.782	601.797
408.423	16.962	798.688	602.148
409.438	17.107	798.010	602.099
410.453	17.175	797.135	601.625
411.467	17.253	796.653	601.484
412.482	17.133	796.606	600.971
413.496	17.272	795.566	600.625
414.511	17.238	795.825	600.646
415.526	17.165	795.599	600.166
416.540	17.215	794.886	599.749
417.555	17.221	794.380	599.337
418.569	17.316	793.893	599.250
419.584	17.336	793.436	598.923
420.599	17.203	793.199	598.222
421.613	110.282	1292.209	1475.538
422.628	94.771	1364.881	1475.636
