DTS Sentinel unit serial number:	SN413079Multiplexer serial number:	ORYXHardware model number:	OX4-SRSoftware version number:	ORYX F/W v4.00 Oryx Data Collector v3.7.2.0data status	okinstallation	princeton_trtdifferential loss correction	single-endedforward channel	channel 3reverse channel	N/Adate	2019/09/16time	15:32:34forward acquisition time	60.00reverse acquisition time	0.00gamma	496.2192k internal	0.2292k external	0.2292temperature offset calibration	0.9941default loss term (dB/km)	0.3790temperature slope calibration	1.0000multiplexer offset coefficient	1.0000multiplexer slope coefficient	1.0000fibre end	0.00T internal ref (°C)	41.14T ext. ref 1 (°C)	14.68T ext. ref 2 (°C)	37.02length (m)	temperature (°C)	Stokes	anti-Stokes-747.200	369.402	0.124	0.256
-746.185	-200.000	0.024	0.387
-745.171	179.878	-0.099	-0.148
-744.156	-200.000	0.006	0.242
-743.142	-29.340	0.083	0.049
-742.127	-200.000	-0.025	0.684
-741.112	-51.439	-0.236	0.113
-740.098	-26.832	-0.253	0.152
-739.083	-161.899	0.029	0.002
-738.069	-48.132	-0.187	0.093
-737.054	-34.768	-0.081	-0.045
-736.039	41.230	-0.300	0.278
-735.025	-75.570	0.105	-0.038
-734.010	-200.000	0.076	-0.408
-732.996	532.911	-0.132	0.319
-731.981	800.000	0.052	0.229
-730.966	-200.000	-0.056	0.398
-729.952	462.496	-0.106	0.241
-728.937	15.996	-0.319	-0.257
-727.923	50.972	0.100	0.097
-726.908	242.332	0.050	0.085
-725.894	-102.297	0.044	0.011
-724.879	59.435	0.162	0.163
-723.864	-200.000	-0.053	-0.376
-722.850	800.000	0.048	-0.189
-721.835	-200.000	0.017	-0.084
-720.821	-87.098	0.201	0.062
-719.806	-200.000	0.067	-0.361
-718.791	-57.458	-0.507	-0.228
-717.777	-52.000	-0.048	-0.023
-716.762	-22.533	-0.088	-0.055
-715.748	29.704	0.157	-0.136
-714.733	-200.000	-0.000	0.036
-713.718	-96.053	-0.188	0.051
-712.704	217.782	-0.075	-0.122
-711.689	-87.465	0.209	0.065
-710.675	-23.451	-0.202	-0.124
-709.660	-105.709	-0.087	0.020
-708.645	77.130	-0.214	-0.232
-707.631	-95.604	0.117	-0.032
-706.616	-162.194	-0.243	-0.012
-705.602	183.446	-0.144	-0.218
-704.587	-200.000	-0.031	0.208
-703.572	320.554	-0.048	-0.092
-702.558	-39.570	-0.186	0.099
-701.543	-70.192	0.213	0.083
-700.529	291.057	0.155	-0.288
-699.514	665.419	0.101	0.266
-698.499	266.456	0.093	0.166
-697.485	69.485	0.034	-0.036
-696.470	95.223	-0.066	0.077
-695.456	-22.414	0.224	-0.139
-694.441	-44.120	-0.196	0.101
-693.426	216.791	-0.091	0.148
-692.412	232.293	-0.104	-0.175
-691.397	-41.276	0.425	-0.224
-690.383	-88.168	-0.199	0.061
-689.368	-72.061	-0.096	0.037
-688.354	76.606	0.076	0.083
-687.339	49.222	-0.088	-0.084
-686.324	-44.944	-0.145	-0.074
-685.310	289.396	0.116	0.216
-684.295	-188.255	-0.192	-0.002
-683.281	-24.566	0.237	-0.144
-682.266	-69.060	0.202	-0.079
-681.251	-48.864	-0.261	0.128
-680.237	-90.840	-0.068	-0.020
-679.222	204.138	-0.092	0.145
-678.208	-200.000	-0.001	-0.364
-677.193	-200.000	0.024	0.189
-676.178	-200.000	0.079	-0.354
-675.164	-200.000	0.026	-0.152
-674.149	45.793	0.115	-0.109
-673.135	800.000	0.142	-0.457
-672.120	176.314	0.051	-0.076
-671.105	-65.329	0.171	-0.070
-670.091	1.306	0.230	-0.169
-669.076	-152.389	0.285	0.021
-668.062	-200.000	-0.006	0.059
-667.047	-34.609	0.114	0.064
-666.032	-130.031	0.052	-0.007
-665.018	-200.000	-0.015	0.072
-664.003	-173.295	-0.075	-0.002
-662.989	-164.974	0.102	0.005
-661.974	168.440	0.101	-0.147
-660.959	22.746	-0.143	-0.120
-659.945	-144.963	0.290	0.027
-658.930	800.000	-0.081	0.248
-657.916	250.780	-0.054	-0.093
-656.901	-11.977	0.427	-0.286
-655.886	-127.085	-0.198	-0.030
-654.872	37.475	0.277	0.251
-653.857	-10.478	-0.256	-0.173
-652.843	-146.924	-0.227	0.020
-651.828	-200.000	0.032	-0.358
-650.814	-145.939	0.411	0.037
-649.799	-193.457	-0.147	-0.001
-648.784	-111.632	-0.089	-0.018
-647.770	800.000	0.095	-0.369
-646.755	-101.460	-0.061	0.015
-645.741	-63.798	-0.144	0.060
-644.726	-45.936	0.072	0.036
-643.711	70.491	0.163	0.172
-642.697	160.416	0.102	0.145
-641.682	-173.415	0.441	-0.014
-640.668	-28.628	-0.114	0.067
-639.653	800.000	-0.076	-0.239
-638.638	525.048	-0.101	0.243
-637.624	39.746	0.174	0.159
-636.609	342.939	-0.250	-0.500
-635.595	-200.000	-0.007	-0.223
-634.580	-83.713	-0.187	-0.061
-633.565	-200.000	-0.039	0.194
-632.551	70.555	-0.140	0.148
-631.536	18.934	-0.177	0.144
-630.522	558.060	-0.100	0.245
-629.507	-200.000	-0.004	0.432
-628.492	-117.239	0.135	-0.025
-627.478	-200.000	-0.005	0.045
-626.463	800.000	-0.054	0.158
-625.449	34.448	0.220	0.196
-624.434	-113.501	0.250	-0.050
-623.419	122.263	0.038	0.049
-622.405	-127.972	-0.381	0.056
-621.390	156.250	0.201	0.282
-620.376	-104.690	0.053	-0.013
-619.361	-3.841	-0.106	-0.075
-618.346	162.174	-0.102	-0.145
-617.332	228.946	0.153	-0.255
-616.317	-92.765	-0.124	-0.035
-615.303	276.254	-0.140	-0.252
-614.288	-39.378	-0.236	-0.126
-613.273	-200.000	0.002	-0.084
-612.259	39.177	0.310	-0.283
-611.244	-66.249	-0.235	0.095
-610.230	-147.619	-0.234	0.020
-609.215	-143.662	-0.145	-0.014
-608.201	-13.661	-0.272	-0.179
-607.186	45.538	-0.135	0.127
-606.171	-51.299	-0.153	0.073
-605.157	267.143	-0.084	0.150
-604.142	-200.000	-0.004	-0.128
-603.128	152.673	0.075	0.105
-602.113	15.219	0.217	0.173
-601.098	800.000	0.041	-0.117
-600.084	-140.006	0.161	-0.017
-599.069	-200.000	-0.009	0.422
-598.055	-92.871	-0.254	0.072
-597.040	-18.741	-0.038	-0.024
-596.025	-200.000	-0.002	0.346
-595.011	-102.624	-0.150	0.036
-593.996	279.977	-0.194	-0.352
-592.982	176.059	0.045	-0.067
-591.967	5.139	0.067	0.050
-590.952	502.286	-0.101	0.238
-589.938	67.681	0.220	0.228
-588.923	89.753	0.198	0.225
-587.909	-129.354	-0.170	-0.024
-586.894	800.000	-0.118	0.363
-585.879	-68.539	0.043	-0.017
-584.865	7.883	-0.058	0.044
-583.850	17.478	-0.129	0.104
-582.836	-26.996	-0.326	-0.194
-581.821	-200.000	0.008	-0.076
-580.806	-113.807	-0.134	0.027
-579.792	765.468	-0.165	-0.456
-578.777	-21.482	-0.358	-0.222
-577.763	800.000	-0.037	-0.112
-576.748	-146.674	0.216	0.019
-575.733	-200.000	-0.033	0.274
-574.719	-110.968	0.088	0.018
-573.704	-124.185	0.528	0.084
-572.690	800.000	-0.110	-0.405
-571.675	800.000	0.024	-0.082
-570.661	-111.081	-0.260	0.054
-569.646	-200.000	0.011	-0.416
-568.631	194.580	0.044	-0.068
-567.617	-48.552	-0.091	0.044
-566.602	82.155	-0.468	-0.516
-565.588	-200.000	0.001	-0.137
-564.573	-135.044	0.561	-0.069
-563.558	-62.332	-0.125	-0.053
-562.544	-200.000	-0.001	-0.116
-561.529	-134.168	-0.032	0.004
-560.515	800.000	0.059	0.178
-559.500	-13.093	-0.118	0.078
-558.485	147.722	-0.036	0.050
-557.471	-17.192	0.408	0.261
-556.456	-200.000	-0.036	-0.184
-555.442	-200.000	0.009	0.095
-554.427	-100.383	-0.167	0.042
-553.412	800.000	0.028	-0.081
-552.398	-200.000	-0.012	-0.149
-551.383	644.856	-0.012	-0.031
-550.369	800.000	-0.085	-0.354
-549.354	342.556	0.189	0.377
-548.339	-130.408	-0.114	-0.016
-547.325	203.899	-0.088	-0.139
-546.310	-200.000	0.040	-0.249
-545.296	654.194	0.043	0.113
-544.281	-5.307	-0.146	-0.102
-543.266	-48.505	0.046	0.023
-542.252	289.135	0.172	0.317
-541.237	-200.000	-0.006	-0.065
-540.223	-14.120	0.070	0.046
-539.208	192.190	-0.097	-0.149
-538.193	66.003	-0.290	0.299
-537.179	-70.632	0.521	-0.200
-536.164	-22.109	-0.187	0.115
-535.150	63.036	-0.223	0.227
-534.135	-67.523	-0.031	0.012
-533.121	-18.380	-0.176	0.112
-532.106	-29.615	-0.262	-0.152
-531.091	232.468	-0.133	0.221
-530.077	-56.743	-0.297	0.133
-529.062	356.583	0.047	-0.095
-528.048	403.803	0.058	0.123
-527.033	-111.851	-0.182	0.037
-526.018	79.316	-0.129	0.141
-525.004	-63.982	0.076	-0.032
-523.989	-158.983	0.082	-0.005
-522.975	31.106	0.125	-0.109
-521.960	800.000	-0.028	-0.107
-520.945	356.016	0.187	0.378
-519.931	-27.922	-0.068	0.040
-518.916	505.932	0.098	-0.229
-517.902	189.288	-0.066	0.100
-516.887	344.035	-0.040	-0.080
-515.872	-177.024	0.191	-0.005
-514.858	-5.888	-0.285	-0.198
-513.843	-43.541	-0.290	-0.149
-512.829	149.736	0.094	-0.129
-511.814	-62.652	-0.177	-0.074
-510.799	-142.521	-0.355	0.035
-509.785	58.166	-0.188	-0.187
-508.770	767.381	-0.052	-0.144
-507.756	98.167	-0.040	0.046
-506.741	18.692	-0.381	-0.309
-505.726	-200.000	0.003	0.093
-504.712	98.435	-0.210	-0.246
-503.697	-36.783	-0.152	0.083
-502.683	5.642	-0.183	0.137
-501.668	91.302	0.027	-0.031
-500.653	800.000	0.038	0.120
-499.639	197.203	0.090	-0.140
-498.624	-45.196	-0.377	-0.190
-497.610	529.063	-0.078	-0.186
-496.595	-36.728	0.128	0.070
-495.581	800.000	0.024	0.078
-494.566	-36.776	0.073	-0.040
-493.551	428.621	0.140	-0.306
-492.537	96.666	0.040	-0.046
-491.522	49.842	-0.174	0.167
-490.508	-200.000	0.020	0.249
-489.493	36.937	0.125	0.112
-488.478	307.996	-0.096	0.182
-487.464	-67.133	-0.175	0.070
-486.449	780.836	-0.040	0.111
-485.435	-114.715	0.168	-0.033
-484.420	-200.000	-0.107	0.492
-483.405	75.422	0.113	0.121
-482.391	-200.000	-0.003	0.371
-481.376	17.801	-0.260	0.210
-480.362	-21.926	0.185	-0.114
-479.347	-200.000	-0.033	-0.150
-478.332	800.000	-0.038	-0.131
-477.318	363.707	0.187	-0.381
-476.303	-123.760	-0.097	-0.016
-475.289	138.189	-0.023	0.030
-474.274	-200.000	0.007	-0.043
-473.259	-38.935	-0.058	-0.031
-472.245	141.417	-0.068	0.091
-471.230	67.752	0.039	-0.041
-470.216	-200.000	0.001	-0.017
-469.201	523.202	0.045	-0.107
-468.186	584.743	-0.053	0.133
-467.172	-200.000	-0.048	-0.307
-466.157	-2.111	0.122	-0.087
-465.143	-43.519	-0.166	-0.085
-464.128	118.441	-0.102	0.127
-463.113	-77.863	-0.384	-0.134
-462.099	-200.000	0.055	-0.402
-461.084	-200.000	-0.064	-0.443
-460.070	-66.970	-0.398	-0.159
-459.055	55.283	0.343	-0.336
-458.040	-200.000	0.001	0.149
-457.026	35.482	0.141	0.125
-456.011	265.875	0.116	0.205
-454.997	99.050	-0.029	0.034
-453.982	-11.256	0.309	0.206
-452.968	-18.516	0.146	-0.092
-451.953	193.486	-0.123	-0.189
-450.938	551.234	-0.155	0.376
-449.924	-106.400	0.153	-0.034
-448.909	-86.288	-0.143	-0.045
-447.895	166.554	0.011	-0.016
-446.880	-103.811	-0.187	-0.044
-445.865	-43.488	0.136	0.069
-444.851	-197.379	0.262	0.002
-443.836	-33.829	-0.306	-0.171
-442.822	-100.389	0.072	0.018
-441.807	-2.531	-0.165	-0.117
-440.792	-200.000	0.004	-0.080
-439.778	-200.000	-0.059	-0.412
-438.763	130.014	0.052	-0.067
-437.749	74.122	-0.212	0.225
-436.734	-85.658	-0.335	-0.105
-435.719	-33.830	0.422	-0.235
-434.705	18.440	0.088	-0.071
-433.690	-64.988	0.286	0.117
-432.676	-102.724	0.117	-0.028
-431.661	613.439	0.133	-0.336
-430.646	800.000	-0.040	-0.123
-429.632	195.078	0.213	-0.327
-428.617	800.000	0.079	0.235
-427.603	-200.000	-0.016	0.207
-426.588	116.381	-0.300	0.372
-425.573	66.633	0.098	0.100
-424.559	-90.061	0.262	-0.077
-423.544	51.073	0.163	0.156
-422.530	-200.000	0.002	0.312
-421.515	-200.000	-0.077	0.356
-420.500	9.339	-0.032	-0.024
-419.486	159.150	-0.128	-0.180
-418.471	64.515	-0.209	-0.213
-417.457	281.487	-0.036	-0.065
-416.442	216.701	0.093	-0.150
-415.428	-58.559	0.273	-0.120
-414.413	386.243	0.062	-0.129
-413.398	84.471	0.281	0.310
-412.384	800.000	-0.047	-0.133
-411.369	-12.930	0.117	0.077
-410.355	-107.535	-0.115	0.026
-409.340	800.000	0.066	0.185
-408.325	800.000	0.059	-0.245
-407.311	-7.215	0.050	0.034
-406.296	-136.926	-0.188	0.022
-405.282	152.516	0.251	0.347
-404.267	-38.674	0.114	0.061
-403.252	-200.000	0.040	0.187
-402.238	-37.367	-0.141	-0.076
-401.223	374.300	0.071	0.145
-400.209	-135.380	-0.329	-0.040
-399.194	-27.975	0.215	-0.126
-398.179	-123.918	0.237	0.038
-397.165	-64.814	-0.309	0.126
-396.150	65.828	-0.052	-0.053
-395.136	229.147	-0.103	-0.170
-394.121	800.000	-0.036	-0.151
-393.106	-115.240	-0.125	-0.024
-392.092	141.769	0.152	0.203
-391.077	-37.741	0.197	-0.106
-390.063	-200.000	-0.028	-0.395
-389.048	-119.216	-0.110	0.019
-388.033	566.562	-0.041	-0.101
-387.019	4.355	0.156	0.115
-386.004	-68.538	-0.109	-0.043
-384.990	-200.000	-0.013	0.060
-383.975	499.886	-0.094	-0.219
-382.960	28.069	0.222	-0.189
-381.946	-11.119	-0.014	0.009
-380.931	10.649	-0.280	-0.216
-379.917	-115.119	-0.408	-0.078
-378.902	245.275	0.212	-0.360
-377.888	62.425	-0.205	0.207
-376.873	-83.226	0.118	-0.038
-375.858	358.478	-0.090	0.181
-374.844	-85.703	-0.337	-0.106
-373.829	5.963	-0.071	0.053
-372.815	-89.500	0.303	-0.090
-371.800	-23.500	0.123	-0.074
-370.785	800.000	0.067	-0.295
-369.771	262.913	0.195	0.341
-368.756	-98.940	0.213	-0.055
-367.742	255.027	-0.096	0.165
-366.727	-5.115	0.108	-0.075
-365.712	-33.314	-0.096	-0.053
-364.698	800.000	0.085	0.245
-363.683	-121.457	0.163	-0.027
-362.669	800.000	-0.104	0.373
-361.654	-94.517	0.110	0.030
-360.639	395.437	-0.045	-0.094
-359.625	466.417	-0.200	-0.452
-358.610	-64.654	0.213	-0.087
-357.596	-200.000	-0.002	-0.012
-356.581	-87.886	0.080	-0.024
-355.566	-80.190	0.139	-0.047
-354.552	331.890	-0.162	-0.315
-353.537	-200.000	0.017	-0.202
-352.523	111.008	0.055	-0.067
-351.508	-77.053	0.265	0.093
-350.493	-100.018	0.237	-0.060
-349.479	-151.030	-0.165	0.012
-348.464	-181.051	-0.054	0.001
-347.450	-200.000	0.035	-0.157
-346.435	150.216	0.076	-0.104
-345.420	800.000	0.062	0.238
-344.406	-121.104	0.171	0.029
-343.391	552.747	-0.067	-0.162
-342.377	-54.465	-0.328	0.150
-341.362	-49.022	0.358	0.173
-340.348	-144.104	-0.258	0.024
-339.333	235.800	-0.028	0.047
-338.318	-43.785	0.510	-0.259
-337.304	124.485	0.198	-0.251
-336.289	800.000	-0.032	0.132
-335.275	91.642	0.124	-0.141
-334.260	329.453	-0.113	-0.219
-333.245	-3.149	0.367	0.258
-332.231	44.477	-0.033	-0.030
-331.216	-139.401	0.291	-0.031
-330.202	800.000	0.021	-0.085
-329.187	42.331	0.153	0.140
-328.172	-195.435	-0.352	-0.003
-327.158	81.204	-0.206	0.224
-326.143	-200.000	0.023	0.123
-325.129	151.749	0.183	0.252
-324.114	-200.000	-0.004	-0.019
-323.099	-200.000	0.071	-0.377
-322.085	-111.542	-0.101	-0.021
-321.070	119.464	-0.278	-0.347
-320.056	800.000	0.034	-0.142
-319.041	800.000	-0.065	-0.182
-318.026	-200.000	-0.042	-0.400
-317.012	-104.840	0.316	0.073
-315.997	-82.530	-0.067	0.022
-314.983	43.273	0.246	0.226
-313.968	-200.000	-0.040	-0.183
-312.953	800.000	-0.072	0.201
-311.939	800.000	0.111	-0.482
-310.924	-75.777	0.177	0.063
-309.910	463.217	0.129	-0.291
-308.895	-200.000	0.017	0.270
-307.880	-135.847	-0.339	0.040
-306.866	-157.059	0.203	0.012
-305.851	158.868	-0.158	0.220
-304.837	207.737	-0.133	0.208
-303.822	357.950	0.051	0.103
-302.807	800.000	-0.010	-0.028
-301.793	-76.406	-0.256	-0.091
-300.778	250.094	0.052	-0.088
-299.764	-200.000	0.005	0.142
-298.749	-108.224	-0.270	0.059
-297.735	-200.000	-0.001	0.210
-296.720	269.854	0.019	-0.033
-295.705	-200.000	-0.022	0.183
-294.691	-200.000	-0.005	0.235
-293.676	-187.197	-0.310	-0.004
-292.662	-17.511	0.207	0.131
-291.647	65.427	-0.136	0.138
-290.632	203.679	0.063	-0.098
-289.618	287.332	0.207	-0.377
-288.603	-113.736	0.247	-0.048
-287.589	150.704	0.136	0.186
-286.574	-85.328	0.086	-0.027
-285.559	437.043	-0.158	0.346
-284.545	203.582	0.224	0.348
-283.530	-108.523	0.454	0.098
-282.516	-200.000	-0.009	-0.299
-281.501	28.804	-0.231	0.196
-280.486	108.803	-0.046	0.055
-279.472	-200.000	0.052	-0.326
-278.457	-99.037	-0.293	-0.075
-277.443	31.177	-0.218	-0.188
-276.428	-69.079	-0.253	-0.098
-275.413	800.000	0.016	0.055
-274.399	-86.180	-0.110	-0.034
-273.384	200.342	0.095	-0.146
-272.370	102.012	0.073	0.086
-271.355	144.694	0.074	-0.099
-270.340	-200.000	0.021	-0.183
-269.326	259.500	0.089	-0.154
-268.311	71.391	0.162	0.169
-267.297	-200.000	0.042	-0.199
-266.282	115.455	0.066	0.081
-265.267	-40.669	-0.119	0.062
-264.253	292.784	0.108	-0.197
-263.238	800.000	-0.063	-0.266
-262.224	800.000	-0.037	-0.106
-261.209	383.332	0.111	0.229
-260.195	-93.082	-0.370	0.103
-259.180	-84.489	0.228	0.072
-258.165	61.785	-0.187	-0.187
-257.151	374.880	-0.097	-0.198
-256.136	-13.221	0.021	0.014
-255.122	-74.442	-0.075	0.027
-254.107	-200.000	0.003	0.314
-253.092	-141.647	0.108	0.011
-252.078	341.245	0.108	0.211
-251.063	225.048	-0.059	0.096
-250.049	-117.568	-0.195	-0.035
-249.034	-95.862	-0.165	-0.044
-248.019	21.927	-0.131	-0.107
-247.005	11.659	-0.217	0.167
-245.990	800.000	-0.034	0.128
-244.976	-18.681	0.108	-0.068
-243.961	-170.284	-0.097	0.003
-242.946	800.000	-0.093	-0.267
-241.932	-50.657	0.193	-0.091
-240.917	800.000	0.054	-0.194
-239.903	-200.000	-0.019	0.221
-238.888	-71.769	0.198	-0.074
-237.873	800.000	0.126	0.409
-236.859	485.761	0.063	-0.143
-235.844	-72.519	0.315	0.117
-234.830	800.000	0.042	0.174
-233.815	93.925	-0.141	-0.161
-232.800	-158.809	-0.164	0.009
-231.786	-200.000	0.022	0.243
-230.771	-121.913	-0.264	-0.044
-229.757	-46.718	0.135	-0.066
-228.742	45.565	0.162	-0.150
-227.727	8.498	0.189	0.143
-226.713	271.608	-0.269	0.476
-225.698	133.043	0.203	-0.263
-224.684	-150.794	0.284	-0.022
-223.669	800.000	-0.016	-0.061
-222.655	800.000	-0.103	0.323
-221.640	101.501	0.190	0.222
-220.625	800.000	-0.049	0.165
-219.611	800.000	0.035	-0.107
-218.596	-83.773	0.119	0.038
-217.582	-158.974	0.283	-0.016
-216.567	137.695	-0.065	0.086
-215.552	87.771	0.185	-0.205
-214.538	529.849	-0.053	0.126
-213.523	170.193	-0.240	0.344
-212.509	79.013	0.128	0.138
-211.494	-23.544	-0.132	-0.079
-210.479	-102.255	-0.212	-0.051
-209.465	-75.037	-0.170	-0.061
-208.450	-200.000	0.037	0.321
-207.436	-101.990	-0.312	0.076
-206.421	-11.787	-0.137	-0.090
-205.406	-119.360	-0.123	-0.021
-204.392	-200.000	-0.037	0.407
-203.377	220.849	0.106	0.171
-202.363	42.033	0.080	-0.073
-201.348	19.868	0.080	-0.064
-200.333	-195.047	0.110	-0.001
-199.319	-36.173	0.161	-0.087
-198.304	-200.000	-0.012	-0.197
-197.290	467.500	0.184	-0.413
-196.275	6.534	-0.056	-0.042
-195.260	-180.263	0.358	-0.008
-194.246	-167.621	0.251	0.010
-193.231	91.295	-0.173	0.195
-192.217	376.067	-0.179	0.366
-191.202	157.427	-0.078	-0.108
-190.187	800.000	0.087	-0.245
-189.173	-72.214	0.069	-0.025
-188.158	148.025	-0.140	-0.189
-187.144	590.452	0.173	0.426
-186.129	800.000	-0.057	0.163
-185.114	-35.368	-0.207	0.113
-184.100	-21.132	0.239	-0.146
-183.085	-86.310	0.254	-0.078
-182.071	800.000	0.009	0.029
-181.056	-84.723	0.207	-0.065
-180.042	-130.858	0.227	-0.030
-179.027	-73.164	0.233	0.085
-178.012	264.927	0.131	0.228
-176.998	89.956	-0.129	-0.145
-175.983	-14.219	0.122	-0.079
-174.969	512.707	0.010	-0.024
-173.954	-114.077	0.191	0.037
-172.939	-108.964	0.231	0.049
-171.925	800.000	-0.108	0.376
-170.910	16.176	0.047	-0.037
-169.896	-49.394	-0.087	0.042
-168.881	436.513	-0.074	0.161
-167.866	-65.154	-0.061	0.025
-166.852	162.256	0.175	0.246
-165.837	-71.318	0.076	0.029
-164.823	-4.670	0.218	0.151
-163.808	-90.867	0.448	0.129
-162.793	-73.373	0.229	-0.084
-161.779	800.000	0.025	-0.103
-160.764	-200.000	-0.033	-0.182
-159.750	54.840	-0.025	0.025
-158.735	800.000	0.060	0.215
-157.720	800.000	-0.069	0.226
-156.706	-200.000	0.011	-0.100
-155.691	-109.070	0.140	-0.030
-154.677	-200.000	-0.003	-0.084
-153.662	112.565	0.157	0.190
-152.647	800.000	-0.087	0.257
-151.633	285.336	0.116	0.210
-150.618	-73.550	-0.417	0.152
-149.604	-97.439	0.127	-0.033
-148.589	35.595	-0.171	-0.151
-147.574	-78.021	0.372	-0.128
-146.560	-200.000	-0.016	0.080
-145.545	-135.011	-0.213	-0.026
-144.531	42.600	-0.033	-0.030
-143.516	40.436	0.219	0.197
-142.502	120.829	-0.129	0.160
-141.487	-200.000	-0.007	0.108
-140.472	-152.348	0.101	0.007
-139.458	510.341	-0.047	-0.108
-138.443	-200.000	0.011	0.101
-137.429	81.655	0.307	-0.332
-136.414	-200.000	0.025	-0.115
-135.399	-200.000	0.066	0.329
-134.385	139.794	-0.140	-0.184
-133.370	147.768	0.126	0.170
-132.356	-33.657	0.042	0.023
-131.341	27.165	0.110	-0.092
-130.326	-79.880	0.353	-0.119
-129.312	-64.482	0.237	0.096
-128.297	25.046	0.069	-0.057
-127.283	107.447	0.257	-0.305
-126.268	28.100	-0.085	0.072
-125.253	-200.000	0.029	0.158
-124.239	-200.000	-0.002	-0.218
-123.224	800.000	-0.095	-0.311
-122.210	554.659	0.035	0.085
-121.195	52.359	0.149	-0.142
-120.180	800.000	-0.074	-0.257
-119.166	-200.000	0.021	0.230
-118.151	800.000	0.064	0.186
-117.137	-151.401	0.166	0.012
-116.122	419.481	-0.126	-0.269
-115.107	416.795	-0.198	0.422
-114.093	-200.000	-0.039	0.286
-113.078	-200.000	-0.013	0.170
-112.064	100.918	0.082	0.095
-111.049	-76.565	-0.174	-0.061
-110.034	-91.511	-0.178	-0.051
-109.020	-131.317	0.478	0.063
-108.005	-131.012	-0.335	-0.045
-106.991	78.334	-0.189	-0.202
-105.976	74.860	0.108	-0.114
-104.962	-76.678	0.048	0.017
-103.947	-200.000	0.054	0.331
-102.932	-51.475	0.333	0.155
-101.918	-34.136	0.243	0.133
-100.903	-59.175	-0.229	-0.099
-99.889	-132.716	-0.045	-0.006
-98.874	-200.000	0.000	-0.186
-97.859	800.000	0.049	0.183
-96.845	800.000	0.065	0.263
-95.830	301.481	-0.148	-0.274
-94.816	800.000	-0.045	-0.162
-93.801	-200.000	-0.021	-0.202
-92.786	-200.000	-0.014	0.258
-91.772	-33.064	-0.099	-0.055
-90.757	800.000	-0.105	-0.394
-89.743	17.628	-0.281	-0.223
-88.728	16.243	0.084	-0.066
-87.713	-41.639	-0.230	-0.118
-86.699	-157.327	-0.212	0.013
-85.684	114.407	-0.057	-0.070
-84.670	104.842	-0.190	0.224
-83.655	800.000	-0.130	0.378
-82.640	-200.000	-0.021	-0.111
-81.626	135.161	0.136	-0.176
-80.611	31.295	0.101	-0.087
-79.597	-200.000	0.075	0.405
-78.582	-200.000	-0.061	0.384
-77.567	-140.452	-0.042	0.004
-76.553	13.399	-0.205	0.158
-75.538	-200.000	0.034	0.249
-74.524	-200.000	0.020	-0.277
-73.509	-58.315	0.319	0.138
-72.494	-200.000	0.018	-0.465
-71.480	-36.684	-0.071	-0.038
-70.465	-100.089	0.300	0.074
-69.451	-200.000	0.007	-0.147
-68.436	800.000	-0.052	0.193
-67.422	315.330	-0.184	-0.345
-66.407	217.591	0.170	0.269
-65.392	10.113	-0.300	-0.227
-64.378	172.663	-0.181	0.260
-63.363	-9.178	0.084	0.056
-62.349	2.042	0.051	0.037
-61.334	-9.637	-1.069	-0.710
-60.319	47.915	0.379	0.353
-59.305	-200.000	-0.140	-0.793
-58.290	198.029	0.341	0.520
-57.276	800.000	0.542	1.667
-56.261	-200.000	75.842	520.635
-55.246	537.193	1313.149	3107.645
-54.232	148.420	2538.697	3415.526
-53.217	118.205	2242.118	2754.359
-52.203	51.966	1766.711	1676.172
-51.188	44.502	1563.879	1431.408
-50.173	41.902	1533.773	1385.813
-49.159	57.943	1570.226	1531.193
-48.144	63.737	1589.910	1590.806
-47.130	45.140	1553.198	1425.860
-46.115	41.438	1539.421	1387.467
-45.100	41.256	1535.874	1382.951
-44.086	41.214	1533.355	1380.342
-43.071	41.132	1531.614	1378.149
-42.057	41.091	1529.252	1375.683
-41.042	41.022	1528.078	1374.102
-40.027	41.125	1526.492	1373.330
-39.013	41.205	1524.928	1372.422
-37.998	41.134	1523.434	1370.528
-36.984	41.144	1522.694	1369.878
-35.969	41.179	1521.262	1368.779
-34.954	41.143	1520.316	1367.622
-33.940	41.108	1518.398	1365.605
-32.925	41.141	1516.783	1364.324
-31.911	41.215	1515.143	1363.304
-30.896	41.132	1514.470	1362.074
-29.881	41.187	1513.157	1361.215
-28.867	41.252	1511.579	1360.185
-27.852	41.128	1510.541	1358.354
-26.838	41.164	1508.793	1356.972
-25.823	41.226	1506.479	1355.259
-24.809	41.227	1505.404	1354.244
-23.794	41.182	1504.195	1352.793
-22.779	41.245	1502.623	1351.754
-21.765	41.277	1501.721	1351.106
-20.750	41.188	1501.196	1349.982
-19.736	41.193	1500.072	1348.946
-18.721	41.184	1498.827	1347.715
-17.706	41.154	1497.744	1346.487
-16.692	41.142	1496.413	1345.151
-15.677	41.090	1495.332	1343.779
-14.663	41.069	1494.441	1342.784
-13.648	41.105	1493.218	1341.873
-12.633	41.054	1492.302	1340.651
-11.619	41.166	1491.199	1340.363
-10.604	41.134	1490.498	1339.463
-9.590	41.056	1489.875	1338.328
-8.575	41.143	1488.444	1337.575
-7.560	41.006	1487.974	1336.175
-6.546	41.008	1487.082	1335.335
-5.531	41.053	1486.192	1334.788
-4.517	41.076	1484.987	1333.804
-3.502	41.070	1484.156	1332.961
-2.487	41.088	1483.282	1332.246
-1.473	41.094	1482.327	1331.378
-0.458	41.135	1479.957	1329.468
0.556	39.356	1471.385	1319.633
1.571	36.491	1444.611	1276.614
2.586	32.398	1381.616	1194.909
3.600	29.921	1297.537	1107.294
4.615	27.943	1248.047	1053.575
5.629	25.316	1194.835	994.039
6.644	20.160	1112.761	899.011
7.659	15.548	1071.474	842.498
8.673	14.797	1066.027	834.395
9.688	14.748	1062.829	831.574
10.702	14.580	1061.474	829.603
11.717	14.606	1059.461	828.086
12.731	16.476	1061.753	839.098
13.746	20.793	1067.151	864.777
14.761	21.362	1065.918	866.523
15.775	18.671	1061.197	849.308
16.790	17.021	1058.175	838.666
17.804	15.888	1055.901	831.201
18.819	14.887	1054.158	824.819
19.834	14.434	1052.069	820.878
20.848	14.051	1051.123	818.185
21.863	13.765	1050.580	816.282
22.877	13.439	1049.850	814.039
23.892	13.282	1048.972	812.518
24.907	13.112	1048.145	810.969
25.921	13.162	1047.708	810.803
26.936	13.193	1046.933	810.285
27.950	13.319	1045.513	809.731
28.965	13.258	1044.730	808.755
29.980	13.383	1042.862	807.846
30.994	13.440	1041.629	807.099
32.009	13.500	1040.908	806.762
33.023	13.398	1040.602	805.955
34.038	13.429	1039.550	805.219
35.053	13.418	1038.674	804.416
36.067	13.391	1037.812	803.547
37.082	13.294	1036.981	802.364
38.096	13.348	1036.058	801.838
39.111	13.446	1034.878	801.329
40.126	13.460	1034.090	800.714
41.140	13.345	1033.126	799.340
42.155	13.277	1032.040	798.104
43.169	13.162	1031.700	797.215
44.184	13.201	1030.431	796.352
45.199	13.096	1029.571	795.110
46.213	13.144	1028.638	794.551
47.228	13.154	1027.549	793.690
48.242	13.250	1026.423	793.209
49.257	13.134	1025.787	792.091
50.271	13.268	1024.706	791.828
51.286	13.352	1023.650	791.342
52.301	13.355	1022.696	790.553
53.315	13.409	1021.978	790.181
54.330	13.336	1020.873	788.908
55.344	13.245	1019.944	787.690
56.359	13.216	1018.632	786.470
57.374	13.301	1017.990	786.308
58.388	13.238	1017.066	785.223
59.403	13.129	1016.838	784.462
60.417	13.120	1016.231	783.882
61.432	13.200	1015.229	783.418
62.447	13.165	1014.558	782.666
63.461	13.023	1014.138	781.599
64.476	13.008	1012.516	780.208
65.490	13.164	1012.050	780.518
66.505	13.093	1011.104	779.384
67.520	13.083	1010.293	778.644
68.534	13.046	1009.758	777.988
69.549	13.061	1008.490	777.012
70.563	13.188	1008.007	777.168
71.578	13.089	1007.446	776.201
72.593	13.021	1006.521	775.102
73.607	12.959	1005.334	773.828
74.622	13.067	1004.296	773.467
75.636	13.083	1003.617	772.951
76.651	12.984	1002.829	771.814
77.666	13.121	1001.916	771.680
78.680	13.011	1001.322	770.644
79.695	13.011	1000.647	770.056
80.709	13.008	1000.253	769.668
81.724	13.079	999.651	769.469
82.739	13.146	998.676	768.962
83.753	13.162	998.064	768.496
84.768	13.277	997.432	768.477
85.782	13.267	996.643	767.753
86.797	13.376	996.057	767.740
87.812	13.263	995.013	766.346
88.826	13.217	994.111	765.370
89.841	13.234	993.253	764.720
90.855	13.266	992.044	763.869
91.870	13.305	991.764	763.765
92.884	13.325	991.049	763.240
93.899	13.418	990.569	763.234
94.914	13.454	989.591	762.575
95.928	13.325	988.981	761.446
96.943	13.510	988.070	761.526
97.957	13.428	987.490	760.637
98.972	13.300	987.277	759.815
99.987	13.336	986.088	759.001
101.001	13.498	984.814	758.695
102.016	13.295	984.450	757.418
103.030	13.393	983.606	757.150
104.045	13.494	981.889	756.221
105.060	13.409	981.516	755.479
106.074	13.431	980.446	754.690
107.089	13.214	979.677	753.040
108.103	13.108	979.086	752.039
109.118	13.121	978.068	751.249
110.133	13.103	976.987	750.270
111.147	13.153	976.336	749.930
112.162	13.142	975.498	749.171
113.176	13.119	974.368	748.132
114.191	13.200	973.230	747.562
115.206	13.346	972.425	747.536
116.220	13.291	972.093	746.965
117.235	13.318	970.931	746.130
118.249	13.279	970.260	745.371
119.264	13.228	969.218	744.274
120.279	13.166	968.732	743.556
121.293	13.205	967.752	742.916
122.308	13.110	967.322	742.090
123.322	13.207	966.262	741.649
124.337	13.172	965.281	740.673
125.352	13.156	964.083	739.614
126.366	13.068	963.616	738.797
127.381	13.133	962.158	737.904
128.395	13.084	961.082	736.795
129.410	13.195	960.093	736.466
130.424	13.253	959.222	735.994
131.439	13.128	958.424	734.760
132.454	13.293	957.655	734.839
133.468	13.290	957.515	734.651
134.483	13.376	956.500	734.188
135.497	13.350	955.797	733.472
136.512	13.316	954.794	732.483
137.527	13.330	953.946	731.832
138.541	13.345	953.224	731.279
139.556	13.287	952.527	730.423
140.570	13.328	951.922	730.077
141.585	13.420	950.795	729.552
142.600	13.447	950.449	729.343
143.614	13.460	949.658	728.728
144.629	13.612	948.614	728.530
145.643	13.655	947.706	727.958
146.658	13.531	947.097	726.880
147.673	13.461	946.222	725.837
148.687	13.388	945.360	724.794
149.702	13.264	944.729	723.702
150.716	13.235	943.639	722.674
151.731	13.273	942.626	722.003
152.746	13.389	941.855	721.855
153.760	13.265	941.382	720.886
154.775	13.239	940.840	720.295
155.789	13.546	939.591	720.612
156.804	13.417	939.106	719.616
157.819	13.403	938.053	718.685
158.833	13.410	937.873	718.514
159.848	13.485	936.778	717.935
160.862	13.435	936.380	717.349
161.877	13.613	935.304	717.230
162.892	13.436	934.410	715.717
163.906	13.395	933.541	714.813
164.921	13.408	932.895	714.308
165.935	13.448	931.837	713.610
166.950	13.497	930.795	712.956
167.964	13.451	930.222	712.258
168.979	13.385	929.271	711.186
169.994	13.424	928.214	710.477
171.008	13.462	927.331	709.905
172.023	13.460	926.638	709.303
173.037	13.541	925.760	708.915
174.052	13.559	924.878	708.251
175.067	13.569	924.535	707.969
176.081	13.522	923.552	706.953
177.096	13.525	922.632	706.199
178.110	13.558	921.695	705.561
179.125	13.407	921.241	704.508
180.140	13.526	920.497	704.381
181.154	13.501	919.713	703.616
182.169	13.541	919.231	703.354
183.183	13.565	918.296	702.678
184.198	13.522	917.739	702.008
185.213	13.694	916.879	702.017
186.227	13.718	916.239	701.563
187.242	13.766	916.041	701.555
188.256	13.867	914.895	701.039
189.271	13.792	914.733	700.536
190.286	13.863	913.777	700.041
191.300	13.745	912.995	698.884
192.315	13.594	911.845	697.310
193.329	13.412	911.520	696.231
194.344	13.522	910.925	696.180
195.359	13.589	910.405	696.000
196.373	13.728	909.671	695.960
197.388	13.639	909.556	695.437
198.402	13.706	909.028	695.255
199.417	13.800	908.434	695.133
200.432	13.910	908.213	695.360
201.446	13.955	907.405	694.870
202.461	13.990	906.656	694.382
203.475	13.997	906.412	694.164
204.490	13.939	906.059	693.590
205.504	13.926	905.276	692.873
206.519	13.905	904.493	692.123
207.534	13.912	903.476	691.313
208.548	13.884	903.230	690.948
209.563	13.835	902.579	690.185
210.577	13.798	901.645	689.256
211.592	14.011	900.949	689.549
212.607	13.849	900.912	688.784
213.621	13.944	899.803	688.273
214.636	14.137	899.226	688.569
215.650	14.089	898.562	687.798
216.665	14.008	898.242	687.157
217.680	14.002	897.644	686.615
218.694	14.103	897.092	686.549
219.709	14.178	896.472	686.325
220.723	14.195	895.776	685.801
221.738	14.227	894.753	685.091
222.753	14.134	894.269	684.274
223.767	14.178	893.737	683.987
224.782	14.163	893.170	683.433
225.796	14.260	892.052	682.914
226.811	14.249	891.650	682.500
227.826	14.427	890.395	682.208
228.840	14.247	889.961	681.081
229.855	14.243	889.378	680.557
230.869	14.253	888.652	679.980
231.884	14.246	887.970	679.369
232.899	14.214	887.354	678.709
233.913	14.157	886.973	678.124
234.928	14.301	885.904	677.833
235.942	14.260	885.235	677.095
236.957	14.148	884.488	676.010
237.972	14.133	884.147	675.627
238.986	14.202	883.680	675.492
240.001	14.282	882.672	674.986
241.015	14.301	882.010	674.498
242.030	14.340	881.258	674.019
243.045	14.368	880.448	673.452
244.059	14.243	880.423	672.870
245.074	14.334	879.690	672.619
246.088	14.429	878.886	672.327
247.103	14.381	878.333	671.651
248.117	14.389	877.935	671.319
249.132	14.479	877.179	671.043
250.147	14.660	876.665	671.321
251.161	14.610	876.486	670.920
252.176	14.696	875.334	670.324
253.190	14.669	874.539	669.548
254.205	14.613	874.257	669.051
255.220	14.699	873.621	668.847
256.234	14.743	872.915	668.424
257.249	14.894	872.212	668.430
258.263	14.815	871.720	667.677
259.278	14.868	871.177	667.414
260.293	14.834	870.870	666.986
261.307	14.870	870.139	666.511
262.322	14.985	869.524	666.438
263.336	14.939	868.953	665.759
264.351	14.883	868.593	665.200
265.366	15.054	867.754	665.180
266.380	15.080	867.146	664.759
267.395	14.937	866.510	663.645
268.409	14.947	865.723	663.024
269.424	15.066	864.849	662.766
270.439	14.969	864.395	661.976
271.453	14.906	864.018	661.379
272.468	14.950	862.932	660.664
273.482	14.925	862.231	659.969
274.497	14.996	861.508	659.635
275.512	15.115	860.869	659.559
276.526	15.080	860.075	658.753
277.541	15.080	859.232	658.049
278.555	14.930	858.998	657.221
279.570	15.080	858.493	657.365
280.585	15.148	857.986	657.186
281.599	15.200	857.574	657.017
282.614	15.124	856.588	655.905
283.628	15.050	856.094	655.180
284.643	15.050	855.991	655.044
285.657	15.187	854.767	654.584
286.672	15.262	854.300	654.462
287.687	15.165	854.392	654.096
288.701	15.207	853.726	653.691
289.716	15.299	852.863	653.333
290.730	15.357	852.310	653.076
291.745	15.306	851.736	652.380
292.760	15.331	850.778	651.687
293.774	15.290	850.538	651.284
294.789	15.472	850.103	651.602
295.803	15.326	849.420	650.453
296.818	15.204	848.994	649.596
297.833	15.362	848.053	649.430
298.847	15.397	847.066	648.753
299.862	15.456	846.671	648.620
300.876	15.544	845.740	648.188
301.891	15.502	845.231	647.582
302.906	15.611	844.808	647.618
303.920	15.495	844.026	646.515
304.935	15.599	843.479	646.441
305.949	15.555	843.180	645.983
306.964	15.603	842.458	645.559
307.979	15.574	841.965	645.014
308.993	15.604	841.375	644.620
310.008	15.638	840.812	644.259
311.022	15.756	839.941	643.989
312.037	15.658	839.735	643.398
313.052	15.634	839.403	642.992
314.066	15.659	838.817	642.585
315.081	15.626	837.914	641.709
316.095	15.576	837.390	641.061
317.110	15.539	837.105	640.643
318.125	15.549	836.687	640.308
319.139	15.492	835.964	639.477
320.154	15.605	835.326	639.366
321.168	15.687	835.014	639.381
322.183	15.566	834.633	638.571
323.197	15.751	833.819	638.595
324.212	15.680	833.052	637.683
325.227	15.693	832.842	637.516
326.241	15.695	832.172	636.955
327.256	15.811	831.534	636.849
328.270	15.675	830.924	635.808
329.285	15.755	830.461	635.702
330.300	15.757	829.839	635.177
331.314	15.794	829.197	634.768
332.329	15.735	828.537	633.985
333.343	15.721	827.816	633.324
334.358	15.818	827.779	633.604
335.373	15.912	826.890	633.220
336.387	15.821	826.821	632.773
337.402	15.883	826.159	632.439
338.416	15.886	825.629	631.989
339.431	16.025	824.767	631.797
340.446	16.183	824.002	631.744
341.460	16.191	823.554	631.378
342.475	16.102	823.400	630.870
343.489	16.140	822.631	630.368
344.504	16.122	822.331	630.015
345.519	16.151	821.863	629.707
346.533	16.270	821.336	629.694
347.548	16.231	820.653	628.969
348.562	16.188	820.314	628.492
349.577	16.104	819.701	627.655
350.592	16.137	819.179	627.321
351.606	16.130	818.742	626.904
352.621	16.081	818.253	626.293
353.635	16.126	817.808	626.063
354.650	16.157	817.383	625.799
355.665	16.106	817.015	625.272
356.679	16.177	816.495	625.083
357.694	16.209	816.125	624.864
358.708	16.307	815.484	624.680
359.723	16.199	814.851	623.739
360.738	16.318	814.018	623.485
361.752	16.271	813.817	623.104
362.767	16.273	813.618	622.901
363.781	16.488	812.878	623.073
364.796	16.369	812.785	622.510
365.810	16.348	812.343	622.039
366.825	16.509	811.946	622.272
367.840	16.558	811.846	622.322
368.854	16.483	811.567	621.777
369.869	16.463	810.785	621.048
370.883	16.509	809.871	620.463
371.898	16.455	809.525	619.944
372.913	16.554	808.740	619.650
373.927	16.533	808.108	619.035
374.942	16.599	807.657	618.875
375.956	16.562	807.179	618.320
376.971	16.708	806.471	618.255
377.986	16.610	805.920	617.421
379.000	16.646	805.393	617.093
380.015	16.708	805.133	617.065
381.029	16.659	804.612	616.432
382.044	16.747	804.121	616.321
383.059	16.806	803.468	615.983
384.073	16.983	802.854	616.099
385.088	16.877	802.324	615.253
386.102	16.763	801.782	614.371
387.117	16.631	801.111	613.323
388.132	16.707	800.917	613.394
389.146	16.666	800.667	613.001
390.161	16.565	800.647	612.568
391.175	16.794	799.712	612.626
392.190	16.764	799.561	612.348
393.205	16.931	798.827	612.335
394.219	16.898	798.423	611.851
395.234	16.818	797.884	611.096
396.248	16.737	797.456	610.422
397.263	16.738	796.607	609.720
398.278	16.660	796.571	609.360
399.292	16.666	796.428	609.217
400.307	16.803	795.776	609.157
401.321	16.792	795.286	608.686
402.336	16.763	795.295	608.538
403.350	16.916	794.430	608.372
404.365	16.885	794.052	607.917
405.380	16.798	793.557	607.172
406.394	16.946	793.343	607.483
407.409	17.205	792.339	607.589
408.423	17.291	791.783	607.414
409.438	17.220	791.523	606.909
410.453	17.111	791.336	606.322
411.467	17.147	790.994	606.135
412.482	17.209	790.380	605.832
413.496	17.172	790.107	605.437
414.511	17.280	789.604	605.382
415.526	17.264	789.095	604.882
416.540	17.324	788.937	604.919
417.555	17.110	788.627	603.867
418.569	17.198	788.354	603.920
419.584	17.363	787.353	603.684
420.599	17.423	786.713	603.353
421.613	91.335	1261.227	1367.436
422.628	77.626	1330.395	1367.564
