DTS Sentinel unit serial number:	SN413079Multiplexer serial number:	ORYXHardware model number:	OX4-SRSoftware version number:	ORYX F/W v4.00 Oryx Data Collector v3.7.2.0data status	okinstallation	princeton_trtdifferential loss correction	single-endedforward channel	channel 3reverse channel	N/Adate	2019/09/16time	21:24:35forward acquisition time	60.00reverse acquisition time	0.00gamma	496.2192k internal	0.2325k external	0.2325temperature offset calibration	0.9931default loss term (dB/km)	0.3790temperature slope calibration	1.0000multiplexer offset coefficient	1.0000multiplexer slope coefficient	1.0000fibre end	0.00T internal ref (°C)	31.56T ext. ref 1 (°C)	0.05T ext. ref 2 (°C)	25.44length (m)	temperature (°C)	Stokes	anti-Stokes-747.200	16.248	-0.198	0.158
-746.185	-101.484	0.078	0.019
-745.171	-77.660	0.300	0.105
-744.156	765.851	0.025	0.070
-743.142	-21.349	-0.051	0.032
-742.127	800.000	-0.088	0.246
-741.112	-200.000	-0.000	0.296
-740.098	800.000	-0.115	0.374
-739.083	127.809	-0.173	-0.222
-738.069	406.859	0.074	0.158
-737.054	-168.133	0.204	0.008
-736.039	-61.938	0.196	0.083
-735.025	27.464	-0.050	0.042
-734.010	0.139	-0.184	0.133
-732.996	-200.000	0.121	-0.542
-731.981	-48.778	0.140	0.068
-730.966	175.702	0.113	0.165
-729.952	149.226	0.057	-0.078
-728.937	12.313	-0.092	0.072
-727.923	-146.980	-0.047	-0.004
-726.908	-200.000	-0.046	-0.329
-725.894	258.110	-0.088	-0.152
-724.879	-200.000	-0.021	-0.097
-723.864	57.837	-0.528	-0.521
-722.850	800.000	0.063	0.207
-721.835	-3.070	-0.222	-0.156
-720.821	15.837	-0.253	-0.201
-719.806	48.690	-0.099	-0.093
-718.791	-106.263	0.287	0.065
-717.777	800.000	-0.104	0.434
-716.762	-30.144	0.276	0.158
-715.748	171.277	-0.150	0.216
-714.733	-65.521	0.138	0.056
-713.718	55.366	0.113	0.110
-712.704	-123.540	0.275	-0.044
-711.689	-200.000	-0.255	0.001
-710.675	210.017	-0.122	-0.193
-709.660	-94.258	0.231	-0.064
-708.645	57.548	0.181	-0.178
-707.631	-200.000	-0.006	-0.230
-706.616	-101.621	0.484	0.118
-705.602	561.208	0.047	-0.113
-704.587	-107.546	0.040	-0.009
-703.572	-200.000	-0.014	0.368
-702.558	5.607	0.350	0.261
-701.543	-124.365	0.099	-0.016
-700.529	-16.945	-0.325	0.207
-699.514	-200.000	0.027	0.163
-698.499	-136.383	0.261	0.031
-697.485	124.526	-0.231	-0.293
-696.470	64.044	-0.210	-0.213
-695.456	-180.686	-0.203	-0.004
-694.441	-8.232	0.126	-0.086
-693.426	227.256	-0.040	0.066
-692.412	-86.882	0.109	0.034
-691.397	296.573	-0.173	-0.320
-690.383	-200.000	0.001	0.114
-689.368	-65.535	-0.248	-0.100
-688.354	-23.489	0.153	-0.093
-687.339	711.559	-0.016	-0.044
-686.324	187.142	-0.087	0.131
-685.310	361.944	-0.167	0.336
-684.295	756.797	-0.085	0.232
-683.281	800.000	-0.096	-0.292
-682.266	773.979	0.085	-0.233
-681.251	413.527	0.145	0.311
-680.237	-200.000	-0.002	-0.113
-679.222	47.870	-0.351	-0.330
-678.208	487.832	-0.102	0.235
-677.193	-99.889	-0.333	0.084
-676.178	-50.393	-0.175	-0.083
-675.164	-200.000	0.080	-0.638
-674.149	-100.347	0.111	-0.028
-673.135	-200.000	0.028	-0.293
-672.120	800.000	-0.030	0.111
-671.105	-200.000	-0.039	0.225
-670.091	644.526	0.089	0.228
-669.076	-161.670	-0.104	-0.005
-668.062	-200.000	-0.034	-0.209
-667.047	-63.555	-0.234	0.097
-666.032	507.915	0.031	0.073
-665.018	-7.921	0.135	0.092
-664.003	-200.000	-0.020	0.222
-662.989	-200.000	-0.074	0.381
-661.974	-200.000	-0.035	-0.267
-660.959	-8.444	0.290	-0.196
-659.945	-139.236	0.053	0.006
-658.930	-48.167	-0.231	0.112
-657.916	-200.000	0.026	-0.204
-656.901	46.290	0.252	0.235
-655.886	-126.224	0.275	0.041
-654.872	74.784	0.165	0.175
-653.857	-112.078	-0.324	0.065
-652.843	-77.810	-0.141	-0.049
-651.828	32.107	0.088	0.076
-650.814	-200.000	-0.034	0.392
-649.799	3.958	0.110	-0.081
-648.784	-200.000	0.025	0.210
-647.770	290.761	0.074	-0.135
-646.755	-200.000	0.018	0.466
-645.741	-6.738	-0.302	-0.206
-644.726	-59.797	0.232	-0.100
-643.711	19.503	0.133	0.108
-642.697	106.222	0.226	0.269
-641.682	-15.463	-0.174	-0.112
-640.668	48.445	0.060	-0.056
-639.653	-179.091	-0.324	-0.007
-638.638	-99.540	0.179	-0.045
-637.624	56.868	-0.160	0.157
-636.609	-122.886	0.286	0.046
-635.595	43.472	0.187	-0.172
-634.580	-75.714	-0.287	-0.102
-633.565	-200.000	0.030	0.203
-632.551	-200.000	-0.026	0.222
-631.536	-70.144	0.095	-0.036
-630.522	407.008	0.071	0.151
-629.507	800.000	0.046	-0.139
-628.492	254.617	0.068	-0.117
-627.478	-135.824	0.172	-0.020
-626.463	-162.563	-0.141	-0.007
-625.449	101.083	0.147	0.172
-624.434	74.389	-0.194	-0.205
-623.419	496.915	0.039	-0.089
-622.405	146.441	0.086	0.116
-621.390	95.302	0.064	0.073
-620.376	-200.000	0.016	-0.261
-619.361	-200.000	0.004	-0.035
-618.346	-27.644	0.388	0.226
-617.332	-123.973	-0.419	-0.066
-616.317	45.865	0.112	0.104
-615.303	800.000	0.036	-0.141
-614.288	-22.206	-0.186	-0.113
-613.273	-181.078	0.304	-0.006
-612.259	-11.252	-0.272	-0.180
-611.244	-40.582	-0.289	0.151
-610.230	-174.866	0.153	-0.004
-609.215	28.077	-0.191	-0.161
-608.201	-63.327	-0.165	-0.068
-607.186	132.216	0.163	0.210
-606.171	-200.000	0.018	0.236
-605.157	2.754	-0.169	-0.123
-604.142	134.559	-0.073	-0.095
-603.128	800.000	-0.050	0.160
-602.113	122.493	-0.238	0.298
-601.098	3.693	-0.257	-0.188
-600.084	-6.081	-0.074	-0.051
-599.069	-200.000	-0.005	0.096
-598.055	-104.071	-0.125	0.029
-597.040	512.739	0.082	0.193
-596.025	-149.290	-0.373	-0.030
-595.011	-107.699	-0.097	-0.021
-593.996	164.231	0.071	-0.101
-592.982	45.451	-0.224	0.208
-591.967	-56.243	0.201	0.090
-590.952	51.686	-0.104	-0.100
-589.938	299.473	-0.103	0.191
-588.923	800.000	0.040	0.134
-587.909	751.496	0.081	-0.220
-586.894	-102.182	-0.190	-0.046
-585.879	-200.000	-0.045	-0.201
-584.865	111.278	0.129	-0.156
-583.850	-48.941	-0.109	0.052
-582.836	-119.133	-0.200	-0.035
-581.821	56.377	0.193	0.188
-580.806	29.626	0.328	0.280
-579.792	16.310	0.339	0.268
-578.777	800.000	0.146	-0.412
-577.763	52.193	0.251	-0.240
-576.748	36.796	-0.149	-0.132
-575.733	-12.889	-0.307	-0.200
-574.719	99.893	-0.054	-0.063
-573.704	-62.273	-0.318	-0.133
-572.690	-17.436	-0.431	-0.272
-571.675	30.046	0.336	-0.288
-570.661	546.172	0.066	0.159
-569.646	107.249	0.180	0.214
-568.631	-200.000	0.011	-0.093
-567.617	46.841	-0.198	0.185
-566.602	-200.000	0.038	-0.167
-565.588	-200.000	-0.045	0.210
-564.573	800.000	0.151	0.436
-563.558	-200.000	-0.030	0.181
-562.544	-95.275	0.129	0.035
-561.529	354.328	0.020	-0.040
-560.515	-200.000	-0.000	-0.068
-559.500	-43.855	-0.200	0.101
-558.485	125.139	0.044	0.056
-557.471	79.165	0.217	0.233
-556.456	-200.000	0.040	0.200
-555.442	-119.403	0.204	-0.036
-554.427	-200.000	0.014	-0.068
-553.412	361.838	0.058	0.116
-552.398	280.572	-0.086	-0.154
-551.383	146.631	0.070	-0.094
-550.369	-40.034	-0.213	-0.111
-549.354	76.916	0.284	0.302
-548.339	800.000	-0.101	0.290
-547.325	38.234	0.009	0.008
-546.310	355.111	0.024	0.048
-545.296	55.231	-0.221	-0.214
-544.281	-8.521	-0.120	0.080
-543.266	-99.305	-0.210	0.053
-542.252	-25.987	-0.118	0.070
-541.237	-200.000	0.010	0.132
-540.223	-200.000	-0.002	-0.294
-539.208	-200.000	-0.052	0.282
-538.193	30.587	-0.236	0.202
-537.179	34.825	0.263	0.230
-536.164	488.501	0.135	0.308
-535.150	-126.849	-0.322	0.048
-534.135	30.878	0.087	0.075
-533.121	800.000	-0.065	0.239
-532.106	270.424	0.106	0.187
-531.091	73.589	-0.331	0.347
-530.077	93.046	-0.035	-0.039
-529.062	-151.404	0.365	-0.027
-528.048	-129.306	-0.349	0.049
-527.033	-33.449	-0.118	0.065
-526.018	-97.108	-0.251	0.066
-525.004	-90.328	-0.103	-0.030
-523.989	213.901	-0.094	-0.149
-522.975	123.145	-0.329	-0.412
-521.960	791.193	-0.124	-0.342
-520.945	536.224	-0.056	-0.134
-519.931	-200.000	0.081	-0.389
-518.916	-43.814	-0.131	0.066
-517.902	5.627	0.200	0.148
-516.887	-86.757	0.168	0.051
-515.872	-38.651	-0.193	0.102
-514.858	-90.168	-0.139	-0.041
-513.843	-89.045	-0.100	0.030
-512.829	-14.987	-0.057	-0.036
-511.814	-200.000	-0.011	0.172
-510.799	139.179	-0.271	0.356
-509.785	15.940	0.186	0.147
-508.770	3.895	0.121	-0.088
-507.756	197.302	-0.255	-0.389
-506.741	213.034	0.238	-0.377
-505.726	123.396	-0.111	-0.139
-504.712	54.058	-0.163	-0.157
-503.697	510.635	-0.063	-0.147
-502.683	123.835	0.081	-0.102
-501.668	800.000	0.085	-0.335
-500.653	20.302	-0.124	0.100
-499.639	800.000	0.042	0.183
-498.624	-149.740	-0.155	-0.012
-497.610	800.000	-0.031	0.135
-496.595	10.171	-0.054	0.041
-495.581	-200.000	-0.057	-0.403
-494.566	-21.895	-0.114	-0.070
-493.551	-66.413	-0.319	0.127
-492.537	-117.349	-0.246	-0.045
-491.522	-10.864	0.328	0.217
-490.508	51.935	-0.224	-0.213
-489.493	-200.000	-0.056	0.335
-488.478	-200.000	-0.017	0.102
-487.464	-200.000	-0.050	-0.227
-486.449	26.200	-0.124	-0.103
-485.435	-200.000	-0.022	0.191
-484.420	164.920	-0.173	-0.243
-483.405	800.000	-0.033	-0.131
-482.391	41.363	-0.395	-0.357
-481.376	131.315	0.085	-0.109
-480.362	-101.754	0.107	-0.026
-479.347	800.000	-0.142	0.409
-478.332	-200.000	-0.007	0.143
-477.318	27.936	0.188	0.158
-476.303	-99.644	-0.130	0.033
-475.289	-145.861	0.241	-0.021
-474.274	800.000	-0.080	0.251
-473.259	-42.610	-0.298	-0.151
-472.245	183.619	-0.092	0.136
-471.230	800.000	-0.071	0.290
-470.216	489.161	0.199	0.454
-469.201	-139.701	-0.089	0.009
-468.186	-96.092	0.118	-0.031
-467.172	-200.000	0.007	0.048
-466.157	800.000	-0.030	0.123
-465.143	800.000	-0.114	0.396
-464.128	-163.058	-0.357	0.017
-463.113	60.863	0.235	0.233
-462.099	669.954	0.065	0.167
-461.084	-200.000	-0.026	-0.145
-460.070	156.233	-0.205	0.282
-459.055	-200.000	0.051	-0.382
-458.040	-200.000	0.038	-0.173
-457.026	435.927	0.116	0.253
-456.011	-170.607	-0.090	0.003
-454.997	-7.623	-0.176	-0.119
-453.982	-139.409	0.327	0.035
-452.968	-200.000	-0.051	0.356
-451.953	-116.582	-0.228	-0.042
-450.938	800.000	-0.067	0.212
-449.924	542.680	0.047	-0.112
-448.909	346.562	0.020	-0.040
-447.895	-49.833	-0.203	0.096
-446.880	-63.435	-0.249	0.102
-445.865	-75.344	0.152	-0.054
-444.851	-58.750	0.065	-0.028
-443.836	74.522	-0.161	-0.169
-442.822	128.871	-0.155	0.197
-441.807	151.846	-0.070	-0.095
-440.792	-200.000	-0.023	-0.174
-439.778	-200.000	-0.027	-0.127
-438.763	-197.312	-0.209	0.001
-437.749	367.110	-0.014	0.028
-436.734	281.957	-0.136	0.243
-435.719	-107.998	0.462	0.100
-434.705	-14.631	0.187	0.120
-433.690	-72.924	-0.347	-0.127
-432.676	13.572	0.108	-0.084
-431.661	-107.362	0.098	-0.022
-430.646	-80.602	0.180	0.060
-429.632	-58.217	-0.205	-0.089
-428.617	52.088	-0.262	0.249
-427.603	196.486	-0.054	-0.081
-426.588	324.772	-0.088	-0.168
-425.573	-103.524	-0.229	0.054
-424.559	-126.338	0.209	0.031
-423.544	-172.869	-0.110	0.003
-422.530	-111.886	-0.090	0.018
-421.515	4.118	0.241	0.176
-420.500	-200.000	0.058	-0.397
-419.486	-200.000	-0.007	-0.314
-418.471	-121.480	0.215	-0.036
-417.457	613.379	-0.088	-0.219
-416.442	25.765	0.039	-0.032
-415.428	-200.000	0.091	-0.437
-414.413	27.725	0.193	0.162
-413.398	-200.000	0.000	0.246
-412.384	-130.727	0.165	-0.022
-411.369	773.985	0.027	-0.074
-410.355	-71.368	0.144	0.054
-409.340	-89.090	0.216	-0.064
-408.325	-114.419	0.144	-0.027
-407.311	-100.331	-0.243	0.060
-406.296	519.014	0.113	0.263
-405.282	589.601	0.088	-0.216
-404.267	-155.900	-0.175	0.011
-403.252	-52.272	0.162	0.075
-402.238	610.762	0.085	-0.212
-401.223	-106.670	0.205	-0.045
-400.209	10.642	-0.197	0.149
-399.194	-89.469	0.138	0.040
-398.179	800.000	0.074	0.291
-397.165	-149.962	-0.076	0.006
-396.150	-6.954	0.304	-0.206
-395.136	454.380	-0.148	-0.326
-394.121	-200.000	0.025	-0.260
-393.106	50.133	0.174	-0.164
-392.092	-105.535	0.143	-0.032
-391.077	-126.386	0.047	-0.007
-390.063	-70.215	-0.256	0.097
-389.048	-71.153	0.199	-0.074
-388.033	800.000	-0.036	0.150
-387.019	-45.511	0.100	-0.049
-386.004	-101.434	0.279	-0.068
-384.990	-200.000	-0.007	-0.152
-383.975	117.033	0.091	-0.111
-382.960	-22.583	0.074	0.044
-381.946	-52.666	0.268	0.123
-380.931	-75.890	0.148	0.052
-379.917	593.558	0.053	0.131
-378.902	176.602	-0.093	0.135
-377.888	185.503	-0.089	-0.132
-376.873	-103.826	-0.286	0.067
-375.858	800.000	0.126	0.546
-374.844	-54.072	-0.287	-0.130
-373.829	-106.502	0.126	0.028
-372.815	397.407	-0.107	0.222
-371.800	2.201	-0.189	-0.136
-370.785	-200.000	0.013	-0.131
-369.771	784.484	0.072	-0.197
-368.756	-54.251	0.109	0.049
-367.742	123.885	0.099	0.124
-366.727	-147.869	-0.102	0.008
-365.712	26.859	0.200	-0.167
-364.698	-25.024	0.042	0.025
-363.683	-200.000	0.029	-0.171
-362.669	226.234	-0.067	-0.107
-361.654	166.319	0.431	-0.608
-360.639	25.430	-0.078	-0.065
-359.625	2.485	-0.213	0.153
-358.610	-86.603	0.289	-0.088
-357.596	-165.887	0.233	0.010
-356.581	550.912	-0.056	0.133
-355.566	-47.182	0.475	0.230
-354.552	315.643	-0.064	0.120
-353.537	800.000	-0.091	-0.252
-352.523	277.287	0.033	-0.058
-351.508	800.000	0.048	0.200
-350.493	-200.000	0.027	-0.117
-349.479	-200.000	-0.075	-0.351
-348.464	-51.141	0.125	-0.058
-347.450	-107.757	0.501	-0.109
-346.435	-60.846	-0.351	-0.148
-345.420	3.319	-0.186	-0.135
-344.406	768.461	-0.044	0.119
-343.391	38.874	-0.134	0.119
-342.377	800.000	0.083	0.324
-341.362	137.658	0.090	-0.117
-340.348	-141.560	0.188	0.019
-339.333	237.851	0.093	-0.153
-338.318	515.940	-0.074	0.171
-337.304	-67.707	-0.153	0.059
-336.289	800.000	0.064	0.253
-335.275	146.698	-0.069	0.093
-334.260	-118.482	0.194	0.034
-333.245	-22.921	-0.193	-0.115
-332.231	-99.586	0.216	-0.054
-331.216	-200.000	0.052	0.246
-330.202	106.858	0.122	0.144
-329.187	-60.087	-0.376	0.159
-328.172	94.208	-0.073	-0.083
-327.158	-162.685	0.196	-0.010
-326.143	-200.000	0.062	0.419
-325.129	800.000	-0.041	0.162
-324.114	-152.086	0.241	-0.017
-323.099	-200.000	0.024	0.125
-322.085	-146.343	0.055	-0.005
-321.070	226.927	0.150	-0.241
-320.056	-170.817	-0.418	0.014
-319.041	-200.000	0.004	0.200
-318.026	149.965	0.089	0.120
-317.012	-75.116	0.226	-0.080
-315.997	142.404	0.094	0.124
-314.983	-1.666	0.194	-0.136
-313.968	49.662	0.213	-0.199
-312.953	53.701	-0.199	-0.189
-311.939	-18.541	0.156	0.097
-310.924	48.861	-0.159	0.148
-309.910	800.000	-0.011	-0.044
-308.895	28.294	0.133	-0.111
-307.880	370.663	-0.071	-0.144
-306.866	186.125	-0.183	-0.269
-305.851	98.428	-0.080	-0.091
-304.837	-200.000	0.017	0.210
-303.822	-200.000	-0.020	-0.123
-302.807	-100.640	0.059	0.014
-301.793	60.960	-0.240	0.236
-300.778	-92.589	-0.422	0.117
-299.764	40.642	0.186	-0.166
-298.749	-27.676	-0.234	-0.134
-297.735	-122.662	0.327	-0.053
-296.720	-200.000	0.043	0.196
-295.705	-176.185	0.142	0.004
-294.691	-200.000	-0.042	-0.234
-293.676	366.546	-0.107	0.215
-292.662	-200.000	0.014	0.201
-291.647	-200.000	0.018	0.161
-290.632	-182.604	-0.247	-0.004
-289.618	343.023	0.118	0.229
-288.603	800.000	0.077	0.311
-287.589	800.000	-0.068	-0.263
-286.574	-200.000	0.007	-0.075
-285.559	-24.720	-0.202	-0.119
-284.545	3.631	0.209	0.151
-283.530	65.047	-0.086	-0.086
-282.516	259.666	0.115	-0.196
-281.501	299.752	-0.014	-0.026
-280.486	21.291	0.116	0.094
-279.472	104.206	0.135	0.157
-278.457	-99.099	0.118	-0.030
-277.443	-200.000	-0.007	0.145
-276.428	-142.657	0.233	0.023
-275.413	0.494	0.227	-0.161
-274.399	382.222	0.109	0.223
-273.384	-200.000	0.003	-0.096
-272.370	-70.287	-0.147	0.055
-271.355	-139.054	0.102	0.011
-270.340	138.345	0.159	-0.207
-269.326	574.992	-0.127	-0.308
-268.311	-42.933	0.095	-0.048
-267.297	-200.000	0.010	-0.285
-266.282	-116.457	-0.262	-0.048
-265.267	-122.858	0.384	0.061
-264.253	6.348	0.116	-0.086
-263.238	-99.761	0.214	0.053
-262.224	-14.664	-0.308	-0.196
-261.209	800.000	-0.039	0.160
-260.195	800.000	-0.080	-0.235
-259.180	-114.010	-0.187	-0.036
-258.165	386.478	0.128	0.262
-257.151	-134.034	0.321	0.039
-256.136	125.389	0.186	-0.233
-255.122	-200.000	0.041	-0.281
-254.107	-174.148	0.190	0.005
-253.092	-102.950	0.335	-0.079
-252.078	144.258	0.130	0.172
-251.063	18.402	0.050	0.039
-250.049	-200.000	0.018	0.170
-249.034	-89.690	0.299	0.087
-248.019	-170.954	-0.074	0.003
-247.005	800.000	0.087	-0.355
-245.990	92.899	0.130	-0.146
-244.976	641.424	-0.070	-0.177
-243.961	-129.520	0.151	0.021
-242.946	130.357	-0.152	0.193
-241.932	-90.933	-0.338	-0.096
-240.917	800.000	0.068	-0.203
-239.903	-200.000	0.003	-0.180
-238.888	800.000	-0.049	0.144
-237.873	-35.232	-0.153	0.082
-236.859	-52.331	-0.257	0.118
-235.844	-200.000	0.028	-0.252
-234.830	156.017	-0.140	-0.191
-233.815	-114.563	-0.095	0.018
-232.800	-200.000	0.074	-0.367
-231.786	-73.269	0.245	-0.089
-230.771	36.078	0.109	-0.095
-229.757	-19.392	0.166	-0.102
-228.742	44.684	-0.086	-0.078
-227.727	-10.898	-0.016	0.010
-226.713	-107.603	-0.082	-0.018
-225.698	800.000	-0.057	-0.238
-224.684	138.899	-0.347	-0.452
-223.669	278.659	0.087	0.153
-222.655	127.499	-0.175	0.220
-221.640	-200.000	-0.009	0.161
-220.625	450.020	-0.144	0.315
-219.611	-166.313	0.086	-0.004
-218.596	-16.954	-0.173	-0.108
-217.582	800.000	-0.022	0.066
-216.567	-200.000	-0.007	-0.103
-215.552	-10.259	0.161	0.105
-214.538	-165.202	-0.125	0.005
-213.523	216.579	-0.119	0.188
-212.509	-150.644	-0.294	-0.022
-211.494	-55.371	-0.069	-0.030
-210.479	-56.114	0.308	0.135
-209.465	-136.314	-0.241	0.028
-208.450	-42.824	-0.284	0.143
-207.436	-176.024	0.124	0.003
-206.421	38.826	-0.157	0.139
-205.406	-67.145	-0.286	0.112
-204.392	-200.000	0.036	-0.410
-203.377	-46.250	0.305	-0.148
-202.363	-129.338	0.343	0.047
-201.348	-47.550	0.036	0.018
-200.333	106.485	0.109	-0.127
-199.319	-23.449	0.399	-0.237
-198.304	-72.796	-0.079	0.029
-197.290	800.000	0.036	-0.138
-196.275	-22.620	-0.111	-0.066
-195.260	-89.311	0.294	0.086
-194.246	-200.000	0.013	0.312
-193.231	34.044	-0.130	-0.112
-192.217	85.200	0.084	0.091
-191.202	-200.000	-0.057	-0.253
-190.187	125.665	-0.100	-0.125
-189.173	-123.930	0.089	-0.014
-188.158	-139.022	0.289	-0.031
-187.144	-183.778	-0.309	0.005
-186.129	167.904	0.142	0.199
-185.114	21.665	0.156	0.125
-184.100	-120.113	0.228	0.038
-183.085	-153.649	-0.257	0.018
-182.071	331.058	0.203	0.385
-181.056	-142.160	-0.072	-0.007
-180.042	800.000	0.055	0.169
-179.027	67.494	0.176	0.177
-178.012	44.899	-0.108	-0.098
-176.998	21.697	-0.137	-0.110
-175.983	192.424	0.052	0.078
-174.969	-200.000	0.035	-0.157
-173.954	-42.691	0.124	-0.062
-172.939	33.616	0.129	-0.111
-171.925	-200.000	-0.011	-0.297
-170.910	-34.787	-0.174	-0.094
-169.896	-142.503	0.209	-0.020
-168.881	-57.426	0.349	-0.151
-167.866	-38.153	0.148	-0.078
-166.852	-169.750	-0.229	0.008
-165.837	-130.148	-0.021	0.003
-164.823	206.868	-0.121	-0.186
-163.808	800.000	-0.069	-0.199
-162.793	-121.591	-0.205	0.034
-161.779	9.937	0.200	0.150
-160.764	47.376	-0.188	-0.173
-159.750	-8.023	-0.133	-0.089
-158.735	-3.805	0.315	0.216
-157.720	-143.917	-0.150	0.014
-156.706	-35.451	-0.249	0.134
-155.691	79.854	-0.246	-0.261
-154.677	-110.295	0.184	0.038
-153.662	-133.896	0.284	-0.035
-152.647	800.000	-0.083	0.241
-151.633	-62.176	0.127	0.052
-150.618	20.647	-0.173	0.138
-149.604	39.560	0.106	-0.093
-148.589	100.306	-0.083	0.095
-147.574	800.000	0.068	-0.196
-146.560	800.000	-0.039	0.146
-145.545	800.000	-0.051	0.194
-144.531	46.286	0.166	-0.152
-143.516	-200.000	-0.006	0.196
-142.502	221.398	0.048	0.076
-141.487	-89.883	0.303	-0.087
-140.472	12.493	-0.154	0.117
-139.458	-111.025	0.274	0.056
-138.443	-150.965	-0.116	-0.009
-137.429	-200.000	-0.008	0.246
-136.414	38.869	0.234	0.206
-135.399	800.000	-0.052	-0.147
-134.385	-49.768	0.247	-0.116
-133.370	800.000	-0.158	0.436
-132.356	-69.834	0.412	0.155
-131.341	-200.000	-0.036	-0.358
-130.326	16.557	0.264	0.206
-129.312	115.737	0.137	-0.165
-128.297	46.992	-0.063	0.058
-127.283	800.000	-0.022	-0.075
-126.268	395.833	0.066	-0.136
-125.253	-108.725	0.168	0.035
-124.239	800.000	0.042	0.168
-123.224	-125.922	0.256	0.038
-122.210	800.000	0.058	0.207
-121.195	538.421	-0.068	0.159
-120.180	2.161	0.080	0.057
-119.166	703.004	0.002	0.005
-118.151	-200.000	-0.016	0.074
-117.137	-92.052	0.394	0.110
-116.122	-147.295	0.239	0.020
-115.107	647.458	-0.124	0.312
-114.093	800.000	-0.038	0.113
-113.078	18.254	0.167	0.131
-112.064	-10.551	0.130	0.085
-111.049	-90.562	-0.286	-0.081
-110.034	95.846	-0.039	0.044
-109.020	-200.000	0.005	-0.143
-108.005	-200.000	0.008	0.166
-106.991	-200.000	-0.063	0.645
-105.976	447.071	-0.202	0.437
-104.962	89.893	-0.267	-0.294
-103.947	800.000	-0.090	-0.367
-102.932	-200.000	-0.009	0.228
-101.918	-168.102	0.186	0.007
-100.903	130.864	0.135	0.171
-99.889	115.741	0.220	0.265
-98.874	-200.000	-0.021	-0.184
-97.859	-43.652	-0.119	-0.059
-96.845	800.000	0.025	0.099
-95.830	154.594	-0.109	0.148
-94.816	-43.713	0.265	0.131
-93.801	800.000	0.004	0.012
-92.786	-200.000	0.024	-0.212
-91.772	-64.824	-0.051	-0.020
-90.757	-150.426	-0.222	-0.017
-89.743	54.701	0.057	0.054
-88.728	-120.984	-0.065	-0.011
-87.713	-42.830	0.121	-0.060
-86.699	-128.347	-0.211	0.030
-85.684	-46.233	-0.166	-0.081
-84.670	800.000	-0.020	0.079
-83.655	-126.510	-0.236	-0.034
-82.640	28.387	-0.306	0.254
-81.626	87.137	-0.122	0.133
-80.611	-132.961	-0.206	-0.026
-79.597	362.707	-0.092	0.182
-78.582	54.281	-0.134	-0.127
-77.567	72.768	0.142	0.146
-76.553	-99.203	-0.222	0.055
-75.538	-70.519	0.124	0.046
-74.524	-174.140	0.077	0.002
-73.509	58.652	-0.041	0.040
-72.494	-158.497	0.240	0.014
-71.480	-112.048	0.061	0.012
-70.465	-200.000	-0.045	-0.195
-69.451	583.744	-0.116	0.281
-68.436	229.081	0.088	-0.142
-67.422	73.386	-0.258	-0.266
-66.407	138.255	-0.063	0.082
-65.392	98.481	0.132	0.150
-64.378	-2.262	-0.448	-0.309
-63.363	-106.202	0.018	-0.004
-62.349	585.649	0.141	0.341
-61.334	40.260	-1.024	-0.905
-60.319	112.522	0.527	0.627
-59.305	-200.000	0.079	-0.803
-58.290	744.347	0.555	1.467
-57.276	434.145	0.528	1.127
-56.261	-200.000	97.851	591.022
-55.246	525.726	1393.942	3224.120
-54.232	160.440	2561.709	3510.869
-53.217	111.038	2154.489	2548.589
-52.203	42.079	1694.223	1510.768
-51.188	34.754	1504.794	1292.483
-50.173	32.369	1477.899	1253.460
-49.159	52.417	1528.265	1432.463
-48.144	53.603	1546.703	1457.729
-47.130	34.935	1505.757	1294.330
-46.115	31.849	1490.987	1260.867
-45.100	31.710	1487.234	1256.712
-44.086	31.631	1485.317	1254.507
-43.071	31.549	1484.149	1252.924
-42.057	31.512	1482.348	1251.110
-41.042	31.560	1480.790	1250.063
-40.027	31.526	1479.667	1248.839
-39.013	31.535	1477.904	1247.363
-37.998	31.545	1476.278	1246.003
-36.984	31.526	1475.165	1244.887
-35.969	31.534	1473.813	1243.753
-34.954	31.533	1472.771	1242.820
-33.940	31.578	1471.319	1241.839
-32.925	31.663	1469.944	1241.193
-31.911	31.506	1469.221	1239.493
-30.896	31.612	1467.458	1238.657
-29.881	31.647	1466.302	1237.864
-28.867	31.730	1464.569	1236.901
-27.852	31.595	1463.291	1234.887
-26.838	31.565	1462.026	1233.568
-25.823	31.523	1460.769	1232.182
-24.809	31.594	1458.756	1230.906
-23.794	31.603	1457.134	1229.547
-22.779	31.612	1456.186	1228.754
-21.765	31.571	1455.737	1228.061
-20.750	31.520	1454.341	1226.495
-19.736	31.486	1453.218	1225.277
-18.721	31.580	1452.386	1225.144
-17.706	31.574	1450.951	1223.843
-16.692	31.666	1449.588	1223.247
-15.677	31.448	1448.752	1221.072
-14.663	31.571	1447.443	1220.719
-13.648	31.597	1446.465	1220.016
-12.633	31.574	1445.809	1219.269
-11.619	31.510	1445.558	1218.587
-10.604	31.620	1444.036	1217.976
-9.590	31.576	1443.442	1217.136
-8.575	31.539	1442.198	1215.801
-7.560	31.536	1441.654	1215.272
-6.546	31.557	1440.302	1214.221
-5.531	31.532	1439.528	1213.357
-4.517	31.501	1438.782	1212.479
-3.502	31.545	1437.777	1211.875
-2.487	31.514	1436.853	1210.846
-1.473	31.545	1435.815	1210.119
-0.458	31.509	1434.317	1208.581
0.556	29.454	1425.041	1197.543
1.571	26.250	1400.144	1156.045
2.586	22.785	1340.005	1085.034
3.600	20.944	1259.781	1009.336
4.615	19.792	1214.614	966.626
5.629	17.184	1158.610	908.052
6.644	8.522	1073.909	798.503
7.659	1.400	1032.242	733.168
8.673	0.282	1026.659	723.770
9.688	0.010	1023.671	720.296
10.702	-0.046	1022.240	718.957
11.717	-0.054	1020.131	717.372
12.731	2.666	1022.702	732.121
13.746	11.127	1034.331	781.103
14.761	17.322	1041.836	816.542
15.775	17.437	1040.854	816.251
16.790	16.410	1038.595	809.490
17.804	15.313	1036.300	802.382
18.819	14.379	1034.810	796.697
19.834	14.033	1033.125	793.674
20.848	13.813	1032.083	791.756
21.863	13.460	1031.325	789.418
22.877	13.135	1030.884	787.465
23.892	13.013	1030.264	786.341
24.907	12.897	1029.434	785.083
25.921	13.024	1028.430	784.852
26.936	12.972	1027.769	784.033
27.950	12.983	1027.207	783.588
28.965	13.024	1026.439	783.128
29.980	13.101	1025.464	782.676
30.994	13.175	1024.853	782.493
32.009	13.181	1023.893	781.719
33.023	13.185	1023.445	781.329
34.038	13.201	1022.545	780.646
35.053	13.201	1021.816	780.021
36.067	13.102	1020.861	778.757
37.082	13.059	1019.989	777.821
38.096	13.111	1019.252	777.434
39.111	13.154	1018.897	777.295
40.126	13.214	1017.695	776.591
41.140	13.239	1016.594	775.798
42.155	13.035	1015.535	773.966
43.169	12.973	1014.691	772.966
44.184	13.018	1013.804	772.431
45.199	12.903	1012.714	770.993
46.213	12.906	1012.042	770.428
47.228	13.014	1010.941	770.025
48.242	13.093	1009.765	769.432
49.257	13.257	1008.820	769.408
50.271	13.201	1008.059	768.495
51.286	13.066	1007.384	767.287
52.301	13.114	1006.312	766.626
53.315	13.093	1005.742	766.027
54.330	13.092	1004.969	765.366
55.344	13.042	1004.236	764.506
56.359	13.104	1003.004	763.791
57.374	13.041	1002.294	762.888
58.388	13.124	1001.415	762.534
59.403	13.013	1001.236	761.820
60.417	12.903	1000.266	760.506
61.432	12.979	999.423	760.149
62.447	12.962	998.851	759.569
63.461	12.882	998.230	758.663
64.476	12.896	997.142	757.832
65.490	12.947	995.907	757.058
66.505	12.922	995.320	756.432
67.520	12.853	994.708	755.586
68.534	12.959	993.611	755.169
69.549	12.966	993.082	754.732
70.563	12.963	992.288	754.047
71.578	12.922	991.511	753.202
72.593	12.897	990.943	752.590
73.607	12.859	990.004	751.636
74.622	12.774	989.171	750.552
75.636	12.853	988.270	750.163
76.651	12.850	987.494	749.493
77.666	12.798	986.629	748.532
78.680	12.894	985.922	748.366
79.695	12.964	985.193	748.063
80.709	12.835	984.977	747.249
81.724	13.024	983.769	747.125
82.739	12.989	983.070	746.367
83.753	12.949	982.703	745.844
84.768	13.081	981.907	745.769
85.782	13.148	981.353	745.585
86.797	13.258	980.244	745.171
87.812	13.173	979.642	744.266
88.826	13.084	978.683	743.068
89.841	12.983	978.235	742.208
90.855	13.123	977.247	742.025
91.870	13.209	976.181	741.533
92.884	13.203	975.782	741.138
93.899	13.130	975.040	740.184
94.914	13.282	974.101	740.083
95.928	13.206	973.850	739.488
96.943	13.152	973.446	738.876
97.957	13.314	972.105	738.513
98.972	13.198	971.392	737.388
99.987	13.314	970.234	736.965
101.001	13.251	969.802	736.290
102.016	13.144	969.490	735.511
103.030	13.212	968.186	734.759
104.045	13.201	967.239	733.925
105.060	13.356	966.106	733.689
106.074	13.215	965.197	732.307
107.089	13.092	964.931	731.495
108.103	12.915	963.872	729.848
109.118	13.073	962.874	729.725
110.133	13.055	961.942	728.876
111.147	13.086	961.406	728.541
112.162	13.040	960.335	727.463
113.176	13.029	959.372	726.620
114.191	12.995	958.922	726.065
115.206	13.026	957.869	725.341
116.220	13.123	957.033	725.066
117.235	13.162	956.365	724.670
118.249	13.063	955.714	723.678
119.264	13.130	954.788	723.205
120.279	13.133	953.884	722.472
121.293	13.119	952.981	721.663
122.308	12.993	952.500	720.684
123.322	13.106	951.579	720.413
124.337	13.116	950.541	719.607
125.352	13.063	949.497	718.527
126.366	12.930	948.867	717.405
127.381	13.208	947.173	717.267
128.395	13.042	946.698	716.126
129.410	12.913	945.662	714.718
130.424	13.012	944.770	714.412
131.439	13.158	943.729	714.193
132.454	13.200	942.934	713.708
133.468	13.162	942.350	713.039
134.483	13.241	941.401	712.599
135.497	13.096	941.163	711.731
136.512	13.192	940.398	711.500
137.527	13.218	939.532	710.894
138.541	13.191	938.903	710.239
139.556	13.048	938.159	709.003
140.570	13.151	937.087	708.571
141.585	13.080	936.543	707.792
142.600	13.274	935.808	708.002
143.614	13.258	934.822	707.128
144.629	13.311	934.420	706.989
145.643	13.323	933.962	706.630
146.658	13.278	932.970	705.624
147.673	13.313	931.849	704.861
148.687	13.225	931.249	703.970
149.702	13.188	930.420	703.127
150.716	13.303	929.411	702.789
151.731	13.105	928.716	701.360
152.746	13.184	927.908	701.022
153.760	13.256	927.512	700.967
154.775	13.123	926.554	699.620
155.789	13.250	925.642	699.407
156.804	13.355	925.018	699.315
157.819	13.347	924.270	698.656
158.833	13.421	923.418	698.263
159.848	13.390	923.032	697.777
160.862	13.393	922.330	697.198
161.877	13.525	921.454	697.029
162.892	13.331	920.816	695.668
163.906	13.324	919.941	694.918
164.921	13.325	919.379	694.433
165.935	13.335	918.092	693.443
166.950	13.278	916.977	692.303
167.964	13.290	915.985	691.540
168.979	13.415	914.674	691.011
169.994	13.331	913.898	690.017
171.008	13.346	913.312	689.573
172.023	13.429	912.467	689.218
173.037	13.394	912.008	688.667
174.052	13.471	911.320	688.409
175.067	13.524	910.616	688.034
176.081	13.454	909.894	687.136
177.096	13.367	909.151	686.155
178.110	13.408	908.105	685.474
179.125	13.401	907.242	684.731
180.140	13.476	906.365	684.319
181.154	13.363	906.110	683.602
182.169	13.533	905.206	683.560
183.183	13.439	904.769	682.782
184.198	13.541	903.793	682.404
185.213	13.571	903.128	681.966
186.227	13.592	902.273	681.344
187.242	13.631	902.415	681.555
188.256	13.586	901.314	680.477
189.271	13.752	900.664	680.608
190.286	13.636	900.176	679.703
191.300	13.454	899.756	678.581
192.315	13.446	898.946	677.875
193.329	13.363	898.083	676.824
194.344	13.434	897.322	676.480
195.359	13.395	897.015	676.033
196.373	13.601	896.372	676.326
197.388	13.642	895.636	675.879
198.402	13.654	895.559	675.809
199.417	13.785	894.834	675.736
200.432	13.847	894.408	675.609
201.446	13.809	894.152	675.201
202.461	13.961	893.416	675.204
203.475	13.931	893.116	674.793
204.490	13.874	892.536	674.063
205.504	13.735	892.093	673.107
206.519	13.856	890.800	672.564
207.534	13.797	890.164	671.783
208.548	13.768	889.229	670.901
209.563	13.893	888.664	670.919
210.577	13.908	887.800	670.270
211.592	13.942	887.109	669.824
212.607	13.811	887.076	669.214
213.621	14.008	886.598	669.587
214.636	14.065	885.644	669.038
215.650	13.941	885.158	668.113
216.665	13.970	884.534	667.698
217.680	14.069	884.028	667.656
218.694	14.089	883.354	667.168
219.709	14.082	883.017	666.827
220.723	14.032	882.127	665.894
221.738	14.091	881.502	665.601
222.753	13.966	880.961	664.631
223.767	14.024	880.633	664.558
224.782	14.030	879.620	663.757
225.796	14.056	878.971	663.312
226.811	14.209	878.192	663.276
227.826	14.073	877.564	662.203
228.840	14.188	876.413	661.734
229.855	14.125	876.345	661.373
230.869	14.085	875.713	660.679
231.884	14.260	875.097	660.850
232.899	14.122	874.607	659.873
233.913	14.151	873.741	659.276
234.928	14.052	872.838	658.144
235.942	14.137	872.219	657.958
236.957	14.079	871.905	657.431
237.972	14.164	870.872	656.932
238.986	14.237	870.102	656.579
240.001	14.348	869.500	656.505
241.015	14.179	869.012	655.414
242.030	14.278	868.275	655.189
243.045	14.226	867.664	654.464
244.059	14.316	867.097	654.332
245.074	14.393	866.649	654.238
246.088	14.191	866.330	653.147
247.103	14.278	865.537	652.834
248.117	14.458	864.675	652.829
249.132	14.472	864.224	652.485
250.147	14.572	863.714	652.435
251.161	14.546	863.016	651.750
252.176	14.533	862.481	651.237
253.190	14.640	861.895	651.152
254.205	14.647	861.086	650.513
255.220	14.705	860.685	650.377
256.234	14.651	860.094	649.661
257.249	14.712	859.185	649.155
258.263	14.789	858.900	649.183
259.278	14.672	858.547	648.403
260.293	14.780	857.864	648.248
261.307	14.845	857.105	647.871
262.322	14.780	856.671	647.234
263.336	14.782	856.179	646.812
264.351	15.021	855.187	646.928
265.366	15.015	854.585	646.392
266.380	14.894	854.570	645.856
267.395	14.781	853.876	644.839
268.409	14.999	852.376	644.491
269.424	14.971	851.584	643.725
270.439	14.967	851.234	643.390
271.453	14.933	850.575	642.705
272.468	14.725	850.249	641.603
273.482	14.918	849.762	641.917
274.497	14.804	849.081	640.911
275.512	14.884	848.448	640.683
276.526	14.954	847.478	640.163
277.541	14.946	846.822	639.577
278.555	15.051	846.237	639.479
279.570	14.875	845.806	638.427
280.585	14.922	845.521	638.334
281.599	15.026	844.679	638.039
282.614	15.045	844.212	637.703
283.628	15.070	843.445	637.162
284.643	15.091	842.935	636.800
285.657	15.132	842.509	636.577
286.672	15.136	841.992	636.145
287.687	15.022	841.622	635.377
288.701	15.124	841.141	635.342
289.716	15.078	840.520	634.646
290.730	15.173	840.102	634.633
291.745	15.250	839.128	634.131
292.760	15.178	838.784	633.544
293.774	15.097	838.050	632.629
294.789	15.210	837.299	632.433
295.803	15.232	837.218	632.398
296.818	15.188	836.682	631.770
297.833	15.157	835.920	631.022
298.847	15.329	834.466	630.516
299.862	15.221	834.198	629.851
300.876	15.323	833.327	629.520
301.891	15.263	833.303	629.221
302.906	15.419	832.425	629.089
303.920	15.533	831.448	628.719
304.935	15.457	830.887	627.955
305.949	15.596	830.640	628.233
306.964	15.490	830.105	627.377
307.979	15.535	829.303	626.884
308.993	15.477	828.742	626.188
310.008	15.550	828.441	626.176
311.022	15.590	827.964	625.910
312.037	15.627	827.652	625.758
313.052	15.577	827.057	625.066
314.066	15.571	826.386	624.481
315.081	15.448	825.788	623.516
316.095	15.385	825.539	623.039
317.110	15.458	824.405	622.400
318.125	15.545	823.565	622.031
319.139	15.589	823.861	622.366
320.154	15.551	822.949	621.481
321.168	15.607	822.352	621.180
322.183	15.557	822.392	620.973
323.197	15.591	821.580	620.428
324.212	15.595	821.057	619.992
325.227	15.513	820.732	619.392
326.241	15.575	820.116	619.099
327.256	15.504	819.922	618.636
328.270	15.687	818.781	618.396
329.285	15.711	817.903	617.763
330.300	15.684	817.722	617.475
331.314	15.678	817.130	616.950
332.329	15.664	816.845	616.631
333.343	15.863	815.938	616.617
334.358	15.834	815.239	615.929
335.373	15.793	815.075	615.602
336.387	15.805	814.327	615.025
337.402	15.841	813.812	614.714
338.416	15.845	813.418	614.377
339.431	16.023	812.575	614.334
340.446	16.022	812.287	614.059
341.460	16.103	811.805	613.934
342.475	15.989	811.267	613.061
343.489	16.089	811.031	613.191
344.504	16.006	809.967	612.032
345.519	16.050	809.683	611.922
346.533	16.089	809.293	611.712
347.548	16.017	809.050	611.213
348.562	16.174	808.208	611.095
349.577	16.061	808.081	610.535
350.592	16.031	806.898	609.479
351.606	15.941	807.104	609.253
352.621	16.012	806.248	608.810
353.635	16.054	805.654	608.459
354.650	16.044	805.565	608.304
355.665	16.039	805.294	608.025
356.679	16.074	804.655	607.615
357.694	16.159	803.895	607.294
358.708	16.278	803.579	607.428
359.723	16.247	803.255	607.018
360.738	16.199	802.599	606.298
361.752	16.280	801.721	605.871
362.767	16.214	801.591	605.484
363.781	16.260	800.947	605.107
364.796	16.292	800.822	605.073
365.810	16.345	800.163	604.714
366.825	16.476	799.959	604.975
367.840	16.433	799.801	604.647
368.854	16.452	799.294	604.280
369.869	16.355	798.918	603.595
370.883	16.396	798.318	603.233
371.898	16.417	797.544	602.669
372.913	16.589	796.902	602.743
373.927	16.505	796.414	602.023
374.942	16.400	796.097	601.358
375.956	16.502	795.140	600.942
376.971	16.541	794.535	600.571
377.986	16.706	794.290	600.919
379.000	16.603	793.507	599.907
380.015	16.676	793.231	599.906
381.029	16.640	792.548	599.207
382.044	16.746	791.719	598.904
383.059	16.712	791.229	598.359
384.073	16.751	791.002	598.272
385.088	16.657	790.657	597.626
386.102	16.575	790.088	596.854
387.117	16.791	789.031	596.764
388.132	16.687	788.741	596.125
389.146	16.692	788.953	596.251
390.161	16.741	788.039	595.678
391.175	16.949	787.587	596.015
392.190	16.879	787.376	595.558
393.205	16.775	787.156	594.975
394.219	16.760	786.664	594.496
395.234	16.813	786.217	594.290
396.248	16.799	785.565	593.697
397.263	16.681	785.335	593.056
398.278	16.650	785.066	592.694
399.292	16.815	784.040	592.442
400.307	16.854	783.688	592.261
401.321	16.787	783.620	591.925
402.336	16.657	783.328	591.195
403.350	16.815	782.579	591.130
404.365	16.719	782.307	590.536
405.380	16.906	781.784	590.741
406.394	16.892	781.522	590.442
407.409	16.934	781.065	590.192
408.423	17.020	780.382	589.923
409.438	17.071	780.051	589.795
410.453	17.030	779.650	589.300
411.467	17.133	779.140	589.217
412.482	17.205	778.890	589.227
413.496	17.199	778.014	588.492
414.511	17.120	777.951	588.117
415.526	17.267	777.526	588.255
416.540	17.172	777.222	587.642
417.555	17.233	776.618	587.345
418.569	17.193	776.371	586.969
419.584	17.088	775.906	586.204
420.599	17.300	775.139	586.301
421.613	107.950	1288.342	1462.927
422.628	92.160	1363.126	1463.010
