DTS Sentinel unit serial number:	SN413079Multiplexer serial number:	ORYXHardware model number:	OX4-SRSoftware version number:	ORYX F/W v4.00 Oryx Data Collector v3.7.2.0data status	okinstallation	princeton_trtdifferential loss correction	single-endedforward channel	channel 3reverse channel	N/Adate	2019/09/14time	09:16:35forward acquisition time	60.00reverse acquisition time	0.00gamma	496.2192k internal	0.2323k external	0.2323temperature offset calibration	1.0052default loss term (dB/km)	0.3790temperature slope calibration	1.0000multiplexer offset coefficient	1.0000multiplexer slope coefficient	1.0000fibre end	0.00T internal ref (°C)	30.80T ext. ref 1 (°C)	3.80T ext. ref 2 (°C)	28.69length (m)	temperature (°C)	Stokes	anti-Stokes-747.200	-75.770	-0.345	0.124
-746.185	-46.080	-0.037	0.019
-745.171	800.000	0.031	-0.105
-744.156	457.322	0.168	0.376
-743.142	10.482	0.409	-0.315
-742.127	-102.746	-0.381	-0.092
-741.112	44.995	0.052	0.048
-740.098	96.628	-0.343	0.396
-739.083	-107.869	-0.283	-0.062
-738.069	-105.918	0.149	0.034
-737.054	-77.172	-0.122	0.043
-736.039	800.000	-0.054	0.159
-735.025	-117.905	0.371	0.067
-734.010	180.071	-0.097	-0.143
-732.996	800.000	-0.064	-0.202
-731.981	-200.000	0.033	-0.354
-730.966	-177.404	0.150	-0.004
-729.952	-200.000	-0.006	0.028
-728.937	111.666	0.280	0.341
-727.923	-200.000	-0.001	-0.138
-726.908	-74.507	0.281	0.102
-725.894	259.466	-0.173	0.301
-724.879	618.513	-0.063	0.160
-723.864	51.993	-0.235	-0.226
-722.850	-200.000	0.008	0.047
-721.835	-115.241	-0.275	-0.052
-720.821	-200.000	0.043	-0.377
-719.806	-82.572	0.139	0.046
-718.791	47.795	0.151	-0.142
-717.777	307.840	-0.127	-0.239
-716.762	513.894	0.075	0.177
-715.748	282.469	0.036	-0.065
-714.733	85.776	0.065	-0.072
-713.718	-199.955	-0.479	0.002
-712.704	-169.464	-0.290	-0.011
-711.689	-200.000	-0.022	0.235
-710.675	-33.122	0.169	0.094
-709.660	145.775	-0.160	0.216
-708.645	-128.951	-0.180	-0.026
-707.631	-90.528	0.197	-0.057
-706.616	73.895	0.066	-0.070
-705.602	-77.273	0.239	-0.084
-704.587	-200.000	0.048	0.269
-703.572	525.336	0.122	-0.289
-702.558	202.230	-0.136	0.211
-701.543	762.689	-0.074	0.202
-700.529	24.625	0.183	0.153
-699.514	-73.523	-0.316	-0.116
-698.499	-5.283	0.246	0.171
-697.485	-19.437	0.207	0.129
-696.470	-16.905	-0.206	0.131
-695.456	9.676	0.225	-0.172
-694.441	-46.346	-0.035	-0.018
-693.426	177.004	-0.145	0.212
-692.412	-200.000	0.033	0.388
-691.397	-52.553	-0.186	-0.086
-690.383	-200.000	0.164	0.001
-689.368	165.707	-0.233	0.333
-688.354	800.000	0.029	-0.111
-687.339	204.122	-0.050	-0.077
-686.324	7.105	-0.231	-0.173
-685.310	800.000	0.074	0.225
-684.295	744.475	0.049	-0.134
-683.281	278.690	0.078	0.140
-682.266	110.056	-0.267	-0.322
-681.251	132.627	0.202	0.263
-680.237	-114.524	-0.407	0.079
-679.222	36.078	0.082	-0.073
-678.208	338.329	-0.108	-0.211
-677.193	800.000	-0.091	-0.262
-676.178	86.255	0.032	-0.036
-675.164	520.707	-0.124	0.293
-674.149	800.000	0.072	-0.274
-673.135	-71.093	-0.326	0.123
-672.120	-84.074	-0.288	0.092
-671.105	283.281	-0.240	0.434
-670.091	20.060	0.129	0.105
-669.076	-130.383	-0.077	-0.011
-668.062	-33.330	0.263	0.146
-667.047	800.000	-0.057	0.192
-666.032	324.472	0.061	0.118
-665.018	-200.000	-0.047	0.269
-664.003	-200.000	-0.019	0.334
-662.989	-200.000	0.050	0.230
-661.974	-200.000	-0.020	0.206
-660.959	-111.758	0.179	0.037
-659.945	53.520	-0.179	0.172
-658.930	-200.000	-0.015	-0.152
-657.916	350.682	0.073	-0.146
-656.901	800.000	-0.086	0.297
-655.886	704.339	-0.057	-0.152
-654.872	-50.135	-0.234	0.111
-653.857	800.000	-0.058	0.226
-652.843	24.924	-0.310	-0.259
-651.828	-200.000	-0.019	0.130
-650.814	-55.419	0.204	-0.092
-649.799	-200.000	-0.001	-0.270
-648.784	-80.589	0.090	-0.030
-647.770	10.221	0.207	-0.159
-646.755	800.000	0.012	0.041
-645.741	24.886	0.173	-0.144
-644.726	-47.880	0.226	-0.110
-643.711	-90.664	0.326	-0.095
-642.697	-97.995	0.075	-0.020
-641.682	-31.303	-0.393	0.223
-640.668	-121.255	0.241	0.041
-639.653	-200.000	-0.011	-0.470
-638.638	224.658	-0.097	-0.158
-637.624	-200.000	0.032	0.171
-636.609	-125.724	0.039	0.006
-635.595	240.677	-0.225	-0.377
-634.580	478.763	-0.217	-0.494
-633.565	359.801	0.042	-0.085
-632.551	316.767	0.129	0.245
-631.536	454.244	0.041	-0.091
-630.522	-56.817	-0.113	-0.050
-629.507	-108.115	0.275	-0.060
-628.492	99.912	-0.149	-0.173
-627.478	-51.798	0.100	-0.047
-626.463	359.048	-0.064	0.130
-625.449	-200.000	0.019	-0.553
-624.434	31.078	0.120	-0.103
-623.419	-52.101	0.082	-0.038
-622.405	800.000	0.025	-0.081
-621.390	800.000	0.076	-0.237
-620.376	800.000	-0.042	-0.123
-619.361	-200.000	-0.008	-0.084
-618.346	210.321	0.230	-0.362
-617.332	-132.003	-0.342	0.045
-616.317	-200.000	0.001	-0.313
-615.303	-82.011	0.136	-0.045
-614.288	-23.480	0.158	0.095
-613.273	-73.497	-0.096	-0.035
-612.259	58.433	-0.117	0.116
-611.244	243.637	-0.076	0.128
-610.230	282.648	-0.052	0.094
-609.215	327.811	-0.110	-0.212
-608.201	407.924	0.056	0.119
-607.186	84.949	0.201	0.221
-606.171	-200.000	-0.034	0.438
-605.157	-200.000	-0.033	-0.203
-604.142	-84.742	-0.319	0.101
-603.128	-129.693	-0.189	0.026
-602.113	619.622	-0.025	0.064
-601.098	800.000	0.049	-0.203
-600.084	167.774	0.087	-0.124
-599.069	-0.614	-0.099	0.071
-598.055	-36.843	-0.164	0.088
-597.040	-200.000	0.004	-0.025
-596.025	32.330	0.246	0.213
-595.011	-200.000	-0.051	0.402
-593.996	22.337	-0.150	0.123
-592.982	-200.000	0.041	-0.195
-591.967	109.427	-0.196	0.235
-590.952	90.513	0.113	0.127
-589.938	-96.633	-0.089	-0.023
-588.923	57.152	-0.117	0.115
-587.909	-150.221	-0.081	0.006
-586.894	29.469	-0.165	0.141
-585.879	800.000	0.030	-0.095
-584.865	276.857	0.070	-0.124
-583.850	800.000	0.088	0.372
-582.836	-119.153	-0.244	0.043
-581.821	134.157	0.106	-0.137
-580.806	319.262	0.153	0.292
-579.792	-124.766	-0.141	-0.022
-578.777	50.137	-0.144	-0.137
-577.763	26.488	-0.196	-0.165
-576.748	111.825	-0.140	-0.169
-575.733	-200.000	-0.007	-0.273
-574.719	106.783	0.029	-0.034
-573.704	154.535	-0.211	-0.290
-572.690	-124.540	-0.457	0.071
-571.675	151.706	-0.188	0.257
-570.661	-37.353	0.192	0.103
-569.646	-50.516	0.165	0.078
-568.631	-173.704	-0.140	-0.004
-567.617	175.237	0.092	0.134
-566.602	67.115	-0.103	0.105
-565.588	800.000	0.010	-0.033
-564.573	-101.723	-0.330	0.080
-563.558	361.237	0.057	0.114
-562.544	-68.837	0.277	-0.107
-561.529	800.000	-0.077	-0.257
-560.515	-83.947	0.161	0.051
-559.500	282.620	-0.044	0.078
-558.485	528.430	0.146	0.345
-557.471	253.868	0.102	0.174
-556.456	-125.700	0.312	0.047
-555.442	208.257	-0.097	0.152
-554.427	-200.000	-0.059	0.303
-553.412	800.000	0.157	0.472
-552.398	413.749	0.090	-0.192
-551.383	156.713	-0.216	0.300
-550.369	107.748	-0.124	0.148
-549.354	353.257	0.158	0.314
-548.339	7.004	0.323	0.241
-547.325	-62.524	0.222	0.092
-546.310	800.000	0.069	0.269
-545.296	-200.000	-0.013	-0.331
-544.281	-200.000	0.011	0.065
-543.266	117.946	-0.199	0.245
-542.252	119.211	0.165	0.204
-541.237	11.809	0.223	-0.171
-540.223	-89.389	0.116	-0.034
-539.208	-87.229	0.025	0.008
-538.193	14.757	-0.168	0.132
-537.179	315.723	0.140	0.265
-536.164	-118.872	-0.222	0.039
-535.150	114.028	-0.029	-0.036
-534.135	260.104	0.139	-0.241
-533.121	-109.716	-0.159	-0.033
-532.106	-200.000	-0.048	0.304
-531.091	-113.888	0.362	0.070
-530.077	800.000	-0.048	-0.169
-529.062	357.920	0.080	-0.160
-528.048	98.732	0.241	-0.278
-527.033	-184.265	-0.137	0.002
-526.018	15.659	0.032	-0.025
-525.004	-200.000	0.006	0.195
-523.989	-77.279	0.103	0.036
-522.975	-8.323	0.145	0.098
-521.960	-105.098	0.192	0.044
-520.945	-52.555	0.152	0.070
-519.931	3.703	0.205	0.150
-518.916	800.000	-0.036	0.156
-517.902	-189.608	0.075	0.001
-516.887	-128.034	-0.378	0.054
-515.872	22.236	0.302	-0.246
-514.858	-53.008	-0.256	-0.118
-513.843	-1.974	0.235	-0.165
-512.829	71.054	0.066	-0.068
-511.814	800.000	0.053	-0.168
-510.799	4.057	0.301	-0.220
-509.785	117.268	-0.050	-0.062
-508.770	-68.931	0.306	-0.118
-507.756	223.971	0.055	0.089
-506.741	-61.041	0.075	0.031
-505.726	181.912	-0.041	0.060
-504.712	21.590	0.080	-0.065
-503.697	-97.586	0.241	-0.062
-502.683	800.000	-0.078	-0.259
-501.668	24.737	0.137	0.114
-500.653	229.163	0.105	0.171
-499.639	-41.714	-0.114	-0.059
-498.624	430.587	0.157	-0.339
-497.610	-31.755	-0.226	-0.127
-496.595	-139.163	-0.394	-0.043
-495.581	800.000	-0.026	0.074
-494.566	800.000	0.012	-0.042
-493.551	-28.331	0.122	-0.070
-492.537	800.000	0.070	-0.232
-491.522	-136.966	-0.063	0.007
-490.508	165.997	0.220	0.311
-489.493	-200.000	0.012	0.463
-488.478	547.840	-0.018	0.043
-487.464	550.922	0.125	-0.300
-486.449	-200.000	0.059	-0.373
-485.435	-111.456	-0.144	-0.029
-484.420	-200.000	0.038	0.195
-483.405	3.635	0.129	-0.094
-482.391	-95.545	0.198	0.053
-481.376	3.674	-0.056	-0.041
-480.362	-114.233	-0.215	0.041
-479.347	344.103	-0.167	0.326
-478.332	-107.821	-0.165	0.036
-477.318	-77.547	-0.242	-0.084
-476.303	59.853	-0.076	-0.075
-475.289	-123.250	0.437	0.070
-474.274	-183.939	-0.201	-0.003
-473.259	49.804	-0.299	-0.282
-472.245	663.288	0.042	-0.109
-471.230	16.763	-0.138	-0.109
-470.216	140.000	0.219	0.288
-469.201	87.018	0.274	0.302
-468.186	422.581	0.072	0.155
-467.172	800.000	-0.062	-0.261
-466.157	8.422	0.248	0.186
-465.143	394.309	0.114	-0.238
-464.128	268.511	0.100	-0.175
-463.113	-174.177	0.224	0.007
-462.099	800.000	0.047	0.197
-461.084	182.287	0.165	0.242
-460.070	-105.872	0.256	0.058
-459.055	-200.000	0.052	0.256
-458.040	-84.433	0.310	0.098
-457.026	-200.000	-0.014	-0.106
-456.011	104.055	-0.234	-0.275
-454.997	-50.352	0.303	0.143
-453.982	-97.602	0.164	-0.043
-452.968	-200.000	-0.013	0.178
-451.953	-39.415	-0.389	-0.204
-450.938	-107.911	0.398	-0.086
-449.924	-94.642	-0.363	-0.099
-448.909	800.000	-0.046	0.131
-447.895	237.573	0.104	-0.172
-446.880	-61.972	-0.229	-0.096
-445.865	-200.000	-0.037	-0.244
-444.851	135.753	-0.036	-0.047
-443.836	-73.727	-0.084	-0.031
-442.822	0.064	-0.158	-0.113
-441.807	83.390	-0.118	-0.128
-440.792	800.000	-0.098	-0.367
-439.778	793.175	-0.086	-0.235
-438.763	236.138	-0.206	-0.340
-437.749	-17.067	0.211	-0.133
-436.734	-200.000	0.001	0.086
-435.719	11.887	-0.184	-0.141
-434.705	-56.292	-0.176	-0.078
-433.690	-200.000	-0.003	0.012
-432.676	737.067	-0.080	0.213
-431.661	93.873	-0.099	0.112
-430.646	-128.951	0.128	-0.018
-429.632	70.055	0.328	0.338
-428.617	60.926	0.159	-0.158
-427.603	-200.000	0.031	0.189
-426.588	743.084	0.120	0.322
-425.573	-41.021	-0.135	0.069
-424.559	9.610	-0.315	-0.238
-423.544	-17.746	-0.095	0.059
-422.530	98.593	-0.114	0.131
-421.515	-152.272	0.224	-0.016
-420.500	-87.364	0.204	-0.062
-419.486	-11.052	0.351	0.231
-418.471	800.000	0.034	-0.094
-417.457	800.000	0.040	0.137
-416.442	-78.981	0.274	0.093
-415.428	246.959	0.123	-0.206
-414.413	-19.695	0.377	-0.233
-413.398	800.000	-0.051	0.170
-412.384	87.675	0.146	0.161
-411.369	-134.173	0.238	-0.029
-410.355	-156.991	0.253	0.015
-409.340	-7.828	-0.121	-0.081
-408.325	-62.992	0.147	0.061
-407.311	-200.000	-0.020	0.096
-406.296	-28.056	0.121	-0.070
-405.282	-200.000	-0.024	0.107
-404.267	237.660	-0.040	-0.066
-403.252	28.194	-0.100	0.084
-402.238	21.108	-0.078	0.063
-401.223	96.191	-0.033	0.037
-400.209	20.448	-0.202	0.162
-399.194	-200.000	0.040	0.415
-398.179	39.112	-0.183	-0.163
-397.165	67.272	0.097	-0.099
-396.150	-200.000	-0.010	-0.119
-395.136	41.529	0.011	0.010
-394.121	800.000	0.042	0.170
-393.106	-200.000	-0.013	-0.169
-392.092	465.773	-0.055	0.122
-391.077	-107.653	0.374	0.081
-390.063	-53.604	-0.075	-0.034
-389.048	298.085	0.118	0.217
-388.033	800.000	-0.014	0.062
-387.019	639.104	-0.069	0.174
-386.004	-200.000	-0.063	-0.283
-384.990	-200.000	0.022	-0.106
-383.975	-200.000	0.071	-0.311
-382.960	179.612	0.120	-0.175
-381.946	-104.440	-0.047	-0.011
-380.931	-66.972	-0.393	0.154
-379.917	-42.743	-0.110	0.056
-378.902	-14.336	0.099	0.063
-377.888	-56.852	-0.021	-0.009
-376.873	-137.583	-0.265	0.030
-375.858	-200.000	-0.006	0.342
-374.844	40.965	-0.132	0.119
-373.829	800.000	0.033	-0.129
-372.815	-119.679	-0.187	0.032
-371.800	-200.000	0.006	0.056
-370.785	-200.000	-0.024	-0.163
-369.771	800.000	0.110	-0.385
-368.756	387.474	0.124	0.255
-367.742	800.000	-0.132	-0.393
-366.727	12.722	0.196	-0.151
-365.712	-200.000	-0.081	0.463
-364.698	675.071	0.042	0.108
-363.683	470.131	-0.178	-0.398
-362.669	35.065	0.163	-0.142
-361.654	-59.945	-0.444	-0.189
-360.639	11.126	-0.093	0.071
-359.625	345.925	-0.189	0.370
-358.610	-65.564	-0.084	-0.033
-357.596	139.429	-0.200	0.262
-356.581	-89.118	-0.339	0.100
-355.566	78.945	-0.235	0.250
-354.552	-37.004	0.143	-0.076
-353.537	-48.727	0.216	0.103
-352.523	-138.528	-0.086	0.009
-351.508	-200.000	0.030	0.252
-350.493	328.716	-0.134	0.256
-349.479	-104.359	-0.209	-0.048
-348.464	161.161	0.041	0.057
-347.450	-200.000	0.003	-0.244
-346.435	28.934	0.167	-0.140
-345.420	800.000	-0.098	0.353
-344.406	-25.387	-0.129	-0.076
-343.391	-200.000	0.004	-0.063
-342.377	-19.577	-0.077	-0.047
-341.362	-71.073	-0.225	0.084
-340.348	389.243	0.095	0.195
-339.333	44.445	0.090	0.082
-338.318	184.316	0.046	-0.067
-337.304	-87.435	0.098	0.029
-336.289	-6.501	-0.334	-0.226
-335.275	-200.000	0.021	-0.349
-334.260	196.021	0.158	0.239
-333.245	-145.013	-0.404	0.037
-332.231	-113.484	0.183	-0.036
-331.216	-141.124	-0.218	0.022
-330.202	-200.000	0.039	0.189
-329.187	17.563	0.166	0.131
-328.172	742.658	0.010	-0.027
-327.158	-200.000	0.038	0.192
-326.143	16.721	-0.245	0.192
-325.129	517.820	-0.086	0.201
-324.114	11.888	-0.036	0.027
-323.099	-105.682	0.069	0.016
-322.085	105.776	0.074	0.087
-321.070	-62.138	0.126	-0.052
-320.056	268.422	-0.201	0.350
-319.041	-170.132	0.181	0.006
-318.026	57.158	-0.208	-0.201
-317.012	-84.797	-0.372	-0.116
-315.997	-95.679	-0.155	0.041
-314.983	800.000	-0.133	-0.444
-313.968	76.066	0.146	0.154
-312.953	135.073	-0.115	0.148
-311.939	52.834	-0.224	0.212
-310.924	-91.941	-0.193	0.054
-309.910	445.905	-0.134	-0.292
-308.895	41.865	-0.042	-0.038
-307.880	636.960	0.072	0.183
-306.866	-200.000	0.051	0.304
-305.851	-147.720	-0.139	-0.012
-304.837	91.894	-0.155	0.173
-303.822	-123.843	-0.216	0.034
-302.807	-70.787	-0.189	0.071
-301.793	12.052	-0.242	0.185
-300.778	-108.735	0.108	0.023
-299.764	69.809	-0.078	-0.080
-298.749	-186.680	0.266	-0.004
-297.735	-200.000	-0.037	0.270
-296.720	-200.000	0.033	0.234
-295.705	-2.515	0.265	0.184
-294.691	-113.768	0.144	-0.028
-293.676	512.555	0.069	0.160
-292.662	800.000	-0.037	-0.114
-291.647	-7.653	0.263	-0.177
-290.632	74.268	0.037	0.038
-289.618	-92.588	-0.201	-0.056
-288.603	-118.124	0.205	0.036
-287.589	103.372	0.168	-0.196
-286.574	-200.000	0.100	-0.494
-285.559	-73.642	0.057	0.021
-284.545	-94.938	0.260	0.070
-283.530	18.046	-0.251	-0.198
-282.516	78.680	-0.119	0.126
-281.501	236.065	-0.102	0.168
-280.486	-63.105	0.141	-0.058
-279.472	-168.950	0.171	-0.006
-278.457	800.000	0.053	-0.194
-277.443	-69.665	-0.197	-0.075
-276.428	-200.000	0.018	-0.148
-275.413	-85.405	0.570	-0.176
-274.399	-200.000	0.003	0.065
-273.384	-107.986	-0.251	0.054
-272.370	145.956	0.161	0.214
-271.355	-200.000	0.041	-0.210
-270.340	610.587	0.037	0.092
-269.326	-42.501	-0.155	0.078
-268.311	74.475	0.148	-0.154
-267.297	-200.000	0.039	-0.334
-266.282	-128.465	-0.491	0.069
-265.267	183.621	-0.114	-0.167
-264.253	-119.676	-0.069	0.012
-263.238	397.757	-0.067	0.140
-262.224	268.817	0.057	-0.099
-261.209	-11.592	0.057	0.037
-260.195	122.251	-0.051	0.064
-259.180	4.145	0.248	0.180
-258.165	258.696	-0.046	-0.078
-257.151	227.699	-0.052	-0.084
-256.136	42.370	0.132	-0.119
-255.122	-36.671	0.096	0.051
-254.107	-200.000	-0.007	0.047
-253.092	-184.739	0.241	-0.004
-252.078	10.115	0.081	-0.061
-251.063	-14.866	-0.119	-0.075
-250.049	800.000	-0.069	-0.282
-249.034	-105.534	0.249	0.056
-248.019	800.000	0.055	-0.218
-247.005	83.346	0.236	0.254
-245.990	146.837	-0.041	-0.054
-244.976	-200.000	0.009	0.131
-243.961	-78.805	0.149	-0.050
-242.946	12.960	-0.422	-0.323
-241.932	-200.000	-0.011	-0.074
-240.917	12.306	0.275	0.210
-239.903	-29.967	-0.270	0.152
-238.888	-20.232	0.134	0.082
-237.873	135.490	-0.303	-0.390
-236.859	199.599	0.083	0.126
-235.844	63.529	-0.216	0.214
-234.830	213.433	0.047	0.073
-233.815	-68.528	0.326	-0.125
-232.800	199.953	-0.125	-0.191
-231.786	-48.283	0.162	0.077
-230.771	-49.808	-0.055	-0.026
-229.757	166.036	-0.089	0.125
-228.742	273.351	0.104	0.181
-227.727	1.324	0.132	0.094
-226.713	265.350	0.042	-0.073
-225.698	-121.997	-0.134	-0.022
-224.684	79.718	-0.163	0.173
-223.669	800.000	0.060	-0.245
-222.655	-200.000	-0.033	-0.518
-221.640	282.475	0.085	0.151
-220.625	-120.594	-0.408	0.068
-219.611	596.692	0.092	-0.226
-218.596	-73.103	0.118	-0.043
-217.582	800.000	0.105	0.300
-216.567	-56.898	0.107	-0.047
-215.552	359.293	-0.098	-0.194
-214.538	-200.000	-0.016	0.144
-213.523	-78.474	-0.093	0.031
-212.509	-84.063	-0.289	-0.091
-211.494	-200.000	0.021	-0.272
-210.479	-152.394	-0.324	0.023
-209.465	-200.000	0.002	0.131
-208.450	116.704	0.135	-0.163
-207.436	-32.738	-0.167	0.092
-206.421	284.560	-0.052	-0.093
-205.406	-51.250	0.129	0.060
-204.392	275.040	-0.094	0.165
-203.377	128.392	0.149	-0.187
-202.363	800.000	0.167	-0.495
-201.348	-108.120	0.371	0.079
-200.333	100.284	-0.070	-0.080
-199.319	-200.000	0.000	0.465
-198.304	755.100	0.097	0.259
-197.290	442.065	-0.128	0.278
-196.275	411.163	-0.030	0.064
-195.260	499.200	-0.202	0.461
-194.246	-13.901	-0.151	-0.097
-193.231	-200.000	-0.033	0.301
-192.217	-95.518	0.350	0.093
-191.202	-41.408	-0.265	0.135
-190.187	800.000	-0.058	-0.168
-189.173	800.000	-0.049	0.155
-188.158	-200.000	-0.043	-0.275
-187.144	93.393	-0.271	0.303
-186.129	-45.412	-0.119	0.058
-185.114	3.871	-0.029	-0.021
-184.100	-34.698	0.201	0.109
-183.085	68.297	0.130	0.131
-182.071	91.853	-0.213	-0.237
-181.056	-138.483	0.288	-0.031
-180.042	-78.057	0.278	-0.094
-179.027	64.540	0.252	0.251
-178.012	800.000	-0.065	-0.181
-176.998	131.599	-0.145	-0.185
-175.983	566.810	-0.019	0.045
-174.969	286.814	0.191	-0.341
-173.954	112.689	-0.069	-0.083
-172.939	-170.539	-0.333	-0.011
-171.925	173.851	0.097	-0.138
-170.910	292.168	0.142	0.255
-169.896	-79.218	-0.221	-0.074
-168.881	-63.299	0.138	0.056
-167.866	800.000	0.065	0.215
-166.852	137.537	0.140	0.181
-165.837	95.150	-0.071	-0.079
-164.823	53.529	0.113	-0.107
-163.808	48.809	-0.201	0.187
-162.793	136.522	-0.134	0.172
-161.779	-200.000	-0.009	-0.091
-160.764	-52.850	-0.092	-0.042
-159.750	-200.000	-0.041	-0.239
-158.735	604.265	-0.040	-0.097
-157.720	800.000	0.187	-0.573
-156.706	-48.112	-0.414	-0.197
-155.691	-48.304	0.042	-0.020
-154.677	59.544	-0.330	-0.321
-153.662	462.997	-0.192	-0.422
-152.647	-6.129	-0.090	0.061
-151.633	78.694	0.212	-0.223
-150.618	-160.794	-0.218	0.011
-149.604	-104.570	0.341	-0.078
-148.589	-109.195	-0.133	0.028
-147.574	-200.000	0.032	0.145
-146.560	-12.829	0.101	0.065
-145.545	136.532	-0.036	-0.046
-144.531	-87.871	-0.313	0.093
-143.516	-172.923	0.271	-0.008
-142.502	153.216	-0.203	-0.274
-141.487	196.810	-0.241	-0.363
-140.472	-59.689	0.145	0.061
-139.458	-200.000	-0.017	0.372
-138.443	-29.889	-0.220	0.123
-137.429	-200.000	-0.009	0.293
-136.414	-200.000	-0.010	0.116
-135.399	111.976	-0.059	0.071
-134.385	657.826	0.112	-0.284
-133.370	-72.111	-0.119	-0.044
-132.356	-17.009	-0.227	0.142
-131.341	800.000	-0.094	-0.259
-130.326	-53.861	0.215	0.097
-129.312	-1.031	0.111	0.078
-128.297	150.733	-0.297	-0.397
-127.283	165.079	0.070	0.097
-126.268	333.594	0.046	0.088
-125.253	-200.000	-0.040	0.239
-124.239	-56.631	0.269	-0.117
-123.224	99.486	-0.263	-0.300
-122.210	34.495	-0.100	0.086
-121.195	512.145	-0.066	0.152
-120.180	86.168	0.088	-0.096
-119.166	800.000	-0.148	-0.417
-118.151	-40.287	-0.315	0.161
-117.137	625.642	0.112	-0.279
-116.122	596.475	-0.079	-0.193
-115.107	-198.520	0.154	-0.001
-114.093	-136.211	0.107	0.012
-113.078	16.301	0.365	-0.283
-112.064	93.345	0.076	-0.085
-111.049	-86.699	-0.132	0.040
-110.034	224.104	-0.111	-0.176
-109.020	8.050	-0.206	-0.152
-108.005	-94.429	-0.163	-0.044
-106.991	800.000	0.033	-0.093
-105.976	-107.015	0.264	-0.057
-104.962	-37.276	0.329	-0.173
-103.947	380.810	0.124	0.250
-102.932	35.806	0.200	0.173
-101.918	82.942	-0.051	0.055
-100.903	-70.237	0.438	0.164
-99.889	-18.346	0.327	0.201
-98.874	800.000	-0.040	-0.131
-97.859	-50.626	0.121	0.056
-96.845	-200.000	0.006	-0.082
-95.830	-44.888	0.147	0.072
-94.816	-3.069	0.247	0.170
-93.801	539.474	-0.165	0.387
-92.786	37.763	0.191	-0.167
-91.772	-123.066	0.096	0.015
-90.757	123.927	-0.099	0.122
-89.743	-16.805	0.121	0.075
-88.728	6.664	0.130	0.095
-87.713	-129.032	0.491	-0.068
-86.699	-147.777	-0.169	-0.014
-85.684	-200.000	0.019	0.147
-84.670	1.396	-0.117	0.083
-83.655	352.347	-0.021	0.042
-82.640	125.332	0.156	0.193
-81.626	76.870	-0.055	-0.058
-80.611	-114.639	0.437	-0.082
-79.597	-200.000	0.020	0.259
-78.582	800.000	-0.093	0.288
-77.567	-52.900	0.193	-0.087
-76.553	-200.000	-0.011	-0.435
-75.538	95.622	-0.179	-0.201
-74.524	-48.513	-0.020	0.010
-73.509	467.480	-0.061	-0.134
-72.494	253.699	-0.070	0.118
-71.480	9.326	0.246	0.183
-70.465	236.494	0.129	0.210
-69.451	-200.000	0.076	0.355
-68.436	137.917	-0.139	0.179
-67.422	800.000	-0.036	0.122
-66.407	800.000	-0.030	0.105
-65.392	332.893	0.071	0.135
-64.378	-200.000	0.011	-0.120
-63.363	-7.684	0.146	-0.097
-62.349	800.000	-0.135	0.428
-61.334	67.200	-0.780	-0.782
-60.319	318.300	0.295	0.549
-59.305	-200.000	-0.203	-1.040
-58.290	560.360	0.619	1.469
-57.276	412.591	0.802	1.675
-56.261	-200.000	97.180	592.513
-55.246	600.188	1408.908	3437.516
-54.232	188.393	2613.056	3839.998
-53.217	117.163	2192.727	2648.123
-52.203	41.880	1721.889	1534.611
-51.188	33.995	1531.184	1310.508
-50.173	31.622	1504.241	1271.310
-49.159	51.502	1554.272	1451.249
-48.144	52.650	1572.009	1475.676
-47.130	34.244	1531.124	1311.968
-46.115	31.111	1516.486	1277.953
-45.100	30.861	1513.190	1273.419
-44.086	30.919	1510.772	1271.725
-43.071	30.868	1508.936	1269.786
-42.057	30.873	1507.149	1268.264
-41.042	30.844	1506.175	1267.199
-40.027	30.869	1504.430	1265.845
-39.013	30.742	1503.330	1264.006
-37.998	30.704	1501.952	1262.544
-36.984	30.842	1500.036	1261.817
-35.969	30.792	1498.738	1260.337
-34.954	30.793	1497.529	1259.273
-33.940	30.761	1495.828	1257.580
-32.925	30.848	1494.768	1257.223
-31.911	30.833	1493.901	1256.347
-30.896	30.891	1492.082	1255.157
-29.881	30.828	1490.844	1253.641
-28.867	30.897	1489.381	1252.824
-27.852	30.873	1487.659	1251.165
-26.838	30.869	1486.551	1250.158
-25.823	30.954	1484.812	1249.215
-24.809	30.844	1483.532	1247.349
-23.794	30.823	1482.266	1246.100
-22.779	30.808	1480.879	1244.781
-21.765	30.915	1479.530	1244.315
-20.750	30.925	1478.668	1243.605
-19.736	30.838	1477.786	1242.236
-18.721	30.892	1476.134	1241.159
-17.706	30.745	1475.522	1239.613
-16.692	30.855	1473.930	1238.958
-15.677	30.711	1473.508	1237.597
-14.663	30.726	1472.446	1236.755
-13.648	30.737	1471.307	1235.822
-12.633	30.755	1470.326	1235.072
-11.619	30.741	1469.734	1234.433
-10.604	30.702	1468.721	1233.274
-9.590	30.716	1468.107	1232.798
-8.575	30.854	1467.039	1232.769
-7.560	30.688	1466.391	1231.074
-6.546	30.656	1465.533	1230.094
-5.531	30.765	1464.595	1229.979
-4.517	30.726	1463.669	1228.898
-3.502	30.703	1462.151	1227.420
-2.487	30.816	1461.351	1227.447
-1.473	30.697	1460.144	1225.602
-0.458	30.682	1459.480	1224.892
0.556	31.258	1450.369	1216.531
1.571	29.148	1425.245	1181.831
2.586	26.287	1364.559	1113.799
3.600	24.733	1282.160	1037.442
4.615	23.046	1235.625	990.258
5.629	19.441	1177.689	924.464
6.644	10.922	1093.104	815.447
7.659	4.607	1052.770	754.712
8.673	3.802	1047.381	746.890
9.688	3.755	1044.404	744.477
10.702	3.764	1042.925	743.399
11.717	3.870	1040.977	742.455
12.731	6.172	1043.442	755.213
13.746	13.975	1054.587	800.967
14.761	19.657	1060.706	833.014
15.775	19.851	1060.335	833.585
16.790	19.099	1058.664	828.579
17.804	17.950	1056.932	821.625
18.819	17.035	1054.501	815.270
19.834	16.613	1053.149	812.125
20.848	16.454	1052.680	810.927
21.863	16.352	1051.343	809.338
22.877	16.006	1050.971	807.322
23.892	15.862	1050.190	805.964
24.907	15.979	1048.834	805.408
25.921	15.802	1048.621	804.331
26.936	15.874	1047.742	803.929
27.950	15.917	1046.381	803.015
28.965	15.895	1045.603	802.246
29.980	15.985	1044.759	801.955
30.994	16.018	1043.506	801.078
32.009	16.057	1042.658	800.541
33.023	16.234	1041.723	800.592
34.038	16.073	1041.594	799.659
35.053	16.053	1040.051	798.308
36.067	15.912	1039.178	796.903
37.082	15.916	1037.924	795.888
38.096	15.930	1037.625	795.652
39.111	16.047	1036.770	795.483
40.126	16.249	1035.458	795.357
41.140	15.996	1034.427	793.302
42.155	15.852	1033.464	791.818
43.169	15.735	1032.251	790.268
44.184	15.662	1030.952	788.859
45.199	15.700	1030.104	788.320
46.213	15.619	1029.542	787.441
47.228	15.676	1028.445	786.796
48.242	15.864	1027.634	786.986
49.257	15.900	1026.670	786.346
50.271	15.980	1025.380	785.661
51.286	15.954	1024.816	785.040
52.301	16.055	1023.937	784.770
53.315	15.987	1023.410	783.977
54.330	15.917	1022.344	782.765
55.344	15.836	1021.182	781.430
56.359	15.786	1020.299	780.454
57.374	15.812	1019.483	779.880
58.388	15.729	1018.789	778.899
59.403	15.709	1017.764	777.951
60.417	15.735	1016.969	777.396
61.432	15.697	1016.250	776.602
62.447	15.636	1015.498	775.680
63.461	15.547	1014.673	774.571
64.476	15.480	1013.815	773.538
65.490	15.558	1012.679	772.961
66.505	15.657	1011.782	772.663
67.520	15.538	1011.491	771.823
68.534	15.573	1010.673	771.293
69.549	15.747	1009.570	771.181
70.563	15.779	1009.107	770.903
71.578	15.656	1008.249	769.617
72.593	15.512	1007.494	768.314
73.607	15.410	1006.645	767.135
74.622	15.334	1005.544	765.879
75.636	15.547	1004.225	765.777
76.651	15.485	1003.885	765.170
77.666	15.426	1003.542	764.571
78.680	15.465	1002.164	763.631
79.695	15.507	1002.326	763.877
80.709	15.599	1001.182	763.358
81.724	15.519	1000.725	762.578
82.739	15.729	999.482	762.517
83.753	15.727	999.115	762.160
84.768	15.850	998.219	761.965
85.782	15.925	997.874	761.975
86.797	16.132	996.819	762.034
87.812	16.173	996.034	761.553
88.826	15.981	995.352	760.098
89.841	15.922	994.340	758.991
90.855	15.970	993.877	758.788
91.870	16.085	992.584	758.248
92.884	16.145	992.365	758.286
93.899	16.054	991.484	757.139
94.914	16.051	990.787	756.524
95.928	16.128	989.905	756.131
96.943	16.106	989.294	755.498
97.957	16.165	988.183	754.844
98.972	16.108	987.666	754.129
99.987	16.106	986.976	753.526
101.001	16.122	986.184	752.929
102.016	16.023	985.561	751.942
103.030	16.007	984.537	751.025
104.045	16.023	983.309	750.091
105.060	16.155	982.490	749.989
106.074	16.109	981.351	748.846
107.089	15.948	980.654	747.537
108.103	15.718	979.836	745.824
109.118	15.521	978.668	743.997
110.133	15.668	978.105	744.156
111.147	15.604	976.931	742.912
112.162	15.668	976.275	742.633
113.176	15.713	975.492	742.169
114.191	15.765	974.692	741.724
115.206	15.864	973.795	741.413
116.220	15.741	973.015	740.212
117.235	15.738	972.261	739.557
118.249	15.809	971.316	739.087
119.264	15.640	970.718	737.824
120.279	15.591	970.014	737.010
121.293	15.745	969.158	736.967
122.308	15.551	968.678	735.687
123.322	15.538	967.286	734.507
124.337	15.496	966.214	733.448
125.352	15.534	965.186	732.766
126.366	15.501	964.127	731.753
127.381	15.490	963.132	730.887
128.395	15.393	962.490	729.914
129.410	15.564	961.174	729.593
130.424	15.448	960.787	728.729
131.439	15.647	959.584	728.615
132.454	15.673	958.966	728.196
133.468	15.641	958.360	727.533
134.483	15.774	957.424	727.333
135.497	15.836	956.681	726.972
136.512	15.731	956.102	726.012
137.527	15.713	955.118	725.125
138.541	15.698	954.728	724.701
139.556	15.769	953.714	724.174
140.570	15.723	952.822	723.234
141.585	15.856	952.388	723.412
142.600	16.062	951.617	723.644
143.614	16.032	951.452	723.327
144.629	15.946	950.502	722.174
145.643	16.047	949.764	721.979
146.658	16.212	948.495	721.655
147.673	15.985	947.714	720.029
148.687	15.954	946.660	719.031
149.702	15.813	945.894	717.787
150.716	15.791	945.407	717.260
151.731	15.840	943.804	716.188
152.746	15.894	943.690	716.269
153.760	15.744	943.159	715.165
154.775	15.838	942.311	714.856
155.789	15.794	941.895	714.291
156.804	15.984	940.745	714.159
157.819	16.132	940.056	714.201
158.833	16.154	939.318	713.671
159.848	16.116	939.119	713.295
160.862	16.107	938.515	712.734
161.877	16.252	937.340	712.392
162.892	15.924	936.762	710.507
163.906	15.853	936.048	709.602
164.921	15.802	934.674	708.283
165.935	15.943	933.437	707.875
166.950	15.792	933.092	706.917
167.964	15.967	931.717	706.548
168.979	15.959	931.255	706.102
169.994	15.979	930.140	705.279
171.008	15.901	929.279	704.236
172.023	15.994	928.611	704.055
173.037	16.072	927.913	703.789
174.052	16.131	927.298	703.507
175.067	16.062	926.596	702.625
176.081	16.116	925.505	701.958
177.096	15.917	924.312	700.165
178.110	15.952	923.757	699.827
179.125	15.987	923.087	699.404
180.140	15.984	922.136	698.612
181.154	16.061	921.294	698.231
182.169	16.074	921.124	698.094
183.183	16.179	920.588	698.058
184.198	16.331	919.542	697.830
185.213	16.202	919.219	696.993
186.227	16.205	918.700	696.548
187.242	16.118	918.327	695.848
188.256	16.347	917.354	695.990
189.271	16.439	916.984	696.028
190.286	16.381	916.450	695.322
191.300	16.347	915.063	694.068
192.315	16.055	914.003	692.003
193.329	15.875	913.358	690.718
194.344	15.868	912.812	690.215
195.359	16.000	912.269	690.282
196.373	16.226	911.872	690.846
197.388	16.281	911.164	690.473
198.402	16.440	911.060	690.983
199.417	16.547	910.704	691.090
200.432	16.519	910.426	690.702
201.446	16.556	909.998	690.468
202.461	16.664	909.438	690.426
203.475	16.598	908.908	689.691
204.490	16.736	908.219	689.668
205.504	16.597	906.944	688.075
206.519	16.439	906.748	687.223
207.534	16.502	905.800	686.700
208.548	16.426	905.093	685.794
209.563	16.503	904.424	685.541
210.577	16.454	903.614	684.665
211.592	16.400	903.346	684.184
212.607	16.715	902.262	684.574
213.621	16.805	902.065	684.728
214.636	16.740	901.607	684.059
215.650	16.709	900.820	683.277
216.665	16.623	900.208	682.404
217.680	16.702	899.946	682.463
218.694	16.747	899.382	682.157
219.709	16.735	898.733	681.557
220.723	16.812	897.978	681.234
221.738	16.851	897.484	680.955
222.753	16.732	896.663	679.795
223.767	16.735	895.879	679.152
224.782	16.874	895.031	679.007
225.796	16.930	894.614	678.852
226.811	17.136	893.601	678.849
227.826	16.990	893.077	677.807
228.840	16.866	892.349	676.699
229.855	16.718	891.882	675.694
230.869	16.812	891.250	675.531
231.884	16.772	890.627	674.840
232.899	16.757	889.851	674.131
233.913	16.838	889.109	673.831
234.928	16.755	888.051	672.643
235.942	16.648	887.646	671.850
236.957	16.643	886.917	671.219
237.972	16.698	886.138	670.790
238.986	16.587	885.556	669.849
240.001	16.724	884.619	669.624
241.015	16.754	884.145	669.321
242.030	16.799	883.485	668.943
243.045	16.769	882.944	668.353
244.059	16.832	882.388	668.122
245.074	16.932	881.721	667.953
246.088	16.876	881.657	667.624
247.103	16.944	880.858	667.229
248.117	17.015	880.290	667.017
249.132	17.117	880.016	667.153
250.147	17.225	879.443	667.084
251.161	17.366	878.827	667.109
252.176	17.615	877.849	667.283
253.190	17.609	877.459	666.903
254.205	17.495	876.885	665.962
255.220	17.634	876.474	666.137
256.234	17.565	875.829	665.317
257.249	17.619	874.674	664.590
258.263	17.529	874.489	664.041
259.278	17.484	874.154	663.552
260.293	17.490	873.938	663.352
261.307	17.601	872.658	662.755
262.322	17.621	872.311	662.509
263.336	17.724	871.549	662.272
264.351	17.688	871.510	662.046
265.366	17.641	870.603	661.115
266.380	17.704	869.986	660.832
267.395	17.761	869.216	660.411
268.409	17.799	868.315	659.815
269.424	17.682	867.550	658.723
270.439	17.651	867.225	658.295
271.453	17.510	866.522	657.162
272.468	17.565	865.686	656.682
273.482	17.449	865.262	655.853
274.497	17.608	864.634	655.933
275.512	17.518	863.580	654.729
276.526	17.511	863.214	654.367
277.541	17.596	862.363	653.990
278.555	17.576	862.254	653.773
279.570	17.773	861.137	653.624
280.585	17.678	861.052	653.136
281.599	17.869	860.445	653.347
282.614	17.670	859.853	652.080
283.628	17.697	859.241	651.663
284.643	17.614	858.897	651.026
285.657	17.714	857.969	650.646
286.672	17.773	857.766	650.662
287.687	17.759	856.874	649.871
288.701	17.846	856.310	649.718
289.716	17.815	855.972	649.288
290.730	17.894	855.155	648.909
291.745	17.849	854.654	648.301
292.760	17.951	853.846	648.017
293.774	17.928	853.228	647.407
294.789	17.995	852.721	647.219
295.803	18.075	852.173	647.046
296.818	17.897	851.572	645.860
297.833	17.838	850.651	644.883
298.847	17.911	849.992	644.600
299.862	17.995	849.511	644.495
300.876	17.820	848.786	643.230
301.891	18.008	848.284	643.499
302.906	18.136	847.513	643.339
303.920	18.074	847.084	642.722
304.935	18.183	846.556	642.676
305.949	18.249	845.982	642.431
306.964	18.192	845.460	641.764
307.979	18.173	844.680	641.042
308.993	18.076	844.499	640.488
310.008	18.272	843.737	640.584
311.022	18.232	843.225	639.991
312.037	18.374	842.638	640.017
313.052	18.245	842.112	639.082
314.066	17.935	841.731	637.577
315.081	18.028	840.813	637.174
316.095	18.123	840.185	636.994
317.110	18.036	839.717	636.260
318.125	17.954	839.438	635.686
319.139	18.014	838.789	635.363
320.154	18.044	838.414	635.132
321.168	18.149	837.851	635.041
322.183	18.162	837.119	634.479
323.197	18.164	836.653	634.076
324.212	18.072	836.431	633.511
325.227	18.296	835.588	633.646
326.241	18.199	835.297	633.008
327.256	18.074	834.740	632.068
328.270	18.135	834.169	631.805
329.285	18.104	833.778	631.341
330.300	18.144	832.977	630.823
331.314	18.100	832.319	630.108
332.329	18.157	831.551	629.680
333.343	18.396	830.980	630.073
334.358	18.304	830.707	629.470
335.373	18.394	829.949	629.172
336.387	18.403	829.498	628.806
337.402	18.319	829.440	628.400
338.416	18.455	828.559	628.175
339.431	18.587	828.269	628.385
340.446	18.499	828.033	627.825
341.460	18.660	827.080	627.635
342.475	18.621	826.590	627.066
343.489	18.773	826.091	627.189
344.504	18.891	825.386	627.028
345.519	18.843	825.006	626.509
346.533	18.882	824.227	626.003
347.548	19.037	823.887	626.253
348.562	18.788	823.223	624.788
349.577	18.635	822.712	623.790
350.592	18.494	822.312	622.919
351.606	18.501	821.593	622.345
352.621	18.487	821.231	621.963
353.635	18.542	820.810	621.791
354.650	18.613	820.352	621.644
355.665	18.563	819.990	621.135
356.679	18.617	819.768	621.106
357.694	18.852	818.603	621.020
358.708	18.867	818.353	620.830
359.723	18.729	817.684	619.767
360.738	18.720	817.214	619.324
361.752	18.784	816.554	619.000
362.767	18.872	816.295	619.067
363.781	18.733	816.247	618.474
364.796	18.834	816.006	618.601
365.810	18.995	815.371	618.643
366.825	19.170	815.036	618.965
367.840	19.069	815.019	618.534
368.854	19.020	814.386	617.823
369.869	18.986	813.337	616.849
370.883	19.015	813.053	616.681
371.898	18.978	812.335	615.952
372.913	19.139	812.064	616.269
373.927	19.115	811.475	615.680
374.942	19.081	810.681	614.902
375.956	19.242	809.714	614.688
376.971	19.200	809.455	614.286
377.986	19.373	808.839	614.381
379.000	19.421	808.617	614.331
380.015	19.292	808.209	613.508
381.029	19.464	807.328	613.394
382.044	19.294	807.114	612.573
383.059	19.397	806.319	612.283
384.073	19.239	806.000	611.424
385.088	19.428	804.872	611.184
386.102	19.279	804.408	610.252
387.117	19.177	803.935	609.479
388.132	19.143	803.674	609.106
389.146	19.070	803.215	608.446
390.161	19.253	802.972	608.854
391.175	19.202	802.561	608.309
392.190	19.194	802.429	608.128
393.205	19.318	801.538	607.835
394.219	19.235	801.021	607.096
395.234	19.303	800.690	607.032
396.248	19.220	799.939	606.117
397.263	19.190	799.206	605.403
398.278	19.022	799.194	604.747
399.292	19.072	798.812	604.583
400.307	18.986	798.248	603.798
401.321	19.185	797.744	604.063
402.336	19.174	797.403	603.712
403.350	19.197	797.057	603.477
404.365	19.148	797.150	603.324
405.380	19.286	796.501	603.262
406.394	19.362	796.189	603.237
407.409	19.477	795.531	603.089
408.423	19.599	795.067	603.110
409.438	19.728	794.407	603.003
410.453	19.804	793.907	602.838
411.467	19.740	793.512	602.260
412.482	19.800	792.896	601.949
413.496	19.731	792.503	601.358
414.511	19.889	792.408	601.781
415.526	19.832	792.166	601.346
416.540	19.617	792.020	600.435
417.555	19.744	791.119	600.139
418.569	19.812	790.689	599.995
419.584	19.787	790.228	599.505
420.599	19.925	789.930	599.704
421.613	158.873	1369.942	1792.708
422.628	137.525	1454.454	1792.827
