DTS Sentinel unit serial number:	SN413079Multiplexer serial number:	ORYXHardware model number:	OX4-SRSoftware version number:	ORYX F/W v4.00 Oryx Data Collector v3.7.2.0data status	okinstallation	princeton_trtdifferential loss correction	single-endedforward channel	channel 3reverse channel	N/Adate	2019/09/18time	21:20:35forward acquisition time	60.00reverse acquisition time	0.00gamma	496.2192k internal	0.2345k external	0.2345temperature offset calibration	0.9997default loss term (dB/km)	0.3790temperature slope calibration	1.0000multiplexer offset coefficient	1.0000multiplexer slope coefficient	1.0000fibre end	0.00T internal ref (°C)	25.62T ext. ref 1 (°C)	0.84T ext. ref 2 (°C)	18.12length (m)	temperature (°C)	Stokes	anti-Stokes-747.200	224.152	-0.198	0.321
-746.185	800.000	0.079	-0.224
-745.171	179.594	0.122	0.178
-744.156	-200.000	0.067	-0.344
-743.142	-39.256	0.275	0.145
-742.127	15.284	-0.136	0.107
-741.112	36.131	-0.132	-0.116
-740.098	188.863	0.132	0.198
-739.083	800.000	0.070	0.199
-738.069	177.828	0.054	0.079
-737.054	56.729	-0.252	-0.245
-736.039	-75.700	0.167	0.059
-735.025	-9.199	0.284	-0.190
-734.010	209.014	0.143	-0.224
-732.996	349.677	-0.151	-0.298
-731.981	-122.001	-0.455	0.075
-730.966	348.017	0.083	-0.163
-729.952	-137.022	-0.074	0.008
-728.937	-200.000	0.003	0.324
-727.923	-200.000	-0.005	-0.193
-726.908	-16.495	-0.247	0.157
-725.894	-200.000	0.028	-0.590
-724.879	-22.968	-0.213	-0.128
-723.864	-155.417	-0.325	-0.021
-722.850	522.631	0.071	-0.167
-721.835	-165.087	-0.418	-0.019
-720.821	-124.596	-0.222	0.034
-719.806	732.855	0.085	0.227
-718.791	178.103	0.116	0.169
-717.777	-72.819	0.121	-0.044
-716.762	-77.300	0.062	-0.021
-715.748	800.000	0.121	0.429
-714.733	-85.538	-0.266	-0.083
-713.718	-146.906	-0.235	-0.020
-712.704	-19.403	-0.044	0.027
-711.689	498.359	0.083	-0.191
-710.675	-21.109	-0.299	-0.183
-709.660	-200.000	-0.010	0.300
-708.645	-200.000	0.011	-0.065
-707.631	329.887	0.010	0.019
-706.616	70.876	-0.383	-0.396
-705.602	-200.000	0.002	-0.198
-704.587	-131.785	-0.109	-0.014
-703.572	-51.094	-0.406	0.190
-702.558	170.066	-0.129	-0.185
-701.543	-76.373	0.281	0.099
-700.529	-200.000	0.071	0.310
-699.514	-200.000	-0.017	0.203
-698.499	-110.065	0.392	-0.082
-697.485	-148.895	-0.191	-0.015
-696.470	-200.000	0.027	-0.490
-695.456	-66.313	0.218	0.087
-694.441	800.000	-0.190	0.648
-693.426	20.304	0.090	0.073
-692.412	-0.045	0.174	-0.124
-691.397	124.326	-0.134	0.168
-690.383	-40.233	0.112	-0.058
-689.368	319.337	0.116	0.220
-688.354	65.819	-0.092	0.093
-687.339	-46.493	-0.364	0.179
-686.324	-108.705	0.267	0.057
-685.310	65.289	-0.239	0.241
-684.295	-200.000	-0.005	0.133
-683.281	-36.095	-0.106	-0.057
-682.266	132.994	0.089	-0.115
-681.251	800.000	0.084	0.263
-680.237	800.000	0.063	-0.190
-679.222	-200.000	0.029	-0.216
-678.208	-73.659	-0.167	-0.061
-677.193	104.648	-0.124	0.145
-676.178	18.267	-0.177	-0.141
-675.164	65.670	0.150	0.152
-674.149	-31.363	0.209	0.117
-673.135	138.572	0.156	0.204
-672.120	800.000	-0.068	0.275
-671.105	800.000	-0.063	-0.219
-670.091	-74.456	-0.416	0.150
-669.076	-22.661	-0.047	0.028
-668.062	-200.000	-0.027	0.252
-667.047	80.693	0.056	-0.061
-666.032	-12.171	-0.227	0.148
-665.018	-194.269	-0.462	0.004
-664.003	-140.576	-0.205	-0.021
-662.989	167.218	-0.121	0.172
-661.974	246.576	0.168	-0.283
-660.959	-200.000	-0.003	-0.135
-659.945	-54.217	0.330	0.150
-658.930	90.429	0.092	-0.102
-657.916	-26.344	0.204	0.120
-656.901	-146.859	0.195	-0.017
-655.886	1.034	-0.120	0.086
-654.872	123.370	-0.071	0.089
-653.857	-200.000	0.044	0.381
-652.843	-32.263	0.214	0.119
-651.828	-79.350	-0.280	-0.095
-650.814	-135.145	0.242	0.029
-649.799	800.000	-0.039	-0.135
-648.784	800.000	0.044	0.128
-647.770	142.769	0.184	-0.243
-646.755	-34.731	-0.094	0.051
-645.741	78.711	0.293	0.313
-644.726	-182.271	-0.198	-0.004
-643.711	800.000	-0.010	-0.042
-642.697	80.404	-0.159	0.171
-641.682	-151.448	-0.074	0.005
-640.668	26.350	0.175	0.146
-639.653	-11.626	-0.263	0.172
-638.638	-200.000	0.065	0.316
-637.624	800.000	0.048	0.168
-636.609	235.933	-0.156	-0.258
-635.595	800.000	-0.082	-0.227
-634.580	364.497	-0.113	0.226
-633.565	-11.365	0.196	-0.129
-632.551	357.563	-0.116	-0.231
-631.536	-173.117	-0.111	0.003
-630.522	-20.983	-0.434	0.265
-629.507	181.422	0.076	-0.111
-628.492	-140.997	0.095	0.010
-627.478	-200.000	-0.041	0.478
-626.463	-155.220	0.334	0.022
-625.449	-120.805	-0.223	0.037
-624.434	-200.000	-0.033	0.161
-623.419	-200.000	-0.020	-0.122
-622.405	154.654	-0.101	0.138
-621.390	-200.000	-0.012	0.314
-620.376	-165.378	0.387	-0.017
-619.361	800.000	0.018	0.069
-618.346	-4.138	-0.015	0.010
-617.332	33.845	-0.186	-0.161
-616.317	166.742	0.028	0.040
-615.303	214.159	-0.279	0.440
-614.288	95.159	0.211	-0.240
-613.273	-200.000	0.042	-0.309
-612.259	311.853	-0.158	-0.295
-611.244	-200.000	0.076	-0.418
-610.230	369.351	0.094	-0.190
-609.215	13.352	0.226	-0.174
-608.201	-200.000	-0.010	-0.147
-607.186	-14.982	0.262	0.167
-606.171	655.328	-0.085	0.218
-605.157	800.000	0.049	-0.156
-604.142	-200.000	-0.062	0.272
-603.128	298.714	0.170	0.311
-602.113	-200.000	-0.022	-0.283
-601.098	226.546	0.087	0.140
-600.084	-135.588	-0.243	-0.029
-599.069	-200.000	0.005	-0.145
-598.055	-61.596	-0.254	-0.106
-597.040	-77.023	0.277	-0.096
-596.025	-200.000	0.024	-0.331
-595.011	765.996	0.084	0.228
-593.996	-83.790	-0.359	0.114
-592.982	-200.000	0.041	-0.252
-591.967	698.215	-0.066	-0.172
-590.952	-29.127	0.254	-0.145
-589.938	-141.745	0.102	-0.010
-588.923	-28.559	0.310	-0.177
-587.909	-136.611	-0.075	0.009
-586.894	800.000	-0.064	-0.201
-585.879	190.144	0.205	0.305
-584.865	436.287	-0.070	-0.151
-583.850	800.000	0.137	-0.389
-582.836	-94.167	0.304	0.083
-581.821	-200.000	-0.012	0.143
-580.806	-48.202	-0.425	-0.204
-579.792	-145.570	0.318	-0.028
-578.777	-174.655	0.269	-0.008
-577.763	-48.428	0.208	-0.100
-576.748	-197.645	-0.173	-0.001
-575.733	-90.512	-0.032	-0.009
-574.719	123.711	-0.011	-0.014
-573.704	-200.000	-0.004	-0.222
-572.690	52.003	-0.232	-0.220
-571.675	-113.480	0.162	-0.032
-570.661	-17.570	0.268	0.167
-569.646	218.950	-0.102	-0.162
-568.631	-200.000	-0.046	-0.369
-567.617	-96.451	-0.141	0.037
-566.602	-101.450	-0.512	0.124
-565.588	357.248	0.199	-0.394
-564.573	242.629	-0.086	0.144
-563.558	-61.714	0.187	0.078
-562.544	-118.879	0.201	0.035
-561.529	-123.311	0.137	0.022
-560.515	257.520	0.035	-0.059
-559.500	-200.000	0.006	-0.200
-558.485	-77.368	0.196	-0.068
-557.471	-129.627	-0.142	-0.019
-556.456	-200.000	-0.004	-0.122
-555.442	-36.261	0.022	-0.012
-554.427	-125.865	0.170	0.026
-553.412	-101.452	-0.303	-0.073
-552.398	-60.081	-0.124	-0.053
-551.383	800.000	0.111	0.353
-550.369	-52.260	0.085	0.039
-549.354	53.673	0.186	-0.177
-548.339	-16.078	0.124	0.078
-547.325	-7.634	0.055	0.037
-546.310	433.125	-0.105	-0.226
-545.296	-119.242	0.434	0.075
-544.281	-22.327	-0.151	-0.091
-543.266	73.199	0.066	0.068
-542.252	123.997	0.184	0.229
-541.237	116.296	-0.096	0.117
-540.223	13.301	-0.112	-0.086
-539.208	126.885	-0.062	-0.077
-538.193	800.000	0.121	-0.423
-537.179	800.000	0.074	0.313
-536.164	-14.787	-0.250	0.159
-535.150	122.120	-0.268	0.333
-534.135	-170.130	-0.379	0.013
-533.121	214.430	0.020	-0.031
-532.106	-200.000	0.018	-0.312
-531.091	-51.833	-0.221	-0.102
-530.077	-200.000	-0.060	0.273
-529.062	10.073	0.104	0.078
-528.048	-118.502	0.456	0.080
-527.033	-101.161	0.187	0.045
-526.018	26.361	-0.180	0.149
-525.004	-112.993	0.133	0.026
-523.989	-200.000	-0.056	-0.327
-522.975	-81.100	0.480	0.157
-521.960	-136.388	0.269	0.031
-520.945	-159.601	-0.163	0.009
-519.931	-200.000	0.026	0.235
-518.916	22.489	-0.164	0.133
-517.902	-200.000	0.015	0.113
-516.887	72.663	0.025	0.026
-515.872	800.000	-0.062	-0.196
-514.858	206.065	-0.096	0.148
-513.843	248.293	-0.020	0.034
-512.829	-200.000	0.006	-0.058
-511.814	800.000	0.132	0.404
-510.799	-124.474	-0.142	0.022
-509.785	77.669	0.150	0.158
-508.770	-200.000	-0.093	0.526
-507.756	288.183	-0.113	-0.202
-506.741	-127.749	0.269	-0.038
-505.726	-78.807	0.128	0.043
-504.712	800.000	-0.133	-0.407
-503.697	-51.225	-0.362	-0.168
-502.683	-43.294	-0.286	0.143
-501.668	-107.425	-0.117	0.026
-500.653	-98.551	-0.110	-0.028
-499.639	380.061	-0.199	-0.404
-498.624	-200.000	-0.150	-0.000
-497.610	1.125	-0.095	0.068
-496.595	-199.317	-0.222	-0.001
-495.581	-200.000	0.019	0.099
-494.566	-131.774	0.294	0.038
-493.551	-40.192	-0.288	-0.149
-492.537	-40.699	-0.224	0.115
-491.522	-14.277	0.141	0.090
-490.508	23.531	0.218	0.178
-489.493	-200.000	-0.015	0.077
-488.478	-125.437	-0.135	-0.020
-487.464	-148.146	-0.060	0.005
-486.449	800.000	0.079	0.231
-485.435	118.165	0.130	0.159
-484.420	-200.000	-0.006	-0.082
-483.405	16.287	-0.197	0.154
-482.391	800.000	-0.023	-0.066
-481.376	52.083	0.157	-0.148
-480.362	-52.944	-0.163	-0.074
-479.347	44.188	-0.111	-0.101
-478.332	-88.418	-0.292	-0.086
-477.318	-52.583	-0.233	0.107
-476.303	29.628	0.374	0.315
-475.289	-200.000	-0.026	-0.124
-474.274	-200.000	-0.008	-0.035
-473.259	-65.075	0.385	-0.154
-472.245	1.103	-0.095	0.068
-471.230	-200.000	-0.071	-0.382
-470.216	90.464	-0.089	-0.099
-469.201	-200.000	-0.014	-0.075
-468.186	-200.000	-0.022	0.117
-467.172	44.218	-0.108	0.098
-466.157	669.542	-0.077	0.198
-465.143	98.751	0.221	0.252
-464.128	338.421	0.116	-0.224
-463.113	-200.000	-0.007	-0.405
-462.099	748.527	-0.094	0.250
-461.084	327.112	0.023	0.044
-460.070	88.139	0.171	-0.187
-459.055	264.058	0.146	0.252
-458.040	148.766	-0.089	-0.120
-457.026	-19.378	-0.412	0.253
-456.011	-200.000	-0.025	-0.431
-454.997	-200.000	0.001	-0.067
-453.982	43.937	0.194	0.176
-452.968	103.714	0.301	0.349
-451.953	-47.397	-0.281	-0.135
-450.938	-172.154	0.276	-0.009
-449.924	-130.326	0.349	0.047
-448.909	103.303	-0.079	-0.091
-447.895	800.000	-0.072	0.217
-446.880	-18.138	-0.348	-0.216
-445.865	159.184	0.087	-0.120
-444.851	-152.725	0.177	0.012
-443.836	-200.000	0.055	-0.453
-442.822	1.118	0.133	-0.094
-441.807	376.541	0.090	-0.182
-440.792	-200.000	0.038	-0.476
-439.778	-103.795	-0.147	0.034
-438.763	135.407	0.099	0.127
-437.749	81.697	0.192	-0.206
-436.734	-200.000	0.056	-0.293
-435.719	455.048	0.088	-0.193
-434.705	-200.000	0.061	0.290
-433.690	-66.368	0.079	0.031
-432.676	-200.000	0.013	0.102
-431.661	-109.422	0.100	0.021
-430.646	75.707	-0.247	-0.258
-429.632	116.841	-0.220	0.266
-428.617	776.535	-0.186	0.502
-427.603	435.873	-0.170	0.366
-426.588	-200.000	-0.015	0.099
-425.573	-200.000	-0.035	-0.180
-424.559	-200.000	-0.073	0.336
-423.544	211.828	0.033	0.051
-422.530	800.000	-0.031	0.097
-421.515	-200.000	-0.033	-0.335
-420.500	800.000	0.075	0.235
-419.486	-43.525	0.095	-0.047
-418.471	434.210	-0.100	0.216
-417.457	4.751	-0.059	0.043
-416.442	216.233	0.118	-0.185
-415.428	800.000	-0.041	-0.161
-414.413	-47.123	-0.184	-0.089
-413.398	98.708	-0.258	0.294
-412.384	-200.000	-0.002	-0.049
-411.369	-200.000	-0.001	0.039
-410.355	79.802	0.201	-0.214
-409.340	-164.698	-0.474	0.021
-408.325	-162.755	-0.116	0.006
-407.311	729.232	0.029	0.077
-406.296	242.492	-0.109	0.180
-405.282	71.912	0.310	-0.319
-404.267	312.908	0.154	-0.286
-403.252	-20.857	0.143	0.087
-402.238	-172.537	-0.205	-0.006
-401.223	800.000	0.058	0.174
-400.209	-121.171	-0.326	0.054
-399.194	283.047	-0.137	-0.243
-398.179	800.000	-0.035	0.139
-397.165	-183.934	0.082	0.001
-396.150	-79.625	-0.240	0.080
-395.136	-68.349	0.408	0.157
-394.121	-148.488	-0.315	-0.025
-393.106	-169.817	-0.143	0.005
-392.092	-62.626	0.323	0.132
-391.077	800.000	-0.041	-0.150
-390.063	-89.128	-0.183	-0.053
-389.048	557.826	-0.101	-0.241
-388.033	800.000	-0.125	-0.383
-387.019	-200.000	-0.036	-0.251
-386.004	109.989	0.172	0.204
-384.990	-200.000	0.010	0.059
-383.975	800.000	0.081	0.333
-382.960	-84.784	-0.159	-0.049
-381.946	219.689	0.065	0.102
-380.931	276.300	0.178	0.312
-379.917	-107.681	-0.148	-0.032
-378.902	62.388	-0.144	0.142
-377.888	-92.871	0.148	-0.041
-376.873	800.000	-0.034	0.096
-375.858	-109.564	0.268	-0.056
-374.844	131.299	-0.165	0.210
-373.829	-78.720	-0.220	-0.074
-372.815	-200.000	-0.078	0.364
-371.800	-58.607	0.194	0.083
-370.785	59.093	-0.168	0.163
-369.771	114.580	0.061	0.074
-368.756	-18.169	-0.191	-0.118
-367.742	-171.121	0.072	-0.002
-366.727	-200.000	-0.046	0.251
-365.712	-200.000	-0.002	-0.008
-364.698	800.000	-0.035	-0.116
-363.683	40.544	-0.173	-0.154
-362.669	-200.000	-0.028	0.137
-361.654	-95.194	0.255	-0.068
-360.639	589.599	-0.163	-0.397
-359.625	-55.209	-0.135	0.060
-358.610	69.532	0.035	-0.036
-357.596	437.933	-0.078	-0.167
-356.581	446.287	0.035	-0.076
-355.566	800.000	-0.039	0.124
-354.552	-150.769	-0.180	-0.013
-353.537	-200.000	0.020	0.183
-352.523	174.775	0.156	-0.222
-351.508	-200.000	-0.032	0.178
-350.493	-129.438	-0.224	0.031
-349.479	509.585	0.179	-0.409
-348.464	-56.461	0.346	-0.151
-347.450	-200.000	0.041	0.253
-346.435	-200.000	0.055	0.336
-345.420	-200.000	0.054	-0.272
-344.406	15.120	0.097	0.075
-343.391	15.993	-0.220	0.171
-342.377	-139.270	-0.164	-0.017
-341.362	-200.000	0.021	0.176
-340.348	-200.000	-0.012	-0.449
-339.333	332.687	-0.151	0.287
-338.318	-33.491	-0.117	0.064
-337.304	-79.437	-0.124	0.041
-336.289	-9.400	0.307	0.202
-335.275	-11.769	-0.014	-0.009
-334.260	193.429	-0.262	0.391
-333.245	284.054	-0.087	0.154
-332.231	-200.000	0.023	-0.329
-331.216	24.387	-0.134	0.109
-330.202	46.852	0.217	0.198
-329.187	-14.808	0.210	0.133
-328.172	129.547	0.135	-0.170
-327.158	355.356	-0.089	0.175
-326.143	-59.530	-0.045	-0.019
-325.129	-84.254	0.297	0.093
-324.114	87.102	-0.263	0.286
-323.099	-100.467	-0.122	0.030
-322.085	-45.606	0.189	0.092
-321.070	800.000	-0.027	-0.073
-320.056	146.318	0.232	0.307
-319.041	72.157	0.243	0.249
-318.026	66.414	-0.298	-0.298
-317.012	-124.753	0.260	0.040
-315.997	-200.000	0.449	-0.002
-314.983	1.073	-0.098	0.069
-313.968	-200.000	-0.023	-0.307
-312.953	77.888	0.187	0.196
-311.939	96.599	0.349	0.393
-310.924	-21.558	0.021	-0.013
-309.910	-75.423	-0.474	-0.166
-308.895	138.442	0.195	0.251
-307.880	-200.000	0.018	0.205
-306.866	-131.219	0.183	0.024
-305.851	178.351	-0.022	0.032
-304.837	-200.000	0.010	0.207
-303.822	2.678	0.043	-0.030
-302.807	19.129	0.156	-0.123
-301.793	-200.000	0.013	0.350
-300.778	-110.369	0.196	-0.040
-299.764	-110.195	0.169	-0.035
-298.749	-200.000	0.055	-0.237
-297.735	-10.210	-0.110	-0.072
-296.720	468.597	-0.103	0.228
-295.705	165.504	-0.128	0.178
-294.691	-127.449	-0.300	-0.043
-293.676	-200.000	0.005	0.072
-292.662	-27.943	0.267	-0.152
-291.647	-61.547	-0.159	-0.065
-290.632	128.950	0.075	0.094
-289.618	-200.000	-0.002	-0.118
-288.603	193.124	-0.050	0.074
-287.589	40.921	0.098	-0.087
-286.574	50.287	0.045	-0.041
-285.559	218.360	-0.038	0.059
-284.545	-92.634	-0.310	-0.086
-283.530	-112.431	-0.064	-0.013
-282.516	800.000	-0.020	0.056
-281.501	205.496	-0.087	-0.132
-280.486	115.885	-0.083	-0.099
-279.472	-55.948	0.114	0.050
-278.457	142.932	0.093	-0.122
-277.443	-200.000	-0.034	0.190
-276.428	130.992	0.226	0.284
-275.413	274.448	0.031	0.054
-274.399	-200.000	0.016	-0.344
-273.384	-42.161	-0.061	-0.030
-272.370	-34.817	0.084	-0.045
-271.355	-146.540	0.099	0.008
-270.340	-200.000	-0.002	0.115
-269.326	-54.879	-0.059	-0.026
-268.311	-58.428	-0.088	-0.038
-267.297	363.284	0.057	0.113
-266.282	57.422	-0.099	-0.095
-265.267	-94.793	0.361	-0.096
-264.253	-200.000	0.009	-0.250
-263.238	-65.514	0.065	0.026
-262.224	-113.071	-0.145	0.028
-261.209	48.170	-0.318	-0.292
-260.195	-46.587	0.237	-0.114
-259.180	-127.878	0.302	0.043
-258.165	748.821	-0.170	-0.450
-257.151	-10.340	0.146	0.095
-256.136	-66.786	-0.273	-0.106
-255.122	124.663	0.154	-0.191
-254.107	121.756	-0.165	-0.202
-253.092	-9.520	-0.217	-0.142
-252.078	127.551	-0.289	0.360
-251.063	454.532	0.131	-0.286
-250.049	-19.162	-0.091	-0.055
-249.034	6.977	0.331	-0.242
-248.019	-200.000	-0.040	-0.481
-247.005	-56.525	-0.272	0.118
-245.990	800.000	-0.083	0.264
-244.976	267.870	0.147	0.253
-243.961	9.826	-0.280	-0.209
-242.946	349.365	-0.094	-0.182
-241.932	-27.262	-0.240	0.137
-240.917	259.437	0.068	0.115
-239.903	800.000	0.127	0.368
-238.888	705.359	0.060	0.157
-237.873	12.817	0.290	0.220
-236.859	356.573	-0.192	-0.376
-235.844	-178.495	0.078	0.002
-234.830	-152.097	0.212	-0.015
-233.815	-64.510	0.123	0.049
-232.800	-85.269	-0.088	0.027
-231.786	-88.922	-0.149	-0.043
-230.771	-200.000	0.017	0.308
-229.757	-42.321	0.362	0.181
-228.742	-200.000	-0.017	-0.287
-227.727	283.077	-0.036	-0.063
-226.713	-140.976	-0.465	0.047
-225.698	-200.000	-0.033	-0.154
-224.684	-35.740	-0.448	-0.238
-223.669	-200.000	-0.014	-0.086
-222.655	-200.000	0.009	0.197
-221.640	-200.000	0.041	0.189
-220.625	-33.516	0.227	-0.123
-219.611	16.308	-0.175	-0.136
-218.596	304.127	0.042	-0.077
-217.582	46.635	-0.110	0.100
-216.567	116.678	0.283	-0.341
-215.552	-94.724	0.163	-0.043
-214.538	-151.261	-0.104	0.008
-213.523	-73.281	-0.102	0.037
-212.509	-13.504	-0.226	-0.144
-211.494	-92.306	0.170	-0.047
-210.479	-173.700	0.090	-0.003
-209.465	481.226	-0.174	-0.387
-208.450	91.516	0.114	-0.125
-207.436	144.053	-0.197	-0.258
-206.421	800.000	0.040	0.161
-205.406	-30.013	0.047	-0.026
-204.392	-200.000	0.018	-0.119
-203.377	-200.000	0.029	0.125
-202.363	57.136	-0.093	-0.089
-201.348	-68.439	0.269	0.102
-200.333	-74.856	-0.371	0.130
-199.319	-79.338	0.265	0.088
-198.304	-200.000	-0.009	-0.170
-197.290	49.498	-0.193	-0.178
-196.275	587.760	-0.161	-0.388
-195.260	800.000	-0.097	0.308
-194.246	65.027	0.332	0.328
-193.231	-121.310	-0.241	-0.039
-192.217	-74.001	-0.122	0.043
-191.202	742.078	0.070	-0.183
-190.187	-49.576	0.081	0.038
-189.173	-114.461	-0.180	0.034
-188.158	-129.063	0.149	0.020
-187.144	-77.780	-0.200	0.068
-186.129	776.039	0.066	-0.176
-185.114	76.324	0.211	0.218
-184.100	-137.021	0.173	0.019
-183.085	-105.967	0.244	0.054
-182.071	206.933	-0.044	0.067
-181.056	-15.519	0.231	0.144
-180.042	-134.192	0.313	0.038
-179.027	351.745	-0.055	-0.106
-178.012	-148.055	0.212	-0.017
-176.998	-19.239	-0.259	0.158
-175.983	-65.463	0.334	0.131
-174.969	800.000	-0.044	-0.128
-173.954	-121.998	-0.324	-0.052
-172.939	-67.285	0.133	-0.051
-171.925	-35.156	-0.180	0.096
-170.910	57.886	-0.082	0.079
-169.896	-28.077	0.115	0.065
-168.881	-200.000	-0.067	-0.387
-167.866	0.629	-0.163	0.114
-166.852	800.000	-0.175	0.533
-165.837	-93.347	0.093	0.025
-164.823	603.586	-0.051	-0.125
-163.808	6.106	0.088	-0.064
-162.793	-200.000	0.047	0.211
-161.779	-200.000	-0.016	-0.095
-160.764	-56.929	0.187	0.081
-159.750	245.774	0.092	0.151
-158.735	541.142	-0.174	-0.405
-157.720	-200.000	0.074	0.369
-156.706	-155.897	0.377	0.023
-155.691	215.494	0.073	-0.113
-154.677	-200.000	0.014	0.199
-153.662	186.348	-0.221	-0.321
-152.647	-200.000	0.081	-0.478
-151.633	328.051	0.058	0.109
-150.618	-26.565	-0.071	-0.041
-149.604	800.000	0.069	0.204
-148.589	336.984	0.068	-0.129
-147.574	50.301	0.308	-0.285
-146.560	-200.000	0.003	-0.112
-145.545	-200.000	-0.038	0.318
-144.531	-38.472	-0.252	0.130
-143.516	-152.228	-0.091	0.006
-142.502	73.044	0.226	-0.231
-141.487	1.365	0.100	-0.070
-140.472	-200.000	0.014	0.063
-139.458	-26.601	-0.268	-0.154
-138.443	-42.912	0.111	0.055
-137.429	-79.734	0.398	0.131
-136.414	146.532	-0.084	-0.110
-135.399	-14.501	0.079	-0.050
-134.385	-62.557	-0.227	-0.092
-133.370	-109.447	0.288	-0.060
-132.356	-200.000	-0.005	0.076
-131.341	-103.861	0.305	0.070
-130.326	74.744	-0.384	0.394
-129.312	-86.198	-0.195	0.059
-128.297	-143.466	-0.118	0.011
-127.283	-114.701	0.317	0.059
-126.268	-200.000	0.010	0.120
-125.253	-200.000	-0.004	0.219
-124.239	-67.883	-0.047	-0.018
-123.224	800.000	-0.110	0.318
-122.210	114.191	0.217	-0.258
-121.195	-129.352	0.251	-0.034
-120.180	-44.193	-0.363	0.178
-119.166	-81.974	0.268	-0.086
-118.151	-45.728	0.256	0.124
-117.137	-116.365	0.106	-0.019
-116.122	-6.936	-0.111	-0.074
-115.107	4.629	0.384	-0.275
-114.093	422.913	-0.089	0.186
-113.078	171.440	0.127	-0.178
-112.064	172.941	0.036	-0.051
-111.049	-200.000	-0.029	-0.167
-110.034	54.530	0.069	0.065
-109.020	423.949	-0.039	0.081
-108.005	638.715	-0.124	0.307
-106.991	194.337	0.217	0.322
-105.976	-200.000	-0.041	-0.283
-104.962	-17.258	-0.249	-0.153
-103.947	347.460	-0.101	-0.193
-102.932	-59.838	0.484	0.202
-101.918	-200.000	-0.014	-0.165
-100.903	163.900	-0.027	-0.038
-99.889	54.505	0.242	-0.228
-98.874	-120.280	0.139	-0.023
-97.859	-43.499	0.295	-0.146
-96.845	194.543	-0.177	0.262
-95.830	800.000	0.048	0.149
-94.816	61.832	-0.071	0.069
-93.801	199.754	-0.035	0.052
-92.786	142.441	-0.018	-0.023
-91.772	112.841	-0.055	-0.065
-90.757	800.000	0.118	0.345
-89.743	-26.258	0.171	0.098
-88.728	-93.511	-0.100	-0.027
-87.713	-200.000	0.040	-0.200
-86.699	-200.000	0.014	0.133
-85.684	-97.682	0.165	-0.042
-84.670	191.386	-0.065	0.096
-83.655	800.000	0.128	0.499
-82.640	-138.615	0.285	0.030
-81.626	-56.996	-0.198	0.085
-80.611	7.740	-0.203	0.148
-79.597	-200.000	-0.013	-0.149
-78.582	178.736	0.089	-0.126
-77.567	800.000	0.075	-0.266
-76.553	73.505	-0.161	0.164
-75.538	220.865	-0.030	-0.047
-74.524	-91.271	0.221	-0.062
-73.509	-143.802	0.313	0.029
-72.494	-90.253	0.218	0.062
-71.480	321.553	-0.166	-0.307
-70.465	-35.227	0.188	0.100
-69.451	433.888	0.131	0.277
-68.436	274.836	0.118	0.204
-67.422	10.187	0.129	-0.095
-66.407	32.866	-0.363	-0.306
-65.392	800.000	0.020	0.060
-64.378	-200.000	0.026	-0.197
-63.363	75.839	0.136	0.140
-62.349	242.125	0.216	0.352
-61.334	58.459	-1.244	-1.189
-60.319	191.375	0.479	0.702
-59.305	800.000	-0.392	-1.106
-58.290	281.800	0.778	1.358
-57.276	790.280	0.586	1.569
-56.261	-200.000	120.118	626.077
-55.246	411.739	1538.172	3180.842
-54.232	148.724	2685.724	3535.169
-53.217	97.622	2149.077	2405.350
-52.203	35.733	1675.148	1433.848
-51.188	28.806	1493.335	1231.924
-50.173	26.579	1469.506	1197.511
-49.159	47.573	1536.997	1395.813
-48.144	46.016	1551.115	1397.991
-47.130	28.588	1501.507	1237.003
-46.115	25.859	1486.020	1205.958
-45.100	25.735	1482.298	1202.062
-44.086	25.565	1480.794	1199.656
-43.071	25.495	1478.745	1197.486
-42.057	25.575	1477.071	1196.612
-41.042	25.524	1475.891	1195.276
-40.027	25.601	1474.065	1194.258
-39.013	25.515	1473.037	1192.809
-37.998	25.602	1471.609	1192.178
-36.984	25.678	1470.350	1191.617
-35.969	25.650	1469.377	1190.595
-34.954	25.698	1467.679	1189.491
-33.940	25.526	1466.811	1187.600
-32.925	25.666	1465.445	1187.370
-31.911	25.599	1464.393	1186.030
-30.896	25.632	1462.842	1184.946
-29.881	25.593	1461.945	1183.915
-28.867	25.652	1460.040	1182.715
-27.852	25.644	1458.888	1181.681
-26.838	25.702	1457.323	1180.743
-25.823	25.700	1455.647	1179.329
-24.809	25.674	1454.117	1177.871
-23.794	25.644	1453.218	1176.899
-22.779	25.631	1452.087	1175.854
-21.765	25.680	1451.156	1175.370
-20.750	25.681	1449.595	1174.065
-19.736	25.601	1449.038	1173.047
-18.721	25.741	1447.569	1172.722
-17.706	25.730	1446.569	1171.794
-16.692	25.493	1445.977	1169.730
-15.677	25.623	1444.874	1169.639
-14.663	25.714	1443.751	1169.270
-13.648	25.589	1443.088	1167.877
-12.633	25.666	1441.946	1167.407
-11.619	25.606	1441.312	1166.458
-10.604	25.639	1440.253	1165.770
-9.590	25.547	1439.782	1164.743
-8.575	25.666	1438.837	1164.705
-7.560	25.581	1437.915	1163.358
-6.546	25.546	1437.214	1162.520
-5.531	25.579	1436.431	1162.054
-4.517	25.628	1434.886	1161.077
-3.502	25.609	1434.568	1160.651
-2.487	25.619	1433.079	1159.460
-1.473	25.600	1432.161	1158.555
-0.458	25.552	1430.927	1157.201
0.556	24.455	1421.003	1144.188
1.571	20.764	1395.328	1100.138
2.586	16.629	1333.825	1026.524
3.600	14.699	1252.013	952.471
4.615	13.649	1209.077	913.940
5.629	12.063	1154.224	864.048
6.644	6.360	1075.131	776.703
7.659	1.702	1038.933	728.240
8.673	0.964	1033.884	721.124
9.688	0.812	1030.639	718.073
10.702	0.864	1029.176	717.238
11.717	0.721	1027.788	715.530
12.731	2.719	1028.164	725.184
13.746	9.054	1036.799	761.341
14.761	15.143	1044.553	795.985
15.775	17.328	1046.461	807.760
16.790	17.067	1045.258	805.520
17.804	16.112	1043.513	799.579
18.819	15.438	1041.158	794.512
19.834	14.820	1040.318	790.877
20.848	14.511	1039.276	788.553
21.863	14.300	1038.683	787.037
22.877	13.983	1037.852	784.843
23.892	13.871	1036.634	783.322
24.907	13.843	1036.057	782.685
25.921	13.744	1035.454	781.696
26.936	13.868	1034.642	781.596
27.950	13.789	1034.095	780.740
28.965	13.851	1033.391	780.434
29.980	13.837	1032.485	779.613
30.994	14.013	1031.151	779.364
32.009	13.986	1030.694	778.820
33.023	14.071	1029.748	778.437
34.038	14.069	1028.936	777.746
35.053	14.036	1027.939	776.766
36.067	14.099	1027.488	776.651
37.082	14.086	1026.628	775.872
38.096	13.885	1025.976	774.372
39.111	14.054	1025.263	774.554
40.126	13.943	1024.517	773.404
41.140	13.949	1023.501	772.596
42.155	13.822	1022.644	771.295
43.169	13.839	1021.671	770.569
44.184	13.808	1020.607	769.555
45.199	13.809	1019.398	768.579
46.213	13.933	1018.380	768.317
47.228	13.929	1017.761	767.766
48.242	13.950	1016.438	766.798
49.257	13.839	1015.811	765.742
50.271	13.931	1014.378	765.021
51.286	13.904	1013.997	764.542
52.301	14.054	1013.051	764.447
53.315	14.046	1012.416	763.866
54.330	13.996	1011.391	762.796
55.344	13.992	1010.804	762.266
56.359	13.922	1009.692	761.040
57.374	13.896	1008.902	760.260
58.388	13.918	1007.971	759.590
59.403	13.799	1007.587	758.689
60.417	13.860	1006.504	758.087
61.432	13.777	1006.001	757.260
62.447	13.808	1005.002	756.583
63.461	13.853	1004.414	756.279
64.476	13.837	1003.599	755.525
65.490	13.794	1002.794	754.656
66.505	13.893	1001.862	754.340
67.520	13.908	1000.962	753.661
68.534	13.851	1000.265	752.809
69.549	13.794	1000.007	752.293
70.563	13.933	999.224	752.266
71.578	13.762	998.850	751.144
72.593	13.808	997.644	750.379
73.607	13.817	996.616	749.581
74.622	13.786	995.892	748.827
75.636	13.796	994.868	748.039
76.651	13.785	994.172	747.398
77.666	13.778	993.307	746.651
78.680	13.885	992.264	746.282
79.695	13.725	992.420	745.612
80.709	13.926	991.448	745.719
81.724	13.741	991.294	744.708
82.739	13.881	989.799	744.144
83.753	13.933	989.394	744.010
84.768	13.782	989.029	742.993
85.782	13.937	987.781	742.681
86.797	14.020	987.126	742.495
87.812	14.023	986.210	741.752
88.826	14.014	985.181	740.875
89.841	13.903	984.769	740.002
90.855	13.837	984.207	739.224
91.870	14.124	982.717	739.314
92.884	13.983	982.424	738.399
93.899	14.074	981.833	738.296
94.914	14.053	980.588	737.202
95.928	14.208	979.753	737.195
96.943	14.091	979.628	736.519
97.957	14.126	978.476	735.743
98.972	14.014	977.795	734.670
99.987	14.058	977.312	734.436
101.001	14.120	976.359	733.929
102.016	14.125	975.532	733.261
103.030	14.025	974.767	732.181
104.045	14.155	973.489	731.729
105.060	14.083	972.805	730.835
106.074	14.121	971.925	730.274
107.089	14.091	971.181	729.519
108.103	14.129	970.245	728.919
109.118	13.926	969.883	727.693
110.133	14.043	968.764	727.303
111.147	13.992	967.594	726.137
112.162	13.953	967.053	725.495
113.176	13.785	966.789	724.499
114.191	13.997	965.459	724.364
115.206	14.039	964.861	724.035
116.220	14.019	964.065	723.285
117.235	13.973	963.036	722.248
118.249	14.062	962.194	721.938
119.264	14.061	961.446	721.312
120.279	13.990	960.726	720.400
121.293	13.921	960.114	719.578
122.308	13.995	958.790	718.841
123.322	13.936	958.356	718.197
124.337	13.847	957.910	717.414
125.352	14.038	955.942	716.700
126.366	13.988	954.615	715.428
127.381	13.971	953.808	714.688
128.395	13.909	952.887	713.666
129.410	13.972	952.230	713.383
130.424	14.027	951.215	712.795
131.439	14.008	950.220	711.905
132.454	13.959	949.524	711.109
133.468	13.960	948.914	710.596
134.483	14.124	948.309	710.781
135.497	14.000	947.594	709.652
136.512	14.036	946.724	709.091
137.527	13.937	946.002	708.064
138.541	14.001	945.390	707.815
139.556	13.936	944.535	706.838
140.570	14.049	943.660	706.603
141.585	14.006	943.121	705.952
142.600	14.121	942.445	705.872
143.614	14.089	941.584	705.030
144.629	14.127	941.028	704.709
145.643	14.160	940.073	704.073
146.658	14.199	939.129	703.470
147.673	14.195	938.301	702.767
148.687	14.198	937.425	702.065
149.702	14.232	936.348	701.338
150.716	14.243	935.727	700.859
151.731	14.109	935.178	699.822
152.746	14.126	934.199	699.098
153.760	14.119	933.510	698.490
154.775	14.132	932.710	697.884
155.789	14.335	931.577	697.827
156.804	14.197	931.073	696.811
157.819	14.211	930.594	696.448
158.833	14.355	929.832	696.417
159.848	14.277	929.476	695.764
160.862	14.251	928.381	694.775
161.877	14.389	927.358	694.521
162.892	14.307	926.930	693.796
163.906	14.207	926.465	692.974
164.921	14.200	925.611	692.244
165.935	14.312	924.712	691.974
166.950	14.290	923.515	690.927
167.964	14.259	922.915	690.290
168.979	14.184	922.146	689.339
169.994	14.401	920.706	689.103
171.008	14.241	919.995	687.848
172.023	14.404	919.373	687.995
173.037	14.433	918.641	687.506
174.052	14.304	918.011	686.440
175.067	14.373	917.374	686.188
176.081	14.416	916.048	685.313
177.096	14.316	915.577	684.489
178.110	14.378	914.846	684.136
179.125	14.398	914.126	683.618
180.140	14.311	913.540	682.763
181.154	14.402	912.994	682.669
182.169	14.304	912.350	681.725
183.183	14.451	911.563	681.677
184.198	14.487	910.679	681.103
185.213	14.490	910.296	680.769
186.227	14.578	909.675	680.603
187.242	14.608	909.143	680.267
188.256	14.598	908.689	679.828
189.271	14.806	907.570	679.777
190.286	14.717	906.654	678.669
191.300	14.586	905.774	677.418
192.315	14.537	905.417	676.893
193.329	14.393	905.174	676.064
194.344	14.408	904.192	675.334
195.359	14.577	903.549	675.477
196.373	14.533	903.153	674.944
197.388	14.573	902.679	674.693
198.402	14.602	902.302	674.469
199.417	14.637	902.134	674.425
200.432	14.659	901.420	673.917
201.446	14.782	900.857	673.936
202.461	14.771	900.092	673.257
203.475	14.809	899.912	673.217
204.490	15.037	898.984	673.379
205.504	14.913	898.252	672.274
206.519	14.852	897.561	671.452
207.534	14.816	896.927	670.774
208.548	14.871	895.551	669.905
209.563	14.831	895.333	669.525
210.577	14.829	895.046	669.244
211.592	14.834	894.237	668.596
212.607	15.003	893.195	668.433
213.621	15.014	892.636	668.000
214.636	15.017	892.103	667.555
215.650	14.908	891.573	666.665
216.665	14.910	890.945	666.144
217.680	14.956	890.467	665.910
218.694	15.051	889.534	665.533
219.709	14.874	889.507	664.751
220.723	14.991	888.833	664.653
221.738	15.123	887.891	664.413
222.753	15.080	887.097	663.588
223.767	15.030	886.541	662.918
224.782	15.106	885.772	662.582
225.796	15.385	884.523	662.693
226.811	15.216	884.162	661.696
227.826	15.102	883.815	660.929
228.840	15.126	882.821	660.220
229.855	15.268	882.081	660.168
230.869	15.322	881.577	659.944
231.884	15.299	881.009	659.373
232.899	15.199	880.451	658.501
233.913	15.111	879.762	657.584
234.928	15.175	879.177	657.338
235.942	15.105	878.282	656.336
236.957	15.172	877.776	656.163
237.972	15.171	877.174	655.653
238.986	15.229	876.511	655.325
240.001	15.241	875.727	654.729
241.015	15.239	875.119	654.209
242.030	15.120	874.880	653.507
243.045	15.392	873.507	653.484
244.059	15.246	873.347	652.737
245.074	15.255	872.743	652.263
246.088	15.342	872.230	652.161
247.103	15.392	871.541	651.779
248.117	15.323	871.244	651.235
249.132	15.201	870.854	650.410
250.147	15.447	869.632	650.392
251.161	15.445	869.057	649.898
252.176	15.550	868.324	649.697
253.190	15.526	867.500	648.931
254.205	15.731	866.726	649.088
255.220	15.585	866.833	648.545
256.234	15.579	865.989	647.833
257.249	15.765	865.166	647.875
258.263	15.635	864.795	647.040
259.278	15.808	863.681	646.815
260.293	15.738	863.806	646.585
261.307	15.672	863.143	645.776
262.322	15.743	862.865	645.786
263.336	15.904	861.860	645.590
264.351	15.829	861.306	644.833
265.366	15.908	860.532	644.498
266.380	15.983	860.115	644.417
267.395	15.865	859.312	643.305
268.409	15.781	858.759	642.516
269.424	15.836	857.744	641.908
270.439	16.027	856.840	641.904
271.453	15.909	856.804	641.368
272.468	15.878	855.964	640.565
273.482	15.854	855.451	640.033
274.497	15.974	854.615	639.807
275.512	15.840	854.493	639.152
276.526	15.810	853.429	638.185
277.541	15.989	852.496	638.110
278.555	15.921	852.256	637.615
279.570	15.889	851.517	636.886
280.585	16.057	851.258	637.269
281.599	16.117	850.177	636.630
282.614	15.941	849.578	635.461
283.628	16.150	849.483	636.123
284.643	16.119	849.063	635.636
285.657	16.141	848.630	635.338
286.672	16.121	847.769	634.562
287.687	16.047	847.524	634.044
288.701	16.184	846.944	634.068
289.716	16.185	845.981	633.295
290.730	16.118	845.765	632.824
291.745	16.146	845.228	632.474
292.760	16.227	844.195	631.947
293.774	16.259	843.859	631.758
294.789	16.284	843.164	631.277
295.803	16.234	842.618	630.626
296.818	16.170	842.129	629.965
297.833	16.207	841.343	629.459
298.847	16.419	840.736	629.741
299.862	16.274	840.192	628.737
300.876	16.404	839.205	628.424
301.891	16.347	838.796	627.851
302.906	16.423	838.207	627.639
303.920	16.364	837.648	626.945
304.935	16.436	836.877	626.581
305.949	16.530	836.315	626.452
306.964	16.558	835.524	625.909
307.979	16.545	834.763	625.235
308.993	16.548	834.462	624.965
310.008	16.640	833.818	624.764
311.022	16.687	833.417	624.582
312.037	16.537	833.328	623.907
313.052	16.559	832.596	623.386
314.066	16.625	831.776	622.961
315.081	16.545	831.169	622.154
316.095	16.648	830.827	622.224
317.110	16.575	830.346	621.540
318.125	16.667	829.309	621.045
319.139	16.526	829.561	620.662
320.154	16.590	828.881	620.332
321.168	16.484	828.238	619.408
322.183	16.643	827.534	619.410
323.197	16.724	826.957	619.220
324.212	16.647	826.311	618.399
325.227	16.662	825.862	618.065
326.241	16.783	825.068	617.854
327.256	16.583	824.812	616.882
328.270	16.693	824.045	616.654
329.285	16.692	823.754	616.375
330.300	16.653	823.215	615.776
331.314	16.742	822.640	615.617
332.329	16.777	821.983	615.198
333.343	16.863	821.164	614.841
334.358	16.725	820.965	614.139
335.373	16.885	820.617	614.404
336.387	16.758	819.951	613.391
337.402	16.856	819.210	613.137
338.416	16.799	819.185	612.857
339.431	16.951	818.252	612.655
340.446	16.995	817.639	612.300
341.460	16.947	817.271	611.795
342.475	17.062	816.547	611.616
343.489	17.113	815.891	611.254
344.504	17.014	815.338	610.427
345.519	17.070	815.316	610.560
346.533	16.943	814.625	609.531
347.548	17.179	813.756	609.674
348.562	17.262	812.872	609.257
349.577	17.097	813.157	608.823
350.592	17.077	812.527	608.225
351.606	16.981	811.891	607.351
352.621	17.026	811.656	607.284
353.635	17.197	811.093	607.421
354.650	17.098	810.722	606.735
355.665	17.131	810.370	606.536
356.679	17.094	809.648	605.810
357.694	17.113	809.385	605.626
358.708	17.080	808.937	605.121
359.723	17.122	808.401	604.815
360.738	17.169	807.412	604.189
361.752	17.304	806.892	604.228
362.767	17.193	806.631	603.584
363.781	17.346	806.302	603.828
364.796	17.323	805.911	603.399
365.810	17.411	805.438	603.306
366.825	17.520	804.922	603.252
367.840	17.451	804.749	602.825
368.854	17.305	804.695	602.212
369.869	17.412	803.875	601.925
370.883	17.461	802.987	601.378
371.898	17.447	802.507	600.917
372.913	17.494	801.945	600.609
373.927	17.634	801.134	600.442
374.942	17.401	800.894	599.388
375.956	17.508	800.319	599.282
376.971	17.542	799.738	598.911
377.986	17.606	799.118	598.622
379.000	17.628	798.644	598.289
380.015	17.701	798.295	598.232
381.029	17.546	798.170	597.542
382.044	17.692	797.150	597.235
383.059	17.776	796.492	596.985
384.073	17.800	796.197	596.794
385.088	17.722	795.889	596.236
386.102	17.700	795.080	595.502
387.117	17.590	794.546	594.665
388.132	17.590	794.501	594.578
389.146	17.726	793.769	594.453
390.161	17.632	793.465	593.844
391.175	17.659	792.996	593.536
392.190	17.915	792.461	593.974
393.205	17.702	792.477	593.192
394.219	17.644	792.222	592.746
395.234	17.809	790.730	592.152
396.248	17.837	790.812	592.256
397.263	17.775	790.188	591.522
398.278	17.756	789.935	591.215
399.292	17.795	789.080	590.657
400.307	17.783	788.570	590.181
401.321	17.778	788.760	590.253
402.336	17.751	788.561	589.960
403.350	17.873	787.830	589.781
404.365	17.828	787.340	589.206
405.380	17.958	786.989	589.343
406.394	17.844	786.446	588.491
407.409	17.967	786.191	588.671
408.423	17.896	785.994	588.226
409.438	17.992	785.298	587.983
410.453	18.056	784.794	587.774
411.467	18.009	784.518	587.355
412.482	18.079	783.886	587.068
413.496	18.244	783.068	586.969
414.511	18.268	783.073	587.004
415.526	18.164	782.837	586.421
416.540	18.201	782.615	586.328
417.555	18.129	782.168	585.693
418.569	18.274	781.025	585.283
419.584	18.293	780.775	585.111
420.599	18.227	780.379	584.536
421.613	116.000	1295.283	1488.184
422.628	99.594	1370.283	1488.298
