DTS Sentinel unit serial number:	SN413079Multiplexer serial number:	ORYXHardware model number:	OX4-SRSoftware version number:	ORYX F/W v4.00 Oryx Data Collector v3.7.2.0data status	okinstallation	princeton_trtdifferential loss correction	single-endedforward channel	channel 3reverse channel	N/Adate	2019/09/18time	05:56:35forward acquisition time	60.00reverse acquisition time	0.00gamma	496.2192k internal	0.2343k external	0.2343temperature offset calibration	0.9949default loss term (dB/km)	0.3790temperature slope calibration	1.0000multiplexer offset coefficient	1.0000multiplexer slope coefficient	1.0000fibre end	0.00T internal ref (°C)	23.22T ext. ref 1 (°C)	0.20T ext. ref 2 (°C)	17.53length (m)	temperature (°C)	Stokes	anti-Stokes-747.200	507.438	-0.054	-0.126
-746.185	-183.773	-0.266	-0.005
-745.171	239.289	0.072	-0.120
-744.156	-200.000	-0.012	0.108
-743.142	-200.000	-0.025	0.173
-742.127	-14.893	-0.119	0.077
-741.112	790.368	0.099	-0.273
-740.098	-135.271	-0.030	0.004
-739.083	46.273	-0.143	0.132
-738.069	-127.492	0.073	-0.011
-737.054	-200.000	0.046	-0.245
-736.039	-18.316	-0.207	0.129
-735.025	-23.988	-0.234	-0.140
-734.010	149.421	-0.123	-0.167
-732.996	-200.000	-0.019	-0.452
-731.981	-59.300	-0.386	-0.166
-730.966	-82.583	-0.096	0.031
-729.952	-122.392	-0.273	-0.044
-728.937	45.659	0.115	-0.106
-727.923	-200.000	-0.016	0.078
-726.908	248.814	-0.176	-0.298
-725.894	800.000	-0.043	-0.156
-724.879	-57.306	-0.300	-0.132
-723.864	308.158	0.143	-0.266
-722.850	-83.103	-0.250	0.080
-721.835	-7.755	0.126	0.085
-720.821	-130.767	-0.074	0.010
-719.806	-4.045	-0.033	-0.023
-718.791	-200.000	-0.002	-0.047
-717.777	226.363	-0.120	-0.194
-716.762	46.335	0.107	0.099
-715.748	-127.919	-0.313	-0.045
-714.733	3.466	-0.095	-0.069
-713.718	-150.779	-0.327	0.025
-712.704	-69.117	0.296	0.114
-711.689	-200.000	0.001	0.035
-710.675	589.309	-0.147	-0.363
-709.660	91.757	-0.216	0.243
-708.645	-21.443	0.175	0.107
-707.631	32.826	0.064	-0.056
-706.616	145.988	-0.111	0.149
-705.602	702.802	-0.046	0.120
-704.587	-200.000	-0.006	-0.044
-703.572	-20.174	-0.346	0.213
-702.558	-189.743	0.457	0.005
-701.543	68.734	-0.208	-0.213
-700.529	701.442	0.098	-0.257
-699.514	312.346	-0.011	-0.020
-698.499	-62.609	-0.155	0.064
-697.485	621.865	-0.076	-0.191
-696.470	141.162	-0.182	-0.240
-695.456	-107.878	-0.250	-0.054
-694.441	380.055	-0.097	-0.199
-693.426	40.951	-0.034	0.031
-692.412	-23.920	-0.088	0.052
-691.397	-127.141	-0.290	0.042
-690.383	630.107	0.134	0.339
-689.368	-123.033	-0.484	-0.078
-688.354	-8.546	0.089	-0.060
-687.339	89.604	-0.074	-0.083
-686.324	-153.593	-0.239	-0.016
-685.310	513.073	0.037	-0.085
-684.295	482.341	-0.082	0.186
-683.281	800.000	0.075	-0.268
-682.266	11.884	-0.216	0.166
-681.251	800.000	0.043	-0.127
-680.237	641.618	-0.053	-0.136
-679.222	-37.680	0.270	-0.144
-678.208	36.245	0.105	-0.092
-677.193	283.465	-0.147	-0.264
-676.178	58.802	0.121	0.119
-675.164	22.162	0.334	0.273
-674.149	-146.179	-0.419	0.037
-673.135	-0.400	-0.076	-0.054
-672.120	64.721	-0.046	-0.047
-671.105	-121.954	0.194	0.032
-670.091	310.216	-0.159	-0.296
-669.076	38.370	-0.164	-0.145
-668.062	-200.000	0.053	-0.243
-667.047	-19.852	-0.090	-0.056
-666.032	-78.164	0.146	-0.050
-665.018	-94.326	-0.294	-0.080
-664.003	-200.000	0.028	-0.201
-662.989	-84.643	-0.149	-0.047
-661.974	-187.478	-0.221	-0.003
-660.959	-200.000	0.038	-0.275
-659.945	-137.862	-0.077	0.009
-658.930	333.395	0.042	-0.081
-657.916	20.667	-0.166	-0.134
-656.901	800.000	0.096	-0.286
-655.886	17.325	-0.169	-0.134
-654.872	346.912	-0.164	-0.323
-653.857	287.709	-0.050	0.091
-652.843	-176.640	0.195	0.005
-651.828	-200.000	-0.011	-0.332
-650.814	-62.406	-0.183	-0.076
-649.799	-200.000	0.014	0.078
-648.784	514.819	-0.084	0.195
-647.770	22.198	-0.222	0.181
-646.755	800.000	-0.072	0.219
-645.741	-113.719	0.073	0.014
-644.726	-33.501	-0.203	-0.112
-643.711	34.681	0.134	-0.117
-642.697	800.000	0.092	0.349
-641.682	800.000	0.037	-0.131
-640.668	-55.290	0.117	0.052
-639.653	-200.000	-0.050	0.276
-638.638	-33.602	0.059	-0.033
-637.624	-86.163	0.404	0.124
-636.609	-51.219	0.177	0.083
-635.595	-145.368	0.271	0.024
-634.580	-200.000	0.016	-0.304
-633.565	-199.115	0.246	-0.001
-632.551	446.419	-0.173	-0.380
-631.536	-28.427	-0.183	-0.105
-630.522	-74.973	0.472	0.169
-629.507	2.748	0.135	-0.098
-628.492	-61.109	-0.128	0.054
-627.478	-112.111	0.278	-0.056
-626.463	357.399	0.073	-0.145
-625.449	800.000	-0.045	-0.127
-624.434	-61.010	-0.180	0.076
-623.419	-98.806	0.412	-0.105
-622.405	85.334	-0.168	-0.184
-621.390	-161.099	-0.248	-0.013
-620.376	-103.422	0.171	0.040
-619.361	-200.000	0.028	-0.149
-618.346	-37.420	-0.109	-0.058
-617.332	-94.504	-0.048	0.013
-616.317	-66.100	0.133	0.053
-615.303	126.805	-0.191	-0.242
-614.288	65.218	-0.089	0.089
-613.273	-6.141	-0.118	0.080
-612.259	-200.000	-0.002	-0.156
-611.244	-109.682	0.166	-0.035
-610.230	299.017	0.099	0.181
-609.215	-133.010	0.181	0.023
-608.201	-200.000	-0.005	0.030
-607.186	20.026	0.258	-0.207
-606.171	793.231	0.081	-0.222
-605.157	-7.370	-0.205	-0.138
-604.142	345.553	0.106	0.206
-603.128	-175.822	-0.168	0.004
-602.113	-200.000	-0.044	0.323
-601.098	65.070	-0.112	0.113
-600.084	-160.427	0.285	-0.015
-599.069	-85.447	0.047	0.015
-598.055	800.000	0.025	-0.085
-597.040	-165.907	-0.272	0.012
-596.025	29.891	-0.041	-0.035
-595.011	445.022	0.046	0.100
-593.996	-168.922	0.030	-0.001
-592.982	-200.000	0.003	-0.022
-591.967	88.742	-0.109	0.120
-590.952	275.963	0.185	-0.327
-589.938	800.000	-0.044	0.128
-588.923	-116.552	0.117	0.022
-587.909	800.000	0.109	-0.312
-586.894	456.552	-0.028	-0.062
-585.879	-54.251	0.195	-0.088
-584.865	-46.338	0.301	-0.147
-583.850	-82.778	0.141	0.045
-582.836	-200.000	-0.024	0.239
-581.821	-34.160	-0.175	0.096
-580.806	-200.000	0.025	-0.214
-579.792	532.384	0.036	-0.086
-578.777	-21.160	-0.074	0.045
-577.763	-200.000	0.014	-0.249
-576.748	-150.463	-0.436	0.033
-575.733	-93.242	-0.055	-0.015
-574.719	-200.000	-0.009	0.172
-573.704	-200.000	0.021	-0.258
-572.690	136.317	-0.235	0.304
-571.675	-35.121	-0.257	0.139
-570.661	800.000	0.059	-0.169
-569.646	-200.000	-0.030	-0.218
-568.631	78.254	0.129	-0.137
-567.617	79.946	0.203	-0.217
-566.602	-77.236	-0.241	-0.083
-565.588	60.473	0.097	0.096
-564.573	-200.000	0.092	0.508
-563.558	276.963	0.119	-0.210
-562.544	-11.965	0.218	0.142
-561.529	568.603	-0.023	0.056
-560.515	278.636	-0.024	0.042
-559.500	-200.000	-0.023	-0.160
-558.485	-200.000	0.008	0.241
-557.471	-57.633	-0.163	-0.071
-556.456	680.925	-0.013	-0.034
-555.442	-167.135	0.171	0.007
-554.427	34.336	-0.098	0.085
-553.412	-200.000	-0.028	0.128
-552.398	-85.761	-0.172	0.053
-551.383	533.126	0.264	-0.621
-550.369	45.874	-0.064	-0.059
-549.354	-88.567	-0.059	-0.018
-548.339	-79.031	0.133	0.045
-547.325	80.185	0.064	0.069
-546.310	-64.111	-0.023	-0.009
-545.296	54.333	-0.033	-0.032
-544.281	-112.113	-0.263	0.053
-543.266	202.392	0.143	0.219
-542.252	-70.607	-0.185	0.069
-541.237	-200.000	0.068	0.338
-540.223	-153.703	-0.352	-0.024
-539.208	-118.393	0.225	0.040
-538.193	-200.000	0.290	0.000
-537.179	-200.000	-0.026	0.204
-536.164	-4.688	0.187	0.128
-535.150	395.031	-0.013	-0.026
-534.135	-122.360	0.364	-0.059
-533.121	-200.000	-0.068	-0.482
-532.106	800.000	0.048	-0.136
-531.091	4.838	-0.324	-0.237
-530.077	77.289	-0.302	0.319
-529.062	6.911	0.076	-0.056
-528.048	-29.835	-0.258	-0.146
-527.033	257.233	0.112	0.192
-526.018	-194.146	-0.039	0.000
-525.004	402.416	-0.072	-0.150
-523.989	-26.456	0.295	-0.172
-522.975	498.882	-0.020	0.045
-521.960	-73.215	-0.129	0.047
-520.945	-93.211	-0.209	0.058
-519.931	-23.953	0.379	0.225
-518.916	-147.701	0.149	-0.012
-517.902	439.055	0.166	0.360
-516.887	307.826	0.117	0.217
-515.872	-83.775	0.231	-0.073
-514.858	98.283	0.278	0.318
-513.843	-200.000	-0.038	0.448
-512.829	-143.455	0.217	0.021
-511.814	-200.000	0.041	-0.227
-510.799	-200.000	-0.020	-0.165
-509.785	-200.000	0.033	-0.196
-508.770	136.764	-0.111	-0.143
-507.756	108.303	0.162	-0.192
-506.741	327.802	-0.144	0.275
-505.726	-200.000	0.026	-0.115
-504.712	-200.000	0.007	0.234
-503.697	31.132	0.185	-0.157
-502.683	-169.728	0.263	-0.009
-501.668	-177.217	-0.397	-0.010
-500.653	-101.337	0.368	-0.089
-499.639	-83.900	0.264	0.083
-498.624	-66.390	0.153	0.060
-497.610	324.861	0.070	0.133
-496.595	800.000	0.032	-0.134
-495.581	-64.975	-0.054	-0.022
-494.566	-200.000	-0.070	0.410
-493.551	-127.912	0.098	-0.014
-492.537	67.290	-0.069	0.070
-491.522	-5.636	0.141	-0.096
-490.508	-97.662	-0.116	0.030
-489.493	222.101	-0.044	-0.070
-488.478	-200.000	0.017	0.384
-487.464	-91.938	0.167	0.047
-486.449	-97.306	0.054	-0.014
-485.435	-200.000	0.030	0.278
-484.420	-200.000	-0.009	0.159
-483.405	800.000	-0.062	-0.260
-482.391	-112.081	-0.192	-0.038
-481.376	-200.000	0.043	0.266
-480.362	-137.019	-0.354	-0.040
-479.347	-18.162	-0.058	0.036
-478.332	-200.000	0.021	-0.154
-477.318	-2.235	-0.215	0.149
-476.303	-200.000	-0.001	-0.176
-475.289	-200.000	-0.015	0.290
-474.274	37.117	-0.186	-0.163
-473.259	457.240	-0.094	-0.206
-472.245	-119.735	-0.178	0.031
-471.230	-80.583	-0.247	-0.081
-470.216	1.369	-0.063	0.045
-469.201	-200.000	-0.026	-0.202
-468.186	280.139	0.096	-0.170
-467.172	-1.756	0.199	-0.139
-466.157	13.409	0.195	-0.150
-465.143	-131.681	0.120	0.016
-464.128	800.000	-0.081	-0.253
-463.113	-144.405	-0.499	-0.046
-462.099	-200.000	-0.015	-0.068
-461.084	516.187	-0.043	0.101
-460.070	800.000	-0.130	-0.505
-459.055	-172.106	0.293	0.009
-458.040	800.000	0.032	0.112
-457.026	-38.016	-0.266	-0.140
-456.011	-15.339	0.141	-0.089
-454.997	267.310	-0.045	0.078
-453.982	195.171	-0.048	-0.071
-452.968	-200.000	-0.031	-0.193
-451.953	79.268	0.087	-0.092
-450.938	800.000	-0.081	0.238
-449.924	-99.787	0.045	0.011
-448.909	38.736	0.036	-0.032
-447.895	-68.062	-0.071	0.027
-446.880	648.746	0.038	-0.096
-445.865	-124.161	0.046	0.007
-444.851	158.917	-0.159	-0.219
-443.836	800.000	0.077	0.266
-442.822	10.015	-0.175	0.132
-441.807	-200.000	0.060	0.280
-440.792	800.000	-0.020	0.078
-439.778	-0.046	0.039	0.028
-438.763	-125.944	0.270	0.040
-437.749	-86.673	0.251	0.076
-436.734	-19.137	-0.259	0.159
-435.719	130.108	-0.059	0.074
-434.705	-15.232	-0.138	0.087
-433.690	42.881	-0.043	-0.039
-432.676	129.991	0.125	0.158
-431.661	-151.263	0.226	-0.017
-430.646	338.428	0.162	-0.313
-429.632	-181.518	0.112	0.002
-428.617	75.646	-0.118	0.123
-427.603	453.580	-0.082	-0.180
-426.588	292.414	0.180	0.324
-425.573	-193.842	-0.152	0.001
-424.559	22.288	-0.180	0.145
-423.544	204.352	-0.176	-0.270
-422.530	-74.791	0.338	-0.120
-421.515	-200.000	-0.015	-0.096
-420.500	-152.951	0.217	0.015
-419.486	366.704	-0.029	-0.057
-418.471	-24.349	0.345	0.203
-417.457	-76.525	-0.072	-0.025
-416.442	61.053	0.057	0.056
-415.428	-39.960	-0.126	0.065
-414.413	157.384	0.072	0.098
-413.398	191.883	0.038	-0.056
-412.384	-65.005	0.294	0.117
-411.369	-4.325	-0.087	0.060
-410.355	30.178	-0.241	-0.204
-409.340	-200.000	0.005	-0.123
-408.325	-200.000	-0.027	0.137
-407.311	-200.000	0.004	-0.145
-406.296	292.293	0.098	0.176
-405.282	-79.849	0.301	-0.100
-404.267	-200.000	-0.008	-0.173
-403.252	23.818	0.203	-0.165
-402.238	159.181	-0.084	0.116
-401.223	53.824	0.036	-0.034
-400.209	17.577	0.064	0.051
-399.194	-200.000	0.002	0.024
-398.179	-19.983	0.196	0.120
-397.165	-50.530	0.195	0.091
-396.150	295.080	0.204	-0.368
-395.136	410.272	0.108	0.226
-394.121	800.000	-0.019	0.053
-393.106	800.000	0.100	-0.278
-392.092	267.310	-0.023	-0.040
-391.077	-49.404	0.217	-0.102
-390.063	-40.208	-0.093	0.048
-389.048	598.010	0.063	-0.155
-388.033	-108.491	-0.597	-0.127
-387.019	-1.870	0.139	0.096
-386.004	-200.000	0.018	0.086
-384.990	800.000	0.156	-0.441
-383.975	136.716	-0.138	-0.178
-382.960	400.152	-0.076	0.158
-381.946	800.000	-0.078	-0.241
-380.931	-118.402	0.234	-0.041
-379.917	154.294	-0.103	-0.139
-378.902	-55.357	-0.282	-0.125
-377.888	800.000	0.039	0.128
-376.873	-95.386	-0.128	-0.034
-375.858	-4.043	0.153	-0.105
-374.844	-81.367	-0.249	0.081
-373.829	1.047	0.206	0.146
-372.815	147.708	-0.009	-0.012
-371.800	50.678	-0.197	-0.184
-370.785	76.270	-0.077	-0.080
-369.771	-111.536	-0.086	-0.017
-368.756	607.138	-0.105	0.259
-367.742	-200.000	0.001	-0.195
-366.727	366.571	0.089	0.178
-365.712	134.315	-0.178	0.227
-364.698	800.000	-0.016	-0.051
-363.683	800.000	0.045	-0.189
-362.669	-61.231	-0.267	0.111
-361.654	800.000	0.041	0.138
-360.639	800.000	-0.042	-0.127
-359.625	25.031	-0.282	-0.231
-358.610	-78.536	-0.181	0.061
-357.596	130.497	0.253	-0.320
-356.581	86.035	-0.051	0.055
-355.566	-89.776	-0.237	0.068
-354.552	709.784	-0.049	0.127
-353.537	593.546	-0.144	0.351
-352.523	143.348	-0.163	0.213
-351.508	-113.446	-0.325	0.063
-350.493	131.793	0.095	-0.120
-349.479	800.000	-0.140	0.406
-348.464	-131.113	-0.327	0.043
-347.450	762.538	-0.101	0.270
-346.435	-46.848	0.289	0.139
-345.420	-200.000	-0.057	0.374
-344.406	-200.000	0.011	-0.050
-343.391	19.918	-0.343	-0.272
-342.377	28.726	0.130	0.109
-341.362	-200.000	-0.123	0.540
-340.348	-114.440	0.186	-0.035
-339.333	221.081	-0.141	-0.223
-338.318	136.459	0.126	0.162
-337.304	-157.006	-0.271	0.016
-336.289	-200.000	-0.056	0.313
-335.275	-5.914	0.177	-0.119
-334.260	-126.246	-0.140	0.021
-333.245	16.408	-0.082	0.064
-332.231	23.511	-0.106	0.086
-331.216	79.399	0.191	-0.201
-330.202	-200.000	0.002	0.420
-329.187	82.443	-0.170	-0.182
-328.172	800.000	-0.028	-0.101
-327.158	116.333	-0.077	-0.093
-326.143	-200.000	0.003	-0.026
-325.129	-99.988	-0.317	0.078
-324.114	41.336	0.191	0.170
-323.099	-163.743	-0.330	-0.015
-322.085	-73.974	0.266	0.095
-321.070	-45.159	-0.267	-0.131
-320.056	-118.928	-0.264	-0.046
-319.041	800.000	0.031	0.091
-318.026	-166.788	-0.309	0.013
-317.012	542.181	0.053	-0.125
-315.997	22.286	0.216	-0.173
-314.983	800.000	-0.038	-0.143
-313.968	357.481	-0.115	0.227
-312.953	-200.000	-0.002	0.037
-311.939	-57.637	-0.467	0.201
-310.924	-153.054	0.163	0.011
-309.910	-200.000	-0.023	-0.142
-308.895	107.982	0.174	0.204
-307.880	-132.692	0.242	0.031
-306.866	167.317	-0.138	0.193
-305.851	-200.000	0.015	0.191
-304.837	196.465	0.099	-0.148
-303.822	174.719	0.322	-0.459
-302.807	-26.143	0.097	-0.056
-301.793	796.780	0.066	0.178
-300.778	182.419	0.339	-0.492
-299.764	800.000	0.057	-0.209
-298.749	151.642	0.194	-0.260
-297.735	-200.000	0.018	-0.133
-296.720	-22.640	-0.249	-0.148
-295.705	38.092	-0.081	0.071
-294.691	-13.942	-0.141	-0.090
-293.676	148.283	-0.203	0.270
-292.662	108.947	0.113	-0.133
-291.647	143.433	-0.219	-0.286
-290.632	37.948	-0.218	0.191
-289.618	98.195	-0.135	0.152
-288.603	72.137	0.177	-0.181
-287.589	747.923	0.109	-0.289
-286.574	-32.232	-0.161	-0.088
-285.559	399.856	0.082	0.170
-284.545	800.000	-0.052	-0.213
-283.530	-65.881	-0.292	0.115
-282.516	-200.000	-0.032	-0.151
-281.501	-46.711	-0.093	0.045
-280.486	800.000	-0.109	0.307
-279.472	-200.000	-0.029	0.171
-278.457	110.961	-0.114	0.135
-277.443	800.000	0.047	0.167
-276.428	25.459	-0.045	-0.037
-275.413	103.346	0.141	0.162
-274.399	326.168	0.128	0.240
-273.384	-147.146	0.215	-0.018
-272.370	-40.746	-0.268	-0.137
-271.355	-170.171	0.152	0.005
-270.340	296.875	0.068	0.122
-269.326	-76.709	0.406	-0.140
-268.311	558.997	0.084	0.200
-267.297	39.231	0.042	0.037
-266.282	87.669	0.149	0.162
-265.267	-200.000	0.008	0.072
-264.253	-187.066	0.463	0.006
-263.238	432.119	-0.100	-0.214
-262.224	-180.381	0.204	0.004
-261.209	800.000	0.099	0.333
-260.195	800.000	-0.080	-0.245
-259.180	51.290	-0.147	0.137
-258.165	356.346	-0.084	-0.164
-257.151	-200.000	0.019	-0.147
-256.136	189.935	0.130	-0.191
-255.122	217.690	0.159	-0.250
-254.107	-129.758	0.216	-0.029
-253.092	-54.965	-0.231	0.102
-252.078	-14.160	0.069	-0.043
-251.063	365.538	-0.251	0.496
-250.049	-117.003	0.276	-0.049
-249.034	800.000	-0.074	0.238
-248.019	-200.000	0.010	0.288
-247.005	-109.689	0.168	0.035
-245.990	77.977	-0.121	-0.126
-244.976	-200.000	0.001	-0.111
-243.961	800.000	-0.023	0.071
-242.946	-145.761	0.096	-0.008
-241.932	-70.413	0.173	-0.064
-240.917	76.224	-0.174	-0.181
-239.903	432.657	0.142	0.301
-238.888	-6.086	0.177	-0.119
-237.873	-7.264	-0.248	-0.165
-236.859	256.808	-0.064	0.108
-235.844	17.522	-0.070	0.055
-234.830	236.558	-0.226	-0.367
-233.815	468.126	0.041	-0.089
-232.800	800.000	-0.094	-0.330
-231.786	47.498	-0.059	-0.054
-230.771	-200.000	-0.022	0.169
-229.757	-68.278	0.008	0.003
-228.742	-75.808	-0.332	-0.115
-227.727	-200.000	0.054	-0.285
-226.713	-53.907	-0.392	0.175
-225.698	36.474	-0.300	0.260
-224.684	473.214	-0.109	0.241
-223.669	800.000	0.058	-0.167
-222.655	208.921	0.016	-0.025
-221.640	45.100	-0.148	-0.134
-220.625	-95.253	-0.101	-0.027
-219.611	800.000	0.081	-0.250
-218.596	-118.208	-0.057	-0.010
-217.582	751.355	-0.017	-0.045
-216.567	-84.691	-0.034	-0.010
-215.552	-116.737	0.107	-0.019
-214.538	-25.388	-0.079	0.046
-213.523	21.160	-0.044	0.035
-212.509	-200.000	0.005	-0.226
-211.494	-200.000	-0.064	-0.354
-210.479	-104.895	0.065	0.015
-209.465	-67.847	0.098	-0.037
-208.450	-200.000	-0.034	-0.151
-207.436	90.436	-0.023	-0.026
-206.421	249.157	0.101	-0.168
-205.406	105.723	-0.119	-0.137
-204.392	-106.965	-0.210	0.046
-203.377	69.604	0.133	0.134
-202.363	-60.514	0.142	0.059
-201.348	-144.621	0.074	-0.007
-200.333	800.000	-0.072	0.290
-199.319	40.371	0.295	0.260
-198.304	-200.000	0.019	-0.420
-197.290	-200.000	0.005	-0.146
-196.275	-81.249	-0.165	0.053
-195.260	-200.000	-0.008	0.033
-194.246	-200.000	-0.021	-0.134
-193.231	-126.567	0.220	0.032
-192.217	-135.318	-0.046	0.005
-191.202	-200.000	-0.013	0.310
-190.187	-200.000	0.021	-0.163
-189.173	132.186	-0.134	-0.169
-188.158	-200.000	0.008	-0.461
-187.144	-181.174	0.420	0.008
-186.129	121.563	0.123	0.151
-185.114	191.889	0.194	-0.287
-184.100	496.443	-0.107	0.241
-183.085	-54.671	-0.107	0.047
-182.071	-146.220	0.156	0.013
-181.056	-74.048	0.286	0.101
-180.042	-200.000	0.001	0.046
-179.027	419.265	0.041	-0.085
-178.012	220.423	-0.117	0.183
-176.998	79.109	-0.208	0.218
-175.983	-4.214	-0.123	0.083
-174.969	-128.093	0.125	0.018
-173.954	800.000	0.024	0.097
-172.939	-45.024	-0.172	0.084
-171.925	24.185	0.189	0.152
-170.910	128.850	-0.129	-0.161
-169.896	800.000	-0.052	0.201
-168.881	-79.863	-0.310	-0.102
-167.866	-26.156	-0.035	-0.020
-166.852	-28.733	0.134	-0.076
-165.837	800.000	0.083	-0.268
-164.823	-135.464	0.090	0.011
-163.808	-117.868	-0.227	0.040
-162.793	158.868	-0.101	0.137
-161.779	-200.000	0.031	0.272
-160.764	-122.064	0.124	-0.020
-159.750	12.724	0.069	-0.052
-158.735	104.704	0.124	0.143
-157.720	123.502	0.201	0.246
-156.706	27.974	-0.438	0.361
-155.691	183.240	-0.127	-0.184
-154.677	143.550	0.096	-0.125
-153.662	140.066	-0.221	-0.285
-152.647	800.000	-0.049	0.172
-151.633	429.852	-0.024	0.051
-150.618	800.000	-0.023	0.071
-149.604	-102.291	-0.028	0.006
-148.589	800.000	0.035	-0.144
-147.574	-19.692	-0.294	-0.178
-146.560	800.000	0.033	-0.139
-145.545	800.000	-0.057	-0.214
-144.531	86.602	-0.144	-0.155
-143.516	80.795	0.288	-0.303
-142.502	-200.000	-0.004	-0.135
-141.487	800.000	0.052	-0.175
-140.472	54.533	0.284	0.268
-139.458	-45.636	-0.166	0.080
-138.443	-71.834	0.243	0.089
-137.429	26.362	-0.178	0.146
-136.414	-52.598	-0.307	0.139
-135.399	-64.201	-0.239	0.095
-134.385	-200.000	-0.026	0.183
-133.370	114.343	0.221	0.264
-132.356	24.744	-0.125	-0.101
-131.341	-40.481	0.315	0.160
-130.326	-200.000	-0.059	0.327
-129.312	-66.275	-0.276	0.108
-128.297	237.078	-0.135	0.218
-127.283	-82.730	0.552	0.175
-126.268	-67.317	-0.022	0.008
-125.253	-130.769	0.057	-0.007
-124.239	63.497	0.126	-0.124
-123.224	256.922	-0.089	0.149
-122.210	-35.929	0.058	-0.031
-121.195	-200.000	0.258	-0.001
-120.180	-2.411	-0.148	-0.102
-119.166	-200.000	0.049	0.225
-118.151	-200.000	0.003	0.195
-117.137	40.115	0.122	-0.107
-116.122	129.912	-0.099	-0.124
-115.107	-44.676	-0.251	0.122
-114.093	-200.000	0.042	0.248
-113.078	463.583	-0.173	-0.377
-112.064	-119.652	-0.167	-0.028
-111.049	34.259	0.309	-0.263
-110.034	13.675	-0.097	0.074
-109.020	337.327	0.137	-0.260
-108.005	-105.950	-0.240	0.053
-106.991	-103.373	0.196	-0.045
-105.976	-141.267	-0.091	-0.009
-104.962	-80.534	-0.162	-0.053
-103.947	-200.000	0.057	-0.355
-102.932	800.000	0.140	-0.431
-101.918	25.562	-0.084	0.068
-100.903	-200.000	0.009	0.155
-99.889	-37.308	0.141	-0.074
-98.874	-58.125	0.124	0.053
-97.859	425.875	-0.105	0.220
-96.845	800.000	-0.066	0.258
-95.830	-102.607	0.270	0.063
-94.816	-109.851	-0.136	-0.028
-93.801	-200.000	0.027	0.259
-92.786	9.524	-0.163	-0.121
-91.772	-28.006	-0.151	-0.085
-90.757	-172.592	0.104	-0.003
-89.743	-65.706	-0.099	-0.039
-88.728	254.125	-0.116	0.194
-87.713	234.661	0.095	0.153
-86.699	-52.553	0.130	0.058
-85.684	262.756	-0.116	-0.197
-84.670	-200.000	0.026	-0.183
-83.655	-53.167	-0.274	-0.123
-82.640	-87.282	-0.248	-0.074
-81.626	800.000	0.102	0.349
-80.611	-105.311	-0.279	-0.062
-79.597	92.602	-0.114	0.126
-78.582	-7.110	0.083	0.055
-77.567	-147.384	0.052	-0.004
-76.553	-64.598	-0.057	-0.023
-75.538	75.267	-0.013	0.013
-74.524	92.058	0.034	-0.038
-73.509	15.835	0.261	-0.200
-72.494	-200.000	-0.041	0.178
-71.480	-200.000	-0.012	-0.167
-70.465	800.000	-0.126	-0.409
-69.451	-200.000	0.037	-0.167
-68.436	-50.723	0.200	0.092
-67.422	800.000	-0.064	-0.270
-66.407	-93.839	-0.310	0.083
-65.392	-1.459	-0.183	0.126
-64.378	84.797	0.268	0.286
-63.363	800.000	0.021	0.080
-62.349	48.761	-0.053	0.049
-61.334	143.624	-1.069	-1.388
-60.319	26.807	0.840	0.686
-59.305	650.800	-0.578	-1.443
-58.290	179.134	1.126	1.605
-57.276	800.000	0.523	1.423
-56.261	-200.000	125.233	653.553
-55.246	405.795	1582.997	3254.809
-54.232	140.804	2744.448	3534.216
-53.217	94.154	2189.902	2421.733
-52.203	33.758	1705.278	1445.499
-51.188	26.111	1523.051	1238.734
-50.173	24.372	1499.145	1207.481
-49.159	49.271	1571.123	1439.351
-48.144	45.926	1583.564	1427.470
-47.130	26.359	1532.571	1247.993
-46.115	23.486	1515.918	1214.729
-45.100	23.276	1512.772	1210.724
-44.086	23.343	1510.566	1209.369
-43.071	23.181	1509.027	1206.986
-42.057	23.203	1506.930	1205.409
-41.042	23.275	1505.594	1204.787
-40.027	23.246	1504.021	1203.282
-39.013	23.154	1502.612	1201.479
-37.998	23.123	1502.059	1200.783
-36.984	23.216	1500.955	1200.480
-35.969	23.146	1499.262	1198.606
-34.954	23.223	1497.257	1197.475
-33.940	23.168	1496.638	1196.561
-32.925	23.208	1494.850	1195.351
-31.911	23.382	1493.028	1195.026
-30.896	23.145	1492.667	1193.090
-29.881	23.337	1491.161	1193.133
-28.867	23.340	1489.536	1191.806
-27.852	23.236	1488.557	1190.274
-26.838	23.295	1486.564	1189.027
-25.823	23.279	1485.061	1187.669
-24.809	23.203	1483.799	1186.105
-23.794	23.333	1481.661	1185.222
-22.779	23.357	1480.872	1184.700
-21.765	23.248	1479.516	1182.842
-20.750	23.262	1479.043	1182.512
-19.736	23.244	1478.007	1181.514
-18.721	23.306	1476.243	1180.472
-17.706	23.123	1475.899	1178.931
-16.692	23.204	1474.684	1178.451
-15.677	23.181	1473.843	1177.581
-14.663	23.198	1472.961	1176.943
-13.648	23.199	1471.638	1175.844
-12.633	23.155	1470.969	1174.973
-11.619	23.149	1470.055	1174.157
-10.604	23.229	1469.288	1174.023
-9.590	23.238	1468.058	1173.054
-8.575	23.092	1467.099	1171.276
-7.560	23.289	1466.348	1171.933
-6.546	23.235	1465.347	1170.734
-5.531	23.163	1464.969	1169.905
-4.517	23.230	1463.810	1169.377
-3.502	23.222	1462.986	1168.618
-2.487	23.187	1462.103	1167.636
-1.473	23.236	1460.680	1166.775
-0.458	23.254	1459.392	1165.818
0.556	21.557	1449.229	1154.246
1.571	18.355	1425.489	1114.434
2.586	15.020	1363.770	1045.291
3.600	13.668	1279.917	972.999
4.615	12.880	1237.011	935.832
5.629	11.346	1180.413	884.619
6.644	5.546	1098.488	793.806
7.659	0.861	1062.236	744.527
8.673	0.313	1057.193	738.241
9.688	0.192	1053.528	735.026
10.702	0.170	1052.699	734.278
11.717	0.116	1050.283	732.264
12.731	1.931	1051.534	741.910
13.746	8.361	1059.125	778.629
14.761	14.346	1067.357	813.935
15.775	16.633	1069.636	826.785
16.790	16.387	1068.256	824.447
17.804	15.523	1066.262	818.625
18.819	14.621	1064.678	812.945
19.834	14.194	1062.968	809.488
20.848	13.981	1061.971	807.627
21.863	13.767	1061.220	805.944
22.877	13.424	1060.440	803.612
23.892	13.292	1059.872	802.470
24.907	13.187	1058.690	800.998
25.921	13.233	1058.049	800.664
26.936	13.101	1058.156	800.035
27.950	13.106	1057.408	799.423
28.965	13.312	1056.259	799.481
29.980	13.268	1055.466	798.597
30.994	13.335	1054.349	798.002
32.009	13.447	1053.269	797.653
33.023	13.361	1053.062	797.012
34.038	13.455	1052.067	796.640
35.053	13.423	1051.039	795.639
36.067	13.301	1050.335	794.449
37.082	13.372	1049.087	793.778
38.096	13.386	1048.391	793.245
39.111	13.375	1048.120	792.920
40.126	13.434	1047.301	792.512
41.140	13.309	1046.373	791.140
42.155	13.226	1045.337	789.889
43.169	13.069	1044.621	788.532
44.184	13.260	1042.770	787.973
45.199	13.102	1042.255	786.762
46.213	13.212	1041.207	786.426
47.228	13.060	1040.486	785.088
48.242	13.278	1039.115	785.019
49.257	13.334	1038.098	784.445
50.271	13.141	1037.314	782.869
51.286	13.256	1036.039	782.383
52.301	13.308	1035.648	782.265
53.315	13.311	1034.998	781.719
54.330	13.295	1033.971	780.797
55.344	13.292	1032.875	779.889
56.359	13.272	1031.889	778.981
57.374	13.213	1031.087	778.026
58.388	13.379	1030.076	777.974
59.403	13.053	1029.795	776.165
60.417	13.104	1029.024	775.753
61.432	13.223	1028.215	775.631
62.447	13.201	1026.924	774.488
63.461	13.018	1026.362	773.138
64.476	13.155	1025.609	773.141
65.490	13.158	1024.284	772.091
66.505	13.063	1023.942	771.322
67.520	13.127	1023.094	770.912
68.534	13.203	1021.842	770.252
69.549	13.245	1021.042	769.780
70.563	13.212	1020.814	769.384
71.578	13.150	1020.100	768.491
72.593	13.079	1019.186	767.406
73.607	13.191	1017.864	766.858
74.622	13.162	1016.725	765.803
75.636	13.090	1016.458	765.196
76.651	13.110	1015.289	764.344
77.666	13.066	1015.469	764.207
78.680	13.111	1013.991	763.234
79.695	13.101	1013.567	762.800
80.709	13.141	1012.877	762.402
81.724	13.085	1012.322	761.656
82.739	13.178	1011.430	761.345
83.753	13.258	1010.248	760.758
84.768	13.326	1009.824	760.685
85.782	13.363	1008.991	760.158
86.797	13.411	1008.268	759.767
87.812	13.439	1007.248	759.058
88.826	13.311	1006.588	757.910
89.841	13.246	1005.651	756.840
90.855	13.356	1004.872	756.690
91.870	13.366	1003.961	755.980
92.884	13.429	1003.204	755.632
93.899	13.349	1002.618	754.761
94.914	13.426	1001.694	754.347
95.928	13.513	1001.216	754.317
96.943	13.266	1000.546	752.619
97.957	13.411	999.855	752.694
98.972	13.323	999.005	751.589
99.987	13.520	997.708	751.442
101.001	13.387	997.492	750.607
102.016	13.449	996.665	750.199
103.030	13.349	995.484	748.790
104.045	13.629	994.589	749.319
105.060	13.395	993.925	747.696
106.074	13.423	993.005	747.063
107.089	13.270	992.006	745.556
108.103	13.398	991.182	745.447
109.118	13.174	990.403	743.788
110.133	13.252	989.846	743.653
111.147	13.337	988.682	743.096
112.162	13.295	987.517	741.967
113.176	13.197	987.529	741.469
114.191	13.224	986.257	740.568
115.206	13.265	985.126	739.839
116.220	13.269	984.311	739.176
117.235	13.327	983.344	738.645
118.249	13.381	982.665	738.311
119.264	13.359	981.460	737.244
120.279	13.328	981.038	736.721
121.293	13.246	980.242	735.695
122.308	13.220	979.450	734.921
123.322	13.238	978.578	734.278
124.337	13.295	977.493	733.654
125.352	13.211	976.326	732.339
126.366	13.278	975.095	731.647
127.381	13.253	973.970	730.631
128.395	13.159	973.470	729.776
129.410	13.216	972.182	728.994
130.424	13.190	971.741	728.484
131.439	13.297	970.575	728.017
132.454	13.284	970.046	727.501
133.468	13.319	969.129	726.900
134.483	13.365	968.535	726.593
135.497	13.382	967.366	725.729
136.512	13.249	967.097	724.878
137.527	13.304	965.932	724.181
138.541	13.341	965.383	723.870
139.556	13.333	964.481	723.092
140.570	13.298	964.170	722.643
141.585	13.364	963.186	722.129
142.600	13.437	962.614	721.955
143.614	13.393	962.116	721.324
144.629	13.392	961.110	720.504
145.643	13.547	960.190	720.422
146.658	13.518	959.566	719.767
147.673	13.378	958.829	718.542
148.687	13.392	957.722	717.710
149.702	13.521	956.626	717.383
150.716	13.345	955.910	716.019
151.731	13.413	954.709	715.351
152.746	13.441	954.474	715.235
153.760	13.451	953.751	714.670
154.775	13.628	952.804	714.664
155.789	13.598	952.132	713.967
156.804	13.619	950.862	713.042
157.819	13.613	950.525	712.700
158.833	13.738	949.920	712.720
159.848	13.694	949.018	711.790
160.862	13.620	948.630	711.121
161.877	13.662	947.416	710.329
162.892	13.533	947.295	709.621
163.906	13.530	946.254	708.766
164.921	13.601	945.414	708.378
165.935	13.542	944.375	707.282
166.950	13.660	943.306	706.925
167.964	13.571	942.509	705.883
168.979	13.605	941.513	705.221
169.994	13.701	940.662	704.930
171.008	13.587	940.307	704.116
172.023	13.674	938.757	703.260
173.037	13.667	938.565	703.028
174.052	13.682	937.620	702.319
175.067	13.788	936.828	702.113
176.081	13.703	935.769	700.897
177.096	13.780	935.197	700.734
178.110	13.717	934.304	699.736
179.125	13.600	934.257	699.146
180.140	13.831	932.732	698.916
181.154	13.723	932.390	698.142
182.169	13.718	931.760	697.586
183.183	13.744	931.180	697.203
184.198	13.937	929.994	697.063
185.213	13.840	929.713	696.381
186.227	13.961	928.758	696.111
187.242	13.965	928.374	695.779
188.256	13.902	927.954	695.139
189.271	13.910	927.232	694.572
190.286	14.005	926.210	694.142
191.300	13.922	925.597	693.271
192.315	13.801	924.621	691.976
193.329	13.752	924.339	691.498
194.344	13.842	923.112	690.896
195.359	13.826	922.824	690.553
196.373	13.822	922.532	690.255
197.388	13.811	922.091	689.821
198.402	14.148	920.946	690.298
199.417	13.976	921.073	689.619
200.432	14.164	920.286	689.748
201.446	14.285	919.668	689.726
202.461	14.188	919.490	689.130
203.475	14.141	919.044	688.543
204.490	14.134	918.277	687.877
205.504	14.157	917.718	687.492
206.519	14.167	916.728	686.729
207.534	14.051	916.167	685.769
208.548	14.080	915.619	685.418
209.563	14.192	914.685	685.120
210.577	14.270	913.708	684.649
211.592	14.182	913.183	683.832
212.607	14.178	913.031	683.642
213.621	14.370	911.811	683.457
214.636	14.232	911.540	682.626
215.650	14.253	911.213	682.406
216.665	14.268	909.990	681.494
217.680	14.356	909.844	681.683
218.694	14.310	909.218	680.967
219.709	14.468	908.876	681.296
220.723	14.395	908.007	680.285
221.738	14.359	907.247	679.511
222.753	14.378	906.910	679.276
223.767	14.506	905.750	678.868
224.782	14.446	905.045	678.035
225.796	14.553	904.201	677.779
226.811	14.572	903.707	677.423
227.826	14.481	902.933	676.414
228.840	14.482	902.102	675.734
229.855	14.423	901.384	674.899
230.869	14.474	901.015	674.771
231.884	14.476	900.481	674.318
232.899	14.459	899.743	673.639
233.913	14.506	898.934	673.162
234.928	14.518	898.182	672.586
235.942	14.488	897.673	672.027
236.957	14.465	896.745	671.180
237.972	14.565	895.899	670.887
238.986	14.556	895.247	670.306
240.001	14.526	894.948	669.900
241.015	14.540	894.037	669.217
242.030	14.548	893.913	669.096
243.045	14.674	893.063	668.907
244.059	14.542	892.683	668.034
245.074	14.618	891.434	667.343
246.088	14.737	890.818	667.300
247.103	14.684	890.291	666.632
248.117	14.644	890.138	666.299
249.132	14.729	889.285	665.943
250.147	14.906	888.484	665.988
251.161	14.728	888.456	665.200
252.176	14.812	887.696	664.907
253.190	15.061	886.429	664.885
254.205	15.048	885.990	664.448
255.220	14.928	885.425	663.487
256.234	15.042	884.296	663.035
257.249	14.960	884.341	662.684
258.263	15.049	884.127	662.818
259.278	15.152	882.728	662.118
260.293	15.125	882.615	661.869
261.307	15.034	881.897	660.911
262.322	15.085	881.407	660.688
263.336	15.116	880.796	660.293
264.351	15.194	880.285	660.161
265.366	15.193	879.414	659.443
266.380	15.245	879.143	659.389
267.395	15.192	878.368	658.540
268.409	15.046	877.638	657.359
269.424	15.195	876.737	657.213
270.439	15.132	876.332	656.601
271.453	15.260	875.271	656.252
272.468	15.246	874.626	655.656
273.482	15.150	874.050	654.790
274.497	15.185	873.621	654.548
275.512	15.242	872.611	653.954
276.526	15.113	871.954	652.901
277.541	15.276	871.196	652.913
278.555	15.423	870.847	653.165
279.570	15.401	870.037	652.413
280.585	15.429	869.480	652.047
281.599	15.573	868.477	651.795
282.614	15.469	868.075	651.033
283.628	15.428	867.916	650.697
284.643	15.414	867.282	650.111
285.657	15.363	867.087	649.710
286.672	15.457	866.017	649.214
287.687	15.446	865.375	648.633
288.701	15.429	865.273	648.434
289.716	15.458	864.478	647.891
290.730	15.534	863.946	647.728
291.745	15.432	863.335	646.819
292.760	15.542	862.467	646.535
293.774	15.668	861.805	646.465
294.789	15.608	861.179	645.711
295.803	15.662	860.681	645.486
296.818	15.641	860.003	644.839
297.833	15.596	859.499	644.231
298.847	15.648	858.865	643.899
299.862	15.676	858.034	643.329
300.876	15.618	857.414	642.584
301.891	15.571	856.948	641.997
302.906	15.664	856.474	641.942
303.920	15.720	855.316	641.228
304.935	15.770	854.833	641.000
305.949	15.836	854.136	640.675
306.964	15.806	853.948	640.362
307.979	15.686	853.298	639.360
308.993	15.794	852.708	639.272
310.008	16.006	851.968	639.465
311.022	15.878	851.303	638.423
312.037	15.993	850.948	638.538
313.052	15.991	849.993	637.756
314.066	15.843	849.910	637.078
315.081	15.923	848.843	636.524
316.095	15.933	848.194	636.020
317.110	15.953	847.980	635.876
318.125	15.894	847.721	635.405
319.139	15.900	846.985	634.818
320.154	15.939	846.637	634.651
321.168	15.791	846.169	633.684
322.183	15.951	845.483	633.716
323.197	15.897	845.050	633.135
324.212	15.953	844.676	633.007
325.227	15.934	843.635	632.101
326.241	15.996	843.487	632.166
327.256	15.949	842.797	631.418
328.270	15.960	842.260	631.000
329.285	16.208	841.678	631.437
330.300	16.003	840.863	630.003
331.314	16.049	840.341	629.728
332.329	16.118	839.585	629.363
333.343	16.004	838.952	628.408
334.358	15.994	838.512	627.987
335.373	16.288	837.924	628.583
336.387	16.123	837.570	627.650
337.402	16.135	837.212	627.370
338.416	16.276	836.573	627.358
339.431	16.350	835.956	627.115
340.446	16.398	835.204	626.675
341.460	16.382	834.931	626.354
342.475	16.307	834.312	625.557
343.489	16.267	833.877	625.028
344.504	16.311	833.390	624.770
345.519	16.286	832.597	624.027
346.533	16.423	831.999	624.030
347.548	16.469	831.751	623.957
348.562	16.427	831.075	623.242
349.577	16.419	830.546	622.761
350.592	16.323	830.265	622.142
351.606	16.342	829.746	621.767
352.621	16.314	829.083	621.112
353.635	16.330	829.107	621.135
354.650	16.454	828.412	621.015
355.665	16.250	828.268	620.100
356.679	16.454	827.351	620.110
357.694	16.494	826.991	619.930
358.708	16.493	826.231	619.302
359.723	16.500	825.911	619.034
360.738	16.671	824.957	618.889
361.752	16.708	824.570	618.680
362.767	16.660	824.139	618.126
363.781	16.713	823.978	618.143
364.796	16.679	823.610	617.690
365.810	16.707	823.093	617.349
366.825	16.629	822.983	616.925
367.840	16.613	822.229	616.249
368.854	16.654	822.323	616.415
369.869	16.817	821.389	616.250
370.883	16.769	820.805	615.585
371.898	16.746	820.100	614.920
372.913	16.809	819.676	614.776
373.927	16.865	818.834	614.291
374.942	16.807	818.263	613.601
375.956	16.922	817.476	613.372
376.971	16.813	817.497	612.939
377.986	16.892	816.816	612.657
379.000	17.035	815.910	612.439
380.015	16.947	815.666	611.884
381.029	17.017	814.889	611.503
382.044	16.908	814.785	610.975
383.059	17.173	813.825	611.155
384.073	16.918	813.754	610.130
385.088	16.840	813.005	609.235
386.102	16.931	812.907	609.434
387.117	17.113	811.724	609.146
388.132	16.957	811.207	608.144
389.146	17.000	811.312	608.324
390.161	17.162	810.912	608.552
391.175	16.995	810.973	607.946
392.190	17.085	809.807	607.339
393.205	17.179	809.021	607.031
394.219	17.218	808.912	607.035
395.234	17.149	808.322	606.293
396.248	17.007	808.112	605.575
397.263	16.982	807.502	604.976
398.278	16.921	807.098	604.402
399.292	17.180	806.544	604.856
400.307	17.079	806.341	604.290
401.321	17.019	805.896	603.691
402.336	17.098	805.498	603.621
403.350	17.180	805.002	603.487
404.365	17.120	804.412	602.778
405.380	17.175	804.293	602.830
406.394	17.328	803.629	602.821
407.409	17.117	803.127	601.645
408.423	17.284	802.507	601.717
409.438	17.241	802.285	601.344
410.453	17.459	801.622	601.567
411.467	17.482	801.230	601.300
412.482	17.432	800.709	600.678
413.496	17.521	800.438	600.738
414.511	17.409	800.397	600.257
415.526	17.499	799.543	599.880
416.540	17.507	799.411	599.756
417.555	17.442	798.911	599.101
418.569	17.580	798.013	598.859
419.584	17.590	797.486	598.444
420.599	17.559	797.349	598.180
421.613	113.419	1298.319	1487.148
422.628	97.667	1371.286	1487.240
