DTS Sentinel unit serial number:	SN413079Multiplexer serial number:	ORYXHardware model number:	OX4-SRSoftware version number:	ORYX F/W v4.00 Oryx Data Collector v3.7.2.0data status	okinstallation	princeton_trtdifferential loss correction	single-endedforward channel	channel 3reverse channel	N/Adate	2019/09/19time	02:04:35forward acquisition time	60.00reverse acquisition time	0.00gamma	496.2192k internal	0.2348k external	0.2348temperature offset calibration	0.9987default loss term (dB/km)	0.3790temperature slope calibration	1.0000multiplexer offset coefficient	1.0000multiplexer slope coefficient	1.0000fibre end	0.00T internal ref (°C)	21.25T ext. ref 1 (°C)	0.67T ext. ref 2 (°C)	14.90length (m)	temperature (°C)	Stokes	anti-Stokes-747.200	-200.000	0.033	0.328
-746.185	-4.395	-0.465	0.321
-745.171	-200.000	0.045	0.214
-744.156	-200.000	0.118	0.000
-743.142	70.351	-0.143	-0.148
-742.127	786.833	0.061	0.167
-741.112	-85.363	0.235	-0.073
-740.098	79.813	-0.114	-0.123
-739.083	93.767	0.102	-0.115
-738.069	97.703	0.234	-0.269
-737.054	-80.487	0.417	0.139
-736.039	56.977	-0.194	-0.189
-735.025	118.365	-0.157	0.194
-734.010	-80.569	-0.569	-0.189
-732.996	5.498	-0.300	-0.221
-731.981	-171.546	0.348	0.012
-730.966	-47.775	-0.207	0.100
-729.952	-200.000	-0.014	0.091
-728.937	48.941	-0.118	-0.111
-727.923	-66.181	-0.273	-0.109
-726.908	-200.000	0.048	0.217
-725.894	-200.000	-0.040	-0.234
-724.879	412.698	-0.104	-0.222
-723.864	266.825	0.177	-0.309
-722.850	800.000	0.073	-0.247
-721.835	35.707	-0.267	-0.234
-720.821	-200.000	-0.009	0.056
-719.806	-151.937	0.052	-0.004
-718.791	69.432	0.213	-0.219
-717.777	-42.570	-0.399	-0.203
-716.762	-20.445	0.099	0.061
-715.748	456.947	0.049	-0.108
-714.733	0.423	-0.286	0.204
-713.718	-200.000	-0.051	-0.317
-712.704	74.752	0.273	-0.287
-711.689	-21.142	-0.277	0.169
-710.675	118.206	-0.051	-0.063
-709.660	297.844	0.153	0.280
-708.645	-200.000	0.042	-0.224
-707.631	76.659	-0.210	-0.222
-706.616	-185.375	0.081	0.001
-705.602	68.409	0.132	-0.135
-704.587	-83.042	-0.142	0.046
-703.572	-200.000	-0.029	-0.196
-702.558	266.555	0.057	-0.100
-701.543	800.000	0.060	0.171
-700.529	43.478	0.289	-0.263
-699.514	270.583	-0.172	-0.301
-698.499	-200.000	-0.005	0.027
-697.485	-20.711	-0.153	-0.094
-696.470	88.640	0.078	-0.087
-695.456	800.000	0.054	0.158
-694.441	604.958	-0.015	-0.038
-693.426	43.380	0.295	-0.269
-692.412	-22.713	-0.111	-0.067
-691.397	-101.176	0.192	-0.047
-690.383	26.984	0.222	-0.185
-689.368	-30.836	-0.101	0.057
-688.354	-112.187	-0.114	-0.023
-687.339	-126.739	0.198	-0.029
-686.324	108.764	0.091	-0.109
-685.310	265.985	-0.188	-0.328
-684.295	-96.326	0.310	-0.082
-683.281	-8.260	-0.333	-0.223
-682.266	800.000	-0.041	0.132
-681.251	-31.251	-0.162	-0.091
-680.237	418.244	0.132	-0.281
-679.222	794.541	-0.041	-0.113
-678.208	628.824	-0.060	0.150
-677.193	10.097	-0.046	-0.035
-676.178	-43.615	-0.226	-0.114
-675.164	98.200	-0.094	0.108
-674.149	70.763	0.137	0.142
-673.135	-117.352	-0.024	0.004
-672.120	28.147	0.276	-0.232
-671.105	-100.711	-0.407	0.100
-670.091	61.416	-0.158	0.156
-669.076	-200.000	0.013	0.127
-668.062	255.364	-0.076	0.129
-667.047	213.163	-0.103	-0.161
-666.032	800.000	0.101	-0.390
-665.018	127.859	0.314	0.398
-664.003	-127.181	0.157	0.023
-662.989	-60.233	-0.092	-0.039
-661.974	63.184	0.005	0.005
-660.959	-200.000	-0.013	0.294
-659.945	42.389	-0.130	-0.118
-658.930	-61.958	-0.018	0.007
-657.916	-65.478	0.055	0.022
-656.901	54.812	-0.211	-0.203
-655.886	800.000	0.073	-0.260
-654.872	-200.000	0.016	-0.268
-653.857	40.142	-0.148	-0.133
-652.843	800.000	0.042	-0.146
-651.828	23.823	-0.305	-0.250
-650.814	403.739	-0.068	0.143
-649.799	-200.000	-0.003	-0.046
-648.784	264.222	-0.044	0.076
-647.770	307.983	0.046	0.086
-646.755	410.127	0.131	-0.276
-645.741	15.850	0.257	0.201
-644.726	800.000	-0.112	0.489
-643.711	249.674	0.094	0.159
-642.697	800.000	-0.038	0.152
-641.682	800.000	-0.149	-0.420
-640.668	239.329	0.057	-0.094
-639.653	-86.979	0.304	0.092
-638.638	696.632	-0.079	-0.206
-637.624	-11.813	-0.171	0.112
-636.609	141.233	0.081	-0.107
-635.595	-167.002	-0.503	-0.020
-634.580	-200.000	0.002	0.092
-633.565	20.969	0.137	0.111
-632.551	-200.000	-0.044	-0.330
-631.536	800.000	-0.044	-0.150
-630.522	800.000	0.104	-0.402
-629.507	209.040	-0.078	0.122
-628.492	372.961	-0.123	-0.248
-627.478	-154.173	-0.227	-0.015
-626.463	238.724	-0.107	0.176
-625.449	209.210	-0.242	0.377
-624.434	6.373	0.091	0.067
-623.419	-103.364	-0.150	0.035
-622.405	800.000	0.054	-0.161
-621.390	-59.025	0.376	-0.161
-620.376	64.283	0.273	-0.273
-619.361	-200.000	0.010	-0.065
-618.346	76.213	0.268	-0.283
-617.332	-109.490	-0.123	-0.026
-616.317	-77.887	0.076	0.026
-615.303	-56.876	0.222	-0.098
-614.288	1.499	-0.221	0.158
-613.273	325.400	0.046	0.087
-612.259	-89.813	-0.135	-0.039
-611.244	-200.000	0.059	-0.267
-610.230	738.153	-0.118	-0.314
-609.215	-21.371	-0.209	0.127
-608.201	-9.492	0.038	-0.025
-607.186	-35.423	0.183	0.099
-606.171	378.632	0.050	-0.101
-605.157	247.015	0.076	-0.127
-604.142	-2.926	0.124	-0.086
-603.128	150.375	0.167	-0.225
-602.113	103.319	-0.066	0.077
-601.098	-127.691	0.197	0.028
-600.084	800.000	0.132	-0.470
-599.069	46.287	0.195	0.179
-598.055	-193.821	-0.133	0.001
-597.040	-160.517	-0.197	-0.010
-596.025	-59.417	0.348	-0.149
-595.011	123.711	-0.246	-0.307
-593.996	800.000	-0.135	0.413
-592.982	-200.000	-0.060	0.287
-591.967	800.000	0.026	-0.087
-590.952	238.591	0.172	0.284
-589.938	-80.110	-0.457	0.152
-588.923	-39.333	-0.260	-0.136
-587.909	-7.777	-0.225	0.151
-586.894	800.000	-0.059	0.175
-585.879	449.552	0.144	0.316
-584.865	-115.578	0.293	0.055
-583.850	788.019	-0.085	0.230
-582.836	800.000	0.009	-0.027
-581.821	382.217	0.086	-0.176
-580.806	-120.168	-0.265	0.045
-579.792	21.462	-0.148	-0.119
-578.777	-72.743	0.353	-0.129
-577.763	-200.000	-0.010	0.069
-576.748	-52.995	0.135	-0.062
-575.733	476.871	0.049	-0.110
-574.719	-200.000	0.026	-0.234
-573.704	-192.831	0.239	-0.002
-572.690	74.782	0.088	-0.091
-571.675	363.118	-0.114	0.226
-570.661	-40.279	-0.134	0.069
-569.646	263.106	0.255	0.440
-568.631	239.888	-0.175	-0.289
-567.617	-200.000	-0.014	-0.104
-566.602	37.536	0.309	0.272
-565.588	-54.971	0.327	0.146
-564.573	-57.454	0.475	0.207
-563.558	800.000	0.047	0.152
-562.544	83.724	0.080	0.086
-561.529	611.645	0.054	-0.135
-560.515	115.780	0.125	0.152
-559.500	-84.133	-0.127	-0.040
-558.485	126.221	-0.201	-0.253
-557.471	-137.956	-0.285	-0.032
-556.456	129.088	-0.107	0.136
-555.442	160.470	-0.253	0.349
-554.427	-48.268	-0.129	0.062
-553.412	-17.251	0.231	0.144
-552.398	88.952	-0.254	0.280
-551.383	29.434	0.033	0.028
-550.369	-93.984	-0.319	-0.087
-549.354	6.112	0.179	-0.131
-548.339	-8.545	-0.337	0.224
-547.325	215.044	0.102	-0.161
-546.310	-56.229	0.234	-0.103
-545.296	-172.773	-0.151	0.005
-544.281	-111.917	-0.262	-0.052
-543.266	-72.996	-0.084	-0.031
-542.252	138.819	0.034	0.045
-541.237	44.790	0.369	-0.337
-540.223	-200.000	-0.027	-0.331
-539.208	-200.000	-0.040	0.366
-538.193	-200.000	0.028	0.176
-537.179	-38.660	-0.243	-0.127
-536.164	-80.438	-0.176	0.058
-535.150	8.822	-0.063	-0.047
-534.135	25.657	-0.261	0.215
-533.121	-52.518	0.181	-0.083
-532.106	-39.393	-0.110	0.057
-531.091	154.486	-0.070	-0.095
-530.077	226.138	-0.063	0.102
-529.062	658.698	0.053	0.135
-528.048	-132.395	0.259	-0.033
-527.033	-77.094	-0.103	-0.036
-526.018	-57.725	-0.066	-0.029
-525.004	-200.000	-0.009	-0.135
-523.989	-200.000	0.029	0.275
-522.975	-99.707	-0.071	0.018
-521.960	52.616	0.054	-0.051
-520.945	127.440	-0.063	-0.079
-519.931	-155.227	-0.275	-0.018
-518.916	-200.000	-0.032	-0.146
-517.902	368.556	-0.100	-0.200
-516.887	-200.000	0.031	0.191
-515.872	-81.322	-0.054	0.018
-514.858	800.000	0.142	-0.493
-513.843	704.158	-0.029	0.075
-512.829	685.566	-0.117	-0.303
-511.814	800.000	-0.016	0.050
-510.799	-200.000	-0.007	-0.092
-509.785	-99.523	-0.370	-0.092
-508.770	318.420	0.089	-0.166
-507.756	-200.000	0.039	-0.378
-506.741	-70.370	0.114	0.043
-505.726	-25.156	0.153	0.090
-504.712	-200.000	-0.023	0.153
-503.697	-129.549	0.160	0.022
-502.683	-200.000	0.016	-0.096
-501.668	800.000	0.105	0.433
-500.653	-25.136	-0.231	-0.136
-499.639	570.980	-0.237	-0.570
-498.624	294.914	0.151	-0.274
-497.610	-200.000	-0.020	-0.299
-496.595	800.000	-0.039	-0.149
-495.581	800.000	0.042	0.141
-494.566	-17.386	-0.346	0.215
-493.551	-33.858	-0.192	0.105
-492.537	-119.674	-0.191	0.033
-491.522	573.216	-0.112	0.269
-490.508	-55.054	0.167	0.074
-489.493	231.215	-0.060	-0.097
-488.478	702.032	-0.107	-0.280
-487.464	-77.238	-0.143	0.049
-486.449	-200.000	-0.349	0.000
-485.435	287.335	-0.073	0.131
-484.420	56.311	0.084	0.081
-483.405	-80.331	0.421	-0.139
-482.391	279.712	0.073	-0.130
-481.376	222.777	-0.122	-0.194
-480.362	-66.879	-0.194	-0.076
-479.347	49.306	-0.283	-0.263
-478.332	23.408	-0.230	0.187
-477.318	-200.000	0.035	-0.406
-476.303	-200.000	0.007	0.043
-475.289	382.221	0.035	0.072
-474.274	-91.742	0.522	0.147
-473.259	-79.997	-0.209	0.069
-472.245	-54.242	0.171	0.077
-471.230	-77.003	0.032	-0.011
-470.216	225.864	0.089	-0.142
-469.201	800.000	0.036	0.145
-468.186	174.042	-0.101	0.145
-467.172	-199.343	0.132	-0.001
-466.157	-200.000	0.010	0.110
-465.143	-200.000	0.037	-0.315
-464.128	-200.000	0.006	-0.070
-463.113	-200.000	0.046	0.360
-462.099	-200.000	0.045	-0.219
-461.084	91.306	-0.165	0.183
-460.070	-42.736	-0.235	0.118
-459.055	98.633	0.156	-0.177
-458.040	800.000	-0.079	-0.232
-457.026	-200.000	0.022	0.146
-456.011	-50.927	0.090	-0.042
-454.997	-118.276	0.174	0.031
-453.982	-98.105	-0.460	0.117
-452.968	800.000	0.088	0.371
-451.953	124.148	0.081	-0.100
-450.938	222.536	0.170	-0.271
-449.924	800.000	0.044	-0.136
-448.909	24.187	0.177	0.144
-447.895	-68.817	0.054	-0.021
-446.880	-200.000	-0.064	0.387
-445.865	-24.857	-0.206	-0.121
-444.851	3.952	0.276	0.199
-443.836	-200.000	-0.005	0.256
-442.822	-80.479	0.334	0.110
-441.807	800.000	0.112	0.413
-440.792	-44.070	-0.191	0.095
-439.778	-200.000	-0.014	-0.142
-438.763	-68.380	-0.353	-0.135
-437.749	52.289	-0.111	0.105
-436.734	800.000	-0.094	-0.337
-435.719	-94.055	0.375	-0.102
-434.705	298.466	-0.137	-0.249
-433.690	395.140	-0.053	-0.110
-432.676	91.785	0.102	0.114
-431.661	-200.000	-0.026	0.175
-430.646	98.550	0.165	-0.188
-429.632	-200.000	-0.045	0.271
-428.617	214.050	-0.163	0.255
-427.603	512.648	-0.010	0.023
-426.588	-200.000	0.005	-0.203
-425.573	91.919	0.115	0.128
-424.559	606.120	-0.044	-0.108
-423.544	-116.951	0.397	0.072
-422.530	800.000	-0.045	-0.158
-421.515	-200.000	0.025	-0.142
-420.500	-63.743	0.184	0.074
-419.486	663.385	0.085	-0.216
-418.471	800.000	-0.110	-0.447
-417.457	87.134	-0.152	-0.166
-416.442	355.991	-0.031	-0.060
-415.428	427.775	0.113	-0.241
-414.413	800.000	0.066	0.248
-413.398	800.000	-0.182	0.608
-412.384	52.345	-0.205	-0.193
-411.369	800.000	-0.054	-0.193
-410.355	-60.325	0.162	-0.068
-409.340	-23.208	-0.055	0.033
-408.325	-25.404	-0.227	-0.132
-407.311	-104.070	0.288	-0.066
-406.296	-85.362	0.269	-0.083
-405.282	674.101	-0.031	0.080
-404.267	740.781	0.059	0.155
-403.252	-61.742	0.039	-0.016
-402.238	286.539	0.095	-0.168
-401.223	-4.382	0.136	-0.093
-400.209	101.293	-0.066	0.076
-399.194	-38.328	0.171	0.089
-398.179	-109.982	-0.097	-0.020
-397.165	-57.226	0.064	-0.028
-396.150	800.000	0.036	0.144
-395.136	127.223	-0.192	-0.240
-394.121	-134.371	-0.075	0.009
-393.106	-200.000	-0.024	-0.172
-392.092	-200.000	-0.027	0.218
-391.077	-16.346	-0.035	-0.022
-390.063	8.738	0.240	0.179
-389.048	377.000	-0.095	0.191
-388.033	-200.000	-0.052	-0.307
-387.019	95.754	0.176	-0.198
-386.004	-130.428	0.280	-0.037
-384.990	-116.714	0.013	0.002
-383.975	-102.903	-0.321	0.075
-382.960	-200.000	0.001	0.082
-381.946	65.855	0.273	-0.273
-380.931	50.960	0.264	0.246
-379.917	-117.354	0.255	-0.046
-378.902	-91.376	0.174	0.049
-377.888	295.394	0.208	0.375
-376.873	138.487	0.086	0.111
-375.858	-63.118	0.164	0.067
-374.844	-64.523	0.239	-0.096
-373.829	-170.698	0.032	0.001
-372.815	140.188	0.087	0.114
-371.800	361.606	-0.054	-0.107
-370.785	-72.753	-0.264	0.096
-369.771	-46.538	0.309	-0.149
-368.756	-12.746	0.106	0.068
-367.742	-1.868	-0.253	0.175
-366.727	800.000	-0.025	0.092
-365.712	-103.463	0.210	0.049
-364.698	-200.000	0.036	-0.245
-363.683	70.136	-0.072	0.073
-362.669	800.000	-0.212	0.627
-361.654	37.898	0.072	0.063
-360.639	-33.470	0.428	-0.233
-359.625	100.035	-0.190	0.216
-358.610	-79.041	0.077	-0.026
-357.596	194.980	0.161	0.240
-356.581	249.671	-0.088	-0.148
-355.566	800.000	-0.087	-0.325
-354.552	-44.176	0.148	-0.073
-353.537	-121.486	0.234	-0.038
-352.523	17.119	-0.024	0.018
-351.508	82.655	-0.300	0.321
-350.493	464.658	-0.099	0.217
-349.479	-113.881	-0.147	0.028
-348.464	-58.240	-0.166	0.071
-347.450	45.536	0.326	0.296
-346.435	-68.996	-0.005	0.002
-345.420	154.546	0.195	-0.263
-344.406	-200.000	0.024	-0.192
-343.391	128.304	0.161	0.201
-342.377	364.188	-0.055	0.109
-341.362	347.705	0.134	-0.259
-340.348	402.424	0.023	-0.047
-339.333	483.432	-0.166	0.372
-338.318	-200.000	0.027	0.391
-337.304	141.036	0.149	-0.193
-336.289	-200.000	-0.011	-0.246
-335.275	125.732	0.130	-0.162
-334.260	144.722	-0.159	0.208
-333.245	-72.898	-0.321	-0.116
-332.231	-94.772	-0.215	0.057
-331.216	-48.956	0.179	-0.084
-330.202	29.670	-0.087	-0.073
-329.187	-64.402	0.121	0.048
-328.172	4.595	-0.351	0.253
-327.158	-73.089	-0.329	0.119
-326.143	-200.000	-0.001	0.038
-325.129	-200.000	0.041	-0.301
-324.114	72.136	0.160	0.163
-323.099	800.000	0.085	0.244
-322.085	71.294	0.258	-0.264
-321.070	-35.350	0.214	-0.114
-320.056	-135.978	0.110	-0.013
-319.041	36.024	0.245	0.212
-318.026	-53.494	-0.255	-0.115
-317.012	101.243	-0.048	0.055
-315.997	229.600	-0.090	-0.145
-314.983	800.000	0.086	-0.320
-313.968	-200.000	-0.052	-0.326
-312.953	-1.854	-0.016	-0.011
-311.939	81.457	-0.101	-0.107
-310.924	523.506	-0.098	-0.225
-309.910	-76.079	0.199	-0.069
-308.895	-200.000	0.003	-0.141
-307.880	-200.000	-0.057	-0.489
-306.866	67.808	0.159	-0.160
-305.851	765.031	-0.117	0.313
-304.837	5.422	-0.161	-0.117
-303.822	-72.313	-0.296	-0.108
-302.807	-85.591	-0.222	-0.068
-301.793	-5.864	-0.283	-0.190
-300.778	800.000	0.086	-0.291
-299.764	-104.943	-0.186	0.042
-298.749	800.000	-0.053	0.168
-297.735	26.417	0.259	0.212
-296.720	-200.000	-0.020	0.217
-295.705	-148.963	0.260	-0.021
-294.691	-200.000	-0.012	-0.169
-293.676	-200.000	0.002	-0.203
-292.662	800.000	-0.157	-0.445
-291.647	-91.505	-0.115	0.032
-290.632	800.000	-0.048	-0.156
-289.618	92.761	-0.046	-0.051
-288.603	94.169	-0.182	-0.202
-287.589	800.000	-0.078	0.295
-286.574	145.462	-0.147	-0.193
-285.559	37.706	0.275	0.239
-284.545	-43.625	0.132	-0.065
-283.530	-118.296	-0.332	0.058
-282.516	800.000	0.071	-0.245
-281.501	-200.000	-0.047	0.297
-280.486	-36.145	-0.243	0.129
-279.472	800.000	-0.131	-0.397
-278.457	-75.904	0.275	0.096
-277.443	29.970	0.222	-0.186
-276.428	394.352	0.084	-0.173
-275.413	-150.925	-0.159	0.012
-274.399	114.962	-0.136	0.163
-273.384	233.510	-0.226	-0.364
-272.370	-32.030	-0.241	0.132
-271.355	800.000	-0.069	0.270
-270.340	800.000	0.088	0.285
-269.326	800.000	-0.090	0.289
-268.311	363.246	-0.141	-0.278
-267.297	-67.954	-0.138	-0.053
-266.282	-200.000	0.026	-0.184
-265.267	215.376	-0.115	-0.178
-264.253	24.479	0.176	-0.143
-263.238	17.291	-0.278	-0.216
-262.224	-200.000	0.062	-0.303
-261.209	668.133	-0.049	0.124
-260.195	-200.000	0.012	0.226
-259.180	502.821	0.063	0.143
-258.165	-115.159	-0.326	0.061
-257.151	-200.000	-0.059	0.297
-256.136	506.446	-0.104	0.236
-255.122	-59.012	0.425	0.180
-254.107	-200.000	-0.021	-0.371
-253.092	-102.438	-0.277	-0.065
-252.078	-200.000	0.000	-0.003
-251.063	-138.543	-0.244	0.026
-250.049	-121.494	0.203	0.033
-249.034	-60.349	0.212	-0.089
-248.019	211.054	-0.130	0.200
-247.005	-200.000	-0.031	0.174
-245.990	-200.000	0.055	-0.327
-244.976	235.535	0.135	0.218
-243.961	-123.857	0.175	-0.027
-242.946	-51.915	0.247	0.112
-241.932	-23.408	-0.374	0.220
-240.917	516.000	0.096	0.220
-239.903	113.663	0.197	-0.235
-238.888	128.782	-0.289	-0.360
-237.873	-90.946	0.241	0.068
-236.859	-188.111	-0.030	-0.000
-235.844	-200.000	-0.050	0.328
-234.830	-151.563	-0.130	-0.009
-233.815	34.803	0.166	0.142
-232.800	-200.000	-0.030	0.395
-231.786	673.850	0.069	0.175
-230.771	171.837	0.165	0.233
-229.757	-120.035	-0.279	0.047
-228.742	-200.000	0.018	0.159
-227.727	423.392	-0.059	-0.125
-226.713	-94.169	0.271	0.073
-225.698	-70.101	0.205	0.076
-224.684	126.461	0.299	-0.370
-223.669	15.347	0.046	-0.035
-222.655	-106.207	-0.165	-0.036
-221.640	-89.603	0.208	-0.060
-220.625	800.000	0.049	0.204
-219.611	82.392	-0.165	0.175
-218.596	-200.000	0.028	0.139
-217.582	108.053	-0.240	0.280
-216.567	-22.230	0.025	0.015
-215.552	-84.052	0.248	-0.077
-214.538	-70.278	-0.131	0.049
-213.523	174.532	0.118	-0.167
-212.509	-200.000	0.038	0.182
-211.494	800.000	0.086	0.280
-210.479	183.430	-0.248	-0.359
-209.465	-98.083	-0.040	-0.010
-208.450	-39.944	0.165	-0.084
-207.436	-59.573	-0.223	0.094
-206.421	95.753	0.121	-0.135
-205.406	-200.000	0.013	-0.146
-204.392	387.135	-0.180	0.364
-203.377	-200.000	-0.012	0.309
-202.363	36.943	0.031	0.027
-201.348	-200.000	0.035	0.291
-200.333	2.384	-0.077	0.055
-199.319	43.251	0.150	0.134
-198.304	-200.000	-0.023	0.215
-197.290	-87.822	0.371	-0.109
-196.275	800.000	0.107	-0.310
-195.260	255.607	-0.012	0.020
-194.246	-114.655	-0.127	-0.024
-193.231	-133.537	0.110	0.013
-192.217	-129.160	0.047	0.006
-191.202	15.580	-0.152	-0.117
-190.187	800.000	0.087	0.341
-189.173	-200.000	0.016	-0.106
-188.158	-200.000	-0.035	-0.188
-187.144	-32.738	0.171	0.093
-186.129	680.353	0.042	0.108
-185.114	60.190	-0.222	0.215
-184.100	187.470	0.203	0.295
-183.085	-28.801	-0.031	-0.017
-182.071	-167.081	-0.174	0.007
-181.056	73.980	-0.081	0.083
-180.042	-32.657	0.168	0.091
-179.027	-200.000	0.035	0.250
-178.012	362.088	0.074	-0.145
-176.998	-25.465	-0.058	0.033
-175.983	-74.895	0.087	0.030
-174.969	-200.000	0.045	-0.193
-173.954	-24.130	-0.198	0.115
-172.939	-4.323	0.412	0.278
-171.925	112.124	0.229	0.271
-170.910	-41.246	-0.296	-0.149
-169.896	800.000	0.041	-0.176
-168.881	-120.797	-0.202	0.033
-167.866	-200.000	-0.021	-0.372
-166.852	-175.433	-0.109	-0.003
-165.837	342.632	0.116	-0.221
-164.823	-25.262	-0.170	-0.098
-163.808	510.712	-0.085	0.192
-162.793	-200.000	0.021	-0.155
-161.779	-200.000	0.033	0.166
-160.764	86.403	-0.021	0.023
-159.750	-200.000	-0.011	0.122
-158.735	-107.214	-0.441	0.095
-157.720	-61.615	-0.147	0.060
-156.706	137.953	0.179	-0.229
-155.691	-81.966	0.151	0.048
-154.677	800.000	0.036	0.106
-153.662	177.078	0.143	-0.204
-152.647	-112.668	-0.140	-0.027
-151.633	187.808	0.100	-0.145
-150.618	25.197	0.147	0.119
-149.604	72.710	0.239	0.243
-148.589	-125.996	0.360	-0.053
-147.574	327.984	0.155	0.291
-146.560	-66.596	-0.485	0.188
-145.545	-82.887	0.436	-0.137
-144.531	-200.000	0.012	0.195
-143.516	25.105	-0.148	0.119
-142.502	32.956	0.328	0.277
-141.487	-200.000	0.023	0.160
-140.472	-138.847	0.031	0.003
-139.458	-12.559	0.322	-0.205
-138.443	-88.751	-0.461	0.134
-137.429	-57.761	-0.160	0.068
-136.414	364.694	-0.052	0.102
-135.399	-200.000	-0.030	-0.133
-134.385	130.073	-0.102	-0.128
-133.370	195.152	0.079	-0.117
-132.356	17.959	0.112	-0.087
-131.341	-18.023	-0.235	-0.144
-130.326	155.401	0.148	-0.199
-129.312	-80.631	-0.169	0.055
-128.297	-41.694	0.315	0.158
-127.283	31.787	0.197	0.166
-126.268	133.920	-0.169	0.213
-125.253	-200.000	-0.017	-0.248
-124.239	485.807	0.078	-0.174
-123.224	-40.126	0.199	0.101
-122.210	-200.000	0.008	0.056
-121.195	-144.081	-0.089	0.008
-120.180	800.000	-0.043	0.127
-119.166	-178.603	0.142	0.003
-118.151	-91.668	-0.132	-0.036
-117.137	515.506	-0.201	0.458
-116.122	-44.596	0.367	0.179
-115.107	-200.000	-0.004	0.277
-114.093	-84.307	0.298	0.092
-113.078	-42.828	-0.362	0.179
-112.064	-200.000	-0.033	0.277
-111.049	333.987	0.052	0.098
-110.034	-26.124	-0.324	-0.186
-109.020	-200.000	0.009	-0.252
-108.005	-130.870	-0.229	0.030
-106.991	-137.356	-0.292	0.032
-105.976	-143.190	0.210	-0.020
-104.962	-37.722	-0.169	0.088
-103.947	-0.930	-0.187	-0.129
-102.932	-200.000	0.032	0.147
-101.918	-200.000	-0.030	-0.238
-100.903	76.952	-0.065	0.068
-99.889	159.913	0.071	0.097
-98.874	-55.207	-0.228	-0.100
-97.859	-200.000	0.003	-0.064
-96.845	-146.349	-0.316	-0.027
-95.830	-77.010	0.266	0.090
-94.816	-41.691	-0.380	0.190
-93.801	-186.227	-0.266	0.004
-92.786	-200.000	0.024	0.251
-91.772	26.310	0.273	0.223
-90.757	420.809	-0.252	0.526
-89.743	22.698	0.233	0.186
-88.728	-37.130	-0.073	-0.038
-87.713	-15.032	0.052	-0.032
-86.699	-200.000	0.001	-0.086
-85.684	-19.185	-0.153	-0.093
-84.670	239.911	-0.100	-0.162
-83.655	-158.466	0.272	0.015
-82.640	510.716	0.090	0.205
-81.626	1.204	0.203	-0.142
-80.611	-95.455	0.264	0.069
-79.597	-200.000	-0.073	0.436
-78.582	-128.150	-0.231	0.032
-77.567	16.015	0.083	0.063
-76.553	-51.706	-0.087	-0.039
-75.538	177.646	-0.185	0.262
-74.524	-200.000	-0.004	0.167
-73.509	800.000	0.056	-0.229
-72.494	800.000	-0.058	-0.174
-71.480	93.755	-0.175	-0.193
-70.465	11.092	-0.266	0.198
-69.451	174.719	0.216	0.303
-68.436	60.666	0.220	-0.212
-67.422	-75.167	-0.125	-0.044
-66.407	-72.945	-0.105	-0.037
-65.392	625.344	-0.106	0.260
-64.378	-58.266	0.260	-0.110
-63.363	111.096	0.135	-0.158
-62.349	72.751	-0.216	0.219
-61.334	53.000	-0.918	-0.854
-60.319	187.856	0.642	0.932
-59.305	255.258	-0.763	-1.271
-58.290	255.234	0.673	1.121
-57.276	165.433	0.856	1.177
-56.261	-200.000	134.457	684.646
-55.246	340.681	1675.804	3181.453
-54.232	134.593	2804.102	3537.770
-53.217	87.858	2193.910	2364.364
-52.203	31.389	1709.722	1427.957
-51.188	24.191	1533.051	1230.831
-50.173	22.574	1510.871	1201.955
-49.159	46.863	1586.371	1433.375
-48.144	43.673	1596.683	1420.283
-47.130	24.305	1545.215	1241.193
-46.115	21.557	1529.004	1209.166
-45.100	21.283	1525.903	1204.777
-44.086	21.289	1523.818	1203.123
-43.071	21.186	1522.050	1200.972
-42.057	21.181	1520.420	1199.605
-41.042	21.242	1518.903	1198.775
-40.027	21.261	1517.343	1197.629
-39.013	21.156	1516.108	1195.886
-37.998	21.098	1515.047	1194.606
-36.984	21.201	1513.717	1194.215
-35.969	21.230	1512.192	1193.160
-34.954	21.187	1511.094	1191.953
-33.940	21.185	1509.655	1190.761
-32.925	21.282	1508.150	1190.183
-31.911	21.279	1507.166	1189.340
-30.896	21.231	1505.732	1187.833
-29.881	21.289	1504.770	1187.420
-28.867	21.350	1503.092	1186.464
-27.852	21.287	1501.491	1184.728
-26.838	21.352	1500.190	1184.098
-25.823	21.293	1498.759	1182.519
-24.809	21.320	1496.826	1181.127
-23.794	21.278	1495.901	1180.069
-22.779	21.318	1494.679	1179.326
-21.765	21.292	1493.537	1178.202
-20.750	21.279	1492.821	1177.507
-19.736	21.177	1492.048	1176.165
-18.721	21.214	1491.156	1175.663
-17.706	21.264	1489.670	1174.781
-16.692	21.221	1488.744	1173.713
-15.677	21.213	1487.381	1172.539
-14.663	21.324	1485.937	1172.097
-13.648	21.285	1484.920	1170.990
-12.633	21.281	1483.958	1170.159
-11.619	21.234	1483.805	1169.673
-10.604	21.328	1482.311	1169.078
-9.590	21.283	1481.764	1168.303
-8.575	21.157	1481.294	1167.042
-7.560	21.242	1479.845	1166.419
-6.546	21.329	1478.837	1166.163
-5.531	21.274	1478.342	1165.360
-4.517	21.160	1477.242	1163.684
-3.502	21.215	1476.277	1163.245
-2.487	21.190	1475.400	1162.344
-1.473	21.221	1474.164	1161.526
-0.458	21.211	1472.729	1160.283
0.556	20.140	1462.736	1148.594
1.571	16.880	1438.542	1108.224
2.586	13.507	1376.246	1039.008
3.600	11.918	1291.592	965.648
4.615	10.949	1247.989	927.444
5.629	9.619	1191.407	878.075
6.644	5.050	1111.006	795.482
7.659	1.267	1076.867	752.244
8.673	0.820	1070.919	745.822
9.688	0.710	1067.648	742.935
10.702	0.461	1066.540	740.876
11.717	0.700	1063.767	740.055
12.731	2.130	1064.241	747.321
13.746	7.587	1071.469	779.158
14.761	13.868	1080.042	816.298
15.775	16.867	1083.637	833.711
16.790	16.815	1082.685	832.649
17.804	15.969	1080.159	826.485
18.819	15.137	1078.296	820.912
19.834	14.623	1077.018	817.350
20.848	14.430	1076.040	815.589
21.863	14.176	1075.299	813.711
22.877	14.062	1074.261	812.298
23.892	13.668	1073.940	810.058
24.907	13.597	1072.694	808.703
25.921	13.514	1072.099	807.779
26.936	13.609	1071.534	807.741
27.950	13.672	1070.556	807.240
28.965	13.759	1070.030	807.196
29.980	13.730	1069.046	806.243
30.994	13.798	1068.031	805.736
32.009	13.815	1067.410	805.275
33.023	13.912	1066.157	804.730
34.038	13.739	1065.944	803.659
35.053	13.777	1064.589	802.753
36.067	13.744	1064.017	802.091
37.082	13.735	1063.195	801.357
38.096	13.705	1062.431	800.562
39.111	13.827	1061.519	800.392
40.126	13.756	1060.834	799.466
41.140	13.883	1059.437	798.953
42.155	13.736	1058.174	797.224
43.169	13.612	1057.335	795.925
44.184	13.612	1056.437	795.177
45.199	13.597	1055.376	794.238
46.213	13.547	1054.527	793.288
47.228	13.591	1053.628	792.754
48.242	13.697	1052.431	792.291
49.257	13.832	1051.017	791.799
50.271	13.731	1050.272	790.684
51.286	13.786	1049.689	790.438
52.301	13.838	1048.521	789.739
53.315	13.872	1047.985	789.425
54.330	13.810	1047.485	788.684
55.344	13.609	1046.609	787.002
56.359	13.751	1045.136	786.497
57.374	13.705	1044.682	785.869
58.388	13.723	1043.702	785.143
59.403	13.726	1043.010	784.568
60.417	13.668	1042.103	783.545
61.432	13.686	1041.883	783.395
62.447	13.643	1041.097	782.532
63.461	13.627	1040.001	781.561
64.476	13.650	1038.849	780.736
65.490	13.664	1037.980	780.082
66.505	13.676	1036.980	779.318
67.520	13.702	1036.514	779.017
68.534	13.656	1035.751	778.159
69.549	13.650	1034.934	777.448
70.563	13.738	1033.976	777.075
71.578	13.614	1033.348	775.952
72.593	13.650	1032.146	775.151
73.607	13.695	1031.149	774.540
74.622	13.646	1030.341	773.638
75.636	13.646	1029.610	773.022
76.651	13.590	1029.188	772.375
77.666	13.605	1028.056	771.529
78.680	13.661	1027.283	771.139
79.695	13.645	1026.844	770.664
80.709	13.632	1026.302	770.129
81.724	13.657	1025.595	769.646
82.739	13.543	1024.857	768.498
83.753	13.685	1024.276	768.653
84.768	13.780	1023.201	768.216
85.782	13.714	1022.735	767.495
86.797	13.840	1021.278	766.915
87.812	13.791	1020.472	766.016
88.826	13.783	1019.733	765.358
89.841	13.651	1019.158	764.251
90.855	13.728	1018.275	763.871
91.870	13.885	1017.451	763.912
92.884	13.844	1016.774	763.144
93.899	13.891	1015.980	762.699
94.914	13.907	1015.241	762.147
95.928	13.871	1014.368	761.259
96.943	13.891	1013.599	760.710
97.957	13.972	1012.396	760.108
98.972	13.855	1011.837	759.088
99.987	13.933	1011.273	758.954
101.001	13.936	1010.355	758.210
102.016	13.811	1009.317	756.794
103.030	13.939	1008.652	756.812
104.045	13.914	1007.242	755.572
105.060	13.906	1006.427	754.860
106.074	13.892	1005.669	754.162
107.089	13.728	1005.167	752.974
108.103	13.799	1003.954	752.319
109.118	13.745	1003.204	751.448
110.133	13.706	1002.345	750.560
111.147	13.694	1001.608	749.887
112.162	13.793	1000.348	749.326
113.176	13.866	999.518	748.966
114.191	13.873	998.705	748.321
115.206	13.883	997.854	747.665
116.220	13.757	997.331	746.637
117.235	13.843	996.516	746.349
118.249	13.817	995.401	745.333
119.264	13.842	994.774	744.908
120.279	13.947	993.739	744.538
121.293	13.653	993.188	742.742
122.308	13.783	992.296	742.590
123.322	13.762	991.303	741.689
124.337	13.772	990.264	740.889
125.352	13.736	988.806	739.573
126.366	13.927	987.679	739.516
127.381	13.683	986.852	737.745
128.395	13.723	985.986	737.210
129.410	13.742	984.702	736.269
130.424	13.784	984.151	735.977
131.439	13.808	983.100	735.236
132.454	13.873	981.994	734.630
133.468	13.806	982.182	734.408
134.483	13.842	981.188	733.757
135.497	13.861	980.125	732.981
136.512	13.888	979.242	732.379
137.527	13.808	978.924	731.720
138.541	13.795	978.017	730.921
139.556	13.879	977.068	730.516
140.570	13.902	976.394	730.048
141.585	13.792	975.881	729.120
142.600	13.849	975.091	728.712
143.614	14.023	973.976	728.580
144.629	14.011	973.577	728.162
145.643	13.923	972.648	727.019
146.658	13.897	972.141	726.460
147.673	14.027	970.676	725.871
148.687	14.031	970.002	725.319
149.702	13.930	969.054	724.107
150.716	13.973	968.018	723.456
151.731	14.041	966.931	722.873
152.746	13.973	966.642	722.297
153.760	14.070	965.732	721.976
154.775	13.965	965.111	720.993
155.789	14.066	963.952	720.502
156.804	13.967	963.691	719.815
157.819	14.139	962.389	719.522
158.833	14.069	962.083	718.927
159.848	14.050	961.366	718.245
160.862	14.112	960.775	718.006
161.877	14.165	960.095	717.663
162.892	14.143	959.086	716.750
163.906	14.016	958.120	715.420
164.921	14.027	957.724	715.109
165.935	13.995	956.647	714.104
166.950	14.051	955.421	713.366
167.964	14.075	954.729	712.890
168.979	14.159	953.433	712.219
169.994	14.157	952.819	711.686
171.008	14.191	951.751	710.970
172.023	14.223	950.670	710.237
173.037	14.233	950.016	709.729
174.052	14.272	949.428	709.391
175.067	14.240	948.481	708.486
176.081	14.200	947.989	707.888
177.096	14.288	946.824	707.326
178.110	14.049	946.291	705.854
179.125	14.058	945.573	705.293
180.140	14.141	944.256	704.599
181.154	14.277	943.813	704.781
182.169	14.396	943.096	704.687
183.183	14.339	942.603	704.015
184.198	14.300	942.126	703.433
185.213	14.240	941.176	702.409
186.227	14.388	940.636	702.567
187.242	14.463	940.100	702.419
188.256	14.316	939.431	701.238
189.271	14.456	938.537	701.100
190.286	14.487	937.996	700.763
191.300	14.501	937.129	700.114
192.315	14.276	936.146	698.374
193.329	14.341	935.506	698.104
194.344	14.308	935.003	697.531
195.359	14.402	934.178	697.246
196.373	14.315	933.695	696.459
197.388	14.419	933.458	696.656
198.402	14.484	932.797	696.373
199.417	14.546	932.588	696.414
200.432	14.534	932.220	696.029
201.446	14.574	931.621	695.684
202.461	14.721	930.739	695.576
203.475	14.702	930.584	695.321
204.490	14.659	929.860	694.539
205.504	14.622	928.983	693.670
206.519	14.670	927.964	693.048
207.534	14.626	927.356	692.350
208.548	14.707	926.667	692.110
209.563	14.805	925.939	691.910
210.577	14.700	925.624	691.180
211.592	14.719	924.611	690.441
212.607	14.866	923.673	690.286
213.621	14.788	923.466	689.749
214.636	14.889	922.579	689.439
215.650	14.862	921.946	688.793
216.665	14.795	921.441	688.080
217.680	14.878	920.923	687.976
218.694	14.839	920.704	687.590
219.709	14.918	919.424	686.895
220.723	14.955	919.117	686.760
221.738	14.931	918.491	686.134
222.753	14.822	917.613	684.969
223.767	15.011	916.869	685.125
224.782	14.981	916.040	684.325
225.796	14.917	915.422	683.541
226.811	15.019	914.600	683.282
227.826	14.914	913.752	682.159
228.840	15.024	913.455	682.325
229.855	15.024	912.769	681.754
230.869	15.036	911.873	681.073
231.884	14.970	911.510	680.474
232.899	14.943	910.847	679.809
233.913	14.952	910.116	679.239
234.928	14.993	909.313	678.746
235.942	15.081	908.515	678.447
236.957	14.960	908.174	677.642
237.972	14.986	907.546	677.218
238.986	15.154	906.494	677.054
240.001	14.989	906.010	675.965
241.015	15.121	905.350	675.947
242.030	15.151	904.434	675.325
243.045	15.173	904.034	675.053
244.059	15.135	903.240	674.246
245.074	15.180	902.425	673.762
246.088	15.015	902.139	672.822
247.103	15.264	901.287	673.130
248.117	15.126	901.018	672.315
249.132	15.188	900.306	671.971
250.147	15.268	899.394	671.551
251.161	15.257	899.091	671.224
252.176	15.413	898.021	670.988
253.190	15.400	897.397	670.412
254.205	15.532	897.082	670.645
255.220	15.439	896.615	669.863
256.234	15.583	895.584	669.607
257.249	15.488	895.017	668.746
258.263	15.568	894.217	668.408
259.278	15.587	893.551	667.929
260.293	15.452	893.403	667.222
261.307	15.673	892.666	667.489
262.322	15.591	892.070	666.659
263.336	15.662	891.418	666.393
264.351	15.650	891.180	666.111
265.366	15.600	890.650	665.458
266.380	15.584	889.739	664.655
267.395	15.810	888.861	664.832
268.409	15.685	887.915	663.572
269.424	15.612	887.457	662.883
270.439	15.780	886.567	662.824
271.453	15.718	886.012	662.104
272.468	15.750	885.049	661.453
273.482	15.771	884.375	660.972
274.497	15.883	884.134	661.174
275.512	15.673	883.623	659.910
276.526	15.670	882.551	659.037
277.541	15.789	881.468	658.636
278.555	15.742	881.531	658.441
279.570	15.756	880.917	657.978
280.585	16.046	880.109	658.450
281.599	16.040	879.501	657.915
282.614	15.942	878.898	657.022
283.628	15.988	878.340	656.725
284.643	15.918	877.628	655.863
285.657	15.848	877.634	655.536
286.672	15.855	877.309	655.265
287.687	16.011	876.383	655.120
288.701	15.976	875.500	654.267
289.716	16.020	874.969	653.982
290.730	16.078	874.165	653.550
291.745	16.111	873.057	652.791
292.760	15.922	873.100	652.034
293.774	16.109	872.384	652.164
294.789	16.265	871.528	652.069
295.803	16.230	871.097	651.554
296.818	16.071	870.679	650.570
297.833	16.116	869.754	649.994
298.847	16.091	869.425	649.594
299.862	16.219	868.369	649.240
300.876	16.204	868.047	648.884
301.891	16.152	867.138	647.949
302.906	16.079	866.494	647.130
303.920	16.229	865.897	647.201
304.935	16.376	865.172	647.167
305.949	16.396	864.497	646.682
306.964	16.358	863.842	645.987
307.979	16.308	863.737	645.662
308.993	16.260	863.126	644.965
310.008	16.312	862.468	644.614
311.022	16.442	861.888	644.620
312.037	16.479	861.123	644.131
313.052	16.351	861.211	643.650
314.066	16.380	860.314	643.035
315.081	16.284	859.668	642.130
316.095	16.265	859.299	641.724
317.110	16.398	858.353	641.468
318.125	16.367	857.986	641.019
319.139	16.505	857.252	640.938
320.154	16.361	856.809	640.002
321.168	16.368	856.445	639.699
322.183	16.443	855.927	639.540
323.197	16.381	855.517	638.944
324.212	16.595	854.359	638.831
325.227	16.531	853.997	638.261
326.241	16.486	853.658	637.781
327.256	16.667	852.729	637.715
328.270	16.494	852.610	636.917
329.285	16.498	852.217	636.580
330.300	16.486	851.630	636.042
331.314	16.609	850.526	635.623
332.329	16.471	850.109	634.736
333.343	16.392	849.652	634.043
334.358	16.661	848.532	634.158
335.373	16.711	848.061	633.937
336.387	16.667	847.516	633.310
337.402	16.717	847.435	633.381
338.416	16.734	846.616	632.775
339.431	16.704	846.272	632.349
340.446	16.812	845.639	632.224
341.460	16.772	845.023	631.560
342.475	16.668	844.695	630.870
343.489	16.758	843.934	630.581
344.504	16.988	843.363	630.954
345.519	16.944	842.552	630.130
346.533	17.072	842.261	630.331
347.548	17.051	842.076	630.057
348.562	16.996	841.078	629.051
349.577	16.851	840.593	628.096
350.592	16.772	840.406	627.609
351.606	16.962	839.809	627.809
352.621	16.937	839.276	627.264
353.635	16.762	839.087	626.419
354.650	16.969	838.332	626.567
355.665	16.955	837.692	625.982
356.679	16.939	837.579	625.780
357.694	16.953	837.036	625.373
358.708	16.921	836.516	624.810
359.723	16.959	835.913	624.444
360.738	17.070	834.884	624.028
361.752	17.112	834.305	623.696
362.767	17.139	834.315	623.745
363.781	17.091	833.773	623.110
364.796	17.274	833.106	623.228
365.810	17.263	833.093	623.123
366.825	17.344	832.665	623.045
367.840	17.148	832.356	622.039
368.854	17.482	831.690	622.709
369.869	17.228	831.180	621.342
370.883	17.289	830.804	621.228
371.898	17.270	830.102	620.581
372.913	17.268	829.458	620.036
373.927	17.405	828.824	620.005
374.942	17.348	828.295	619.351
375.956	17.336	827.518	618.669
376.971	17.371	827.050	618.391
377.986	17.530	825.930	618.078
379.000	17.488	825.928	617.867
380.015	17.586	825.521	617.863
381.029	17.477	824.894	616.946
382.044	17.453	824.646	616.619
383.059	17.531	823.557	616.030
384.073	17.591	823.038	615.807
385.088	17.509	822.737	615.231
386.102	17.509	821.893	614.544
387.117	17.480	821.538	614.120
388.132	17.466	821.094	613.685
389.146	17.459	820.794	613.380
390.161	17.597	820.556	613.645
391.175	17.615	819.969	613.216
392.190	17.559	819.671	612.737
393.205	17.484	819.153	612.027
394.219	17.630	818.718	612.173
395.234	17.598	818.230	611.639
396.248	17.706	817.487	611.416
397.263	17.662	817.005	610.846
398.278	17.614	816.807	610.470
399.292	17.591	816.331	609.977
400.307	17.574	815.910	609.547
401.321	17.641	815.747	609.611
402.336	17.708	815.072	609.294
403.350	17.570	815.168	608.817
404.365	17.839	814.385	609.139
405.380	17.827	813.509	608.389
406.394	17.845	813.450	608.354
407.409	17.817	812.932	607.814
408.423	17.737	812.388	607.068
409.438	17.822	812.006	607.032
410.453	17.920	811.578	607.005
411.467	17.839	811.238	606.409
412.482	17.894	810.607	606.078
413.496	18.111	809.766	606.168
414.511	18.087	809.231	605.628
415.526	18.100	809.023	605.462
416.540	18.033	808.892	605.075
417.555	18.068	808.319	604.718
418.569	17.832	808.298	603.813
419.584	17.905	807.916	603.734
420.599	18.000	807.249	603.516
421.613	115.778	1300.019	1491.691
422.628	100.103	1371.759	1491.759
