DTS Sentinel unit serial number:	SN413079Multiplexer serial number:	ORYXHardware model number:	OX4-SRSoftware version number:	ORYX F/W v4.00 Oryx Data Collector v3.7.2.0data status	okinstallation	princeton_trtdifferential loss correction	single-endedforward channel	channel 3reverse channel	N/Adate	2019/09/17time	09:44:35forward acquisition time	60.00reverse acquisition time	0.00gamma	496.2192k internal	0.2324k external	0.2324temperature offset calibration	0.9938default loss term (dB/km)	0.3790temperature slope calibration	1.0000multiplexer offset coefficient	1.0000multiplexer slope coefficient	1.0000fibre end	0.00T internal ref (°C)	29.31T ext. ref 1 (°C)	0.16T ext. ref 2 (°C)	25.44length (m)	temperature (°C)	Stokes	anti-Stokes-747.200	-9.767	-0.145	-0.098
-746.185	78.917	0.212	-0.229
-745.171	-75.773	0.114	-0.041
-744.156	-86.138	-0.028	0.009
-743.142	-15.699	-0.041	0.027
-742.127	-21.317	-0.146	0.090
-741.112	-55.724	-0.350	-0.158
-740.098	108.207	-0.101	-0.122
-739.083	-52.424	0.048	-0.022
-738.069	566.684	0.058	-0.142
-737.054	395.905	-0.130	-0.274
-736.039	-74.708	-0.231	0.084
-735.025	-200.000	0.045	0.249
-734.010	-45.885	-0.286	-0.142
-732.996	26.389	-0.054	-0.046
-731.981	14.404	-0.168	-0.132
-730.966	-73.226	-0.290	-0.107
-729.952	-70.172	-0.369	-0.141
-728.937	-161.435	-0.049	-0.003
-727.923	-200.000	-0.044	-0.247
-726.908	102.537	0.094	0.111
-725.894	295.933	0.147	-0.273
-724.879	800.000	0.058	0.231
-723.864	-94.114	-0.079	-0.022
-722.850	800.000	-0.125	0.360
-721.835	83.525	-0.200	0.220
-720.821	-17.825	-0.191	-0.121
-719.806	299.735	-0.170	-0.316
-718.791	46.152	-0.221	-0.207
-717.777	800.000	0.022	0.067
-716.762	625.752	-0.111	-0.283
-715.748	95.339	-0.361	-0.415
-714.733	369.040	0.100	0.204
-713.718	774.351	0.045	-0.125
-712.704	-200.000	-0.018	0.184
-711.689	-42.940	-0.219	-0.112
-710.675	-200.000	-0.033	0.188
-709.660	-109.590	0.259	0.055
-708.645	-129.471	-0.167	0.023
-707.631	800.000	0.040	-0.175
-706.616	-13.366	0.196	-0.128
-705.602	690.298	-0.082	-0.216
-704.587	-200.000	-0.056	-0.325
-703.572	800.000	0.059	-0.192
-702.558	189.090	0.124	-0.187
-701.543	-198.101	0.097	-0.001
-700.529	63.840	0.036	0.036
-699.514	-67.967	-0.174	-0.068
-698.499	-167.703	0.160	-0.006
-697.485	-182.086	-0.194	-0.004
-696.470	558.177	-0.084	0.203
-695.456	-200.000	-0.049	0.266
-694.441	-200.000	0.007	0.194
-693.426	29.518	-0.274	0.235
-692.412	49.961	-0.193	0.184
-691.397	800.000	-0.072	-0.297
-690.383	-75.106	-0.247	-0.089
-689.368	69.837	0.133	0.138
-688.354	-148.301	0.074	-0.006
-687.339	-64.292	-0.069	-0.028
-686.324	186.750	0.172	-0.259
-685.310	-84.176	-0.321	-0.103
-684.295	319.062	0.125	-0.238
-683.281	553.345	-0.114	0.275
-682.266	800.000	-0.036	-0.109
-681.251	-200.000	0.055	0.318
-680.237	552.094	0.159	0.384
-679.222	-26.505	-0.048	-0.028
-678.208	126.310	-0.087	-0.110
-677.193	-200.000	0.002	-0.126
-676.178	-200.000	0.022	0.130
-675.164	-200.000	0.017	0.106
-674.149	114.937	0.123	-0.151
-673.135	-38.645	-0.252	0.134
-672.120	69.678	-0.310	0.322
-671.105	-157.405	0.220	0.013
-670.091	-175.227	0.180	0.005
-669.076	203.132	-0.107	-0.167
-668.062	-51.523	-0.084	-0.039
-667.047	-184.071	0.063	0.001
-666.032	86.075	0.070	0.078
-665.018	800.000	-0.039	0.170
-664.003	-200.000	0.003	-0.339
-662.989	800.000	0.051	-0.171
-661.974	-200.000	0.000	-0.228
-660.959	25.636	-0.165	0.138
-659.945	157.830	-0.204	-0.284
-658.930	-15.800	-0.392	0.251
-657.916	175.391	0.085	-0.124
-656.901	688.176	0.082	0.215
-655.886	-189.252	0.122	0.001
-654.872	-200.000	0.006	0.119
-653.857	-71.416	-0.254	-0.096
-652.843	-200.000	-0.407	-0.001
-651.828	-95.929	0.215	0.058
-650.814	-80.477	-0.237	0.080
-649.799	18.069	0.218	-0.175
-648.784	143.572	-0.179	-0.240
-647.770	84.613	-0.064	-0.071
-646.755	-11.437	0.201	-0.133
-645.741	-151.800	-0.383	0.028
-644.726	-25.933	0.080	-0.047
-643.711	-200.000	0.002	-0.249
-642.697	41.354	0.018	0.017
-641.682	241.219	-0.107	-0.179
-640.668	-120.473	0.145	0.025
-639.653	-5.095	0.198	-0.137
-638.638	170.469	0.188	-0.270
-637.624	-111.093	-0.114	0.024
-636.609	47.405	0.220	-0.206
-635.595	343.914	0.029	0.057
-634.580	800.000	0.051	-0.169
-633.565	-200.000	0.002	-0.125
-632.551	448.567	0.152	-0.337
-631.536	800.000	0.066	0.262
-630.522	271.419	-0.061	-0.108
-629.507	-67.530	0.220	0.087
-628.492	448.754	0.162	0.359
-627.478	-140.090	-0.439	0.046
-626.463	-134.377	0.055	-0.007
-625.449	-134.174	0.260	-0.032
-624.434	42.434	-0.332	-0.304
-623.419	-200.000	0.015	-0.148
-622.405	-105.787	-0.214	0.049
-621.390	-199.760	0.140	0.001
-620.376	-200.000	-0.020	0.118
-619.361	-99.560	0.091	-0.023
-618.346	-200.000	-0.038	-0.288
-617.332	2.689	0.026	0.019
-616.317	-70.789	0.367	0.139
-615.303	509.104	-0.019	0.044
-614.288	-73.770	0.115	-0.042
-613.273	-53.325	-0.183	0.085
-612.259	-75.328	0.335	0.120
-611.244	163.096	-0.080	-0.112
-610.230	117.524	0.238	-0.294
-609.215	-121.464	-0.399	-0.067
-608.201	-69.363	-0.076	-0.029
-607.186	103.842	-0.121	0.142
-606.171	-81.256	0.015	-0.005
-605.157	-95.988	-0.057	-0.015
-604.142	250.815	-0.069	-0.118
-603.128	-87.266	-0.071	-0.022
-602.113	-96.226	-0.120	-0.032
-601.098	-62.609	-0.093	0.039
-600.084	-143.188	-0.348	-0.034
-599.069	-110.269	0.214	-0.045
-598.055	307.178	-0.125	0.235
-597.040	-151.801	0.159	-0.012
-596.025	4.129	0.315	-0.231
-595.011	-166.779	0.010	0.000
-593.996	359.204	-0.058	0.116
-592.982	-200.000	0.005	-0.118
-591.967	-200.000	0.018	0.148
-590.952	40.067	0.104	-0.093
-589.938	-34.142	0.289	-0.159
-588.923	-131.360	0.222	0.029
-587.909	-200.000	0.054	-0.288
-586.894	800.000	0.040	-0.131
-585.879	157.538	0.217	0.302
-584.865	77.378	-0.226	-0.242
-583.850	-83.597	0.192	0.062
-582.836	34.027	-0.105	0.092
-581.821	800.000	-0.095	-0.322
-580.806	-20.277	0.259	-0.160
-579.792	37.015	-0.052	0.046
-578.777	752.590	0.028	-0.075
-577.763	-200.000	0.067	0.311
-576.748	604.392	-0.165	0.411
-575.733	759.141	-0.084	0.227
-574.719	77.865	0.115	-0.123
-573.704	-121.675	-0.135	-0.022
-572.690	-123.791	0.238	-0.038
-571.675	532.822	0.082	0.194
-570.661	490.266	0.116	-0.266
-569.646	-4.204	0.070	-0.049
-568.631	-1.054	-0.043	-0.030
-567.617	79.467	-0.081	0.087
-566.602	159.617	0.071	-0.099
-565.588	-200.000	-0.066	0.304
-564.573	-90.268	-0.106	0.031
-563.558	-194.835	0.326	0.003
-562.544	-156.221	-0.195	0.012
-561.529	800.000	-0.072	-0.308
-560.515	-22.921	-0.168	-0.102
-559.500	711.511	-0.073	-0.194
-558.485	800.000	0.057	-0.202
-557.471	-17.526	-0.142	0.089
-556.456	87.517	0.179	0.199
-555.442	-157.490	-0.431	-0.026
-554.427	368.686	0.131	-0.266
-553.412	522.974	0.077	-0.182
-552.398	610.714	-0.127	-0.317
-551.383	-43.491	0.314	-0.159
-550.369	-79.465	-0.111	0.037
-549.354	-98.511	0.140	0.036
-548.339	198.837	-0.116	-0.178
-547.325	-77.589	0.256	-0.089
-546.310	-28.336	0.159	0.092
-545.296	-200.000	0.024	-0.392
-544.281	-171.660	-0.304	0.010
-543.266	124.662	0.225	0.284
-542.252	800.000	-0.064	0.189
-541.237	-49.468	0.201	0.096
-540.223	-200.000	-0.037	-0.339
-539.208	-52.253	-0.113	0.053
-538.193	-38.558	-0.091	-0.048
-537.179	-200.000	0.006	0.164
-536.164	374.994	0.239	-0.488
-535.150	-49.529	-0.244	0.116
-534.135	800.000	0.058	0.225
-533.121	-110.816	-0.170	-0.035
-532.106	204.516	-0.200	0.310
-531.091	-127.689	-0.205	-0.030
-530.077	-33.235	0.279	0.154
-529.062	-60.490	-0.187	-0.079
-528.048	673.299	0.145	-0.375
-527.033	-200.000	-0.005	0.392
-526.018	-130.399	-0.226	-0.031
-525.004	362.728	-0.169	-0.340
-523.989	98.596	0.115	-0.132
-522.975	-200.000	-0.016	0.136
-521.960	119.527	-0.150	-0.186
-520.945	-200.000	-0.024	-0.243
-519.931	-58.218	0.158	0.069
-518.916	-49.334	0.133	0.063
-517.902	-30.416	0.123	-0.070
-516.887	-43.083	-0.193	-0.098
-515.872	159.099	-0.225	0.313
-514.858	117.941	-0.052	0.065
-513.843	-200.000	-0.099	-0.455
-512.829	-49.104	-0.253	-0.121
-511.814	25.405	0.145	0.121
-510.799	31.640	0.211	0.181
-509.785	-132.963	-0.268	0.034
-508.770	-164.583	0.228	-0.010
-507.756	-8.990	-0.169	-0.113
-506.741	480.210	0.061	-0.138
-505.726	-200.000	0.014	-0.080
-504.712	96.328	0.265	-0.303
-503.697	680.843	-0.109	-0.284
-502.683	-123.716	-0.188	-0.030
-501.668	55.282	-0.106	0.103
-500.653	800.000	0.039	0.168
-499.639	800.000	-0.115	-0.330
-498.624	-200.000	0.008	0.417
-497.610	184.035	-0.124	-0.184
-496.595	59.236	0.109	-0.108
-495.581	538.359	-0.043	0.103
-494.566	280.395	-0.163	0.291
-493.551	-95.573	-0.142	-0.038
-492.537	-80.238	-0.356	0.119
-491.522	48.207	-0.166	0.155
-490.508	-73.821	-0.171	-0.062
-489.493	29.262	0.147	-0.125
-488.478	-200.000	0.047	-0.274
-487.464	72.454	0.241	-0.252
-486.449	104.498	-0.198	-0.233
-485.435	-113.590	0.119	-0.023
-484.420	190.048	-0.173	-0.259
-483.405	-200.000	0.017	0.405
-482.391	602.603	-0.117	-0.291
-481.376	32.716	-0.180	0.156
-480.362	-78.197	0.112	0.039
-479.347	87.173	0.147	-0.162
-478.332	263.054	-0.205	-0.356
-477.318	-59.233	-0.067	0.029
-476.303	-58.991	0.246	0.106
-475.289	-92.751	0.291	-0.081
-474.274	141.602	-0.056	-0.074
-473.259	-109.372	-0.166	-0.035
-472.245	62.887	0.077	0.077
-471.230	425.289	-0.110	0.237
-470.216	450.116	0.088	0.195
-469.201	-200.000	-0.075	0.372
-468.186	23.133	-0.205	0.168
-467.172	-87.709	-0.229	-0.069
-466.157	631.803	0.041	0.103
-465.143	-200.000	0.034	0.171
-464.128	-200.000	-0.069	0.474
-463.113	800.000	-0.056	-0.167
-462.099	6.031	-0.065	0.048
-461.084	-200.000	-0.071	-0.335
-460.070	90.003	-0.200	0.224
-459.055	253.424	-0.009	0.015
-458.040	244.255	0.080	0.133
-457.026	208.659	-0.118	-0.184
-456.011	24.387	0.095	-0.079
-454.997	-200.000	-0.037	0.278
-453.982	423.295	-0.193	-0.415
-452.968	-200.000	-0.067	0.310
-451.953	-68.215	-0.241	-0.093
-450.938	-200.000	-0.025	-0.180
-449.924	69.112	-0.127	0.131
-448.909	-75.859	0.363	0.128
-447.895	91.961	-0.363	0.408
-446.880	-200.000	0.013	-0.132
-445.865	5.166	-0.170	-0.125
-444.851	-57.027	0.253	-0.111
-443.836	-108.346	0.275	-0.059
-442.822	419.262	0.067	0.144
-441.807	-36.670	0.271	-0.145
-440.792	-110.043	-0.133	0.028
-439.778	-115.923	-0.179	-0.033
-438.763	-39.863	0.062	-0.033
-437.749	-53.634	0.118	0.054
-436.734	-145.082	-0.443	-0.040
-435.719	316.125	-0.068	0.128
-434.705	-51.645	0.019	0.009
-433.690	-68.559	0.031	0.012
-432.676	-144.193	-0.210	0.020
-431.661	-129.368	-0.062	-0.009
-430.646	6.227	0.158	-0.117
-429.632	800.000	-0.027	-0.098
-428.617	-69.329	-0.137	0.052
-427.603	7.941	0.388	0.290
-426.588	434.645	0.083	0.179
-425.573	166.518	0.142	0.200
-424.559	236.693	-0.259	-0.427
-423.544	-78.803	0.296	0.101
-422.530	-64.835	0.242	-0.098
-421.515	159.600	0.350	-0.486
-420.500	442.835	-0.037	-0.080
-419.486	130.696	-0.034	-0.043
-418.471	492.524	0.034	0.078
-417.457	-175.515	-0.121	0.003
-416.442	192.638	-0.139	0.210
-415.428	-200.000	-0.012	0.109
-414.413	-200.000	0.003	-0.119
-413.398	375.314	0.246	0.499
-412.384	800.000	0.091	0.362
-411.369	800.000	-0.036	-0.132
-410.355	800.000	0.035	0.123
-409.340	446.385	0.112	0.244
-408.325	26.650	0.101	-0.084
-407.311	-145.084	-0.250	-0.023
-406.296	-200.000	-0.058	0.324
-405.282	800.000	0.022	-0.092
-404.267	-200.000	-0.011	0.318
-403.252	-200.000	-0.008	0.092
-402.238	13.267	0.366	-0.282
-401.223	5.664	0.125	-0.092
-400.209	-41.827	0.025	-0.013
-399.194	-96.491	0.112	-0.029
-398.179	-98.011	0.166	-0.043
-397.165	141.127	-0.185	-0.243
-396.150	179.698	0.180	-0.262
-395.136	82.311	-0.076	0.082
-394.121	65.050	0.123	0.124
-393.106	86.677	-0.071	-0.078
-392.092	130.057	-0.144	0.184
-391.077	-200.000	0.011	0.096
-390.063	-200.000	0.014	-0.267
-389.048	-31.570	0.179	-0.100
-388.033	-200.000	0.079	-0.430
-387.019	192.874	0.105	-0.159
-386.004	42.258	0.088	0.080
-384.990	-200.000	0.051	-0.277
-383.975	-19.918	0.175	-0.108
-382.960	-27.689	-0.169	-0.098
-381.946	-200.000	0.031	-0.180
-380.931	94.793	0.106	0.120
-379.917	-200.000	0.013	-0.068
-378.902	-93.802	-0.328	0.090
-377.888	-143.438	-0.180	-0.017
-376.873	7.115	0.050	-0.037
-375.858	45.724	-0.036	0.033
-374.844	227.748	0.113	0.184
-373.829	800.000	-0.045	0.193
-372.815	-126.038	0.230	-0.034
-371.800	380.575	-0.017	-0.034
-370.785	50.297	-0.036	0.034
-369.771	-200.000	-0.003	-0.321
-368.756	-200.000	0.007	-0.111
-367.742	-84.087	0.287	-0.091
-366.727	302.587	0.090	-0.166
-365.712	-200.000	0.029	0.418
-364.698	178.871	-0.192	-0.279
-363.683	-23.909	-0.350	-0.209
-362.669	-200.000	0.022	-0.142
-361.654	39.693	-0.306	-0.273
-360.639	-37.603	0.032	0.017
-359.625	389.423	-0.108	0.222
-358.610	21.401	-0.238	0.193
-357.596	800.000	0.075	0.215
-356.581	70.279	-0.131	-0.134
-355.566	50.612	0.281	0.265
-354.552	-55.608	0.410	0.183
-353.537	48.088	-0.130	0.121
-352.523	245.129	-0.090	0.150
-351.508	-200.000	-0.010	0.302
-350.493	800.000	0.035	0.134
-349.479	25.534	-0.224	0.185
-348.464	589.850	-0.025	0.062
-347.450	441.919	-0.024	-0.052
-346.435	33.188	-0.296	-0.255
-345.420	-196.249	-0.263	-0.002
-344.406	392.295	-0.093	-0.191
-343.391	-16.092	-0.086	0.054
-342.377	-161.099	-0.266	0.014
-341.362	312.429	0.055	0.103
-340.348	-135.499	0.223	0.026
-339.333	28.889	0.129	-0.109
-338.318	-120.447	-0.139	-0.023
-337.304	-63.742	-0.332	0.135
-336.289	718.000	-0.084	0.221
-335.275	-107.871	0.338	0.073
-334.260	-38.201	-0.216	-0.114
-333.245	800.000	0.103	-0.342
-332.231	800.000	0.080	-0.344
-331.216	-200.000	-0.034	0.181
-330.202	-71.977	-0.335	0.124
-329.187	325.306	0.178	-0.337
-328.172	212.340	-0.201	-0.315
-327.158	800.000	-0.147	0.473
-326.143	19.820	0.181	-0.145
-325.129	47.083	-0.288	0.266
-324.114	-109.275	0.259	0.055
-323.099	266.349	0.275	0.477
-322.085	-200.000	0.022	0.149
-321.070	-98.860	0.290	-0.073
-320.056	-200.000	-0.038	-0.281
-319.041	167.734	0.195	-0.275
-318.026	-134.463	0.246	-0.030
-317.012	-2.180	-0.185	0.129
-315.997	-23.444	-0.250	0.149
-314.983	10.706	-0.100	-0.076
-313.968	-62.472	0.101	-0.042
-312.953	-83.577	-0.174	0.055
-311.939	-36.191	-0.236	-0.126
-310.924	114.883	0.186	0.225
-309.910	-200.000	0.061	0.391
-308.895	-200.000	-0.004	0.230
-307.880	334.257	-0.023	0.045
-306.866	48.013	0.185	-0.172
-305.851	508.425	-0.121	0.280
-304.837	-133.502	0.225	-0.028
-303.822	62.058	-0.126	-0.125
-302.807	-200.000	0.022	0.328
-301.793	-0.739	0.101	-0.071
-300.778	22.556	0.312	-0.253
-299.764	31.323	-0.298	-0.254
-298.749	354.693	-0.142	-0.280
-297.735	-63.392	-0.164	0.067
-296.720	139.195	0.138	0.180
-295.705	800.000	0.041	0.132
-294.691	-200.000	0.061	-0.376
-293.676	-70.730	-0.101	0.038
-292.662	-200.000	-0.061	0.347
-291.647	-145.043	0.107	-0.010
-290.632	800.000	-0.017	0.064
-289.618	251.329	0.113	0.190
-288.603	800.000	-0.037	-0.153
-287.589	53.058	0.267	0.253
-286.574	60.689	0.155	0.153
-285.559	-138.645	-0.156	0.017
-284.545	-200.000	-0.066	-0.332
-283.530	-12.388	-0.294	0.190
-282.516	34.757	0.154	0.133
-281.501	-200.000	-0.000	0.063
-280.486	219.604	-0.099	0.158
-279.472	56.781	-0.330	-0.319
-278.457	51.582	0.077	0.073
-277.443	-200.000	0.013	-0.137
-276.428	-130.133	0.087	-0.012
-275.413	-200.000	0.007	-0.096
-274.399	-153.177	-0.067	-0.005
-273.384	800.000	0.018	-0.063
-272.370	173.424	-0.047	-0.067
-271.355	96.482	-0.148	0.168
-270.340	129.482	-0.065	0.083
-269.326	138.164	0.077	0.100
-268.311	-93.889	-0.362	0.099
-267.297	-140.779	0.045	0.005
-266.282	-98.308	-0.283	0.072
-265.267	-200.000	0.022	0.200
-264.253	-18.655	-0.285	0.176
-263.238	-45.138	-0.210	-0.104
-262.224	53.855	0.018	0.017
-261.209	-20.267	-0.220	-0.134
-260.195	-200.000	0.025	0.167
-259.180	-82.332	0.190	-0.061
-258.165	39.592	-0.080	-0.071
-257.151	-200.000	0.004	0.278
-256.136	192.978	0.205	0.307
-255.122	-107.123	0.229	-0.050
-254.107	-200.000	-0.000	0.193
-253.092	-182.802	0.099	-0.002
-252.078	123.354	0.167	0.207
-251.063	432.524	-0.095	0.203
-250.049	34.051	-0.092	-0.079
-249.034	-67.983	0.111	0.043
-248.019	-8.865	-0.302	0.200
-247.005	-171.859	0.234	0.008
-245.990	9.903	-0.053	0.040
-244.976	325.407	-0.066	-0.126
-243.961	-132.630	-0.228	0.029
-242.946	-54.736	0.309	-0.138
-241.932	127.901	0.230	-0.290
-240.917	-200.000	0.012	0.234
-239.903	-200.000	0.026	0.159
-238.888	-137.336	-0.085	0.010
-237.873	342.037	0.131	0.254
-236.859	247.107	0.039	-0.066
-235.844	94.437	0.203	-0.229
-234.830	57.447	0.251	-0.243
-233.815	-120.646	0.092	0.015
-232.800	-200.000	0.094	0.507
-231.786	-131.276	0.278	0.036
-230.771	325.854	0.111	-0.210
-229.757	-75.288	0.265	-0.093
-228.742	200.708	-0.112	-0.171
-227.727	-34.858	0.349	-0.188
-226.713	84.309	0.080	0.086
-225.698	-61.065	-0.202	0.084
-224.684	-10.388	0.129	0.085
-223.669	53.076	0.185	0.175
-222.655	15.642	-0.243	-0.189
-221.640	-55.647	0.153	-0.068
-220.625	-119.608	-0.141	-0.024
-219.611	-92.141	0.176	0.049
-218.596	-38.890	0.165	0.086
-217.582	-84.628	-0.089	0.028
-216.567	102.874	-0.261	0.302
-215.552	-120.294	-0.418	0.071
-214.538	-200.000	-0.016	0.261
-213.523	203.771	-0.064	-0.097
-212.509	-74.156	-0.023	0.008
-211.494	-200.000	-0.004	0.045
-210.479	33.443	0.072	0.061
-209.465	-66.060	0.350	0.138
-208.450	800.000	0.141	0.403
-207.436	-58.196	-0.322	0.138
-206.421	-45.259	0.258	-0.126
-205.406	390.658	0.085	0.175
-204.392	282.916	-0.160	-0.284
-203.377	-94.007	-0.060	-0.016
-202.363	21.123	-0.195	0.157
-201.348	-200.000	-0.015	0.087
-200.333	279.469	-0.131	0.232
-199.319	92.545	-0.170	-0.190
-198.304	-200.000	0.003	-0.056
-197.290	-173.283	-0.109	-0.003
-196.275	177.043	0.069	0.099
-195.260	-67.816	-0.173	0.067
-194.246	-137.579	0.390	0.043
-193.231	201.489	0.160	0.243
-192.217	311.938	0.020	-0.037
-191.202	7.188	-0.109	-0.080
-190.187	218.232	-0.064	-0.101
-189.173	381.590	-0.135	0.274
-188.158	301.960	0.096	0.176
-187.144	308.480	0.059	0.108
-186.129	-200.000	-0.005	-0.162
-185.114	50.499	0.152	-0.142
-184.100	175.713	0.146	0.210
-183.085	-200.000	0.024	-0.141
-182.071	-200.000	-0.051	-0.255
-181.056	71.042	-0.035	0.035
-180.042	563.575	0.110	-0.264
-179.027	320.074	-0.063	-0.119
-178.012	43.743	0.130	-0.118
-176.998	-200.000	0.002	-0.164
-175.983	-200.000	-0.014	-0.116
-174.969	107.070	0.073	-0.086
-173.954	-137.414	0.280	0.031
-172.939	269.665	-0.116	-0.201
-171.925	-93.120	0.087	0.024
-170.910	561.043	0.108	-0.257
-169.896	-118.521	-0.106	-0.019
-168.881	-85.457	0.213	-0.065
-167.866	800.000	0.064	0.190
-166.852	6.074	0.036	0.026
-165.837	134.812	-0.175	0.224
-164.823	350.428	0.103	0.201
-163.808	-76.765	-0.317	-0.110
-162.793	-200.000	0.040	0.364
-161.779	55.025	0.099	0.094
-160.764	-200.000	-0.003	0.087
-159.750	-200.000	-0.056	0.268
-158.735	-79.622	0.242	-0.081
-157.720	154.776	-0.162	0.220
-156.706	-162.447	0.164	-0.008
-155.691	163.581	0.062	0.086
-154.677	528.457	0.023	0.053
-153.662	-67.613	-0.146	-0.057
-152.647	-86.676	-0.275	-0.083
-151.633	800.000	0.018	-0.072
-150.618	-143.517	0.569	0.054
-149.604	-200.000	0.003	-0.232
-148.589	59.023	0.083	-0.080
-147.574	-102.818	-0.286	0.067
-146.560	-41.997	0.276	0.139
-145.545	-15.531	-0.227	-0.143
-144.531	778.631	0.156	0.420
-143.516	-200.000	-0.003	-0.026
-142.502	800.000	0.125	0.345
-141.487	185.404	0.113	0.166
-140.472	-73.474	0.103	0.037
-139.458	-200.000	-0.001	0.245
-138.443	-200.000	0.034	0.320
-137.429	-200.000	-0.020	-0.151
-136.414	6.883	0.107	0.078
-135.399	800.000	-0.060	-0.173
-134.385	-200.000	-0.016	0.193
-133.370	-200.000	-0.006	0.239
-132.356	439.878	0.098	0.211
-131.341	-200.000	-0.049	-0.272
-130.326	-200.000	-0.013	0.170
-129.312	0.691	0.326	0.230
-128.297	110.476	0.093	0.110
-127.283	-107.307	0.348	0.076
-126.268	-200.000	0.032	-0.145
-125.253	-62.020	0.208	-0.086
-124.239	6.378	-0.320	-0.234
-123.224	-19.370	-0.062	0.038
-122.210	121.941	0.072	0.088
-121.195	-200.000	0.002	-0.164
-120.180	199.715	0.122	-0.184
-119.166	81.714	-0.163	-0.174
-118.151	67.672	0.092	0.092
-117.137	358.609	0.063	-0.124
-116.122	-95.386	0.102	0.027
-115.107	-28.119	0.353	0.201
-114.093	-107.840	-0.151	0.032
-113.078	800.000	0.092	0.392
-112.064	-146.083	-0.309	0.027
-111.049	-6.773	-0.284	0.190
-110.034	410.867	-0.088	0.185
-109.020	-64.118	-0.290	0.116
-108.005	-102.736	-0.155	0.036
-106.991	-200.000	-0.045	-0.283
-105.976	800.000	-0.059	0.216
-104.962	447.041	-0.088	0.190
-103.947	684.499	0.134	0.344
-102.932	-54.572	-0.220	0.098
-101.918	-114.766	0.170	-0.032
-100.903	640.842	-0.115	0.289
-99.889	82.072	0.185	-0.197
-98.874	-26.968	-0.165	0.095
-97.859	74.867	-0.048	-0.050
-96.845	-63.198	0.208	-0.084
-95.830	-109.774	0.234	-0.048
-94.816	-153.389	-0.154	-0.011
-93.801	642.414	0.079	-0.197
-92.786	257.767	0.187	0.316
-91.772	-175.897	-0.078	0.002
-90.757	-24.004	-0.087	-0.051
-89.743	-118.352	0.129	-0.023
-88.728	83.263	-0.251	-0.269
-87.713	62.554	-0.161	-0.159
-86.699	495.652	-0.085	-0.193
-85.684	253.283	0.146	0.246
-84.670	-149.597	-0.427	-0.033
-83.655	-168.854	-0.209	-0.008
-82.640	32.865	-0.069	-0.059
-81.626	403.723	-0.070	-0.145
-80.611	781.733	0.085	0.229
-79.597	174.595	0.147	0.209
-78.582	-200.000	0.000	0.052
-77.567	-100.409	0.317	0.077
-76.553	800.000	-0.099	0.332
-75.538	800.000	0.083	-0.349
-74.524	163.277	-0.153	0.212
-73.509	-200.000	0.156	0.000
-72.494	-200.000	-0.008	-0.133
-71.480	-87.119	0.241	0.072
-70.465	-195.953	-0.083	-0.001
-69.451	403.288	0.160	0.331
-68.436	210.857	-0.247	-0.381
-67.422	-105.833	-0.194	-0.043
-66.407	800.000	-0.050	-0.196
-65.392	165.145	0.076	-0.105
-64.378	-87.931	-0.208	0.061
-63.363	-200.000	0.005	0.039
-62.349	-200.000	0.022	-0.162
-61.334	93.588	-0.949	-1.057
-60.319	252.482	0.409	0.685
-59.305	590.403	-0.391	-0.948
-58.290	207.080	0.735	1.126
-57.276	800.000	0.464	1.487
-56.261	-200.000	106.266	577.780
-55.246	444.550	1474.528	3180.499
-54.232	146.511	2665.538	3518.520
-53.217	104.687	2189.711	2535.717
-52.203	39.539	1716.229	1511.607
-51.188	32.402	1528.420	1297.151
-50.173	29.949	1502.344	1258.321
-49.159	50.169	1556.700	1444.359
-48.144	50.470	1573.305	1461.794
-47.130	32.560	1530.296	1299.626
-46.115	29.646	1515.215	1266.823
-45.100	29.475	1511.803	1262.748
-44.086	29.393	1509.943	1260.586
-43.071	29.288	1507.955	1258.158
-42.057	29.324	1505.619	1256.404
-41.042	29.371	1504.621	1255.840
-40.027	29.203	1503.618	1253.813
-39.013	29.335	1501.553	1252.939
-37.998	29.213	1500.247	1250.972
-36.984	29.241	1498.913	1250.001
-35.969	29.338	1497.927	1249.786
-34.954	29.295	1496.734	1248.447
-33.940	29.269	1495.441	1247.141
-32.925	29.332	1493.845	1246.192
-31.911	29.274	1492.381	1244.528
-30.896	29.327	1491.353	1243.978
-29.881	29.409	1490.051	1243.393
-28.867	29.391	1488.727	1242.118
-27.852	29.390	1487.580	1241.107
-26.838	29.324	1486.113	1239.387
-25.823	29.306	1484.792	1238.119
-24.809	29.374	1482.742	1236.815
-23.794	29.342	1481.415	1235.445
-22.779	29.354	1480.235	1234.491
-21.765	29.384	1478.984	1233.600
-20.750	29.347	1477.915	1232.414
-19.736	29.372	1477.048	1231.809
-18.721	29.301	1475.945	1230.368
-17.706	29.332	1474.413	1229.247
-16.692	29.296	1473.462	1228.166
-15.677	29.364	1471.933	1227.293
-14.663	29.389	1471.310	1226.892
-13.648	29.249	1470.874	1225.550
-12.633	29.260	1469.689	1224.586
-11.619	29.218	1468.754	1223.482
-10.604	29.308	1467.277	1222.800
-9.590	29.287	1466.796	1222.206
-8.575	29.358	1466.072	1222.027
-7.560	29.324	1465.082	1220.927
-6.546	29.280	1464.305	1219.943
-5.531	29.265	1463.492	1219.115
-4.517	29.271	1462.496	1218.281
-3.502	29.378	1461.211	1217.867
-2.487	29.358	1460.400	1217.011
-1.473	29.241	1459.427	1215.376
-0.458	29.233	1458.001	1214.091
0.556	27.576	1448.564	1204.614
1.571	24.775	1423.764	1165.658
2.586	21.539	1362.040	1094.816
3.600	19.811	1279.606	1018.300
4.615	18.730	1234.988	976.561
5.629	16.312	1178.674	918.806
6.644	8.153	1093.047	810.660
7.659	1.454	1052.076	747.340
8.673	0.313	1046.523	737.748
9.688	0.204	1043.113	734.745
10.702	0.138	1041.639	733.321
11.717	-0.015	1040.221	731.514
12.731	2.655	1042.839	746.299
13.746	10.740	1053.761	793.693
14.761	16.791	1060.383	828.280
15.775	17.213	1060.960	830.722
16.790	16.454	1058.455	824.985
17.804	15.329	1056.160	817.642
18.819	14.531	1054.299	812.243
19.834	14.018	1053.255	808.871
20.848	13.823	1051.997	806.886
21.863	13.560	1051.588	805.219
22.877	13.287	1050.892	803.292
23.892	13.075	1049.926	801.450
24.907	13.015	1048.938	800.337
25.921	13.033	1048.517	800.033
26.936	13.141	1047.944	800.045
27.950	13.094	1046.861	798.920
28.965	13.141	1046.576	798.858
29.980	13.245	1044.936	798.039
30.994	13.195	1044.134	797.115
32.009	13.263	1043.669	797.018
33.023	13.203	1042.763	795.964
34.038	13.324	1042.167	796.024
35.053	13.336	1041.302	795.350
36.067	13.204	1040.593	794.104
37.082	13.088	1039.936	792.977
38.096	13.152	1038.717	792.284
39.111	13.339	1037.884	792.472
40.126	13.205	1037.432	791.416
41.140	13.321	1035.798	790.653
42.155	13.139	1035.022	789.123
43.169	13.061	1034.321	788.149
44.184	13.083	1033.199	787.327
45.199	13.132	1032.045	786.611
46.213	12.931	1031.674	785.301
47.228	12.915	1030.208	784.040
48.242	13.018	1029.624	784.015
49.257	13.171	1028.477	783.801
50.271	13.260	1027.237	783.206
51.286	13.074	1026.738	781.877
52.301	13.195	1025.890	781.732
53.315	13.153	1024.900	780.712
54.330	13.163	1024.166	780.132
55.344	13.068	1023.395	779.027
56.359	13.067	1022.337	778.144
57.374	13.046	1021.363	777.238
58.388	13.105	1020.320	776.652
59.403	13.043	1019.848	775.934
60.417	13.066	1019.013	775.340
61.432	12.958	1018.821	774.616
62.447	13.014	1017.800	774.034
63.461	12.977	1016.428	772.747
64.476	12.941	1016.213	772.346
65.490	12.950	1014.756	771.214
66.505	12.976	1014.133	770.793
67.520	13.090	1013.571	770.830
68.534	13.017	1012.641	769.716
69.549	13.018	1012.144	769.273
70.563	13.076	1011.022	768.622
71.578	13.055	1010.658	768.182
72.593	13.077	1010.143	767.821
73.607	12.876	1008.880	765.861
74.622	12.878	1007.899	765.056
75.636	12.890	1006.872	764.267
76.651	12.998	1005.617	763.746
77.666	12.983	1005.136	763.245
78.680	12.968	1004.103	762.325
79.695	12.882	1003.974	761.759
80.709	12.915	1003.896	761.786
81.724	13.050	1002.820	761.525
82.739	13.141	1002.062	761.303
83.753	13.137	1001.054	760.450
84.768	13.261	999.985	760.143
85.782	13.215	999.697	759.642
86.797	13.266	999.047	759.316
87.812	13.316	998.296	758.909
88.826	13.154	997.646	757.604
89.841	13.284	996.893	757.560
90.855	13.195	996.355	756.676
91.870	13.232	995.129	755.848
92.884	13.164	995.080	755.434
93.899	13.204	994.029	754.750
94.914	13.333	992.818	754.355
95.928	13.391	992.165	754.053
96.943	13.311	991.707	753.274
97.957	13.380	990.681	752.746
98.972	13.155	990.373	751.418
99.987	13.314	989.155	751.153
101.001	13.187	988.853	750.280
102.016	13.232	987.679	749.528
103.030	13.346	986.818	749.323
104.045	13.267	985.803	748.129
105.060	13.371	984.923	747.867
106.074	13.230	983.958	746.428
107.089	13.238	983.286	745.891
108.103	13.190	982.251	744.821
109.118	13.153	981.436	743.972
110.133	13.063	980.687	742.932
111.147	13.077	980.022	742.423
112.162	13.136	979.245	742.037
113.176	13.118	978.499	741.327
114.191	13.162	977.296	740.544
115.206	13.168	976.723	740.074
116.220	13.144	976.017	739.364
117.235	13.138	975.390	738.799
118.249	13.260	973.636	737.947
119.264	13.163	973.313	737.207
120.279	13.163	972.354	736.414
121.293	13.080	971.795	735.556
122.308	13.084	971.097	734.980
123.322	13.123	970.278	734.467
124.337	12.994	969.114	732.950
125.352	13.161	967.953	732.747
126.366	13.257	966.334	731.881
127.381	13.154	965.311	730.586
128.395	13.094	964.409	729.574
129.410	13.113	963.870	729.185
130.424	13.034	963.258	728.311
131.439	13.143	962.154	727.891
132.454	13.222	960.898	727.224
133.468	13.274	959.748	726.516
134.483	13.299	959.322	726.243
135.497	13.177	959.071	725.450
136.512	13.213	957.921	724.677
137.527	13.051	957.882	723.871
138.541	13.160	956.951	723.580
139.556	13.209	956.090	723.080
140.570	13.145	955.503	722.291
141.585	13.186	954.595	721.722
142.600	13.309	953.769	721.568
143.614	13.248	953.059	720.701
144.629	13.382	952.448	720.759
145.643	13.429	951.508	720.191
146.658	13.552	950.451	719.862
147.673	13.368	949.601	718.355
148.687	13.272	948.679	717.175
149.702	13.281	947.835	716.513
150.716	13.312	947.015	715.964
151.731	13.275	946.272	715.181
152.746	13.250	945.612	714.511
153.760	13.306	944.851	714.113
154.775	13.285	943.884	713.227
155.789	13.471	942.767	713.124
156.804	13.352	942.524	712.364
157.819	13.381	941.609	711.735
158.833	13.410	940.884	711.249
159.848	13.347	940.590	710.693
160.862	13.350	940.043	710.228
161.877	13.355	939.223	709.567
162.892	13.432	937.986	708.902
163.906	13.302	937.307	707.767
164.921	13.307	936.229	706.914
165.935	13.381	935.548	706.651
166.950	13.501	934.405	706.239
167.964	13.338	933.694	704.942
168.979	13.506	932.451	704.659
169.994	13.463	931.541	703.726
171.008	13.398	930.896	702.898
172.023	13.532	930.333	702.980
173.037	13.458	929.743	702.159
174.052	13.548	928.742	701.724
175.067	13.612	927.868	701.271
176.081	13.503	927.030	700.113
177.096	13.491	926.330	699.472
178.110	13.455	925.795	698.857
179.125	13.504	924.958	698.367
180.140	13.481	924.498	697.863
181.154	13.584	922.995	697.098
182.169	13.613	922.760	696.984
183.183	13.601	922.048	696.331
184.198	13.568	921.849	695.981
185.213	13.651	920.779	695.460
186.227	13.665	920.404	695.174
187.242	13.595	920.300	694.741
188.256	13.626	919.285	694.042
189.271	13.630	918.561	693.451
190.286	13.754	917.816	693.347
191.300	13.597	916.847	691.897
192.315	13.630	915.882	691.244
193.329	13.544	915.308	690.393
194.344	13.581	914.619	689.965
195.359	13.471	914.209	689.136
196.373	13.618	914.143	689.639
197.388	13.679	913.269	689.171
198.402	13.692	912.722	688.752
199.417	13.919	912.245	689.272
200.432	13.850	911.685	688.505
201.446	13.850	911.341	688.183
202.461	13.897	911.124	688.151
203.475	13.868	910.184	687.264
204.490	13.918	909.476	686.874
205.504	13.777	908.939	685.822
206.519	13.923	907.821	685.523
207.534	13.889	907.327	684.948
208.548	13.864	906.362	684.055
209.563	13.934	905.621	683.726
210.577	13.953	905.006	683.278
211.592	13.972	904.520	682.930
212.607	14.057	903.807	682.680
213.621	14.010	903.153	681.932
214.636	14.081	902.545	681.705
215.650	14.081	901.699	681.003
216.665	14.090	901.400	680.753
217.680	14.031	901.271	680.355
218.694	14.200	900.525	680.423
219.709	14.140	899.364	679.241
220.723	14.121	898.786	678.668
221.738	14.185	898.195	678.422
222.753	14.143	897.649	677.777
223.767	14.157	896.969	677.262
224.782	14.222	895.740	676.539
225.796	14.104	895.276	675.649
226.811	14.329	894.497	675.913
227.826	14.202	893.925	674.906
228.840	14.231	893.384	674.555
229.855	14.148	893.019	673.884
230.869	14.281	891.918	673.530
231.884	14.224	891.498	672.924
232.899	14.289	890.466	672.351
233.913	14.171	890.244	671.646
234.928	14.158	889.329	670.844
235.942	14.222	888.303	670.270
236.957	14.262	887.895	670.062
237.972	14.129	887.640	669.275
238.986	14.202	886.709	668.808
240.001	14.275	885.617	668.217
241.015	14.250	885.454	667.934
242.030	14.138	885.062	667.131
243.045	14.313	883.884	666.884
244.059	14.237	883.508	666.236
245.074	14.335	882.873	666.091
246.088	14.376	881.866	665.436
247.103	14.359	881.260	664.853
248.117	14.516	880.634	664.947
249.132	14.449	880.291	664.362
250.147	14.595	879.596	664.362
251.161	14.646	878.494	663.672
252.176	14.537	878.478	663.171
253.190	14.563	877.720	662.640
254.205	14.781	876.949	662.865
255.220	14.817	876.356	662.502
256.234	14.731	875.876	661.738
257.249	14.776	874.761	661.016
258.263	14.863	874.158	660.847
259.278	14.767	874.106	660.368
260.293	14.807	873.144	659.741
261.307	14.883	872.858	659.768
262.322	14.868	872.168	659.130
263.336	14.938	871.534	658.867
264.351	14.884	870.921	658.131
265.366	14.924	870.262	657.733
266.380	15.046	869.572	657.631
267.395	14.965	868.857	656.714
268.409	14.845	868.380	655.826
269.424	14.937	867.587	655.529
270.439	14.779	867.060	654.456
271.453	14.908	866.141	654.209
272.468	14.854	865.453	653.421
273.482	15.049	864.749	653.593
274.497	15.045	863.858	652.845
275.512	14.792	863.397	651.451
276.526	14.955	862.589	651.421
277.541	15.044	862.282	651.478
278.555	15.098	861.535	651.065
279.570	14.944	861.338	650.258
280.585	15.044	860.502	649.958
281.599	15.242	859.538	649.940
282.614	15.228	858.780	649.257
283.628	15.118	858.192	648.328
284.643	14.993	858.112	647.727
285.657	15.084	857.741	647.744
286.672	15.123	857.259	647.473
287.687	15.131	856.568	646.923
288.701	15.271	855.849	646.862
289.716	15.308	855.470	646.662
290.730	15.252	854.927	645.979
291.745	15.306	854.088	645.497
292.760	15.338	853.497	645.115
293.774	15.319	852.814	644.468
294.789	15.318	852.263	643.993
295.803	15.325	851.826	643.632
296.818	15.315	851.206	643.065
297.833	15.300	850.541	642.451
298.847	15.280	849.957	641.874
299.862	15.473	848.967	641.808
300.876	15.367	848.613	641.081
301.891	15.464	847.931	640.878
302.906	15.448	847.262	640.255
303.920	15.421	846.664	639.645
304.935	15.464	846.202	639.404
305.949	15.456	845.713	638.944
306.964	15.682	844.705	638.985
307.979	15.566	844.387	638.248
308.993	15.486	844.091	637.665
310.008	15.527	843.191	637.081
311.022	15.810	842.000	637.198
312.037	15.594	841.654	636.064
313.052	15.463	841.617	635.484
314.066	15.635	840.837	635.488
315.081	15.582	840.011	634.607
316.095	15.509	839.805	634.121
317.110	15.514	839.336	633.728
318.125	15.687	838.472	633.672
319.139	15.553	838.171	632.884
320.154	15.522	837.762	632.403
321.168	15.532	836.746	631.617
322.183	15.601	836.552	631.674
323.197	15.584	836.203	631.292
324.212	15.724	835.415	631.166
325.227	15.584	834.704	630.047
326.241	15.794	834.253	630.439
327.256	15.722	833.758	629.740
328.270	15.553	833.058	628.523
329.285	15.647	832.742	628.581
330.300	15.688	832.010	628.124
331.314	15.833	831.395	628.147
332.329	15.664	831.099	627.236
333.343	15.603	830.734	626.678
334.358	15.571	830.038	625.977
335.373	15.812	829.032	626.060
336.387	15.714	828.760	625.434
337.402	15.716	828.074	624.869
338.416	15.910	827.655	625.221
339.431	15.857	827.021	624.487
340.446	15.946	826.441	624.326
341.460	16.021	825.984	624.204
342.475	15.980	825.177	623.385
343.489	16.082	824.871	623.476
344.504	15.955	824.310	622.526
345.519	16.012	823.633	622.174
346.533	16.097	823.190	622.097
347.548	16.222	822.752	622.172
348.562	16.229	822.307	621.804
349.577	16.249	821.440	621.168
350.592	15.874	821.428	619.725
351.606	16.051	820.406	619.548
352.621	16.190	820.008	619.704
353.635	15.933	820.065	618.748
354.650	16.067	819.510	618.764
355.665	16.157	818.865	618.554
356.679	16.152	818.510	618.213
357.694	16.169	818.027	617.858
358.708	16.241	817.359	617.562
359.723	16.305	816.616	617.179
360.738	16.187	816.656	616.724
361.752	16.130	815.905	615.892
362.767	16.120	815.374	615.400
363.781	16.270	814.832	615.485
364.796	16.326	814.576	615.441
365.810	16.342	813.985	614.996
366.825	16.441	813.551	614.976
367.840	16.467	813.319	614.841
368.854	16.382	813.192	614.382
369.869	16.429	812.564	614.022
370.883	16.325	811.965	613.137
371.898	16.485	811.521	613.329
372.913	16.292	810.742	611.988
373.927	16.558	810.199	612.485
374.942	16.493	809.459	611.639
375.956	16.527	809.061	611.405
376.971	16.591	808.181	610.917
377.986	16.675	807.492	610.645
379.000	16.654	807.226	610.316
380.015	16.687	806.780	610.044
381.029	16.558	806.467	609.286
382.044	16.651	805.835	609.092
383.059	16.724	805.353	608.935
384.073	16.770	804.728	608.573
385.088	16.684	804.012	607.670
386.102	16.574	803.849	607.096
387.117	16.543	803.246	606.477
388.132	16.590	802.700	606.180
389.146	16.653	802.103	605.900
390.161	16.757	801.676	605.897
391.175	16.780	801.395	605.712
392.190	16.813	801.107	605.562
393.205	16.730	800.955	605.095
394.219	16.751	800.136	604.498
395.234	16.787	799.742	604.276
396.248	16.635	799.368	603.397
397.263	16.677	798.971	603.194
398.278	16.756	798.216	602.850
399.292	16.675	798.006	602.352
400.307	16.784	797.626	602.400
401.321	16.660	797.314	601.668
402.336	16.785	796.873	601.727
403.350	16.756	796.333	601.163
404.365	16.914	795.498	601.039
405.380	16.968	795.128	600.898
406.394	16.939	795.151	600.759
407.409	17.065	794.371	600.564
408.423	17.039	794.057	600.181
409.438	17.097	793.419	599.849
410.453	17.149	792.898	599.587
411.467	17.084	792.543	599.036
412.482	17.276	791.750	599.061
413.496	17.059	791.810	598.286
414.511	17.168	791.250	598.194
415.526	16.982	791.032	597.323
416.540	17.110	790.763	597.516
417.555	17.231	789.895	597.232
418.569	17.120	789.801	596.718
419.584	17.313	789.072	596.794
420.599	17.379	788.170	596.289
421.613	109.292	1289.596	1470.697
422.628	93.756	1362.632	1470.788
