DTS Sentinel unit serial number:	SN413079Multiplexer serial number:	ORYXHardware model number:	OX4-SRSoftware version number:	ORYX F/W v4.00 Oryx Data Collector v3.7.2.0data status	okinstallation	princeton_trtdifferential loss correction	single-endedforward channel	channel 3reverse channel	N/Adate	2019/09/11time	14:34:11forward acquisition time	60.00reverse acquisition time	0.00gamma	496.2192k internal	0.2291k external	0.2291temperature offset calibration	0.9981default loss term (dB/km)	0.3790temperature slope calibration	1.0000multiplexer offset coefficient	1.0000multiplexer slope coefficient	1.0000fibre end	0.00T internal ref (°C)	42.25T ext. ref 1 (°C)	0.89T ext. ref 2 (°C)	37.44length (m)	temperature (°C)	Stokes	anti-Stokes-747.200	81.294	-0.208	-0.230
-746.185	98.164	-0.099	0.117
-745.171	800.000	-0.077	0.309
-744.156	-200.000	0.013	0.161
-743.142	-165.101	-0.053	0.002
-742.127	-200.000	0.013	0.685
-741.112	19.340	-0.101	0.083
-740.098	-200.000	0.001	0.215
-739.083	162.642	-0.142	0.204
-738.069	800.000	-0.090	0.394
-737.054	-17.914	-0.267	-0.172
-736.039	111.241	0.084	-0.103
-735.025	666.815	0.133	0.352
-734.010	49.749	0.126	-0.122
-732.996	-200.000	-0.038	0.329
-731.981	69.248	-0.052	-0.055
-730.966	800.000	-0.049	-0.161
-729.952	-104.116	-0.358	-0.085
-728.937	257.706	-0.044	-0.078
-727.923	-20.663	0.049	0.031
-726.908	-164.539	-0.241	-0.011
-725.894	365.903	-0.039	0.081
-724.879	-163.261	-0.213	-0.010
-723.864	-101.611	0.088	-0.022
-722.850	9.260	-0.222	0.172
-721.835	-51.417	0.266	-0.127
-720.821	-114.470	-0.156	-0.031
-719.806	-47.912	-0.203	-0.100
-718.791	-133.906	-0.541	0.069
-717.777	-200.000	0.062	-0.344
-716.762	-120.435	-0.104	-0.018
-715.748	159.534	0.194	-0.276
-714.733	-27.150	-0.235	-0.140
-713.718	-200.000	0.003	0.059
-712.704	147.439	-0.171	-0.236
-711.689	-49.053	-0.218	0.107
-710.675	404.809	-0.077	0.166
-709.660	177.616	0.082	-0.122
-708.645	328.673	0.049	-0.095
-707.631	306.872	0.113	0.215
-706.616	344.269	-0.121	0.243
-705.602	45.641	-0.259	0.245
-704.587	205.213	-0.053	-0.083
-703.572	4.414	0.129	-0.096
-702.558	-111.246	-0.202	0.042
-701.543	-53.474	0.305	0.143
-700.529	110.336	0.257	-0.315
-699.514	-75.011	-0.148	0.054
-698.499	449.740	-0.067	0.152
-697.485	-200.000	0.055	0.335
-696.470	-116.327	-0.276	0.052
-695.456	-128.727	0.301	-0.043
-694.441	-98.682	0.122	0.032
-693.426	309.006	0.144	0.275
-692.412	141.894	-0.205	-0.277
-691.397	-97.967	-0.182	0.048
-690.383	192.552	-0.112	0.173
-689.368	-200.000	-0.016	0.194
-688.354	0.239	0.392	-0.286
-687.339	-98.991	0.305	-0.079
-686.324	116.672	-0.102	-0.128
-685.310	800.000	-0.101	-0.415
-684.295	653.322	-0.044	0.116
-683.281	-137.308	0.222	0.026
-682.266	496.963	0.106	0.250
-681.251	-110.868	0.116	-0.024
-680.237	-198.914	0.308	-0.002
-679.222	69.238	-0.060	-0.063
-678.208	58.175	0.291	0.291
-677.193	-110.472	-0.243	0.052
-676.178	800.000	0.055	-0.222
-675.164	87.373	-0.222	-0.251
-674.149	43.928	-0.276	-0.258
-673.135	-89.955	0.119	-0.035
-672.120	239.461	-0.164	-0.279
-671.105	-200.000	-0.037	-0.210
-670.091	-79.740	0.269	0.092
-669.076	407.834	0.239	-0.517
-668.062	-153.354	-0.197	-0.014
-667.047	81.375	0.180	0.198
-666.032	-58.779	-0.091	0.040
-665.018	-122.395	-0.214	-0.036
-664.003	-18.287	-0.300	0.192
-662.989	416.105	-0.058	-0.127
-661.974	-104.465	-0.127	0.030
-660.959	-89.659	-0.377	0.113
-659.945	-200.000	0.025	-0.343
-658.930	676.338	0.038	0.101
-657.916	218.740	0.055	-0.090
-656.901	160.095	0.259	0.369
-655.886	44.826	-0.156	0.146
-654.872	566.740	-0.055	0.137
-653.857	26.204	-0.185	-0.158
-652.843	-38.883	0.110	-0.059
-651.828	579.911	-0.073	0.182
-650.814	-144.136	0.146	-0.014
-649.799	377.700	0.109	0.228
-648.784	310.766	-0.034	0.065
-647.770	136.720	-0.089	0.119
-646.755	-200.000	-0.011	-0.106
-645.741	359.164	-0.064	-0.130
-644.726	-200.000	0.041	-0.404
-643.711	30.155	0.038	-0.033
-642.697	800.000	-0.017	0.050
-641.682	122.411	0.085	-0.108
-640.668	33.975	-0.122	-0.109
-639.653	29.920	-0.106	-0.092
-638.638	800.000	0.035	0.132
-637.624	-200.000	-0.021	-0.181
-636.609	800.000	0.019	-0.075
-635.595	131.605	0.079	0.103
-634.580	-174.782	-0.248	-0.007
-633.565	-91.159	0.284	-0.083
-632.551	58.835	-0.084	0.084
-631.536	488.590	-0.040	-0.092
-630.522	-86.054	0.294	0.093
-629.507	523.982	0.120	0.286
-628.492	-200.000	-0.026	-0.218
-627.478	519.128	-0.205	-0.490
-626.463	-200.000	0.000	0.173
-625.449	-115.106	-0.139	-0.027
-624.434	-93.769	-0.311	-0.087
-623.419	800.000	-0.091	0.292
-622.405	285.678	0.042	-0.076
-621.390	24.856	-0.217	-0.184
-620.376	647.492	0.052	0.136
-619.361	800.000	-0.071	0.310
-618.346	-176.817	0.219	-0.006
-617.332	-42.482	-0.206	-0.107
-616.317	-160.803	-0.110	-0.006
-615.303	800.000	-0.042	-0.123
-614.288	-109.217	-0.033	0.007
-613.273	-6.821	0.331	-0.229
-612.259	-200.000	-0.028	-0.344
-611.244	731.517	0.152	-0.414
-610.230	-48.499	-0.320	-0.157
-609.215	-13.406	-0.310	-0.205
-608.201	52.812	-0.129	0.126
-607.186	-15.376	0.200	-0.130
-606.171	216.393	0.199	0.323
-605.157	74.460	0.237	0.253
-604.142	578.008	-0.113	-0.282
-603.128	31.284	-0.276	0.241
-602.113	-200.000	-0.057	0.390
-601.098	142.656	0.060	0.081
-600.084	-90.728	-0.412	0.121
-599.069	-20.955	-0.151	-0.094
-598.055	-200.000	-0.038	-0.404
-597.040	140.047	0.052	0.070
-596.025	269.969	-0.197	-0.353
-595.011	339.038	0.165	-0.327
-593.996	73.615	0.097	0.103
-592.982	-114.504	0.275	-0.054
-591.967	619.205	-0.060	0.153
-590.952	-200.000	0.043	-0.236
-589.938	264.218	-0.062	-0.109
-588.923	49.926	-0.133	0.128
-587.909	96.081	-0.162	-0.189
-586.894	-49.655	-0.385	-0.186
-585.879	-82.212	-0.171	-0.057
-584.865	400.936	-0.050	0.106
-583.850	98.373	-0.198	-0.232
-582.836	-200.000	0.017	-0.302
-581.821	-200.000	0.038	-0.257
-580.806	113.371	0.153	0.189
-579.792	409.931	-0.233	-0.501
-578.777	155.222	0.267	-0.374
-577.763	-101.737	-0.095	-0.023
-576.748	-193.267	-0.325	-0.003
-575.733	19.755	-0.094	0.077
-574.719	-37.731	0.367	-0.198
-573.704	468.105	0.013	0.029
-572.690	97.629	-0.146	0.171
-571.675	489.308	0.057	-0.133
-570.661	-67.377	-0.143	-0.057
-569.646	-55.004	-0.314	-0.144
-568.631	-30.985	-0.209	0.120
-567.617	-167.078	0.251	-0.010
-566.602	-73.920	-0.306	0.113
-565.588	-124.240	-0.313	0.050
-564.573	498.029	-0.039	-0.092
-563.558	23.644	-0.231	-0.194
-562.544	43.665	0.113	-0.105
-561.529	-200.000	-0.027	0.217
-560.515	672.181	-0.070	-0.184
-559.500	255.594	-0.024	-0.041
-558.485	475.399	-0.074	-0.170
-557.471	213.533	0.070	-0.112
-556.456	-200.000	0.035	0.328
-555.442	-152.499	0.222	-0.016
-554.427	-200.000	-0.054	-0.326
-553.412	800.000	0.087	0.376
-552.398	-102.330	0.085	-0.021
-551.383	-66.649	0.121	0.049
-550.369	108.343	-0.132	0.161
-549.354	339.428	-0.024	-0.047
-548.339	-53.774	0.044	-0.020
-547.325	118.664	-0.082	-0.103
-546.310	-137.829	-0.241	0.027
-545.296	276.421	-0.095	0.172
-544.281	-200.000	0.019	-0.104
-543.266	-149.432	0.226	-0.018
-542.252	30.332	0.065	-0.056
-541.237	-70.885	-0.089	-0.034
-540.223	-40.723	0.114	-0.060
-539.208	800.000	0.075	0.229
-538.193	-54.291	0.167	0.077
-537.179	-158.666	-0.106	0.006
-536.164	-114.558	-0.552	-0.108
-535.150	-200.000	-0.023	0.113
-534.135	-70.070	0.214	-0.083
-533.121	-106.773	0.162	-0.037
-532.106	54.317	-0.185	-0.181
-531.091	800.000	-0.057	0.190
-530.077	317.356	-0.156	-0.300
-529.062	-133.797	-0.129	0.016
-528.048	-22.693	0.297	-0.182
-527.033	-200.000	-0.034	0.409
-526.018	800.000	0.024	0.074
-525.004	-72.135	-0.169	-0.064
-523.989	58.415	0.183	-0.182
-522.975	-96.727	0.124	-0.033
-521.960	37.379	0.138	-0.124
-520.945	-67.774	0.188	-0.075
-519.931	-71.991	-0.191	0.072
-518.916	-200.000	-0.009	0.057
-517.902	-12.801	0.121	-0.080
-516.887	222.399	-0.049	0.080
-515.872	-107.820	0.130	0.029
-514.858	-142.744	0.175	0.017
-513.843	40.603	0.092	-0.084
-512.829	274.893	-0.069	-0.124
-511.814	525.277	0.049	-0.117
-510.799	-51.535	-0.116	-0.055
-509.785	-144.376	-0.345	-0.033
-508.770	5.687	0.396	0.297
-507.756	170.838	0.063	0.091
-506.741	-200.000	-0.036	0.212
-505.726	65.310	-0.188	0.193
-504.712	-127.292	0.364	-0.054
-503.697	250.783	0.107	-0.184
-502.683	800.000	0.079	0.250
-501.668	800.000	-0.086	-0.294
-500.653	-87.012	0.169	0.052
-499.639	-122.521	0.222	0.037
-498.624	-61.125	0.026	-0.011
-497.610	-85.277	-0.126	0.040
-496.595	-200.000	0.013	0.309
-495.581	-172.872	-0.619	-0.020
-494.566	-39.600	-0.132	-0.070
-493.551	800.000	-0.067	0.289
-492.537	14.811	0.176	-0.140
-491.522	91.606	-0.293	0.333
-490.508	-56.713	0.250	-0.112
-489.493	800.000	-0.047	0.176
-488.478	-200.000	0.005	0.268
-487.464	-86.266	0.277	-0.087
-486.449	517.450	0.072	-0.170
-485.435	541.459	-0.042	-0.101
-484.420	585.643	-0.074	-0.185
-483.405	800.000	-0.036	0.127
-482.391	332.007	-0.027	-0.053
-481.376	-119.450	0.086	-0.015
-480.362	-97.658	-0.161	-0.042
-479.347	43.028	-0.145	0.134
-478.332	800.000	-0.019	-0.057
-477.318	-81.902	0.188	-0.062
-476.303	-200.000	0.009	0.042
-475.289	102.693	0.072	0.086
-474.274	-132.125	-0.359	-0.047
-473.259	46.672	0.230	-0.217
-472.245	800.000	0.069	-0.263
-471.230	-200.000	-0.025	-0.249
-470.216	-53.694	0.331	0.153
-469.201	-200.000	-0.042	0.269
-468.186	-200.000	-0.053	0.292
-467.172	-168.089	0.313	0.012
-466.157	174.512	-0.221	-0.323
-465.143	800.000	0.043	-0.141
-464.128	-200.000	-0.026	-0.262
-463.113	-19.430	-0.163	0.102
-462.099	800.000	-0.086	0.352
-461.084	269.829	0.186	-0.332
-460.070	30.760	-0.085	-0.074
-459.055	-53.166	0.313	0.146
-458.040	144.305	0.149	-0.202
-457.026	25.680	0.090	-0.076
-456.011	-62.864	-0.082	0.034
-454.997	57.390	-0.140	-0.139
-453.982	-53.904	0.297	-0.137
-452.968	-105.712	-0.226	0.052
-451.953	-200.000	0.037	0.199
-450.938	-131.109	-0.165	0.022
-449.924	744.457	-0.041	-0.112
-448.909	26.054	-0.261	0.221
-447.895	-122.985	-0.387	0.063
-446.880	720.088	0.063	0.170
-445.865	-38.028	-0.043	-0.023
-444.851	-92.355	-0.162	-0.046
-443.836	363.562	-0.124	0.252
-442.822	-79.016	-0.309	-0.106
-441.807	-86.287	-0.195	0.061
-440.792	-69.518	0.189	0.073
-439.778	-159.198	-0.322	0.018
-438.763	-200.000	0.020	-0.227
-437.749	-200.000	-0.016	0.273
-436.734	-180.490	0.243	0.005
-435.719	-200.000	-0.004	0.086
-434.705	-171.416	-0.208	0.007
-433.690	-200.000	0.007	-0.135
-432.676	-4.155	-0.154	-0.108
-431.661	-81.174	0.064	-0.022
-430.646	-22.788	0.117	-0.071
-429.632	29.151	-0.106	-0.091
-428.617	-123.631	-0.309	0.050
-427.603	14.995	0.195	-0.155
-426.588	800.000	-0.069	0.272
-425.573	47.394	0.133	0.125
-424.559	-165.143	-0.124	0.006
-423.544	1.788	0.317	0.231
-422.530	99.228	0.239	0.280
-421.515	-153.599	-0.259	-0.018
-420.500	-31.796	0.117	0.067
-419.486	260.356	0.121	0.211
-418.471	800.000	0.065	-0.273
-417.457	-135.032	0.210	0.026
-416.442	-70.259	-0.327	0.126
-415.428	-200.000	-0.009	0.130
-414.413	-25.416	0.147	-0.088
-413.398	-200.000	0.013	0.126
-412.384	-46.972	-0.137	0.068
-411.369	-40.882	-0.381	0.199
-410.355	800.000	-0.132	0.502
-409.340	-70.089	0.092	-0.035
-408.325	376.821	-0.090	-0.186
-407.311	-52.699	0.226	-0.106
-406.296	139.707	0.053	0.071
-405.282	800.000	0.061	0.243
-404.267	116.549	-0.101	-0.125
-403.252	800.000	0.057	0.245
-402.238	800.000	-0.110	0.343
-401.223	800.000	-0.124	-0.391
-400.209	-46.257	-0.207	0.103
-399.194	256.829	0.160	0.278
-398.179	-104.394	0.125	-0.029
-397.165	800.000	-0.025	-0.079
-396.150	17.636	-0.162	0.130
-395.136	-105.777	0.143	0.033
-394.121	303.829	-0.021	-0.040
-393.106	-90.140	-0.120	-0.035
-392.092	210.633	0.093	-0.148
-391.077	22.482	0.087	0.072
-390.063	-54.133	-0.015	-0.007
-389.048	159.351	0.186	0.262
-388.033	1.306	0.096	-0.070
-387.019	800.000	-0.069	-0.299
-386.004	358.625	-0.068	-0.137
-384.990	-66.064	0.074	-0.030
-383.975	-136.411	-0.339	0.040
-382.960	800.000	-0.021	0.058
-381.946	800.000	-0.049	0.197
-380.931	444.560	-0.095	-0.210
-379.917	-58.824	-0.171	-0.075
-378.902	13.136	0.139	-0.109
-377.888	742.389	-0.192	0.520
-376.873	-113.407	-0.318	-0.063
-375.858	-88.702	0.163	-0.049
-374.844	19.822	0.216	-0.175
-373.829	124.388	-0.171	0.217
-372.815	-145.487	-0.340	-0.031
-371.800	-88.020	-0.226	0.068
-370.785	-95.516	0.273	0.074
-369.771	800.000	-0.060	0.246
-368.756	-117.857	0.121	0.022
-367.742	57.588	-0.062	-0.061
-366.727	-16.864	0.130	0.083
-365.712	-165.748	0.070	-0.003
-364.698	251.849	0.069	-0.119
-363.683	581.925	0.046	-0.113
-362.669	800.000	0.062	-0.247
-361.654	-121.757	0.079	-0.013
-360.639	-200.000	-0.012	-0.394
-359.625	-54.228	0.133	-0.061
-358.610	800.000	-0.024	-0.066
-357.596	800.000	0.129	-0.360
-356.581	183.994	-0.215	-0.320
-355.566	-32.550	0.347	0.195
-354.552	36.860	0.108	-0.096
-353.537	-147.372	0.611	-0.052
-352.523	-129.086	-0.304	0.043
-351.508	800.000	0.049	0.177
-350.493	-137.571	0.242	0.028
-349.479	42.105	-0.047	-0.043
-348.464	589.768	-0.088	-0.218
-347.450	-15.692	0.129	0.083
-346.435	-200.000	-0.011	-0.143
-345.420	67.716	0.167	-0.172
-344.406	52.852	0.244	-0.235
-343.391	-56.584	0.059	-0.026
-342.377	-149.400	-0.061	0.005
-341.362	-54.015	0.173	0.079
-340.348	-53.508	0.208	-0.096
-339.333	66.345	0.295	0.302
-338.318	-80.185	-0.346	-0.117
-337.304	-60.502	-0.232	-0.099
-336.289	782.553	0.031	0.086
-335.275	-200.000	0.033	-0.239
-334.260	-200.000	-0.012	0.063
-333.245	477.498	-0.023	-0.052
-332.231	117.086	-0.055	0.068
-331.216	-168.982	-0.124	-0.005
-330.202	717.844	-0.068	0.181
-329.187	246.939	0.001	0.002
-328.172	-169.793	0.150	0.005
-327.158	-103.511	-0.329	0.078
-326.143	800.000	0.043	0.147
-325.129	800.000	-0.047	0.182
-324.114	-200.000	-0.045	0.254
-323.099	-90.853	0.144	-0.042
-322.085	-200.000	-0.001	0.044
-321.070	-200.000	-0.010	-0.219
-320.056	417.001	-0.050	0.107
-319.041	-4.017	0.055	0.038
-318.026	-200.000	-0.013	0.299
-317.012	800.000	0.085	-0.262
-315.997	-27.691	0.256	-0.150
-314.983	-200.000	0.012	0.483
-313.968	-71.302	-0.186	-0.070
-312.953	-133.943	0.106	0.013
-311.939	133.980	-0.104	0.136
-310.924	-32.834	0.151	-0.085
-309.910	-44.595	-0.400	-0.201
-308.895	33.373	-0.219	0.191
-307.880	-115.036	-0.211	0.040
-306.866	-200.000	0.037	0.179
-305.851	-40.605	0.229	0.119
-304.837	437.465	0.044	0.096
-303.822	-75.359	-0.195	0.070
-302.807	-31.251	-0.203	0.115
-301.793	800.000	0.050	0.217
-300.778	442.550	-0.108	-0.238
-299.764	800.000	-0.088	0.345
-298.749	125.394	0.238	0.302
-297.735	-200.000	-0.030	-0.378
-296.720	129.420	0.177	-0.227
-295.705	41.844	-0.218	0.199
-294.691	-56.747	0.174	0.077
-293.676	216.610	0.170	-0.272
-292.662	800.000	0.043	-0.145
-291.647	-74.364	-0.140	0.051
-290.632	-124.571	-0.396	0.062
-289.618	-164.108	0.252	-0.012
-288.603	411.068	0.075	0.161
-287.589	-75.601	0.074	0.026
-286.574	493.532	0.063	0.145
-285.559	-56.823	-0.277	-0.123
-284.545	800.000	0.130	0.368
-283.530	-60.894	0.103	0.044
-282.516	-155.508	0.218	0.014
-281.501	-110.594	0.232	-0.048
-280.486	470.286	0.110	-0.249
-279.472	256.281	0.065	0.112
-278.457	-200.000	-0.033	0.213
-277.443	407.187	0.224	-0.477
-276.428	157.788	0.255	0.356
-275.413	11.258	-0.040	-0.030
-274.399	-78.304	-0.281	0.097
-273.384	420.276	-0.085	-0.183
-272.370	172.605	0.053	0.077
-271.355	624.060	-0.130	0.328
-270.340	-166.950	0.146	-0.006
-269.326	69.691	-0.237	0.245
-268.311	-24.389	-0.113	0.068
-267.297	800.000	-0.109	0.416
-266.282	-200.000	0.223	-0.001
-265.267	-200.000	0.041	0.258
-264.253	-65.636	-0.144	-0.058
-263.238	124.129	0.045	0.057
-262.224	-15.475	0.261	-0.168
-261.209	-4.543	-0.037	-0.025
-260.195	109.779	-0.232	-0.279
-259.180	800.000	0.145	-0.440
-258.165	532.844	-0.058	-0.139
-257.151	-200.000	0.068	0.351
-256.136	-131.774	-0.254	0.033
-255.122	800.000	0.042	-0.154
-254.107	800.000	-0.054	0.158
-253.092	-116.604	0.240	0.044
-252.078	-200.000	0.009	-0.108
-251.063	428.673	-0.075	0.164
-250.049	-170.948	0.019	0.001
-249.034	405.924	0.044	-0.093
-248.019	-200.000	-0.061	0.337
-247.005	362.691	-0.072	-0.145
-245.990	24.952	0.091	0.075
-244.976	-168.839	0.142	-0.005
-243.961	-200.000	0.044	-0.512
-242.946	-28.491	-0.241	-0.140
-241.932	184.811	-0.055	0.082
-240.917	-200.000	-0.021	0.212
-239.903	-200.000	0.335	-0.000
-238.888	-200.000	-0.049	-0.247
-237.873	-200.000	0.014	-0.097
-236.859	-200.000	0.046	-0.405
-235.844	184.503	0.252	0.375
-234.830	86.536	0.232	0.257
-233.815	-104.709	0.199	-0.046
-232.800	-63.333	0.250	-0.103
-231.786	119.204	0.152	-0.189
-230.771	53.784	0.076	0.073
-229.757	800.000	-0.061	0.263
-228.742	158.832	0.159	0.222
-227.727	58.684	0.116	0.115
-226.713	-200.000	0.035	0.333
-225.698	-159.663	0.105	0.006
-224.684	-79.498	0.286	0.097
-223.669	-149.566	-0.248	-0.020
-222.655	-95.691	-0.297	-0.080
-221.640	800.000	-0.051	-0.201
-220.625	-12.296	0.149	-0.098
-219.611	-200.000	-0.007	-0.160
-218.596	59.211	-0.082	0.081
-217.582	29.242	0.158	0.135
-216.567	-29.044	0.196	-0.113
-215.552	-26.358	-0.278	0.164
-214.538	800.000	-0.020	-0.078
-213.523	-26.536	-0.041	-0.024
-212.509	43.746	0.288	0.265
-211.494	-123.350	-0.210	0.034
-210.479	-200.000	0.012	-0.101
-209.465	136.726	0.170	-0.223
-208.450	800.000	0.093	0.297
-207.436	681.896	0.152	0.398
-206.421	15.173	0.289	-0.227
-205.406	-85.619	-0.051	0.016
-204.392	-200.000	0.015	0.077
-203.377	-26.997	0.350	-0.205
-202.363	800.000	-0.090	-0.274
-201.348	-119.950	-0.258	0.045
-200.333	800.000	-0.052	-0.151
-199.319	-64.776	0.179	-0.073
-198.304	189.258	0.062	0.094
-197.290	374.544	0.094	-0.193
-196.275	113.682	0.082	0.100
-195.260	-45.985	0.236	-0.117
-194.246	-79.478	0.586	0.198
-193.231	-155.263	-0.249	-0.016
-192.217	-200.000	-0.013	-0.226
-191.202	610.603	-0.170	0.426
-190.187	-0.539	0.114	-0.081
-189.173	800.000	-0.030	-0.115
-188.158	-181.046	-0.105	-0.002
-187.144	-200.000	-0.088	0.648
-186.129	800.000	0.083	0.231
-185.114	468.487	-0.084	-0.189
-184.100	-36.902	-0.058	0.031
-183.085	235.204	0.062	-0.103
-182.071	-41.332	-0.366	-0.189
-181.056	800.000	0.065	-0.215
-180.042	9.973	0.356	0.271
-179.027	800.000	-0.078	-0.237
-178.012	-108.592	0.093	-0.020
-176.998	454.476	-0.160	0.356
-175.983	478.118	-0.163	-0.369
-174.969	264.974	-0.045	0.078
-173.954	-200.000	-0.012	0.269
-172.939	217.561	0.047	0.075
-171.925	112.252	0.124	-0.150
-170.910	-85.064	0.155	-0.049
-169.896	-200.000	-0.027	-0.306
-168.881	-200.000	-0.029	-0.281
-167.866	-200.000	-0.008	0.049
-166.852	-43.072	0.203	-0.103
-165.837	-10.949	0.315	-0.208
-164.823	-19.450	0.192	0.119
-163.808	-200.000	-0.027	0.175
-162.793	-54.212	0.077	0.035
-161.779	-142.345	-0.372	0.037
-160.764	-186.665	0.478	-0.007
-159.750	-72.268	-0.132	-0.049
-158.735	324.496	0.046	-0.089
-157.720	142.479	-0.110	0.147
-156.706	24.777	0.233	0.193
-155.691	-128.020	0.342	0.049
-154.677	103.949	-0.153	-0.179
-153.662	-200.000	0.070	0.418
-152.647	-88.146	-0.479	0.144
-151.633	-41.962	-0.336	-0.172
-150.618	365.270	0.043	-0.086
-149.604	-70.312	-0.174	-0.066
-148.589	141.961	0.083	-0.110
-147.574	-92.340	0.180	-0.051
-146.560	800.000	0.130	-0.567
-145.545	-112.855	0.075	0.015
-144.531	121.776	-0.142	-0.177
-143.516	-13.188	0.117	-0.076
-142.502	800.000	-0.085	-0.248
-141.487	-200.000	-0.022	-0.346
-140.472	-46.016	0.397	-0.196
-139.458	-200.000	0.055	0.248
-138.443	471.885	0.271	0.610
-137.429	54.678	-0.087	0.084
-136.414	-0.793	0.113	-0.080
-135.399	222.014	-0.096	0.155
-134.385	92.222	0.267	-0.301
-133.370	34.687	-0.160	0.140
-132.356	800.000	0.131	-0.394
-131.341	-170.693	0.257	0.009
-130.326	-200.000	-0.007	-0.095
-129.312	-98.630	0.142	-0.036
-128.297	-200.000	0.002	0.012
-127.283	-144.636	0.330	-0.030
-126.268	-177.946	-0.116	-0.003
-125.253	-62.893	-0.201	-0.083
-124.239	-200.000	0.014	-0.252
-123.224	144.987	-0.045	0.060
-122.210	460.490	0.177	0.393
-121.195	97.906	0.046	0.053
-120.180	-200.000	-0.009	-0.152
-119.166	-14.758	-0.053	-0.034
-118.151	800.000	0.035	-0.137
-117.137	202.804	0.165	0.254
-116.122	1.098	0.237	-0.170
-115.107	112.748	0.188	-0.228
-114.093	-171.788	-0.148	-0.005
-113.078	546.167	-0.081	-0.194
-112.064	-54.455	0.188	-0.085
-111.049	161.045	0.097	0.136
-110.034	-69.918	-0.252	0.096
-109.020	58.306	0.145	-0.142
-108.005	800.000	-0.118	0.403
-106.991	-49.920	-0.279	0.132
-105.976	-97.425	-0.211	0.055
-104.962	122.918	-0.144	-0.180
-103.947	-75.884	-0.256	-0.091
-102.932	27.332	-0.084	0.070
-101.918	-46.840	-0.262	-0.128
-100.903	-11.953	0.176	-0.115
-99.889	-200.000	-0.054	0.439
-98.874	-35.329	0.215	-0.117
-97.859	800.000	0.043	-0.125
-96.845	151.850	0.157	-0.214
-95.830	-137.504	-0.060	0.007
-94.816	90.635	-0.082	0.091
-93.801	-8.340	-0.174	-0.117
-92.786	-200.000	-0.025	-0.146
-91.772	-200.000	-0.022	-0.204
-90.757	-8.398	-0.276	-0.186
-89.743	-200.000	-0.044	-0.404
-88.728	-60.829	0.283	0.119
-87.713	35.062	-0.096	-0.084
-86.699	-39.636	-0.077	0.040
-85.684	-57.163	0.402	0.177
-84.670	514.197	-0.038	0.089
-83.655	-81.942	-0.060	-0.020
-82.640	-51.551	0.242	0.113
-81.626	-78.159	-0.069	0.024
-80.611	-67.690	0.429	0.168
-79.597	5.661	0.227	-0.168
-78.582	-44.293	-0.333	0.167
-77.567	-39.506	0.190	0.099
-76.553	-23.119	0.120	0.072
-75.538	-106.529	0.328	0.073
-74.524	736.992	0.062	-0.165
-73.509	359.278	-0.080	-0.160
-72.494	-14.624	0.115	0.073
-71.480	58.597	-0.114	0.112
-70.465	-71.733	-0.150	0.056
-69.451	-200.000	0.003	0.077
-68.436	660.124	0.034	0.087
-67.422	-200.000	0.039	0.181
-66.407	800.000	-0.030	0.106
-65.392	800.000	0.050	0.220
-64.378	800.000	0.112	0.366
-63.363	14.487	-0.066	-0.051
-62.349	-66.599	-0.052	0.021
-61.334	47.145	-0.924	-0.858
-60.319	278.897	0.151	0.269
-59.305	-200.000	-0.090	-0.677
-58.290	800.000	0.254	0.712
-57.276	314.587	0.842	1.581
-56.261	-200.000	74.913	533.165
-55.246	560.898	1301.182	3134.606
-54.232	146.781	2534.584	3395.679
-53.217	119.972	2244.201	2773.756
-52.203	53.597	1761.761	1684.911
-51.188	46.055	1556.384	1435.971
-50.173	43.038	1526.576	1387.680
-49.159	58.668	1562.793	1529.534
-48.144	65.449	1582.306	1595.651
-47.130	46.243	1545.800	1427.289
-46.115	42.528	1531.091	1388.040
-45.100	42.320	1528.061	1383.800
-44.086	42.275	1525.954	1381.527
-43.071	42.270	1523.764	1379.454
-42.057	42.348	1521.116	1377.540
-41.042	42.159	1520.292	1375.441
-40.027	42.175	1519.020	1374.346
-39.013	42.193	1517.690	1373.209
-37.998	42.143	1516.460	1371.698
-36.984	42.239	1515.183	1371.150
-35.969	42.357	1513.463	1370.342
-34.954	42.376	1512.361	1369.419
-33.940	42.232	1511.017	1367.169
-32.925	42.271	1509.066	1365.614
-31.911	42.311	1507.973	1364.842
-30.896	42.272	1506.938	1363.589
-29.881	42.258	1505.987	1362.579
-28.867	42.302	1504.392	1361.379
-27.852	42.383	1503.043	1360.651
-26.838	42.280	1501.650	1358.640
-25.823	42.269	1500.106	1357.116
-24.809	42.374	1497.862	1355.742
-23.794	42.266	1496.675	1353.886
-22.779	42.266	1495.919	1353.142
-21.765	42.342	1494.587	1352.398
-20.750	42.368	1493.305	1351.358
-19.736	42.280	1492.263	1349.772
-18.721	42.274	1491.244	1348.757
-17.706	42.311	1489.312	1347.204
-16.692	42.282	1488.490	1346.215
-15.677	42.238	1487.600	1345.061
-14.663	42.225	1486.587	1344.001
-13.648	42.148	1485.658	1342.591
-12.633	42.234	1484.664	1342.217
-11.619	42.098	1484.522	1341.127
-10.604	42.161	1483.124	1340.230
-9.590	42.136	1482.343	1339.306
-8.575	42.185	1481.582	1338.888
-7.560	42.211	1480.274	1337.830
-6.546	42.289	1479.010	1337.156
-5.531	42.185	1478.532	1335.976
-4.517	42.251	1477.585	1335.509
-3.502	42.242	1476.714	1334.608
-2.487	42.239	1475.449	1333.393
-1.473	42.171	1474.504	1332.031
-0.458	42.153	1473.357	1330.821
0.556	41.309	1464.566	1321.799
1.571	38.963	1437.885	1282.303
2.586	35.740	1376.613	1207.354
3.600	33.936	1294.422	1124.510
4.615	32.082	1245.839	1071.638
5.629	26.592	1186.070	990.209
6.644	13.163	1091.834	843.356
7.659	2.753	1043.190	754.711
8.673	1.102	1036.960	742.057
9.688	0.933	1034.005	739.053
10.702	0.774	1032.381	737.050
11.717	0.752	1030.847	735.787
12.731	5.119	1036.331	760.965
13.746	16.886	1053.304	831.383
14.761	23.916	1061.765	872.610
15.775	23.672	1060.266	870.107
16.790	23.235	1059.919	867.605
17.804	23.181	1058.435	866.051
18.819	22.968	1057.726	864.348
19.834	22.960	1057.182	863.792
20.848	23.190	1056.451	864.241
21.863	23.154	1056.125	863.721
22.877	23.145	1056.076	863.558
23.892	23.157	1054.989	862.655
24.907	22.941	1054.743	861.324
25.921	23.086	1053.882	861.252
26.936	23.179	1052.749	860.699
27.950	22.995	1051.900	859.034
28.965	23.135	1050.514	858.505
29.980	22.918	1049.594	856.626
30.994	22.880	1047.819	854.920
32.009	23.223	1046.929	855.773
33.023	23.175	1046.659	855.248
34.038	23.087	1045.148	853.514
35.053	22.893	1044.565	852.026
36.067	23.087	1043.906	852.349
37.082	23.229	1043.123	852.315
38.096	23.179	1042.193	851.240
39.111	23.265	1042.044	851.455
40.126	23.442	1041.252	851.586
41.140	23.206	1040.137	849.466
42.155	23.027	1038.450	847.153
43.169	22.789	1036.974	844.737
44.184	22.682	1035.906	843.279
45.199	22.894	1034.705	843.241
46.213	22.791	1034.154	842.223
47.228	22.686	1033.355	840.999
48.242	22.866	1032.644	841.204
49.257	22.886	1031.874	840.597
50.271	23.035	1030.979	840.502
51.286	23.153	1029.965	840.159
52.301	23.101	1029.393	839.375
53.315	23.121	1028.797	838.908
54.330	23.125	1027.819	838.056
55.344	22.996	1027.298	836.947
56.359	23.144	1026.180	836.663
57.374	23.102	1025.358	835.718
58.388	22.912	1024.490	834.039
59.403	22.802	1023.806	832.891
60.417	22.898	1022.740	832.401
61.432	22.749	1022.372	831.327
62.447	22.690	1021.342	830.136
63.461	22.823	1020.941	830.362
64.476	22.948	1020.216	830.287
65.490	22.843	1019.129	828.838
66.505	22.855	1017.643	827.613
67.520	22.672	1017.369	826.460
68.534	22.914	1016.931	827.162
69.549	22.750	1015.657	825.288
70.563	22.445	1014.548	822.888
71.578	22.401	1013.666	821.892
72.593	22.469	1012.924	821.537
73.607	22.265	1011.826	819.621
74.622	22.356	1010.791	819.133
75.636	22.715	1009.890	820.001
76.651	22.827	1009.235	819.919
77.666	22.608	1008.690	818.387
78.680	22.490	1007.842	817.077
79.695	22.567	1007.526	817.108
80.709	22.668	1006.514	816.679
81.724	22.783	1005.880	816.625
82.739	22.749	1005.051	815.725
83.753	22.821	1003.914	815.063
84.768	22.900	1004.008	815.429
85.782	23.361	1003.167	816.799
86.797	23.389	1002.842	816.594
87.812	23.487	1001.361	815.766
88.826	23.323	1000.758	814.450
89.841	23.202	999.740	812.993
90.855	23.343	998.877	812.865
91.870	23.274	998.350	812.048
92.884	23.364	997.373	811.594
93.899	23.203	996.472	810.051
94.914	23.115	995.417	808.722
95.928	23.325	995.039	809.303
96.943	23.332	993.744	808.207
97.957	22.968	993.262	806.084
98.972	22.821	991.573	803.971
99.987	22.664	990.313	802.165
101.001	22.733	989.890	802.067
102.016	22.989	989.554	802.887
103.030	23.041	988.852	802.482
104.045	22.921	987.462	800.738
105.060	23.000	985.995	799.835
106.074	22.785	984.614	797.674
107.089	22.694	984.776	797.323
108.103	23.018	984.359	798.378
109.118	23.065	983.563	797.874
110.133	22.873	981.984	795.657
111.147	22.852	981.568	795.154
112.162	22.702	980.168	793.275
113.176	22.507	978.955	791.348
114.191	22.794	977.863	791.682
115.206	22.759	977.158	790.887
116.220	22.542	976.320	789.164
117.235	22.492	975.185	787.956
118.249	22.473	974.522	787.264
119.264	22.417	974.168	786.658
120.279	22.566	972.821	786.168
121.293	22.475	972.545	785.468
122.308	22.469	972.039	784.962
123.322	22.664	970.814	784.770
124.337	22.522	969.752	783.214
125.352	22.365	968.499	781.433
126.366	22.014	967.015	778.612
127.381	21.791	965.317	776.189
128.395	22.113	965.611	777.783
129.410	22.813	964.984	780.303
130.424	23.037	964.190	780.583
131.439	23.161	963.117	780.193
132.454	22.997	962.405	778.823
133.468	23.114	961.471	778.512
134.483	22.982	960.786	777.309
135.497	23.025	960.390	777.108
136.512	23.306	959.632	777.659
137.527	23.380	958.636	777.110
138.541	23.348	957.873	776.281
139.556	23.267	957.402	775.477
140.570	23.232	957.008	774.938
141.585	23.309	955.670	774.123
142.600	23.446	955.092	774.183
143.614	23.253	954.190	772.542
144.629	23.418	953.698	772.794
145.643	23.582	953.119	772.972
146.658	23.481	952.167	771.689
147.673	23.437	950.631	770.185
148.687	23.257	949.927	768.768
149.702	23.088	948.762	767.024
150.716	22.964	947.951	765.760
151.731	22.965	946.678	764.668
152.746	23.078	946.044	764.578
153.760	23.142	945.733	764.536
154.775	23.333	944.834	764.566
155.789	23.491	943.460	764.069
156.804	23.486	942.868	763.501
157.819	23.306	941.866	761.848
158.833	23.333	941.144	761.308
159.848	23.487	940.479	761.365
160.862	23.464	939.918	760.748
161.877	23.381	939.013	759.591
162.892	23.358	937.940	758.559
163.906	23.375	937.190	757.957
164.921	23.421	936.067	757.178
165.935	23.316	935.218	755.977
166.950	23.446	934.307	755.725
167.964	23.388	933.364	754.651
168.979	23.237	932.545	753.278
169.994	23.214	931.562	752.322
171.008	23.080	930.468	750.801
172.023	23.410	929.589	751.426
173.037	23.432	928.886	750.881
174.052	23.320	927.743	749.418
175.067	23.084	926.782	747.578
176.081	23.178	925.748	747.074
177.096	23.195	925.066	746.531
178.110	23.122	924.540	745.732
179.125	23.131	923.103	744.544
180.140	22.840	921.884	742.273
181.154	22.656	921.797	741.362
182.169	22.820	920.983	741.333
183.183	22.948	921.118	741.912
184.198	23.358	920.374	742.969
185.213	23.255	920.063	742.221
186.227	23.198	919.026	741.080
187.242	23.341	918.145	740.899
188.256	23.355	917.994	740.772
189.271	23.314	916.896	739.648
190.286	23.388	916.408	739.500
191.300	23.383	915.238	738.470
192.315	22.784	914.275	735.133
193.329	22.194	912.340	731.057
194.344	21.678	911.511	728.184
195.359	22.213	911.831	730.598
196.373	23.003	912.047	733.992
197.388	23.182	912.065	734.684
198.402	23.230	911.395	734.277
199.417	23.259	910.477	733.595
200.432	23.208	910.059	732.981
201.446	23.148	908.844	731.689
202.461	22.799	908.608	729.993
203.475	22.875	908.213	729.924
204.490	22.460	906.484	726.758
205.504	21.398	904.489	720.716
206.519	21.631	904.652	721.743
207.534	22.766	904.385	726.141
208.548	22.808	903.887	725.847
209.563	23.145	904.241	727.455
210.577	23.197	903.282	726.833
211.592	22.917	902.461	724.960
212.607	23.410	902.052	726.589
213.621	23.465	901.882	726.611
214.636	23.378	901.106	725.565
215.650	23.371	900.426	724.927
216.665	23.366	899.545	724.134
217.680	23.517	899.221	724.426
218.694	23.473	899.051	724.044
219.709	23.064	898.134	721.570
220.723	22.877	896.713	719.605
221.738	23.098	896.406	720.193
222.753	23.237	896.109	720.457
223.767	23.212	895.107	719.487
224.782	23.398	894.278	719.511
225.796	23.386	894.232	719.364
226.811	23.574	893.457	719.437
227.826	23.113	892.247	716.534
228.840	22.416	890.550	712.287
229.855	22.174	890.367	711.098
230.869	22.606	889.912	712.421
231.884	22.286	888.843	710.210
232.899	22.236	888.206	709.435
233.913	22.943	888.784	712.687
234.928	23.227	888.350	713.422
235.942	23.127	887.743	712.467
236.957	23.120	887.111	711.870
237.972	22.873	886.019	709.936
238.986	22.751	885.369	708.863
240.001	22.996	884.349	708.966
241.015	22.904	883.900	708.176
242.030	22.951	883.605	708.065
243.045	23.092	883.092	708.154
244.059	23.227	882.640	708.270
245.074	23.374	882.008	708.288
246.088	23.364	881.337	707.646
247.103	22.989	880.497	705.414
248.117	23.010	879.759	704.843
249.132	23.462	879.613	706.468
250.147	23.833	879.711	707.958
251.161	23.800	879.389	707.506
252.176	24.005	878.993	707.941
253.190	23.964	878.218	707.093
254.205	24.139	877.263	706.957
255.220	24.258	877.236	707.341
256.234	24.199	876.573	706.512
257.249	24.253	875.639	705.911
258.263	23.932	875.578	704.527
259.278	24.018	874.667	704.072
260.293	23.898	874.391	703.315
261.307	24.294	873.357	703.984
262.322	24.146	872.492	702.641
263.336	24.104	872.090	702.086
264.351	23.654	870.646	699.091
265.366	22.559	868.492	692.999
266.380	22.079	867.686	690.409
267.395	22.884	868.272	693.975
268.409	23.686	868.278	697.071
269.424	23.664	867.930	696.643
270.439	23.864	867.232	696.805
271.453	23.873	866.695	696.345
272.468	24.038	865.931	696.319
273.482	24.082	865.282	695.906
274.497	24.187	865.417	696.362
275.512	24.057	864.114	694.745
276.526	23.447	862.807	691.255
277.541	23.589	862.686	691.650
278.555	24.039	862.291	693.024
279.570	23.797	861.490	691.378
280.585	23.664	860.961	690.377
281.599	23.597	860.412	689.612
282.614	23.854	859.998	690.219
283.628	23.662	858.628	688.314
284.643	23.046	857.964	685.333
285.657	23.432	857.929	686.740
286.672	23.279	857.402	685.665
287.687	22.914	856.297	683.309
288.701	23.190	856.186	684.230
289.716	23.513	856.169	685.404
290.730	23.248	854.935	683.332
291.745	23.212	854.245	682.581
292.760	23.018	853.155	680.903
293.774	22.863	852.663	679.854
294.789	23.730	853.581	683.863
295.803	24.524	853.368	686.687
296.818	24.461	852.881	685.994
297.833	24.758	852.121	686.462
298.847	24.346	851.043	683.952
299.862	24.088	850.093	682.141
300.876	24.104	849.787	681.894
301.891	24.300	849.706	682.520
302.906	24.523	849.074	682.804
303.920	24.094	847.924	680.181
304.935	23.826	847.407	678.684
305.949	24.429	846.874	680.498
306.964	24.543	846.497	680.569
307.979	24.169	845.709	678.449
308.993	24.274	844.932	678.168
310.008	24.391	845.357	678.893
311.022	24.681	844.604	679.331
312.037	24.469	843.985	677.968
313.052	24.335	843.253	676.811
314.066	24.116	842.542	675.350
315.081	23.564	841.099	672.042
316.095	22.770	839.813	667.952
317.110	23.242	840.168	669.963
318.125	24.064	840.469	673.255
319.139	23.890	839.106	671.446
320.154	22.727	837.632	665.819
321.168	22.232	836.408	662.921
322.183	22.901	836.675	665.595
323.197	23.576	837.164	668.469
324.212	24.064	836.859	670.007
325.227	24.167	836.737	670.237
326.241	24.143	836.425	669.837
327.256	24.260	835.645	669.590
328.270	23.992	835.152	668.132
329.285	24.016	834.654	667.762
330.300	23.897	833.453	666.298
331.314	23.658	832.547	664.619
332.329	23.526	832.468	664.003
333.343	23.990	832.148	665.428
334.358	24.323	831.496	666.089
335.373	24.366	830.958	665.761
336.387	24.391	830.369	665.323
337.402	24.597	830.472	666.114
338.416	24.770	830.053	666.363
339.431	24.588	829.513	665.194
340.446	24.813	828.536	665.188
341.460	24.797	828.208	664.805
342.475	24.928	827.339	664.535
343.489	24.709	826.780	663.216
344.504	24.640	826.050	662.315
345.519	25.003	825.749	663.362
346.533	25.063	825.782	663.550
347.548	25.130	825.571	663.569
348.562	25.357	824.766	663.705
349.577	25.269	823.802	662.544
350.592	25.098	823.423	661.551
351.606	25.117	822.743	661.016
352.621	25.065	822.552	660.613
353.635	24.960	822.293	659.959
354.650	24.897	821.517	659.046
355.665	24.687	820.779	657.621
356.679	23.654	818.984	652.334
357.694	23.475	818.526	651.253
358.708	24.067	818.512	653.359
359.723	24.081	817.836	652.811
360.738	24.251	817.489	653.098
361.752	24.559	817.703	654.342
362.767	24.806	817.032	654.649
363.781	25.057	816.995	655.479
364.796	25.206	817.026	655.993
365.810	25.463	816.263	656.260
366.825	25.480	815.982	656.040
367.840	25.534	815.785	656.020
368.854	25.278	815.467	654.773
369.869	24.790	814.314	652.011
370.883	24.693	813.748	651.148
371.898	24.969	812.937	651.443
372.913	24.716	812.370	650.013
373.927	24.844	811.641	649.836
374.942	25.099	810.868	650.085
375.956	24.994	810.561	649.398
376.971	25.157	810.077	649.543
377.986	25.125	809.896	649.228
379.000	25.442	809.310	649.845
380.015	25.591	808.628	649.778
381.029	25.360	808.009	648.391
382.044	25.131	807.716	647.271
383.059	25.364	807.143	647.595
384.073	25.366	806.771	647.247
385.088	25.380	806.302	646.862
386.102	25.458	805.400	646.364
387.117	25.366	804.712	645.422
388.132	25.146	804.331	644.271
389.146	25.047	803.780	643.416
390.161	24.468	802.680	640.403
391.175	24.578	802.166	640.330
392.190	25.124	802.221	642.272
393.205	25.027	802.050	641.734
394.219	24.217	800.201	637.303
395.234	22.747	797.777	630.068
396.248	21.896	796.899	626.284
397.263	22.651	797.895	629.708
398.278	24.456	799.472	637.349
399.292	25.053	799.299	639.283
400.307	24.818	798.122	637.448
401.321	24.725	797.505	636.570
402.336	24.735	797.780	636.767
403.350	25.050	797.374	637.510
404.365	25.533	797.208	639.037
405.380	25.768	797.316	639.904
406.394	26.029	796.979	640.500
407.409	26.279	796.490	640.939
408.423	26.211	795.907	640.172
409.438	25.957	795.577	638.949
410.453	25.876	795.490	638.536
411.467	26.051	794.895	638.621
412.482	26.077	794.033	637.966
413.496	26.023	793.620	637.387
414.511	26.296	793.358	638.084
415.526	26.427	792.580	637.863
416.540	26.137	792.528	636.740
417.555	26.046	792.198	636.099
418.569	25.761	791.268	634.293
419.584	25.750	790.664	633.713
420.599	25.783	790.311	633.491
421.613	90.569	1250.962	1347.589
422.628	77.190	1318.112	1347.725
