DTS Sentinel unit serial number:	SN413079Multiplexer serial number:	ORYXHardware model number:	OX4-SRSoftware version number:	ORYX F/W v4.00 Oryx Data Collector v3.7.2.0data status	okinstallation	princeton_trtdifferential loss correction	single-endedforward channel	channel 3reverse channel	N/Adate	2019/09/16time	00:56:34forward acquisition time	60.00reverse acquisition time	0.00gamma	496.2192k internal	0.2339k external	0.2339temperature offset calibration	0.9950default loss term (dB/km)	0.3790temperature slope calibration	1.0000multiplexer offset coefficient	1.0000multiplexer slope coefficient	1.0000fibre end	0.00T internal ref (°C)	27.37T ext. ref 1 (°C)	9.72T ext. ref 2 (°C)	21.33length (m)	temperature (°C)	Stokes	anti-Stokes-747.200	-87.369	-0.296	0.090
-746.185	156.400	-0.268	0.371
-745.171	-200.000	-0.033	0.162
-744.156	-200.000	-0.091	0.501
-743.142	-200.000	-0.137	0.001
-742.127	133.410	0.114	0.148
-741.112	-138.540	-0.265	0.029
-740.098	-146.241	0.115	-0.010
-739.083	-139.179	0.312	0.034
-738.069	-72.055	-0.353	0.132
-737.054	16.695	0.240	0.190
-736.039	183.383	-0.213	-0.315
-735.025	160.288	-0.047	0.065
-734.010	452.533	-0.102	-0.226
-732.996	-124.062	-0.309	0.049
-731.981	800.000	-0.072	-0.251
-730.966	-98.477	-0.317	-0.081
-729.952	-161.966	-0.589	-0.030
-728.937	800.000	-0.037	-0.111
-727.923	16.063	-0.070	-0.055
-726.908	7.349	-0.237	0.178
-725.894	-112.557	0.386	-0.077
-724.879	800.000	-0.103	-0.316
-723.864	-13.054	-0.129	0.084
-722.850	10.621	0.147	0.112
-721.835	76.602	-0.139	-0.147
-720.821	-27.774	0.039	0.023
-719.806	-200.000	-0.012	0.056
-718.791	-59.940	-0.143	-0.061
-717.777	800.000	0.026	0.106
-716.762	-40.807	-0.461	-0.239
-715.748	-200.000	-0.001	0.081
-714.733	-67.925	-0.536	-0.210
-713.718	800.000	0.063	-0.193
-712.704	-177.990	-0.124	0.003
-711.689	35.287	-0.066	0.058
-710.675	800.000	-0.037	0.115
-709.660	-126.344	0.041	-0.006
-708.645	135.417	-0.060	0.078
-707.631	-56.599	-0.183	0.081
-706.616	164.252	-0.124	-0.175
-705.602	152.494	-0.087	-0.120
-704.587	800.000	0.072	-0.276
-703.572	-159.709	-0.220	-0.012
-702.558	800.000	0.018	0.055
-701.543	68.680	-0.181	-0.186
-700.529	-136.785	0.068	0.008
-699.514	-200.000	-0.030	-0.294
-698.499	84.105	0.124	0.136
-697.485	21.591	-0.245	0.200
-696.470	800.000	0.052	-0.205
-695.456	-89.620	0.303	-0.089
-694.441	-28.135	-0.241	0.139
-693.426	-164.329	-0.123	-0.006
-692.412	-124.552	0.175	-0.027
-691.397	-107.457	-0.190	0.042
-690.383	19.829	0.103	0.083
-689.368	78.188	-0.234	-0.250
-688.354	-113.748	-0.512	-0.100
-687.339	-150.736	0.255	0.019
-686.324	-75.842	-0.225	-0.080
-685.310	-200.000	-0.025	-0.174
-684.295	-85.494	-0.250	0.078
-683.281	433.813	0.024	-0.051
-682.266	-13.048	0.302	-0.197
-681.251	-200.000	0.064	-0.300
-680.237	456.400	0.112	0.248
-679.222	50.724	0.163	-0.154
-678.208	-200.000	0.018	-0.288
-677.193	257.739	-0.076	0.131
-676.178	800.000	-0.059	-0.251
-675.164	800.000	0.063	-0.271
-674.149	-2.049	0.088	-0.062
-673.135	-200.000	-0.013	0.139
-672.120	-200.000	-0.024	0.149
-671.105	10.609	0.220	-0.168
-670.091	30.313	-0.109	0.093
-669.076	800.000	0.013	0.053
-668.062	472.475	0.183	0.412
-667.047	-200.000	-0.028	0.184
-666.032	-109.969	-0.061	-0.013
-665.018	47.003	-0.325	-0.303
-664.003	-200.000	0.022	0.329
-662.989	-61.312	0.160	-0.067
-661.974	800.000	0.064	-0.273
-660.959	115.455	-0.266	0.326
-659.945	800.000	-0.066	0.233
-658.930	-107.735	0.073	-0.016
-657.916	-200.000	-0.005	0.088
-656.901	-110.505	0.293	0.061
-655.886	-178.125	-0.101	-0.002
-654.872	394.537	0.056	-0.117
-653.857	-10.813	0.103	0.068
-652.843	-79.128	0.182	-0.062
-651.828	52.803	-0.143	-0.137
-650.814	68.095	0.195	-0.199
-649.799	70.406	-0.278	0.287
-648.784	-172.649	-0.052	0.002
-647.770	61.328	0.113	-0.112
-646.755	199.993	-0.120	-0.184
-645.741	-101.691	-0.319	-0.077
-644.726	-87.851	0.237	-0.071
-643.711	-75.140	-0.342	-0.122
-642.697	248.361	0.202	-0.342
-641.682	-200.000	-0.010	-0.105
-640.668	-200.000	-0.027	-0.217
-639.653	-43.453	0.248	0.125
-638.638	800.000	-0.059	-0.191
-637.624	233.548	0.032	-0.052
-636.609	1.671	0.306	-0.221
-635.595	-17.504	0.287	0.180
-634.580	358.224	-0.205	0.409
-633.565	-51.702	-0.269	0.125
-632.551	800.000	0.032	-0.090
-631.536	352.182	0.080	-0.159
-630.522	94.274	0.093	0.106
-629.507	100.937	-0.075	-0.087
-628.492	36.244	0.128	-0.113
-627.478	148.662	0.162	-0.218
-626.463	361.434	-0.046	-0.092
-625.449	0.491	-0.403	0.288
-624.434	16.763	0.229	-0.181
-623.419	102.404	0.080	0.093
-622.405	228.034	0.112	-0.182
-621.390	-54.705	0.221	-0.100
-620.376	21.326	-0.187	-0.152
-619.361	324.122	0.098	-0.187
-618.346	-200.000	-0.027	-0.158
-617.332	-84.336	-0.070	-0.022
-616.317	70.513	0.236	-0.244
-615.303	155.190	0.214	-0.294
-614.288	229.360	0.092	-0.149
-613.273	261.952	0.242	0.420
-612.259	135.279	-0.246	-0.319
-611.244	32.456	-0.090	0.078
-610.230	-28.532	-0.386	0.222
-609.215	-149.814	-0.214	-0.017
-608.201	127.941	-0.278	0.352
-607.186	302.709	0.070	-0.129
-606.171	-44.851	0.133	-0.066
-605.157	-89.118	0.200	0.059
-604.142	287.478	0.091	-0.164
-603.128	-110.774	-0.068	-0.014
-602.113	-26.253	0.179	0.105
-601.098	45.183	-0.286	0.263
-600.084	-180.507	0.101	-0.002
-599.069	-93.407	-0.174	0.048
-598.055	69.772	-0.141	-0.145
-597.040	-75.941	0.196	-0.069
-596.025	800.000	-0.096	0.385
-595.011	404.579	-0.046	0.096
-593.996	-200.000	-0.023	0.142
-592.982	500.967	0.189	0.434
-591.967	647.235	0.009	0.024
-590.952	250.392	-0.205	0.347
-589.938	15.518	0.147	0.115
-588.923	-62.368	-0.314	0.130
-587.909	-200.000	0.050	0.291
-586.894	-5.106	0.501	0.344
-585.879	26.225	-0.073	-0.061
-584.865	-14.984	0.234	0.149
-583.850	326.578	-0.076	-0.146
-582.836	-11.232	-0.227	0.149
-581.821	800.000	0.030	0.095
-580.806	122.189	-0.139	-0.174
-579.792	-140.068	0.179	0.019
-578.777	24.269	-0.099	0.082
-577.763	-200.000	0.032	0.234
-576.748	398.785	0.047	0.099
-575.733	25.544	-0.082	0.068
-574.719	-45.090	-0.391	-0.194
-573.704	-67.091	-0.206	-0.081
-572.690	613.724	0.041	-0.102
-571.675	-83.784	-0.166	0.053
-570.661	-126.043	-0.102	0.015
-569.646	28.145	-0.248	-0.209
-568.631	639.101	0.181	0.459
-567.617	-9.143	-0.256	-0.171
-566.602	-71.785	-0.117	0.043
-565.588	69.254	0.170	-0.174
-564.573	800.000	-0.101	-0.285
-563.558	63.416	0.153	0.153
-562.544	177.153	0.088	-0.128
-561.529	27.163	-0.198	-0.165
-560.515	-74.896	0.155	0.055
-559.500	-13.315	-0.154	-0.100
-558.485	-34.510	0.290	-0.158
-557.471	-102.145	-0.167	0.040
-556.456	120.076	-0.193	-0.238
-555.442	-119.796	-0.102	0.017
-554.427	-60.516	0.065	-0.027
-553.412	-78.047	0.265	-0.091
-552.398	800.000	0.042	0.123
-551.383	-100.158	0.033	0.008
-550.369	157.520	0.090	0.125
-549.354	-200.000	0.043	0.202
-548.339	-106.047	0.149	-0.033
-547.325	-28.238	0.101	0.058
-546.310	-121.299	-0.385	0.064
-545.296	-57.996	0.282	0.122
-544.281	-52.956	-0.261	-0.120
-543.266	-133.374	0.404	0.051
-542.252	800.000	-0.097	0.385
-541.237	122.407	0.208	-0.259
-540.223	246.825	-0.062	-0.105
-539.208	-200.000	0.074	0.374
-538.193	800.000	0.021	-0.071
-537.179	43.300	-0.323	0.293
-536.164	481.124	-0.098	0.222
-535.150	151.822	-0.024	-0.033
-534.135	-76.957	-0.043	-0.015
-533.121	800.000	-0.084	0.273
-532.106	118.043	-0.220	0.269
-531.091	-200.000	-0.018	-0.179
-530.077	176.389	-0.171	0.247
-529.062	800.000	-0.029	-0.112
-528.048	-87.803	-0.140	0.042
-527.033	-200.000	-0.035	0.320
-526.018	751.312	-0.204	-0.548
-525.004	-141.593	-0.290	-0.029
-523.989	204.431	0.022	0.034
-522.975	-150.726	0.215	0.016
-521.960	-200.000	0.030	-0.305
-520.945	-47.069	0.225	-0.109
-519.931	-96.234	0.137	0.036
-518.916	-1.956	0.196	-0.137
-517.902	-200.000	0.022	-0.207
-516.887	-200.000	-0.019	-0.346
-515.872	251.397	-0.249	-0.421
-514.858	-43.432	0.201	-0.101
-513.843	-144.067	0.355	0.033
-512.829	-69.004	-0.148	0.057
-511.814	549.947	-0.093	-0.222
-510.799	151.796	0.157	0.213
-509.785	149.123	-0.091	0.123
-508.770	253.856	0.049	0.084
-507.756	-40.493	-0.221	0.114
-506.741	-9.846	0.150	0.099
-505.726	800.000	-0.056	0.208
-504.712	-5.882	-0.100	0.068
-503.697	109.274	-0.271	0.322
-502.683	427.702	0.059	-0.126
-501.668	800.000	-0.052	-0.170
-500.653	39.092	-0.429	0.381
-499.639	-117.921	-0.248	-0.044
-498.624	-200.000	-0.084	-0.422
-497.610	-176.883	0.082	0.002
-496.595	-156.164	-0.222	0.014
-495.581	-174.370	-0.129	0.004
-494.566	800.000	-0.078	-0.263
-493.551	74.370	-0.170	-0.177
-492.537	-13.860	0.361	-0.232
-491.522	96.429	-0.172	0.195
-490.508	88.152	-0.107	0.118
-489.493	-200.000	0.070	-0.339
-488.478	-127.057	0.351	-0.051
-487.464	800.000	-0.044	0.188
-486.449	-64.350	0.363	-0.147
-485.435	90.265	-0.062	-0.069
-484.420	-149.594	-0.233	-0.018
-483.405	-166.375	-0.124	0.005
-482.391	-200.000	-0.004	0.091
-481.376	124.225	-0.157	-0.196
-480.362	16.619	-0.361	0.283
-479.347	-123.634	0.278	0.044
-478.332	-34.016	0.148	0.081
-477.318	82.940	0.055	0.060
-476.303	158.250	-0.194	-0.267
-475.289	-200.000	0.002	0.288
-474.274	-48.611	0.295	0.141
-473.259	-111.103	0.329	0.067
-472.245	-200.000	-0.005	-0.227
-471.230	-94.194	0.356	0.097
-470.216	800.000	-0.062	-0.197
-469.201	-101.229	0.127	0.031
-468.186	155.444	0.148	-0.202
-467.172	5.106	-0.111	-0.081
-466.157	66.769	0.183	-0.184
-465.143	-63.221	-0.127	-0.052
-464.128	-157.663	0.198	0.012
-463.113	462.622	0.084	0.186
-462.099	-46.283	0.195	0.095
-461.084	72.617	0.199	-0.206
-460.070	-18.692	0.249	0.154
-459.055	-94.813	0.380	-0.102
-458.040	259.968	-0.161	-0.276
-457.026	-52.996	0.082	0.037
-456.011	-200.000	-0.038	0.216
-454.997	-200.000	0.027	-0.352
-453.982	-200.000	-0.035	-0.360
-452.968	800.000	-0.012	-0.049
-451.953	-193.011	0.101	-0.001
-450.938	-74.977	0.126	-0.045
-449.924	-32.362	-0.219	0.121
-448.909	-175.941	0.298	0.008
-447.895	113.921	0.048	0.058
-446.880	77.573	0.314	0.331
-445.865	-139.148	-0.191	-0.020
-444.851	-57.972	-0.159	-0.069
-443.836	-132.102	0.226	-0.029
-442.822	-68.099	0.067	-0.026
-441.807	76.406	0.021	-0.023
-440.792	317.604	-0.026	-0.048
-439.778	-39.922	-0.156	0.081
-438.763	78.973	-0.044	-0.047
-437.749	-122.202	0.147	-0.024
-436.734	-62.662	-0.107	0.044
-435.719	315.910	0.097	0.181
-434.705	365.835	0.082	0.164
-433.690	67.969	0.087	0.089
-432.676	800.000	0.175	0.498
-431.661	241.789	-0.071	0.117
-430.646	193.873	0.216	-0.324
-429.632	768.388	0.024	-0.063
-428.617	800.000	0.063	0.173
-427.603	15.485	0.183	0.142
-426.588	91.704	0.281	0.314
-425.573	323.548	-0.219	0.414
-424.559	353.305	-0.113	0.221
-423.544	231.809	-0.167	0.271
-422.530	463.996	0.064	-0.142
-421.515	800.000	0.028	0.115
-420.500	-200.000	0.011	-0.392
-419.486	241.110	-0.217	-0.359
-418.471	-200.000	0.052	-0.296
-417.457	-123.895	-0.131	0.020
-416.442	800.000	-0.085	0.285
-415.428	-200.000	-0.027	-0.216
-414.413	-137.828	-0.318	0.035
-413.398	422.806	0.187	0.399
-412.384	-200.000	-0.029	0.179
-411.369	-200.000	0.037	-0.174
-410.355	800.000	0.078	0.260
-409.340	423.848	-0.121	0.258
-408.325	-200.000	-0.002	-0.275
-407.311	-38.607	-0.234	0.123
-406.296	-200.000	-0.046	0.206
-405.282	-175.011	0.236	-0.007
-404.267	-4.592	0.049	-0.034
-403.252	362.255	0.028	0.056
-402.238	-102.156	-0.454	-0.108
-401.223	-26.519	-0.103	-0.060
-400.209	85.973	-0.162	-0.176
-399.194	-40.694	0.139	-0.071
-398.179	800.000	-0.005	-0.017
-397.165	-170.467	-0.081	0.003
-396.150	34.059	-0.222	-0.191
-395.136	-132.410	-0.137	0.017
-394.121	-33.815	-0.161	-0.088
-393.106	-200.000	0.045	-0.341
-392.092	-142.132	-0.311	0.031
-391.077	-200.000	0.020	-0.171
-390.063	-1.519	0.167	-0.117
-389.048	-9.406	-0.255	0.169
-388.033	157.008	0.338	-0.462
-387.019	-37.898	0.032	0.017
-386.004	71.862	0.108	-0.111
-384.990	143.370	-0.209	-0.275
-383.975	111.866	-0.080	-0.096
-382.960	-200.000	0.030	-0.319
-381.946	-49.637	0.271	0.128
-380.931	-96.626	0.085	-0.022
-379.917	89.609	0.276	0.305
-378.902	-176.040	-0.289	0.008
-377.888	-200.000	0.069	-0.602
-376.873	78.389	-0.139	0.147
-375.858	37.108	0.136	-0.119
-374.844	113.230	0.251	-0.301
-373.829	115.654	-0.097	0.117
-372.815	-50.803	0.069	-0.032
-371.800	428.051	-0.126	-0.268
-370.785	-200.000	-0.004	-0.195
-369.771	160.323	-0.083	0.114
-368.756	105.082	0.129	-0.151
-367.742	404.566	-0.140	0.292
-366.727	78.157	-0.310	0.327
-365.712	50.991	0.064	-0.060
-364.698	-53.556	-0.269	-0.122
-363.683	-166.990	0.158	-0.006
-362.669	-126.059	-0.299	-0.044
-361.654	-3.414	0.127	0.087
-360.639	146.774	-0.230	0.305
-359.625	-200.000	-0.008	0.165
-358.610	-80.974	-0.167	-0.055
-357.596	181.769	0.089	0.129
-356.581	-200.000	0.022	-0.166
-355.566	-116.188	-0.243	-0.044
-354.552	-182.205	0.393	0.007
-353.537	-49.102	-0.168	0.079
-352.523	800.000	-0.049	0.151
-351.508	486.994	-0.101	-0.227
-350.493	-146.597	-0.332	0.028
-349.479	284.883	0.099	0.176
-348.464	-164.310	-0.327	0.015
-347.450	86.602	-0.268	0.292
-346.435	-21.111	0.202	-0.122
-345.420	-200.000	-0.010	0.300
-344.406	-98.909	0.152	-0.038
-343.391	800.000	0.058	-0.230
-342.377	67.190	0.068	0.069
-341.362	-200.000	0.029	0.141
-340.348	-9.229	0.349	-0.231
-339.333	-99.158	0.158	-0.039
-338.318	262.214	-0.071	-0.122
-337.304	714.051	-0.123	-0.323
-336.289	-200.000	0.036	0.307
-335.275	-69.353	0.357	-0.135
-334.260	189.120	0.209	-0.309
-333.245	25.287	-0.301	0.247
-332.231	-200.000	0.017	-0.284
-331.216	-50.330	-0.097	0.045
-330.202	800.000	-0.080	0.234
-329.187	-200.000	-0.069	0.416
-328.172	800.000	0.022	0.087
-327.158	-200.000	-0.003	-0.084
-326.143	72.535	-0.177	-0.182
-325.129	19.323	0.106	-0.084
-324.114	-36.279	-0.080	-0.043
-323.099	-75.923	-0.498	0.174
-322.085	-36.077	-0.042	0.022
-321.070	-123.404	0.316	-0.050
-320.056	-62.746	-0.074	0.030
-319.041	185.871	0.157	0.230
-318.026	572.630	0.112	-0.269
-317.012	415.391	-0.122	-0.256
-315.997	800.000	-0.026	0.108
-314.983	-175.790	0.252	0.007
-313.968	-200.000	-0.021	-0.112
-312.953	70.431	0.248	-0.253
-311.939	672.750	0.107	0.273
-310.924	50.699	-0.107	0.100
-309.910	800.000	-0.023	0.090
-308.895	-102.777	0.318	0.075
-307.880	282.724	0.016	0.028
-306.866	-179.857	-0.231	0.005
-305.851	70.819	0.079	0.080
-304.837	-19.898	0.135	-0.082
-303.822	323.697	0.091	0.171
-302.807	800.000	0.069	0.283
-301.793	129.628	-0.233	0.293
-300.778	-54.061	0.334	0.150
-299.764	-188.648	0.048	0.001
-298.749	450.729	-0.104	-0.226
-297.735	-126.117	-0.163	0.024
-296.720	-134.458	-0.313	0.038
-295.705	29.322	0.078	0.066
-294.691	-200.000	0.024	-0.287
-293.676	81.589	0.128	0.136
-292.662	69.888	0.080	-0.081
-291.647	-36.033	-0.251	-0.134
-290.632	-117.461	0.076	0.013
-289.618	-57.212	0.223	-0.097
-288.603	-27.939	-0.306	-0.175
-287.589	56.457	-0.441	0.422
-286.574	800.000	0.062	0.215
-285.559	-34.275	0.369	0.199
-284.545	73.122	-0.085	-0.087
-283.530	-60.681	0.269	0.113
-282.516	-64.716	0.423	0.169
-281.501	30.263	-0.161	-0.135
-280.486	-126.853	0.209	0.030
-279.472	-200.000	0.102	0.458
-278.457	18.026	0.149	-0.117
-277.443	91.922	0.021	0.023
-276.428	-200.000	0.019	0.146
-275.413	-159.505	-0.352	0.019
-274.399	-111.512	0.179	-0.036
-273.384	-200.000	0.034	0.167
-272.370	-200.000	0.018	-0.405
-271.355	800.000	-0.041	0.161
-270.340	506.169	-0.162	0.370
-269.326	703.022	0.135	0.349
-268.311	-200.000	0.025	0.000
-267.297	-78.416	0.279	-0.094
-266.282	289.856	-0.183	0.327
-265.267	41.530	0.136	0.121
-264.253	-97.301	-0.080	-0.020
-263.238	-128.520	-0.096	-0.013
-262.224	-200.000	0.051	-0.355
-261.209	-36.534	-0.194	0.103
-260.195	-22.932	0.150	-0.089
-259.180	-31.335	-0.200	-0.111
-258.165	-1.756	0.197	0.136
-257.151	800.000	-0.030	-0.086
-256.136	9.367	0.197	0.147
-255.122	-97.679	-0.174	0.044
-254.107	33.918	-0.225	0.192
-253.092	-200.000	0.001	0.237
-252.078	-9.477	0.228	-0.150
-251.063	-36.211	0.180	-0.096
-250.049	-200.000	-0.011	0.195
-249.034	-25.354	-0.041	0.024
-248.019	-16.356	-0.206	-0.129
-247.005	59.045	-0.043	0.042
-245.990	-200.000	-0.017	0.203
-244.976	-200.000	-0.066	0.295
-243.961	680.903	-0.047	-0.121
-242.946	-200.000	0.005	-0.050
-241.932	-176.208	-0.362	0.009
-240.917	-200.000	0.187	0.001
-239.903	-68.536	-0.112	0.043
-238.888	-31.545	-0.456	-0.252
-237.873	786.656	-0.049	-0.132
-236.859	-116.815	0.504	-0.091
-235.844	335.100	0.172	0.328
-234.830	-61.013	-0.419	0.174
-233.815	601.174	0.081	0.199
-232.800	-42.203	0.212	-0.106
-231.786	-13.975	-0.140	-0.089
-230.771	9.562	-0.213	0.159
-229.757	-200.000	0.040	-0.286
-228.742	85.955	-0.101	-0.109
-227.727	-200.000	-0.202	-0.001
-226.713	800.000	0.044	-0.128
-225.698	-64.373	0.237	0.095
-224.684	-40.467	-0.209	0.106
-223.669	-200.000	0.028	-0.223
-222.655	-1.646	0.257	0.178
-221.640	16.015	-0.222	0.172
-220.625	492.488	-0.046	-0.103
-219.611	178.133	-0.245	-0.351
-218.596	27.508	0.127	-0.105
-217.582	277.485	-0.134	-0.234
-216.567	-4.201	0.250	-0.170
-215.552	205.763	0.199	0.304
-214.538	123.966	-0.097	0.119
-213.523	-107.115	-0.070	0.015
-212.509	640.376	0.115	-0.288
-211.494	-168.855	-0.169	-0.006
-210.479	800.000	-0.075	0.207
-209.465	-200.000	-0.074	0.318
-208.450	-200.000	0.017	0.257
-207.436	379.313	-0.029	-0.058
-206.421	116.894	-0.021	0.025
-205.406	150.977	-0.165	0.220
-204.392	-100.459	-0.125	-0.030
-203.377	800.000	-0.066	-0.186
-202.363	66.670	-0.033	-0.033
-201.348	-6.130	-0.107	-0.072
-200.333	-172.685	0.356	0.011
-199.319	119.866	0.164	-0.200
-198.304	-200.000	-0.066	-0.338
-197.290	282.764	0.109	-0.193
-196.275	-86.100	0.264	-0.080
-195.260	-77.372	-0.147	-0.050
-194.246	800.000	-0.062	0.220
-193.231	62.494	0.226	0.222
-192.217	169.461	-0.156	-0.218
-191.202	-192.962	0.301	0.003
-190.187	124.507	-0.170	0.209
-189.173	81.906	0.276	-0.294
-188.158	298.188	-0.065	-0.117
-187.144	-101.402	-0.257	-0.061
-186.129	-166.775	-0.106	-0.004
-185.114	423.265	-0.188	-0.397
-184.100	800.000	-0.077	0.253
-183.085	27.843	0.356	0.294
-182.071	237.533	0.115	-0.187
-181.056	-200.000	-0.073	-0.415
-180.042	800.000	-0.151	-0.471
-179.027	-83.268	-0.203	-0.064
-178.012	56.462	-0.269	-0.256
-176.998	-145.448	0.218	0.019
-175.983	27.850	0.126	0.104
-174.969	-200.000	-0.001	0.051
-173.954	-200.000	0.021	0.379
-172.939	58.690	0.127	-0.122
-171.925	-88.095	0.010	0.003
-170.910	115.727	0.012	0.014
-169.896	211.464	0.183	-0.282
-168.881	-200.000	0.040	-0.216
-167.866	-48.441	-0.362	0.171
-166.852	800.000	0.049	0.133
-165.837	-124.223	0.183	0.028
-164.823	65.897	0.188	-0.187
-163.808	-200.000	-0.001	0.097
-162.793	50.404	0.141	0.130
-161.779	-80.125	0.278	-0.091
-160.764	-161.271	0.088	-0.004
-159.750	800.000	0.076	-0.325
-158.735	-35.141	0.174	-0.093
-157.720	-200.000	-0.046	0.260
-156.706	698.774	0.112	-0.289
-155.691	-134.199	0.341	-0.041
-154.677	116.999	-0.140	-0.168
-153.662	-9.574	0.349	0.228
-152.647	6.336	-0.102	0.074
-151.633	-62.920	-0.183	0.074
-150.618	426.692	0.190	0.402
-149.604	-89.327	0.049	0.014
-148.589	17.532	-0.033	-0.026
-147.574	-57.653	-0.173	-0.074
-146.560	93.070	-0.058	0.064
-145.545	-131.878	0.156	0.020
-144.531	410.523	-0.096	0.199
-143.516	-168.976	0.206	0.008
-142.502	-80.726	-0.020	0.006
-141.487	-101.341	-0.159	-0.038
-140.472	45.766	0.216	-0.195
-139.458	226.898	-0.108	0.172
-138.443	-54.425	-0.090	-0.040
-137.429	800.000	0.035	-0.094
-136.414	-45.962	-0.109	-0.053
-135.399	428.196	0.114	-0.241
-134.385	1.577	0.113	0.079
-133.370	46.818	-0.308	0.280
-132.356	234.673	0.056	-0.091
-131.341	-200.000	-0.035	0.267
-130.326	30.955	0.156	0.131
-129.312	33.079	0.335	0.285
-128.297	800.000	-0.034	0.128
-127.283	167.472	0.148	-0.206
-126.268	800.000	-0.023	-0.088
-125.253	-200.000	-0.008	-0.053
-124.239	217.096	0.066	0.102
-123.224	-147.376	0.127	0.011
-122.210	-143.075	-0.069	-0.007
-121.195	-99.245	0.158	-0.039
-120.180	-43.500	0.147	0.073
-119.166	168.058	-0.051	0.071
-118.151	800.000	-0.084	-0.349
-117.137	-158.525	0.406	0.023
-116.122	49.490	-0.130	0.120
-115.107	-61.260	-0.428	0.176
-114.093	66.457	-0.141	0.140
-113.078	800.000	0.104	0.362
-112.064	376.373	-0.047	0.093
-111.049	-62.053	-0.158	0.064
-110.034	68.435	0.039	0.039
-109.020	-32.249	-0.194	-0.106
-108.005	200.868	0.154	-0.231
-106.991	174.778	0.210	-0.298
-105.976	-126.800	0.209	0.030
-104.962	468.248	0.073	0.161
-103.947	-200.000	0.014	0.207
-102.932	24.975	-0.187	-0.152
-101.918	-43.669	-0.021	0.011
-100.903	17.322	0.231	0.179
-99.889	-62.234	0.297	-0.121
-98.874	9.259	-0.190	-0.140
-97.859	135.858	0.384	0.490
-96.845	275.121	0.192	0.333
-95.830	-101.442	-0.247	-0.059
-94.816	85.378	0.171	0.184
-93.801	-101.420	-0.108	0.026
-92.786	-200.000	0.052	0.314
-91.772	-200.000	0.005	-0.145
-90.757	-153.281	-0.254	-0.017
-89.743	675.154	0.048	-0.123
-88.728	-103.542	-0.245	0.056
-87.713	-94.303	0.133	0.035
-86.699	29.847	0.257	0.214
-85.684	-67.983	-0.169	-0.064
-84.670	-200.000	0.019	-0.242
-83.655	-200.000	-0.002	0.293
-82.640	3.115	-0.167	-0.118
-81.626	440.157	0.124	-0.265
-80.611	-156.299	-0.010	-0.001
-79.597	-70.687	0.067	0.025
-78.582	-98.738	-0.176	-0.044
-77.567	63.037	0.203	-0.199
-76.553	-107.380	-0.565	0.121
-75.538	136.097	0.250	0.319
-74.524	-85.411	-0.314	0.096
-73.509	-200.000	0.024	-0.104
-72.494	-200.000	0.023	-0.248
-71.480	90.895	0.143	-0.156
-70.465	75.181	0.139	0.143
-69.451	107.387	0.009	-0.011
-68.436	69.398	-0.154	-0.155
-67.422	-45.071	0.245	0.119
-66.407	-25.557	-0.161	0.093
-65.392	102.068	0.176	0.201
-64.378	329.583	-0.078	-0.146
-63.363	139.534	0.329	-0.423
-62.349	96.994	0.220	0.247
-61.334	-16.376	-1.305	-0.809
-60.319	18.928	0.885	0.693
-59.305	-200.000	-0.156	-0.875
-58.290	216.487	0.679	1.055
-57.276	800.000	0.406	1.657
-56.261	-200.000	114.355	643.693
-55.246	479.163	1499.801	3318.163
-54.232	150.226	2659.404	3524.294
-53.217	102.097	2160.423	2463.329
-52.203	37.548	1690.926	1464.797
-51.188	30.503	1508.748	1259.391
-50.173	28.245	1484.434	1223.968
-49.159	51.622	1541.479	1430.862
-48.144	50.621	1557.285	1438.659
-47.130	30.647	1514.693	1265.132
-46.115	27.651	1499.054	1231.814
-45.100	27.466	1495.489	1227.589
-44.086	27.415	1493.581	1225.631
-43.071	27.302	1492.093	1223.600
-42.057	27.316	1490.338	1222.206
-41.042	27.313	1489.026	1221.061
-40.027	27.320	1487.221	1219.583
-39.013	27.393	1485.496	1218.607
-37.998	27.330	1484.747	1217.524
-36.984	27.383	1483.470	1216.780
-35.969	27.324	1482.083	1215.203
-34.954	27.428	1480.375	1214.447
-33.940	27.310	1479.425	1212.831
-32.925	27.261	1478.341	1211.568
-31.911	27.321	1476.893	1210.734
-30.896	27.363	1475.703	1209.987
-29.881	27.415	1474.306	1209.142
-28.867	27.430	1472.853	1208.003
-27.852	27.454	1471.658	1207.134
-26.838	27.437	1470.333	1205.887
-25.823	27.465	1468.287	1204.343
-24.809	27.352	1467.158	1202.626
-23.794	27.402	1465.415	1201.476
-22.779	27.431	1464.403	1200.789
-21.765	27.451	1463.312	1199.980
-20.750	27.431	1461.950	1198.687
-19.736	27.448	1461.428	1198.319
-18.721	27.466	1460.085	1197.289
-17.706	27.384	1459.391	1196.138
-16.692	27.381	1458.136	1195.042
-15.677	27.373	1457.219	1194.186
-14.663	27.389	1456.010	1193.257
-13.648	27.348	1455.599	1192.604
-12.633	27.382	1454.589	1191.948
-11.619	27.374	1453.938	1191.313
-10.604	27.399	1452.918	1190.597
-9.590	27.271	1452.088	1189.032
-8.575	27.349	1450.880	1188.503
-7.560	27.360	1450.367	1188.112
-6.546	27.342	1449.611	1187.326
-5.531	27.342	1448.562	1186.422
-4.517	27.357	1447.269	1185.410
-3.502	27.357	1446.249	1184.532
-2.487	27.437	1445.439	1184.339
-1.473	27.288	1444.980	1182.945
-0.458	27.347	1443.228	1181.848
0.556	25.612	1433.444	1170.252
1.571	22.540	1408.826	1130.374
2.586	19.168	1348.907	1061.459
3.600	17.754	1266.424	988.273
4.615	16.685	1221.714	947.319
5.629	15.910	1169.255	902.413
6.644	12.780	1093.494	828.158
7.659	10.178	1059.254	789.470
8.673	9.770	1054.313	783.735
9.688	9.678	1051.050	780.796
10.702	9.717	1049.326	779.636
11.717	9.705	1047.358	778.045
12.731	10.808	1046.886	782.944
13.746	13.972	1051.342	801.490
14.761	16.921	1054.598	818.151
15.775	17.649	1054.803	821.754
16.790	16.869	1053.008	816.526
17.804	15.956	1050.763	810.320
18.819	15.002	1048.623	804.020
19.834	14.550	1047.355	800.807
20.848	14.137	1046.436	798.051
21.863	13.994	1045.982	796.949
22.877	13.883	1044.588	795.283
23.892	13.624	1044.179	793.661
24.907	13.455	1043.443	792.222
25.921	13.496	1042.366	791.529
26.936	13.458	1041.675	790.756
27.950	13.511	1040.232	789.840
28.965	13.499	1039.815	789.399
29.980	13.516	1039.134	788.892
30.994	13.727	1037.289	788.427
32.009	13.813	1036.500	788.162
33.023	13.706	1036.017	787.219
34.038	13.657	1035.363	786.419
35.053	13.692	1034.188	785.625
36.067	13.706	1033.145	784.831
37.082	13.588	1032.400	783.635
38.096	13.540	1031.678	782.791
39.111	13.770	1030.820	783.158
40.126	13.668	1029.855	781.874
41.140	13.626	1028.453	780.543
42.155	13.627	1027.701	779.907
43.169	13.419	1027.017	778.340
44.184	13.455	1025.153	777.030
45.199	13.526	1024.338	776.675
46.213	13.437	1023.930	775.881
47.228	13.529	1022.874	775.443
48.242	13.604	1021.557	774.723
49.257	13.596	1020.436	773.768
50.271	13.558	1019.979	773.177
51.286	13.614	1018.726	772.420
52.301	13.547	1018.062	771.535
53.315	13.567	1017.228	770.927
54.330	13.592	1016.374	770.329
55.344	13.635	1015.249	769.608
56.359	13.476	1014.464	768.207
57.374	13.391	1014.368	767.670
58.388	13.460	1013.654	767.382
59.403	13.406	1012.144	765.921
60.417	13.376	1011.927	765.550
61.432	13.503	1010.839	765.248
62.447	13.471	1010.101	764.472
63.461	13.410	1009.329	763.541
64.476	13.411	1008.107	762.552
65.490	13.288	1007.703	761.615
66.505	13.278	1006.689	760.734
67.520	13.384	1006.258	760.826
68.534	13.416	1005.340	760.216
69.549	13.377	1004.423	759.273
70.563	13.522	1003.241	758.980
71.578	13.315	1003.382	758.067
72.593	13.482	1001.701	757.498
73.607	13.411	1000.720	756.363
74.622	13.233	999.926	754.884
75.636	13.288	999.293	754.591
76.651	13.350	998.155	753.944
77.666	13.356	997.750	753.601
78.680	13.278	996.892	752.531
79.695	13.329	996.685	752.540
80.709	13.398	995.698	752.040
81.724	13.372	995.111	751.413
82.739	13.497	994.000	751.073
83.753	13.433	993.573	750.398
84.768	13.494	992.990	750.167
85.782	13.646	992.172	750.168
86.797	13.774	991.282	750.010
87.812	13.829	989.912	749.154
88.826	13.587	989.827	747.931
89.841	13.650	988.810	747.383
90.855	13.705	987.867	746.851
91.870	13.635	987.204	745.969
92.884	13.776	986.380	745.914
93.899	13.801	985.509	745.300
94.914	13.796	984.830	744.697
95.928	13.663	984.440	743.740
96.943	13.845	983.321	743.645
97.957	13.705	982.560	742.376
98.972	13.728	981.732	741.787
99.987	13.635	981.190	740.896
101.001	13.633	980.852	740.567
102.016	13.788	979.249	739.982
103.030	13.754	978.075	738.880
104.045	13.833	977.453	738.695
105.060	13.794	976.779	737.946
106.074	13.620	975.722	736.313
107.089	13.670	975.083	735.986
108.103	13.574	974.374	734.959
109.118	13.526	972.972	733.626
110.133	13.485	972.339	732.900
111.147	13.587	971.517	732.669
112.162	13.485	970.428	731.332
113.176	13.467	969.998	730.864
114.191	13.520	969.095	730.352
115.206	13.588	968.266	729.961
116.220	13.545	967.419	729.068
117.235	13.585	966.740	728.670
118.249	13.601	965.823	727.985
119.264	13.434	965.225	726.736
120.279	13.541	964.120	726.308
121.293	13.582	962.960	725.548
122.308	13.407	962.779	724.581
123.322	13.492	961.298	723.776
124.337	13.558	960.359	723.291
125.352	13.435	959.328	721.915
126.366	13.526	958.269	721.451
127.381	13.458	957.431	720.460
128.395	13.452	956.297	719.519
129.410	13.484	955.525	719.014
130.424	13.404	954.941	718.163
131.439	13.480	953.878	717.629
132.454	13.750	952.486	717.684
133.468	13.571	952.121	716.575
134.483	13.677	951.774	716.706
135.497	13.659	950.918	715.921
136.512	13.587	950.152	714.968
137.527	13.682	948.982	714.435
138.541	13.586	948.989	713.963
139.556	13.565	947.901	712.992
140.570	13.519	947.567	712.478
141.585	13.460	946.656	711.478
142.600	13.659	946.054	711.818
143.614	13.773	945.346	711.711
144.629	13.807	944.553	711.198
145.643	13.820	943.911	710.707
146.658	13.798	942.802	709.715
147.673	13.823	941.919	709.095
148.687	13.706	940.836	707.717
149.702	13.648	940.409	707.084
150.716	13.568	939.460	705.968
151.731	13.708	938.240	705.585
152.746	13.562	937.367	704.246
153.760	13.752	936.612	704.421
154.775	13.882	936.005	704.456
155.789	13.769	935.277	703.368
156.804	13.771	934.656	702.844
157.819	13.806	934.036	702.465
158.833	13.886	933.376	702.246
159.848	13.966	932.498	701.858
160.862	13.975	931.844	701.346
161.877	13.960	931.381	700.869
162.892	13.881	930.276	699.642
163.906	13.656	929.456	698.017
164.921	13.746	928.639	697.722
165.935	13.791	927.796	697.213
166.950	13.842	926.545	696.429
167.964	13.912	925.109	695.581
168.979	13.731	924.847	694.562
169.994	13.924	923.992	694.666
171.008	13.751	923.334	693.389
172.023	13.857	922.635	693.244
173.037	13.967	921.686	692.930
174.052	13.992	920.934	692.404
175.067	13.942	920.447	691.771
176.081	13.981	919.345	691.042
177.096	13.792	918.869	689.838
178.110	13.864	918.251	689.614
179.125	13.791	917.223	688.475
180.140	13.744	916.747	687.865
181.154	13.896	915.953	687.836
182.169	14.132	914.753	687.849
183.183	13.998	914.615	687.130
184.198	14.117	913.609	686.805
185.213	14.124	912.914	686.252
186.227	14.070	912.486	685.649
187.242	14.037	911.734	684.887
188.256	14.163	911.086	684.856
189.271	14.227	910.406	684.549
190.286	14.214	909.314	683.613
191.300	14.072	908.941	682.689
192.315	13.865	908.487	681.439
193.329	13.858	907.500	680.611
194.344	13.918	906.935	680.370
195.359	13.908	906.630	680.040
196.373	14.012	905.933	679.884
197.388	14.162	904.999	679.734
198.402	14.129	904.717	679.327
199.417	14.282	904.233	679.531
200.432	14.236	904.011	679.114
201.446	14.212	903.242	678.378
202.461	14.328	902.928	678.556
203.475	14.433	902.587	678.667
204.490	14.588	901.535	678.448
205.504	14.473	900.350	677.030
206.519	14.271	900.086	675.951
207.534	14.378	899.526	675.902
208.548	14.142	899.146	674.600
209.563	14.228	898.298	674.255
210.577	14.417	897.200	674.133
211.592	14.326	897.046	673.592
212.607	14.260	896.660	672.975
213.621	14.536	895.759	673.355
214.636	14.589	894.638	672.664
215.650	14.511	894.622	672.280
216.665	14.548	893.757	671.717
217.680	14.524	893.481	671.355
218.694	14.592	892.892	671.126
219.709	14.625	892.427	670.852
220.723	14.482	891.825	669.765
221.738	14.505	891.079	669.238
222.753	14.635	890.142	668.992
223.767	14.572	889.344	668.083
224.782	14.621	888.576	667.642
225.796	14.692	887.966	667.411
226.811	14.677	887.413	666.875
227.826	14.722	886.815	666.546
228.840	14.598	886.366	665.654
229.855	14.641	885.490	665.110
230.869	14.596	885.000	664.506
231.884	14.656	884.039	663.963
232.899	14.709	883.426	663.654
233.913	14.670	882.757	662.936
234.928	14.639	882.074	662.242
235.942	14.647	881.017	661.422
236.957	14.616	880.667	660.980
237.972	14.567	880.237	660.405
238.986	14.570	879.705	659.957
240.001	14.472	879.334	659.233
241.015	14.567	878.329	658.798
242.030	14.603	877.858	658.529
243.045	14.734	877.154	658.456
244.059	14.781	876.637	658.196
245.074	14.759	876.117	657.661
246.088	14.794	874.928	656.848
247.103	14.795	874.892	656.767
248.117	14.924	873.954	656.511
249.132	15.003	873.411	656.355
250.147	15.157	872.518	656.231
251.161	15.106	872.471	655.935
252.176	15.170	871.737	655.578
253.190	15.093	871.258	654.857
254.205	15.085	870.674	654.328
255.220	15.199	869.898	654.131
256.234	15.184	869.252	653.530
257.249	15.234	868.433	653.051
258.263	15.258	868.176	652.893
259.278	15.231	867.474	652.203
260.293	15.246	867.269	652.049
261.307	15.313	866.411	651.606
262.322	15.249	865.715	650.779
263.336	15.363	865.143	650.731
264.351	15.464	864.325	650.453
265.366	15.353	864.136	649.820
266.380	15.589	863.228	649.995
267.395	15.337	862.986	648.778
268.409	15.335	862.254	648.165
269.424	15.388	861.182	647.504
270.439	15.360	860.486	646.817
271.453	15.417	860.268	646.817
272.468	15.393	858.933	645.662
273.482	15.489	858.451	645.611
274.497	15.430	857.888	644.904
275.512	15.423	857.347	644.414
276.526	15.339	856.755	643.590
277.541	15.396	855.966	643.160
278.555	15.446	855.484	642.932
279.570	15.563	855.032	642.983
280.585	15.630	854.176	642.537
281.599	15.592	853.908	642.136
282.614	15.673	852.737	641.507
283.628	15.576	852.426	640.845
284.643	15.513	852.094	640.301
285.657	15.568	851.453	639.972
286.672	15.591	850.815	639.522
287.687	15.744	850.200	639.585
288.701	15.700	849.705	638.990
289.716	15.700	849.274	638.607
290.730	15.758	848.671	638.320
291.745	15.708	848.102	637.645
292.760	15.563	847.819	636.825
293.774	15.690	846.953	636.599
294.789	15.873	846.173	636.648
295.803	15.619	846.269	635.705
296.818	15.944	845.321	636.163
297.833	15.834	844.433	635.023
298.847	15.681	843.637	633.792
299.862	15.795	843.360	633.957
300.876	15.772	842.719	633.331
301.891	15.842	841.886	632.915
302.906	15.856	841.192	632.390
303.920	15.928	840.595	632.155
304.935	16.094	839.854	632.164
305.949	15.999	839.358	631.380
306.964	16.135	838.714	631.349
307.979	15.951	838.122	630.157
308.993	15.922	838.238	630.082
310.008	16.012	837.422	629.749
311.022	16.038	836.684	629.236
312.037	16.076	836.376	629.090
313.052	16.082	835.814	628.632
314.066	16.034	835.107	627.865
315.081	15.986	834.501	627.177
316.095	15.984	833.957	626.705
317.110	15.851	833.633	625.910
318.125	15.937	832.860	625.596
319.139	15.981	832.460	625.404
320.154	16.071	831.755	625.153
321.168	15.977	831.368	624.456
322.183	16.067	830.649	624.195
323.197	16.086	830.376	624.005
324.212	16.057	829.839	623.439
325.227	16.114	829.246	623.150
326.241	16.054	829.019	622.701
327.256	16.114	827.989	622.094
328.270	16.176	827.268	621.726
329.285	16.089	827.029	621.171
330.300	16.039	826.700	620.684
331.314	15.991	826.458	620.272
332.329	16.154	825.212	619.880
333.343	16.239	824.524	619.621
334.358	16.202	824.147	619.147
335.373	16.256	823.559	618.848
336.387	16.204	823.195	618.331
337.402	16.282	822.784	618.251
338.416	16.409	822.020	618.087
339.431	16.465	821.603	617.925
340.446	16.653	820.992	618.098
341.460	16.584	820.480	617.403
342.475	16.528	819.909	616.716
343.489	16.643	819.492	616.765
344.504	16.572	818.685	615.846
345.519	16.682	818.369	615.955
346.533	16.578	818.265	615.443
347.548	16.595	817.646	614.986
348.562	16.537	816.761	614.056
349.577	16.531	816.084	613.468
350.592	16.509	815.794	613.118
351.606	16.434	815.684	612.709
352.621	16.400	815.092	612.086
353.635	16.584	814.362	612.151
354.650	16.456	814.318	611.598
355.665	16.594	813.518	611.442
356.679	16.707	813.403	611.712
357.694	16.674	812.658	610.976
358.708	16.701	812.008	610.531
359.723	16.709	811.421	610.066
360.738	16.765	810.927	609.841
361.752	16.734	810.465	609.328
362.767	16.684	810.287	608.962
363.781	16.774	809.737	608.817
364.796	16.708	809.322	608.214
365.810	16.782	808.815	608.046
366.825	17.039	808.477	608.661
367.840	16.973	807.947	607.971
368.854	16.946	807.695	607.629
369.869	16.822	807.104	606.688
370.883	16.829	806.823	606.448
371.898	16.990	806.189	606.492
372.913	17.070	805.371	606.109
373.927	17.077	804.806	605.656
374.942	16.963	804.249	604.778
375.956	17.067	803.438	604.483
376.971	17.086	803.192	604.311
377.986	17.128	802.828	604.134
379.000	17.193	802.324	603.933
380.015	17.121	801.673	603.136
381.029	17.182	801.165	602.915
382.044	17.196	800.507	602.416
383.059	17.222	799.982	602.061
384.073	17.222	799.591	601.713
385.088	17.300	798.730	601.285
386.102	17.190	798.466	600.647
387.117	17.222	797.376	599.887
388.132	17.113	797.260	599.362
389.146	17.128	796.816	599.028
390.161	17.141	796.552	598.820
391.175	17.291	796.076	598.940
392.190	17.319	795.659	598.672
393.205	17.343	795.108	598.290
394.219	17.171	795.204	597.702
395.234	17.241	794.380	597.276
396.248	17.231	793.912	596.836
397.263	17.115	793.429	596.012
398.278	17.035	793.195	595.504
399.292	17.125	792.464	595.217
400.307	17.228	791.758	594.996
401.321	17.319	791.498	595.066
402.336	17.140	791.578	594.448
403.350	17.148	790.940	593.942
404.365	17.241	790.629	593.983
405.380	17.232	790.305	593.654
406.394	17.318	789.742	593.480
407.409	17.518	788.796	593.415
408.423	17.540	788.498	593.213
409.438	17.564	788.326	593.114
410.453	17.551	787.865	592.671
411.467	17.507	787.430	592.138
412.482	17.648	786.738	592.053
413.496	17.701	786.268	591.832
414.511	17.740	786.356	591.980
415.526	17.774	785.722	591.569
416.540	17.751	785.525	591.290
417.555	17.577	785.044	590.273
418.569	17.649	784.606	590.141
419.584	17.617	784.199	589.672
420.599	17.719	783.520	589.461
421.613	112.010	1292.929	1476.800
422.628	96.068	1367.101	1476.896
