DTS Sentinel unit serial number:	SN413079Multiplexer serial number:	ORYXHardware model number:	OX4-SRSoftware version number:	ORYX F/W v4.00 Oryx Data Collector v3.7.2.0data status	okinstallation	princeton_trtdifferential loss correction	single-endedforward channel	channel 3reverse channel	N/Adate	2019/09/18time	16:48:35forward acquisition time	60.00reverse acquisition time	0.00gamma	496.2192k internal	0.2292k external	0.2292temperature offset calibration	0.9993default loss term (dB/km)	0.3790temperature slope calibration	1.0000multiplexer offset coefficient	1.0000multiplexer slope coefficient	1.0000fibre end	0.00T internal ref (°C)	39.95T ext. ref 1 (°C)	0.88T ext. ref 2 (°C)	35.26length (m)	temperature (°C)	Stokes	anti-Stokes-747.200	312.259	-0.020	-0.038
-746.185	165.806	0.069	0.101
-745.171	66.401	-0.211	-0.219
-744.156	-200.000	-0.011	0.233
-743.142	-148.393	0.401	-0.034
-742.127	-83.296	-0.073	0.024
-741.112	-151.082	-0.132	-0.010
-740.098	273.464	-0.292	0.528
-739.083	85.429	0.140	0.158
-738.069	-50.310	-0.306	0.148
-737.054	-80.018	0.140	-0.048
-736.039	-200.000	0.001	0.085
-735.025	800.000	0.045	0.139
-734.010	601.670	-0.024	0.060
-732.996	58.937	-0.105	0.105
-731.981	-200.000	0.012	0.429
-730.966	-77.759	0.211	-0.074
-729.952	-100.710	-0.259	0.065
-728.937	-88.516	-0.308	0.094
-727.923	-61.966	0.035	-0.015
-726.908	407.948	-0.074	0.161
-725.894	800.000	-0.046	0.157
-724.879	-144.815	0.184	0.017
-723.864	-180.443	-0.109	-0.002
-722.850	441.157	-0.075	-0.167
-721.835	-200.000	-0.019	-0.104
-720.821	20.327	0.104	-0.086
-719.806	-70.981	-0.230	-0.089
-718.791	-155.013	-0.366	0.025
-717.777	38.825	-0.188	0.171
-716.762	139.154	-0.112	-0.151
-715.748	385.502	0.164	0.346
-714.733	321.238	0.012	0.023
-713.718	-53.925	-0.343	-0.160
-712.704	800.000	-0.105	-0.401
-711.689	141.350	-0.311	-0.420
-710.675	-200.000	-0.002	0.041
-709.660	-163.952	0.338	0.016
-708.645	-52.577	0.048	-0.022
-707.631	-200.000	-0.003	-0.182
-706.616	80.294	-0.037	0.041
-705.602	176.612	-0.121	-0.179
-704.587	-108.040	-0.085	-0.019
-703.572	-81.311	-0.136	-0.046
-702.558	-200.000	-0.049	-0.225
-701.543	-40.304	0.201	0.107
-700.529	-8.303	-0.193	-0.132
-699.514	800.000	-0.056	0.205
-698.499	54.093	0.222	0.218
-697.485	800.000	0.027	-0.081
-696.470	-173.147	0.489	-0.015
-695.456	-73.804	0.268	-0.099
-694.441	-21.994	-0.211	0.131
-693.426	-167.431	0.346	-0.014
-692.412	109.686	-0.164	-0.201
-691.397	194.444	-0.033	0.051
-690.383	555.623	0.093	-0.228
-689.368	-49.333	0.197	-0.096
-688.354	-200.000	0.048	0.224
-687.339	-200.000	-0.064	0.405
-686.324	-101.378	0.217	0.054
-685.310	-61.228	0.099	-0.043
-684.295	-69.064	-0.172	0.068
-683.281	-48.732	-0.124	-0.061
-682.266	-28.641	-0.083	0.049
-681.251	459.774	0.049	-0.112
-680.237	-200.000	0.034	-0.170
-679.222	310.199	-0.082	-0.157
-678.208	62.803	-0.265	-0.271
-677.193	-152.164	-0.225	-0.017
-676.178	-85.154	-0.206	0.066
-675.164	296.237	-0.110	-0.205
-674.149	-96.041	0.202	-0.055
-673.135	102.618	-0.147	0.175
-672.120	-154.304	-0.249	-0.017
-671.105	-144.638	-0.108	-0.010
-670.091	56.410	-0.169	-0.168
-669.076	382.542	0.125	0.262
-668.062	85.489	-0.211	-0.237
-667.047	459.640	-0.071	0.162
-666.032	152.856	0.053	-0.074
-665.018	-132.141	-0.428	0.057
-664.003	-88.184	0.164	0.050
-662.989	31.835	-0.204	0.179
-661.974	-200.000	0.027	0.184
-660.959	-81.953	-0.256	-0.085
-659.945	61.101	-0.195	-0.198
-658.930	-200.000	-0.020	-0.240
-657.916	18.909	0.018	-0.015
-656.901	1.755	0.123	0.091
-655.886	-200.000	-0.014	-0.196
-654.872	-200.000	-0.038	0.195
-653.857	42.699	0.102	0.095
-652.843	-108.528	-0.335	-0.073
-651.828	800.000	-0.049	0.176
-650.814	-11.641	0.170	0.114
-649.799	350.975	0.019	-0.038
-648.784	42.493	-0.188	-0.175
-647.770	7.006	-0.119	-0.090
-646.755	-134.186	-0.160	-0.020
-645.741	-60.327	0.298	-0.129
-644.726	-133.674	0.309	-0.039
-643.711	-200.000	-0.028	0.248
-642.697	-48.717	-0.123	-0.060
-641.682	-118.985	-0.171	0.031
-640.668	-157.462	0.076	0.005
-639.653	-110.843	0.120	-0.025
-638.638	-200.000	-0.002	0.076
-637.624	119.733	-0.041	-0.052
-636.609	54.654	-0.216	0.212
-635.595	-47.690	-0.198	0.098
-634.580	-132.526	-0.185	0.024
-633.565	-161.918	-0.151	-0.008
-632.551	37.892	0.123	0.111
-631.536	234.260	0.032	0.053
-630.522	15.803	-0.377	-0.303
-629.507	-65.459	-0.247	0.101
-628.492	34.222	0.110	0.098
-627.478	5.138	-0.176	0.132
-626.463	201.180	0.131	0.205
-625.449	-144.690	0.275	0.026
-624.434	-87.219	-0.109	-0.034
-623.419	800.000	-0.073	-0.208
-622.405	-43.059	0.200	0.103
-621.390	38.506	0.333	-0.302
-620.376	-23.897	-0.088	-0.053
-619.361	-87.822	-0.280	0.086
-618.346	22.450	0.174	0.145
-617.332	-21.663	0.211	-0.131
-616.317	-42.489	0.199	0.104
-615.303	-200.000	-0.022	-0.372
-614.288	357.436	-0.088	-0.179
-613.273	-47.187	0.047	0.023
-612.259	800.000	0.042	-0.137
-611.244	-154.010	-0.337	-0.023
-610.230	800.000	-0.044	-0.182
-609.215	800.000	0.095	-0.297
-608.201	-43.918	0.281	-0.144
-607.186	800.000	-0.037	0.119
-606.171	-58.518	0.315	0.139
-605.157	143.690	-0.087	-0.118
-604.142	261.357	0.089	0.157
-603.128	399.250	-0.303	0.645
-602.113	-77.193	-0.173	0.061
-601.098	153.702	0.188	0.262
-600.084	246.289	0.072	0.123
-599.069	-56.762	-0.174	0.078
-598.055	-59.072	-0.336	-0.148
-597.040	800.000	-0.115	-0.345
-596.025	-12.321	-0.158	0.105
-595.011	-112.854	0.353	0.071
-593.996	-60.466	0.222	-0.096
-592.982	137.460	-0.096	0.128
-591.967	102.712	0.200	-0.238
-590.952	-28.529	-0.370	-0.217
-589.938	31.796	0.184	-0.161
-588.923	74.651	0.107	-0.115
-587.909	-52.149	-0.239	-0.113
-586.894	800.000	-0.048	-0.209
-585.879	-67.898	-0.094	0.037
-584.865	-200.000	-0.015	-0.185
-583.850	-135.829	0.178	0.021
-582.836	-137.546	-0.205	0.024
-581.821	-126.813	-0.368	-0.055
-580.806	17.496	0.058	0.047
-579.792	-116.514	0.181	0.034
-578.777	238.770	0.212	0.359
-577.763	375.619	0.134	-0.278
-576.748	166.471	-0.205	0.295
-575.733	-68.166	-0.145	-0.057
-574.719	61.841	0.206	-0.209
-573.704	36.407	-0.184	0.165
-572.690	-28.838	0.154	-0.090
-571.675	800.000	-0.032	-0.110
-570.661	800.000	-0.128	-0.407
-569.646	134.091	0.119	-0.156
-568.631	-132.216	-0.422	0.056
-567.617	-200.000	0.034	-0.152
-566.602	-157.790	0.338	-0.020
-565.588	172.054	-0.060	-0.087
-564.573	800.000	-0.102	0.310
-563.558	-200.000	-0.004	0.093
-562.544	-36.355	-0.370	0.202
-561.529	-130.033	0.096	-0.013
-560.515	-60.087	-0.326	0.142
-559.500	564.051	-0.043	0.106
-558.485	-89.660	-0.451	-0.134
-557.471	236.358	-0.158	0.265
-556.456	-200.000	-0.003	0.274
-555.442	-179.394	0.122	0.003
-554.427	-200.000	0.006	-0.365
-553.412	800.000	-0.040	-0.169
-552.398	-187.633	-0.203	-0.003
-551.383	-101.240	0.369	0.092
-550.369	-200.000	-0.028	0.172
-549.354	-10.894	-0.167	0.112
-548.339	-144.279	0.203	0.019
-547.325	-200.000	0.015	-0.100
-546.310	0.945	0.064	0.047
-545.296	291.010	0.164	0.302
-544.281	132.702	0.216	-0.283
-543.266	258.675	-0.143	-0.250
-542.252	218.607	0.059	0.095
-541.237	514.952	0.037	-0.089
-540.223	-67.658	-0.288	0.115
-539.208	-147.642	-0.394	-0.034
-538.193	-200.000	0.048	-0.369
-537.179	637.048	-0.063	0.163
-536.164	344.476	-0.058	0.116
-535.150	-130.445	0.215	0.030
-534.135	-63.371	0.384	0.160
-533.121	79.404	-0.214	-0.233
-532.106	-99.036	0.295	0.076
-531.091	-75.306	0.062	0.022
-530.077	101.212	0.287	0.339
-529.062	407.302	-0.069	0.148
-528.048	-200.000	-0.065	-0.451
-527.033	76.709	0.110	0.119
-526.018	-13.081	0.129	-0.085
-525.004	-133.591	-0.462	-0.059
-523.989	59.095	-0.201	-0.201
-522.975	73.736	-0.131	0.139
-521.960	-69.023	0.269	-0.105
-520.945	-200.000	-0.062	0.298
-519.931	2.406	0.111	-0.082
-518.916	-85.835	-0.130	0.041
-517.902	-200.000	0.013	-0.113
-516.887	73.207	-0.110	-0.116
-515.872	-85.037	0.142	-0.045
-514.858	-169.798	-0.258	-0.009
-513.843	-128.508	0.105	0.015
-512.829	1.049	0.052	0.038
-511.814	502.214	0.024	0.056
-510.799	-93.769	0.142	0.040
-509.785	193.423	0.056	0.085
-508.770	-43.266	0.076	-0.039
-507.756	748.137	0.091	0.248
-506.741	800.000	-0.076	0.272
-505.726	-111.014	-0.198	0.041
-504.712	-133.030	-0.305	0.039
-503.697	-200.000	0.028	-0.179
-502.683	724.935	-0.052	0.141
-501.668	72.938	-0.198	-0.210
-500.653	-160.351	0.031	-0.002
-499.639	-105.152	0.301	0.070
-498.624	84.690	-0.168	0.187
-497.610	-200.000	0.009	-0.043
-496.595	-163.498	0.248	-0.012
-495.581	114.955	-0.181	-0.224
-494.566	-189.969	-0.189	-0.002
-493.551	-200.000	0.013	0.160
-492.537	744.099	0.113	0.307
-491.522	-69.301	-0.076	0.030
-490.508	-200.000	-0.005	-0.115
-489.493	800.000	0.087	-0.258
-488.478	462.645	0.053	0.121
-487.464	-21.365	-0.356	0.220
-486.449	-138.778	-0.215	0.024
-485.435	-200.000	-0.010	-0.315
-484.420	794.210	0.052	0.145
-483.405	-123.212	0.013	-0.002
-482.391	66.184	0.198	0.203
-481.376	-200.000	-0.037	0.283
-480.362	-81.629	0.158	0.053
-479.347	-200.000	0.050	0.409
-478.332	-119.482	0.232	-0.041
-477.318	-157.638	-0.253	-0.015
-476.303	425.360	0.095	0.208
-475.289	12.819	0.057	0.044
-474.274	-50.863	0.261	-0.124
-473.259	-200.000	-0.038	-0.227
-472.245	-85.013	0.189	-0.060
-471.230	-200.000	0.065	-0.000
-470.216	-122.462	-0.292	-0.048
-469.201	-200.000	0.043	-0.209
-468.186	75.252	-0.081	0.086
-467.172	-137.976	0.245	-0.028
-466.157	-118.834	0.128	-0.023
-465.143	-200.000	0.018	0.196
-464.128	-28.549	0.166	0.097
-463.113	-200.000	0.007	-0.103
-462.099	133.916	-0.100	0.131
-461.084	-48.202	0.364	0.178
-460.070	-200.000	0.032	-0.254
-459.055	-170.018	-0.237	0.009
-458.040	-18.007	0.404	0.256
-457.026	800.000	-0.115	-0.328
-456.011	511.309	-0.025	-0.058
-454.997	-78.102	-0.177	0.062
-453.982	-89.049	0.093	0.028
-452.968	254.687	-0.078	0.135
-451.953	95.280	-0.258	0.297
-450.938	134.351	-0.043	-0.056
-449.924	-47.614	0.180	0.089
-448.909	800.000	-0.104	0.298
-447.895	310.466	-0.048	-0.091
-446.880	800.000	0.051	0.164
-445.865	-29.352	0.075	-0.043
-444.851	180.302	0.233	-0.346
-443.836	-200.000	-0.032	-0.192
-442.822	-172.213	-0.285	-0.009
-441.807	-91.255	-0.315	-0.091
-440.792	23.329	0.137	0.114
-439.778	313.653	-0.203	0.386
-438.763	136.193	0.187	-0.246
-437.749	245.880	0.132	-0.225
-436.734	306.322	0.184	0.346
-435.719	711.253	0.079	-0.211
-434.705	-129.425	0.339	-0.047
-433.690	81.221	-0.156	-0.170
-432.676	-72.412	-0.315	0.118
-431.661	-200.000	0.043	0.333
-430.646	-11.226	-0.102	0.068
-429.632	-103.631	-0.358	0.085
-428.617	21.022	-0.211	0.173
-427.603	55.667	-0.173	0.169
-426.588	-200.000	0.054	-0.381
-425.573	-70.622	-0.080	-0.031
-424.559	-4.984	0.017	-0.012
-423.544	-200.000	-0.018	0.199
-422.530	-149.780	-0.130	-0.010
-421.515	-11.174	0.043	-0.028
-420.500	-200.000	0.007	0.146
-419.486	-200.000	-0.003	0.043
-418.471	-34.199	-0.236	-0.131
-417.457	24.026	0.091	0.076
-416.442	34.322	-0.238	0.209
-415.428	83.034	-0.253	-0.278
-414.413	173.694	0.327	-0.476
-413.398	-92.625	-0.289	-0.082
-412.384	-200.000	-0.009	0.270
-411.369	69.906	0.169	0.176
-410.355	269.267	-0.096	0.169
-409.340	800.000	0.107	0.388
-408.325	-30.971	-0.221	-0.126
-407.311	155.135	-0.106	0.148
-406.296	484.709	-0.106	0.245
-405.282	-200.000	0.067	0.300
-404.267	120.706	-0.175	0.220
-403.252	-200.000	-0.042	-0.471
-402.238	-200.000	0.007	0.171
-401.223	-94.281	-0.126	-0.035
-400.209	-58.377	-0.210	-0.092
-399.194	-29.570	-0.177	-0.102
-398.179	-200.000	-0.008	-0.287
-397.165	-166.057	-0.122	0.005
-396.150	-200.000	-0.028	0.336
-395.136	244.780	-0.075	-0.127
-394.121	-177.084	-0.197	0.005
-393.106	244.929	0.091	0.155
-392.092	-106.466	0.198	0.045
-391.077	138.020	-0.046	0.061
-390.063	-11.343	0.125	0.083
-389.048	800.000	-0.030	0.122
-388.033	244.814	0.123	0.209
-387.019	-200.000	0.032	-0.256
-386.004	-200.000	0.008	0.110
-384.990	-200.000	-0.040	-0.308
-383.975	178.128	0.093	0.137
-382.960	-80.051	-0.318	-0.108
-381.946	385.732	-0.121	0.251
-380.931	-134.535	0.298	0.037
-379.917	800.000	-0.136	0.547
-378.902	-46.088	-0.035	-0.018
-377.888	-20.908	-0.107	-0.066
-376.873	15.322	-0.148	0.117
-375.858	-91.712	0.408	-0.117
-374.844	-200.000	0.032	0.497
-373.829	-135.814	0.136	-0.016
-372.815	491.461	0.055	0.127
-371.800	-52.863	0.123	-0.057
-370.785	-13.374	-0.178	-0.116
-369.771	-200.000	-0.064	0.290
-368.756	316.065	0.088	-0.168
-367.742	-200.000	0.002	0.014
-366.727	49.914	0.127	-0.121
-365.712	-200.000	-0.045	-0.279
-364.698	481.233	0.089	-0.203
-363.683	-34.050	-0.111	-0.061
-362.669	163.373	0.066	-0.094
-361.654	797.155	-0.155	0.432
-360.639	-200.000	0.000	-0.249
-359.625	-82.569	-0.286	-0.094
-358.610	-6.736	0.042	0.029
-357.596	-3.956	0.225	-0.157
-356.581	-110.361	0.341	0.071
-355.566	-99.982	0.333	0.084
-354.552	-118.833	-0.215	0.038
-353.537	520.900	-0.104	-0.247
-352.523	525.701	-0.091	-0.217
-351.508	105.904	-0.112	-0.133
-350.493	-107.940	-0.142	-0.031
-349.479	-57.284	0.142	-0.063
-348.464	-200.000	-0.020	-0.161
-347.450	36.327	-0.166	0.147
-346.435	-4.940	0.046	-0.032
-345.420	-200.000	-0.036	0.432
-344.406	-200.000	-0.031	-0.203
-343.391	800.000	0.042	-0.136
-342.377	350.821	0.161	0.320
-341.362	-4.175	-0.233	-0.163
-340.348	800.000	0.049	0.206
-339.333	-56.846	-0.249	0.111
-338.318	3.423	0.084	-0.061
-337.304	-96.756	-0.408	-0.108
-336.289	165.964	-0.124	-0.177
-335.275	-200.000	0.019	-0.305
-334.260	-45.638	-0.205	0.102
-333.245	311.243	0.129	0.243
-332.231	-54.960	0.289	0.131
-331.216	-200.000	-0.024	-0.114
-330.202	1.570	0.357	0.259
-329.187	149.573	-0.071	0.097
-328.172	-50.640	-0.181	0.086
-327.158	14.953	-0.127	0.100
-326.143	463.566	0.110	-0.247
-325.129	32.404	-0.252	-0.219
-324.114	-139.665	0.304	0.033
-323.099	-49.574	0.165	-0.079
-322.085	-58.454	-0.186	0.081
-321.070	800.000	0.040	-0.129
-320.056	519.696	-0.095	0.224
-319.041	66.695	0.097	-0.099
-318.026	128.142	0.120	0.154
-317.012	-200.000	0.068	-0.377
-315.997	207.187	-0.191	-0.300
-314.983	-79.272	0.226	-0.077
-313.968	-79.376	-0.435	-0.148
-312.953	-175.717	0.248	-0.007
-311.939	800.000	0.039	0.119
-310.924	700.493	-0.036	-0.096
-309.910	-200.000	-0.011	-0.124
-308.895	13.083	-0.169	-0.132
-307.880	800.000	-0.028	0.120
-306.866	-135.807	0.366	0.044
-305.851	-200.000	-0.021	0.204
-304.837	4.071	0.167	-0.123
-303.822	-131.620	0.294	-0.039
-302.807	800.000	0.040	-0.121
-301.793	-3.447	0.332	0.232
-300.778	4.842	0.104	-0.077
-299.764	-200.000	-0.037	-0.573
-298.749	-84.988	-0.331	-0.104
-297.735	-122.173	-0.344	-0.057
-296.720	800.000	0.021	0.071
-295.705	-130.389	0.072	0.010
-294.691	-129.818	-0.287	0.040
-293.676	55.262	-0.107	-0.104
-292.662	-86.296	0.244	-0.076
-291.647	111.486	0.120	0.145
-290.632	-28.194	-0.052	-0.030
-289.618	-14.524	0.207	0.134
-288.603	-36.946	-0.118	-0.064
-287.589	-40.715	-0.076	-0.040
-286.574	-68.398	-0.061	-0.024
-285.559	-200.000	-0.005	-0.096
-284.545	-102.181	-0.176	-0.042
-283.530	640.575	-0.045	0.114
-282.516	-200.000	-0.024	-0.168
-281.501	676.090	0.198	-0.517
-280.486	56.662	-0.107	0.105
-279.472	-65.684	-0.184	0.074
-278.457	269.638	0.097	0.171
-277.443	-60.386	-0.254	0.109
-276.428	800.000	0.030	-0.100
-275.413	-166.717	0.201	0.008
-274.399	-200.000	0.013	-0.214
-273.384	-200.000	0.029	-0.143
-272.370	-128.091	0.099	0.014
-271.355	800.000	0.105	-0.309
-270.340	5.129	0.209	0.154
-269.326	800.000	-0.058	0.168
-268.311	435.634	0.078	-0.170
-267.297	604.495	-0.066	-0.165
-266.282	800.000	0.025	0.107
-265.267	-200.000	-0.033	-0.211
-264.253	-181.254	-0.204	-0.004
-263.238	-163.072	-0.096	0.005
-262.224	30.033	-0.126	-0.108
-261.209	120.594	0.309	-0.386
-260.195	-65.526	0.135	-0.055
-259.180	-200.000	0.015	-0.338
-258.165	10.735	-0.147	-0.113
-257.151	116.475	0.151	0.186
-256.136	-200.000	-0.013	0.118
-255.122	86.679	-0.060	0.067
-254.107	-157.581	0.169	0.010
-253.092	344.424	-0.115	-0.226
-252.078	410.329	-0.125	-0.267
-251.063	-200.000	-0.009	-0.094
-250.049	-68.781	0.237	0.092
-249.034	78.415	0.193	0.207
-248.019	-23.253	0.058	0.035
-247.005	96.776	0.094	-0.108
-245.990	-200.000	-0.031	0.155
-244.976	70.932	-0.191	-0.198
-243.961	-48.003	-0.309	0.150
-242.946	-200.000	0.003	-0.300
-241.932	148.627	0.277	-0.376
-240.917	293.163	-0.058	-0.107
-239.903	-200.000	0.004	-0.086
-238.888	52.785	0.240	0.231
-237.873	402.849	-0.099	-0.209
-236.859	365.857	0.057	-0.115
-235.844	598.647	0.017	0.041
-234.830	-139.299	0.274	0.030
-233.815	257.238	0.102	0.176
-232.800	800.000	0.080	-0.226
-231.786	-200.000	-0.016	0.239
-230.771	-100.490	-0.153	-0.038
-229.757	-187.440	0.261	0.004
-228.742	565.536	-0.080	0.196
-227.727	611.577	-0.029	0.072
-226.713	23.882	-0.295	-0.244
-225.698	-200.000	0.023	0.110
-224.684	-73.091	0.054	0.020
-223.669	-146.354	-0.241	-0.021
-222.655	125.521	-0.208	0.263
-221.640	95.903	0.293	-0.335
-220.625	-200.000	0.021	-0.383
-219.611	-63.487	0.118	0.049
-218.596	-200.000	0.041	0.306
-217.582	38.798	0.083	0.075
-216.567	183.943	0.042	-0.063
-215.552	16.863	0.260	-0.207
-214.538	454.542	0.118	0.261
-213.523	74.258	0.143	0.151
-212.509	-87.638	0.121	0.037
-211.494	93.106	0.256	-0.290
-210.479	-67.846	0.353	0.138
-209.465	-39.406	0.228	0.120
-208.450	-76.210	0.196	0.069
-207.436	490.730	0.064	-0.147
-206.421	-200.000	0.006	0.126
-205.406	-200.000	0.002	0.123
-204.392	487.088	-0.104	0.239
-203.377	124.938	-0.124	-0.157
-202.363	320.529	0.183	0.349
-201.348	580.778	-0.121	0.297
-200.333	-87.368	0.282	0.086
-199.319	-152.874	0.442	0.031
-198.304	118.296	-0.275	-0.340
-197.290	-111.024	0.325	-0.067
-196.275	37.336	0.151	0.134
-195.260	197.344	-0.211	0.323
-194.246	315.102	-0.211	0.399
-193.231	-55.155	0.180	-0.081
-192.217	598.364	-0.060	-0.149
-191.202	-30.816	-0.103	-0.058
-190.187	-200.000	0.016	-0.324
-189.173	-38.230	-0.315	0.167
-188.158	183.418	0.053	-0.079
-187.144	92.990	-0.074	-0.084
-186.129	6.024	-0.161	0.120
-185.114	-200.000	0.043	0.267
-184.100	800.000	0.069	0.202
-183.085	-62.930	0.114	0.047
-182.071	43.805	-0.235	-0.215
-181.056	796.193	0.041	-0.114
-180.042	-13.113	-0.292	-0.190
-179.027	-200.000	0.260	0.001
-178.012	-104.566	0.195	0.045
-176.998	-64.565	0.220	0.089
-175.983	13.390	0.276	-0.214
-174.969	183.601	0.099	-0.147
-173.954	-101.022	-0.334	0.082
-172.939	-200.000	0.007	0.103
-171.925	-74.588	0.214	0.077
-170.910	-142.556	-0.251	-0.025
-169.896	800.000	-0.042	0.151
-168.881	118.436	-0.172	-0.213
-167.866	-58.239	0.242	-0.106
-166.852	-200.000	-0.033	0.191
-165.837	576.144	-0.145	-0.355
-164.823	-16.135	0.114	0.073
-163.808	215.656	0.248	0.395
-162.793	-48.600	0.324	0.156
-161.779	137.645	0.034	-0.045
-160.764	37.803	-0.227	0.202
-159.750	250.953	0.049	0.084
-158.735	800.000	-0.058	-0.245
-157.720	-45.886	-0.054	0.027
-156.706	-5.009	0.134	-0.093
-155.691	652.451	-0.081	-0.207
-154.677	198.467	-0.098	0.150
-153.662	60.397	0.103	0.102
-152.647	60.159	0.237	0.234
-151.633	7.484	0.263	-0.196
-150.618	-200.000	0.053	-0.378
-149.604	-31.890	0.164	0.092
-148.589	-64.172	-0.111	-0.045
-147.574	9.478	0.151	0.114
-146.560	-127.690	-0.088	0.013
-145.545	-131.779	-0.208	-0.027
-144.531	328.442	0.212	0.407
-143.516	-200.000	0.008	0.234
-142.502	-30.294	0.305	0.173
-141.487	-86.059	-0.207	-0.064
-140.472	-200.000	0.001	0.036
-139.458	55.997	-0.196	-0.190
-138.443	800.000	0.097	-0.315
-137.429	-120.134	-0.352	-0.060
-136.414	-112.167	-0.565	0.114
-135.399	204.349	-0.113	-0.175
-134.385	13.605	-0.145	0.112
-133.370	-200.000	-0.066	0.366
-132.356	-200.000	-0.004	-0.159
-131.341	800.000	0.041	0.135
-130.326	51.944	-0.076	0.072
-129.312	-200.000	0.047	0.357
-128.297	284.580	0.103	0.186
-127.283	45.144	-0.024	-0.022
-126.268	667.866	-0.137	-0.355
-125.253	193.039	-0.162	0.244
-124.239	-195.858	-0.492	0.004
-123.224	-200.000	-0.031	-0.185
-122.210	-17.005	-0.199	-0.125
-121.195	-200.000	-0.012	-0.220
-120.180	216.160	0.202	-0.320
-119.166	-200.000	0.055	0.362
-118.151	208.456	-0.112	0.174
-117.137	-200.000	-0.066	-0.402
-116.122	800.000	-0.149	-0.411
-115.107	272.088	0.113	-0.198
-114.093	-78.192	0.212	-0.073
-113.078	-200.000	-0.015	-0.193
-112.064	-102.938	-0.278	-0.066
-111.049	36.633	-0.245	-0.216
-110.034	-121.437	0.175	0.029
-109.020	-101.368	-0.269	0.066
-108.005	-48.318	0.191	0.092
-106.991	-37.170	-0.138	-0.074
-105.976	-200.000	0.029	-0.366
-104.962	96.458	0.288	-0.328
-103.947	-200.000	-0.031	0.206
-102.932	133.293	-0.087	0.113
-101.918	374.542	0.105	-0.214
-100.903	784.718	0.068	-0.187
-99.889	800.000	-0.068	0.200
-98.874	-130.400	-0.152	-0.021
-97.859	-77.729	0.119	0.041
-96.845	-76.210	0.361	0.127
-95.830	103.905	0.359	-0.421
-94.816	-51.909	0.121	-0.056
-93.801	-177.365	-0.316	-0.008
-92.786	-66.360	0.139	-0.055
-91.772	800.000	-0.098	0.303
-90.757	15.075	-0.048	0.037
-89.743	44.494	-0.378	-0.347
-88.728	-7.330	-0.149	-0.100
-87.713	-158.626	-0.086	-0.005
-86.699	-3.878	-0.301	0.208
-85.684	-48.341	-0.158	0.076
-84.670	-78.013	0.159	-0.054
-83.655	800.000	0.204	-0.612
-82.640	800.000	0.089	0.291
-81.626	466.582	-0.055	-0.122
-80.611	-182.035	-0.177	0.003
-79.597	223.742	-0.210	0.338
-78.582	73.390	-0.044	-0.046
-77.567	435.355	0.166	0.359
-76.553	-32.972	-0.319	0.177
-75.538	-200.000	-0.018	0.316
-74.524	-42.655	0.196	-0.099
-73.509	-200.000	0.002	-0.596
-72.494	800.000	0.101	-0.353
-71.480	-200.000	-0.018	0.100
-70.465	41.379	-0.177	0.159
-69.451	-120.693	0.364	-0.061
-68.436	199.597	-0.083	0.127
-67.422	-70.544	-0.218	-0.082
-66.407	575.340	-0.042	-0.101
-65.392	-47.883	0.076	-0.037
-64.378	-81.172	0.297	0.098
-63.363	-16.876	0.242	0.152
-62.349	-14.440	-0.218	0.140
-61.334	-42.383	-0.582	-0.296
-60.319	433.581	-0.084	0.181
-59.305	-200.000	-0.093	-0.853
-58.290	800.000	0.275	0.965
-57.276	800.000	0.331	1.386
-56.261	-200.000	76.954	517.837
-55.246	495.478	1350.004	3090.055
-54.232	140.919	2607.198	3433.262
-53.217	112.870	2285.741	2758.829
-52.203	50.269	1803.925	1697.618
-51.188	43.275	1599.329	1454.833
-50.173	40.728	1569.088	1409.221
-49.159	56.617	1606.591	1557.051
-48.144	61.802	1626.790	1613.713
-47.130	43.782	1589.863	1449.627
-46.115	40.283	1574.773	1410.932
-45.100	40.123	1570.969	1406.333
-44.086	40.059	1569.125	1404.169
-43.071	39.878	1567.274	1401.175
-42.057	39.816	1565.811	1399.369
-41.042	39.885	1564.171	1398.336
-40.027	39.910	1561.693	1396.248
-39.013	39.870	1560.566	1394.901
-37.998	40.008	1558.932	1394.359
-36.984	39.884	1557.906	1392.513
-35.969	39.944	1556.625	1391.730
-34.954	40.008	1554.991	1390.669
-33.940	39.940	1553.970	1389.216
-32.925	39.968	1551.847	1387.462
-31.911	40.042	1550.682	1386.887
-30.896	40.128	1548.834	1385.781
-29.881	40.056	1547.888	1384.377
-28.867	40.054	1546.642	1383.191
-27.852	39.980	1545.205	1381.335
-26.838	40.042	1543.398	1380.100
-25.823	39.996	1541.500	1378.026
-24.809	39.948	1540.390	1376.645
-23.794	40.030	1538.963	1375.883
-22.779	39.965	1537.757	1374.297
-21.765	40.038	1536.599	1373.716
-20.750	40.007	1535.447	1372.419
-19.736	39.944	1534.261	1370.867
-18.721	39.885	1533.599	1369.811
-17.706	39.955	1532.067	1368.871
-16.692	39.982	1530.879	1367.943
-15.677	39.981	1529.544	1366.691
-14.663	39.914	1528.365	1365.117
-13.648	39.856	1527.746	1364.110
-12.633	39.841	1526.530	1362.868
-11.619	39.831	1526.155	1362.411
-10.604	39.946	1525.074	1362.182
-9.590	39.931	1523.816	1360.901
-8.575	39.886	1523.284	1360.066
-7.560	39.937	1522.356	1359.531
-6.546	39.959	1521.204	1358.600
-5.531	39.892	1520.362	1357.335
-4.517	39.854	1519.289	1356.060
-3.502	39.799	1518.503	1354.930
-2.487	39.877	1516.927	1354.006
-1.473	39.945	1515.950	1353.546
-0.458	39.790	1515.162	1351.725
0.556	39.339	1505.452	1342.943
1.571	36.505	1477.258	1298.666
2.586	31.730	1409.794	1208.532
3.600	27.978	1319.459	1108.287
4.615	24.871	1268.126	1046.931
5.629	20.362	1209.207	972.995
6.644	10.516	1117.441	847.833
7.659	2.512	1071.075	772.340
8.673	1.174	1064.759	761.008
9.688	0.891	1062.056	757.593
10.702	0.777	1060.731	756.011
11.717	0.678	1059.329	754.449
12.731	3.326	1061.530	769.187
13.746	11.419	1073.399	818.444
14.761	17.553	1080.208	854.429
15.775	17.696	1079.918	854.843
16.790	17.202	1077.831	850.643
17.804	16.297	1075.389	844.117
18.819	15.302	1073.753	837.790
19.834	14.776	1072.317	833.966
20.848	14.425	1071.064	831.171
21.863	14.108	1070.509	829.087
22.877	13.923	1069.730	827.486
23.892	13.659	1068.831	825.406
24.907	13.593	1067.757	824.171
25.921	13.671	1066.954	823.867
26.936	13.632	1066.856	823.526
27.950	13.698	1065.876	823.026
28.965	13.839	1065.028	822.998
29.980	13.766	1064.405	822.081
30.994	13.767	1063.119	821.018
32.009	13.816	1062.447	820.669
33.023	13.750	1061.841	819.802
34.038	13.938	1060.775	819.838
35.053	13.841	1059.969	818.661
36.067	13.794	1059.176	817.747
37.082	13.728	1058.319	816.688
38.096	13.814	1057.184	816.163
39.111	13.772	1057.139	815.848
40.126	13.912	1055.663	815.323
41.140	13.705	1054.641	813.448
42.155	13.638	1053.825	812.418
43.169	13.757	1052.636	812.010
44.184	13.632	1051.953	810.800
45.199	13.628	1050.916	809.911
46.213	13.643	1049.579	808.879
47.228	13.689	1049.084	808.653
48.242	13.728	1047.880	807.842
49.257	13.718	1046.740	806.845
50.271	13.736	1045.330	805.774
51.286	13.673	1044.593	804.829
52.301	13.790	1043.886	804.779
53.315	13.714	1043.268	803.863
54.330	13.855	1042.078	803.558
55.344	13.750	1041.323	802.398
56.359	13.753	1040.342	801.585
57.374	13.651	1039.806	800.607
58.388	13.724	1038.655	800.003
59.403	13.630	1037.913	798.909
60.417	13.525	1037.428	797.956
61.432	13.710	1036.430	798.008
62.447	13.649	1035.781	797.148
63.461	13.591	1034.887	796.112
64.476	13.519	1033.785	794.845
65.490	13.497	1032.937	794.018
66.505	13.541	1032.334	793.697
67.520	13.672	1031.189	793.372
68.534	13.609	1030.634	792.572
69.549	13.690	1029.806	792.253
70.563	13.661	1028.757	791.236
71.578	13.678	1028.445	791.010
72.593	13.581	1027.633	789.850
73.607	13.548	1026.376	788.660
74.622	13.525	1025.835	788.064
75.636	13.416	1024.982	786.819
76.651	13.497	1024.179	786.521
77.666	13.578	1023.311	786.167
78.680	13.519	1022.671	785.325
79.695	13.550	1022.249	785.078
80.709	13.591	1021.431	784.574
81.724	13.603	1020.724	784.022
82.739	13.651	1019.750	783.428
83.753	13.552	1019.444	782.659
84.768	13.666	1018.025	782.034
85.782	13.778	1017.600	782.168
86.797	13.753	1016.769	781.343
87.812	13.707	1015.958	780.433
88.826	13.593	1015.131	779.195
89.841	13.601	1014.283	778.514
90.855	13.771	1013.060	778.302
91.870	13.732	1012.263	777.439
92.884	13.696	1011.605	776.696
93.899	13.855	1010.912	776.840
94.914	13.868	1009.992	776.125
95.928	13.738	1009.632	775.171
96.943	13.742	1009.010	774.644
97.957	13.831	1007.779	774.046
98.972	13.749	1007.321	773.244
99.987	13.783	1005.905	772.247
101.001	13.853	1005.322	772.057
102.016	13.908	1004.686	771.756
103.030	13.719	1003.786	770.116
104.045	13.812	1003.041	769.907
105.060	13.743	1001.932	768.668
106.074	13.779	1000.698	767.819
107.089	13.812	1000.083	767.434
108.103	13.723	999.601	766.585
109.118	13.684	998.608	765.574
110.133	13.839	997.394	765.292
111.147	13.689	997.110	764.315
112.162	13.654	995.718	763.019
113.176	13.785	995.039	763.035
114.191	13.639	994.702	762.035
115.206	13.804	993.284	761.642
116.220	13.658	992.866	760.581
117.235	13.749	991.889	760.185
118.249	13.832	990.801	759.662
119.264	13.687	990.084	758.384
120.279	13.797	989.048	758.024
121.293	13.713	988.393	757.074
122.308	13.743	987.522	756.474
123.322	13.646	986.886	755.479
124.337	13.755	985.691	754.995
125.352	13.697	984.505	753.754
126.366	13.715	983.129	752.714
127.381	13.630	982.716	751.947
128.395	13.713	981.694	751.475
129.410	13.649	980.323	750.068
130.424	13.691	980.043	749.979
131.439	13.698	978.926	749.091
132.454	13.729	978.147	748.568
133.468	13.789	977.330	748.144
134.483	13.828	976.542	747.653
135.497	13.874	976.075	747.435
136.512	13.783	975.492	746.512
137.527	13.855	974.243	745.816
138.541	13.865	973.602	745.303
139.556	13.853	973.008	744.730
140.570	13.812	972.241	743.894
141.585	13.833	971.433	743.300
142.600	13.883	970.880	743.038
143.614	13.938	969.700	742.315
144.629	14.037	969.238	742.336
145.643	14.022	968.481	741.627
146.658	13.973	967.601	740.667
147.673	13.955	966.827	739.929
148.687	13.894	965.831	738.831
149.702	13.831	964.892	737.764
150.716	13.755	964.370	736.963
151.731	13.897	962.770	736.308
152.746	13.736	962.736	735.500
153.760	13.900	961.546	735.253
154.775	13.867	961.270	734.830
155.789	13.856	960.454	734.094
156.804	13.829	960.005	733.566
157.819	13.904	958.681	732.820
158.833	13.969	957.795	732.363
159.848	14.078	957.149	732.287
160.862	14.015	956.789	731.668
161.877	13.947	956.311	730.938
162.892	13.990	955.203	730.218
163.906	13.830	954.779	729.125
164.921	13.941	953.618	728.660
165.935	13.860	952.398	727.308
166.950	13.821	951.907	726.697
167.964	13.813	950.844	725.789
168.979	13.886	949.894	725.318
169.994	13.939	948.590	724.489
171.008	13.970	947.819	723.973
172.023	14.154	946.593	723.771
173.037	14.089	946.343	723.232
174.052	14.200	945.058	722.671
175.067	14.024	945.021	721.812
176.081	14.013	944.334	721.175
177.096	14.031	943.084	720.238
178.110	14.087	942.081	719.649
179.125	14.090	941.575	719.212
180.140	14.097	940.725	718.531
181.154	14.092	939.911	717.822
182.169	14.109	939.352	717.404
183.183	14.225	938.803	717.424
184.198	14.339	937.853	717.125
185.213	14.182	937.270	715.938
186.227	14.208	937.019	715.796
187.242	14.087	936.461	714.786
188.256	14.213	935.479	714.513
189.271	14.258	934.724	714.068
190.286	14.250	933.919	713.356
191.300	14.242	933.346	712.822
192.315	14.106	932.827	711.777
193.329	14.014	932.104	710.772
194.344	14.191	930.880	710.529
195.359	14.052	930.782	709.797
196.373	14.103	930.359	709.631
197.388	14.172	929.646	709.320
198.402	14.381	929.115	709.739
199.417	14.474	928.296	709.447
200.432	14.427	928.154	709.078
201.446	14.604	927.661	709.390
202.461	14.388	927.617	708.376
203.475	14.509	927.040	708.386
204.490	14.634	925.909	707.991
205.504	14.504	924.814	706.539
206.519	14.446	924.537	706.021
207.534	14.515	923.666	705.585
208.548	14.555	922.660	704.921
209.563	14.506	922.254	704.343
210.577	14.503	921.395	703.610
211.592	14.436	920.819	702.825
212.607	14.593	920.397	703.103
213.621	14.523	920.031	702.468
214.636	14.589	919.056	701.939
215.650	14.597	918.555	701.525
216.665	14.530	918.130	700.859
217.680	14.743	917.113	700.912
218.694	14.721	916.353	700.179
219.709	14.724	916.133	699.961
220.723	14.751	915.695	699.678
221.738	14.685	914.682	698.565
222.753	14.643	914.163	697.931
223.767	14.626	913.268	697.118
224.782	14.645	912.675	696.683
225.796	14.815	911.726	696.605
226.811	14.903	910.926	696.299
227.826	14.736	910.404	695.144
228.840	14.732	909.760	694.571
229.855	14.806	909.286	694.455
230.869	14.764	908.784	693.839
231.884	14.675	907.760	692.626
232.899	14.799	906.973	692.476
233.913	14.781	906.307	691.834
234.928	14.732	905.658	691.073
235.942	14.650	904.961	690.140
236.957	14.690	903.926	689.454
237.972	14.939	903.175	689.849
238.986	14.802	902.567	688.759
240.001	14.915	901.853	688.617
241.015	14.862	900.988	687.679
242.030	14.721	900.981	687.032
243.045	14.928	899.805	686.928
244.059	14.970	899.316	686.666
245.074	14.849	898.982	685.852
246.088	14.857	898.656	685.576
247.103	14.981	897.449	685.101
248.117	14.997	897.009	684.769
249.132	14.972	896.452	684.181
250.147	15.151	895.904	684.434
251.161	15.020	895.557	683.574
252.176	15.160	894.385	683.189
253.190	15.269	893.756	683.096
254.205	15.219	892.906	682.182
255.220	15.360	892.373	682.287
256.234	15.248	892.160	681.607
257.249	15.321	891.296	681.183
258.263	15.300	890.903	680.738
259.278	15.250	890.349	680.052
260.293	15.267	889.756	679.608
261.307	15.429	889.016	679.639
262.322	15.466	888.501	679.334
263.336	15.323	888.151	678.428
264.351	15.483	887.434	678.469
265.366	15.411	887.074	677.840
266.380	15.413	886.210	677.128
267.395	15.517	885.496	676.942
268.409	15.448	884.559	675.888
269.424	15.448	884.083	675.464
270.439	15.424	883.443	674.819
271.453	15.518	882.416	674.351
272.468	15.457	882.037	673.760
273.482	15.571	881.357	673.636
274.497	15.517	880.602	672.784
275.512	15.535	879.919	672.273
276.526	15.547	879.095	671.632
277.541	15.519	878.484	670.995
278.555	15.519	878.367	670.848
279.570	15.517	877.601	670.195
280.585	15.688	877.004	670.362
281.599	15.641	876.404	669.654
282.614	15.525	876.114	668.914
283.628	15.668	875.115	668.660
284.643	15.794	874.412	668.564
285.657	15.827	873.564	667.987
286.672	15.766	873.221	667.426
287.687	15.721	872.740	666.819
288.701	15.648	872.201	666.060
289.716	15.787	871.560	666.063
290.730	15.750	870.833	665.299
291.745	15.671	870.437	664.625
292.760	15.807	869.650	664.503
293.774	15.761	869.011	663.774
294.789	15.784	869.053	663.840
295.803	15.911	867.818	663.336
296.818	15.889	867.234	662.745
297.833	15.829	866.515	661.903
298.847	15.842	866.207	661.659
299.862	15.885	865.399	661.153
300.876	15.832	865.012	660.590
301.891	15.831	864.180	659.891
302.906	15.912	863.574	659.687
303.920	16.068	862.699	659.573
304.935	16.071	862.245	659.177
305.949	16.096	861.352	658.537
306.964	16.059	861.132	658.163
307.979	16.149	860.374	657.880
308.993	16.117	860.205	657.566
310.008	16.027	859.377	656.525
311.022	16.237	858.641	656.720
312.037	16.205	858.218	656.215
313.052	16.299	857.366	655.869
314.066	16.295	857.243	655.704
315.081	16.313	855.954	654.727
316.095	16.179	855.597	653.878
317.110	16.167	855.259	653.516
318.125	16.330	854.701	653.663
319.139	16.165	854.233	652.607
320.154	16.239	853.758	652.475
321.168	16.135	853.319	651.677
322.183	16.260	852.713	651.640
323.197	16.298	852.143	651.295
324.212	16.228	851.794	650.702
325.227	16.409	851.112	650.820
326.241	16.362	850.420	650.050
327.256	16.235	850.008	649.189
328.270	16.401	849.090	649.070
329.285	16.320	848.599	648.325
330.300	16.326	848.136	647.937
331.314	16.363	847.545	647.570
332.329	16.268	847.277	646.945
333.343	16.448	846.298	646.828
334.358	16.583	845.552	646.717
335.373	16.482	844.919	645.791
336.387	16.501	844.835	645.742
337.402	16.505	844.194	645.209
338.416	16.531	843.816	644.963
339.431	16.643	842.856	644.599
340.446	16.509	842.463	643.730
341.460	16.589	842.077	643.684
342.475	16.670	841.327	643.361
343.489	16.673	840.629	642.780
344.504	16.614	840.523	642.418
345.519	16.691	839.683	642.013
346.533	16.723	839.237	641.736
347.548	16.738	838.856	641.445
348.562	16.792	838.302	641.171
349.577	16.779	837.436	640.401
350.592	16.632	837.176	639.588
351.606	16.723	836.522	639.378
352.621	16.681	836.162	638.886
353.635	16.597	835.804	638.241
354.650	16.603	835.522	637.991
355.665	16.704	835.048	637.954
356.679	16.773	834.524	637.754
357.694	16.752	833.934	637.167
358.708	16.774	833.316	636.722
359.723	16.632	832.938	635.845
360.738	16.713	832.686	635.901
361.752	16.800	831.935	635.597
362.767	16.836	831.446	635.301
363.781	16.970	830.609	635.109
364.796	16.738	830.369	634.000
365.810	17.011	830.056	634.725
366.825	16.901	829.574	633.891
367.840	16.813	829.369	633.351
368.854	17.039	828.859	633.749
369.869	16.970	828.512	633.168
370.883	17.065	827.557	632.737
371.898	17.126	827.159	632.602
372.913	17.049	826.161	631.497
373.927	17.112	825.910	631.484
374.942	17.003	825.620	630.803
375.956	17.138	824.813	630.630
376.971	17.036	824.221	629.743
377.986	17.142	823.566	629.579
379.000	17.348	822.798	629.698
380.015	17.357	822.489	629.440
381.029	17.220	821.929	628.452
382.044	17.387	821.480	628.668
383.059	17.276	820.801	627.682
384.073	17.494	820.455	628.169
385.088	17.327	819.659	626.888
386.102	17.355	819.253	626.625
387.117	17.339	818.575	625.993
388.132	17.270	818.537	625.654
389.146	17.247	817.848	624.986
390.161	17.264	817.679	624.863
391.175	17.322	817.325	624.752
392.190	17.356	817.098	624.649
393.205	17.215	816.562	623.667
394.219	17.309	815.758	623.341
395.234	17.218	815.435	622.707
396.248	17.357	814.755	622.640
397.263	17.248	814.494	621.987
398.278	17.489	813.744	622.240
399.292	17.298	813.069	620.970
400.307	17.274	813.069	620.827
401.321	17.397	812.684	620.929
402.336	17.540	812.104	620.952
403.350	17.677	811.516	620.945
404.365	17.472	811.040	619.782
405.380	17.420	810.915	619.443
406.394	17.521	810.155	619.172
407.409	17.626	809.908	619.311
408.423	17.555	809.695	618.836
409.438	17.662	808.739	618.440
410.453	17.668	808.694	618.371
411.467	17.657	808.099	617.822
412.482	17.757	807.516	617.685
413.496	17.784	806.672	617.083
414.511	17.816	806.524	617.028
415.526	17.813	806.109	616.646
416.540	17.744	806.071	616.315
417.555	17.726	805.369	615.658
418.569	17.736	805.357	615.629
419.584	17.821	804.426	615.171
420.599	17.760	804.288	614.789
421.613	94.927	1267.395	1385.149
422.628	81.342	1334.880	1385.319
