DTS Sentinel unit serial number:	SN413079Multiplexer serial number:	ORYXHardware model number:	OX4-SRSoftware version number:	ORYX F/W v4.00 Oryx Data Collector v3.7.2.0data status	okinstallation	princeton_trtdifferential loss correction	single-endedforward channel	channel 3reverse channel	N/Adate	2019/09/19time	13:08:34forward acquisition time	60.00reverse acquisition time	0.00gamma	496.2192k internal	0.2328k external	0.2328temperature offset calibration	0.9991default loss term (dB/km)	0.3790temperature slope calibration	1.0000multiplexer offset coefficient	1.0000multiplexer slope coefficient	1.0000fibre end	0.00T internal ref (°C)	29.06T ext. ref 1 (°C)	0.94T ext. ref 2 (°C)	27.02length (m)	temperature (°C)	Stokes	anti-Stokes-747.200	-103.612	0.160	0.038
-746.185	-200.000	-0.017	0.449
-745.171	800.000	0.122	0.357
-744.156	-200.000	-0.029	-0.186
-743.142	800.000	-0.047	-0.182
-742.127	-200.000	-0.076	0.400
-741.112	691.412	0.038	-0.100
-740.098	-7.600	-0.058	-0.039
-739.083	800.000	0.090	0.365
-738.069	-200.000	0.040	0.565
-737.054	-27.039	0.030	-0.017
-736.039	800.000	-0.063	-0.264
-735.025	-200.000	-0.044	0.212
-734.010	-65.982	-0.274	-0.110
-732.996	800.000	-0.022	-0.093
-731.981	80.851	-0.269	0.293
-730.966	-200.000	-0.018	0.123
-729.952	-200.000	0.021	-0.268
-728.937	-138.778	0.409	-0.045
-727.923	-185.995	-0.320	-0.005
-726.908	-185.299	0.199	-0.003
-725.894	800.000	0.120	0.338
-724.879	-22.787	-0.269	-0.163
-723.864	-95.381	-0.193	-0.052
-722.850	-162.450	-0.009	0.000
-721.835	800.000	0.111	-0.420
-720.821	-57.775	0.136	-0.060
-719.806	217.899	0.077	-0.123
-718.791	-62.138	0.136	0.057
-717.777	-200.000	0.015	0.116
-716.762	-94.800	-0.094	0.026
-715.748	-91.211	0.249	0.072
-714.733	-127.688	-0.339	-0.049
-713.718	-35.327	0.170	0.093
-712.704	800.000	0.041	-0.132
-711.689	-200.000	0.033	-0.258
-710.675	212.861	-0.111	-0.176
-709.660	800.000	0.093	0.371
-708.645	-95.307	0.130	-0.035
-707.631	-91.685	-0.095	-0.027
-706.616	155.789	-0.113	-0.157
-705.602	800.000	0.039	-0.161
-704.587	133.540	-0.209	-0.272
-703.572	-200.000	0.014	-0.209
-702.558	324.361	-0.092	0.177
-701.543	-49.335	-0.295	-0.142
-700.529	-131.684	0.265	0.035
-699.514	-200.000	-0.013	-0.435
-698.499	441.540	-0.094	0.207
-697.485	-68.685	-0.051	0.020
-696.470	118.340	-0.115	-0.143
-695.456	620.893	0.125	0.315
-694.441	800.000	0.118	-0.373
-693.426	368.669	0.097	-0.198
-692.412	250.155	-0.051	-0.086
-691.397	26.185	0.298	0.250
-690.383	247.032	-0.131	-0.223
-689.368	800.000	0.029	0.100
-688.354	800.000	0.017	0.054
-687.339	-138.770	-0.093	0.010
-686.324	800.000	-0.073	-0.207
-685.310	-128.239	-0.152	-0.022
-684.295	-32.102	0.102	-0.057
-683.281	567.872	-0.092	0.225
-682.266	-9.529	-0.311	0.208
-681.251	373.039	0.194	0.397
-680.237	548.780	0.086	-0.206
-679.222	-200.000	0.027	0.173
-678.208	-25.435	-0.226	0.134
-677.193	189.835	0.029	0.043
-676.178	-200.000	-0.011	0.331
-675.164	0.041	0.202	-0.144
-674.149	189.900	-0.182	-0.275
-673.135	-99.815	0.094	0.024
-672.120	71.438	-0.139	-0.145
-671.105	800.000	-0.091	0.346
-670.091	82.603	-0.160	-0.175
-669.076	687.142	0.077	0.203
-668.062	-19.904	0.264	-0.164
-667.047	410.945	0.135	0.287
-666.032	-15.862	-0.178	0.114
-665.018	72.206	-0.128	-0.134
-664.003	-200.000	-0.017	0.251
-662.989	-94.214	-0.127	-0.035
-661.974	-159.676	0.310	0.017
-660.959	-24.105	-0.371	0.223
-659.945	-69.062	0.153	-0.059
-658.930	-200.000	-0.010	0.119
-657.916	-0.728	-0.147	0.105
-656.901	-63.933	0.122	-0.050
-655.886	-19.814	0.138	0.086
-654.872	-16.278	-0.147	0.093
-653.857	468.780	-0.087	0.195
-652.843	-96.398	-0.283	0.075
-651.828	-104.829	0.266	0.061
-650.814	166.939	0.202	-0.288
-649.799	-69.764	-0.193	-0.074
-648.784	184.550	-0.072	-0.108
-647.770	-2.376	0.079	0.056
-646.755	-25.648	-0.287	0.170
-645.741	-9.684	-0.056	0.037
-644.726	-200.000	0.027	-0.165
-643.711	-30.072	0.088	0.050
-642.697	208.175	0.132	-0.208
-641.682	-12.886	-0.286	0.187
-640.668	-186.490	-0.208	-0.003
-639.653	59.266	-0.197	-0.195
-638.638	-18.373	-0.143	0.090
-637.624	71.767	-0.167	0.174
-636.609	-68.016	0.173	0.068
-635.595	33.395	-0.487	-0.424
-634.580	-25.613	-0.251	0.149
-633.565	-90.211	-0.083	0.024
-632.551	440.668	0.045	0.099
-631.536	-200.000	-0.023	0.327
-630.522	-200.000	-0.018	-0.153
-629.507	790.285	-0.111	-0.307
-628.492	130.412	-0.147	-0.189
-627.478	-200.000	-0.025	-0.131
-626.463	-110.936	-0.049	-0.010
-625.449	-105.477	0.190	0.043
-624.434	-88.119	-0.262	-0.079
-623.419	402.006	0.029	0.061
-622.405	-200.000	-0.000	0.133
-621.390	33.864	0.122	0.106
-620.376	168.681	0.039	-0.056
-619.361	466.791	-0.043	0.096
-618.346	-63.010	0.066	0.027
-617.332	127.026	0.121	0.153
-616.317	-28.572	-0.079	-0.046
-615.303	144.544	0.206	-0.276
-614.288	-200.000	-0.032	0.141
-613.273	-28.342	0.190	-0.110
-612.259	-112.914	0.188	0.037
-611.244	114.905	-0.087	-0.106
-610.230	-200.000	0.037	0.302
-609.215	-120.508	-0.425	-0.072
-608.201	25.773	-0.059	-0.050
-607.186	-42.625	0.153	-0.078
-606.171	35.868	0.196	-0.173
-605.157	119.011	0.167	0.207
-604.142	61.857	-0.107	0.107
-603.128	-200.000	-0.024	-0.239
-602.113	-100.342	0.173	-0.043
-601.098	800.000	-0.136	0.402
-600.084	-106.480	0.105	-0.023
-599.069	-115.401	-0.323	-0.061
-598.055	314.124	0.101	-0.191
-597.040	-200.000	-0.036	-0.275
-596.025	-200.000	-0.045	-0.253
-595.011	-14.206	-0.061	0.039
-593.996	188.081	0.141	0.211
-592.982	231.963	-0.044	-0.072
-591.967	35.772	0.222	-0.196
-590.952	318.805	-0.118	-0.224
-589.938	653.015	-0.139	0.358
-588.923	71.916	0.079	-0.082
-587.909	-62.705	0.073	-0.030
-586.894	-185.310	0.136	0.002
-585.879	74.982	0.249	-0.262
-584.865	-200.000	-0.071	-0.331
-583.850	-83.483	-0.256	-0.082
-582.836	51.959	0.101	0.096
-581.821	192.718	-0.151	-0.229
-580.806	800.000	0.008	0.032
-579.792	800.000	0.046	0.191
-578.777	-69.708	0.056	0.021
-577.763	-200.000	0.126	-0.599
-576.748	67.105	0.070	0.071
-575.733	-81.394	0.206	-0.068
-574.719	535.297	0.162	-0.384
-573.704	246.605	-0.246	0.415
-572.690	457.478	0.111	0.248
-571.675	-200.000	0.004	0.032
-570.661	4.063	0.259	-0.189
-569.646	388.643	0.005	-0.010
-568.631	287.682	0.217	0.392
-567.617	-58.419	-0.223	-0.097
-566.602	-28.742	-0.234	-0.135
-565.588	-139.796	0.235	0.025
-564.573	-138.447	0.237	0.026
-563.558	555.815	0.120	0.288
-562.544	-68.276	0.340	0.132
-561.529	645.244	0.109	-0.279
-560.515	-122.333	-0.261	0.043
-559.500	-34.072	-0.249	-0.137
-558.485	-200.000	-0.008	0.232
-557.471	800.000	0.016	-0.066
-556.456	-74.567	-0.456	0.164
-555.442	515.371	0.090	-0.211
-554.427	114.359	0.146	0.178
-553.412	40.149	-0.278	0.250
-552.398	152.666	0.081	-0.111
-551.383	794.069	0.069	-0.191
-550.369	35.600	0.247	-0.217
-549.354	145.602	-0.216	-0.289
-548.339	800.000	-0.045	-0.135
-547.325	-200.000	-0.023	0.353
-546.310	68.013	-0.189	-0.193
-545.296	800.000	-0.055	0.227
-544.281	-58.541	-0.153	0.066
-543.266	-200.000	0.008	-0.297
-542.252	-200.000	0.019	-0.136
-541.237	-83.436	0.198	0.063
-540.223	-200.000	0.001	0.308
-539.208	145.721	-0.039	-0.052
-538.193	-49.359	-0.137	-0.066
-537.179	-200.000	-0.018	0.302
-536.164	-139.357	-0.189	-0.020
-535.150	800.000	0.036	0.142
-534.135	-20.169	0.123	0.076
-533.121	57.942	0.081	-0.079
-532.106	67.644	-0.194	-0.199
-531.091	342.525	-0.087	-0.171
-530.077	-9.821	0.183	-0.122
-529.062	-87.358	0.602	-0.182
-528.048	-200.000	0.001	-0.169
-527.033	39.280	0.030	0.026
-526.018	-159.995	-0.093	0.005
-525.004	8.494	-0.136	0.103
-523.989	-200.000	0.003	0.099
-522.975	-21.704	-0.254	0.154
-521.960	-0.701	0.088	0.062
-520.945	523.106	-0.129	-0.302
-519.931	19.597	-0.132	0.106
-518.916	-53.062	-0.107	-0.049
-517.902	132.109	0.230	0.296
-516.887	134.837	0.096	-0.124
-515.872	800.000	0.096	0.278
-514.858	786.625	0.031	0.086
-513.843	-35.437	-0.365	0.198
-512.829	29.646	-0.288	-0.245
-511.814	-67.239	0.233	-0.092
-510.799	388.105	-0.207	-0.428
-509.785	291.177	0.016	-0.028
-508.770	36.889	-0.118	0.104
-507.756	12.263	-0.147	0.113
-506.741	-155.998	-0.204	0.013
-505.726	609.280	-0.077	-0.192
-504.712	-68.049	-0.106	0.041
-503.697	4.279	-0.029	0.022
-502.683	-107.771	0.107	0.023
-501.668	11.612	-0.074	-0.057
-500.653	800.000	-0.072	-0.261
-499.639	-152.125	-0.266	0.019
-498.624	-156.700	-0.145	-0.009
-497.610	-27.161	0.200	-0.116
-496.595	85.060	-0.091	-0.100
-495.581	26.306	-0.119	0.099
-494.566	75.867	-0.248	-0.262
-493.551	39.437	0.143	0.128
-492.537	-15.613	-0.169	0.107
-491.522	280.431	0.304	0.543
-490.508	14.958	-0.175	-0.137
-489.493	-124.978	0.134	-0.021
-488.478	593.599	-0.090	-0.221
-487.464	209.393	0.056	-0.088
-486.449	800.000	-0.087	0.251
-485.435	-200.000	0.007	0.190
-484.420	-200.000	-0.008	0.042
-483.405	736.324	-0.088	0.235
-482.391	-63.697	0.165	-0.068
-481.376	26.885	-0.065	-0.054
-480.362	604.520	-0.044	-0.109
-479.347	88.511	-0.190	0.211
-478.332	414.172	-0.108	0.230
-477.318	35.189	0.242	0.211
-476.303	150.802	-0.093	0.126
-475.289	-34.352	-0.205	0.112
-474.274	68.760	-0.119	0.122
-473.259	-200.000	-0.050	0.348
-472.245	-200.000	0.037	-0.184
-471.230	150.174	-0.118	0.160
-470.216	-200.000	-0.038	0.181
-469.201	278.127	-0.008	-0.014
-468.186	-200.000	-0.021	-0.378
-467.172	4.079	0.038	0.028
-466.157	-200.000	0.017	0.146
-465.143	222.097	-0.025	-0.040
-464.128	-200.000	-0.060	0.277
-463.113	-48.652	-0.279	0.133
-462.099	375.038	0.086	0.176
-461.084	-45.606	0.224	0.110
-460.070	56.133	-0.210	-0.203
-459.055	-111.007	-0.159	-0.033
-458.040	800.000	0.078	0.258
-457.026	-51.259	0.083	0.039
-456.011	-138.518	0.160	0.017
-454.997	-154.914	-0.127	0.008
-453.982	396.239	0.028	-0.059
-452.968	63.827	-0.188	-0.189
-451.953	-29.975	-0.314	-0.178
-450.938	89.235	0.192	0.214
-449.924	128.637	-0.281	-0.357
-448.909	46.358	-0.199	-0.184
-447.895	-32.629	0.204	0.113
-446.880	-86.449	0.233	-0.071
-445.865	169.145	0.063	0.090
-444.851	463.842	-0.086	0.192
-443.836	-193.274	0.355	0.003
-442.822	77.861	0.117	-0.124
-441.807	800.000	0.020	0.077
-440.792	800.000	-0.100	-0.281
-439.778	-200.000	0.019	0.114
-438.763	163.208	-0.103	0.144
-437.749	-109.105	-0.281	-0.060
-436.734	160.287	-0.293	-0.407
-435.719	-113.877	-0.450	-0.087
-434.705	-52.697	-0.174	0.080
-433.690	187.625	0.231	0.344
-432.676	800.000	0.045	0.177
-431.661	-122.565	0.189	0.031
-430.646	33.534	-0.199	-0.172
-429.632	46.665	0.096	0.089
-428.617	342.195	-0.086	0.168
-427.603	-62.439	-0.356	-0.147
-426.588	800.000	-0.010	-0.029
-425.573	638.705	0.018	-0.046
-424.559	100.902	0.188	0.218
-423.544	-83.366	-0.116	0.037
-422.530	-200.000	0.033	0.159
-421.515	259.861	-0.151	0.259
-420.500	-200.000	-0.103	-0.505
-419.486	-104.195	-0.361	0.084
-418.471	108.309	0.172	-0.205
-417.457	139.115	-0.165	0.215
-416.442	-55.490	0.084	0.038
-415.428	-174.096	-0.097	-0.003
-414.413	-138.510	-0.079	-0.009
-413.398	139.222	0.203	0.265
-412.384	-87.626	-0.372	-0.112
-411.369	186.775	0.170	0.251
-410.355	-142.178	0.304	-0.030
-409.340	-7.866	-0.092	0.062
-408.325	-200.000	0.010	0.173
-407.311	-200.000	0.084	-0.408
-406.296	-26.072	-0.072	-0.042
-405.282	-97.751	0.334	-0.086
-404.267	-1.288	-0.084	-0.059
-403.252	800.000	-0.086	-0.235
-402.238	-122.132	-0.162	-0.026
-401.223	-200.000	-0.005	0.233
-400.209	314.156	-0.114	0.213
-399.194	-24.099	0.095	0.057
-398.179	588.680	-0.046	-0.112
-397.165	31.444	-0.223	0.190
-396.150	800.000	-0.136	-0.375
-395.136	-16.697	0.136	-0.086
-394.121	30.810	0.066	0.056
-393.106	-191.322	0.162	-0.002
-392.092	33.102	0.126	0.108
-391.077	-75.975	0.172	-0.060
-390.063	-129.204	-0.338	0.047
-389.048	-155.463	-0.178	-0.011
-388.033	-150.842	0.308	0.023
-387.019	261.924	0.063	0.109
-386.004	270.657	-0.093	-0.163
-384.990	800.000	-0.086	0.270
-383.975	126.269	-0.109	0.137
-382.960	-200.000	0.043	-0.391
-381.946	440.232	0.117	-0.253
-380.931	261.060	-0.200	-0.345
-379.917	-107.964	0.140	-0.030
-378.902	389.247	0.074	0.153
-377.888	-102.039	-0.304	0.073
-376.873	140.746	-0.203	-0.266
-375.858	-183.286	0.129	0.002
-374.844	-61.671	-0.227	0.094
-373.829	70.276	-0.186	0.191
-372.815	-150.156	0.435	0.034
-371.800	118.831	-0.175	-0.215
-370.785	-200.000	0.052	0.319
-369.771	-88.833	-0.202	0.060
-368.756	800.000	0.069	-0.190
-367.742	-13.205	-0.310	-0.200
-366.727	-133.366	0.268	-0.034
-365.712	-136.809	-0.134	0.015
-364.698	-18.302	0.283	0.176
-363.683	-200.000	-0.026	-0.174
-362.669	-200.000	0.002	0.132
-361.654	44.498	0.195	-0.178
-360.639	424.142	-0.079	-0.169
-359.625	45.162	-0.038	-0.034
-358.610	-187.557	0.293	-0.004
-357.596	311.093	0.106	-0.198
-356.581	-157.017	-0.176	0.011
-355.566	369.835	-0.211	0.424
-354.552	295.271	-0.226	0.410
-353.537	-69.617	0.360	-0.137
-352.523	299.847	-0.218	0.399
-351.508	-200.000	-0.018	-0.120
-350.493	-126.678	-0.354	0.052
-349.479	-66.965	-0.128	0.050
-348.464	-32.106	-0.281	-0.156
-347.450	-21.836	0.090	-0.054
-346.435	-200.000	0.024	0.132
-345.420	-7.722	-0.210	0.141
-344.406	-200.000	-0.010	0.130
-343.391	-200.000	-0.028	0.179
-342.377	-65.918	0.391	-0.155
-341.362	-200.000	0.007	-0.181
-340.348	20.856	0.149	-0.120
-339.333	2.540	0.188	0.135
-338.318	-6.006	-0.041	0.028
-337.304	177.735	0.021	0.031
-336.289	-38.778	0.277	0.145
-335.275	-200.000	0.004	-0.118
-334.260	-72.583	0.170	-0.062
-333.245	133.426	0.091	0.116
-332.231	-200.000	0.009	0.277
-331.216	43.447	0.509	0.461
-330.202	20.938	0.240	-0.193
-329.187	-41.483	0.111	-0.057
-328.172	135.878	0.084	0.108
-327.158	-5.298	-0.157	0.107
-326.143	-103.984	0.399	0.092
-325.129	186.128	0.088	0.130
-324.114	-108.734	-0.150	-0.032
-323.099	-76.352	0.145	0.051
-322.085	45.279	-0.073	-0.066
-321.070	-90.738	-0.175	-0.050
-320.056	246.598	0.056	-0.094
-319.041	-108.322	0.223	-0.048
-318.026	228.625	-0.118	-0.191
-317.012	800.000	0.058	-0.160
-315.997	-58.084	-0.150	-0.065
-314.983	-122.326	0.401	0.065
-313.968	-200.000	-0.039	0.169
-312.953	-34.154	-0.323	-0.176
-311.939	201.803	-0.152	0.232
-310.924	102.329	0.077	0.089
-309.910	2.446	-0.096	0.069
-308.895	7.219	-0.042	0.031
-307.880	-166.346	0.359	0.015
-306.866	-200.000	-0.037	0.329
-305.851	152.760	0.067	-0.090
-304.837	-22.488	0.178	-0.107
-303.822	-200.000	0.038	-0.210
-302.807	-50.022	-0.123	-0.058
-301.793	-200.000	-0.027	-0.266
-300.778	754.198	0.113	0.302
-299.764	-108.881	0.114	0.024
-298.749	29.950	0.132	-0.111
-297.735	-200.000	0.014	-0.080
-296.720	20.234	-0.068	0.055
-295.705	5.026	-0.268	-0.195
-294.691	455.915	-0.139	0.306
-293.676	-25.063	0.106	-0.062
-292.662	370.129	-0.057	0.115
-291.647	-100.959	0.142	-0.035
-290.632	301.664	0.144	-0.263
-289.618	45.126	0.162	0.148
-288.603	800.000	-0.077	0.298
-287.589	-123.789	-0.176	-0.027
-286.574	-8.920	0.453	-0.301
-285.559	59.941	0.199	0.195
-284.545	-200.000	-0.001	0.077
-283.530	1.825	0.289	0.206
-282.516	-200.000	-0.011	0.277
-281.501	278.627	0.073	-0.128
-280.486	-4.835	-0.107	0.073
-279.472	17.661	0.159	0.125
-278.457	170.255	0.128	-0.181
-277.443	93.880	0.077	-0.086
-276.428	-41.459	0.107	-0.054
-275.413	-113.871	0.376	0.072
-274.399	276.948	0.112	-0.196
-273.384	541.614	0.049	0.116
-272.370	-200.000	-0.040	-0.294
-271.355	-192.949	-0.115	0.001
-270.340	-15.924	0.064	0.040
-269.326	586.211	-0.075	-0.183
-268.311	11.904	0.073	0.055
-267.297	6.656	-0.252	0.185
-266.282	522.378	0.007	0.017
-265.267	-200.000	-0.025	0.152
-264.253	-97.822	0.157	-0.040
-263.238	-55.169	0.024	0.011
-262.224	493.623	-0.061	0.139
-261.209	130.018	0.098	-0.124
-260.195	800.000	0.027	-0.103
-259.180	800.000	0.104	-0.395
-258.165	-112.448	0.402	-0.079
-257.151	-23.702	-0.311	0.185
-256.136	-200.000	0.007	-0.328
-255.122	-200.000	0.004	-0.130
-254.107	456.023	-0.055	-0.120
-253.092	-79.416	0.297	-0.099
-252.078	329.823	0.048	0.092
-251.063	-200.000	0.024	-0.146
-250.049	-200.000	-0.069	0.000
-249.034	434.075	-0.115	-0.247
-248.019	-200.000	0.023	0.128
-247.005	-200.000	-0.003	0.089
-245.990	402.428	-0.075	-0.155
-244.976	161.184	0.097	-0.134
-243.961	69.132	0.301	-0.306
-242.946	44.647	-0.130	0.118
-241.932	-163.005	0.056	0.003
-240.917	134.000	0.162	-0.207
-239.903	-200.000	0.003	-0.214
-238.888	-150.381	-0.141	-0.011
-237.873	800.000	0.034	0.136
-236.859	-200.000	0.081	-0.400
-235.844	-200.000	-0.018	0.602
-234.830	-200.000	-0.015	-0.211
-233.815	-200.000	0.004	0.266
-232.800	412.531	0.048	-0.101
-231.786	800.000	-0.057	0.180
-230.771	800.000	-0.069	-0.262
-229.757	-53.036	0.127	-0.058
-228.742	144.515	0.165	0.218
-227.727	-200.000	0.070	-0.352
-226.713	8.414	-0.210	0.156
-225.698	81.218	-0.095	0.101
-224.684	64.092	0.198	-0.197
-223.669	527.891	-0.025	-0.058
-222.655	800.000	-0.027	-0.103
-221.640	-200.000	0.071	-0.320
-220.625	-123.551	0.251	-0.039
-219.611	-111.782	0.157	-0.031
-218.596	-200.000	0.015	0.121
-217.582	126.031	0.107	-0.133
-216.567	107.424	0.184	0.216
-215.552	-200.000	0.035	-0.260
-214.538	32.632	0.135	0.115
-213.523	-141.573	-0.423	-0.042
-212.509	572.249	0.043	0.102
-211.494	3.485	0.252	-0.182
-210.479	-24.499	-0.261	-0.154
-209.465	-200.000	0.022	0.196
-208.450	130.244	0.122	0.154
-207.436	800.000	-0.101	0.417
-206.421	160.109	0.195	0.269
-205.406	154.981	-0.110	0.149
-204.392	193.438	0.119	0.177
-203.377	800.000	0.039	0.113
-202.363	-200.000	-0.011	0.214
-201.348	213.387	-0.134	-0.209
-200.333	-179.828	-0.048	0.001
-199.319	-200.000	0.042	-0.479
-198.304	-48.031	-0.231	-0.110
-197.290	-200.000	-0.005	0.080
-196.275	-108.124	0.257	-0.055
-195.260	-76.504	0.045	-0.016
-194.246	-1.717	0.211	0.147
-193.231	170.999	-0.125	-0.177
-192.217	52.010	-0.154	0.145
-191.202	-200.000	0.039	0.185
-190.187	-200.000	-0.040	-0.249
-189.173	800.000	0.063	-0.267
-188.158	81.913	-0.046	-0.049
-187.144	203.859	-0.017	0.025
-186.129	-86.906	0.138	-0.042
-185.114	231.619	0.080	0.129
-184.100	172.979	-0.204	0.290
-183.085	248.000	-0.094	-0.157
-182.071	91.738	0.205	0.227
-181.056	-200.000	0.008	0.169
-180.042	-114.831	0.491	0.092
-179.027	119.856	-0.204	0.249
-178.012	-200.000	-0.008	0.140
-176.998	-200.000	-0.031	-0.156
-175.983	10.658	-0.073	-0.055
-174.969	48.294	0.135	0.124
-173.954	163.985	-0.156	0.217
-172.939	99.706	0.229	-0.261
-171.925	60.476	-0.239	0.233
-170.910	800.000	0.049	0.193
-169.896	210.965	-0.086	-0.134
-168.881	-200.000	0.002	-0.100
-167.866	-0.234	0.112	-0.079
-166.852	325.494	-0.031	-0.058
-165.837	566.708	0.015	0.035
-164.823	-140.406	0.203	-0.021
-163.808	-200.000	0.040	-0.190
-162.793	-32.462	0.108	0.059
-161.779	-136.760	0.571	-0.065
-160.764	800.000	-0.085	-0.252
-159.750	-55.413	-0.217	0.096
-158.735	-36.134	0.404	-0.215
-157.720	800.000	0.059	-0.163
-156.706	29.828	-0.096	0.081
-155.691	-112.874	-0.309	0.060
-154.677	-78.348	-0.091	-0.031
-153.662	122.582	-0.215	0.265
-152.647	-118.374	0.140	0.024
-151.633	-200.000	-0.014	0.178
-150.618	153.798	-0.153	0.207
-149.604	800.000	-0.089	-0.301
-148.589	-120.356	0.203	0.034
-147.574	-49.763	0.173	-0.081
-146.560	-87.250	-0.281	-0.084
-145.545	-17.202	0.275	0.171
-144.531	488.336	0.098	0.221
-143.516	37.527	0.316	0.276
-142.502	124.388	-0.038	-0.047
-141.487	-51.903	-0.300	-0.138
-140.472	86.586	0.058	-0.063
-139.458	-200.000	0.004	0.422
-138.443	-19.273	0.313	-0.191
-137.429	659.396	0.067	-0.170
-136.414	142.508	0.092	-0.120
-135.399	58.697	0.084	-0.081
-134.385	63.626	-0.190	-0.188
-133.370	-57.204	0.355	0.154
-132.356	-175.955	0.250	0.007
-131.341	-200.000	-0.045	0.464
-130.326	-33.722	0.113	0.061
-129.312	-200.000	0.050	-0.257
-128.297	-200.000	-0.156	-0.001
-127.283	742.125	0.091	-0.241
-126.268	800.000	0.052	-0.205
-125.253	135.166	-0.217	0.278
-124.239	140.228	-0.210	0.273
-123.224	88.138	-0.124	-0.135
-122.210	-200.000	0.011	-0.231
-121.195	181.669	0.169	0.244
-120.180	-200.000	-0.001	0.007
-119.166	-71.133	-0.141	0.052
-118.151	-72.003	-0.218	-0.080
-117.137	-41.816	0.413	-0.208
-116.122	115.798	-0.175	0.210
-115.107	69.765	-0.119	0.121
-114.093	-95.870	0.218	0.057
-113.078	130.563	0.104	-0.132
-112.064	-63.456	0.189	-0.077
-111.049	-48.212	-0.055	-0.026
-110.034	-200.000	0.014	0.114
-109.020	-200.000	-0.033	0.176
-108.005	421.418	0.085	0.179
-106.991	-200.000	0.034	0.238
-105.976	180.190	-0.222	0.321
-104.962	-127.521	0.055	0.008
-103.947	-28.021	-0.156	-0.089
-102.932	800.000	-0.036	-0.117
-101.918	-130.274	0.298	-0.040
-100.903	-78.487	0.295	0.099
-99.889	174.112	-0.157	-0.224
-98.874	528.535	0.110	-0.255
-97.859	-200.000	0.005	0.337
-96.845	-92.797	-0.262	-0.072
-95.830	134.280	-0.169	0.215
-94.816	-200.000	0.004	-0.066
-93.801	800.000	0.028	0.083
-92.786	-200.000	0.001	0.243
-91.772	-200.000	-0.038	-0.198
-90.757	-200.000	-0.043	-0.287
-89.743	11.783	0.261	-0.197
-88.728	61.125	0.077	-0.075
-87.713	-80.396	0.237	-0.078
-86.699	-65.806	0.445	-0.175
-85.684	-44.286	0.169	-0.083
-84.670	-52.352	-0.226	0.103
-83.655	77.589	0.240	0.251
-82.640	94.377	-0.042	0.047
-81.626	-37.305	0.242	0.127
-80.611	-200.000	-0.030	-0.235
-79.597	608.556	-0.050	-0.123
-78.582	-71.765	-0.027	0.010
-77.567	468.617	0.165	0.363
-76.553	-45.246	0.016	-0.008
-75.538	-17.533	0.286	0.176
-74.524	-153.723	0.486	-0.033
-73.509	12.245	-0.102	0.077
-72.494	54.447	0.054	-0.051
-71.480	-193.253	-0.032	-0.000
-70.465	-161.223	0.096	-0.005
-69.451	-55.201	-0.348	0.153
-68.436	-200.000	0.042	-0.217
-67.422	120.040	-0.072	-0.088
-66.407	2.333	0.078	0.055
-65.392	44.303	-0.133	0.120
-64.378	135.186	0.181	0.231
-63.363	-196.151	0.306	0.002
-62.349	-157.636	0.522	-0.031
-61.334	244.955	-0.609	-1.005
-60.319	62.196	0.421	0.412
-59.305	800.000	-0.321	-1.232
-58.290	127.115	0.741	0.922
-57.276	603.906	0.613	1.495
-56.261	-200.000	105.008	581.186
-55.246	417.478	1508.874	3161.336
-54.232	139.087	2729.393	3519.962
-53.217	102.159	2232.340	2557.277
-52.203	39.255	1747.359	1533.783
-51.188	31.996	1557.051	1316.006
-50.173	29.793	1530.091	1277.965
-49.159	50.297	1584.947	1468.572
-48.144	50.392	1602.347	1485.302
-47.130	32.379	1558.388	1319.613
-46.115	29.454	1542.971	1286.152
-45.100	29.237	1539.689	1281.859
-44.086	29.161	1538.111	1279.967
-43.071	29.134	1535.727	1277.742
-42.057	29.040	1534.174	1275.751
-41.042	29.067	1532.438	1274.440
-40.027	29.084	1531.141	1273.434
-39.013	29.017	1529.903	1271.886
-37.998	28.965	1528.592	1270.392
-36.984	29.063	1527.137	1269.807
-35.969	28.953	1525.873	1267.945
-34.954	29.044	1524.333	1267.239
-33.940	28.932	1522.912	1265.241
-32.925	29.138	1521.320	1265.286
-31.911	29.079	1520.150	1263.857
-30.896	29.137	1518.680	1262.979
-29.881	29.089	1517.410	1261.546
-28.867	29.084	1515.967	1260.260
-27.852	29.078	1514.766	1259.174
-26.838	29.125	1513.524	1258.409
-25.823	29.161	1512.200	1257.503
-24.809	29.092	1510.826	1255.842
-23.794	29.118	1509.200	1254.617
-22.779	29.170	1507.214	1253.269
-21.765	29.076	1506.773	1252.215
-20.750	29.049	1505.353	1250.800
-19.736	29.121	1504.399	1250.446
-18.721	29.121	1503.129	1249.342
-17.706	29.102	1501.986	1248.217
-16.692	29.085	1500.434	1246.757
-15.677	29.082	1499.527	1245.936
-14.663	29.026	1498.706	1244.830
-13.648	29.092	1498.002	1244.637
-12.633	29.056	1496.642	1243.215
-11.619	28.950	1496.261	1242.135
-10.604	29.041	1494.923	1241.587
-9.590	29.069	1494.333	1241.240
-8.575	29.096	1493.123	1240.367
-7.560	29.031	1492.593	1239.439
-6.546	29.092	1491.262	1238.694
-5.531	29.016	1490.718	1237.684
-4.517	29.075	1489.845	1237.306
-3.502	28.997	1488.755	1235.826
-2.487	29.065	1487.340	1235.060
-1.473	28.979	1486.276	1233.552
-0.458	29.099	1484.474	1232.806
0.556	28.440	1475.856	1224.205
1.571	26.180	1450.577	1188.276
2.586	22.980	1387.733	1116.514
3.600	20.891	1301.760	1034.854
4.615	18.763	1254.916	985.332
5.629	15.795	1196.895	923.428
6.644	8.112	1110.874	817.710
7.659	2.051	1070.491	757.888
8.673	1.000	1065.224	748.895
9.688	0.921	1061.988	746.163
10.702	0.931	1060.243	744.925
11.717	0.898	1058.627	743.561
12.731	3.109	1060.220	755.484
13.746	10.259	1069.719	797.518
14.761	16.048	1077.469	831.875
15.775	17.293	1078.604	838.825
16.790	17.075	1076.503	836.044
17.804	16.123	1075.050	830.154
18.819	15.308	1072.516	824.120
19.834	14.816	1071.198	820.621
20.848	14.556	1070.443	818.693
21.863	14.277	1069.962	816.884
22.877	13.885	1069.113	814.240
23.892	13.766	1068.001	812.738
24.907	13.764	1067.068	811.950
25.921	13.731	1066.303	811.132
26.936	13.705	1065.910	810.633
27.950	13.795	1064.802	810.160
28.965	13.820	1064.417	809.918
29.980	13.766	1063.583	808.949
30.994	13.898	1062.396	808.616
32.009	13.946	1061.291	807.935
33.023	13.929	1060.825	807.426
34.038	13.863	1060.231	806.586
35.053	13.945	1058.983	805.959
36.067	13.909	1058.070	805.019
37.082	13.859	1057.592	804.345
38.096	14.004	1056.268	803.969
39.111	13.902	1055.508	802.826
40.126	13.904	1054.595	802.068
41.140	13.886	1053.434	801.025
42.155	13.874	1052.550	800.225
43.169	13.828	1051.647	799.250
44.184	13.773	1050.901	798.348
45.199	13.700	1050.183	797.378
46.213	13.759	1048.806	796.544
47.228	13.762	1048.116	795.966
48.242	13.850	1046.378	794.995
49.257	13.814	1045.864	794.362
50.271	13.769	1044.989	793.414
51.286	13.773	1043.854	792.502
52.301	13.853	1043.441	792.498
53.315	13.945	1042.225	791.944
54.330	13.827	1041.622	790.853
55.344	13.756	1040.780	789.804
56.359	13.763	1039.727	788.968
57.374	13.798	1038.702	788.291
58.388	13.779	1038.193	787.745
59.403	13.665	1037.550	786.647
60.417	13.777	1036.552	786.347
61.432	13.633	1036.269	785.381
62.447	13.680	1034.996	784.572
63.461	13.761	1034.248	784.318
64.476	13.608	1033.359	782.852
65.490	13.753	1032.173	782.569
66.505	13.687	1031.414	781.611
67.520	13.778	1030.897	781.577
68.534	13.595	1030.123	780.061
69.549	13.691	1029.371	779.874
70.563	13.729	1028.044	778.979
71.578	13.752	1027.718	778.772
72.593	13.733	1026.717	777.856
73.607	13.645	1026.019	776.847
74.622	13.571	1025.212	775.820
75.636	13.573	1024.332	775.095
76.651	13.769	1023.137	775.038
77.666	13.613	1022.779	773.966
78.680	13.506	1022.198	772.960
79.695	13.718	1021.268	773.178
80.709	13.734	1020.824	772.849
81.724	13.690	1019.729	771.744
82.739	13.790	1018.787	771.431
83.753	13.820	1018.350	771.170
84.768	13.849	1017.639	770.695
85.782	13.794	1017.135	769.994
86.797	13.876	1015.806	769.296
87.812	13.800	1015.209	768.424
88.826	13.877	1014.302	768.026
89.841	13.710	1013.918	766.896
90.855	13.836	1012.678	766.474
91.870	13.946	1012.130	766.499
92.884	13.835	1011.528	765.464
93.899	13.984	1010.325	765.171
94.914	13.936	1009.766	764.456
95.928	13.901	1009.445	763.986
96.943	14.023	1008.034	763.412
97.957	13.974	1007.254	762.529
98.972	13.914	1006.762	761.815
99.987	13.995	1005.714	761.322
101.001	14.100	1005.376	761.483
102.016	14.019	1004.575	760.435
103.030	13.935	1003.514	759.184
104.045	13.952	1002.136	758.152
105.060	13.946	1001.398	757.497
106.074	13.949	1000.543	756.796
107.089	13.869	999.703	755.729
108.103	13.724	999.161	754.594
109.118	13.832	997.858	754.036
110.133	13.782	997.239	753.273
111.147	13.847	996.066	752.615
112.162	13.769	995.479	751.753
113.176	13.800	994.150	750.822
114.191	13.899	993.721	750.880
115.206	13.812	993.012	749.883
116.220	13.748	992.257	748.961
117.235	13.828	991.022	748.322
118.249	13.760	990.299	747.403
119.264	13.849	989.340	747.014
120.279	13.781	988.158	745.749
121.293	13.796	987.840	745.511
122.308	13.749	986.937	744.552
123.322	13.667	986.280	743.623
124.337	13.783	984.828	742.982
125.352	13.793	983.844	742.217
126.366	13.811	982.458	741.185
127.381	13.756	982.044	740.563
128.395	13.781	980.482	739.431
129.410	13.868	979.366	738.913
130.424	13.700	979.170	737.953
131.439	13.859	978.081	737.772
132.454	13.875	977.160	737.082
133.468	13.922	976.245	736.537
134.483	13.958	975.559	736.114
135.497	13.815	975.416	735.305
136.512	13.976	974.043	734.917
137.527	13.871	973.468	733.953
138.541	13.801	973.020	733.243
139.556	13.866	971.939	732.650
140.570	13.881	971.191	732.090
141.585	13.857	970.228	731.193
142.600	13.962	969.414	730.976
143.614	14.053	968.586	730.687
144.629	13.870	968.278	729.586
145.643	13.943	967.631	729.355
146.658	14.117	966.345	729.082
147.673	14.068	965.213	727.950
148.687	13.867	964.830	726.716
149.702	13.984	963.901	726.463
150.716	13.901	962.877	725.266
151.731	13.823	962.360	724.472
152.746	14.038	961.248	724.506
153.760	13.920	960.909	723.675
154.775	14.002	959.750	723.095
155.789	13.963	959.066	722.343
156.804	14.075	958.369	722.241
157.819	14.084	957.341	721.445
158.833	13.987	956.734	720.503
159.848	14.143	956.125	720.657
160.862	14.181	955.443	720.241
161.877	14.186	954.536	719.514
162.892	14.093	953.790	718.486
163.906	13.970	953.104	717.377
164.921	13.966	952.205	716.620
165.935	14.094	950.840	716.082
166.950	14.025	950.143	715.193
167.964	14.029	949.349	714.550
168.979	14.062	948.389	713.905
169.994	14.100	947.241	713.143
171.008	14.082	946.772	712.648
172.023	14.112	946.030	712.155
173.037	14.196	945.124	711.769
174.052	14.202	944.143	710.995
175.067	14.221	943.801	710.754
176.081	14.197	942.879	709.896
177.096	14.202	941.519	708.829
178.110	14.223	940.965	708.438
179.125	14.204	940.678	708.082
180.140	14.342	939.625	707.813
181.154	14.348	938.634	707.029
182.169	14.443	938.097	706.962
183.183	14.247	937.854	705.887
184.198	14.306	936.965	705.407
185.213	14.373	936.234	705.074
186.227	14.393	935.945	704.882
187.242	14.343	935.389	704.189
188.256	14.343	934.715	703.619
189.271	14.489	933.758	703.452
190.286	14.425	932.934	702.499
191.300	14.306	932.364	701.509
192.315	14.342	931.499	700.946
193.329	14.249	930.759	699.934
194.344	14.262	930.090	699.424
195.359	14.261	929.832	699.165
196.373	14.448	929.038	699.289
197.388	14.364	928.684	698.609
198.402	14.538	927.917	698.698
199.417	14.500	927.644	698.272
200.432	14.505	927.146	697.857
201.446	14.494	926.905	697.569
202.461	14.475	926.064	696.796
203.475	14.716	925.442	697.271
204.490	14.661	924.908	696.576
205.504	14.550	923.947	695.328
206.519	14.479	923.323	694.502
207.534	14.514	922.796	694.191
208.548	14.653	921.798	693.954
209.563	14.537	921.419	693.127
210.577	14.487	920.705	692.319
211.592	14.585	919.804	691.990
212.607	14.775	918.896	692.031
213.621	14.743	918.827	691.784
214.636	14.787	917.796	691.131
215.650	14.763	917.317	690.610
216.665	14.743	916.810	690.083
217.680	14.750	916.022	689.459
218.694	14.801	915.498	689.215
219.709	14.920	914.918	689.208
220.723	14.997	914.263	688.968
221.738	14.768	914.079	687.828
222.753	14.849	912.815	687.148
223.767	14.873	912.360	686.842
224.782	14.802	911.462	685.814
225.796	14.841	911.134	685.668
226.811	14.964	910.154	685.372
227.826	15.021	909.545	685.087
228.840	14.968	908.697	684.170
229.855	14.983	907.699	683.419
230.869	14.882	907.626	682.892
231.884	14.894	906.865	682.309
232.899	15.049	906.066	682.278
233.913	14.890	905.321	681.012
234.928	14.873	904.802	680.489
235.942	14.885	904.380	680.163
236.957	14.938	903.209	679.435
237.972	14.869	902.597	678.635
238.986	14.926	901.941	678.314
240.001	15.013	901.307	678.127
241.015	15.019	900.537	677.516
242.030	15.046	899.802	677.012
243.045	15.071	899.494	676.820
244.059	15.019	898.927	676.125
245.074	15.084	898.179	675.764
246.088	15.083	897.518	675.203
247.103	15.223	896.682	675.077
248.117	15.209	896.013	674.458
249.132	15.105	895.786	673.810
250.147	15.363	894.885	674.107
251.161	15.346	894.469	673.666
252.176	15.340	893.505	672.857
253.190	15.294	893.195	672.382
254.205	15.416	892.031	671.931
255.220	15.414	891.490	671.458
256.234	15.501	890.880	671.286
257.249	15.392	890.348	670.390
258.263	15.542	889.601	670.367
259.278	15.440	889.287	669.664
260.293	15.377	888.899	669.062
261.307	15.465	888.015	668.690
262.322	15.455	887.461	668.173
263.336	15.491	886.767	667.735
264.351	15.668	886.352	668.066
265.366	15.684	885.353	667.317
266.380	15.718	885.017	667.139
267.395	15.579	884.510	666.146
268.409	15.654	883.275	665.454
269.424	15.639	882.882	665.041
270.439	15.710	881.874	664.503
271.453	15.727	881.183	663.991
272.468	15.532	880.722	662.815
273.482	15.613	880.025	662.550
274.497	15.646	879.451	662.191
275.512	15.673	878.689	661.665
276.526	15.681	877.752	660.933
277.541	15.627	877.317	660.333
278.555	15.736	876.941	660.420
279.570	15.843	876.051	660.113
280.585	15.747	875.801	659.489
281.599	15.858	874.815	659.122
282.614	15.663	874.609	658.145
283.628	15.825	873.593	657.956
284.643	15.946	872.736	657.725
285.657	15.915	872.847	657.627
286.672	15.867	872.467	657.097
287.687	15.896	871.588	656.490
288.701	15.855	871.036	655.855
289.716	15.876	870.206	655.256
290.730	16.039	869.531	655.324
291.745	15.962	869.058	654.611
292.760	15.995	868.398	654.182
293.774	16.086	867.939	654.132
294.789	16.000	867.324	653.278
295.803	16.073	866.529	652.902
296.818	16.083	866.055	652.529
297.833	15.911	865.678	651.519
298.847	16.005	864.875	651.223
299.862	16.098	863.764	650.687
300.876	16.120	863.292	650.358
301.891	16.210	862.642	650.159
302.906	16.042	862.157	649.086
303.920	16.252	861.214	649.127
304.935	16.209	860.434	648.315
305.949	16.203	860.136	648.013
306.964	16.289	859.464	647.778
307.979	16.260	858.814	647.119
308.993	16.271	858.503	646.872
310.008	16.254	857.764	646.191
311.022	16.374	857.528	646.417
312.037	16.461	856.849	646.179
313.052	16.361	856.188	645.241
314.066	16.294	855.567	644.460
315.081	16.135	855.327	643.618
316.095	16.288	854.634	643.620
317.110	16.303	853.756	642.961
318.125	16.389	853.247	642.848
319.139	16.335	852.942	642.355
320.154	16.367	852.546	642.122
321.168	16.334	851.871	641.431
322.183	16.382	851.141	641.008
323.197	16.430	850.545	640.683
324.212	16.325	850.171	639.948
325.227	16.400	849.453	639.633
326.241	16.522	849.196	639.844
327.256	16.625	848.361	639.547
328.270	16.503	847.784	638.598
329.285	16.560	847.255	638.358
330.300	16.556	846.341	637.597
331.314	16.437	846.287	637.051
332.329	16.594	845.522	637.008
333.343	16.459	844.968	636.029
334.358	16.398	844.588	635.457
335.373	16.508	843.873	635.275
336.387	16.634	843.090	635.101
337.402	16.644	842.341	634.521
338.416	16.657	842.338	634.511
339.431	16.638	841.471	633.729
340.446	16.754	841.005	633.756
341.460	16.827	840.239	633.396
342.475	16.708	839.802	632.565
343.489	16.936	838.866	632.655
344.504	16.886	838.365	632.037
345.519	16.897	837.763	631.568
346.533	16.905	837.545	631.376
347.548	16.810	837.291	630.777
348.562	16.735	836.685	629.983
349.577	16.812	835.957	629.665
350.592	16.832	835.455	629.306
351.606	16.788	834.961	628.716
352.621	16.904	834.640	628.848
353.635	16.896	834.232	628.455
354.650	16.758	833.921	627.655
355.665	16.930	833.522	627.934
356.679	16.811	833.050	627.084
357.694	17.003	832.312	627.185
358.708	16.958	831.608	626.430
359.723	16.967	831.104	626.031
360.738	16.841	830.754	625.247
361.752	17.036	830.000	625.341
362.767	17.008	829.804	625.034
363.781	17.012	829.704	624.919
364.796	17.147	829.017	624.843
365.810	17.044	828.379	623.928
366.825	17.146	827.988	623.953
367.840	17.258	827.514	623.953
368.854	17.076	827.017	622.854
369.869	17.210	826.644	623.009
370.883	17.182	826.197	622.515
371.898	17.173	825.840	622.157
372.913	17.163	824.828	621.303
373.927	17.215	824.138	620.918
374.942	17.183	823.552	620.306
375.956	17.237	822.844	619.914
376.971	17.346	822.749	620.187
377.986	17.318	821.867	619.366
379.000	17.555	820.976	619.501
380.015	17.409	821.035	618.957
381.029	17.366	820.507	618.350
382.044	17.475	819.600	618.007
383.059	17.404	819.284	617.458
384.073	17.529	818.711	617.424
385.088	17.434	818.493	616.860
386.102	17.535	817.603	616.500
387.117	17.442	817.038	615.682
388.132	17.443	817.059	615.649
389.146	17.486	816.490	615.321
390.161	17.370	816.201	614.630
391.175	17.521	815.628	614.690
392.190	17.568	815.329	614.580
393.205	17.523	814.820	613.978
394.219	17.585	814.364	613.803
395.234	17.576	813.823	613.311
396.248	17.531	813.428	612.797
397.263	17.448	812.907	612.050
398.278	17.497	812.295	611.710
399.292	17.558	811.941	611.608
400.307	17.708	811.181	611.522
401.321	17.519	811.255	610.845
402.336	17.632	810.690	610.769
403.350	17.651	810.508	610.647
404.365	17.659	809.992	610.232
405.380	17.703	809.171	609.718
406.394	17.762	808.896	609.666
407.409	17.767	808.173	609.086
408.423	17.792	807.694	608.761
409.438	17.894	807.140	608.652
410.453	17.927	807.012	608.621
411.467	17.768	806.675	607.744
412.482	17.816	805.861	607.251
413.496	17.800	805.818	607.108
414.511	18.096	805.010	607.496
415.526	18.003	804.563	606.776
416.540	17.940	804.569	606.503
417.555	18.032	804.117	606.433
418.569	17.945	803.840	605.863
419.584	17.933	803.038	605.163
420.599	18.052	802.529	605.146
421.613	110.975	1292.884	1472.128
422.628	95.669	1364.311	1472.239
