DTS Sentinel unit serial number:	SN413079Multiplexer serial number:	ORYXHardware model number:	OX4-SRSoftware version number:	ORYX F/W v4.00 Oryx Data Collector v3.7.2.0data status	okinstallation	princeton_trtdifferential loss correction	single-endedforward channel	channel 3reverse channel	N/Adate	2019/09/15time	04:16:34forward acquisition time	60.00reverse acquisition time	0.00gamma	496.2192k internal	0.2323k external	0.2323temperature offset calibration	0.9966default loss term (dB/km)	0.3790temperature slope calibration	1.0000multiplexer offset coefficient	1.0000multiplexer slope coefficient	1.0000fibre end	0.00T internal ref (°C)	30.94T ext. ref 1 (°C)	4.63T ext. ref 2 (°C)	25.71length (m)	temperature (°C)	Stokes	anti-Stokes-747.200	-164.190	-0.142	-0.007
-746.185	-145.162	-0.313	-0.029
-745.171	506.524	0.066	-0.154
-744.156	-200.000	0.011	-0.221
-743.142	-153.515	0.241	-0.017
-742.127	337.444	0.144	0.283
-741.112	-107.377	0.267	-0.059
-740.098	-115.294	-0.154	0.029
-739.083	-64.960	0.160	-0.065
-738.069	157.464	0.261	0.365
-737.054	448.466	-0.101	-0.224
-736.039	-12.840	-0.246	-0.162
-735.025	-152.034	0.199	-0.015
-734.010	-57.687	-0.074	0.033
-732.996	-200.000	0.029	-0.131
-731.981	-200.000	0.007	-0.247
-730.966	10.144	-0.149	-0.114
-729.952	800.000	-0.051	0.147
-728.937	-73.087	-0.119	-0.044
-727.923	-76.050	0.053	-0.019
-726.908	-200.000	-0.043	-0.254
-725.894	637.208	-0.059	-0.151
-724.879	368.302	-0.061	-0.124
-723.864	-146.355	0.206	0.018
-722.850	800.000	-0.062	-0.188
-721.835	98.837	-0.152	-0.177
-720.821	479.040	0.025	-0.057
-719.806	-141.954	-0.272	0.027
-718.791	-62.961	-0.126	-0.052
-717.777	-194.907	0.123	-0.001
-716.762	49.590	0.192	-0.183
-715.748	-72.403	-0.026	-0.010
-714.733	-102.976	-0.195	0.047
-713.718	-17.040	0.218	-0.139
-712.704	-200.000	0.009	0.054
-711.689	20.439	-0.250	0.204
-710.675	135.606	0.206	0.271
-709.660	-200.000	-0.008	0.189
-708.645	-175.642	-0.121	0.003
-707.631	-163.491	0.104	0.005
-706.616	-143.519	-0.223	0.021
-705.602	-5.406	-0.208	-0.144
-704.587	-200.000	-0.017	-0.229
-703.572	-200.000	0.010	-0.382
-702.558	-31.848	-0.148	-0.084
-701.543	125.396	0.119	0.151
-700.529	-200.000	0.004	-0.278
-699.514	-83.490	-0.216	-0.070
-698.499	87.081	0.246	-0.274
-697.485	-200.000	0.016	-0.162
-696.470	800.000	-0.045	-0.127
-695.456	-200.000	-0.035	-0.266
-694.441	-42.427	-0.145	0.074
-693.426	186.345	0.196	0.293
-692.412	-101.860	-0.083	0.020
-691.397	621.777	-0.119	0.301
-690.383	-53.086	-0.208	0.096
-689.368	-88.667	0.103	-0.031
-688.354	-63.061	-0.130	-0.054
-687.339	-65.426	0.181	-0.073
-686.324	800.000	-0.099	0.296
-685.310	299.264	-0.136	-0.252
-684.295	-89.211	-0.413	-0.123
-683.281	125.283	0.069	-0.088
-682.266	127.871	-0.100	-0.128
-681.251	-27.485	0.109	0.064
-680.237	-119.201	0.175	-0.031
-679.222	60.429	0.038	0.038
-678.208	51.947	0.189	-0.181
-677.193	-200.000	0.023	0.113
-676.178	-10.049	0.388	-0.260
-675.164	-200.000	-0.047	0.306
-674.149	-93.213	0.155	-0.043
-673.135	40.974	-0.177	-0.161
-672.120	472.016	0.077	0.175
-671.105	5.436	-0.158	-0.117
-670.091	-143.465	-0.513	-0.049
-669.076	-60.577	0.368	0.157
-668.062	-185.709	-0.062	0.001
-667.047	64.500	0.184	-0.186
-666.032	800.000	0.055	-0.157
-665.018	-71.823	-0.168	0.063
-664.003	-16.473	0.157	-0.100
-662.989	-27.647	-0.232	0.135
-661.974	-132.485	0.230	0.030
-660.959	-124.969	0.400	0.062
-659.945	-20.813	0.213	-0.131
-658.930	-200.000	0.026	-0.138
-657.916	-114.789	0.384	-0.074
-656.901	316.431	0.036	-0.069
-655.886	176.619	-0.036	0.053
-654.872	-200.000	0.029	-0.139
-653.857	35.018	0.190	-0.167
-652.843	-200.000	-0.097	-0.580
-651.828	-38.405	-0.186	-0.099
-650.814	-200.000	0.022	0.132
-649.799	106.027	-0.072	-0.086
-648.784	-200.000	0.088	0.426
-647.770	-2.549	0.288	-0.203
-646.755	800.000	-0.057	-0.216
-645.741	76.522	-0.123	0.131
-644.726	49.436	-0.089	-0.085
-643.711	-200.000	0.217	0.000
-642.697	48.060	-0.140	-0.131
-641.682	83.608	-0.116	-0.127
-640.668	-132.753	0.152	0.020
-639.653	-168.176	-0.140	-0.005
-638.638	-76.681	-0.118	-0.041
-637.624	-200.000	0.002	0.075
-636.609	82.181	0.092	-0.100
-635.595	68.161	0.090	-0.093
-634.580	584.249	0.014	-0.035
-633.565	-46.103	-0.293	-0.145
-632.551	800.000	-0.067	-0.205
-631.536	800.000	-0.015	-0.061
-630.522	-28.558	0.341	-0.198
-629.507	-200.000	0.091	0.445
-628.492	247.431	0.115	0.196
-627.478	179.604	0.018	-0.027
-626.463	414.145	0.100	-0.213
-625.449	-50.502	0.173	-0.082
-624.434	20.968	0.065	0.053
-623.419	-159.648	-0.106	-0.006
-622.405	143.873	-0.239	0.320
-621.390	800.000	-0.052	0.157
-620.376	-200.000	-0.037	0.269
-619.361	170.220	-0.087	0.125
-618.346	-33.411	0.038	-0.021
-617.332	8.534	-0.037	-0.028
-616.317	568.931	0.180	0.440
-615.303	-39.779	0.230	-0.121
-614.288	199.660	0.104	-0.161
-613.273	131.659	0.144	0.186
-612.259	89.395	0.119	0.133
-611.244	-62.279	-0.323	0.135
-610.230	-91.704	-0.213	-0.061
-609.215	-113.200	-0.252	-0.050
-608.201	-149.352	0.250	0.020
-607.186	-92.147	0.059	-0.017
-606.171	-155.487	-0.236	-0.015
-605.157	3.621	0.256	0.187
-604.142	800.000	-0.069	0.285
-603.128	234.307	-0.175	0.289
-602.113	-89.185	0.290	-0.086
-601.098	495.100	0.087	0.201
-600.084	64.105	0.178	0.179
-599.069	153.602	-0.042	0.058
-598.055	-181.721	-0.081	0.002
-597.040	64.731	0.080	-0.081
-596.025	800.000	-0.102	-0.289
-595.011	-159.374	-0.195	-0.011
-593.996	-0.175	0.290	-0.207
-592.982	222.796	-0.056	0.091
-591.967	-109.348	-0.109	-0.023
-590.952	64.881	-0.112	0.114
-589.938	333.795	0.033	0.065
-588.923	198.862	0.175	-0.269
-587.909	-123.176	-0.106	-0.017
-586.894	429.267	-0.053	-0.114
-585.879	-85.985	0.195	-0.061
-584.865	375.446	-0.041	0.085
-583.850	-89.839	-0.397	-0.116
-582.836	-62.952	0.076	-0.032
-581.821	-200.000	0.006	0.072
-580.806	800.000	0.146	-0.444
-579.792	38.576	-0.140	-0.125
-578.777	-113.567	0.125	-0.025
-577.763	37.963	0.131	0.117
-576.748	3.236	-0.188	0.137
-575.733	-26.299	0.154	0.091
-574.719	-157.953	-0.374	0.022
-573.704	-39.464	0.163	-0.086
-572.690	11.365	-0.210	-0.161
-571.675	800.000	-0.087	-0.286
-570.661	176.867	-0.081	0.119
-569.646	-38.173	-0.071	0.038
-568.631	0.800	-0.240	-0.172
-567.617	403.371	0.023	-0.048
-566.602	365.121	-0.171	-0.345
-565.588	742.094	-0.058	0.157
-564.573	-40.802	0.255	0.132
-563.558	-92.044	-0.234	-0.067
-562.544	800.000	0.013	0.049
-561.529	-94.136	0.109	0.030
-560.515	241.131	-0.012	0.020
-559.500	800.000	0.038	-0.118
-558.485	51.189	0.156	0.149
-557.471	142.400	-0.273	-0.364
-556.456	-80.198	0.229	-0.077
-555.442	277.347	0.083	0.148
-554.427	-200.000	0.002	0.212
-553.412	76.051	0.042	0.045
-552.398	-111.616	0.117	0.024
-551.383	-23.635	0.410	-0.246
-550.369	81.545	0.184	-0.199
-549.354	-200.000	-0.010	-0.246
-548.339	428.992	-0.128	-0.278
-547.325	117.411	0.183	-0.225
-546.310	96.596	-0.151	-0.173
-545.296	53.264	0.218	0.209
-544.281	308.142	-0.051	0.096
-543.266	199.868	0.138	-0.212
-542.252	-200.000	-0.025	-0.288
-541.237	-22.339	-0.054	0.033
-540.223	800.000	0.055	0.210
-539.208	-84.970	-0.478	-0.150
-538.193	150.961	0.218	-0.297
-537.179	5.799	-0.077	0.057
-536.164	-200.000	-0.000	0.308
-535.150	232.088	0.238	-0.391
-534.135	96.871	0.131	0.150
-533.121	120.762	-0.132	-0.165
-532.106	16.960	0.245	-0.194
-531.091	598.542	-0.010	0.025
-530.077	629.576	-0.166	-0.421
-529.062	-27.677	0.307	-0.178
-528.048	84.132	0.213	-0.233
-527.033	-60.708	0.106	0.045
-526.018	340.387	0.135	-0.263
-525.004	800.000	-0.036	0.102
-523.989	28.288	-0.206	0.174
-522.975	22.677	-0.076	0.062
-521.960	-3.451	-0.345	-0.241
-520.945	65.894	0.150	-0.152
-519.931	37.431	0.045	-0.040
-518.916	-105.515	-0.157	0.036
-517.902	81.220	0.161	-0.174
-516.887	800.000	0.144	-0.458
-515.872	-100.091	-0.336	-0.084
-514.858	167.148	-0.151	-0.214
-513.843	-125.956	-0.008	-0.001
-512.829	-200.000	0.006	0.199
-511.814	800.000	0.123	0.381
-510.799	497.059	0.092	0.212
-509.785	426.007	-0.085	-0.183
-508.770	129.321	-0.165	-0.211
-507.756	-69.052	-0.132	0.051
-506.741	-104.187	-0.245	-0.057
-505.726	69.321	0.190	0.195
-504.712	199.024	0.044	0.067
-503.697	-200.000	0.011	-0.246
-502.683	109.371	0.024	-0.029
-501.668	-200.000	-0.043	-0.232
-500.653	-24.189	-0.283	-0.169
-499.639	63.128	0.114	0.114
-498.624	-200.000	0.005	0.080
-497.610	-175.523	0.416	0.011
-496.595	800.000	0.033	0.141
-495.581	143.757	0.147	-0.196
-494.566	13.857	-0.254	-0.197
-493.551	20.234	0.188	-0.152
-492.537	-200.000	-0.008	0.193
-491.522	61.555	-0.364	0.362
-490.508	800.000	-0.040	0.149
-489.493	-50.813	-0.340	0.160
-488.478	24.132	-0.086	0.071
-487.464	-83.717	0.145	0.046
-486.449	-108.238	-0.104	-0.022
-485.435	-37.336	-0.148	-0.079
-484.420	-200.000	-0.020	-0.261
-483.405	-61.925	0.303	0.127
-482.391	-200.000	-0.018	-0.173
-481.376	-43.627	0.070	0.035
-480.362	42.066	-0.093	-0.084
-479.347	800.000	-0.041	0.139
-478.332	122.581	-0.290	0.362
-477.318	102.647	-0.127	-0.148
-476.303	175.290	-0.129	0.187
-475.289	103.922	-0.145	-0.170
-474.274	-200.000	0.005	0.056
-473.259	-135.021	0.189	0.023
-472.245	-72.050	-0.144	-0.054
-471.230	226.274	0.181	-0.293
-470.216	-63.777	0.333	0.136
-469.201	-174.739	-0.172	-0.005
-468.186	-22.074	0.346	-0.210
-467.172	-166.610	-0.095	-0.004
-466.157	800.000	-0.052	0.159
-465.143	134.157	-0.161	0.208
-464.128	766.936	0.200	0.543
-463.113	284.431	0.131	0.236
-462.099	-200.000	-0.000	-0.374
-461.084	-200.000	-0.004	-0.144
-460.070	-200.000	-0.016	0.096
-459.055	563.920	0.109	-0.263
-458.040	205.922	-0.136	0.211
-457.026	180.905	-0.072	-0.106
-456.011	181.152	-0.061	0.090
-454.997	-200.000	-0.028	-0.217
-453.982	-128.980	0.166	0.023
-452.968	129.312	-0.167	0.213
-451.953	-34.359	0.361	-0.198
-450.938	69.710	-0.224	-0.230
-449.924	800.000	0.016	0.067
-448.909	-119.945	-0.152	0.026
-447.895	109.419	-0.299	0.357
-446.880	176.876	-0.096	-0.139
-445.865	299.785	0.128	-0.236
-444.851	-80.488	0.254	-0.084
-443.836	3.718	0.309	0.225
-442.822	800.000	-0.059	0.190
-441.807	101.647	-0.237	-0.275
-440.792	-200.000	-0.069	0.462
-439.778	-120.460	-0.384	0.065
-438.763	-90.847	-0.093	-0.027
-437.749	-61.235	0.096	-0.041
-436.734	212.353	0.258	0.406
-435.719	-8.718	0.130	0.087
-434.705	-144.522	0.470	0.043
-433.690	48.794	-0.146	-0.137
-432.676	-34.256	-0.165	-0.091
-431.661	-200.000	-0.024	0.160
-430.646	-111.866	0.341	0.069
-429.632	-76.356	-0.353	0.124
-428.617	90.834	0.095	-0.107
-427.603	-106.902	-0.215	0.047
-426.588	-0.349	-0.219	0.155
-425.573	-11.313	0.060	0.039
-424.559	419.219	0.087	-0.185
-423.544	696.511	-0.040	0.106
-422.530	-16.125	0.054	0.034
-421.515	-117.890	-0.350	-0.063
-420.500	-45.230	-0.135	0.067
-419.486	800.000	0.050	0.156
-418.471	-135.697	0.259	0.031
-417.457	253.701	-0.218	0.372
-416.442	-200.000	-0.021	0.165
-415.428	-34.782	-0.281	0.153
-414.413	-1.675	-0.163	-0.114
-413.398	-103.162	-0.092	0.022
-412.384	-200.000	-0.027	-0.234
-411.369	191.076	-0.033	-0.049
-410.355	-157.492	-0.144	0.009
-409.340	12.647	0.014	0.011
-408.325	55.382	-0.197	-0.190
-407.311	174.622	-0.145	0.209
-406.296	-200.000	-0.024	0.406
-405.282	122.769	0.142	0.177
-404.267	-53.340	0.173	0.079
-403.252	800.000	0.061	0.213
-402.238	-195.533	-0.473	0.003
-401.223	294.198	0.185	0.337
-400.209	-200.000	-0.045	0.379
-399.194	-153.964	0.106	0.007
-398.179	-200.000	0.035	-0.354
-397.165	6.571	0.071	-0.053
-396.150	37.698	0.173	0.153
-395.136	-49.742	-0.320	0.152
-394.121	526.099	-0.105	0.245
-393.106	800.000	-0.119	-0.431
-392.092	352.400	-0.211	-0.416
-391.077	137.452	-0.046	0.060
-390.063	26.080	0.178	0.148
-389.048	-200.000	-0.012	0.088
-388.033	-200.000	0.002	0.028
-387.019	-73.309	0.215	0.078
-386.004	-60.134	0.430	-0.183
-384.990	316.631	0.030	-0.057
-383.975	-26.965	-0.190	-0.110
-382.960	190.954	0.124	-0.186
-381.946	739.470	0.119	0.319
-380.931	-200.000	0.014	0.295
-379.917	76.665	0.202	-0.213
-378.902	-3.479	-0.084	-0.058
-377.888	197.526	-0.090	0.136
-376.873	-109.384	0.290	-0.061
-375.858	153.264	0.122	-0.166
-374.844	294.678	-0.146	-0.265
-373.829	216.289	0.044	-0.070
-372.815	-200.000	-0.008	0.302
-371.800	94.660	-0.214	0.243
-370.785	-146.302	-0.138	-0.012
-369.771	-47.094	-0.346	0.168
-368.756	542.157	0.052	-0.124
-367.742	-10.957	-0.271	-0.178
-366.727	342.992	0.038	-0.074
-365.712	800.000	-0.041	0.154
-364.698	50.831	0.136	-0.128
-363.683	-200.000	-0.034	-0.436
-362.669	-196.032	-0.263	-0.002
-361.654	-60.967	-0.283	-0.119
-360.639	-200.000	-0.007	-0.086
-359.625	297.595	0.042	0.077
-358.610	-104.673	0.169	0.039
-357.596	-104.789	-0.389	-0.089
-356.581	-59.504	-0.164	-0.070
-355.566	173.109	-0.226	-0.324
-354.552	-200.000	0.004	-0.119
-353.537	32.730	-0.320	0.275
-352.523	-41.112	0.187	0.096
-351.508	-200.000	-0.013	-0.098
-350.493	-68.436	0.466	-0.180
-349.479	-116.548	0.259	-0.047
-348.464	-106.061	-0.069	-0.015
-347.450	-57.498	-0.228	0.099
-346.435	-200.000	0.010	-0.427
-345.420	217.195	-0.049	-0.077
-344.406	-95.852	0.154	0.041
-343.391	124.291	0.145	-0.181
-342.377	-200.000	-0.016	0.080
-341.362	493.090	-0.028	-0.063
-340.348	-11.128	0.296	-0.194
-339.333	-200.000	-0.042	0.238
-338.318	-200.000	-0.003	-0.263
-337.304	-53.015	0.135	0.062
-336.289	336.606	0.091	-0.176
-335.275	-163.467	-0.375	0.018
-334.260	-123.453	-0.074	-0.012
-333.245	800.000	-0.046	-0.157
-332.231	-45.517	-0.141	-0.069
-331.216	66.282	-0.115	0.116
-330.202	424.383	-0.231	0.494
-329.187	-116.258	0.117	-0.021
-328.172	-52.941	0.355	-0.162
-327.158	47.417	-0.042	0.039
-326.143	195.030	0.056	0.084
-325.129	-1.105	0.245	0.172
-324.114	14.301	-0.073	0.057
-323.099	-91.734	-0.312	-0.088
-322.085	-50.486	0.046	-0.022
-321.070	-200.000	0.012	0.121
-320.056	-63.301	-0.277	-0.113
-319.041	-127.734	-0.213	-0.031
-318.026	800.000	0.117	0.367
-317.012	46.818	0.055	0.050
-315.997	-87.444	0.200	-0.060
-314.983	88.443	0.141	-0.156
-313.968	-152.828	0.327	-0.023
-312.953	64.869	0.295	0.296
-311.939	-200.000	0.069	-0.314
-310.924	130.407	0.439	0.558
-309.910	337.626	0.141	-0.272
-308.895	-84.493	-0.093	0.029
-307.880	-200.000	0.000	0.030
-306.866	-47.869	0.097	-0.047
-305.851	325.548	0.056	-0.106
-304.837	-108.431	0.313	-0.067
-303.822	-131.061	0.101	-0.013
-302.807	-41.784	0.207	0.105
-301.793	-163.854	0.171	-0.008
-300.778	-181.484	0.220	-0.004
-299.764	382.379	-0.030	-0.062
-298.749	197.578	-0.164	-0.249
-297.735	-87.926	-0.086	0.026
-296.720	-153.809	0.317	0.022
-295.705	-200.000	-0.026	0.199
-294.691	130.674	-0.108	0.138
-293.676	294.038	-0.156	-0.282
-292.662	17.853	-0.149	-0.118
-291.647	784.847	-0.066	-0.181
-290.632	7.635	0.124	-0.092
-289.618	-200.000	0.003	0.458
-288.603	-200.000	-0.055	0.261
-287.589	342.495	0.091	-0.177
-286.574	-135.564	0.372	-0.044
-285.559	-105.645	0.492	0.110
-284.545	-6.943	0.155	0.105
-283.530	-109.571	0.180	-0.038
-282.516	-30.331	0.385	0.217
-281.501	46.896	-0.086	-0.079
-280.486	-200.000	0.030	0.314
-279.472	118.485	-0.147	0.180
-278.457	644.628	0.122	0.310
-277.443	7.125	0.316	-0.234
-276.428	23.514	0.299	0.244
-275.413	-80.940	-0.256	-0.084
-274.399	207.921	0.181	-0.280
-273.384	506.545	-0.148	0.340
-272.370	170.725	-0.243	0.344
-271.355	800.000	0.036	-0.121
-270.340	800.000	-0.126	-0.416
-269.326	-200.000	0.043	0.403
-268.311	346.950	0.131	0.255
-267.297	47.622	-0.205	0.189
-266.282	-144.092	-0.444	0.041
-265.267	800.000	0.029	-0.095
-264.253	-68.197	-0.124	0.048
-263.238	475.858	0.027	-0.060
-262.224	-114.371	-0.115	0.022
-261.209	-76.332	-0.265	-0.093
-260.195	800.000	-0.024	0.089
-259.180	800.000	-0.039	0.165
-258.165	-126.070	-0.252	-0.037
-257.151	104.189	0.171	0.199
-256.136	-118.137	-0.246	-0.043
-255.122	-200.000	0.012	-0.084
-254.107	800.000	0.064	-0.192
-253.092	57.953	0.062	0.061
-252.078	96.280	0.129	0.146
-251.063	239.933	-0.085	0.140
-250.049	29.667	-0.260	-0.219
-249.034	-83.508	-0.133	0.042
-248.019	38.434	-0.339	0.299
-247.005	-42.759	0.137	-0.069
-245.990	49.645	-0.043	-0.040
-244.976	-90.747	-0.370	-0.106
-243.961	-117.995	0.309	-0.055
-242.946	800.000	-0.059	-0.166
-241.932	81.690	0.302	0.323
-240.917	-48.177	-0.184	-0.088
-239.903	-51.128	0.319	-0.148
-238.888	-200.000	0.056	-0.371
-237.873	35.098	-0.148	0.129
-236.859	-200.000	0.058	0.337
-235.844	-55.344	0.288	0.128
-234.830	800.000	-0.120	0.420
-233.815	-126.153	0.491	0.073
-232.800	133.303	-0.158	0.202
-231.786	800.000	0.038	-0.113
-230.771	118.930	0.159	-0.194
-229.757	-24.210	0.202	0.120
-228.742	800.000	-0.094	0.286
-227.727	226.427	-0.251	-0.403
-226.713	77.662	0.182	-0.192
-225.698	71.125	0.183	-0.188
-224.684	800.000	0.108	-0.403
-223.669	-31.394	-0.049	-0.027
-222.655	350.026	0.017	0.033
-221.640	800.000	-0.047	-0.133
-220.625	22.388	-0.309	0.250
-219.611	-169.336	0.219	-0.008
-218.596	32.209	0.184	-0.157
-217.582	-200.000	-0.003	0.078
-216.567	-22.829	0.068	-0.040
-215.552	-13.671	0.256	0.164
-214.538	-200.000	0.023	-0.189
-213.523	-200.000	-0.031	0.225
-212.509	785.303	0.041	0.111
-211.494	-49.650	0.046	0.022
-210.479	-75.048	0.055	-0.019
-209.465	55.269	0.066	0.063
-208.450	-200.000	0.081	-0.441
-207.436	-29.037	-0.261	0.148
-206.421	-54.914	0.245	-0.109
-205.406	87.006	0.093	-0.102
-204.392	627.521	0.068	-0.170
-203.377	-74.849	-0.168	-0.060
-202.363	17.079	0.162	-0.127
-201.348	344.022	-0.110	-0.214
-200.333	721.432	-0.028	0.073
-199.319	-200.000	0.002	-0.188
-198.304	-25.411	-0.076	-0.044
-197.290	-2.135	-0.214	0.148
-196.275	266.198	-0.195	0.337
-195.260	46.050	-0.336	-0.307
-194.246	-146.400	-0.325	-0.028
-193.231	122.922	0.083	-0.103
-192.217	692.510	-0.122	0.317
-191.202	-27.397	0.074	-0.043
-190.187	-69.617	0.502	-0.190
-189.173	379.163	-0.072	-0.145
-188.158	25.682	0.100	-0.083
-187.144	733.045	0.101	-0.268
-186.129	-200.000	0.052	0.230
-185.114	-12.622	0.048	-0.031
-184.100	800.000	-0.083	0.236
-183.085	-200.000	-0.004	-0.165
-182.071	-25.712	-0.149	0.087
-181.056	381.038	-0.034	-0.070
-180.042	18.508	0.134	-0.106
-179.027	-120.212	-0.235	0.040
-178.012	-86.878	-0.183	0.055
-176.998	-87.942	0.128	0.038
-175.983	-5.826	0.396	0.268
-174.969	-97.764	-0.281	0.072
-173.954	100.610	-0.149	0.171
-172.939	641.012	0.071	0.179
-171.925	157.287	-0.178	0.243
-170.910	-200.000	0.023	-0.102
-169.896	-84.014	-0.215	0.068
-168.881	-141.912	0.107	0.011
-167.866	-115.727	-0.209	0.039
-166.852	79.604	0.050	-0.053
-165.837	171.736	0.070	-0.099
-164.823	-6.772	0.128	0.086
-163.808	800.000	-0.025	0.103
-162.793	-200.000	0.054	0.342
-161.779	-144.780	-0.155	0.014
-160.764	-200.000	-0.015	-0.243
-159.750	-68.053	-0.248	0.095
-158.735	800.000	0.046	-0.171
-157.720	-200.000	-0.003	-0.316
-156.706	34.795	-0.152	0.131
-155.691	153.378	0.058	0.078
-154.677	-200.000	-0.020	0.120
-153.662	-147.244	-0.098	0.008
-152.647	19.441	0.024	0.019
-151.633	62.605	0.117	-0.115
-150.618	-25.086	0.099	0.058
-149.604	800.000	-0.030	0.104
-148.589	-17.053	0.194	0.121
-147.574	679.453	-0.164	-0.422
-146.560	800.000	-0.083	-0.243
-145.545	186.681	-0.070	-0.103
-144.531	-60.165	0.223	0.094
-143.516	57.623	0.131	0.127
-142.502	-200.000	-0.009	-0.358
-141.487	51.912	-0.088	0.082
-140.472	48.848	-0.077	-0.071
-139.458	-128.571	0.246	-0.034
-138.443	800.000	0.097	-0.265
-137.429	-200.000	-0.043	-0.219
-136.414	-200.000	0.038	-0.241
-135.399	44.203	-0.030	-0.027
-134.385	-48.601	-0.184	0.087
-133.370	348.449	-0.090	0.175
-132.356	-102.639	-0.048	0.011
-131.341	-3.369	-0.115	-0.079
-130.326	-57.080	-0.164	-0.071
-129.312	-78.101	0.375	-0.127
-128.297	-155.808	-0.200	-0.013
-127.283	-162.231	-0.372	0.018
-126.268	800.000	-0.073	-0.240
-125.253	-160.922	0.290	0.015
-124.239	123.835	-0.123	0.152
-123.224	800.000	0.065	0.268
-122.210	-200.000	0.003	-0.382
-121.195	-117.277	0.119	0.021
-120.180	144.230	0.137	-0.181
-119.166	-18.540	-0.096	-0.059
-118.151	-200.000	-0.007	-0.129
-117.137	-81.763	-0.081	0.026
-116.122	-126.517	-0.167	-0.024
-115.107	141.755	-0.098	0.127
-114.093	-67.773	0.346	0.133
-113.078	54.575	0.094	-0.089
-112.064	-130.240	0.215	0.029
-111.049	800.000	0.123	0.345
-110.034	288.285	0.136	0.243
-109.020	-103.530	-0.255	0.059
-108.005	-100.644	0.154	0.037
-106.991	800.000	0.069	-0.225
-105.976	111.089	-0.197	-0.234
-104.962	-23.769	-0.234	0.138
-103.947	-132.707	0.116	0.015
-102.932	-200.000	0.057	0.336
-101.918	684.792	0.109	0.281
-100.903	95.058	-0.218	-0.244
-99.889	-103.370	-0.121	-0.028
-98.874	636.222	-0.116	0.291
-97.859	371.069	-0.056	0.112
-96.845	800.000	0.131	-0.408
-95.830	800.000	0.054	-0.175
-94.816	-132.346	0.096	-0.012
-93.801	100.412	-0.088	0.101
-92.786	-200.000	-0.029	0.230
-91.772	-104.799	-0.238	-0.054
-90.757	-11.551	-0.113	0.073
-89.743	82.436	-0.062	-0.066
-88.728	43.855	-0.175	-0.158
-87.713	-171.120	-0.126	0.004
-86.699	-24.852	-0.208	0.122
-85.684	208.596	0.130	-0.201
-84.670	-200.000	0.018	-0.345
-83.655	77.124	0.148	0.155
-82.640	27.447	-0.289	-0.239
-81.626	57.771	0.120	0.116
-80.611	98.281	0.149	0.169
-79.597	177.088	-0.068	0.097
-78.582	-200.000	-0.024	0.165
-77.567	143.626	-0.097	-0.127
-76.553	70.933	-0.387	-0.395
-75.538	746.288	-0.117	-0.311
-74.524	335.992	-0.034	-0.065
-73.509	-84.869	0.066	-0.020
-72.494	-145.307	0.450	0.040
-71.480	-67.608	0.163	0.063
-70.465	-8.765	-0.218	-0.144
-69.451	401.546	-0.086	0.177
-68.436	-133.911	-0.065	-0.008
-67.422	180.502	0.124	-0.179
-66.407	72.802	-0.116	-0.119
-65.392	-200.000	0.021	0.130
-64.378	81.417	-0.113	-0.120
-63.363	-138.596	-0.074	-0.008
-62.349	-200.000	-0.007	-0.124
-61.334	132.532	-0.890	-1.129
-60.319	203.657	0.422	0.642
-59.305	-200.000	-0.124	-1.108
-58.290	366.786	0.578	1.147
-57.276	377.629	0.779	1.566
-56.261	-200.000	101.959	592.740
-55.246	565.523	1419.418	3383.024
-54.232	190.297	2604.248	3844.273
-53.217	116.205	2164.249	2605.761
-52.203	41.682	1697.271	1511.279
-51.188	34.131	1507.213	1291.013
-50.173	31.777	1479.718	1251.711
-49.159	51.308	1532.345	1429.575
-48.144	52.746	1550.248	1456.016
-47.130	34.250	1508.272	1292.520
-46.115	31.196	1493.065	1258.880
-45.100	31.014	1489.358	1254.479
-44.086	31.068	1487.090	1252.888
-43.071	31.029	1485.590	1251.311
-42.057	30.890	1484.069	1249.045
-41.042	30.990	1482.335	1248.208
-40.027	30.970	1481.300	1247.156
-39.013	30.954	1479.738	1245.678
-37.998	30.787	1479.000	1243.898
-36.984	30.881	1477.555	1243.260
-35.969	30.970	1475.705	1242.244
-34.954	30.943	1474.515	1241.016
-33.940	30.863	1473.324	1239.432
-32.925	30.887	1472.054	1238.470
-31.911	31.022	1470.187	1237.750
-30.896	30.956	1469.624	1236.791
-29.881	30.996	1468.214	1235.815
-28.867	31.062	1466.181	1234.495
-27.852	30.926	1465.623	1233.076
-26.838	30.948	1463.611	1231.477
-25.823	31.002	1462.073	1230.490
-24.809	31.003	1460.448	1229.081
-23.794	30.969	1459.415	1227.944
-22.779	31.046	1457.937	1227.158
-21.765	31.023	1456.897	1226.079
-20.750	31.043	1455.907	1225.332
-19.736	30.945	1455.043	1223.908
-18.721	30.921	1453.958	1222.789
-17.706	30.974	1452.476	1221.843
-16.692	30.925	1451.289	1220.476
-15.677	30.972	1450.161	1219.790
-14.663	30.953	1449.299	1218.890
-13.648	31.016	1448.435	1218.526
-12.633	30.909	1447.627	1217.097
-11.619	30.948	1447.170	1216.918
-10.604	30.815	1446.237	1215.220
-9.590	30.896	1445.042	1214.694
-8.575	30.935	1444.200	1214.191
-7.560	30.900	1443.693	1213.493
-6.546	30.884	1442.705	1212.508
-5.531	30.827	1442.260	1211.718
-4.517	30.835	1440.678	1210.393
-3.502	30.903	1439.810	1210.053
-2.487	30.966	1438.537	1209.344
-1.473	30.814	1438.044	1207.894
-0.458	30.858	1436.533	1206.868
0.556	29.448	1427.264	1195.821
1.571	26.623	1401.884	1156.442
2.586	23.351	1343.199	1087.877
3.600	21.598	1262.823	1012.558
4.615	20.385	1217.451	969.328
5.629	17.595	1162.365	910.494
6.644	10.661	1080.752	811.921
7.659	5.298	1042.449	757.143
8.673	4.785	1037.020	750.659
9.688	4.687	1034.386	748.216
10.702	4.593	1032.797	746.549
11.717	4.466	1030.583	744.278
12.731	6.537	1032.099	755.236
13.746	13.191	1041.256	793.933
14.761	18.056	1047.314	821.939
15.775	18.280	1046.350	822.183
16.790	17.217	1044.494	815.557
17.804	16.251	1042.221	809.079
18.819	15.365	1040.236	803.227
19.834	14.873	1038.916	799.782
20.848	14.613	1038.249	797.956
21.863	14.353	1037.281	795.900
22.877	14.253	1036.376	794.657
23.892	14.033	1035.654	792.982
24.907	13.952	1034.834	791.900
25.921	13.913	1034.452	791.349
26.936	13.934	1033.378	790.562
27.950	13.913	1032.417	789.653
28.965	13.940	1031.459	788.981
29.980	14.146	1030.311	789.008
30.994	14.211	1029.004	788.249
32.009	14.150	1028.626	787.599
33.023	14.210	1028.167	787.460
34.038	14.344	1026.704	786.904
35.053	14.251	1025.710	785.636
36.067	14.193	1024.906	784.674
37.082	14.066	1023.890	783.231
38.096	14.094	1023.179	782.746
39.111	14.259	1022.286	782.772
40.126	14.303	1021.554	782.349
41.140	14.103	1020.639	780.639
42.155	13.993	1019.561	779.233
43.169	13.780	1019.081	777.794
44.184	13.868	1017.444	776.888
45.199	13.751	1016.658	775.673
46.213	13.760	1015.525	774.785
47.228	13.857	1014.107	774.084
48.242	14.082	1012.935	774.168
49.257	14.002	1012.974	773.760
50.271	14.097	1011.765	773.209
51.286	14.043	1010.846	772.185
52.301	14.141	1009.765	771.749
53.315	14.138	1009.374	771.365
54.330	14.006	1008.506	770.022
55.344	14.031	1007.500	769.305
56.359	13.890	1006.441	767.773
57.374	13.844	1005.742	766.960
58.388	13.980	1004.584	766.635
59.403	13.929	1003.700	765.659
60.417	13.793	1003.436	764.762
61.432	13.820	1002.366	764.006
62.447	13.915	1001.849	763.980
63.461	13.686	1001.132	762.311
64.476	13.634	1000.114	761.229
65.490	13.790	998.786	760.869
66.505	13.730	998.224	760.097
67.520	13.709	997.802	759.616
68.534	13.904	996.897	759.749
69.549	13.845	995.953	758.692
70.563	13.796	995.824	758.305
71.578	13.811	994.813	757.535
72.593	13.729	993.695	756.243
73.607	13.706	992.756	755.359
74.622	13.515	992.589	754.294
75.636	13.661	991.239	753.863
76.651	13.704	990.081	753.112
77.666	13.525	989.971	752.150
78.680	13.714	989.140	752.311
79.695	13.749	988.584	751.980
80.709	13.805	987.987	751.713
81.724	13.773	987.005	750.751
82.739	13.810	986.575	750.526
83.753	13.782	986.002	749.896
84.768	13.896	985.041	749.615
85.782	14.161	984.201	750.103
86.797	14.273	983.347	749.891
87.812	14.204	982.894	749.171
88.826	14.072	982.024	747.846
89.841	13.999	981.017	746.685
90.855	14.054	980.151	746.208
91.870	14.089	979.552	745.843
92.884	14.150	978.877	745.534
93.899	14.154	978.078	744.881
94.914	14.116	977.152	743.937
95.928	14.161	976.692	743.724
96.943	14.305	975.841	743.652
97.957	14.155	975.407	742.587
98.972	14.207	974.261	741.882
99.987	14.178	973.507	741.113
101.001	14.141	972.834	740.368
102.016	14.153	972.114	739.806
103.030	14.273	971.071	739.483
104.045	14.099	969.959	737.799
105.060	14.238	969.038	737.649
106.074	14.105	967.920	736.141
107.089	13.934	967.354	734.890
108.103	13.815	966.653	733.768
109.118	13.931	964.980	732.945
110.133	13.802	964.695	732.094
111.147	13.736	963.933	731.159
112.162	13.938	962.674	731.031
113.176	14.044	961.763	730.737
114.191	13.884	961.047	729.426
115.206	13.921	960.587	729.176
116.220	13.910	959.873	728.523
117.235	13.902	958.680	727.515
118.249	13.905	958.038	726.979
119.264	13.915	957.142	726.278
120.279	13.882	956.061	725.250
121.293	13.925	955.700	725.100
122.308	13.799	954.909	723.884
123.322	13.766	954.163	723.111
124.337	13.842	952.740	722.300
125.352	13.687	951.884	720.914
126.366	13.715	950.711	720.084
127.381	13.870	949.454	719.740
128.395	13.764	948.947	718.830
129.410	13.715	947.842	717.721
130.424	13.835	947.142	717.644
131.439	13.865	946.303	717.074
132.454	13.886	945.560	716.539
133.468	13.877	945.075	716.070
134.483	13.925	944.542	715.811
135.497	13.966	943.711	715.292
136.512	13.754	943.411	714.091
137.527	14.002	942.221	714.190
138.541	14.023	941.196	713.440
139.556	13.923	940.696	712.569
140.570	14.017	939.673	712.136
141.585	13.954	939.373	711.573
142.600	14.043	938.321	711.097
143.614	14.191	937.564	711.089
144.629	14.019	937.264	710.066
145.643	14.206	936.113	709.929
146.658	14.191	934.895	708.878
147.673	14.057	934.590	708.014
148.687	14.187	933.346	707.561
149.702	14.123	931.917	706.145
150.716	14.081	931.391	705.503
151.731	13.970	930.800	704.522
152.746	14.121	929.933	704.444
153.760	14.125	929.288	703.912
154.775	13.977	928.385	702.538
155.789	14.162	927.815	702.827
156.804	14.247	926.872	702.412
157.819	14.143	926.470	701.603
158.833	14.080	925.923	700.861
159.848	14.158	925.033	700.456
160.862	14.299	924.837	700.837
161.877	14.370	923.494	700.056
162.892	14.100	923.099	698.560
163.906	14.051	922.098	697.538
164.921	14.025	920.880	696.446
165.935	13.970	920.034	695.512
166.950	14.023	919.250	695.079
167.964	14.157	917.890	694.549
168.979	14.076	917.374	693.759
169.994	14.208	915.726	693.003
171.008	14.106	915.402	692.270
172.023	14.216	914.561	692.030
173.037	14.314	913.996	691.949
174.052	14.350	913.155	691.403
175.067	14.421	912.244	690.947
176.081	14.283	911.981	690.113
177.096	14.219	910.684	688.805
178.110	14.080	910.206	687.810
179.125	14.190	909.405	687.598
180.140	14.345	908.796	687.713
181.154	14.206	907.926	686.422
182.169	14.270	907.340	686.182
183.183	14.412	906.620	686.162
184.198	14.477	906.277	686.108
185.213	14.446	905.630	685.431
186.227	14.448	905.242	685.083
187.242	14.441	904.758	684.629
188.256	14.467	903.987	684.091
189.271	14.495	903.468	683.754
190.286	14.611	902.142	683.164
191.300	14.393	901.542	681.756
192.315	14.234	900.839	680.515
193.329	14.167	900.307	679.780
194.344	14.133	899.269	678.798
195.359	14.226	899.029	678.933
196.373	14.395	898.760	679.362
197.388	14.419	898.462	679.173
198.402	14.625	897.522	679.241
199.417	14.667	897.112	679.041
200.432	14.661	896.812	678.730
201.446	14.752	896.429	678.750
202.461	14.784	896.138	678.600
203.475	14.787	895.459	678.036
204.490	14.761	895.052	677.564
205.504	14.798	893.824	676.727
206.519	14.802	893.008	676.062
207.534	14.670	892.417	675.024
208.548	14.569	891.778	674.072
209.563	14.706	890.918	673.914
210.577	14.732	890.326	673.511
211.592	14.759	889.771	673.141
212.607	14.845	889.296	673.070
213.621	14.925	888.836	672.981
214.636	14.734	888.311	671.757
215.650	14.887	887.030	671.345
216.665	14.998	886.549	671.365
217.680	15.003	886.313	671.147
218.694	14.947	885.629	670.344
219.709	14.945	885.469	670.159
220.723	14.951	884.825	669.633
221.738	14.893	884.240	668.899
222.753	14.911	883.249	668.164
223.767	14.958	882.650	667.839
224.782	15.035	881.457	667.185
225.796	15.115	880.874	667.002
226.811	15.168	880.366	666.769
227.826	15.064	879.436	665.592
228.840	15.113	879.048	665.436
229.855	14.935	878.559	664.300
230.869	14.943	877.687	663.614
231.884	14.946	877.108	663.128
232.899	15.183	875.880	663.079
233.913	14.939	875.483	661.755
234.928	14.817	875.155	660.968
235.942	14.848	874.355	660.427
236.957	14.968	873.743	660.380
237.972	14.909	873.003	659.527
238.986	14.977	872.718	659.524
240.001	14.910	871.910	658.590
241.015	14.968	871.434	658.400
242.030	15.032	870.348	657.774
243.045	15.047	870.106	657.592
244.059	15.034	869.397	656.946
245.074	15.172	868.762	656.950
246.088	15.128	868.182	656.280
247.103	15.216	867.748	656.238
248.117	15.258	867.085	655.845
249.132	15.303	866.200	655.293
250.147	15.432	865.563	655.258
251.161	15.507	865.081	655.127
252.176	15.502	864.517	654.620
253.190	15.504	863.944	654.136
254.205	15.474	863.584	653.691
255.220	15.729	862.770	654.009
256.234	15.654	862.057	653.116
257.249	15.547	861.533	652.248
258.263	15.690	860.974	652.322
259.278	15.490	860.433	651.077
260.293	15.609	860.204	651.309
261.307	15.783	859.335	651.266
262.322	15.762	859.223	651.044
263.336	15.760	858.229	650.226
264.351	15.794	857.795	649.970
265.366	15.709	857.507	649.366
266.380	15.904	856.656	649.416
267.395	15.764	856.088	648.390
268.409	15.829	855.111	647.839
269.424	15.757	854.595	647.117
270.439	15.919	853.377	646.758
271.453	15.760	852.861	645.699
272.468	15.670	852.348	644.908
273.482	15.705	851.683	644.484
274.497	15.740	851.040	644.072
275.512	15.753	850.589	643.725
276.526	15.806	849.693	643.194
277.541	15.683	849.208	642.299
278.555	15.787	848.648	642.217
279.570	15.880	848.029	642.043
280.585	15.949	847.724	642.021
281.599	16.035	846.901	641.668
282.614	15.955	846.203	640.777
283.628	15.862	845.949	640.174
284.643	15.915	845.457	639.946
285.657	15.861	845.071	639.392
286.672	16.019	844.151	639.240
287.687	15.890	843.857	638.471
288.701	15.986	843.334	638.384
289.716	16.012	842.579	637.855
290.730	16.014	842.228	637.538
291.745	16.109	841.196	637.061
292.760	15.863	840.765	635.748
293.774	15.951	840.580	635.883
294.789	16.005	839.812	635.451
295.803	16.197	839.100	635.580
296.818	16.165	838.502	634.952
297.833	15.960	838.192	633.887
298.847	16.147	837.011	633.640
299.862	16.128	836.775	633.334
300.876	16.094	835.912	632.497
301.891	16.060	835.533	632.028
302.906	16.291	834.813	632.293
303.920	16.319	833.897	631.648
304.935	16.341	833.133	631.096
305.949	16.427	832.783	631.097
306.964	16.478	832.351	630.903
307.979	16.421	831.530	630.013
308.993	16.177	831.482	629.011
310.008	16.289	830.929	628.953
311.022	16.342	830.683	628.908
312.037	16.372	830.099	628.521
313.052	16.430	828.976	627.833
314.066	16.188	828.643	626.624
315.081	16.130	828.294	626.090
316.095	16.184	827.440	625.590
317.110	16.277	826.863	625.443
318.125	16.178	826.427	624.694
319.139	16.343	825.662	624.668
320.154	16.339	825.280	624.309
321.168	16.412	824.791	624.156
322.183	16.350	824.113	623.358
323.197	16.352	823.800	623.071
324.212	16.437	823.435	623.056
325.227	16.407	822.976	622.540
326.241	16.510	822.426	622.450
327.256	16.383	821.758	621.421
328.270	16.396	821.199	620.991
329.285	16.400	820.795	620.646
330.300	16.544	819.874	620.424
331.314	16.487	819.257	619.692
332.329	16.357	819.046	619.003
333.343	16.448	818.277	618.697
334.358	16.602	817.519	618.634
335.373	16.569	817.240	618.249
336.387	16.543	816.955	617.883
337.402	16.507	816.687	617.495
338.416	16.555	815.944	617.053
339.431	16.673	815.551	617.129
340.446	16.884	814.361	616.942
341.460	16.818	813.962	616.348
342.475	16.752	813.727	615.874
343.489	16.973	812.879	615.981
344.504	16.927	812.193	615.238
345.519	16.818	811.925	614.587
346.533	16.932	811.378	614.532
347.548	17.101	811.066	614.854
348.562	17.073	810.161	614.012
349.577	16.785	809.891	612.709
350.592	16.784	809.421	612.297
351.606	16.734	808.919	611.682
352.621	16.874	808.345	611.702
353.635	16.912	807.833	611.395
354.650	16.915	807.552	611.137
355.665	16.780	807.181	610.318
356.679	16.855	806.930	610.344
357.694	16.868	806.430	609.957
358.708	16.775	806.010	609.253
359.723	16.910	805.300	609.148
360.738	16.984	804.701	608.907
361.752	16.889	804.134	608.084
362.767	17.003	803.718	608.123
363.781	17.037	803.350	607.914
364.796	17.120	802.894	607.812
365.810	17.346	802.514	608.278
366.825	17.313	802.055	607.758
367.840	17.317	801.714	607.459
368.854	17.269	801.605	607.152
369.869	17.269	801.097	606.711
370.883	17.145	800.579	605.827
371.898	17.178	799.850	605.339
372.913	17.305	799.092	605.162
373.927	17.292	798.789	604.834
374.942	17.251	798.113	604.122
375.956	17.258	797.497	603.626
376.971	17.271	797.461	603.592
377.986	17.459	796.426	603.422
379.000	17.554	795.770	603.209
380.015	17.441	795.492	602.544
381.029	17.510	795.134	602.465
382.044	17.427	794.551	601.675
383.059	17.556	793.531	601.306
384.073	17.312	793.777	600.575
385.088	17.449	792.881	600.328
386.102	17.459	792.040	599.675
387.117	17.394	791.666	599.108
388.132	17.448	791.235	598.919
389.146	17.403	790.721	598.320
390.161	17.436	790.375	598.121
391.175	17.561	789.994	598.218
392.190	17.445	789.826	597.633
393.205	17.596	789.034	597.507
394.219	17.518	788.581	596.838
395.234	17.516	787.957	596.309
396.248	17.479	787.535	595.807
397.263	17.419	787.043	595.172
398.278	17.257	786.760	594.337
399.292	17.300	786.580	594.301
400.307	17.286	785.934	593.709
401.321	17.433	785.510	593.851
402.336	17.457	785.195	593.645
403.350	17.483	784.599	593.231
404.365	17.491	784.104	592.833
405.380	17.617	783.733	592.937
406.394	17.716	783.310	592.909
407.409	17.760	782.994	592.770
408.423	17.786	782.803	592.665
409.438	17.759	782.245	592.093
410.453	17.765	781.855	591.769
411.467	17.786	781.710	591.678
412.482	18.010	781.103	591.942
413.496	17.928	780.785	591.366
414.511	17.904	780.348	590.899
415.526	18.006	779.468	590.534
416.540	17.891	779.417	590.045
417.555	17.849	779.300	589.760
418.569	18.078	778.425	589.836
419.584	17.985	777.977	589.124
420.599	18.020	777.681	588.966
421.613	156.748	1369.282	1797.157
422.628	135.206	1455.473	1797.272
