DTS Sentinel unit serial number:	SN413079Multiplexer serial number:	ORYXHardware model number:	OX4-SRSoftware version number:	ORYX F/W v4.00 Oryx Data Collector v3.7.2.0data status	okinstallation	princeton_trtdifferential loss correction	single-endedforward channel	channel 3reverse channel	N/Adate	2019/09/11time	18:10:11forward acquisition time	60.00reverse acquisition time	0.00gamma	496.2192k internal	0.2286k external	0.2286temperature offset calibration	0.9998default loss term (dB/km)	0.3790temperature slope calibration	1.0000multiplexer offset coefficient	1.0000multiplexer slope coefficient	1.0000fibre end	0.00T internal ref (°C)	44.00T ext. ref 1 (°C)	1.17T ext. ref 2 (°C)	38.73length (m)	temperature (°C)	Stokes	anti-Stokes-747.200	7.030	-0.174	-0.133
-746.185	-200.000	-0.020	0.194
-745.171	590.320	0.104	0.264
-744.156	43.030	0.303	0.284
-743.142	260.531	-0.168	-0.298
-742.127	-200.000	0.033	0.343
-741.112	-27.976	-0.289	0.171
-740.098	-200.000	-0.042	0.307
-739.083	-200.000	-0.053	0.605
-738.069	-93.802	0.280	0.079
-737.054	58.535	-0.161	0.162
-736.039	100.361	-0.063	-0.075
-735.025	29.264	-0.102	0.089
-734.010	-34.803	-0.157	0.088
-732.996	-73.601	-0.081	0.030
-731.981	-56.208	-0.133	-0.061
-730.966	-200.000	0.018	-0.553
-729.952	96.478	0.246	-0.288
-728.937	-146.439	-0.187	-0.017
-727.923	-181.254	-0.093	-0.002
-726.908	-145.962	0.186	-0.017
-725.894	-200.000	-0.003	0.076
-724.879	709.901	0.075	0.203
-723.864	73.857	0.239	0.257
-722.850	-74.588	-0.239	0.088
-721.835	-79.440	-0.081	0.028
-720.821	206.972	0.138	-0.220
-719.806	-200.000	-0.025	0.286
-718.791	384.222	-0.091	-0.193
-717.777	-54.460	0.122	0.057
-716.762	-90.395	-0.314	-0.093
-715.748	217.860	-0.048	-0.078
-714.733	-70.640	-0.235	0.091
-713.718	-87.420	0.291	-0.090
-712.704	1.162	-0.247	0.181
-711.689	-200.000	-0.013	-0.221
-710.675	259.485	-0.046	0.081
-709.660	-139.086	0.146	-0.016
-708.645	-69.539	-0.113	-0.044
-707.631	75.502	-0.046	0.050
-706.616	800.000	-0.071	0.300
-705.602	160.148	-0.123	0.176
-704.587	256.859	0.129	-0.226
-703.572	-132.399	0.164	-0.022
-702.558	35.155	0.160	-0.144
-701.543	-200.000	-0.008	0.138
-700.529	-47.954	-0.041	0.020
-699.514	170.473	-0.064	0.094
-698.499	-126.670	0.113	-0.017
-697.485	800.000	0.113	-0.378
-696.470	-68.524	0.375	0.149
-695.456	-200.000	-0.369	-0.001
-694.441	-19.105	0.196	-0.124
-693.426	504.933	0.165	0.391
-692.412	-100.545	0.238	-0.060
-691.397	-89.481	-0.235	-0.071
-690.383	66.282	-0.131	-0.136
-689.368	-20.963	-0.113	-0.071
-688.354	-200.000	-0.041	-0.287
-687.339	289.774	-0.148	-0.275
-686.324	39.357	0.211	-0.193
-685.310	-75.596	0.226	0.082
-684.295	50.139	-0.251	-0.243
-683.281	496.673	-0.131	-0.309
-682.266	304.188	-0.075	-0.143
-681.251	134.346	-0.061	0.081
-680.237	427.756	-0.157	0.347
-679.222	467.005	0.071	-0.163
-678.208	16.311	-0.200	-0.161
-677.193	-75.011	0.066	-0.024
-676.178	-80.513	-0.048	0.016
-675.164	350.649	-0.066	0.133
-674.149	-93.604	0.220	0.062
-673.135	-110.320	0.200	-0.043
-672.120	435.430	0.018	-0.040
-671.105	-80.059	0.486	0.167
-670.091	56.897	0.338	0.337
-669.076	-81.222	-0.229	0.077
-668.062	-50.633	-0.102	-0.049
-667.047	-123.468	0.133	-0.022
-666.032	800.000	-0.080	0.226
-665.018	307.261	0.126	-0.240
-664.003	51.411	-0.155	-0.151
-662.989	-130.285	-0.133	0.018
-661.974	81.556	0.104	-0.115
-660.959	800.000	0.038	0.168
-659.945	115.467	0.098	0.122
-658.930	-6.097	-0.441	0.308
-657.916	-155.851	0.205	-0.013
-656.901	713.047	-0.055	0.148
-655.886	-73.772	-0.223	0.083
-654.872	-91.375	0.143	-0.042
-653.857	-75.939	-0.334	0.121
-652.843	167.863	-0.236	0.344
-651.828	229.319	0.098	-0.163
-650.814	-157.485	-0.171	-0.010
-649.799	78.916	-0.186	-0.204
-648.784	-142.576	-0.214	0.021
-647.770	416.774	0.115	-0.251
-646.755	538.129	-0.046	0.112
-645.741	47.351	-0.129	0.123
-644.726	-200.000	0.013	-0.107
-643.711	-101.303	-0.072	-0.018
-642.697	800.000	-0.039	-0.147
-641.682	-75.088	0.203	-0.074
-640.668	208.351	0.153	0.245
-639.653	-107.649	-0.090	-0.020
-638.638	747.359	0.117	0.322
-637.624	178.087	-0.110	0.165
-636.609	800.000	0.088	0.252
-635.595	59.075	0.076	0.076
-634.580	-37.330	0.178	0.097
-633.565	523.158	-0.058	-0.138
-632.551	187.812	-0.040	0.062
-631.536	-200.000	-0.002	-0.143
-630.522	285.599	-0.051	-0.095
-629.507	-34.864	0.238	-0.133
-628.492	-200.000	0.004	-0.347
-627.478	-200.000	0.005	-0.072
-626.463	322.546	-0.105	0.204
-625.449	-83.799	-0.133	-0.043
-624.434	-28.533	-0.303	-0.178
-623.419	20.379	-0.091	-0.075
-622.405	54.345	-0.264	0.260
-621.390	98.845	0.226	0.266
-620.376	-190.494	0.111	0.001
-619.361	254.943	-0.060	-0.104
-618.346	70.116	0.198	0.209
-617.332	416.915	-0.018	0.039
-616.317	-200.000	0.010	0.177
-615.303	800.000	0.023	-0.082
-614.288	-113.800	-0.130	0.026
-613.273	-43.678	0.129	-0.067
-612.259	-200.000	0.062	-0.325
-611.244	115.976	0.115	0.144
-610.230	-117.860	0.317	-0.058
-609.215	800.000	0.048	0.195
-608.201	-200.000	0.009	-0.159
-607.186	-200.000	-0.039	0.342
-606.171	800.000	0.032	-0.112
-605.157	-83.212	0.154	-0.050
-604.142	-102.119	0.173	-0.043
-603.128	39.585	0.225	-0.206
-602.113	296.586	-0.150	-0.280
-601.098	-172.008	-0.107	-0.004
-600.084	117.380	0.050	-0.063
-599.069	75.916	-0.148	0.159
-598.055	-200.000	-0.042	0.364
-597.040	800.000	-0.114	0.370
-596.025	556.152	-0.038	-0.093
-595.011	-200.000	0.005	-0.168
-593.996	-200.000	-0.034	-0.168
-592.982	-99.940	-0.344	0.088
-591.967	-102.792	-0.113	0.027
-590.952	-200.000	-0.002	0.116
-589.938	-200.000	-0.053	0.253
-588.923	140.107	0.050	0.068
-587.909	-25.037	-0.145	-0.088
-586.894	-54.248	0.108	-0.050
-585.879	-200.000	0.058	-0.293
-584.865	-188.133	0.101	-0.001
-583.850	-74.182	0.035	0.013
-582.836	800.000	-0.085	-0.253
-581.821	107.821	-0.164	0.199
-580.806	-178.027	-0.055	-0.001
-579.792	-70.957	0.135	-0.052
-578.777	478.658	-0.156	-0.359
-577.763	-200.000	0.006	-0.286
-576.748	-46.609	0.272	0.136
-575.733	-19.630	-0.130	-0.082
-574.719	629.637	-0.049	0.126
-573.704	-111.346	0.108	0.022
-572.690	800.000	-0.042	-0.158
-571.675	-66.382	-0.118	0.048
-570.661	-165.838	-0.196	-0.009
-569.646	-57.901	-0.109	0.049
-568.631	-16.615	0.053	-0.034
-567.617	800.000	-0.025	-0.080
-566.602	47.624	0.097	-0.093
-565.588	16.464	0.082	-0.066
-564.573	62.229	0.104	0.106
-563.558	-27.707	0.022	-0.013
-562.544	73.686	-0.086	-0.092
-561.529	-120.643	-0.213	-0.037
-560.515	800.000	0.021	-0.085
-559.500	-200.000	0.015	-0.365
-558.485	154.829	0.077	-0.107
-557.471	-200.000	0.004	-0.029
-556.456	-100.321	0.148	0.037
-555.442	356.956	0.066	-0.133
-554.427	40.027	0.111	0.101
-553.412	-138.486	0.293	0.033
-552.398	800.000	-0.055	-0.187
-551.383	-29.877	-0.174	0.101
-550.369	-77.860	-0.186	0.065
-549.354	-200.000	-0.047	-0.317
-548.339	-200.000	0.017	-0.428
-547.325	67.713	0.110	0.115
-546.310	94.721	-0.195	0.226
-545.296	-52.089	0.241	0.114
-544.281	271.807	0.120	0.216
-543.266	-122.805	-0.271	0.045
-542.252	-47.131	0.215	0.107
-541.237	134.059	0.231	-0.304
-540.223	-66.411	0.404	0.164
-539.208	-79.577	0.254	0.087
-538.193	-200.000	-0.013	-0.059
-537.179	242.261	-0.025	0.043
-536.164	26.186	-0.134	0.114
-535.150	139.489	-0.116	-0.155
-534.135	-200.000	0.002	-0.125
-533.121	167.635	0.176	-0.255
-532.106	-121.684	-0.082	-0.014
-531.091	485.697	-0.049	-0.113
-530.077	93.812	0.177	-0.204
-529.062	-124.043	0.393	-0.063
-528.048	-21.625	-0.045	0.028
-527.033	87.775	0.401	0.452
-526.018	-149.383	0.163	0.013
-525.004	-200.000	-0.027	0.149
-523.989	144.558	0.213	0.290
-522.975	134.806	-0.195	0.257
-521.960	-134.110	-0.209	0.026
-520.945	163.472	-0.033	-0.047
-519.931	-200.000	0.009	0.579
-518.916	800.000	0.099	0.285
-517.902	-200.000	-0.002	0.176
-516.887	-200.000	0.006	-0.049
-515.872	16.090	0.189	-0.151
-514.858	99.271	0.090	0.105
-513.843	-200.000	0.014	-0.348
-512.829	364.681	-0.056	0.114
-511.814	-18.139	-0.067	0.043
-510.799	23.972	-0.379	-0.318
-509.785	-105.345	0.088	-0.020
-508.770	-158.753	-0.126	0.007
-507.756	64.415	0.206	-0.211
-506.741	-152.898	0.288	-0.021
-505.726	376.511	-0.100	0.208
-504.712	281.103	0.050	-0.090
-503.697	-73.720	0.042	0.015
-502.683	-200.000	-0.006	-0.273
-501.668	-200.000	0.010	-0.141
-500.653	-200.000	0.020	0.263
-499.639	90.187	-0.051	0.057
-498.624	-200.000	0.000	-0.111
-497.610	-15.340	0.146	-0.095
-496.595	-200.000	-0.005	-0.177
-495.581	-88.105	0.217	0.066
-494.566	-155.401	0.136	0.009
-493.551	800.000	0.037	-0.107
-492.537	81.642	0.317	0.348
-491.522	-23.503	-0.095	-0.058
-490.508	800.000	0.058	0.189
-489.493	-15.863	0.154	0.100
-488.478	488.506	-0.118	0.274
-487.464	62.119	0.144	0.145
-486.449	266.851	-0.075	-0.134
-485.435	800.000	-0.064	0.185
-484.420	234.566	-0.264	-0.442
-483.405	-26.218	-0.210	-0.125
-482.391	-200.000	-0.030	-0.215
-481.376	-49.959	0.112	-0.054
-480.362	324.334	-0.094	0.182
-479.347	465.153	-0.077	0.175
-478.332	96.463	-0.128	0.148
-477.318	-43.041	0.107	-0.055
-476.303	207.495	0.108	-0.171
-475.289	800.000	-0.085	-0.347
-474.274	96.340	-0.044	-0.051
-473.259	-11.679	-0.153	-0.102
-472.245	87.745	-0.042	-0.047
-471.230	-96.795	-0.063	0.017
-470.216	800.000	-0.105	-0.394
-469.201	1.299	-0.079	-0.058
-468.186	800.000	0.088	-0.308
-467.172	-200.000	-0.067	0.509
-466.157	246.147	-0.112	0.192
-465.143	-38.199	-0.045	-0.024
-464.128	-200.000	-0.064	0.469
-463.113	113.547	-0.178	0.220
-462.099	205.648	0.092	-0.145
-461.084	800.000	-0.058	0.164
-460.070	-200.000	-0.001	-0.132
-459.055	-37.376	-0.114	-0.062
-458.040	88.753	0.285	-0.322
-457.026	800.000	0.081	0.294
-456.011	594.489	-0.106	0.267
-454.997	30.768	0.102	-0.089
-453.982	-200.000	-0.041	-0.234
-452.968	86.227	0.192	0.214
-451.953	-8.745	-0.258	0.176
-450.938	-83.775	0.201	0.065
-449.924	-145.506	-0.054	0.005
-448.909	589.788	0.098	-0.245
-447.895	-200.000	0.002	0.209
-446.880	-200.000	0.029	-0.230
-445.865	294.427	0.041	-0.076
-444.851	198.444	-0.041	0.063
-443.836	88.031	-0.186	0.209
-442.822	-7.448	0.192	-0.132
-441.807	-43.159	0.105	-0.054
-440.792	800.000	-0.071	-0.216
-439.778	19.806	-0.158	-0.129
-438.763	-41.060	-0.202	0.106
-437.749	20.684	-0.058	0.048
-436.734	48.420	-0.236	-0.224
-435.719	800.000	0.032	0.113
-434.705	-52.082	-0.351	-0.165
-433.690	-57.022	0.242	-0.108
-432.676	60.732	0.265	-0.266
-431.661	-200.000	-0.152	0.000
-430.646	800.000	-0.052	0.207
-429.632	-43.316	0.155	-0.079
-428.617	-100.596	0.137	-0.034
-427.603	-88.545	0.140	-0.042
-426.588	-67.108	0.188	0.075
-425.573	-113.128	0.247	-0.049
-424.559	-200.000	-0.067	-0.318
-423.544	-94.669	0.285	-0.078
-422.530	-67.329	0.372	0.148
-421.515	-37.823	0.136	0.073
-420.500	-200.000	-0.056	0.357
-419.486	227.884	-0.089	-0.146
-418.471	636.011	-0.056	-0.145
-417.457	-200.000	-0.015	0.152
-416.442	-8.457	0.179	0.122
-415.428	18.708	-0.090	-0.073
-414.413	-76.963	0.414	-0.147
-413.398	-101.282	-0.290	-0.072
-412.384	-200.000	0.029	-0.180
-411.369	-200.000	0.011	-0.206
-410.355	800.000	0.120	0.428
-409.340	-106.183	-0.114	0.026
-408.325	226.966	0.117	-0.193
-407.311	-200.000	0.011	-0.266
-406.296	-17.306	-0.112	0.071
-405.282	56.507	0.379	0.373
-404.267	708.226	-0.018	0.047
-403.252	-47.052	-0.284	-0.140
-402.238	-17.308	0.337	-0.215
-401.223	-75.901	-0.057	0.020
-400.209	-128.906	0.189	0.027
-399.194	441.478	0.081	-0.180
-398.179	232.409	-0.179	-0.297
-397.165	-106.844	0.266	-0.060
-396.150	262.204	0.173	0.303
-395.136	-15.148	-0.113	-0.073
-394.121	800.000	-0.086	0.355
-393.106	-129.554	-0.136	-0.019
-392.092	-8.105	0.136	-0.093
-391.077	-34.421	0.053	0.030
-390.063	-200.000	0.008	0.112
-389.048	23.192	-0.163	0.135
-388.033	352.691	-0.043	0.085
-387.019	800.000	-0.045	-0.195
-386.004	20.720	-0.031	0.025
-384.990	-48.417	-0.235	0.115
-383.975	800.000	0.037	0.115
-382.960	139.109	0.069	-0.092
-381.946	-95.139	0.203	-0.055
-380.931	59.565	-0.157	0.157
-379.917	253.797	-0.036	-0.062
-378.902	86.109	-0.315	0.351
-377.888	-60.169	-0.290	0.125
-376.873	12.866	-0.216	-0.169
-375.858	114.514	-0.103	0.127
-374.844	50.355	0.111	0.106
-373.829	-34.054	0.149	-0.083
-372.815	-34.717	0.173	0.096
-371.800	-139.639	-0.158	-0.017
-370.785	270.206	-0.127	-0.227
-369.771	-1.566	-0.204	-0.146
-368.756	-43.020	-0.275	-0.141
-367.742	29.151	-0.396	0.340
-366.727	-108.312	-0.427	-0.093
-365.712	-55.588	-0.157	-0.071
-364.698	-153.726	-0.323	0.022
-363.683	-127.120	-0.136	-0.020
-362.669	-200.000	-0.031	0.197
-361.654	-200.000	0.024	-0.237
-360.639	-148.087	0.168	-0.014
-359.625	800.000	-0.028	0.088
-358.610	-8.249	0.142	0.097
-357.596	703.441	0.118	0.313
-356.581	28.548	-0.176	0.150
-355.566	29.054	0.086	0.073
-354.552	-92.280	-0.474	0.135
-353.537	203.388	-0.198	0.310
-352.523	321.349	-0.041	0.078
-351.508	-200.000	0.016	-0.156
-350.493	142.087	-0.053	0.072
-349.479	800.000	0.049	0.189
-348.464	-126.780	0.293	0.044
-347.450	-26.856	-0.262	0.154
-346.435	206.278	-0.165	0.259
-345.420	-200.000	-0.039	-0.179
-344.406	296.090	0.100	0.185
-343.391	99.972	0.068	0.079
-342.377	-200.000	0.015	-0.106
-341.362	28.457	0.126	-0.108
-340.348	-200.000	-0.042	-0.215
-339.333	276.947	-0.138	-0.248
-338.318	-200.000	-0.001	0.237
-337.304	-21.829	-0.086	0.053
-336.289	-47.971	-0.105	0.052
-335.275	139.619	-0.121	-0.161
-334.260	308.924	0.118	0.222
-333.245	-13.658	0.163	-0.107
-332.231	76.590	0.179	0.191
-331.216	56.850	0.092	0.091
-330.202	-54.132	0.202	0.093
-329.187	419.185	-0.014	0.030
-328.172	800.000	-0.093	-0.398
-327.158	-6.884	0.094	-0.065
-326.143	-25.582	0.306	-0.183
-325.129	-200.000	-0.040	-0.179
-324.114	-143.851	-0.281	0.027
-323.099	238.958	-0.082	0.138
-322.085	255.228	0.134	-0.231
-321.070	-144.253	0.145	0.014
-320.056	-59.327	0.049	0.021
-319.041	420.229	0.106	-0.228
-318.026	-200.000	0.010	-0.046
-317.012	-200.000	-0.023	-0.129
-315.997	-68.670	-0.337	-0.132
-314.983	-107.947	-0.344	-0.076
-313.968	-159.254	-0.280	-0.016
-312.953	171.220	0.102	0.148
-311.939	182.895	-0.055	-0.081
-310.924	-200.000	0.026	0.205
-309.910	-114.209	-0.066	0.013
-308.895	23.156	-0.113	0.093
-307.880	-200.000	-0.153	0.000
-306.866	-103.366	-0.182	0.043
-305.851	-200.000	-0.024	0.338
-304.837	19.752	0.219	-0.178
-303.822	60.506	0.044	-0.044
-302.807	-120.296	0.131	-0.023
-301.793	-200.000	0.002	0.239
-300.778	-49.871	0.093	-0.044
-299.764	214.057	0.098	-0.156
-298.749	408.539	0.126	0.269
-297.735	-89.544	0.222	-0.066
-296.720	246.188	0.124	0.210
-295.705	-49.256	0.148	0.071
-294.691	100.148	0.226	-0.264
-293.676	-30.120	0.152	-0.087
-292.662	800.000	0.063	-0.216
-291.647	-200.000	0.092	-0.578
-290.632	-38.725	0.234	-0.124
-289.618	-200.000	-0.047	0.360
-288.603	-152.694	-0.155	-0.011
-287.589	800.000	-0.084	-0.305
-286.574	800.000	-0.041	-0.117
-285.559	800.000	0.052	-0.153
-284.545	-10.157	-0.174	0.117
-283.530	-157.797	-0.223	-0.013
-282.516	-109.359	-0.075	-0.016
-281.501	-100.575	0.558	-0.139
-280.486	-121.905	-0.148	0.024
-279.472	408.717	-0.062	-0.132
-278.457	83.916	-0.130	-0.143
-277.443	-165.392	-0.197	-0.009
-276.428	-200.000	0.009	0.090
-275.413	800.000	-0.093	0.362
-274.399	114.348	-0.216	0.265
-273.384	306.279	-0.112	0.209
-272.370	347.408	0.154	0.305
-271.355	172.395	-0.089	0.129
-270.340	343.508	0.088	0.175
-269.326	-36.895	0.143	0.077
-268.311	-200.000	0.042	-0.391
-267.297	-43.654	0.280	0.142
-266.282	537.400	-0.143	-0.342
-265.267	-200.000	0.046	0.272
-264.253	-24.523	0.123	-0.074
-263.238	221.733	0.112	-0.181
-262.224	-173.427	-0.136	-0.004
-261.209	-157.306	0.197	-0.012
-260.195	-10.712	-0.332	0.221
-259.180	-33.395	0.187	0.104
-258.165	39.238	0.028	-0.025
-257.151	-200.000	0.356	0.002
-256.136	800.000	0.057	-0.161
-255.122	142.515	-0.164	0.219
-254.107	800.000	0.044	0.175
-253.092	-115.449	0.444	0.084
-252.078	79.451	0.126	-0.136
-251.063	74.234	0.127	-0.134
-250.049	316.088	0.049	-0.092
-249.034	29.899	0.227	0.195
-248.019	200.645	-0.019	-0.029
-247.005	-146.489	-0.132	-0.012
-245.990	-72.957	0.128	0.047
-244.976	-83.395	0.186	0.060
-243.961	547.221	-0.106	-0.256
-242.946	500.225	-0.098	-0.227
-241.932	-133.531	-0.178	-0.022
-240.917	180.683	0.097	0.143
-239.903	-200.000	-0.048	-0.230
-238.888	36.370	0.178	-0.158
-237.873	-175.248	0.053	-0.001
-236.859	-53.449	-0.095	0.044
-235.844	-93.238	0.066	-0.018
-234.830	-108.723	0.143	0.031
-233.815	-178.077	-0.305	0.007
-232.800	800.000	0.050	-0.151
-231.786	86.220	0.017	-0.019
-230.771	119.872	-0.081	-0.101
-229.757	-33.943	-0.209	0.115
-228.742	-65.195	-0.327	-0.132
-227.727	206.188	-0.224	-0.351
-226.713	19.236	-0.425	0.343
-225.698	-69.934	0.015	0.006
-224.684	86.515	-0.059	-0.065
-223.669	397.410	0.035	-0.074
-222.655	10.778	-0.239	0.184
-221.640	-199.354	0.362	-0.002
-220.625	-124.779	-0.363	0.056
-219.611	-11.146	-0.178	0.118
-218.596	800.000	0.079	0.326
-217.582	92.242	-0.071	0.080
-216.567	-33.562	-0.371	-0.206
-215.552	11.440	-0.194	0.149
-214.538	132.587	-0.081	0.105
-213.523	217.719	0.167	0.267
-212.509	554.460	-0.045	-0.108
-211.494	121.443	-0.100	-0.126
-210.479	327.343	0.223	0.431
-209.465	6.236	-0.194	-0.145
-208.450	-200.000	-0.001	-0.111
-207.436	94.203	-0.183	0.209
-206.421	-46.324	-0.125	0.062
-205.406	-200.000	0.072	-0.360
-204.392	-171.923	-0.167	-0.005
-203.377	357.465	-0.062	-0.125
-202.363	-10.370	0.161	-0.108
-201.348	-80.161	0.125	0.042
-200.333	-67.741	0.491	-0.193
-199.319	-60.839	0.158	-0.067
-198.304	-161.377	-0.094	-0.005
-197.290	-2.339	-0.310	0.219
-196.275	-163.072	-0.290	-0.014
-195.260	-200.000	-0.020	-0.130
-194.246	-165.937	-0.030	-0.001
-193.231	-104.904	0.102	0.024
-192.217	-93.578	0.174	-0.048
-191.202	800.000	0.028	-0.078
-190.187	800.000	-0.053	0.150
-189.173	800.000	-0.055	-0.203
-188.158	800.000	0.071	0.246
-187.144	486.000	0.039	-0.090
-186.129	188.566	0.045	0.068
-185.114	-71.139	-0.214	0.081
-184.100	-200.000	-0.036	0.221
-183.085	-145.436	-0.251	0.023
-182.071	-145.825	-0.175	0.016
-181.056	-200.000	-0.017	0.104
-180.042	-200.000	-0.109	0.623
-179.027	-64.648	-0.339	0.138
-178.012	158.345	0.234	-0.326
-176.998	-200.000	-0.010	-0.335
-175.983	-35.090	0.211	-0.115
-174.969	55.741	0.110	-0.107
-173.954	-36.597	0.107	0.058
-172.939	471.600	-0.145	0.328
-171.925	-51.938	-0.196	-0.091
-170.910	257.184	-0.021	0.035
-169.896	-29.290	0.391	-0.225
-168.881	48.585	-0.218	-0.205
-167.866	-161.070	-0.214	-0.011
-166.852	286.294	0.162	0.293
-165.837	140.455	-0.152	-0.201
-164.823	100.269	-0.075	0.087
-163.808	-64.856	0.122	0.049
-162.793	-69.031	0.232	0.089
-161.779	-181.268	0.253	-0.005
-160.764	-35.411	0.359	0.196
-159.750	-200.000	-0.004	0.058
-158.735	789.157	0.063	0.175
-157.720	-176.499	0.231	0.006
-156.706	-87.610	0.152	-0.046
-155.691	28.062	-0.091	-0.077
-154.677	47.727	-0.092	-0.086
-153.662	-36.049	-0.196	-0.106
-152.647	-84.347	-0.092	-0.029
-151.633	-25.792	0.322	-0.190
-150.618	-200.000	-0.032	0.246
-149.604	-195.773	0.396	0.003
-148.589	-200.000	-0.081	-0.531
-147.574	203.232	-0.046	0.071
-146.560	56.478	-0.256	-0.250
-145.545	-200.000	-0.055	-0.420
-144.531	800.000	0.014	0.057
-143.516	-111.331	-0.136	-0.028
-142.502	1.950	-0.176	0.127
-141.487	-200.000	-0.017	0.081
-140.472	-200.000	-0.008	-0.088
-139.458	775.548	0.119	-0.326
-138.443	208.508	-0.135	-0.211
-137.429	800.000	-0.050	0.159
-136.414	-100.040	-0.049	0.012
-135.399	34.479	-0.108	-0.094
-134.385	800.000	-0.193	0.581
-133.370	800.000	-0.038	-0.125
-132.356	800.000	0.025	0.101
-131.341	-61.320	-0.254	0.107
-130.326	65.052	-0.204	0.206
-129.312	60.528	-0.123	0.122
-128.297	310.703	-0.106	-0.198
-127.283	123.316	-0.137	-0.172
-126.268	231.111	0.252	-0.414
-125.253	-2.744	0.144	-0.101
-124.239	-200.000	0.006	0.378
-123.224	13.546	0.262	0.203
-122.210	-112.432	0.414	0.083
-121.195	800.000	0.047	-0.161
-120.180	-200.000	-0.004	0.425
-119.166	-78.232	0.443	0.152
-118.151	-60.678	0.239	-0.102
-117.137	47.618	0.090	0.084
-116.122	197.906	-0.263	-0.403
-115.107	133.428	0.191	0.247
-114.093	-200.000	-0.002	-0.133
-113.078	105.109	0.065	-0.077
-112.064	-99.753	-0.186	0.047
-111.049	-120.373	-0.237	-0.040
-110.034	-133.799	-0.252	-0.031
-109.020	685.245	0.081	-0.212
-108.005	800.000	0.073	0.210
-106.991	-156.366	-0.245	0.015
-105.976	-37.019	-0.335	-0.179
-104.962	-123.081	0.229	-0.037
-103.947	-94.934	0.207	-0.056
-102.932	275.304	-0.201	0.357
-101.918	246.450	-0.087	0.147
-100.903	-71.984	0.261	0.097
-99.889	237.029	0.201	-0.332
-98.874	36.606	-0.082	0.073
-97.859	419.764	-0.093	0.199
-96.845	-200.000	-0.020	0.191
-95.830	-188.149	0.150	-0.002
-94.816	800.000	0.109	-0.333
-93.801	-200.000	0.035	0.174
-92.786	564.975	0.068	-0.165
-91.772	21.863	-0.047	-0.038
-90.757	-1.187	-0.129	0.091
-89.743	-131.902	0.254	-0.033
-88.728	-200.000	-0.068	-0.361
-87.713	3.380	0.088	-0.064
-86.699	149.778	0.120	-0.163
-85.684	75.915	0.156	-0.165
-84.670	478.452	-0.062	0.139
-83.655	-149.942	0.264	-0.021
-82.640	-103.197	0.435	-0.103
-81.626	281.689	0.057	-0.102
-80.611	-34.668	0.195	-0.107
-79.597	-87.404	0.316	0.096
-78.582	-85.704	-0.328	-0.102
-77.567	131.637	-0.184	-0.237
-76.553	800.000	-0.046	-0.154
-75.538	168.183	0.259	-0.368
-74.524	420.331	0.021	0.045
-73.509	37.967	-0.087	0.078
-72.494	-185.298	0.180	-0.003
-71.480	-122.803	0.212	-0.034
-70.465	252.942	0.095	-0.162
-69.451	-200.000	0.029	0.146
-68.436	198.078	0.033	-0.050
-67.422	-41.019	-0.187	-0.097
-66.407	-32.000	-0.007	-0.004
-65.392	552.737	0.080	0.193
-64.378	-43.046	0.027	-0.013
-63.363	-200.000	-0.185	0.001
-62.349	-200.000	0.026	-0.332
-61.334	79.911	-0.608	-0.653
-60.319	126.834	0.070	0.089
-59.305	-200.000	0.017	-0.506
-58.290	194.610	0.393	0.596
-57.276	-200.000	0.303	1.658
-56.261	-200.000	71.161	524.884
-55.246	604.387	1268.297	3153.180
-54.232	147.087	2488.954	3344.171
-53.217	121.704	2241.337	2791.233
-52.203	55.593	1763.265	1705.415
-51.188	47.728	1556.432	1450.629
-50.173	44.755	1526.009	1401.801
-49.159	59.772	1559.805	1537.301
-48.144	67.431	1580.046	1610.271
-47.130	48.068	1544.251	1441.407
-46.115	44.243	1529.906	1401.622
-45.100	44.001	1526.530	1396.808
-44.086	44.006	1525.042	1395.424
-43.071	43.947	1522.693	1392.816
-42.057	43.922	1520.926	1390.972
-41.042	43.971	1519.454	1389.907
-40.027	43.966	1517.766	1388.272
-39.013	43.916	1516.522	1386.738
-37.998	43.972	1515.294	1385.940
-36.984	44.083	1513.730	1385.216
-35.969	44.017	1512.816	1383.870
-34.954	44.078	1511.539	1383.068
-33.940	44.009	1509.876	1381.019
-32.925	44.033	1507.999	1379.415
-31.911	44.035	1506.777	1378.250
-30.896	44.111	1505.025	1377.112
-29.881	44.069	1503.824	1375.670
-28.867	44.126	1502.128	1374.454
-27.852	44.106	1501.159	1373.376
-26.838	44.054	1499.905	1371.820
-25.823	44.033	1498.170	1370.039
-24.809	44.093	1496.044	1368.448
-23.794	43.988	1494.973	1366.703
-22.779	44.054	1493.909	1366.121
-21.765	43.977	1492.686	1364.434
-20.750	44.064	1491.605	1363.974
-19.736	43.986	1490.424	1362.317
-18.721	44.124	1489.081	1361.959
-17.706	43.961	1487.942	1359.771
-16.692	43.893	1487.184	1358.565
-15.677	43.954	1486.049	1357.883
-14.663	43.908	1484.824	1356.405
-13.648	43.939	1484.085	1355.880
-12.633	43.960	1482.904	1354.893
-11.619	43.916	1482.059	1353.773
-10.604	44.003	1481.311	1353.614
-9.590	43.927	1480.334	1352.158
-8.575	43.997	1479.269	1351.601
-7.560	44.045	1478.067	1350.773
-6.546	43.912	1477.729	1349.521
-5.531	43.920	1476.961	1348.819
-4.517	44.064	1475.335	1348.238
-3.502	43.865	1474.564	1346.157
-2.487	44.024	1473.220	1345.934
-1.473	43.890	1472.608	1344.430
-0.458	43.913	1471.524	1343.540
0.556	43.417	1462.030	1333.817
1.571	40.559	1433.658	1289.271
2.586	36.352	1370.991	1206.583
3.600	33.940	1286.930	1118.334
4.615	31.794	1238.240	1063.762
5.629	26.525	1179.268	984.438
6.644	13.411	1085.629	840.053
7.659	3.124	1036.683	752.024
8.673	1.418	1030.711	739.331
9.688	1.190	1027.961	736.183
10.702	1.012	1026.246	734.031
11.717	1.060	1024.534	732.974
12.731	4.765	1030.075	754.865
13.746	15.846	1045.480	820.371
14.761	23.148	1053.926	862.668
15.775	23.773	1054.004	865.702
16.790	23.776	1053.402	865.142
17.804	23.687	1052.407	863.819
18.819	23.449	1051.563	861.889
19.834	23.512	1050.843	861.529
20.848	23.546	1050.446	861.293
21.863	23.636	1049.939	861.241
22.877	23.606	1049.910	860.991
23.892	23.514	1049.484	860.121
24.907	23.503	1048.274	859.002
25.921	23.627	1047.264	858.697
26.936	23.569	1046.518	857.729
27.950	23.533	1045.792	856.885
28.965	23.491	1044.396	855.461
29.980	23.361	1043.461	853.993
30.994	23.354	1041.352	852.158
32.009	23.525	1040.896	852.532
33.023	23.672	1040.023	852.445
34.038	23.408	1039.413	850.604
35.053	23.330	1038.721	849.588
36.067	23.607	1037.525	849.863
37.082	23.536	1036.958	848.984
38.096	23.554	1036.738	848.813
39.111	23.844	1035.427	849.053
40.126	23.952	1034.797	848.974
41.140	23.905	1033.352	847.492
42.155	23.367	1032.476	844.132
43.169	23.215	1030.751	841.929
44.184	23.103	1029.810	840.553
45.199	23.375	1028.610	840.789
46.213	23.200	1027.779	839.208
47.228	23.126	1027.402	838.472
48.242	23.342	1026.407	838.607
49.257	23.452	1025.680	838.459
50.271	23.504	1024.425	837.607
51.286	23.565	1024.313	837.727
52.301	23.602	1023.300	836.998
53.315	23.716	1022.667	836.948
54.330	23.706	1021.834	836.141
55.344	23.596	1021.132	834.979
56.359	23.504	1020.277	833.773
57.374	23.519	1019.713	833.310
58.388	23.370	1018.538	831.577
59.403	23.258	1017.832	830.399
60.417	23.460	1016.409	830.113
61.432	23.016	1016.289	827.862
62.447	23.129	1015.548	827.710
63.461	23.324	1015.365	828.400
64.476	23.353	1014.007	827.358
65.490	23.341	1013.034	826.434
66.505	23.324	1011.673	825.169
67.520	23.272	1011.338	824.582
68.534	23.395	1010.631	824.503
69.549	23.234	1009.352	822.641
70.563	22.945	1008.347	820.409
71.578	22.921	1007.389	819.442
72.593	22.823	1006.997	818.599
73.607	22.713	1005.745	816.998
74.622	22.783	1004.725	816.424
75.636	23.027	1004.134	816.997
76.651	23.229	1003.143	817.049
77.666	23.218	1001.950	815.958
78.680	22.920	1001.616	814.238
79.695	22.926	1001.223	813.874
80.709	23.050	1000.773	814.008
81.724	23.203	999.695	813.762
82.739	23.039	998.971	812.345
83.753	23.194	998.198	812.360
84.768	23.406	997.584	812.760
85.782	23.741	997.000	813.748
86.797	23.870	996.478	813.841
87.812	23.896	995.312	812.935
88.826	23.685	994.391	811.147
89.841	23.703	993.608	810.516
90.855	23.727	993.165	810.193
91.870	23.836	992.137	809.778
92.884	23.716	991.617	808.737
93.899	23.696	990.784	807.897
94.914	23.585	989.884	806.587
95.928	23.660	988.843	806.008
96.943	23.651	988.303	805.453
97.957	23.315	986.751	802.594
98.972	23.305	985.634	801.570
99.987	22.974	984.883	799.394
101.001	23.137	984.424	799.687
102.016	23.476	983.689	800.547
103.030	23.533	982.602	799.849
104.045	23.398	981.551	798.317
105.060	23.247	980.594	796.790
106.074	23.216	979.583	795.755
107.089	23.155	978.818	794.791
108.103	23.545	978.453	796.177
109.118	23.618	977.925	796.004
110.133	23.283	976.586	793.342
111.147	23.324	975.198	792.328
112.162	23.203	974.389	791.061
113.176	22.985	973.001	788.888
114.191	22.882	972.368	787.846
115.206	23.109	971.861	788.377
116.220	23.040	970.354	786.779
117.235	22.823	969.460	785.021
118.249	22.840	969.215	784.828
119.264	22.973	968.044	784.402
120.279	22.947	967.036	783.397
121.293	22.863	966.422	782.457
122.308	22.981	966.005	782.576
123.322	23.047	965.021	782.003
124.337	23.019	964.027	781.000
125.352	22.785	962.835	778.935
126.366	22.477	960.963	775.992
127.381	22.150	959.824	773.568
128.395	22.571	959.520	775.106
129.410	23.253	959.266	777.829
130.424	23.496	958.345	778.081
131.439	23.612	957.165	777.563
132.454	23.503	956.087	776.140
133.468	23.626	955.306	775.976
134.483	23.419	954.996	774.749
135.497	23.553	954.053	774.501
136.512	23.703	953.673	774.777
137.527	23.689	953.145	774.221
138.541	23.735	952.121	773.520
139.556	23.709	951.679	772.981
140.570	23.669	950.568	771.834
141.585	23.719	949.803	771.364
142.600	23.670	949.661	770.967
143.614	23.732	948.172	769.957
144.629	23.811	947.639	769.800
145.643	24.054	946.991	770.255
146.658	23.978	945.888	768.961
147.673	23.699	944.869	766.860
148.687	23.727	943.241	765.591
149.702	23.438	942.533	763.708
150.716	23.578	941.273	763.219
151.731	23.323	940.655	761.557
152.746	23.511	939.579	761.424
153.760	23.676	938.964	761.566
154.775	23.802	938.363	761.552
155.789	23.930	937.597	761.412
156.804	23.947	936.261	760.329
157.819	23.827	935.301	758.970
158.833	23.801	934.426	758.081
159.848	23.889	934.188	758.199
160.862	23.925	933.385	757.635
161.877	23.889	932.404	756.616
162.892	23.738	931.586	755.244
163.906	23.796	930.687	754.695
164.921	23.677	930.144	753.681
165.935	23.669	928.690	752.405
166.950	23.897	927.300	752.176
167.964	23.740	927.150	751.323
168.979	23.812	925.942	750.582
169.994	23.599	924.930	748.798
171.008	23.452	924.046	747.394
172.023	23.858	923.298	748.434
173.037	23.847	922.472	747.651
174.052	23.741	921.482	746.336
175.067	23.581	920.216	744.573
176.081	23.555	920.201	744.388
177.096	23.652	919.142	743.873
178.110	23.578	918.094	742.649
179.125	23.497	917.038	741.391
180.140	23.218	916.164	739.452
181.154	23.163	915.672	738.759
182.169	23.281	915.129	738.749
183.183	23.486	914.748	739.229
184.198	23.713	914.691	740.065
185.213	23.730	913.854	739.395
186.227	23.569	913.359	738.256
187.242	23.616	913.338	738.370
188.256	23.894	912.016	738.390
189.271	23.808	911.351	737.431
190.286	23.882	910.445	736.939
191.300	23.772	909.999	736.058
192.315	23.299	908.316	732.675
193.329	22.490	907.164	728.335
194.344	21.948	905.786	724.929
195.359	22.575	906.404	727.947
196.373	23.497	906.552	731.808
197.388	23.764	906.070	732.457
198.402	23.702	905.484	731.663
199.417	23.685	904.839	731.008
200.432	23.721	904.663	730.949
201.446	23.541	903.676	729.346
202.461	23.146	902.803	726.954
203.475	23.251	902.549	727.117
204.490	22.920	900.813	724.298
205.504	21.920	898.416	718.213
206.519	22.071	898.728	719.020
207.534	23.133	899.190	723.671
208.548	23.235	898.424	723.408
209.563	23.531	898.108	724.297
210.577	23.735	897.244	724.367
211.592	23.295	896.653	722.034
212.607	23.854	896.717	724.299
213.621	23.867	896.139	723.822
214.636	23.774	895.244	722.656
215.650	23.871	894.945	722.747
216.665	23.815	894.103	721.776
217.680	23.768	893.580	721.096
218.694	23.978	892.996	721.416
219.709	23.555	892.247	719.031
220.723	23.308	890.884	716.871
221.738	23.444	890.921	717.386
222.753	23.668	890.440	717.843
223.767	23.549	889.637	716.649
224.782	23.734	888.904	716.741
225.796	23.791	888.554	716.629
226.811	24.011	888.135	717.113
227.826	23.537	886.890	714.134
228.840	22.752	885.325	709.655
229.855	22.687	884.602	708.752
230.869	22.914	884.677	709.662
231.884	22.785	883.247	707.934
232.899	22.653	882.704	706.909
233.913	23.396	883.191	710.213
234.928	23.559	882.777	710.471
235.942	23.551	881.846	709.627
236.957	23.626	880.972	709.163
237.972	23.167	880.452	706.848
238.986	23.178	879.608	706.150
240.001	23.326	879.154	706.314
241.015	23.241	878.439	705.338
242.030	23.459	877.810	705.637
243.045	23.505	877.461	705.478
244.059	23.532	876.882	705.059
245.074	23.881	876.132	705.779
246.088	23.774	875.676	704.926
247.103	23.326	874.970	702.518
248.117	23.425	874.436	702.420
249.132	23.893	874.536	704.290
250.147	24.185	874.341	705.228
251.161	24.340	873.484	705.085
252.176	24.432	873.034	705.027
253.190	24.651	872.239	705.186
254.205	24.612	871.720	704.547
255.220	24.639	871.881	704.722
256.234	24.707	871.031	704.241
257.249	24.519	870.399	702.928
258.263	24.443	869.477	701.821
259.278	24.601	868.885	701.903
260.293	24.515	868.754	701.398
261.307	24.692	868.059	701.469
262.322	24.559	867.596	700.511
263.336	24.410	866.636	699.089
264.351	24.074	865.403	696.717
265.366	22.910	863.204	690.340
266.380	22.357	862.424	687.498
267.395	23.290	862.689	691.292
268.409	24.155	862.669	694.589
269.424	24.184	862.306	694.348
270.439	24.172	861.814	693.844
271.453	24.448	861.481	694.587
272.468	24.465	860.722	693.980
273.482	24.509	860.363	693.801
274.497	24.700	859.881	694.090
275.512	24.553	858.634	692.455
276.526	24.014	857.442	689.344
277.541	24.116	857.028	689.344
278.555	24.396	857.587	690.820
279.570	24.115	856.529	688.820
280.585	23.993	855.670	687.595
281.599	24.176	855.230	687.886
282.614	24.325	854.811	688.065
283.628	23.857	853.695	685.302
284.643	23.486	852.876	683.152
285.657	23.940	852.609	684.626
286.672	23.819	852.145	683.728
287.687	23.294	851.175	680.873
288.701	23.517	851.262	681.742
289.716	24.038	851.039	683.503
290.730	23.700	850.287	681.538
291.745	23.545	848.988	679.844
292.760	23.340	848.104	678.291
293.774	23.371	847.238	677.658
294.789	24.267	847.812	681.482
295.803	24.963	847.844	684.109
296.818	24.974	847.618	683.910
297.833	25.043	847.368	683.909
298.847	24.709	846.394	681.789
299.862	24.363	845.187	679.440
300.876	24.425	845.079	679.529
301.891	24.837	844.314	680.419
302.906	25.096	843.368	680.581
303.920	24.522	842.932	677.989
304.935	24.417	842.195	676.939
305.949	24.713	841.842	677.719
306.964	25.004	841.444	678.439
307.979	24.844	840.442	676.968
308.993	24.572	840.297	675.760
310.008	24.969	839.754	676.765
311.022	25.086	839.573	677.000
312.037	24.912	838.785	675.649
313.052	24.679	838.143	674.192
314.066	24.499	837.965	673.311
315.081	24.006	836.180	669.962
316.095	23.126	834.912	665.577
317.110	23.537	835.084	667.204
318.125	24.564	835.419	671.273
319.139	24.277	834.149	669.116
320.154	23.068	832.727	663.385
321.168	22.549	831.611	660.489
322.183	23.104	831.854	662.704
323.197	24.239	832.185	667.163
324.212	24.498	831.566	667.575
325.227	24.524	831.561	667.610
326.241	24.636	831.201	667.681
327.256	24.591	830.330	666.753
328.270	24.605	829.645	666.196
329.285	24.328	829.353	664.869
330.300	24.272	828.681	664.062
331.314	24.058	827.594	662.336
332.329	24.012	827.044	661.669
333.343	24.584	826.788	663.529
334.358	24.694	826.641	663.761
335.373	24.824	825.845	663.548
336.387	24.834	825.617	663.340
337.402	24.962	825.164	663.395
338.416	25.329	824.764	664.370
339.431	25.096	824.474	663.215
340.446	25.080	823.926	662.660
341.460	25.434	823.172	663.301
342.475	25.477	822.420	662.794
343.489	25.059	822.007	660.861
344.504	25.126	821.421	660.577
345.519	25.371	820.992	661.078
346.533	25.543	820.869	661.554
347.548	25.632	820.477	661.506
348.562	25.625	819.575	660.693
349.577	25.540	819.263	660.074
350.592	25.527	818.772	659.571
351.606	25.475	818.376	659.002
352.621	25.559	817.469	658.520
353.635	25.479	816.816	657.644
354.650	25.286	816.669	656.760
355.665	25.027	815.824	655.075
356.679	24.056	813.903	649.933
357.694	23.774	813.890	648.837
358.708	24.540	813.319	651.118
359.723	24.484	813.085	650.669
360.738	24.630	813.083	651.139
361.752	25.193	812.707	652.832
362.767	25.147	812.447	652.397
363.781	25.329	812.480	653.027
364.796	25.821	811.638	654.082
365.810	25.908	811.455	654.191
366.825	26.012	811.178	654.289
367.840	25.929	810.873	653.681
368.854	25.808	810.165	652.617
369.869	25.386	809.499	650.495
370.883	25.202	808.814	649.222
371.898	25.222	808.177	648.722
372.913	25.381	807.315	648.548
373.927	25.194	806.927	647.505
374.942	25.243	806.599	647.361
375.956	25.347	805.896	647.113
376.971	25.507	805.092	646.987
377.986	25.815	804.653	647.684
379.000	25.959	804.484	648.009
380.015	25.856	804.214	647.362
381.029	25.706	803.166	645.923
382.044	25.691	802.458	645.246
383.059	25.783	802.233	645.336
384.073	25.817	801.442	644.763
385.088	26.010	801.004	645.045
386.102	25.791	800.756	644.004
387.117	25.585	800.374	642.906
388.132	25.529	799.930	642.290
389.146	25.529	798.672	641.226
390.161	24.914	797.881	638.342
391.175	24.998	797.445	638.234
392.190	25.377	797.598	639.650
393.205	25.627	796.980	639.987
394.219	24.895	795.056	635.788
395.234	23.227	793.268	628.385
396.248	22.239	792.124	623.922
397.263	23.237	792.850	627.980
398.278	25.022	794.124	635.269
399.292	25.409	794.455	636.849
400.307	25.362	793.509	635.869
401.321	25.275	792.814	634.948
402.336	25.198	792.602	634.449
403.350	25.429	792.581	635.192
404.365	25.835	792.435	636.452
405.380	26.275	792.322	637.861
406.394	26.431	792.570	638.556
407.409	26.725	791.819	638.931
408.423	26.588	791.346	638.010
409.438	26.447	790.832	637.043
410.453	26.542	790.400	636.972
411.467	26.653	789.938	636.932
412.482	26.460	789.574	635.904
413.496	26.598	788.865	635.763
414.511	26.606	788.717	635.615
415.526	26.608	788.411	635.319
416.540	26.491	788.008	634.527
417.555	26.451	787.393	633.837
418.569	26.392	786.440	632.806
419.584	26.214	785.630	631.476
420.599	26.239	785.374	631.301
421.613	83.176	1237.339	1296.073
422.628	70.421	1303.235	1296.199
