DTS Sentinel unit serial number:	SN413079Multiplexer serial number:	ORYXHardware model number:	OX4-SRSoftware version number:	ORYX F/W v4.00 Oryx Data Collector v3.7.2.0data status	okinstallation	princeton_trtdifferential loss correction	single-endedforward channel	channel 3reverse channel	N/Adate	2019/09/14time	10:40:35forward acquisition time	60.00reverse acquisition time	0.00gamma	496.2192k internal	0.2302k external	0.2302temperature offset calibration	1.0060default loss term (dB/km)	0.3790temperature slope calibration	1.0000multiplexer offset coefficient	1.0000multiplexer slope coefficient	1.0000fibre end	0.00T internal ref (°C)	35.25T ext. ref 1 (°C)	4.25T ext. ref 2 (°C)	33.00length (m)	temperature (°C)	Stokes	anti-Stokes-747.200	-200.000	-0.008	0.233
-746.185	44.590	0.132	0.124
-745.171	-0.999	0.098	-0.071
-744.156	-58.664	0.105	0.046
-743.142	-151.098	0.144	-0.011
-742.127	118.854	-0.248	0.313
-741.112	800.000	0.115	0.393
-740.098	8.802	-0.156	0.120
-739.083	-14.875	0.226	-0.148
-738.069	586.499	0.157	0.395
-737.054	800.000	-0.105	-0.352
-736.039	-197.691	-0.301	0.002
-735.025	-200.000	-0.021	0.184
-734.010	140.772	-0.234	0.316
-732.996	-200.000	0.030	-0.368
-731.981	-92.016	0.287	-0.083
-730.966	28.414	0.136	-0.117
-729.952	-21.740	0.030	-0.019
-728.937	800.000	-0.079	-0.321
-727.923	-121.418	-0.184	0.031
-726.908	785.007	-0.016	-0.044
-725.894	202.949	0.239	0.376
-724.879	-200.000	-0.026	-0.344
-723.864	96.041	0.194	-0.226
-722.850	-84.530	0.262	-0.084
-721.835	567.687	-0.048	-0.119
-720.821	-200.000	0.009	-0.096
-719.806	-92.657	-0.315	0.090
-718.791	55.224	-0.295	0.290
-717.777	19.531	-0.041	-0.033
-716.762	-200.000	-0.004	-0.368
-715.748	493.376	0.111	-0.259
-714.733	-132.625	0.316	0.041
-713.718	-200.000	0.003	-0.257
-712.704	738.983	-0.077	0.210
-711.689	-77.937	-0.487	-0.171
-710.675	115.376	0.245	0.305
-709.660	-138.378	-0.155	-0.017
-708.645	-200.000	-0.021	-0.119
-707.631	165.149	-0.090	-0.130
-706.616	48.886	0.358	-0.342
-705.602	417.389	0.115	-0.250
-704.587	210.603	-0.076	-0.122
-703.572	186.118	-0.131	-0.199
-702.558	-200.000	-0.012	-0.090
-701.543	347.077	-0.132	-0.264
-700.529	-77.678	0.331	-0.116
-699.514	249.623	-0.144	0.249
-698.499	-153.211	-0.395	0.028
-697.485	-83.301	0.305	-0.100
-696.470	11.896	-0.409	-0.320
-695.456	-28.509	0.216	0.127
-694.441	-111.635	-0.219	-0.045
-693.426	256.559	0.100	-0.174
-692.412	178.700	-0.143	-0.213
-691.397	90.680	-0.183	0.209
-690.383	-52.772	-0.125	0.059
-689.368	64.442	0.171	-0.175
-688.354	9.810	-0.055	0.042
-687.339	-53.962	0.047	0.022
-686.324	800.000	0.087	0.260
-685.310	800.000	0.034	0.119
-684.295	-200.000	-0.005	0.113
-683.281	800.000	-0.058	0.223
-682.266	-52.813	0.146	-0.068
-681.251	-200.000	0.052	-0.255
-680.237	-60.840	-0.300	-0.129
-679.222	800.000	0.119	0.350
-678.208	-54.096	0.220	0.102
-677.193	224.406	-0.128	-0.210
-676.178	-100.929	-0.267	0.067
-675.164	-65.945	0.296	-0.120
-674.149	-49.566	-0.080	0.039
-673.135	565.267	0.009	0.023
-672.120	-200.000	0.019	0.096
-671.105	-105.264	-0.146	0.034
-670.091	800.000	0.030	0.098
-669.076	149.961	0.180	0.247
-668.062	-106.503	-0.086	0.020
-667.047	130.090	0.164	0.213
-666.032	-155.423	0.285	0.019
-665.018	146.703	-0.126	-0.172
-664.003	69.561	-0.189	0.197
-662.989	61.431	-0.103	-0.104
-661.974	238.996	-0.173	0.292
-660.959	-90.526	0.747	-0.220
-659.945	-27.622	-0.089	-0.052
-658.930	-200.000	-0.007	0.215
-657.916	800.000	0.015	-0.058
-656.901	-200.000	-0.035	0.348
-655.886	35.430	-0.251	-0.224
-654.872	179.234	-0.180	-0.268
-653.857	99.911	0.069	-0.082
-652.843	450.709	-0.078	-0.176
-651.828	87.971	0.143	0.162
-650.814	16.958	-0.099	-0.080
-649.799	-140.272	-0.131	0.014
-648.784	-73.689	-0.191	0.071
-647.770	800.000	0.105	-0.329
-646.755	-128.543	-0.214	-0.031
-645.741	-200.000	-0.027	-0.150
-644.726	-200.000	-0.018	0.126
-643.711	415.536	-0.051	-0.111
-642.697	-63.849	0.241	0.100
-641.682	344.440	0.102	-0.204
-640.668	-131.108	-0.303	0.041
-639.653	244.510	0.236	-0.403
-638.638	-65.941	-0.187	-0.076
-637.624	67.422	0.120	0.124
-636.609	67.763	0.107	0.111
-635.595	790.618	-0.077	-0.216
-634.580	66.444	-0.132	-0.137
-633.565	87.604	0.079	0.089
-632.551	48.745	-0.258	-0.245
-631.536	59.915	-0.065	-0.065
-630.522	446.986	0.092	0.205
-629.507	-24.365	0.271	-0.164
-628.492	204.546	0.148	0.232
-627.478	-75.577	-0.260	-0.094
-626.463	-27.365	-0.369	-0.218
-625.449	-200.000	0.021	0.204
-624.434	-140.795	-0.107	-0.011
-623.419	800.000	-0.067	0.260
-622.405	591.516	-0.059	0.147
-621.390	32.842	-0.270	-0.237
-620.376	-80.074	0.184	-0.063
-619.361	91.482	0.123	-0.140
-618.346	-200.000	0.006	-0.415
-617.332	308.538	-0.211	0.399
-616.317	143.289	0.148	-0.200
-615.303	116.729	-0.084	-0.104
-614.288	224.118	0.129	-0.212
-613.273	-200.000	-0.009	0.146
-612.259	-66.559	-0.309	0.124
-611.244	227.109	0.048	-0.080
-610.230	-17.538	-0.079	-0.050
-609.215	-123.385	-0.010	-0.002
-608.201	-200.000	-0.009	-0.048
-607.186	-200.000	0.026	0.118
-606.171	-200.000	-0.049	0.322
-605.157	-187.962	0.391	0.005
-604.142	-81.040	-0.085	-0.029
-603.128	-188.482	-0.229	0.003
-602.113	103.948	-0.107	0.127
-601.098	800.000	-0.064	-0.212
-600.084	-30.390	0.315	-0.181
-599.069	-200.000	0.023	-0.160
-598.055	380.011	-0.125	0.260
-597.040	-200.000	-0.003	0.372
-596.025	800.000	-0.069	-0.283
-595.011	800.000	0.114	-0.333
-593.996	-44.233	0.329	-0.167
-592.982	112.261	-0.042	0.051
-591.967	354.235	0.147	-0.296
-590.952	-141.347	0.153	-0.016
-589.938	92.521	0.118	-0.135
-588.923	-23.897	0.196	-0.119
-587.909	30.986	-0.097	-0.084
-586.894	-151.398	0.170	-0.013
-585.879	286.580	0.052	-0.095
-584.865	-200.000	0.019	0.291
-583.850	-103.131	-0.240	0.057
-582.836	-200.000	0.033	-0.453
-581.821	-200.000	-0.017	-0.329
-580.806	468.473	-0.141	0.320
-579.792	21.963	0.094	-0.078
-578.777	-200.000	0.022	-0.197
-577.763	-28.577	-0.244	-0.142
-576.748	32.168	-0.136	0.119
-575.733	-115.373	0.199	-0.038
-574.719	247.629	0.099	-0.169
-573.704	-30.985	0.162	0.093
-572.690	-108.509	-0.237	0.052
-571.675	-200.000	0.050	-0.294
-570.661	-200.000	-0.006	-0.155
-569.646	263.183	0.084	-0.147
-568.631	-200.000	-0.040	-0.206
-567.617	-200.000	-0.025	0.121
-566.602	-87.379	0.326	-0.100
-565.588	251.777	-0.108	0.186
-564.573	792.883	-0.181	0.505
-563.558	211.281	-0.052	0.083
-562.544	-54.696	0.256	-0.117
-561.529	800.000	0.117	0.338
-560.515	-35.792	-0.346	-0.190
-559.500	-29.352	-0.127	-0.073
-558.485	366.793	-0.101	-0.207
-557.471	800.000	0.025	-0.090
-556.456	109.237	0.163	0.197
-555.442	-200.000	0.014	0.320
-554.427	-200.000	0.028	0.381
-553.412	-74.605	0.166	0.060
-552.398	-60.133	-0.178	-0.077
-551.383	-200.000	0.003	0.345
-550.369	-65.918	-0.311	0.126
-549.354	-200.000	-0.002	-0.126
-548.339	-152.067	-0.297	-0.022
-547.325	196.469	0.143	0.220
-546.310	-6.010	-0.102	-0.071
-545.296	-46.401	-0.057	-0.029
-544.281	117.536	0.324	-0.403
-543.266	-57.479	0.408	-0.181
-542.252	-79.484	-0.231	0.079
-541.237	-139.207	-0.324	-0.035
-540.223	9.330	0.078	-0.059
-539.208	230.575	0.067	0.111
-538.193	31.046	0.262	0.227
-537.179	-6.465	-0.172	0.119
-536.164	123.736	0.149	0.189
-535.150	136.876	0.019	-0.025
-534.135	-127.866	0.130	0.019
-533.121	-200.000	-0.028	-0.338
-532.106	-137.614	0.113	0.013
-531.091	15.548	0.217	0.172
-530.077	460.722	0.124	-0.278
-529.062	655.950	0.060	-0.156
-528.048	313.566	0.065	-0.124
-527.033	385.179	0.062	0.129
-526.018	800.000	0.112	0.328
-525.004	800.000	-0.107	-0.369
-523.989	-156.161	-0.046	0.003
-522.975	-24.580	-0.106	-0.064
-521.960	208.368	-0.136	0.214
-520.945	693.807	0.116	0.308
-519.931	800.000	0.134	0.527
-518.916	-136.891	-0.318	0.037
-517.902	18.719	-0.143	-0.116
-516.887	-200.000	0.017	0.247
-515.872	-50.376	0.216	0.103
-514.858	107.092	0.166	-0.200
-513.843	108.813	-0.107	0.130
-512.829	-144.199	-0.336	0.032
-511.814	-125.922	0.389	0.059
-510.799	570.224	-0.166	0.407
-509.785	-106.756	0.109	-0.025
-508.770	-105.478	0.022	-0.005
-507.756	-79.050	-0.246	0.084
-506.741	-200.000	0.000	0.067
-505.726	-200.000	-0.027	-0.133
-504.712	34.188	0.291	0.256
-503.697	232.444	0.146	-0.242
-502.683	-200.000	0.012	0.230
-501.668	-50.976	0.219	-0.104
-500.653	-14.853	-0.292	0.189
-499.639	519.688	-0.108	0.256
-498.624	559.310	-0.143	-0.349
-497.610	-128.212	0.217	-0.031
-496.595	88.614	0.330	-0.370
-495.581	41.377	0.174	0.159
-494.566	-200.000	-0.056	0.328
-493.551	-47.798	0.134	-0.065
-492.537	-9.863	-0.086	-0.058
-491.522	-200.000	0.063	0.320
-490.508	-79.236	-0.261	-0.089
-489.493	77.601	-0.231	0.249
-488.478	-17.833	-0.359	-0.227
-487.464	2.226	0.526	-0.383
-486.449	-200.000	0.059	0.308
-485.435	-200.000	-0.018	0.101
-484.420	-50.888	0.035	-0.016
-483.405	800.000	0.023	0.072
-482.391	-200.000	0.040	0.534
-481.376	-85.013	-0.265	0.084
-480.362	-72.630	-0.381	-0.142
-479.347	-135.149	0.189	0.023
-478.332	-14.389	0.280	-0.182
-477.318	-200.000	0.005	0.068
-476.303	12.599	-0.125	-0.097
-475.289	-1.368	0.174	0.124
-474.274	-33.164	0.096	-0.053
-473.259	63.359	0.233	-0.236
-472.245	454.011	-0.127	0.284
-471.230	-36.482	0.188	0.102
-470.216	86.064	0.169	-0.188
-469.201	-200.000	0.014	0.147
-468.186	-111.548	0.185	-0.038
-467.172	800.000	0.014	-0.056
-466.157	-112.959	0.087	0.017
-465.143	800.000	0.038	0.156
-464.128	20.374	0.154	0.126
-463.113	-15.078	0.193	0.124
-462.099	800.000	0.030	0.119
-461.084	376.623	-0.079	0.162
-460.070	550.259	0.071	0.173
-459.055	456.406	0.004	-0.009
-458.040	800.000	-0.066	0.197
-457.026	13.467	-0.163	-0.128
-456.011	-135.362	-0.228	-0.027
-454.997	-200.000	0.019	0.211
-453.982	489.218	-0.034	-0.078
-452.968	-93.097	-0.235	-0.066
-451.953	-76.227	0.457	0.162
-450.938	-23.336	-0.413	0.250
-449.924	-166.643	-0.161	-0.007
-448.909	-200.000	0.052	0.458
-447.895	24.136	0.182	0.151
-446.880	84.723	0.136	-0.150
-445.865	-131.056	-0.146	-0.020
-444.851	64.087	-0.165	-0.167
-443.836	-200.000	0.033	0.316
-442.822	-103.798	-0.101	0.024
-441.807	-69.056	0.354	-0.137
-440.792	112.369	0.069	-0.084
-439.778	-57.647	0.263	0.116
-438.763	180.910	0.150	0.222
-437.749	800.000	-0.021	-0.090
-436.734	-92.375	0.241	0.068
-435.719	-134.212	0.076	-0.009
-434.705	-80.222	-0.098	0.033
-433.690	275.637	0.040	0.072
-432.676	-63.800	0.260	-0.107
-431.661	-145.132	0.304	0.028
-430.646	-108.270	0.205	-0.045
-429.632	-109.285	0.141	0.030
-428.617	-47.400	-0.069	-0.034
-427.603	0.026	-0.212	-0.152
-426.588	-8.654	-0.276	-0.187
-425.573	18.576	-0.348	0.280
-424.559	224.553	-0.164	0.267
-423.544	-200.000	0.004	0.278
-422.530	-147.372	0.195	-0.017
-421.515	-48.204	-0.229	0.111
-420.500	-200.000	0.017	-0.296
-419.486	672.765	-0.037	0.097
-418.471	-200.000	-0.006	0.037
-417.457	-200.000	-0.006	0.062
-416.442	-200.000	-0.012	-0.063
-415.428	0.171	0.238	-0.170
-414.413	-31.165	-0.184	0.104
-413.398	440.979	0.087	-0.192
-412.384	-200.000	-0.015	-0.118
-411.369	-105.786	-0.341	0.078
-410.355	58.299	0.274	-0.270
-409.340	4.753	-0.114	-0.084
-408.325	-138.010	-0.091	-0.010
-407.311	398.437	0.166	-0.350
-406.296	76.331	0.167	-0.178
-405.282	44.167	0.267	-0.246
-404.267	-200.000	0.003	-0.256
-403.252	5.952	0.334	0.249
-402.238	-123.421	-0.065	0.010
-401.223	14.838	-0.164	0.129
-400.209	203.762	0.139	0.217
-399.194	-187.814	0.072	-0.001
-398.179	527.485	0.149	0.354
-397.165	84.886	0.141	-0.155
-396.150	-104.489	0.158	-0.037
-395.136	-117.879	-0.320	0.058
-394.121	-86.327	0.112	-0.035
-393.106	-200.000	-0.049	0.000
-392.092	-200.000	0.012	-0.079
-391.077	68.778	0.119	-0.123
-390.063	800.000	-0.080	0.279
-389.048	-200.000	-0.005	-0.082
-388.033	511.892	0.096	-0.224
-387.019	-180.534	-0.198	0.004
-386.004	-93.695	-0.508	-0.141
-384.990	-16.142	0.137	0.088
-383.975	-80.195	0.106	-0.036
-382.960	-136.666	-0.412	0.048
-381.946	-25.017	-0.167	0.099
-380.931	44.916	0.244	-0.226
-379.917	-113.356	-0.342	-0.067
-378.902	-200.000	-0.030	-0.237
-377.888	72.833	0.148	0.155
-376.873	800.000	-0.004	-0.011
-375.858	127.243	0.085	-0.109
-374.844	800.000	0.067	0.207
-373.829	-84.674	0.074	-0.023
-372.815	800.000	0.067	0.195
-371.800	-79.524	0.391	0.133
-370.785	-34.394	-0.281	-0.155
-369.771	-54.233	-0.232	0.106
-368.756	-162.950	0.092	-0.005
-367.742	-68.045	0.223	0.087
-366.727	94.479	-0.098	0.112
-365.712	-41.355	-0.348	-0.180
-364.698	-200.000	-0.066	-0.342
-363.683	-144.007	0.192	-0.018
-362.669	-5.726	-0.184	0.127
-361.654	-137.734	0.305	0.034
-360.639	-21.128	-0.129	0.079
-359.625	-168.142	-0.268	-0.010
-358.610	-9.890	0.091	0.061
-357.596	42.826	0.322	0.294
-356.581	-142.520	-0.199	-0.020
-355.566	-184.389	-0.448	0.007
-354.552	-98.022	0.286	0.074
-353.537	48.732	0.096	-0.091
-352.523	800.000	0.062	-0.173
-351.508	800.000	0.065	-0.238
-350.493	-22.327	0.306	-0.186
-349.479	-127.972	0.171	-0.025
-348.464	129.721	-0.038	-0.049
-347.450	-200.000	0.001	-0.074
-346.435	-17.071	-0.458	0.290
-345.420	-26.423	-0.121	0.071
-344.406	-87.528	0.321	-0.097
-343.391	-5.666	-0.279	0.192
-342.377	83.822	0.292	-0.319
-341.362	-119.591	0.159	-0.028
-340.348	-147.415	-0.088	0.008
-339.333	351.292	0.120	0.238
-338.318	-200.000	-0.037	0.240
-337.304	-200.000	-0.436	0.001
-336.289	-200.000	-0.057	0.323
-335.275	-75.419	0.224	-0.080
-334.260	679.093	0.007	0.018
-333.245	-200.000	0.024	-0.158
-332.231	-110.699	-0.190	0.039
-331.216	-144.559	0.266	-0.025
-330.202	-200.000	-0.022	-0.132
-329.187	86.640	-0.108	0.119
-328.172	654.847	-0.129	0.333
-327.158	-200.000	-0.035	-0.200
-326.143	491.565	0.123	-0.282
-325.129	-68.651	-0.277	0.108
-324.114	209.837	-0.057	0.089
-323.099	224.996	-0.297	-0.481
-322.085	7.776	0.199	-0.149
-321.070	-129.483	-0.387	0.054
-320.056	-48.364	0.260	0.126
-319.041	-178.482	-0.106	0.002
-318.026	-192.008	0.102	0.001
-317.012	-54.715	-0.067	0.030
-315.997	486.310	0.157	-0.358
-314.983	-61.941	0.104	-0.044
-313.968	353.649	-0.113	0.225
-312.953	580.950	-0.220	0.541
-311.939	-87.536	0.088	0.027
-310.924	163.107	0.120	0.169
-309.910	800.000	-0.107	-0.316
-308.895	-5.525	-0.120	-0.082
-307.880	-200.000	0.017	0.226
-306.866	-79.308	-0.133	0.045
-305.851	-200.000	-0.090	-0.503
-304.837	800.000	0.029	-0.083
-303.822	-5.345	0.070	-0.048
-302.807	-129.635	0.151	0.021
-301.793	-20.536	-0.393	0.242
-300.778	291.801	-0.110	-0.200
-299.764	-82.651	-0.218	0.071
-298.749	-197.634	-0.324	-0.002
-297.735	90.625	0.224	0.251
-296.720	-65.646	0.338	0.136
-295.705	766.823	0.012	-0.033
-294.691	597.167	0.043	-0.107
-293.676	-13.247	-0.279	0.181
-292.662	-200.000	0.041	-0.233
-291.647	-89.935	0.371	0.108
-290.632	-77.004	0.124	-0.043
-289.618	268.848	0.096	-0.169
-288.603	85.893	-0.167	0.184
-287.589	80.974	-0.306	-0.331
-286.574	86.453	-0.056	0.062
-285.559	28.103	0.110	0.093
-284.545	-108.908	0.181	0.039
-283.530	71.605	0.155	-0.161
-282.516	-126.006	-0.405	0.061
-281.501	85.163	0.201	0.221
-280.486	66.932	0.290	0.296
-279.472	295.446	-0.063	-0.115
-278.457	-200.000	-0.027	0.380
-277.443	473.304	-0.034	-0.077
-276.428	91.855	-0.157	0.176
-275.413	800.000	-0.043	-0.181
-274.399	800.000	-0.043	0.162
-273.384	67.673	-0.109	0.111
-272.370	-200.000	-0.047	-0.235
-271.355	24.288	0.026	0.021
-270.340	227.139	-0.059	0.096
-269.326	-200.000	0.024	0.172
-268.311	-162.178	0.131	-0.007
-267.297	67.573	0.239	0.244
-266.282	201.385	-0.152	0.234
-265.267	-33.450	-0.468	-0.259
-264.253	-55.973	0.127	0.057
-263.238	-34.422	-0.069	0.038
-262.224	651.038	-0.035	0.089
-261.209	234.857	-0.030	-0.050
-260.195	35.061	0.073	0.064
-259.180	361.752	0.075	-0.151
-258.165	-75.922	-0.144	0.051
-257.151	-169.095	0.229	-0.009
-256.136	86.824	-0.121	-0.134
-255.122	254.888	0.032	0.055
-254.107	159.727	0.123	-0.171
-253.092	-200.000	-0.060	-0.384
-252.078	-70.017	-0.026	-0.010
-251.063	203.593	-0.221	-0.341
-250.049	329.636	0.173	-0.333
-249.034	-50.276	0.221	0.104
-248.019	-142.645	0.161	-0.016
-247.005	-49.749	-0.079	-0.038
-245.990	125.056	-0.115	0.145
-244.976	29.664	0.157	0.134
-243.961	146.837	-0.026	-0.035
-242.946	28.792	0.225	-0.190
-241.932	-200.000	-0.013	-0.066
-240.917	-200.000	-0.011	0.118
-239.903	413.617	0.136	-0.289
-238.888	-54.660	0.253	0.114
-237.873	14.628	-0.188	-0.147
-236.859	-200.000	-0.049	-0.258
-235.844	-87.954	-0.253	-0.076
-234.830	-200.000	-0.015	-0.363
-233.815	-112.604	0.081	0.016
-232.800	-200.000	0.014	0.199
-231.786	-187.853	-0.210	-0.003
-230.771	-178.048	-0.173	0.004
-229.757	145.829	-0.197	0.264
-228.742	-133.989	0.177	-0.022
-227.727	38.048	-0.163	0.145
-226.713	-200.000	0.003	0.027
-225.698	-74.518	-0.069	0.025
-224.684	-58.435	-0.098	-0.043
-223.669	-200.000	-0.026	0.000
-222.655	-200.000	-0.021	0.221
-221.640	364.576	0.162	0.325
-220.625	120.453	-0.040	0.050
-219.611	-68.754	0.187	-0.072
-218.596	84.537	0.107	-0.116
-217.582	112.167	0.131	0.158
-216.567	800.000	0.076	0.293
-215.552	-200.000	-0.058	-0.408
-214.538	-200.000	0.043	-0.329
-213.523	159.452	0.016	0.023
-212.509	202.743	-0.097	-0.150
-211.494	6.933	-0.208	0.154
-210.479	-200.000	0.017	0.265
-209.465	-57.290	0.201	-0.088
-208.450	70.588	0.123	0.127
-207.436	272.886	-0.082	-0.145
-206.421	800.000	-0.070	0.246
-205.406	39.716	0.201	0.180
-204.392	659.770	0.150	-0.384
-203.377	205.736	-0.174	-0.270
-202.363	94.023	0.112	0.127
-201.348	-94.450	-0.208	-0.057
-200.333	-8.257	-0.206	-0.138
-199.319	165.283	-0.098	-0.138
-198.304	800.000	0.050	0.160
-197.290	355.901	0.105	-0.208
-196.275	-7.281	-0.154	0.104
-195.260	-127.636	-0.184	-0.027
-194.246	-152.114	0.261	-0.019
-193.231	-91.260	0.202	-0.058
-192.217	181.099	0.202	0.297
-191.202	-166.596	-0.234	-0.010
-190.187	59.575	-0.170	-0.168
-189.173	-200.000	-0.012	-0.412
-188.158	800.000	-0.078	-0.263
-187.144	-200.000	-0.001	0.149
-186.129	-17.987	-0.039	0.024
-185.114	765.869	-0.064	-0.175
-184.100	-104.529	-0.244	0.056
-183.085	62.199	0.320	-0.318
-182.071	12.834	-0.122	-0.094
-181.056	203.147	0.061	-0.095
-180.042	179.057	-0.082	0.120
-179.027	95.802	-0.243	-0.276
-178.012	171.429	-0.238	-0.340
-176.998	74.383	-0.047	0.049
-175.983	-107.707	-0.122	-0.027
-174.969	-69.971	-0.182	0.069
-173.954	-200.000	0.008	-0.099
-172.939	-4.165	0.161	-0.111
-171.925	-73.927	-0.125	-0.045
-170.910	540.853	0.085	0.203
-169.896	800.000	-0.056	0.171
-168.881	91.651	0.117	-0.131
-167.866	61.920	0.045	0.045
-166.852	-200.000	-0.045	0.243
-165.837	221.788	-0.086	-0.137
-164.823	51.824	-0.257	0.244
-163.808	-192.145	0.285	-0.003
-162.793	-62.286	0.240	-0.099
-161.779	-14.407	-0.197	0.126
-160.764	800.000	-0.050	-0.193
-159.750	-200.000	0.012	0.160
-158.735	43.886	0.071	0.065
-157.720	-68.059	0.334	-0.130
-156.706	-162.094	-0.271	-0.014
-155.691	11.439	0.208	0.159
-154.677	-200.000	-0.045	0.245
-153.662	-121.490	0.079	-0.013
-152.647	800.000	-0.057	-0.195
-151.633	526.470	0.072	0.170
-150.618	-200.000	0.025	0.129
-149.604	-200.000	0.018	0.366
-148.589	-15.199	0.139	-0.089
-147.574	-200.000	-0.027	0.284
-146.560	800.000	0.128	-0.482
-145.545	0.764	0.091	-0.065
-144.531	16.479	0.090	0.071
-143.516	11.484	0.377	-0.288
-142.502	-200.000	-0.009	-0.196
-141.487	726.036	0.073	-0.195
-140.472	-79.968	0.352	-0.118
-139.458	115.015	0.123	0.149
-138.443	369.061	-0.156	0.314
-137.429	203.448	-0.080	0.122
-136.414	-51.212	0.089	0.041
-135.399	-200.000	-0.069	-0.326
-134.385	-107.616	0.167	0.036
-133.370	35.999	-0.094	0.082
-132.356	345.814	0.110	-0.215
-131.341	-158.027	0.252	0.015
-130.326	-38.956	-0.212	-0.111
-129.312	800.000	0.084	-0.242
-128.297	800.000	-0.006	-0.018
-127.283	41.399	0.201	-0.181
-126.268	-182.802	-0.170	0.003
-125.253	-1.184	0.137	-0.096
-124.239	-170.638	0.329	-0.011
-123.224	-41.091	0.198	0.102
-122.210	-89.992	-0.197	-0.057
-121.195	240.536	-0.114	-0.190
-120.180	411.682	-0.085	0.179
-119.166	-200.000	0.005	0.213
-118.151	-9.932	0.042	0.028
-117.137	539.414	0.109	0.259
-116.122	159.465	0.025	-0.035
-115.107	125.560	0.134	0.168
-114.093	-65.979	0.220	-0.088
-113.078	-200.000	-0.059	0.376
-112.064	-172.375	0.283	-0.009
-111.049	51.548	-0.272	-0.257
-110.034	-3.778	-0.124	-0.085
-109.020	-200.000	-0.027	0.153
-108.005	-200.000	0.004	-0.091
-106.991	-85.200	0.153	-0.048
-105.976	-100.192	0.371	-0.092
-104.962	-4.155	-0.098	0.068
-103.947	574.469	-0.010	-0.025
-102.932	800.000	0.084	-0.273
-101.918	-71.413	0.239	-0.089
-100.903	-200.000	-0.013	-0.274
-99.889	-200.000	0.023	-0.287
-98.874	-122.307	0.122	-0.020
-97.859	72.923	0.031	-0.032
-96.845	129.351	-0.128	-0.163
-95.830	538.106	-0.076	0.179
-94.816	229.353	-0.148	0.240
-93.801	59.426	-0.036	-0.035
-92.786	77.710	-0.239	-0.253
-91.772	-101.247	-0.129	0.031
-90.757	-131.950	0.328	-0.042
-89.743	-200.000	0.024	-0.144
-88.728	-20.938	0.097	0.059
-87.713	74.707	0.068	-0.071
-86.699	-200.000	-0.008	0.340
-85.684	-200.000	0.030	0.239
-84.670	94.140	-0.044	0.049
-83.655	-79.211	0.163	-0.055
-82.640	800.000	0.046	-0.179
-81.626	7.722	-0.338	-0.251
-80.611	213.886	0.076	0.120
-79.597	-150.817	0.151	0.011
-78.582	29.720	-0.076	-0.064
-77.567	98.723	-0.219	-0.251
-76.553	-112.623	-0.242	-0.048
-75.538	-131.514	-0.054	0.007
-74.524	-200.000	0.010	-0.158
-73.509	175.532	-0.015	0.021
-72.494	-200.000	-0.031	-0.335
-71.480	88.733	-0.200	0.221
-70.465	-43.230	-0.177	0.089
-69.451	-91.518	0.139	0.039
-68.436	120.457	0.050	0.062
-67.422	693.935	-0.069	-0.180
-66.407	583.570	-0.152	-0.371
-65.392	-34.793	-0.099	-0.054
-64.378	158.194	0.116	0.159
-63.363	-173.427	0.052	0.002
-62.349	-200.000	0.029	0.204
-61.334	30.459	-1.073	-0.910
-60.319	124.722	0.355	0.443
-59.305	-200.000	-0.232	-1.105
-58.290	74.710	0.746	0.779
-57.276	778.725	0.460	1.248
-56.261	-200.000	91.192	529.990
-55.246	578.109	1386.345	3364.475
-54.232	182.432	2620.670	3833.261
-53.217	118.022	2246.290	2746.099
-52.203	45.418	1770.577	1621.016
-51.188	38.336	1575.645	1392.302
-50.173	35.858	1547.880	1350.353
-49.159	53.078	1595.569	1515.031
-48.144	56.413	1615.276	1557.474
-47.130	38.735	1571.969	1391.669
-46.115	35.513	1556.069	1354.852
-45.100	35.305	1552.951	1350.617
-44.086	35.188	1551.573	1348.542
-43.071	35.197	1549.734	1346.953
-42.057	35.236	1547.506	1345.233
-41.042	35.246	1546.103	1344.029
-40.027	35.180	1544.788	1342.371
-39.013	35.278	1543.047	1341.490
-37.998	35.203	1541.850	1339.876
-36.984	35.250	1540.362	1338.856
-35.969	35.213	1539.317	1337.636
-34.954	35.263	1537.818	1336.632
-33.940	35.255	1536.375	1335.267
-32.925	35.352	1534.682	1334.416
-31.911	35.278	1533.660	1332.963
-30.896	35.375	1531.889	1332.040
-29.881	35.305	1530.959	1330.698
-28.867	35.222	1529.612	1328.896
-27.852	35.338	1527.941	1328.192
-26.838	35.367	1526.037	1326.685
-25.823	35.355	1524.774	1325.452
-24.809	35.283	1523.308	1323.634
-23.794	35.318	1521.850	1322.554
-22.779	35.276	1521.104	1321.563
-21.765	35.269	1519.920	1320.431
-20.750	35.198	1518.902	1319.008
-19.736	35.272	1517.108	1317.905
-18.721	35.237	1516.735	1317.287
-17.706	35.323	1514.944	1316.271
-16.692	35.200	1514.175	1314.709
-15.677	35.228	1513.147	1313.953
-14.663	35.285	1511.826	1313.143
-13.648	35.235	1510.715	1311.785
-12.633	35.305	1509.554	1311.203
-11.619	35.185	1509.531	1310.314
-10.604	35.120	1508.670	1309.066
-9.590	35.092	1507.918	1308.173
-8.575	35.109	1506.718	1307.195
-7.560	35.229	1505.320	1306.749
-6.546	35.243	1504.497	1306.076
-5.531	35.289	1503.754	1305.698
-4.517	35.252	1503.012	1304.744
-3.502	35.251	1501.510	1303.384
-2.487	35.197	1501.107	1302.618
-1.473	35.204	1499.536	1301.248
-0.458	35.252	1498.359	1300.501
0.556	35.930	1489.259	1291.376
1.571	33.555	1462.923	1252.755
2.586	30.147	1399.677	1176.898
3.600	28.336	1314.310	1094.210
4.615	26.135	1265.938	1041.170
5.629	21.969	1206.866	969.538
6.644	12.703	1117.797	850.273
7.659	5.338	1074.824	780.833
8.673	4.222	1069.113	771.065
9.688	4.284	1065.600	768.770
10.702	4.138	1064.475	767.168
11.717	4.356	1062.782	766.960
12.731	6.792	1065.757	781.098
13.746	15.358	1077.617	832.392
14.761	20.950	1084.061	865.133
15.775	20.364	1082.216	860.678
16.790	19.340	1080.137	853.882
17.804	18.138	1078.270	846.383
18.819	17.286	1076.156	840.439
19.834	16.907	1074.775	837.416
20.848	16.587	1073.938	835.109
21.863	16.402	1073.201	833.551
22.877	16.240	1072.376	832.036
23.892	16.068	1071.428	830.379
24.907	15.956	1070.401	828.961
25.921	16.042	1069.456	828.577
26.936	15.990	1068.654	827.628
27.950	15.975	1067.802	826.820
28.965	15.944	1067.343	826.238
29.980	16.017	1065.851	825.370
30.994	16.274	1064.421	825.445
32.009	16.136	1063.929	824.319
33.023	16.238	1063.093	824.095
34.038	16.353	1061.980	823.720
35.053	16.184	1061.316	822.305
36.067	16.113	1060.152	820.988
37.082	16.071	1059.390	820.122
38.096	16.011	1058.509	819.076
39.111	16.115	1057.887	819.025
40.126	16.266	1056.968	818.974
41.140	16.121	1055.937	817.401
42.155	15.860	1054.822	815.202
43.169	15.842	1053.700	814.175
44.184	15.932	1052.482	813.597
45.199	15.873	1050.925	812.036
46.213	15.695	1050.605	810.860
47.228	15.877	1049.616	810.900
48.242	15.943	1048.735	810.464
49.257	15.982	1047.604	809.708
50.271	16.047	1046.580	809.154
51.286	16.171	1045.323	808.705
52.301	16.109	1045.257	808.286
53.315	16.097	1044.310	807.428
54.330	16.020	1043.291	806.199
55.344	15.977	1042.087	804.992
56.359	15.882	1041.159	803.748
57.374	15.940	1040.253	803.256
58.388	16.021	1039.241	802.789
59.403	15.868	1038.609	801.504
60.417	15.815	1037.910	800.637
61.432	15.691	1037.459	799.629
62.447	15.787	1036.405	799.204
63.461	15.690	1035.719	798.144
64.476	15.717	1034.513	797.272
65.490	15.678	1033.757	796.434
66.505	15.658	1032.701	795.453
67.520	15.706	1031.926	795.016
68.534	15.641	1031.482	794.295
69.549	15.683	1030.616	793.758
70.563	15.738	1029.749	793.279
71.578	15.692	1028.977	792.394
72.593	15.645	1028.046	791.389
73.607	15.485	1026.862	789.653
74.622	15.563	1026.101	789.366
75.636	15.521	1025.313	788.489
76.651	15.477	1024.596	787.665
77.666	15.638	1023.668	787.638
78.680	15.555	1022.859	786.556
79.695	15.489	1022.860	786.176
80.709	15.667	1021.816	786.137
81.724	15.649	1021.277	785.568
82.739	15.565	1020.961	784.863
83.753	15.753	1019.576	784.605
84.768	15.950	1018.716	784.792
85.782	16.157	1018.072	785.193
86.797	16.095	1017.588	784.459
87.812	16.141	1016.701	783.921
88.826	16.113	1015.582	782.862
89.841	15.953	1014.727	781.391
90.855	16.113	1014.099	781.576
91.870	16.089	1013.366	780.832
92.884	16.037	1013.025	780.261
93.899	16.061	1012.234	779.694
94.914	16.145	1011.064	779.113
95.928	16.146	1010.725	778.784
96.943	16.160	1009.861	778.115
97.957	16.135	1008.572	776.936
98.972	16.153	1007.561	776.171
99.987	16.121	1007.016	775.538
101.001	16.063	1006.432	774.754
102.016	16.106	1005.529	774.185
103.030	16.198	1004.557	773.792
104.045	16.044	1003.893	772.507
105.060	16.184	1002.605	772.085
106.074	16.170	1001.526	771.126
107.089	15.927	1000.751	769.347
108.103	15.700	999.961	767.639
109.118	15.762	998.855	767.001
110.133	15.663	998.030	765.851
111.147	15.617	997.247	764.974
112.162	15.684	996.281	764.468
113.176	15.700	995.508	763.880
114.191	15.779	994.972	763.760
115.206	16.018	993.514	763.657
116.220	15.842	993.253	762.592
117.235	15.703	992.239	761.115
118.249	15.820	991.249	760.817
119.264	15.780	990.669	760.123
120.279	15.853	989.483	759.475
121.293	15.745	988.826	758.420
122.308	15.654	988.105	757.389
123.322	15.737	986.846	756.730
124.337	15.587	986.166	755.467
125.352	15.583	984.498	754.103
126.366	15.561	983.512	753.185
127.381	15.608	982.357	752.442
128.395	15.559	981.783	751.718
129.410	15.685	980.569	751.285
130.424	15.636	979.877	750.469
131.439	15.789	978.977	750.397
132.454	15.910	978.505	750.508
133.468	15.750	978.052	749.383
134.483	15.901	976.932	749.127
135.497	15.911	976.525	748.795
136.512	15.917	975.797	748.198
137.527	15.948	974.612	747.360
138.541	15.889	973.852	746.448
139.556	15.969	973.134	746.186
140.570	15.950	972.584	745.614
141.585	16.014	971.871	745.285
142.600	16.151	971.354	745.426
143.614	16.177	970.148	744.554
144.629	16.094	969.866	743.905
145.643	16.253	969.084	743.938
146.658	16.132	968.333	742.763
147.673	16.094	967.338	741.769
148.687	16.081	965.999	740.618
149.702	15.986	965.046	739.405
150.716	15.970	964.016	738.479
151.731	15.864	963.373	737.458
152.746	15.854	962.662	736.806
153.760	16.029	961.539	736.644
154.775	15.879	961.344	735.775
155.789	16.126	960.227	735.931
156.804	16.134	959.853	735.617
157.819	16.141	959.067	734.978
158.833	16.169	958.463	734.575
159.848	16.206	957.961	734.284
160.862	16.193	957.568	733.860
161.877	16.180	956.444	732.877
162.892	16.096	955.553	731.768
163.906	16.010	954.441	730.477
164.921	15.878	953.798	729.350
165.935	15.887	952.829	728.581
166.950	15.894	952.037	727.943
167.964	15.916	951.030	727.204
168.979	16.127	949.674	727.013
169.994	15.991	949.128	725.943
171.008	15.932	948.150	724.876
172.023	15.979	947.299	724.363
173.037	16.154	946.305	724.291
174.052	16.211	945.801	724.087
175.067	16.211	945.138	723.514
176.081	16.075	943.901	721.923
177.096	15.994	943.422	721.144
178.110	16.005	942.410	720.355
179.125	16.118	941.518	720.093
180.140	15.971	941.332	719.260
181.154	16.037	940.070	718.510
182.169	16.209	939.562	718.794
183.183	16.233	939.340	718.660
184.198	16.318	938.573	718.373
185.213	16.332	938.076	717.989
186.227	16.353	937.056	717.233
187.242	16.313	937.126	717.054
188.256	16.476	936.162	716.943
189.271	16.499	935.227	716.262
190.286	16.439	934.702	715.544
191.300	16.190	933.634	713.608
192.315	16.042	932.961	712.403
193.329	15.913	931.991	711.056
194.344	16.005	931.126	710.723
195.359	15.985	930.949	710.440
196.373	16.166	930.152	710.532
197.388	16.187	930.056	710.485
198.402	16.425	929.440	710.950
199.417	16.583	928.809	711.071
200.432	16.541	929.108	711.058
201.446	16.508	928.743	710.577
202.461	16.738	927.687	710.673
203.475	16.835	927.262	710.693
204.490	16.864	926.180	709.920
205.504	16.708	925.434	708.635
206.519	16.580	924.650	707.434
207.534	16.468	924.175	706.540
208.548	16.504	923.286	705.949
209.563	16.459	922.552	705.139
210.577	16.540	922.031	705.015
211.592	16.618	921.147	704.600
212.607	16.488	920.972	703.864
213.621	16.628	920.524	704.040
214.636	16.672	919.982	703.746
215.650	16.643	919.106	702.894
216.665	16.615	918.462	702.223
217.680	16.770	918.039	702.482
218.694	16.829	917.462	702.223
219.709	16.904	916.942	702.070
220.723	16.967	915.919	701.487
221.738	16.777	915.635	700.423
222.753	16.746	914.836	699.621
223.767	16.798	913.992	699.130
224.782	16.760	913.533	698.558
225.796	16.846	913.163	698.566
226.811	16.961	912.192	698.238
227.826	17.013	911.189	697.620
228.840	16.923	910.548	696.700
229.855	16.883	909.852	695.941
230.869	16.908	909.216	695.496
231.884	16.816	908.600	694.587
232.899	16.829	907.618	693.827
233.913	16.676	907.188	692.811
234.928	16.584	906.402	691.774
235.942	16.638	905.822	691.488
236.957	16.618	904.910	690.649
237.972	16.689	904.206	690.342
238.986	16.881	903.476	690.505
240.001	16.704	903.265	689.564
241.015	16.797	902.227	689.088
242.030	16.813	901.609	688.620
243.045	16.900	901.192	688.594
244.059	16.922	900.036	687.738
245.074	16.971	899.703	687.622
246.088	16.881	899.757	687.237
247.103	16.934	899.234	686.989
248.117	17.037	898.142	686.513
249.132	17.137	897.431	686.315
250.147	17.298	896.931	686.518
251.161	17.387	896.573	686.545
252.176	17.450	895.975	686.281
253.190	17.446	895.012	685.465
254.205	17.521	894.635	685.418
255.220	17.667	893.647	685.189
256.234	17.560	893.093	684.272
257.249	17.610	892.738	684.141
258.263	17.617	891.947	683.502
259.278	17.455	891.688	682.593
260.293	17.522	891.471	682.635
261.307	17.532	890.477	681.855
262.322	17.540	889.975	681.442
263.336	17.561	889.680	681.238
264.351	17.747	888.695	681.170
265.366	17.781	887.831	680.579
266.380	17.623	887.803	679.869
267.395	17.646	887.122	679.380
268.409	17.660	886.147	678.628
269.424	17.684	885.222	677.954
270.439	17.656	884.156	676.967
271.453	17.624	883.703	676.431
272.468	17.618	883.019	675.825
273.482	17.591	882.208	675.037
274.497	17.480	881.815	674.240
275.512	17.611	880.674	673.827
276.526	17.580	879.951	673.089
277.541	17.665	879.511	673.027
278.555	17.562	879.384	672.466
279.570	17.590	878.447	671.800
280.585	17.733	878.317	672.205
281.599	17.901	877.441	672.135
282.614	17.726	876.829	670.919
283.628	17.756	875.949	670.304
284.643	17.860	875.381	670.219
285.657	17.724	874.958	669.301
286.672	17.700	874.603	668.876
287.687	17.699	874.066	668.402
288.701	17.768	873.436	668.132
289.716	17.810	872.580	667.585
290.730	17.802	872.237	667.230
291.745	17.879	871.291	666.748
292.760	17.880	870.977	666.455
293.774	17.847	870.021	665.533
294.789	17.857	869.723	665.287
295.803	17.987	869.298	665.409
296.818	17.946	868.484	664.567
297.833	17.847	867.884	663.663
298.847	17.907	867.146	663.275
299.862	17.867	866.183	662.322
300.876	17.974	865.669	662.288
301.891	17.953	864.969	661.611
302.906	18.116	864.313	661.682
303.920	18.201	863.747	661.518
304.935	18.270	863.451	661.502
305.949	18.290	862.857	661.066
306.964	18.283	862.169	660.452
307.979	18.279	861.180	659.619
308.993	18.224	860.903	659.137
310.008	18.275	860.293	658.807
311.022	18.299	860.051	658.657
312.037	18.256	859.367	657.908
313.052	18.184	858.856	657.184
314.066	18.040	858.152	656.035
315.081	18.009	857.584	655.424
316.095	18.043	856.838	654.927
317.110	18.151	855.983	654.627
318.125	18.115	855.888	654.361
319.139	18.037	855.629	653.806
320.154	18.021	854.735	653.001
321.168	18.027	854.317	652.648
322.183	18.069	853.540	652.158
323.197	18.152	853.015	652.017
324.212	18.261	852.388	651.892
325.227	18.170	852.181	651.332
326.241	18.158	851.414	650.640
327.256	18.182	850.492	649.969
328.270	18.193	850.172	649.710
329.285	18.119	849.812	649.096
330.300	18.193	848.976	648.681
331.314	18.085	848.423	647.792
332.329	18.188	847.649	647.533
333.343	18.251	847.380	647.509
334.358	18.420	846.767	647.623
335.373	18.341	846.397	646.983
336.387	18.462	845.330	646.566
337.402	18.592	845.049	646.784
338.416	18.465	844.284	645.663
339.431	18.469	844.074	645.462
340.446	18.618	843.621	645.619
341.460	18.726	842.736	645.292
342.475	18.914	841.951	645.339
343.489	18.722	841.847	644.479
344.504	18.817	841.541	644.547
345.519	18.869	840.804	644.121
346.533	18.906	840.151	643.700
347.548	18.933	839.862	643.524
348.562	18.705	839.431	642.283
349.577	18.652	838.865	641.593
350.592	18.592	838.338	640.911
351.606	18.645	837.561	640.459
352.621	18.678	836.869	639.995
353.635	18.608	836.578	639.457
354.650	18.744	836.115	639.550
355.665	18.711	835.561	638.948
356.679	18.710	835.376	638.746
357.694	18.748	834.911	638.477
358.708	18.724	833.997	637.631
359.723	18.668	833.403	636.912
360.738	18.869	832.740	637.096
361.752	18.689	832.460	636.156
362.767	18.905	831.875	636.456
363.781	18.961	831.665	636.443
364.796	18.897	831.582	636.088
365.810	19.008	831.195	636.147
366.825	19.182	830.769	636.407
367.840	19.075	830.686	635.891
368.854	19.194	829.669	635.496
369.869	19.084	829.108	634.603
370.883	19.066	828.487	634.005
371.898	19.079	827.714	633.407
372.913	19.189	827.582	633.655
373.927	19.184	827.027	633.155
374.942	19.197	826.089	632.429
375.956	19.109	825.560	631.645
376.971	19.205	824.990	631.506
377.986	19.332	824.319	631.401
379.000	19.392	823.700	631.090
380.015	19.266	823.950	630.762
381.029	19.472	822.776	630.561
382.044	19.362	822.347	629.774
383.059	19.259	821.699	628.849
384.073	19.386	821.489	629.094
385.088	19.388	820.586	628.356
386.102	19.230	820.322	627.521
387.117	19.274	819.189	626.761
388.132	19.181	818.879	626.130
389.146	19.333	818.366	626.233
390.161	19.196	818.465	625.755
391.175	19.480	817.895	626.297
392.190	19.445	817.687	625.956
393.205	19.318	817.320	625.156
394.219	19.234	816.755	624.365
395.234	19.142	816.271	623.608
396.248	19.231	815.456	623.250
397.263	19.259	814.855	622.837
398.278	19.182	814.620	622.326
399.292	19.180	813.830	621.659
400.307	19.213	813.575	621.529
401.321	19.253	813.126	621.274
402.336	19.304	812.549	620.962
403.350	19.404	812.165	620.974
404.365	19.334	811.995	620.537
405.380	19.345	811.658	620.263
406.394	19.561	811.232	620.660
407.409	19.676	810.593	620.529
408.423	19.697	810.387	620.391
409.438	19.668	809.756	619.752
410.453	19.736	809.506	619.747
411.467	19.749	809.289	619.573
412.482	19.716	808.450	618.757
413.496	19.760	808.184	618.657
414.511	19.859	807.867	618.712
415.526	19.909	807.239	618.356
416.540	19.839	806.920	617.807
417.555	19.733	806.653	617.170
418.569	19.952	806.232	617.574
419.584	19.909	805.629	616.905
420.599	19.805	805.113	616.085
421.613	154.516	1368.859	1785.745
422.628	134.104	1451.033	1785.845
