DTS Sentinel unit serial number:	SN413079Multiplexer serial number:	ORYXHardware model number:	OX4-SRSoftware version number:	ORYX F/W v4.00 Oryx Data Collector v3.7.2.0data status	okinstallation	princeton_trtdifferential loss correction	single-endedforward channel	channel 3reverse channel	N/Adate	2019/09/17time	22:00:35forward acquisition time	60.00reverse acquisition time	0.00gamma	496.2192k internal	0.2344k external	0.2344temperature offset calibration	0.9950default loss term (dB/km)	0.3790temperature slope calibration	1.0000multiplexer offset coefficient	1.0000multiplexer slope coefficient	1.0000fibre end	0.00T internal ref (°C)	26.06T ext. ref 1 (°C)	0.18T ext. ref 2 (°C)	18.92length (m)	temperature (°C)	Stokes	anti-Stokes-747.200	124.857	0.139	0.175
-746.185	75.257	-0.246	0.259
-745.171	96.511	0.072	0.082
-744.156	248.043	-0.087	0.147
-743.142	-88.832	0.400	-0.119
-742.127	-200.000	0.025	0.373
-741.112	-200.000	0.016	-0.313
-740.098	2.679	0.146	0.106
-739.083	26.590	0.178	0.149
-738.069	-127.806	-0.263	-0.038
-737.054	-200.000	0.024	-0.118
-736.039	-113.960	-0.076	0.015
-735.025	506.805	0.117	0.272
-734.010	293.042	-0.208	0.379
-732.996	-109.767	-0.160	-0.034
-731.981	-34.468	0.198	0.109
-730.966	-113.192	-0.228	0.045
-729.952	508.367	-0.103	-0.238
-728.937	800.000	-0.053	-0.219
-727.923	-62.319	-0.192	0.080
-726.908	116.503	0.154	0.189
-725.894	-104.218	-0.313	0.073
-724.879	-103.259	-0.131	0.031
-723.864	83.570	-0.149	-0.163
-722.850	-200.000	-0.053	-0.342
-721.835	-117.655	-0.151	0.027
-720.821	-82.800	0.276	-0.089
-719.806	-143.436	-0.405	0.039
-718.791	-91.442	-0.305	-0.087
-717.777	-181.545	0.379	0.007
-716.762	761.956	-0.007	0.019
-715.748	800.000	-0.026	0.108
-714.733	84.461	-0.155	0.170
-713.718	266.148	0.076	0.133
-712.704	183.002	-0.031	-0.046
-711.689	-20.567	0.179	-0.110
-710.675	679.024	-0.184	-0.479
-709.660	-98.140	-0.266	-0.068
-708.645	-200.000	0.030	-0.336
-707.631	800.000	-0.050	-0.207
-706.616	800.000	-0.086	0.313
-705.602	-180.256	0.189	0.004
-704.587	-200.000	-0.026	-0.174
-703.572	-40.628	-0.021	-0.011
-702.558	800.000	-0.069	-0.223
-701.543	800.000	0.029	-0.089
-700.529	-103.817	0.354	-0.083
-699.514	-125.634	-0.222	0.034
-698.499	-122.371	0.120	0.019
-697.485	-200.000	0.039	0.245
-696.470	58.361	0.209	0.205
-695.456	162.219	-0.118	0.165
-694.441	52.236	-0.134	0.128
-693.426	-7.412	-0.116	-0.079
-692.412	-128.470	0.191	-0.027
-691.397	108.778	0.196	-0.234
-690.383	21.205	0.145	-0.118
-689.368	-48.674	-0.081	0.039
-688.354	-200.000	0.048	0.315
-687.339	-38.017	0.252	0.134
-686.324	-200.000	0.006	0.052
-685.310	800.000	0.036	0.105
-684.295	56.809	0.103	-0.100
-683.281	-85.226	-0.296	-0.092
-682.266	-142.929	-0.461	0.045
-681.251	312.656	0.093	-0.175
-680.237	-190.027	-0.242	0.003
-679.222	8.669	0.063	0.047
-678.208	-83.769	-0.225	-0.072
-677.193	-200.000	-0.038	-0.264
-676.178	-105.007	0.269	0.061
-675.164	-53.404	0.227	0.104
-674.149	-100.096	0.051	-0.013
-673.135	-152.655	-0.424	-0.030
-672.120	567.754	0.134	-0.325
-671.105	-200.000	0.064	-0.414
-670.091	3.423	-0.087	-0.063
-669.076	-94.628	0.260	-0.070
-668.062	-200.000	0.027	0.207
-667.047	112.029	-0.134	-0.162
-666.032	-180.454	-0.098	-0.002
-665.018	175.503	-0.007	-0.010
-664.003	-200.000	0.014	-0.075
-662.989	51.524	0.068	0.064
-661.974	-53.988	-0.273	0.124
-660.959	-75.863	-0.292	-0.103
-659.945	800.000	0.043	0.174
-658.930	800.000	0.071	0.207
-657.916	73.586	0.106	-0.110
-656.901	-49.368	0.178	-0.085
-655.886	582.810	-0.085	0.209
-654.872	37.409	0.027	0.024
-653.857	-130.971	0.241	0.032
-652.843	238.559	-0.090	-0.150
-651.828	37.405	0.259	-0.229
-650.814	172.098	0.150	0.214
-649.799	-24.933	-0.320	0.189
-648.784	-200.000	-0.003	0.242
-647.770	-71.066	0.065	0.025
-646.755	-63.952	0.167	-0.068
-645.741	-27.671	-0.039	-0.023
-644.726	-92.147	-0.308	0.087
-643.711	169.123	-0.183	-0.260
-642.697	738.839	-0.070	0.187
-641.682	-155.791	-0.278	0.018
-640.668	-93.625	-0.198	0.055
-639.653	-200.000	-0.017	-0.343
-638.638	-111.651	-0.375	0.076
-637.624	162.314	0.272	-0.381
-636.609	-9.708	0.180	0.120
-635.595	89.150	0.071	-0.079
-634.580	-200.000	0.009	-0.148
-633.565	161.543	-0.140	-0.195
-632.551	117.848	0.198	0.244
-631.536	-64.272	0.207	0.084
-630.522	-59.358	-0.277	-0.119
-629.507	800.000	0.044	-0.147
-628.492	43.908	0.287	-0.262
-627.478	131.771	-0.063	0.081
-626.463	-3.383	0.031	-0.022
-625.449	35.593	0.187	0.163
-624.434	-116.057	-0.051	0.009
-623.419	-200.000	-0.079	0.553
-622.405	-90.809	-0.148	0.043
-621.390	204.577	-0.098	0.151
-620.376	-91.432	0.244	-0.069
-619.361	-70.860	-0.090	-0.034
-618.346	67.440	0.047	0.048
-617.332	66.936	-0.130	-0.132
-616.317	-5.677	-0.050	0.034
-615.303	800.000	-0.045	0.140
-614.288	800.000	-0.073	0.212
-613.273	61.495	0.008	0.008
-612.259	-122.287	0.164	-0.027
-611.244	800.000	0.119	0.459
-610.230	-200.000	0.074	-0.347
-609.215	-96.335	-0.297	-0.078
-608.201	292.074	0.111	0.202
-607.186	-200.000	0.006	-0.099
-606.171	137.819	-0.133	0.174
-605.157	-108.282	0.048	0.010
-604.142	23.146	0.299	-0.244
-603.128	-78.278	-0.139	0.047
-602.113	115.677	0.065	0.079
-601.098	61.905	-0.295	-0.292
-600.084	114.312	-0.233	-0.283
-599.069	-96.327	-0.099	0.026
-598.055	-41.080	0.324	0.167
-597.040	166.690	-0.148	0.208
-596.025	-55.013	-0.108	0.048
-595.011	-61.778	0.317	0.132
-593.996	-106.830	-0.125	0.028
-592.982	-200.000	-0.002	0.104
-591.967	-200.000	0.026	0.307
-590.952	-119.886	0.242	-0.041
-589.938	28.560	-0.178	0.150
-588.923	-127.827	-0.284	0.041
-587.909	-200.000	0.014	-0.154
-586.894	-200.000	0.029	0.270
-585.879	-43.056	0.238	0.120
-584.865	289.913	0.040	-0.073
-583.850	-29.519	0.049	-0.028
-582.836	80.918	-0.094	-0.101
-581.821	-56.804	-0.154	-0.068
-580.806	-144.577	0.317	0.029
-579.792	49.859	0.117	-0.110
-578.777	125.334	0.018	0.022
-577.763	184.575	-0.118	-0.173
-576.748	95.646	-0.057	0.065
-575.733	92.414	-0.049	-0.055
-574.719	-33.086	0.167	0.092
-573.704	-85.216	-0.119	0.037
-572.690	-144.493	0.307	-0.028
-571.675	-200.000	-0.017	0.149
-570.661	-23.697	-0.172	-0.102
-569.646	240.695	-0.127	-0.211
-568.631	-81.034	0.197	0.065
-567.617	-123.335	0.255	0.040
-566.602	105.361	0.136	0.160
-565.588	800.000	0.083	-0.231
-564.573	-69.067	0.149	0.057
-563.558	-6.564	0.054	0.036
-562.544	-53.103	-0.071	-0.033
-561.529	-26.467	0.173	-0.101
-560.515	-110.030	-0.096	-0.020
-559.500	308.135	-0.110	-0.203
-558.485	-146.577	-0.095	0.008
-557.471	-103.604	0.184	-0.043
-556.456	800.000	-0.051	0.145
-555.442	295.666	-0.065	0.119
-554.427	-169.303	-0.264	0.010
-553.412	-29.638	0.015	0.009
-552.398	160.405	0.198	-0.274
-551.383	-158.084	0.092	-0.005
-550.369	-46.077	-0.152	-0.074
-549.354	-18.359	0.086	-0.053
-548.339	-165.062	0.288	-0.013
-547.325	800.000	0.038	-0.128
-546.310	-200.000	0.117	0.000
-545.296	3.382	0.394	0.285
-544.281	143.816	-0.080	-0.105
-543.266	265.282	0.088	0.152
-542.252	-7.346	-0.168	0.113
-541.237	-143.715	-0.208	0.020
-540.223	-97.697	0.320	-0.082
-539.208	-200.000	0.002	0.261
-538.193	-101.930	0.243	-0.058
-537.179	-13.145	-0.248	0.160
-536.164	800.000	-0.083	-0.256
-535.150	763.230	-0.105	0.284
-534.135	-200.000	-0.007	-0.216
-533.121	703.912	-0.023	-0.061
-532.106	214.509	0.030	0.047
-531.091	-200.000	-0.020	-0.315
-530.077	-12.432	0.106	-0.069
-529.062	194.814	0.113	-0.170
-528.048	-66.052	-0.187	0.074
-527.033	-200.000	0.016	0.093
-526.018	-200.000	-0.009	-0.121
-525.004	26.808	-0.142	-0.118
-523.989	-200.000	0.017	0.133
-522.975	-200.000	-0.026	-0.171
-521.960	-200.000	-0.008	-0.127
-520.945	17.060	0.256	-0.201
-519.931	-200.000	0.026	-0.198
-518.916	12.036	-0.130	-0.099
-517.902	57.076	0.175	0.169
-516.887	539.060	0.051	0.119
-515.872	-200.000	0.016	0.115
-514.858	758.427	0.171	-0.460
-513.843	45.330	0.182	-0.166
-512.829	800.000	-0.074	0.212
-511.814	22.156	-0.061	-0.049
-510.799	-72.240	-0.370	-0.136
-509.785	-96.663	0.216	0.057
-508.770	-82.912	-0.396	0.127
-507.756	763.197	-0.209	0.563
-506.741	152.772	-0.178	-0.241
-505.726	-165.950	-0.085	0.004
-504.712	-200.000	-0.028	0.291
-503.697	162.123	-0.209	-0.290
-502.683	-142.560	0.214	-0.021
-501.668	-200.000	0.029	-0.191
-500.653	-200.000	0.016	-0.241
-499.639	142.653	-0.078	0.103
-498.624	45.410	-0.050	0.046
-497.610	430.919	0.144	-0.309
-496.595	244.446	-0.082	0.136
-495.581	-92.014	-0.224	0.063
-494.566	73.707	-0.028	0.029
-493.551	-200.000	0.038	0.606
-492.537	11.853	-0.278	0.212
-491.522	37.833	-0.148	0.130
-490.508	-200.000	-0.050	0.337
-489.493	115.484	0.297	-0.360
-488.478	114.076	0.196	-0.237
-487.464	311.089	0.120	-0.223
-486.449	755.574	-0.147	-0.393
-485.435	-120.617	-0.230	0.039
-484.420	-173.286	0.053	0.002
-483.405	395.297	0.048	0.100
-482.391	-200.000	0.026	0.158
-481.376	20.495	0.184	-0.148
-480.362	-200.000	0.020	-0.199
-479.347	280.366	0.041	-0.073
-478.332	-200.000	-0.048	0.227
-477.318	156.966	0.024	0.033
-476.303	584.064	-0.053	0.129
-475.289	-12.471	0.212	-0.137
-474.274	-114.724	-0.194	0.037
-473.259	233.024	0.125	-0.204
-472.245	-109.864	-0.187	0.039
-471.230	-200.000	0.033	-0.271
-470.216	-99.583	-0.126	-0.031
-469.201	-10.446	0.181	-0.119
-468.186	-14.263	0.220	0.140
-467.172	-162.889	0.018	-0.001
-466.157	37.333	-0.155	0.136
-465.143	-143.085	-0.141	-0.013
-464.128	800.000	0.078	0.328
-463.113	41.842	-0.070	-0.063
-462.099	-200.000	0.048	-0.207
-461.084	118.857	0.148	-0.180
-460.070	-59.595	0.289	-0.123
-459.055	7.763	-0.046	-0.034
-458.040	94.325	0.266	-0.299
-457.026	-98.974	-0.300	0.075
-456.011	-111.666	0.207	0.042
-454.997	800.000	-0.077	0.287
-453.982	-194.233	-0.307	0.002
-452.968	151.465	-0.043	-0.058
-451.953	-8.867	0.099	-0.065
-450.938	-200.000	-0.002	-0.248
-449.924	527.326	-0.087	-0.203
-448.909	-198.612	-0.126	-0.001
-447.895	-27.249	0.395	-0.228
-446.880	-159.465	-0.251	0.014
-445.865	-61.553	0.271	-0.112
-444.851	800.000	-0.006	0.023
-443.836	-9.426	-0.217	0.144
-442.822	-55.497	-0.019	0.008
-441.807	-88.022	-0.301	0.090
-440.792	-103.257	-0.282	-0.066
-439.778	800.000	-0.059	0.185
-438.763	56.260	-0.142	-0.136
-437.749	-37.131	-0.248	-0.131
-436.734	800.000	-0.081	-0.328
-435.719	-200.000	0.004	0.155
-434.705	95.489	-0.343	-0.387
-433.690	-200.000	-0.030	-0.138
-432.676	196.460	-0.099	0.150
-431.661	0.959	0.347	0.246
-430.646	-84.279	0.150	-0.047
-429.632	-16.178	0.215	-0.135
-428.617	-200.000	-0.047	-0.354
-427.603	800.000	0.083	0.283
-426.588	463.343	0.068	0.151
-425.573	154.553	0.254	0.345
-424.559	-103.474	-0.117	0.027
-423.544	127.337	-0.188	-0.236
-422.530	129.196	0.122	0.153
-421.515	-9.833	0.106	-0.070
-420.500	261.720	-0.037	0.063
-419.486	478.560	-0.042	0.094
-418.471	157.325	0.181	0.248
-417.457	191.832	-0.125	-0.186
-416.442	800.000	0.115	0.417
-415.428	-32.409	-0.226	-0.125
-414.413	-157.116	0.103	-0.006
-413.398	-200.000	-0.038	0.171
-412.384	-200.000	-0.052	-0.255
-411.369	24.783	0.173	-0.141
-410.355	648.735	0.076	-0.191
-409.340	-48.503	-0.192	-0.091
-408.325	86.210	0.026	0.028
-407.311	95.422	0.255	0.288
-406.296	127.773	-0.119	-0.149
-405.282	-200.000	-0.026	-0.123
-404.267	-67.770	-0.308	0.119
-403.252	-28.911	0.204	0.115
-402.238	-168.650	0.310	0.012
-401.223	385.545	0.117	-0.239
-400.209	-200.000	-0.055	-0.292
-399.194	72.674	-0.099	0.102
-398.179	-72.307	0.331	0.121
-397.165	297.124	-0.087	-0.157
-396.150	-41.665	0.266	-0.135
-395.136	-21.640	-0.137	-0.083
-394.121	60.136	-0.083	-0.081
-393.106	-200.000	0.031	-0.238
-392.092	20.178	-0.213	-0.169
-391.077	-153.120	-0.068	0.005
-390.063	231.073	0.285	-0.461
-389.048	51.774	0.317	-0.298
-388.033	-200.000	-0.008	0.284
-387.019	169.738	-0.133	-0.188
-386.004	337.196	0.035	0.067
-384.990	279.817	0.070	-0.123
-383.975	-59.642	0.313	0.132
-382.960	114.977	-0.203	-0.244
-381.946	-200.000	-0.022	0.314
-380.931	-89.729	0.200	-0.058
-379.917	-200.000	-0.014	-0.182
-378.902	-111.491	0.269	-0.054
-377.888	-121.242	0.253	-0.042
-376.873	-115.892	0.337	-0.062
-375.858	-200.000	-0.009	-0.204
-374.844	-173.658	-0.102	-0.003
-373.829	-151.008	-0.136	0.010
-372.815	-152.627	-0.185	0.013
-371.800	98.621	0.161	0.183
-370.785	-200.000	-0.049	-0.545
-369.771	-115.334	-0.111	-0.021
-368.756	800.000	-0.053	-0.157
-367.742	-0.164	-0.196	-0.137
-366.727	-200.000	-0.002	0.302
-365.712	-34.166	0.044	-0.024
-364.698	271.745	-0.060	-0.105
-363.683	-177.474	-0.275	-0.007
-362.669	800.000	0.077	0.229
-361.654	208.300	0.172	-0.266
-360.639	-128.814	0.171	0.024
-359.625	188.398	-0.204	-0.301
-358.610	800.000	0.062	0.212
-357.596	7.291	-0.370	-0.272
-356.581	-17.325	-0.381	0.237
-355.566	37.432	0.306	-0.268
-354.552	-67.209	0.280	-0.109
-353.537	-100.478	-0.319	0.078
-352.523	-200.000	-0.030	0.399
-351.508	-164.030	-0.247	0.011
-350.493	135.039	-0.204	-0.261
-349.479	-123.171	-0.135	-0.021
-348.464	-200.000	-0.019	0.210
-347.450	121.567	-0.108	-0.132
-346.435	43.441	0.138	-0.124
-345.420	-200.000	-0.034	-0.148
-344.406	122.842	0.056	0.069
-343.391	13.411	0.249	0.190
-342.377	-36.174	0.107	-0.057
-341.362	-200.000	0.006	-0.157
-340.348	-170.375	0.130	-0.004
-339.333	-200.000	0.022	-0.184
-338.318	800.000	0.059	-0.210
-337.304	-72.832	0.037	0.014
-336.289	-200.000	0.010	0.460
-335.275	800.000	-0.016	-0.045
-334.260	72.658	-0.194	0.199
-333.245	233.563	-0.170	-0.275
-332.231	-141.997	0.060	0.006
-331.216	-57.369	0.325	0.140
-330.202	2.152	-0.120	0.086
-329.187	103.959	0.027	0.031
-328.172	-200.000	-0.057	-0.380
-327.158	-200.000	-0.004	0.122
-326.143	196.428	-0.215	0.322
-325.129	-28.754	-0.091	-0.051
-324.114	-200.000	-0.010	-0.100
-323.099	178.529	-0.025	0.036
-322.085	86.084	0.092	0.100
-321.070	800.000	-0.074	0.278
-320.056	-116.058	-0.177	-0.032
-319.041	15.152	-0.088	0.068
-318.026	800.000	0.067	-0.191
-317.012	800.000	-0.058	-0.158
-315.997	-58.858	-0.273	-0.116
-314.983	99.030	-0.162	-0.184
-313.968	35.903	-0.090	0.078
-312.953	134.724	0.199	0.254
-311.939	-41.406	-0.090	-0.045
-310.924	-35.336	0.147	0.079
-309.910	-76.325	-0.114	-0.039
-308.895	55.710	-0.199	-0.190
-307.880	441.847	0.106	-0.227
-306.866	-200.000	-0.006	0.264
-305.851	396.968	-0.134	-0.275
-304.837	-65.011	-0.289	0.115
-303.822	-27.224	0.118	-0.068
-302.807	155.746	0.231	0.313
-301.793	68.844	0.092	0.093
-300.778	549.071	-0.045	0.106
-299.764	19.866	-0.097	0.077
-298.749	-144.261	0.256	0.023
-297.735	-200.000	0.004	0.095
-296.720	-18.287	-0.284	-0.175
-295.705	-200.000	-0.003	-0.135
-294.691	-200.000	0.002	0.094
-293.676	-200.000	0.049	-0.213
-292.662	208.971	0.168	0.258
-291.647	-1.988	0.160	0.110
-290.632	22.139	-0.056	-0.045
-289.618	-94.614	0.213	0.057
-288.603	-116.812	0.251	-0.045
-287.589	-200.000	-0.040	-0.210
-286.574	31.787	0.249	0.211
-285.559	300.088	-0.075	0.137
-284.545	-10.934	-0.274	-0.178
-283.530	107.854	0.148	0.173
-282.516	116.714	0.183	-0.220
-281.501	-113.515	-0.510	0.098
-280.486	-200.000	0.402	0.001
-279.472	800.000	0.019	0.073
-278.457	16.849	-0.016	-0.013
-277.443	-98.374	-0.139	-0.035
-276.428	-23.094	0.351	0.208
-275.413	74.376	0.119	0.123
-274.399	498.836	-0.070	0.159
-273.384	76.881	0.096	-0.100
-272.370	182.155	0.086	0.125
-271.355	471.457	-0.043	-0.095
-270.340	368.687	0.101	-0.201
-269.326	-89.736	0.474	0.136
-268.311	-98.137	-0.357	-0.090
-267.297	249.385	-0.026	-0.043
-266.282	89.481	0.089	0.098
-265.267	-168.855	-0.138	-0.005
-264.253	394.931	-0.087	0.177
-263.238	-200.000	-0.062	-0.318
-262.224	142.634	-0.033	0.043
-261.209	-200.000	0.086	0.378
-260.195	-3.330	-0.055	0.038
-259.180	55.991	0.081	0.077
-258.165	-3.678	-0.285	0.194
-257.151	-30.216	0.141	0.078
-256.136	49.949	0.111	-0.103
-255.122	-123.670	-0.045	0.007
-254.107	-52.887	0.456	0.206
-253.092	570.357	-0.018	-0.043
-252.078	326.551	-0.136	-0.256
-251.063	502.756	0.070	0.160
-250.049	-36.010	0.091	0.048
-249.034	-112.026	0.091	-0.018
-248.019	-83.870	0.177	0.055
-247.005	311.090	0.047	-0.086
-245.990	272.286	0.033	0.058
-244.976	-101.391	-0.332	-0.079
-243.961	250.719	-0.220	0.366
-242.946	-31.871	-0.230	0.126
-241.932	439.551	0.157	0.336
-240.917	432.290	-0.065	-0.139
-239.903	130.254	-0.095	0.120
-238.888	-102.557	0.273	-0.064
-237.873	-200.000	-0.001	0.038
-236.859	711.409	0.007	0.018
-235.844	-200.000	0.018	-0.151
-234.830	-200.000	-0.005	-0.181
-233.815	800.000	0.083	0.338
-232.800	-200.000	-0.031	-0.301
-231.786	-200.000	-0.041	0.324
-230.771	800.000	0.108	0.316
-229.757	-169.358	-0.306	0.011
-228.742	-50.228	0.311	0.144
-227.727	-11.312	0.182	-0.118
-226.713	-200.000	0.046	0.247
-225.698	800.000	0.072	0.255
-224.684	221.156	0.094	0.148
-223.669	-0.446	0.383	0.267
-222.655	437.755	0.092	0.197
-221.640	171.867	-0.191	0.269
-220.625	-200.000	0.219	0.001
-219.611	125.054	0.075	-0.093
-218.596	-21.641	-0.292	-0.174
-217.582	97.867	-0.197	-0.222
-216.567	-97.323	0.268	-0.069
-215.552	165.832	0.345	-0.478
-214.538	205.639	0.051	-0.077
-213.523	800.000	-0.090	0.275
-212.509	-132.466	-0.122	0.015
-211.494	800.000	0.091	0.267
-210.479	-83.257	0.223	0.070
-209.465	393.870	0.046	0.093
-208.450	40.430	-0.180	0.159
-207.436	74.055	0.104	-0.107
-206.421	-200.000	0.028	0.121
-205.406	311.174	0.100	0.184
-204.392	-200.000	0.015	-0.073
-203.377	800.000	-0.035	0.135
-202.363	44.122	-0.332	0.298
-201.348	37.503	-0.251	0.218
-200.333	140.071	0.230	0.297
-199.319	116.162	-0.191	0.230
-198.304	-143.720	-0.113	0.010
-197.290	-17.935	0.182	0.112
-196.275	439.477	0.056	0.120
-195.260	362.245	0.051	-0.101
-194.246	-59.528	-0.182	0.077
-193.231	-200.000	-0.032	-0.253
-192.217	-200.000	0.001	0.053
-191.202	800.000	0.020	0.061
-190.187	167.628	-0.065	-0.090
-189.173	-19.259	-0.152	-0.092
-188.158	-18.971	0.257	0.156
-187.144	132.456	-0.096	0.121
-186.129	-33.120	0.190	-0.103
-185.114	-200.000	-0.036	-0.195
-184.100	2.791	0.138	-0.098
-183.085	-17.532	-0.156	-0.096
-182.071	-18.901	-0.162	0.099
-181.056	156.565	-0.177	-0.240
-180.042	-54.384	0.119	0.053
-179.027	-22.342	0.134	0.080
-178.012	362.677	-0.140	-0.276
-176.998	-200.000	-0.002	0.103
-175.983	-200.000	0.074	-0.433
-174.969	137.710	0.180	0.230
-173.954	-97.099	-0.305	0.078
-172.939	-200.000	-0.055	-0.294
-171.925	64.626	-0.043	0.043
-170.910	-177.797	0.329	0.008
-169.896	-120.571	-0.150	-0.025
-168.881	-200.000	-0.013	0.097
-167.866	189.037	-0.317	0.465
-166.852	-57.256	-0.168	-0.072
-165.837	0.794	0.403	-0.282
-164.823	-40.381	-0.099	0.050
-163.808	114.772	0.052	0.062
-162.793	-200.000	0.004	0.027
-161.779	79.955	-0.150	0.158
-160.764	-200.000	0.009	0.173
-159.750	-72.087	-0.478	0.174
-158.735	-172.864	-0.343	0.010
-157.720	703.923	-0.136	-0.350
-156.706	538.471	0.128	-0.298
-155.691	-18.101	0.134	-0.082
-154.677	54.471	-0.172	0.162
-153.662	170.531	-0.132	0.185
-152.647	-163.259	0.043	-0.002
-151.633	303.908	0.056	-0.102
-150.618	341.849	-0.086	0.165
-149.604	-72.700	-0.070	-0.025
-148.589	-92.662	0.136	0.037
-147.574	418.261	-0.045	0.095
-146.560	23.090	-0.107	0.086
-145.545	800.000	0.008	0.024
-144.531	38.124	0.214	0.186
-143.516	-55.059	-0.138	-0.061
-142.502	-121.543	-0.468	-0.076
-141.487	34.468	-0.210	-0.179
-140.472	26.433	-0.169	0.138
-139.458	-68.218	-0.084	0.032
-138.443	-20.838	-0.344	-0.206
-137.429	-41.044	0.165	0.083
-136.414	-130.798	0.320	0.042
-135.399	-39.365	-0.339	-0.174
-134.385	618.132	-0.184	-0.452
-133.370	102.380	-0.288	0.329
-132.356	-200.000	0.044	-0.487
-131.341	499.252	0.035	-0.079
-130.326	800.000	-0.096	-0.288
-129.312	370.581	0.093	0.185
-128.297	-197.446	0.104	0.001
-127.283	-73.218	0.169	0.060
-126.268	-200.000	-0.002	0.255
-125.253	-32.427	-0.264	0.144
-124.239	-23.550	0.216	0.126
-123.224	-118.123	0.082	-0.014
-122.210	140.016	0.202	-0.260
-121.195	800.000	0.032	0.089
-120.180	-144.537	0.316	0.029
-119.166	-8.623	-0.366	-0.240
-118.151	465.549	-0.018	0.040
-117.137	-92.941	0.158	0.043
-116.122	-10.284	0.222	-0.144
-115.107	800.000	0.097	-0.284
-114.093	800.000	-0.032	-0.095
-113.078	-90.585	0.165	-0.046
-112.064	-200.000	0.023	0.245
-111.049	169.711	-0.130	-0.182
-110.034	-19.703	0.053	0.032
-109.020	130.246	-0.096	-0.121
-108.005	-93.988	-0.239	0.064
-106.991	14.960	-0.075	-0.057
-105.976	-100.525	0.203	-0.049
-104.962	-27.632	0.480	0.272
-103.947	-116.075	0.107	-0.019
-102.932	745.513	-0.118	-0.310
-101.918	443.422	0.008	-0.016
-100.903	-200.000	-0.007	-0.187
-99.889	-2.827	0.267	0.182
-98.874	-200.000	0.064	0.380
-97.859	494.781	-0.074	0.167
-96.845	-200.000	-0.009	0.312
-95.830	-200.000	0.044	0.431
-94.816	102.088	0.131	-0.149
-93.801	208.661	0.051	0.078
-92.786	-200.000	0.046	0.236
-91.772	-48.974	0.332	0.155
-90.757	-200.000	0.019	-0.292
-89.743	46.463	0.055	0.050
-88.728	-127.033	0.083	0.012
-87.713	-200.000	-0.022	-0.119
-86.699	16.890	-0.222	-0.171
-85.684	330.878	0.128	0.241
-84.670	-42.355	0.163	-0.081
-83.655	73.681	-0.156	0.159
-82.640	-25.829	-0.294	0.169
-81.626	44.576	0.150	-0.135
-80.611	-200.000	-0.013	0.057
-79.597	-200.000	0.020	0.172
-78.582	-33.515	-0.092	0.049
-77.567	-66.702	-0.264	0.102
-76.553	105.068	-0.158	0.182
-75.538	-181.902	0.213	-0.004
-74.524	-200.000	0.059	-0.354
-73.509	275.271	-0.097	-0.168
-72.494	-47.263	0.212	-0.101
-71.480	-78.481	0.485	0.162
-70.465	263.820	-0.096	0.163
-69.451	312.052	-0.168	0.307
-68.436	-52.627	0.430	-0.194
-67.422	-171.164	-0.089	-0.003
-66.407	663.042	0.110	-0.278
-65.392	-200.000	-0.062	-0.288
-64.378	-55.311	0.087	0.038
-63.363	-11.470	0.142	-0.091
-62.349	48.022	0.060	-0.055
-61.334	139.578	-0.867	-1.113
-60.319	28.148	0.518	0.426
-59.305	-200.000	-0.129	-1.464
-58.290	668.155	0.573	1.445
-57.276	-200.000	0.395	1.731
-56.261	-200.000	117.958	602.719
-55.246	415.770	1517.642	3152.488
-54.232	150.236	2670.034	3530.170
-53.217	96.098	2145.993	2389.247
-52.203	35.757	1671.631	1431.369
-51.188	29.236	1487.897	1230.615
-50.173	26.949	1463.663	1195.475
-49.159	47.930	1527.520	1389.934
-48.144	46.757	1542.096	1395.214
-47.130	29.181	1495.265	1236.139
-46.115	26.283	1479.620	1203.882
-45.100	26.075	1475.830	1199.367
-44.086	26.118	1473.763	1197.928
-43.071	26.099	1472.095	1196.399
-42.057	26.031	1470.786	1194.835
-41.042	26.139	1469.006	1194.056
-40.027	25.986	1467.517	1191.786
-39.013	26.093	1465.488	1190.799
-37.998	25.956	1465.224	1189.631
-36.984	26.105	1464.164	1189.706
-35.969	26.042	1462.705	1188.063
-34.954	26.100	1461.189	1187.166
-33.940	26.051	1459.983	1185.815
-32.925	26.081	1458.949	1185.126
-31.911	26.029	1457.847	1183.841
-30.896	26.114	1456.462	1183.225
-29.881	26.111	1455.240	1182.166
-28.867	26.139	1453.572	1180.949
-27.852	26.015	1452.803	1179.464
-26.838	26.136	1451.173	1178.886
-25.823	26.081	1449.429	1177.062
-24.809	26.073	1448.100	1175.885
-23.794	26.024	1446.995	1174.626
-22.779	26.069	1445.853	1173.945
-21.765	26.066	1444.517	1172.794
-20.750	26.202	1442.830	1172.255
-19.736	26.079	1441.922	1170.675
-18.721	26.008	1441.437	1169.774
-17.706	26.041	1440.126	1168.881
-16.692	26.102	1438.927	1168.256
-15.677	26.104	1437.964	1167.441
-14.663	26.088	1437.358	1166.796
-13.648	26.033	1436.691	1165.851
-12.633	26.118	1435.271	1165.203
-11.619	26.027	1434.401	1163.864
-10.604	26.043	1433.802	1163.434
-9.590	26.002	1433.191	1162.628
-8.575	26.005	1432.214	1161.810
-7.560	26.019	1431.247	1161.071
-6.546	26.140	1429.964	1160.759
-5.531	26.048	1429.530	1159.769
-4.517	26.037	1428.252	1158.618
-3.502	26.083	1427.266	1158.064
-2.487	26.032	1426.638	1157.186
-1.473	26.141	1425.450	1156.871
-0.458	26.058	1424.331	1155.389
0.556	24.220	1414.065	1142.773
1.571	20.759	1390.044	1101.407
2.586	16.971	1328.912	1029.918
3.600	15.045	1248.172	956.266
4.615	14.032	1204.363	917.034
5.629	12.122	1149.523	865.136
6.644	6.104	1069.584	775.286
7.659	1.022	1032.864	724.348
8.673	0.369	1027.901	717.699
9.688	0.119	1024.866	714.326
10.702	0.087	1023.507	713.167
11.717	0.135	1021.291	711.785
12.731	2.090	1022.519	721.830
13.746	8.738	1030.898	759.287
14.761	14.981	1038.808	794.789
15.775	16.857	1040.986	805.305
16.790	16.518	1038.855	801.976
17.804	15.374	1037.306	795.291
18.819	14.616	1035.516	790.261
19.834	14.099	1033.619	786.300
20.848	13.816	1033.195	784.568
21.863	13.723	1032.285	783.368
22.877	13.369	1031.625	781.129
23.892	13.272	1030.529	779.771
24.907	13.093	1030.213	778.618
25.921	13.194	1028.828	777.981
26.936	13.114	1028.829	777.533
27.950	13.155	1028.118	777.121
28.965	13.171	1027.082	776.345
29.980	13.182	1026.025	775.529
30.994	13.339	1025.056	775.462
32.009	13.356	1024.630	775.151
33.023	13.438	1023.926	774.936
34.038	13.537	1023.040	774.660
35.053	13.359	1022.377	773.255
36.067	13.276	1021.302	771.987
37.082	13.278	1020.876	771.605
38.096	13.281	1019.449	770.472
39.111	13.310	1019.176	770.336
40.126	13.429	1017.879	769.837
41.140	13.266	1017.568	768.780
42.155	13.125	1016.474	767.228
43.169	13.184	1014.851	766.209
44.184	13.210	1014.256	765.813
45.199	13.043	1013.715	764.562
46.213	13.074	1012.641	763.830
47.228	13.173	1011.450	763.320
48.242	13.230	1010.826	763.044
49.257	13.224	1009.721	762.118
50.271	13.242	1008.345	761.091
51.286	13.283	1007.814	760.814
52.301	13.243	1007.085	760.013
53.315	13.245	1006.073	759.190
54.330	13.357	1005.334	759.081
55.344	13.123	1004.939	757.638
56.359	13.299	1003.825	757.540
57.374	13.177	1003.051	756.332
58.388	13.246	1002.279	755.995
59.403	13.148	1001.423	754.834
60.417	13.043	1000.419	753.531
61.432	13.063	1000.094	753.314
62.447	13.014	999.607	752.655
63.461	13.100	998.361	752.041
64.476	13.086	997.408	751.196
65.490	13.166	996.209	750.589
66.505	13.125	995.519	749.816
67.520	13.160	994.649	749.255
68.534	13.022	994.549	748.486
69.549	13.197	993.472	748.402
70.563	13.068	992.671	747.149
71.578	13.068	992.109	746.658
72.593	13.084	991.349	746.094
73.607	13.025	990.107	744.828
74.622	13.057	989.529	744.472
75.636	13.030	988.777	743.719
76.651	13.047	987.654	742.885
77.666	13.050	986.725	742.132
78.680	13.044	986.208	741.652
79.695	12.929	986.189	741.055
80.709	13.284	984.890	741.606
81.724	13.147	984.131	740.356
82.739	13.155	983.579	739.907
83.753	13.185	982.966	739.516
84.768	13.284	981.997	739.163
85.782	13.242	981.518	738.553
86.797	13.384	980.622	738.445
87.812	13.354	979.743	737.584
88.826	13.391	979.258	737.319
89.841	13.322	978.241	736.182
90.855	13.394	977.340	735.756
91.870	13.365	976.636	735.034
92.884	13.358	975.810	734.316
93.899	13.377	975.196	733.874
94.914	13.439	974.729	733.731
95.928	13.511	973.934	733.388
96.943	13.457	973.322	732.624
97.957	13.364	972.413	731.462
98.972	13.331	971.907	730.870
99.987	13.409	970.903	730.397
101.001	13.349	970.522	729.779
102.016	13.351	969.985	729.318
103.030	13.357	968.561	728.211
104.045	13.185	968.345	727.230
105.060	13.391	966.967	727.032
106.074	13.349	966.038	726.088
107.089	13.399	965.404	725.766
108.103	13.373	964.253	724.721
109.118	13.185	963.714	723.429
110.133	13.200	962.952	722.858
111.147	13.240	962.109	722.337
112.162	13.200	960.752	721.080
113.176	13.303	960.190	721.042
114.191	13.260	959.637	720.379
115.206	13.207	958.680	719.367
116.220	13.281	957.967	719.086
117.235	13.377	956.635	718.443
118.249	13.444	955.946	718.153
119.264	13.372	954.861	716.962
120.279	13.414	954.015	716.442
121.293	13.364	953.683	715.914
122.308	13.199	953.093	714.693
123.322	13.249	952.143	714.134
124.337	13.378	950.965	713.745
125.352	13.212	950.140	712.346
126.366	13.320	948.750	711.707
127.381	13.376	947.525	710.966
128.395	13.229	946.654	709.618
129.410	13.270	945.519	708.878
130.424	13.270	944.962	708.401
131.439	13.201	944.240	707.500
132.454	13.275	943.170	706.952
133.468	13.305	942.679	706.651
134.483	13.481	941.734	706.629
135.497	13.315	941.180	705.446
136.512	13.336	940.182	704.725
137.527	13.280	939.932	704.234
138.541	13.188	939.316	703.318
139.556	13.282	938.217	702.833
140.570	13.352	937.361	702.427
141.585	13.307	936.862	701.803
142.600	13.486	935.993	701.847
143.614	13.356	935.310	700.720
144.629	13.457	934.226	700.275
145.643	13.618	933.871	700.627
146.658	13.494	932.941	699.345
147.673	13.473	932.300	698.713
148.687	13.548	931.309	698.225
149.702	13.400	930.669	697.061
150.716	13.492	929.317	696.371
151.731	13.509	928.458	695.737
152.746	13.461	928.097	695.207
153.760	13.397	927.748	694.613
154.775	13.579	926.543	694.414
155.789	13.552	925.885	693.747
156.804	13.569	924.910	693.023
157.819	13.625	923.961	692.488
158.833	13.655	923.416	692.142
159.848	13.654	923.061	691.809
160.862	13.755	922.059	691.421
161.877	13.573	922.096	690.625
162.892	13.607	920.950	689.847
163.906	13.596	920.172	689.160
164.921	13.610	919.361	688.550
165.935	13.556	918.344	687.502
166.950	13.651	917.385	687.118
167.964	13.557	916.730	686.178
168.979	13.622	915.376	685.373
169.994	13.578	914.472	684.453
171.008	13.613	913.804	684.037
172.023	13.690	913.142	683.796
173.037	13.682	912.319	683.087
174.052	13.855	911.189	682.892
175.067	13.745	910.898	682.164
176.081	13.638	910.497	681.360
177.096	13.617	909.593	680.539
178.110	13.629	908.524	679.729
179.125	13.482	908.303	678.899
180.140	13.751	907.245	679.149
181.154	13.624	906.794	678.233
182.169	13.865	906.069	678.614
183.183	13.794	905.631	677.938
184.198	13.909	904.493	677.495
185.213	13.926	903.947	677.096
186.227	13.881	903.168	676.271
187.242	13.949	902.714	676.145
188.256	13.969	902.087	675.698
189.271	13.888	901.714	675.028
190.286	13.994	900.864	674.763
191.300	13.842	899.903	673.367
192.315	13.863	898.964	672.691
193.329	13.634	898.833	671.604
194.344	13.784	897.954	671.496
195.359	13.827	897.481	671.255
196.373	13.778	897.034	670.664
197.388	13.884	896.942	670.964
198.402	14.132	895.891	671.119
199.417	14.072	895.556	670.569
200.432	14.074	895.506	670.478
201.446	14.122	895.070	670.288
202.461	14.176	894.441	669.973
203.475	14.344	893.283	669.722
204.490	14.150	893.257	668.865
205.504	14.105	892.374	667.965
206.519	14.072	891.736	667.292
207.534	14.082	890.747	666.533
208.548	14.112	889.979	666.022
209.563	14.110	889.606	665.674
210.577	14.207	888.473	665.157
211.592	14.103	888.378	664.610
212.607	14.281	887.739	664.783
213.621	14.335	887.029	664.409
214.636	14.228	886.407	663.457
215.650	14.159	886.081	662.882
216.665	14.193	885.345	662.408
217.680	14.280	884.713	662.221
218.694	14.381	884.145	662.138
219.709	14.488	883.342	661.905
220.723	14.299	883.141	660.946
221.738	14.409	882.255	660.661
222.753	14.370	881.828	660.127
223.767	14.389	880.711	659.308
224.782	14.553	880.018	659.377
225.796	14.407	879.574	658.410
226.811	14.466	878.796	658.003
227.826	14.299	878.929	657.383
228.840	14.428	877.813	657.001
229.855	14.427	877.366	656.605
230.869	14.416	876.544	655.889
231.884	14.434	875.956	655.461
232.899	14.511	874.740	654.794
233.913	14.552	874.224	654.512
234.928	14.442	873.584	653.543
235.942	14.329	873.177	652.738
236.957	14.447	872.281	652.471
237.972	14.407	871.569	651.724
238.986	14.590	870.627	651.679
240.001	14.468	870.487	651.038
241.015	14.528	869.568	650.527
242.030	14.607	868.991	650.349
243.045	14.537	868.267	649.475
244.059	14.445	867.904	648.788
245.074	14.626	867.082	648.821
246.088	14.602	866.474	648.213
247.103	14.632	865.951	647.882
248.117	14.577	865.391	647.194
249.132	14.642	865.147	647.206
250.147	14.629	864.379	646.522
251.161	14.823	863.703	646.712
252.176	14.836	863.500	646.552
253.190	14.911	862.367	645.937
254.205	15.024	861.420	645.606
255.220	14.906	861.300	645.002
256.234	14.836	860.346	643.963
257.249	14.879	860.077	643.869
258.263	14.954	859.315	643.530
259.278	14.887	858.884	642.893
260.293	15.013	858.345	642.919
261.307	15.152	857.368	642.661
262.322	15.170	856.986	642.387
263.336	15.070	856.675	641.715
264.351	15.147	856.057	641.491
265.366	15.158	855.456	641.023
266.380	15.203	854.897	640.720
267.395	15.128	853.811	639.565
268.409	15.219	852.994	639.244
269.424	15.183	852.788	638.896
270.439	15.229	851.715	638.209
271.453	15.078	851.267	637.241
272.468	15.247	850.248	637.064
273.482	15.154	850.036	636.499
274.497	15.179	849.160	635.878
275.512	15.077	848.770	635.142
276.526	15.118	848.214	634.826
277.541	14.988	847.548	633.779
278.555	15.152	847.050	633.972
279.570	15.476	845.998	634.353
280.585	15.292	845.438	633.181
281.599	15.526	845.140	633.786
282.614	15.513	843.953	632.790
283.628	15.356	843.621	631.895
284.643	15.270	843.506	631.430
285.657	15.450	842.632	631.394
286.672	15.394	842.780	631.239
287.687	15.333	841.918	630.309
288.701	15.256	841.684	629.789
289.716	15.276	841.080	629.358
290.730	15.413	840.387	629.299
291.745	15.376	839.961	628.783
292.760	15.398	838.953	628.055
293.774	15.456	838.365	627.778
294.789	15.518	838.047	627.717
295.803	15.499	837.404	627.108
296.818	15.510	836.831	626.663
297.833	15.462	836.397	626.104
298.847	15.561	835.351	625.634
299.862	15.522	834.520	624.812
300.876	15.591	833.948	624.584
301.891	15.741	833.113	624.460
302.906	15.596	833.016	623.793
303.920	15.702	832.046	623.405
304.935	15.666	831.703	622.959
305.949	15.752	831.232	622.871
306.964	15.763	830.218	622.095
307.979	15.895	829.745	622.176
308.993	15.742	829.531	621.394
310.008	15.726	829.243	621.064
311.022	15.851	828.165	620.663
312.037	15.936	827.792	620.641
313.052	15.928	826.977	619.947
314.066	15.832	826.430	619.129
315.081	15.731	825.802	618.230
316.095	15.855	825.432	618.354
317.110	15.724	824.942	617.454
318.125	15.659	824.644	616.936
319.139	15.740	823.791	616.541
320.154	15.905	823.264	616.697
321.168	15.951	822.713	616.398
322.183	15.989	822.163	616.069
323.197	15.960	821.705	615.564
324.212	16.074	821.000	615.398
325.227	15.914	820.781	614.596
326.241	15.988	819.985	614.217
327.256	15.923	819.734	613.739
328.270	16.022	818.956	613.459
329.285	16.005	818.607	613.081
330.300	15.941	818.070	612.396
331.314	15.974	817.413	611.968
332.329	16.009	817.157	611.851
333.343	15.996	816.383	611.168
334.358	16.096	815.740	610.993
335.373	16.023	815.215	610.285
336.387	16.189	814.642	610.401
337.402	16.224	813.946	609.953
338.416	16.189	813.383	609.349
339.431	16.268	812.765	609.117
340.446	16.290	812.574	608.999
341.460	16.094	812.013	607.819
342.475	16.203	811.455	607.740
343.489	16.297	810.891	607.602
344.504	16.315	810.355	607.212
345.519	16.287	809.752	606.606
346.533	16.423	809.090	606.546
347.548	16.312	809.166	606.148
348.562	16.306	808.555	605.616
349.577	16.405	807.709	605.284
350.592	16.392	807.216	604.814
351.606	16.193	807.052	603.925
352.621	16.216	806.810	603.773
353.635	16.344	806.152	603.686
354.650	16.300	805.762	603.184
355.665	16.459	805.012	603.135
356.679	16.533	804.760	603.157
357.694	16.396	804.174	602.175
358.708	16.622	803.361	602.319
359.723	16.437	803.320	601.575
360.738	16.458	802.604	601.062
361.752	16.590	802.048	601.060
362.767	16.508	801.914	600.616
363.781	16.512	801.165	600.017
364.796	16.549	800.692	599.739
365.810	16.555	800.357	599.456
366.825	16.704	799.752	599.477
367.840	16.506	800.018	598.924
368.854	16.739	799.162	599.055
369.869	16.593	798.964	598.338
370.883	16.636	798.378	597.996
371.898	16.751	797.620	597.784
372.913	16.742	797.145	597.342
373.927	16.772	796.429	596.859
374.942	16.838	795.471	596.317
375.956	16.775	795.105	595.772
376.971	16.824	794.571	595.489
377.986	16.786	794.452	595.213
379.000	16.952	793.624	595.126
380.015	16.867	793.552	594.719
381.029	16.823	792.841	593.977
382.044	16.939	792.073	593.757
383.059	16.919	791.937	593.534
384.073	16.992	791.777	593.615
385.088	17.042	790.447	592.740
386.102	16.950	790.198	592.181
387.117	16.826	789.985	591.537
388.132	16.738	789.566	590.861
389.146	16.880	789.236	591.057
390.161	17.049	788.293	590.888
391.175	17.091	787.728	590.559
392.190	17.034	787.713	590.298
393.205	17.197	787.166	590.402
394.219	17.160	786.728	589.891
395.234	16.965	786.404	588.921
396.248	16.899	785.754	588.152
397.263	17.075	785.067	588.195
398.278	16.959	784.984	587.681
399.292	17.032	784.534	587.542
400.307	17.109	783.748	587.170
401.321	17.069	783.708	586.948
402.336	17.177	783.617	587.203
403.350	17.171	782.863	586.565
404.365	17.245	782.382	586.406
405.380	17.099	782.105	585.644
406.394	17.300	781.687	585.972
407.409	17.221	781.423	585.452
408.423	17.405	780.605	585.419
409.438	17.355	780.320	584.982
410.453	17.354	779.712	584.473
411.467	17.430	779.167	584.272
412.482	17.255	778.986	583.485
413.496	17.269	778.422	583.058
414.511	17.563	778.079	583.758
415.526	17.430	777.850	583.078
416.540	17.519	777.354	582.960
417.555	17.511	777.074	582.671
418.569	17.540	776.520	582.301
419.584	17.586	775.948	581.977
420.599	17.450	775.562	581.175
421.613	113.645	1294.884	1483.583
422.628	97.295	1370.511	1483.664
