DTS Sentinel unit serial number:	SN413079Multiplexer serial number:	ORYXHardware model number:	OX4-SRSoftware version number:	ORYX F/W v4.00 Oryx Data Collector v3.7.2.0data status	okinstallation	princeton_trtdifferential loss correction	single-endedforward channel	channel 3reverse channel	N/Adate	2019/09/11time	08:22:11forward acquisition time	60.00reverse acquisition time	0.00gamma	496.2192k internal	0.2317k external	0.2317temperature offset calibration	0.9941default loss term (dB/km)	0.3790temperature slope calibration	1.0000multiplexer offset coefficient	1.0000multiplexer slope coefficient	1.0000fibre end	0.00T internal ref (°C)	32.81T ext. ref 1 (°C)	0.08T ext. ref 2 (°C)	30.34length (m)	temperature (°C)	Stokes	anti-Stokes-747.200	-53.179	0.274	0.127
-746.185	383.725	-0.102	0.212
-745.171	258.474	0.084	-0.146
-744.156	-42.836	-0.380	0.196
-743.142	38.914	0.368	-0.333
-742.127	800.000	-0.054	0.167
-741.112	127.887	-0.119	-0.153
-740.098	709.846	-0.085	-0.229
-739.083	38.857	-0.032	0.029
-738.069	-4.180	-0.180	0.127
-737.054	311.681	-0.135	-0.256
-736.039	-29.799	-0.269	-0.155
-735.025	23.572	0.044	0.036
-734.010	532.423	-0.110	0.263
-732.996	400.304	0.043	-0.091
-731.981	186.713	-0.080	-0.121
-730.966	300.102	0.089	-0.166
-729.952	80.066	0.108	0.117
-728.937	53.085	0.162	-0.157
-727.923	436.412	-0.129	0.285
-726.908	-48.532	-0.249	-0.121
-725.894	-2.264	-0.174	-0.123
-724.879	94.176	-0.132	0.152
-723.864	170.378	-0.056	-0.081
-722.850	697.693	-0.061	0.162
-721.835	-200.000	0.009	0.152
-720.821	21.149	0.170	-0.140
-719.806	800.000	-0.046	-0.168
-718.791	-76.988	0.211	0.074
-717.777	99.833	0.203	0.238
-716.762	-56.203	-0.158	-0.071
-715.748	-63.466	-0.196	-0.081
-714.733	-108.612	-0.137	0.030
-713.718	591.036	-0.046	-0.116
-712.704	12.139	-0.162	-0.126
-711.689	245.730	0.088	-0.150
-710.675	130.479	0.187	-0.242
-709.660	110.946	-0.066	-0.080
-708.645	-200.000	0.036	-0.227
-707.631	170.508	-0.088	0.127
-706.616	-200.000	0.000	-0.020
-705.602	-150.146	-0.086	-0.007
-704.587	-200.000	-0.024	-0.201
-703.572	-200.000	-0.018	-0.096
-702.558	159.587	-0.101	0.142
-701.543	-72.625	0.290	0.108
-700.529	-65.212	-0.061	-0.025
-699.514	-171.782	-0.289	-0.010
-698.499	246.400	-0.051	0.087
-697.485	469.972	-0.072	-0.163
-696.470	78.328	-0.171	-0.185
-695.456	352.485	0.103	-0.206
-694.441	-112.396	0.203	0.041
-693.426	-80.343	-0.039	0.013
-692.412	240.781	0.165	-0.279
-691.397	-99.383	0.102	0.026
-690.383	-180.008	-0.096	0.002
-689.368	179.658	0.091	-0.135
-688.354	-109.248	0.310	0.066
-687.339	300.757	0.212	0.395
-686.324	220.771	0.121	-0.196
-685.310	-129.525	-0.385	-0.054
-684.295	-144.108	-0.180	0.017
-683.281	-60.975	-0.308	-0.131
-682.266	-66.160	0.351	0.141
-681.251	662.645	-0.053	0.138
-680.237	404.485	0.213	0.454
-679.222	-111.452	0.164	0.034
-678.208	15.725	0.038	0.030
-677.193	-97.318	-0.260	-0.068
-676.178	-59.148	-0.114	-0.050
-675.164	-35.937	-0.176	-0.096
-674.149	-17.241	0.089	-0.056
-673.135	-200.000	0.021	-0.244
-672.120	-10.847	-0.159	0.106
-671.105	-200.000	-0.008	-0.063
-670.091	2.324	-0.247	-0.180
-669.076	373.590	-0.135	0.278
-668.062	-8.807	0.201	0.136
-667.047	-193.308	-0.259	-0.002
-666.032	-156.008	-0.281	-0.018
-665.018	185.119	0.277	-0.415
-664.003	-38.699	0.247	-0.132
-662.989	-91.560	-0.057	-0.017
-661.974	6.629	0.036	-0.027
-660.959	-200.000	0.039	-0.214
-659.945	-65.476	0.181	-0.073
-658.930	34.759	-0.255	0.225
-657.916	130.496	0.126	0.163
-656.901	-105.706	-0.242	-0.055
-655.886	-134.892	0.082	-0.010
-654.872	-200.000	0.075	-0.464
-653.857	-124.479	-0.128	0.020
-652.843	-137.536	0.338	-0.038
-651.828	28.010	-0.130	-0.111
-650.814	-52.580	-0.235	-0.109
-649.799	63.314	-0.188	-0.190
-648.784	481.998	-0.141	-0.323
-647.770	-109.464	-0.119	0.025
-646.755	68.493	-0.157	-0.162
-645.741	357.216	-0.062	-0.124
-644.726	-28.562	-0.279	0.162
-643.711	-127.819	0.400	0.058
-642.697	-200.000	0.048	-0.321
-641.682	-100.666	-0.472	-0.118
-640.668	800.000	0.085	-0.314
-639.653	-200.000	-0.016	-0.242
-638.638	304.655	0.045	-0.084
-637.624	-169.182	0.048	-0.002
-636.609	544.467	-0.084	-0.203
-635.595	5.703	0.017	0.013
-634.580	-139.078	-0.140	0.015
-633.565	-152.443	-0.067	0.005
-632.551	-4.917	0.192	-0.133
-631.536	800.000	-0.063	-0.247
-630.522	-120.631	0.124	-0.021
-629.507	-31.676	0.254	-0.144
-628.492	-49.509	0.194	-0.093
-627.478	-200.000	-0.053	0.243
-626.463	-16.858	-0.044	-0.028
-625.449	153.499	0.140	-0.193
-624.434	581.307	0.093	-0.230
-623.419	-178.961	-0.281	-0.006
-622.405	-115.355	-0.216	-0.041
-621.390	-73.813	-0.118	-0.043
-620.376	421.065	0.096	-0.207
-619.361	253.600	-0.164	-0.282
-618.346	195.996	-0.106	-0.162
-617.332	10.864	-0.269	-0.207
-616.317	8.681	0.148	0.113
-615.303	332.257	-0.165	0.321
-614.288	-146.980	0.478	0.041
-613.273	-86.318	0.337	0.105
-612.259	-200.000	-0.012	-0.295
-611.244	-37.733	-0.185	-0.099
-610.230	713.620	0.141	-0.377
-609.215	-200.000	0.037	-0.225
-608.201	-146.611	0.098	0.009
-607.186	192.954	0.188	0.287
-606.171	-94.016	-0.287	0.079
-605.157	49.990	-0.210	0.200
-604.142	-30.135	0.065	-0.037
-603.128	428.558	0.026	0.056
-602.113	-70.375	0.207	-0.079
-601.098	800.000	0.090	-0.289
-600.084	-8.427	0.144	0.097
-599.069	12.649	-0.314	0.244
-598.055	-160.817	-0.115	-0.006
-597.040	-91.197	-0.201	0.058
-596.025	-29.055	-0.057	0.033
-595.011	-103.345	0.316	-0.075
-593.996	18.720	0.175	-0.141
-592.982	800.000	0.042	-0.168
-591.967	-11.601	-0.262	0.173
-590.952	800.000	-0.024	0.104
-589.938	136.848	-0.172	0.227
-588.923	751.806	0.053	0.145
-587.909	-86.244	0.110	0.034
-586.894	-128.212	-0.122	-0.018
-585.879	800.000	0.088	-0.334
-584.865	-200.000	-0.024	-0.171
-583.850	-115.030	-0.273	0.052
-582.836	341.912	-0.098	0.192
-581.821	150.439	0.211	-0.288
-580.806	3.151	-0.132	-0.097
-579.792	712.312	-0.129	0.343
-578.777	-132.831	0.185	-0.024
-577.763	800.000	-0.091	-0.291
-576.748	-134.636	0.196	0.024
-575.733	-155.669	-0.157	-0.010
-574.719	250.523	0.104	-0.178
-573.704	132.618	-0.068	0.088
-572.690	293.188	0.043	-0.078
-571.675	64.818	-0.202	0.205
-570.661	-37.651	-0.167	-0.089
-569.646	370.248	0.128	-0.260
-568.631	128.662	0.025	0.032
-567.617	-200.000	0.039	-0.197
-566.602	800.000	0.089	-0.373
-565.588	-53.622	-0.474	-0.218
-564.573	2.570	-0.116	-0.085
-563.558	-200.000	-0.003	-0.211
-562.544	-57.564	0.245	-0.108
-561.529	-113.370	0.215	-0.042
-560.515	174.625	-0.136	-0.197
-559.500	610.263	0.116	-0.290
-558.485	-95.002	-0.301	-0.082
-557.471	-117.347	-0.410	0.075
-556.456	168.798	-0.118	-0.169
-555.442	800.000	0.098	-0.366
-554.427	-124.267	-0.390	-0.061
-553.412	-22.131	-0.189	0.115
-552.398	-68.154	-0.102	-0.040
-551.383	240.095	-0.155	0.259
-550.369	176.627	0.089	0.130
-549.354	343.323	0.074	-0.146
-548.339	71.187	0.155	0.161
-547.325	-65.978	0.062	0.025
-546.310	-200.000	0.008	0.226
-545.296	800.000	-0.061	0.225
-544.281	-200.000	-0.012	-0.153
-543.266	69.477	0.091	0.094
-542.252	-8.158	0.178	-0.121
-541.237	-200.000	0.024	-0.121
-540.223	474.076	-0.114	-0.258
-539.208	359.741	0.035	-0.071
-538.193	-200.000	-0.040	0.215
-537.179	-6.209	-0.047	0.032
-536.164	-146.127	-0.109	0.010
-535.150	-27.902	-0.090	0.052
-534.135	-200.000	0.045	0.428
-533.121	151.267	-0.032	-0.044
-532.106	79.335	0.153	0.164
-531.091	218.080	0.031	-0.049
-530.077	-200.000	0.027	-0.274
-529.062	-121.095	-0.292	-0.049
-528.048	-200.000	-0.023	-0.226
-527.033	-10.023	-0.215	-0.144
-526.018	189.241	0.266	0.400
-525.004	171.058	-0.088	-0.127
-523.989	-26.187	-0.295	0.174
-522.975	122.553	0.272	0.341
-521.960	172.166	-0.223	0.322
-520.945	800.000	-0.094	-0.280
-519.931	-22.086	-0.235	0.143
-518.916	331.233	0.049	0.095
-517.902	-104.541	-0.127	-0.029
-516.887	177.421	0.189	0.276
-515.872	-21.588	-0.230	0.140
-514.858	-103.488	-0.130	0.031
-513.843	313.073	-0.094	-0.177
-512.829	295.407	0.139	0.255
-511.814	-84.403	0.272	-0.086
-510.799	-139.661	0.205	0.022
-509.785	8.598	0.215	0.163
-508.770	137.161	0.116	-0.152
-507.756	-143.379	-0.148	-0.014
-506.741	-102.140	0.174	0.042
-505.726	118.575	0.050	0.061
-504.712	-119.388	0.329	-0.057
-503.697	-55.930	-0.161	-0.072
-502.683	-200.000	-0.001	-0.314
-501.668	1.945	-0.093	0.068
-500.653	16.306	0.350	0.277
-499.639	-88.353	0.240	-0.072
-498.624	-30.725	0.138	0.078
-497.610	313.908	0.170	-0.320
-496.595	316.901	0.083	0.157
-495.581	800.000	0.055	0.229
-494.566	-96.494	-0.221	0.059
-493.551	-68.442	0.368	0.143
-492.537	-200.000	-0.004	0.338
-491.522	-200.000	0.027	-0.491
-490.508	-145.844	0.134	-0.012
-489.493	175.114	-0.057	-0.083
-488.478	-200.000	-0.012	-0.320
-487.464	95.621	-0.027	-0.031
-486.449	-99.063	0.124	-0.031
-485.435	510.848	0.028	-0.065
-484.420	-200.000	-0.013	0.141
-483.405	37.402	0.164	-0.146
-482.391	54.578	0.289	-0.279
-481.376	380.188	-0.149	0.306
-480.362	26.370	0.149	-0.125
-479.347	-112.338	0.205	0.041
-478.332	-45.061	-0.401	0.200
-477.318	107.577	-0.058	-0.069
-476.303	109.685	-0.053	0.063
-475.289	-18.651	-0.213	-0.133
-474.274	138.563	-0.039	-0.051
-473.259	64.524	0.365	-0.368
-472.245	800.000	-0.036	0.124
-471.230	688.778	-0.043	-0.113
-470.216	43.772	-0.089	-0.082
-469.201	800.000	0.050	0.191
-468.186	-53.053	-0.038	-0.018
-467.172	-44.604	-0.023	0.012
-466.157	-145.730	-0.057	-0.005
-465.143	800.000	0.027	-0.084
-464.128	11.199	-0.287	-0.220
-463.113	69.892	0.080	0.082
-462.099	583.013	-0.094	0.230
-461.084	-86.866	0.249	-0.076
-460.070	-200.000	0.047	0.249
-459.055	-97.568	-0.176	0.046
-458.040	59.756	0.100	0.099
-457.026	-68.961	0.367	0.142
-456.011	208.679	0.056	-0.088
-454.997	319.935	-0.026	0.049
-453.982	240.003	-0.022	-0.036
-452.968	22.658	0.110	-0.090
-451.953	33.745	-0.282	0.245
-450.938	-200.000	0.054	0.261
-449.924	-119.737	0.201	0.035
-448.909	-200.000	-0.034	-0.156
-447.895	-93.964	-0.372	-0.102
-446.880	231.293	0.050	0.083
-445.865	42.142	0.297	0.270
-444.851	34.407	-0.179	0.156
-443.836	138.119	0.131	0.172
-442.822	-127.080	-0.158	-0.023
-441.807	270.905	-0.021	-0.036
-440.792	-200.000	-0.038	0.246
-439.778	-24.375	-0.174	-0.104
-438.763	-200.000	-0.008	-0.123
-437.749	61.976	0.155	0.155
-436.734	141.520	-0.079	0.105
-435.719	87.375	0.154	0.171
-434.705	-200.000	-0.002	-0.163
-433.690	-88.369	-0.152	-0.045
-432.676	800.000	-0.087	0.349
-431.661	225.079	0.178	0.289
-430.646	306.337	-0.033	-0.062
-429.632	77.402	-0.210	0.223
-428.617	112.206	-0.038	0.046
-427.603	-200.000	0.018	0.151
-426.588	46.365	-0.166	0.154
-425.573	-134.847	0.217	0.026
-424.559	99.609	0.106	0.123
-423.544	-12.296	0.212	0.139
-422.530	800.000	-0.025	0.088
-421.515	-87.597	-0.077	0.023
-420.500	-38.172	-0.137	-0.072
-419.486	-8.650	0.195	-0.131
-418.471	139.810	-0.097	0.128
-417.457	-21.090	-0.333	-0.204
-416.442	-48.324	-0.061	0.029
-415.428	-200.000	-0.074	0.337
-414.413	143.542	0.075	0.099
-413.398	-135.267	0.125	0.015
-412.384	257.643	0.161	0.277
-411.369	521.901	-0.063	-0.147
-410.355	800.000	-0.083	0.333
-409.340	185.978	-0.114	0.169
-408.325	-200.000	0.010	-0.234
-407.311	152.689	0.042	0.058
-406.296	-200.000	0.001	-0.113
-405.282	214.103	-0.136	0.216
-404.267	800.000	0.082	-0.324
-403.252	-200.000	-0.001	-0.111
-402.238	84.927	0.071	0.078
-401.223	-200.000	0.057	0.370
-400.209	-82.138	-0.137	0.045
-399.194	-104.191	-0.090	-0.021
-398.179	-200.000	0.052	0.259
-397.165	165.770	-0.233	0.330
-396.150	152.939	0.141	0.192
-395.136	-200.000	-0.039	0.273
-394.121	404.807	-0.082	0.172
-393.106	0.832	0.193	-0.138
-392.092	-46.152	0.285	-0.140
-391.077	-200.000	0.005	0.068
-390.063	184.186	-0.205	-0.303
-389.048	266.233	-0.059	0.102
-388.033	0.822	-0.054	-0.039
-387.019	800.000	-0.059	-0.194
-386.004	184.337	-0.156	-0.230
-384.990	-121.342	-0.107	0.018
-383.975	40.325	0.330	-0.296
-382.960	152.312	-0.140	-0.191
-381.946	736.113	-0.045	-0.121
-380.931	-110.010	0.226	-0.047
-379.917	-65.843	-0.314	0.125
-378.902	22.241	0.097	-0.079
-377.888	-72.312	-0.122	-0.045
-376.873	-112.618	-0.225	0.045
-375.858	-98.775	0.466	0.118
-374.844	162.856	-0.131	-0.184
-373.829	-200.000	0.018	-0.129
-372.815	-18.863	-0.074	-0.046
-371.800	116.434	-0.082	-0.100
-370.785	-26.537	0.291	0.170
-369.771	61.088	-0.122	0.121
-368.756	74.208	-0.265	-0.278
-367.742	155.518	0.011	0.015
-366.727	-69.824	-0.129	-0.049
-365.712	-134.666	0.181	-0.022
-364.698	-200.000	0.008	0.090
-363.683	-45.684	-0.261	-0.129
-362.669	-200.000	0.004	0.259
-361.654	41.859	0.227	0.206
-360.639	-24.355	-0.363	0.216
-359.625	59.200	0.181	-0.178
-358.610	-162.112	0.292	0.015
-357.596	-101.280	0.292	-0.071
-356.581	-54.129	-0.244	-0.111
-355.566	88.203	-0.083	-0.091
-354.552	-189.694	0.486	-0.006
-353.537	99.200	-0.089	-0.103
-352.523	-133.707	-0.284	-0.035
-351.508	-58.777	-0.116	0.050
-350.493	6.782	-0.327	0.243
-349.479	-200.000	-0.037	0.329
-348.464	-47.704	0.123	0.060
-347.450	-200.000	0.012	0.220
-346.435	-200.000	0.006	0.069
-345.420	-80.682	-0.068	-0.023
-344.406	-170.634	0.308	0.011
-343.391	-200.000	-0.082	0.365
-342.377	-13.995	-0.056	0.036
-341.362	-200.000	0.014	0.113
-340.348	208.632	0.208	0.324
-339.333	326.093	0.017	0.033
-338.318	-200.000	-0.009	0.219
-337.304	35.021	-0.152	-0.133
-336.289	311.328	0.041	0.077
-335.275	66.325	-0.285	0.288
-334.260	-152.654	-0.151	-0.011
-333.245	-161.017	0.287	-0.015
-332.231	223.049	-0.217	-0.349
-331.216	800.000	-0.029	-0.106
-330.202	800.000	0.073	0.312
-329.187	-186.282	0.093	-0.001
-328.172	-89.773	0.238	-0.070
-327.158	15.289	0.165	0.129
-326.143	-86.363	-0.065	0.020
-325.129	18.674	0.284	-0.226
-324.114	-200.000	-0.036	-0.295
-323.099	56.545	-0.216	-0.210
-322.085	-200.000	0.019	-0.243
-321.070	-19.964	0.129	0.079
-320.056	20.946	-0.128	0.104
-319.041	512.268	0.083	0.192
-318.026	371.389	0.090	0.183
-317.012	34.109	0.133	-0.115
-315.997	423.649	-0.058	0.124
-314.983	-157.436	0.454	-0.027
-313.968	37.456	0.152	-0.134
-312.953	-133.589	-0.061	0.008
-311.939	-138.509	-0.238	-0.026
-310.924	-15.962	-0.059	0.037
-309.910	-27.519	0.168	-0.097
-308.895	-22.543	0.224	0.135
-307.880	716.173	0.108	0.285
-306.866	-108.773	-0.183	-0.039
-305.851	-61.714	0.124	-0.052
-304.837	546.886	-0.117	0.280
-303.822	125.795	-0.244	-0.307
-302.807	206.544	-0.099	-0.153
-301.793	320.548	-0.080	0.151
-300.778	-200.000	-0.044	0.241
-299.764	800.000	0.063	0.205
-298.749	-200.000	0.008	-0.291
-297.735	43.908	0.194	0.177
-296.720	264.539	-0.209	0.361
-295.705	74.186	-0.227	-0.237
-294.691	-200.000	0.001	0.250
-293.676	800.000	-0.065	-0.250
-292.662	-143.555	-0.064	-0.006
-291.647	-113.870	0.306	0.059
-290.632	792.348	-0.103	-0.282
-289.618	-200.000	-0.003	-0.368
-288.603	84.659	0.145	0.158
-287.589	59.130	-0.194	0.190
-286.574	-63.787	-0.152	0.062
-285.559	460.508	0.088	0.196
-284.545	800.000	0.062	-0.243
-283.530	-27.083	0.154	0.089
-282.516	-62.329	0.102	-0.042
-281.501	-124.871	-0.223	0.034
-280.486	163.503	0.077	-0.108
-279.472	-19.481	-0.072	0.044
-278.457	123.800	0.154	0.192
-277.443	-106.128	0.170	-0.038
-276.428	-200.000	0.011	-0.054
-275.413	-75.850	0.301	-0.106
-274.399	472.203	-0.052	0.116
-273.384	458.786	0.131	0.290
-272.370	70.760	-0.151	-0.156
-271.355	-126.992	-0.536	0.078
-270.340	743.275	0.084	-0.225
-269.326	417.139	0.103	0.218
-268.311	-24.380	0.052	0.031
-267.297	-4.677	0.049	-0.034
-266.282	-200.000	-0.076	0.335
-265.267	-173.413	0.417	-0.013
-264.253	-24.562	0.119	0.070
-263.238	294.209	0.104	0.189
-262.224	168.385	0.089	0.126
-261.209	-157.521	-0.064	0.004
-260.195	-200.000	-0.009	-0.218
-259.180	-125.145	-0.325	0.049
-258.165	-26.789	0.124	0.072
-257.151	-111.761	0.305	0.061
-256.136	55.945	0.196	-0.189
-255.122	-110.272	0.150	-0.031
-254.107	800.000	0.148	-0.501
-253.092	-3.538	-0.176	0.122
-252.078	-127.070	-0.186	0.027
-251.063	-200.000	0.024	0.128
-250.049	-171.516	-0.166	0.005
-249.034	232.443	0.035	0.057
-248.019	-200.000	0.000	0.216
-247.005	-193.972	-0.169	-0.001
-245.990	-36.774	0.410	-0.218
-244.976	-24.804	0.269	-0.158
-243.961	-29.603	0.231	-0.131
-242.946	-148.906	-0.145	-0.012
-241.932	250.390	-0.060	0.101
-240.917	48.666	-0.017	0.016
-239.903	107.187	0.244	0.288
-238.888	152.556	0.195	0.264
-237.873	621.438	0.065	-0.164
-236.859	-200.000	0.022	0.122
-235.844	-32.252	-0.332	-0.184
-234.830	-26.787	-0.283	-0.164
-233.815	-17.900	-0.099	0.062
-232.800	29.715	-0.097	-0.082
-231.786	-200.000	0.053	0.000
-230.771	-79.273	0.336	0.113
-229.757	13.923	-0.326	0.252
-228.742	419.418	-0.073	0.155
-227.727	6.915	-0.235	-0.174
-226.713	-200.000	0.012	-0.073
-225.698	-200.000	-0.043	0.225
-224.684	-148.478	0.080	0.006
-223.669	-60.768	0.241	0.101
-222.655	-4.848	-0.228	0.156
-221.640	-200.000	0.002	-0.224
-220.625	95.923	-0.036	0.041
-219.611	330.278	0.082	0.156
-218.596	-107.394	-0.387	0.084
-217.582	5.072	-0.262	0.191
-216.567	-200.000	0.055	-0.528
-215.552	36.803	-0.185	0.162
-214.538	800.000	0.010	-0.029
-213.523	61.786	0.171	0.169
-212.509	3.126	0.196	-0.141
-211.494	51.446	0.093	0.088
-210.479	170.527	0.144	-0.205
-209.465	-200.000	0.000	0.248
-208.450	164.068	0.051	-0.071
-207.436	5.722	-0.161	-0.118
-206.421	29.978	0.312	-0.263
-205.406	800.000	0.117	-0.375
-204.392	-147.441	-0.185	-0.015
-203.377	212.861	-0.244	-0.381
-202.363	-200.000	-0.010	-0.130
-201.348	-200.000	-0.011	0.171
-200.333	-26.971	-0.124	0.071
-199.319	-200.000	0.014	0.083
-198.304	278.799	-0.049	0.087
-197.290	-99.141	-0.130	-0.033
-196.275	80.167	-0.235	0.250
-195.260	-200.000	0.276	-0.000
-194.246	-64.910	0.131	-0.053
-193.231	11.517	-0.215	0.163
-192.217	632.491	0.073	-0.183
-191.202	-63.833	-0.194	0.079
-190.187	-27.670	-0.293	0.168
-189.173	301.129	-0.077	-0.141
-188.158	800.000	0.055	-0.163
-187.144	-200.000	-0.003	-0.070
-186.129	-81.784	0.345	0.112
-185.114	56.469	0.074	0.071
-184.100	161.719	-0.159	-0.220
-183.085	-12.545	0.204	-0.132
-182.071	67.366	0.236	-0.239
-181.056	181.910	-0.136	0.198
-180.042	110.272	-0.139	0.165
-179.027	-82.464	-0.121	0.039
-178.012	-51.197	0.246	0.114
-176.998	800.000	0.095	-0.334
-175.983	28.089	-0.271	0.227
-174.969	156.554	-0.094	-0.129
-173.954	20.109	0.035	-0.028
-172.939	-148.427	0.316	0.026
-171.925	171.239	0.091	0.129
-170.910	530.223	0.038	-0.089
-169.896	245.219	0.069	-0.114
-168.881	-36.986	-0.079	-0.042
-167.866	-78.876	-0.113	-0.038
-166.852	760.008	-0.049	0.132
-165.837	164.153	0.147	-0.206
-164.823	277.303	0.175	0.308
-163.808	-200.000	-0.024	-0.160
-162.793	11.521	-0.113	0.086
-161.779	365.588	-0.081	-0.161
-160.764	261.211	0.054	0.092
-159.750	96.796	-0.119	0.135
-158.735	800.000	0.101	-0.348
-157.720	284.881	0.087	-0.155
-156.706	45.110	0.071	-0.065
-155.691	-59.323	-0.083	-0.036
-154.677	-88.041	0.060	-0.018
-153.662	48.641	0.152	-0.141
-152.647	-192.399	0.174	0.002
-151.633	168.612	0.125	0.177
-150.618	-105.486	0.168	-0.038
-149.604	5.690	-0.195	0.142
-148.589	268.241	0.118	-0.204
-147.574	146.207	-0.120	0.160
-146.560	-6.140	0.471	-0.318
-145.545	-92.024	-0.010	0.003
-144.531	-183.095	-0.238	-0.004
-143.516	-115.390	-0.109	-0.020
-142.502	-200.000	-0.023	-0.124
-141.487	-22.667	0.196	0.117
-140.472	57.758	0.154	-0.149
-139.458	313.405	0.008	-0.015
-138.443	248.453	-0.173	-0.289
-137.429	-133.748	0.256	-0.032
-136.414	-16.271	0.259	-0.163
-135.399	800.000	-0.005	0.015
-134.385	388.270	-0.024	0.050
-133.370	-160.081	0.117	0.006
-132.356	163.094	-0.117	-0.162
-131.341	-39.313	0.191	-0.099
-130.326	194.267	-0.073	-0.109
-129.312	-95.650	0.022	0.006
-128.297	-11.351	-0.059	-0.039
-127.283	157.273	0.153	-0.209
-126.268	-107.606	0.262	-0.057
-125.253	-84.183	0.192	-0.060
-124.239	-103.176	-0.248	-0.058
-123.224	-12.646	-0.174	0.112
-122.210	682.943	-0.020	0.051
-121.195	115.837	-0.270	-0.326
-120.180	31.709	-0.078	0.066
-119.166	-113.156	-0.048	0.009
-118.151	-121.011	-0.297	0.049
-117.137	382.641	0.073	-0.147
-116.122	79.427	-0.235	-0.249
-115.107	194.214	0.161	0.241
-114.093	652.830	0.074	0.187
-113.078	0.580	0.072	0.051
-112.064	-94.037	0.427	0.116
-111.049	-176.660	-0.273	0.007
-110.034	194.409	0.082	0.123
-109.020	487.685	0.056	-0.127
-108.005	377.198	0.122	0.246
-106.991	151.816	-0.210	-0.282
-105.976	-157.516	0.539	0.032
-104.962	-68.343	-0.141	-0.054
-103.947	-190.275	-0.083	-0.001
-102.932	-9.168	0.167	0.110
-101.918	-76.376	-0.228	0.079
-100.903	-103.926	-0.269	-0.062
-99.889	-73.686	0.289	0.104
-98.874	-20.077	-0.070	0.043
-97.859	17.495	-0.086	-0.068
-96.845	-113.833	0.228	-0.044
-95.830	-200.000	0.049	-0.251
-94.816	-80.626	-0.079	0.026
-93.801	-200.000	-0.039	0.187
-92.786	115.037	0.077	-0.093
-91.772	92.801	0.099	0.111
-90.757	800.000	0.131	-0.406
-89.743	-72.106	0.298	-0.109
-88.728	-87.723	0.342	0.102
-87.713	166.431	-0.074	0.103
-86.699	304.104	0.167	0.307
-85.684	-64.702	0.053	-0.021
-84.670	-30.065	-0.338	-0.190
-83.655	-200.000	0.042	-0.242
-82.640	61.512	0.048	0.047
-81.626	42.852	0.227	0.204
-80.611	-78.593	-0.383	-0.129
-79.597	-110.118	0.110	-0.023
-78.582	800.000	-0.029	0.121
-77.567	-200.000	-0.008	-0.175
-76.553	-87.791	0.242	0.072
-75.538	18.810	-0.077	-0.061
-74.524	-134.395	-0.067	0.008
-73.509	-163.695	0.147	0.007
-72.494	-121.046	0.066	0.011
-71.480	800.000	0.063	0.242
-70.465	55.976	0.384	-0.368
-69.451	168.472	-0.081	-0.114
-68.436	-4.819	-0.077	-0.053
-67.422	445.629	-0.109	0.237
-66.407	172.886	-0.114	0.162
-65.392	-44.858	0.168	0.083
-64.378	-26.265	-0.360	0.209
-63.363	-194.340	0.169	-0.001
-62.349	407.062	-0.106	-0.220
-61.334	-37.508	-0.757	-0.398
-60.319	-200.000	0.101	0.470
-59.305	-200.000	-0.090	-1.192
-58.290	189.167	0.636	0.940
-57.276	613.112	0.582	1.437
-56.261	-200.000	101.978	647.566
-55.246	635.301	1453.643	3635.117
-54.232	177.914	2674.562	3843.682
-53.217	120.092	2215.338	2708.111
-52.203	43.838	1740.103	1570.191
-51.188	36.113	1552.028	1346.725
-50.173	33.642	1525.424	1306.592
-49.159	54.793	1579.450	1501.560
-48.144	57.294	1596.657	1535.343
-47.130	36.363	1550.739	1347.139
-46.115	33.069	1535.022	1310.636
-45.100	33.009	1531.204	1306.909
-44.086	32.933	1529.672	1305.021
-43.071	32.916	1527.752	1303.217
-42.057	32.809	1526.306	1301.189
-41.042	32.845	1524.499	1299.850
-40.027	32.867	1523.685	1299.252
-39.013	32.880	1522.176	1298.001
-37.998	32.839	1521.298	1296.922
-36.984	32.817	1520.233	1295.811
-35.969	32.945	1518.274	1294.967
-34.954	32.813	1517.039	1292.957
-33.940	32.902	1515.784	1292.445
-32.925	32.965	1513.915	1291.232
-31.911	32.882	1512.959	1289.797
-30.896	32.779	1512.181	1288.381
-29.881	32.847	1510.443	1287.313
-28.867	32.830	1509.148	1286.042
-27.852	32.784	1508.232	1284.900
-26.838	32.920	1506.096	1283.951
-25.823	32.868	1505.041	1282.647
-24.809	32.809	1503.205	1280.633
-23.794	32.788	1501.739	1279.192
-22.779	32.901	1500.465	1278.816
-21.765	32.784	1499.549	1277.196
-20.750	32.800	1498.467	1276.331
-19.736	32.874	1497.009	1275.539
-18.721	32.938	1495.497	1274.631
-17.706	32.748	1495.087	1272.949
-16.692	32.831	1493.810	1272.372
-15.677	32.853	1492.664	1271.495
-14.663	32.764	1491.953	1270.239
-13.648	32.748	1491.377	1269.589
-12.633	32.785	1490.063	1268.672
-11.619	32.781	1488.942	1267.640
-10.604	32.764	1488.746	1267.307
-9.590	32.702	1487.117	1265.454
-8.575	32.672	1486.858	1264.984
-7.560	32.804	1485.680	1264.815
-6.546	32.733	1485.701	1264.305
-5.531	32.698	1484.061	1262.625
-4.517	32.698	1482.907	1261.592
-3.502	32.792	1482.135	1261.516
-2.487	32.732	1481.288	1260.340
-1.473	32.680	1480.476	1259.257
-0.458	32.773	1478.658	1258.280
0.556	31.214	1469.226	1249.120
1.571	28.792	1443.957	1211.579
2.586	25.884	1384.923	1143.522
3.600	24.666	1303.670	1069.056
4.615	23.040	1258.398	1022.446
5.629	18.766	1198.695	950.254
6.644	8.557	1109.373	826.832
7.659	1.264	1067.324	759.040
8.673	0.242	1061.399	749.677
9.688	0.147	1058.446	747.055
10.702	0.034	1056.928	745.355
11.717	-0.113	1055.344	743.445
12.731	3.453	1058.877	763.552
13.746	13.085	1073.058	821.852
14.761	20.285	1082.528	865.059
15.775	21.700	1083.950	873.177
16.790	21.821	1083.633	873.446
17.804	21.874	1082.356	872.606
18.819	21.617	1081.358	870.442
19.834	21.654	1081.267	870.478
20.848	21.735	1080.783	870.416
21.863	21.877	1079.977	870.390
22.877	21.813	1079.744	869.808
23.892	21.797	1079.145	869.169
24.907	21.822	1078.306	868.541
25.921	21.725	1077.796	867.575
26.936	21.628	1077.006	866.382
27.950	21.738	1075.818	865.891
28.965	21.740	1074.225	864.542
29.980	21.652	1072.921	862.984
30.994	21.583	1072.017	861.843
32.009	21.752	1071.254	861.983
33.023	21.962	1069.979	861.911
34.038	21.578	1069.112	859.255
35.053	21.660	1068.044	858.721
36.067	21.684	1067.888	858.635
37.082	21.719	1066.821	857.876
38.096	21.831	1066.079	857.748
39.111	21.941	1065.432	857.688
40.126	22.120	1064.381	857.641
41.140	22.026	1062.930	855.940
42.155	21.703	1061.422	853.078
43.169	21.398	1060.164	850.506
44.184	21.401	1059.076	849.574
45.199	21.460	1058.322	849.182
46.213	21.539	1057.165	848.560
47.228	21.451	1056.324	847.382
48.242	21.545	1055.814	847.354
49.257	21.662	1055.045	847.227
50.271	21.790	1054.071	846.989
51.286	21.834	1053.799	846.909
52.301	21.842	1052.798	846.069
53.315	21.845	1052.360	845.653
54.330	21.778	1051.465	844.538
55.344	21.764	1050.236	843.410
56.359	21.828	1049.764	843.263
57.374	21.763	1048.801	842.105
58.388	21.542	1047.797	840.161
59.403	21.492	1047.079	839.272
60.417	21.578	1046.029	838.770
61.432	21.365	1045.509	837.257
62.447	21.363	1044.781	836.589
63.461	21.632	1044.173	837.316
64.476	21.693	1043.237	836.784
65.490	21.642	1042.233	835.661
66.505	21.544	1041.640	834.641
67.520	21.584	1040.472	833.823
68.534	21.769	1039.331	833.717
69.549	21.372	1039.181	831.633
70.563	21.204	1037.755	829.623
71.578	21.089	1036.566	828.051
72.593	21.188	1035.941	827.945
73.607	21.066	1034.731	826.327
74.622	21.016	1033.510	825.046
75.636	21.236	1033.251	825.807
76.651	21.401	1032.427	825.853
77.666	21.404	1030.746	824.448
78.680	21.357	1030.126	823.662
79.695	21.183	1030.235	822.851
80.709	21.382	1029.525	823.150
81.724	21.443	1028.631	822.648
82.739	21.423	1027.810	821.825
83.753	21.470	1026.438	820.877
84.768	21.660	1026.457	821.712
85.782	21.999	1025.579	822.525
86.797	22.083	1025.121	822.479
87.812	22.104	1023.890	821.516
88.826	21.971	1022.572	819.762
89.841	21.989	1021.855	819.199
90.855	22.028	1021.399	818.946
91.870	22.086	1020.528	818.445
92.884	22.073	1019.746	817.686
93.899	21.945	1018.774	816.236
94.914	21.941	1017.596	815.202
95.928	21.904	1017.205	814.645
96.943	21.975	1015.963	813.909
97.957	21.608	1015.180	811.506
98.972	21.499	1013.905	809.914
99.987	21.292	1012.655	807.888
101.001	21.381	1012.081	807.768
102.016	21.699	1011.904	809.023
103.030	21.744	1011.089	808.507
104.045	21.666	1009.630	806.909
105.060	21.523	1008.656	805.402
106.074	21.317	1007.313	803.312
107.089	21.510	1006.411	803.407
108.103	21.741	1006.247	804.266
109.118	21.834	1005.341	803.895
110.133	21.565	1003.820	801.376
111.147	21.645	1003.009	801.025
112.162	21.461	1002.095	799.384
113.176	21.188	1000.742	796.987
114.191	21.378	1000.063	797.242
115.206	21.434	999.387	796.890
116.220	21.167	997.792	794.330
117.235	20.933	996.870	792.465
118.249	21.113	996.315	792.768
119.264	21.363	994.771	792.607
120.279	21.098	994.218	790.895
121.293	21.134	993.491	790.409
122.308	21.259	992.585	790.185
123.322	21.265	992.245	789.871
124.337	21.206	991.046	788.581
125.352	21.216	989.606	787.408
126.366	20.671	988.015	783.619
127.381	20.431	986.736	781.456
128.395	21.046	986.281	783.791
129.410	21.582	985.991	785.898
130.424	21.744	985.061	785.816
131.439	21.729	983.868	784.726
132.454	21.710	982.831	783.745
133.468	21.725	982.408	783.405
134.483	21.733	981.221	782.425
135.497	21.566	980.875	781.334
136.512	21.905	980.275	782.300
137.527	21.989	979.283	781.811
138.541	21.867	978.338	780.446
139.556	21.735	977.900	779.442
140.570	21.729	976.722	778.404
141.585	21.864	975.982	778.345
142.600	22.041	975.077	778.338
143.614	21.852	974.304	776.816
144.629	21.958	973.440	776.527
145.643	22.183	972.701	776.866
146.658	22.098	971.701	775.623
147.673	21.939	970.370	773.792
148.687	21.892	969.243	772.617
149.702	21.793	968.388	771.428
150.716	21.654	967.248	769.841
151.731	21.790	965.699	769.138
152.746	21.739	965.550	768.726
153.760	21.924	965.100	769.111
154.775	21.973	964.392	768.697
155.789	22.091	963.355	768.315
156.804	22.129	962.300	767.574
157.819	22.134	960.834	766.359
158.833	21.959	960.705	765.425
159.848	22.115	960.258	765.681
160.862	22.277	958.960	765.282
161.877	21.990	958.272	763.416
162.892	21.910	957.265	762.202
163.906	22.136	956.375	762.404
164.921	22.179	955.094	761.504
165.935	21.909	954.657	759.919
166.950	22.072	953.358	759.523
167.964	22.119	952.206	758.740
168.979	22.005	951.414	757.551
169.994	22.047	950.367	756.830
171.008	21.793	949.475	754.960
172.023	22.018	948.391	754.996
173.037	22.117	947.963	755.018
174.052	21.893	946.967	753.194
175.067	21.714	945.674	751.330
176.081	21.796	944.881	750.987
177.096	21.866	944.376	750.817
178.110	21.931	943.247	750.133
179.125	21.714	942.727	748.723
180.140	21.514	940.747	746.234
181.154	21.549	940.215	745.893
182.169	21.555	940.136	745.792
183.183	21.631	939.721	745.720
184.198	22.077	939.380	747.280
185.213	22.030	938.420	746.251
186.227	21.969	937.767	745.409
187.242	22.091	937.244	745.444
188.256	22.021	936.642	744.601
189.271	21.916	935.954	743.546
190.286	22.059	935.243	743.520
191.300	22.000	934.414	742.543
192.315	21.585	932.846	739.480
193.329	20.864	931.447	735.264
194.344	20.372	930.530	732.402
195.359	20.943	930.770	734.930
196.373	21.797	930.957	738.616
197.388	22.004	930.609	739.143
198.402	21.949	929.574	738.026
199.417	21.910	929.015	737.353
200.432	21.909	928.640	736.985
201.446	21.754	928.129	735.865
202.461	21.501	927.094	733.920
203.475	21.698	926.524	734.226
204.490	21.217	924.657	730.672
205.504	20.132	922.834	724.633
206.519	20.483	922.862	726.059
207.534	21.364	923.255	729.984
208.548	21.440	923.029	730.058
209.563	21.871	922.484	731.359
210.577	21.966	921.886	731.215
211.592	21.719	920.695	729.178
212.607	22.106	920.799	730.807
213.621	22.145	920.422	730.603
214.636	22.026	919.876	729.611
215.650	22.114	918.678	728.964
216.665	22.091	918.344	728.537
217.680	22.060	918.228	728.252
218.694	22.170	917.627	728.167
219.709	21.785	916.442	725.569
220.723	21.569	915.236	723.658
221.738	21.730	914.622	723.773
222.753	21.961	914.498	724.567
223.767	21.806	913.812	723.317
224.782	21.973	912.571	722.958
225.796	22.052	912.426	723.105
226.811	22.196	911.922	723.235
227.826	21.877	910.281	720.558
228.840	21.053	908.714	715.877
229.855	20.974	908.474	715.297
230.869	21.132	908.200	715.666
231.884	21.019	906.867	714.092
232.899	20.962	906.858	713.786
233.913	21.784	906.913	717.133
234.928	21.895	906.237	716.986
235.942	21.808	905.682	716.129
236.957	21.874	905.088	715.867
237.972	21.553	904.274	713.847
238.986	21.508	902.957	712.562
240.001	21.547	903.104	712.776
241.015	21.664	902.029	712.340
242.030	21.699	901.342	711.875
243.045	21.855	900.920	712.113
244.059	21.678	901.036	711.424
245.074	22.117	899.950	712.283
246.088	21.990	899.408	711.277
247.103	21.685	898.061	708.913
248.117	21.552	897.673	708.008
249.132	22.167	897.428	710.240
250.147	22.597	897.313	711.822
251.161	22.444	896.804	710.737
252.176	22.724	896.381	711.468
253.190	22.618	895.926	710.618
254.205	22.739	895.114	710.398
255.220	22.927	895.058	711.046
256.234	22.859	894.287	710.097
257.249	22.820	893.234	709.040
258.263	22.778	892.506	708.234
259.278	22.747	892.046	707.682
260.293	22.829	891.678	707.657
261.307	22.807	891.270	707.179
262.322	22.812	890.064	706.180
263.336	22.634	889.724	705.137
264.351	22.122	888.200	701.821
265.366	21.087	885.789	695.732
266.380	20.686	884.941	693.405
267.395	21.670	885.550	697.741
268.409	22.367	885.945	700.767
269.424	22.294	885.211	699.833
270.439	22.317	884.691	699.452
271.453	22.586	883.943	699.868
272.468	22.597	883.235	699.288
273.482	22.758	883.014	699.691
274.497	22.817	882.633	699.562
275.512	22.715	881.584	698.265
276.526	22.008	880.288	694.382
277.541	22.263	879.702	694.863
278.555	22.653	879.273	696.003
279.570	22.537	878.671	695.009
280.585	22.216	878.190	693.299
281.599	22.407	877.267	693.263
282.614	22.462	876.916	693.140
283.628	22.143	875.361	690.597
284.643	21.640	875.072	688.330
285.657	22.164	874.961	690.241
286.672	22.042	874.183	689.087
287.687	21.573	872.795	686.097
288.701	21.913	873.146	687.642
289.716	22.246	872.910	688.700
290.730	21.958	871.688	686.551
291.745	21.986	870.952	686.020
292.760	21.786	869.803	684.271
293.774	21.665	869.398	683.422
294.789	22.353	870.215	686.690
295.803	23.106	870.251	689.594
296.818	23.095	869.434	688.843
297.833	23.306	869.166	689.390
298.847	23.001	868.026	687.238
299.862	22.495	867.195	684.553
300.876	22.761	866.550	685.019
301.891	23.253	865.585	686.100
302.906	23.088	865.538	685.363
303.920	22.791	864.163	683.064
304.935	22.587	863.768	681.905
305.949	23.057	863.341	683.325
306.964	23.080	863.232	683.264
307.979	22.790	862.575	681.566
308.993	22.877	861.543	681.025
310.008	23.179	861.608	682.182
311.022	23.334	860.888	682.146
312.037	23.184	860.174	680.944
313.052	22.926	859.660	679.483
314.066	22.990	858.972	679.125
315.081	22.302	857.185	675.014
316.095	21.497	855.852	670.820
317.110	21.873	856.566	672.763
318.125	22.794	856.724	676.357
319.139	22.286	856.276	673.997
320.154	21.232	853.766	667.934
321.168	20.943	852.670	665.914
322.183	21.450	853.325	668.303
323.197	22.229	853.731	671.539
324.212	22.657	853.347	672.810
325.227	22.769	853.034	672.932
326.241	23.013	852.723	673.559
327.256	22.921	851.653	672.302
328.270	22.773	851.037	671.192
329.285	22.720	850.624	670.605
330.300	22.586	849.903	669.470
331.314	22.321	848.869	667.592
332.329	22.404	848.262	667.368
333.343	22.661	848.129	668.181
334.358	22.999	847.627	669.003
335.373	22.893	847.031	668.076
336.387	22.974	846.825	668.159
337.402	23.196	846.501	668.681
338.416	23.324	845.924	668.652
339.431	23.286	845.340	667.987
340.446	23.422	844.430	667.722
341.460	23.651	844.328	668.442
342.475	23.470	843.700	667.207
343.489	23.373	842.688	665.984
344.504	23.427	841.914	665.515
345.519	23.697	841.932	666.484
346.533	23.810	841.504	666.510
347.548	23.722	841.289	665.948
348.562	23.969	840.499	666.191
349.577	23.781	840.297	665.268
350.592	23.836	839.710	664.951
351.606	23.616	838.922	663.443
352.621	23.789	838.268	663.514
353.635	23.575	837.932	662.390
354.650	23.575	837.200	661.754
355.665	23.325	836.140	659.926
356.679	22.241	834.864	654.828
357.694	21.960	834.285	653.268
358.708	22.786	834.378	656.355
359.723	22.665	833.495	655.157
360.738	22.839	833.208	655.518
361.752	23.329	833.543	657.542
362.767	23.443	833.183	657.624
363.781	23.638	833.036	658.172
364.796	24.060	832.466	659.226
365.810	23.984	832.332	658.781
366.825	24.060	831.691	658.498
367.840	24.162	831.107	658.353
368.854	24.037	830.389	657.263
369.869	23.588	829.836	655.110
370.883	23.453	828.785	653.725
371.898	23.475	828.414	653.456
372.913	23.337	827.845	652.441
373.927	23.411	826.897	651.910
374.942	23.405	826.782	651.739
375.956	23.828	825.811	652.468
376.971	23.842	825.575	652.278
377.986	23.925	825.040	652.099
379.000	24.077	824.773	652.387
380.015	24.101	823.923	651.744
381.029	23.801	823.650	650.373
382.044	23.838	822.868	649.836
383.059	24.165	822.246	650.482
384.073	24.060	821.842	649.718
385.088	24.093	821.504	649.517
386.102	23.967	821.220	648.773
387.117	23.957	820.239	647.903
388.132	23.758	819.574	646.598
389.146	23.845	818.476	645.991
390.161	23.106	818.028	642.895
391.175	23.001	817.857	642.321
392.190	23.648	817.773	644.548
393.205	23.870	816.746	644.488
394.219	22.723	815.472	639.273
395.234	21.199	813.236	631.953
396.248	20.445	812.203	628.367
397.263	21.492	813.145	632.828
398.278	23.283	814.554	640.353
399.292	23.908	814.207	642.280
400.307	23.540	813.387	640.247
401.321	23.446	812.651	639.273
402.336	23.631	812.582	639.831
403.350	23.768	812.671	640.336
404.365	24.156	812.571	641.598
405.380	24.195	812.865	641.916
406.394	24.642	812.307	643.028
407.409	24.884	811.634	643.308
408.423	24.966	811.021	643.058
409.438	24.642	810.701	641.584
410.453	24.653	810.101	641.091
411.467	24.704	809.988	641.131
412.482	24.711	809.377	640.616
413.496	24.668	808.654	639.832
414.511	24.816	808.280	640.008
415.526	24.775	807.904	639.508
416.540	24.724	807.851	639.228
417.555	24.653	807.210	638.408
418.569	24.431	806.203	636.765
419.584	24.430	805.386	636.058
420.599	24.496	804.893	635.847
421.613	155.640	1365.765	1796.371
422.628	135.190	1447.477	1796.481
