DTS Sentinel unit serial number:	SN413079Multiplexer serial number:	ORYXHardware model number:	OX4-SRSoftware version number:	ORYX F/W v4.00 Oryx Data Collector v3.7.2.0data status	okinstallation	princeton_trtdifferential loss correction	single-endedforward channel	channel 3reverse channel	N/Adate	2019/09/12time	23:48:34forward acquisition time	60.00reverse acquisition time	0.00gamma	496.2192k internal	0.2329k external	0.2329temperature offset calibration	1.0130default loss term (dB/km)	0.3790temperature slope calibration	1.0000multiplexer offset coefficient	1.0000multiplexer slope coefficient	1.0000fibre end	0.00T internal ref (°C)	28.80T ext. ref 1 (°C)	3.79T ext. ref 2 (°C)	23.53length (m)	temperature (°C)	Stokes	anti-Stokes-747.200	69.179	0.071	0.074
-746.185	309.314	0.055	-0.103
-745.171	-54.324	-0.108	-0.050
-744.156	240.379	0.178	0.299
-743.142	-129.492	0.328	-0.046
-742.127	519.046	0.086	0.202
-741.112	-200.000	0.001	-0.026
-740.098	-200.000	-0.028	0.199
-739.083	-92.900	-0.279	0.078
-738.069	27.074	0.206	0.174
-737.054	800.000	-0.054	-0.165
-736.039	-117.602	-0.083	0.015
-735.025	-86.395	0.154	-0.048
-734.010	134.896	-0.130	-0.169
-732.996	192.610	0.043	-0.065
-731.981	-58.753	-0.165	-0.072
-730.966	13.895	-0.254	0.199
-729.952	231.803	-0.045	0.074
-728.937	-81.141	-0.387	-0.129
-727.923	-46.788	-0.223	-0.110
-726.908	480.000	-0.030	-0.069
-725.894	-165.800	-0.058	0.003
-724.879	-157.343	0.124	0.008
-723.864	-72.010	-0.260	0.097
-722.850	-48.058	-0.544	-0.265
-721.835	132.962	0.303	0.394
-720.821	-126.020	-0.263	-0.040
-719.806	-200.000	-0.017	-0.164
-718.791	-127.798	0.096	-0.014
-717.777	-40.524	-0.261	0.136
-716.762	-200.000	0.033	-0.149
-715.748	79.051	0.102	-0.110
-714.733	-200.000	-0.036	0.229
-713.718	75.406	0.071	-0.075
-712.704	-11.807	-0.281	0.186
-711.689	178.719	-0.058	0.085
-710.675	-143.648	-0.302	0.029
-709.660	179.720	-0.087	-0.128
-708.645	17.911	-0.116	0.093
-707.631	-200.000	0.013	-0.139
-706.616	-200.000	0.004	-0.138
-705.602	213.302	0.161	-0.255
-704.587	-156.527	-0.080	0.005
-703.572	54.293	-0.156	0.151
-702.558	40.666	-0.211	-0.191
-701.543	-200.000	0.038	0.192
-700.529	-200.000	0.040	0.331
-699.514	-71.498	-0.354	-0.133
-698.499	-46.921	-0.187	-0.092
-697.485	-104.324	-0.075	-0.018
-696.470	-120.942	0.429	-0.073
-695.456	122.950	0.097	-0.122
-694.441	-134.433	0.152	-0.019
-693.426	122.700	-0.025	-0.031
-692.412	54.826	-0.155	-0.150
-691.397	-46.835	0.022	-0.011
-690.383	-140.276	-0.326	-0.034
-689.368	41.088	0.068	-0.062
-688.354	-200.000	-0.007	0.094
-687.339	156.634	-0.140	-0.194
-686.324	31.737	0.094	-0.082
-685.310	-69.772	0.148	-0.057
-684.295	-43.479	-0.185	0.094
-683.281	-135.258	-0.330	0.040
-682.266	-200.000	-0.006	0.412
-681.251	800.000	-0.047	-0.151
-680.237	12.480	-0.339	0.263
-679.222	174.543	0.205	-0.297
-678.208	38.663	-0.036	-0.032
-677.193	-71.083	0.153	0.058
-676.178	125.640	-0.119	-0.151
-675.164	160.219	-0.143	0.200
-674.149	-63.773	-0.358	0.147
-673.135	-15.526	0.269	0.172
-672.120	-70.176	-0.157	-0.060
-671.105	-145.413	0.144	0.013
-670.091	-200.000	-0.052	0.295
-669.076	-200.000	-0.048	0.228
-668.062	10.035	-0.036	-0.028
-667.047	-37.816	0.274	-0.147
-666.032	425.148	0.065	-0.140
-665.018	-19.963	0.301	-0.186
-664.003	329.801	-0.021	-0.041
-662.989	-45.637	-0.149	0.074
-661.974	800.000	0.074	-0.254
-660.959	-200.000	-0.023	0.182
-659.945	46.830	0.084	-0.078
-658.930	-200.000	0.015	-0.310
-657.916	-131.417	0.183	-0.024
-656.901	-158.610	-0.108	-0.006
-655.886	-106.399	0.240	-0.054
-654.872	800.000	0.109	-0.370
-653.857	-25.224	0.058	-0.035
-652.843	297.755	-0.194	-0.357
-651.828	-138.216	-0.155	-0.017
-650.814	12.104	0.257	0.198
-649.799	-85.010	0.180	0.057
-648.784	-83.566	0.190	0.061
-647.770	-157.849	0.246	0.015
-646.755	-59.358	-0.045	0.019
-645.741	92.344	-0.135	0.152
-644.726	35.225	-0.112	-0.099
-643.711	583.782	-0.153	-0.378
-642.697	800.000	0.111	-0.463
-641.682	-200.000	-0.016	-0.162
-640.668	-133.289	-0.199	0.025
-639.653	-7.151	-0.092	0.063
-638.638	-9.161	-0.048	0.032
-637.624	800.000	0.009	0.041
-636.609	-174.870	-0.152	0.004
-635.595	-50.206	0.060	-0.029
-634.580	-200.000	-0.061	-0.402
-633.565	-200.000	0.014	-0.334
-632.551	-77.191	-0.315	0.110
-631.536	394.023	-0.068	0.141
-630.522	-106.202	0.313	0.070
-629.507	13.835	0.044	0.034
-628.492	-144.329	0.089	-0.008
-627.478	402.233	-0.108	-0.228
-626.463	-200.000	0.012	-0.245
-625.449	-200.000	-0.032	0.196
-624.434	-124.711	0.448	0.070
-623.419	-118.115	-0.341	0.061
-622.405	78.097	0.182	0.195
-621.390	-62.771	0.125	0.052
-620.376	-43.176	-0.228	0.116
-619.361	-65.030	-0.308	0.125
-618.346	65.789	-0.212	0.215
-617.332	81.497	-0.099	0.107
-616.317	393.220	-0.038	-0.080
-615.303	-110.368	-0.320	0.067
-614.288	223.012	-0.159	0.258
-613.273	44.798	0.005	0.005
-612.259	166.597	-0.195	-0.277
-611.244	76.891	0.107	-0.114
-610.230	-148.535	0.235	0.019
-609.215	-200.000	0.047	-0.292
-608.201	-118.162	-0.354	-0.063
-607.186	6.998	-0.243	0.181
-606.171	31.601	0.090	0.077
-605.157	-104.505	-0.255	-0.059
-604.142	117.434	0.041	-0.050
-603.128	800.000	-0.053	-0.169
-602.113	30.346	-0.094	0.080
-601.098	-26.331	0.190	-0.111
-600.084	-139.781	-0.113	-0.012
-599.069	-43.327	0.147	0.074
-598.055	134.070	-0.091	0.117
-597.040	-122.323	0.113	0.018
-596.025	6.937	0.044	-0.032
-595.011	414.995	-0.010	-0.022
-593.996	-200.000	0.012	0.101
-592.982	384.144	0.045	0.093
-591.967	-85.697	-0.043	0.013
-590.952	-200.000	0.055	-0.351
-589.938	-34.753	0.153	-0.084
-588.923	126.360	-0.213	-0.270
-587.909	-89.382	0.203	-0.060
-586.894	-57.598	-0.179	0.078
-585.879	176.275	0.151	-0.219
-584.865	800.000	0.092	0.339
-583.850	536.934	-0.028	-0.067
-582.836	-200.000	0.009	0.148
-581.821	-137.502	0.111	0.013
-580.806	-200.000	0.041	0.211
-579.792	800.000	0.073	-0.316
-578.777	49.978	0.121	0.115
-577.763	800.000	-0.009	-0.034
-576.748	151.042	0.150	0.205
-575.733	800.000	-0.076	0.227
-574.719	-200.000	-0.020	-0.097
-573.704	-1.798	0.076	-0.054
-572.690	78.553	0.099	0.106
-571.675	-106.718	0.279	0.062
-570.661	613.630	0.050	0.126
-569.646	-200.000	0.023	0.131
-568.631	139.992	-0.096	-0.126
-567.617	-200.000	0.026	0.187
-566.602	-200.000	-0.007	-0.208
-565.588	-91.290	0.396	0.113
-564.573	677.099	-0.072	0.188
-563.558	18.899	0.108	0.086
-562.544	-56.289	0.129	-0.057
-561.529	196.263	-0.325	-0.495
-560.515	-200.000	0.057	0.373
-559.500	-200.000	-0.054	0.254
-558.485	-122.321	0.138	-0.022
-557.471	-72.930	-0.296	-0.109
-556.456	-72.845	-0.197	-0.072
-555.442	-16.337	-0.118	-0.075
-554.427	-52.462	0.330	0.152
-553.412	-123.533	-0.529	-0.084
-552.398	548.092	-0.049	0.117
-551.383	14.201	0.118	-0.092
-550.369	393.672	0.049	0.102
-549.354	-200.000	-0.002	0.422
-548.339	-118.665	0.163	-0.029
-547.325	-200.000	-0.004	0.146
-546.310	149.873	-0.110	0.149
-545.296	-200.000	-0.009	0.060
-544.281	800.000	-0.170	0.478
-543.266	-136.842	0.218	0.025
-542.252	-133.927	0.321	0.040
-541.237	-23.944	0.278	0.166
-540.223	-200.000	0.004	-0.030
-539.208	-75.101	0.295	-0.105
-538.193	-78.156	0.336	-0.115
-537.179	282.957	-0.116	0.207
-536.164	731.658	0.124	-0.333
-535.150	-200.000	-0.054	-0.239
-534.135	-100.324	-0.194	-0.048
-533.121	176.991	-0.240	0.349
-532.106	34.952	0.223	0.195
-531.091	-90.306	-0.510	0.148
-530.077	554.849	-0.142	0.341
-529.062	-161.083	0.065	0.003
-528.048	211.474	0.065	0.102
-527.033	36.422	-0.175	0.154
-526.018	-200.000	0.005	-0.148
-525.004	800.000	0.065	-0.203
-523.989	-200.000	0.012	-0.193
-522.975	52.466	-0.144	0.137
-521.960	151.461	0.095	-0.129
-520.945	-200.000	-0.039	-0.253
-519.931	-69.230	0.357	0.137
-518.916	394.850	0.142	-0.296
-517.902	23.041	-0.100	-0.082
-516.887	157.658	0.387	-0.535
-515.872	-200.000	-0.061	0.335
-514.858	-24.553	0.381	0.226
-513.843	110.560	-0.086	-0.103
-512.829	-20.400	-0.067	0.041
-511.814	-200.000	-0.009	0.134
-510.799	37.186	-0.124	-0.110
-509.785	-200.000	0.031	-0.178
-508.770	-39.758	-0.050	-0.026
-507.756	800.000	0.116	-0.330
-506.741	272.433	-0.045	-0.078
-505.726	273.334	-0.025	0.045
-504.712	107.530	-0.058	0.069
-503.697	62.141	0.187	-0.186
-502.683	-48.759	-0.104	0.050
-501.668	-200.000	-0.075	-0.377
-500.653	-200.000	-0.013	-0.178
-499.639	-200.000	-0.030	0.212
-498.624	171.731	-0.171	-0.245
-497.610	0.077	0.185	-0.131
-496.595	-89.928	0.165	0.048
-495.581	-156.117	0.269	-0.017
-494.566	32.994	-0.141	-0.122
-493.551	-189.124	0.079	-0.001
-492.537	104.788	0.067	-0.079
-491.522	-112.897	-0.045	-0.009
-490.508	302.125	-0.142	0.262
-489.493	-133.474	-0.041	0.005
-488.478	800.000	0.033	0.143
-487.464	800.000	-0.035	-0.130
-486.449	800.000	-0.047	-0.165
-485.435	403.624	-0.091	0.191
-484.420	-200.000	-0.001	0.131
-483.405	-200.000	0.007	0.128
-482.391	800.000	0.099	-0.305
-481.376	72.105	-0.007	-0.007
-480.362	134.496	-0.148	-0.191
-479.347	657.328	-0.017	-0.045
-478.332	-41.951	0.094	-0.048
-477.318	-114.044	-0.196	-0.038
-476.303	629.987	0.067	0.170
-475.289	-171.318	0.460	0.015
-474.274	-200.000	0.014	-0.181
-473.259	784.312	0.080	-0.220
-472.245	449.452	-0.142	-0.312
-471.230	800.000	-0.024	-0.099
-470.216	-162.034	0.352	-0.018
-469.201	-200.000	0.017	0.233
-468.186	496.858	0.183	-0.420
-467.172	-200.000	0.002	-0.089
-466.157	800.000	-0.100	0.382
-465.143	-75.173	0.106	0.038
-464.128	173.561	0.093	-0.134
-463.113	-94.724	-0.186	-0.050
-462.099	-200.000	0.009	-0.216
-461.084	-115.082	-0.211	-0.040
-460.070	800.000	-0.067	0.236
-459.055	320.934	-0.059	-0.112
-458.040	-200.000	0.014	-0.246
-457.026	99.305	0.224	-0.258
-456.011	335.558	0.104	-0.200
-454.997	281.387	-0.178	-0.318
-453.982	-10.195	0.116	-0.077
-452.968	158.573	0.062	-0.086
-451.953	-174.326	0.114	-0.003
-450.938	56.491	0.126	-0.122
-449.924	-162.807	0.079	-0.004
-448.909	-67.726	-0.027	-0.010
-447.895	800.000	0.056	-0.227
-446.880	263.238	0.040	-0.070
-445.865	164.453	-0.144	-0.202
-444.851	800.000	0.017	-0.063
-443.836	4.973	-0.132	-0.096
-442.822	69.532	0.201	-0.206
-441.807	-92.601	0.305	-0.085
-440.792	-145.090	0.017	0.002
-439.778	-200.000	-0.007	-0.120
-438.763	119.453	-0.275	0.339
-437.749	-77.788	0.231	0.079
-436.734	-85.242	-0.414	0.129
-435.719	-59.222	-0.269	0.115
-434.705	656.158	0.019	0.048
-433.690	25.949	0.115	-0.096
-432.676	-49.478	0.124	0.059
-431.661	643.884	-0.121	0.308
-430.646	800.000	-0.071	-0.273
-429.632	14.770	-0.468	-0.364
-428.617	-200.000	0.050	-0.223
-427.603	-82.554	0.062	-0.020
-426.588	-0.172	-0.172	0.121
-425.573	727.396	0.041	-0.110
-424.559	-200.000	-0.016	0.180
-423.544	348.188	-0.170	-0.334
-422.530	304.152	-0.154	-0.284
-421.515	-36.920	0.143	0.076
-420.500	800.000	-0.023	-0.100
-419.486	-200.000	0.009	-0.105
-418.471	-200.000	-0.055	0.000
-417.457	-168.314	-0.189	0.007
-416.442	175.206	0.137	0.197
-415.428	-200.000	0.038	0.176
-414.413	-99.158	0.224	0.056
-413.398	30.291	-0.133	0.113
-412.384	-200.000	-0.022	-0.134
-411.369	-43.086	0.160	-0.081
-410.355	-43.346	-0.403	0.203
-409.340	-200.000	0.007	0.228
-408.325	-1.445	0.222	-0.156
-407.311	169.766	-0.091	-0.129
-406.296	411.237	0.052	-0.111
-405.282	-200.000	0.007	-0.110
-404.267	-101.541	0.097	-0.023
-403.252	-100.488	0.296	-0.073
-402.238	-125.950	-0.336	-0.050
-401.223	-153.495	0.299	0.021
-400.209	-101.399	-0.043	0.010
-399.194	-200.000	0.001	0.035
-398.179	-82.144	-0.148	0.048
-397.165	380.040	0.230	0.468
-396.150	42.412	-0.317	-0.286
-395.136	-81.685	0.118	-0.039
-394.121	-70.688	-0.132	0.050
-393.106	38.982	0.194	0.172
-392.092	27.442	-0.059	0.050
-391.077	-200.000	0.004	0.115
-390.063	-104.353	0.024	-0.006
-389.048	-109.101	0.398	-0.084
-388.033	-184.590	0.198	-0.003
-387.019	-111.662	0.195	-0.039
-386.004	800.000	0.099	-0.309
-384.990	30.814	0.059	0.050
-383.975	-120.915	-0.418	-0.070
-382.960	777.762	-0.086	0.232
-381.946	-86.562	0.250	0.076
-380.931	-32.398	0.324	0.179
-379.917	21.377	0.079	0.064
-378.902	71.094	0.094	-0.096
-377.888	-117.011	-0.197	-0.036
-376.873	-29.410	-0.297	0.169
-375.858	-200.000	0.034	0.286
-374.844	-48.729	0.224	0.107
-373.829	-200.000	0.002	-0.154
-372.815	549.358	-0.133	0.317
-371.800	-62.662	0.352	-0.145
-370.785	-82.325	0.168	-0.054
-369.771	-64.397	-0.335	-0.135
-368.756	-167.290	0.189	0.008
-367.742	-96.384	-0.295	0.078
-366.727	800.000	-0.010	0.033
-365.712	-200.000	-0.265	0.000
-364.698	800.000	0.068	-0.217
-363.683	66.772	0.048	0.049
-362.669	29.433	0.149	0.126
-361.654	-127.300	-0.419	0.061
-360.639	227.857	-0.029	0.047
-359.625	-116.818	0.158	-0.029
-358.610	800.000	0.068	0.231
-357.596	287.225	0.167	-0.299
-356.581	-174.729	0.153	-0.004
-355.566	192.388	-0.103	-0.154
-354.552	236.721	0.071	-0.116
-353.537	-11.266	0.205	0.134
-352.523	-200.000	0.040	-0.436
-351.508	90.478	0.181	0.200
-350.493	-200.000	0.040	0.192
-349.479	271.775	0.181	0.316
-348.464	-200.000	-0.026	0.301
-347.450	-200.000	0.010	-0.179
-346.435	-200.000	0.043	-0.491
-345.420	800.000	-0.013	-0.042
-344.406	162.187	0.162	0.225
-343.391	-34.536	0.052	0.028
-342.377	-78.163	-0.373	0.127
-341.362	231.027	0.078	-0.126
-340.348	-200.000	0.083	0.374
-339.333	130.698	0.125	-0.158
-338.318	-200.000	-0.003	-0.092
-337.304	94.466	0.132	-0.148
-336.289	36.769	-0.256	0.225
-335.275	72.162	0.167	0.173
-334.260	800.000	-0.048	-0.166
-333.245	800.000	0.070	0.287
-332.231	29.649	-0.222	0.187
-331.216	182.278	0.095	-0.139
-330.202	13.536	-0.113	0.087
-329.187	113.802	-0.048	-0.058
-328.172	-103.460	0.061	0.014
-327.158	-128.775	0.130	-0.018
-326.143	-88.525	-0.468	0.138
-325.129	184.815	0.228	0.335
-324.114	-117.176	-0.136	-0.024
-323.099	375.473	-0.053	-0.107
-322.085	729.647	-0.107	0.284
-321.070	-200.000	0.012	0.076
-320.056	-58.238	-0.329	0.142
-319.041	-12.637	0.143	-0.093
-318.026	170.987	-0.203	-0.289
-317.012	204.950	-0.067	0.102
-315.997	-200.000	-0.021	0.314
-314.983	75.879	-0.116	0.122
-313.968	40.052	0.243	-0.217
-312.953	-94.276	-0.230	0.062
-311.939	302.846	-0.080	-0.147
-310.924	791.526	0.179	0.488
-309.910	85.794	0.094	0.102
-308.895	-117.781	-0.244	-0.044
-307.880	-200.000	-0.030	0.443
-306.866	-200.000	0.027	-0.164
-305.851	203.428	0.114	0.174
-304.837	800.000	0.077	-0.260
-303.822	393.655	0.068	0.140
-302.807	-92.786	0.158	0.044
-301.793	294.633	0.095	-0.172
-300.778	-56.175	0.177	0.078
-299.764	-200.000	0.044	-0.245
-298.749	-0.261	0.302	-0.213
-297.735	-200.000	-0.064	-0.382
-296.720	-43.623	-0.164	-0.082
-295.705	800.000	0.063	0.249
-294.691	128.288	-0.150	-0.189
-293.676	-80.350	-0.116	-0.038
-292.662	-200.000	-0.005	-0.039
-291.647	-200.000	0.010	-0.355
-290.632	-36.669	-0.073	-0.039
-289.618	-24.377	-0.139	0.082
-288.603	281.615	-0.156	-0.277
-287.589	23.495	-0.048	-0.039
-286.574	800.000	0.090	0.324
-285.559	-175.467	0.176	0.005
-284.545	751.846	-0.025	-0.066
-283.530	74.222	0.158	-0.165
-282.516	-7.002	0.189	-0.127
-281.501	-134.982	0.264	-0.032
-280.486	42.094	-0.217	-0.195
-279.472	-52.376	-0.090	-0.041
-278.457	-133.381	0.278	0.035
-277.443	60.374	-0.185	0.181
-276.428	-74.349	0.247	0.088
-275.413	469.808	0.144	-0.319
-274.399	-129.300	0.133	0.018
-273.384	-200.000	0.010	0.229
-272.370	-109.952	-0.656	0.136
-271.355	592.389	0.050	0.121
-270.340	104.700	-0.040	0.046
-269.326	800.000	-0.101	-0.323
-268.311	-89.413	-0.225	0.065
-267.297	-129.728	-0.505	0.069
-266.282	800.000	0.051	0.164
-265.267	800.000	-0.039	0.148
-264.253	191.591	-0.182	-0.271
-263.238	-200.000	0.048	-0.380
-262.224	-47.092	-0.156	0.075
-261.209	-39.866	-0.118	-0.061
-260.195	-200.000	0.006	0.151
-259.180	-200.000	0.001	-0.024
-258.165	-22.708	0.090	0.054
-257.151	800.000	0.027	0.103
-256.136	-64.929	0.145	0.058
-255.122	20.024	-0.081	-0.064
-254.107	225.747	-0.211	-0.338
-253.092	183.455	0.290	-0.424
-252.078	68.688	0.121	0.122
-251.063	-111.820	0.100	0.020
-250.049	-200.000	-0.015	-0.109
-249.034	304.117	0.061	0.112
-248.019	-104.400	0.270	0.062
-247.005	-200.000	0.005	0.233
-245.990	-55.489	-0.356	0.157
-244.976	-200.000	0.016	0.214
-243.961	-200.000	0.017	-0.345
-242.946	-101.883	0.256	0.061
-241.932	692.003	0.054	-0.139
-240.917	-83.909	-0.272	-0.085
-239.903	800.000	-0.019	-0.068
-238.888	-14.156	0.117	0.074
-237.873	-113.806	-0.078	0.015
-236.859	168.098	-0.147	0.207
-235.844	800.000	0.079	-0.244
-234.830	-130.749	-0.181	-0.024
-233.815	9.199	0.266	0.198
-232.800	-82.433	0.260	-0.083
-231.786	800.000	0.034	0.104
-230.771	-81.678	-0.314	0.102
-229.757	96.348	-0.112	-0.127
-228.742	270.301	0.093	0.161
-227.727	-99.127	-0.211	0.053
-226.713	-91.796	-0.283	0.079
-225.698	533.922	-0.096	-0.224
-224.684	800.000	0.047	0.178
-223.669	27.187	-0.088	-0.073
-222.655	-105.745	0.275	-0.061
-221.640	-163.462	0.172	-0.008
-220.625	12.763	0.261	-0.199
-219.611	99.550	-0.154	-0.176
-218.596	-132.395	-0.409	0.052
-217.582	800.000	-0.089	-0.246
-216.567	670.106	0.052	0.132
-215.552	292.369	0.227	0.409
-214.538	-200.000	-0.047	0.309
-213.523	-200.000	0.061	0.310
-212.509	-142.074	0.487	0.048
-211.494	-24.498	0.097	0.057
-210.479	-40.902	-0.323	-0.165
-209.465	800.000	-0.115	-0.332
-208.450	-200.000	-0.014	0.213
-207.436	-53.345	-0.076	-0.034
-206.421	553.932	0.052	-0.123
-205.406	-5.300	-0.196	0.133
-204.392	358.275	0.169	0.333
-203.377	800.000	0.021	0.080
-202.363	162.722	-0.183	-0.253
-201.348	171.100	-0.036	0.051
-200.333	-139.229	-0.226	0.024
-199.319	-101.271	-0.234	0.056
-198.304	45.469	0.169	0.154
-197.290	-56.026	0.115	0.051
-196.275	-63.856	-0.259	0.105
-195.260	800.000	-0.021	0.067
-194.246	-80.382	0.044	0.014
-193.231	415.956	-0.145	-0.306
-192.217	800.000	0.086	0.354
-191.202	-200.000	0.051	0.360
-190.187	390.654	-0.093	0.189
-189.173	-200.000	0.068	-0.353
-188.158	46.211	-0.383	-0.350
-187.144	682.947	-0.055	-0.141
-186.129	-88.389	-0.120	0.035
-185.114	-107.827	-0.369	-0.079
-184.100	-74.905	0.256	-0.090
-183.085	800.000	-0.064	-0.183
-182.071	-107.976	-0.369	0.079
-181.056	-43.639	0.143	0.071
-180.042	-57.124	-0.159	0.069
-179.027	387.906	-0.112	0.227
-178.012	661.410	-0.011	-0.029
-176.998	-9.558	0.473	0.311
-175.983	334.631	-0.140	-0.266
-174.969	788.691	0.062	0.168
-173.954	-74.189	-0.258	0.092
-172.939	388.576	-0.088	-0.180
-171.925	-1.857	0.109	0.075
-170.910	-91.187	0.070	0.020
-169.896	18.812	0.173	0.136
-168.881	299.848	-0.209	0.379
-167.866	306.180	0.028	0.052
-166.852	-200.000	-0.029	0.178
-165.837	258.264	0.103	0.175
-164.823	-128.424	0.280	0.039
-163.808	800.000	-0.054	-0.227
-162.793	258.019	-0.159	0.269
-161.779	607.877	0.123	-0.302
-160.764	-200.000	0.018	0.099
-159.750	-55.034	-0.189	0.084
-158.735	800.000	0.102	0.291
-157.720	-200.000	-0.037	-0.164
-156.706	340.843	0.081	-0.155
-155.691	-200.000	-0.004	0.090
-154.677	179.076	0.212	0.305
-153.662	-12.405	0.172	0.110
-152.647	-200.000	0.039	0.448
-151.633	800.000	0.026	-0.110
-150.618	-200.000	-0.006	0.047
-149.604	-80.870	-0.342	-0.112
-148.589	268.144	-0.034	-0.058
-147.574	-200.000	-0.042	-0.332
-146.560	72.913	-0.202	-0.208
-145.545	800.000	0.023	-0.064
-144.531	-63.169	-0.138	-0.056
-143.516	95.471	-0.103	-0.116
-142.502	-62.415	0.127	0.052
-141.487	92.174	0.235	0.260
-140.472	797.316	0.098	0.267
-139.458	-110.149	-0.111	-0.023
-138.443	-200.000	-0.016	0.376
-137.429	-176.268	0.277	-0.007
-136.414	-57.365	-0.265	-0.114
-135.399	-162.920	-0.320	0.015
-134.385	-200.000	-0.058	-0.300
-133.370	-180.324	-0.195	0.004
-132.356	-191.517	-0.351	-0.003
-131.341	33.444	0.110	0.094
-130.326	-200.000	-0.020	0.089
-129.312	800.000	-0.079	0.229
-128.297	-126.422	-0.568	-0.083
-127.283	-23.023	0.221	0.131
-126.268	121.478	-0.139	0.170
-125.253	-200.000	-0.039	0.189
-124.239	-200.000	0.041	0.222
-123.224	130.346	0.157	0.198
-122.210	335.436	-0.105	-0.201
-121.195	113.197	0.035	-0.042
-120.180	-179.058	-0.031	0.001
-119.166	-200.000	-0.034	-0.255
-118.151	-89.794	0.348	-0.100
-117.137	-129.932	0.133	-0.018
-116.122	-43.192	0.305	-0.152
-115.107	-18.796	0.220	-0.135
-114.093	-200.000	0.031	-0.191
-113.078	3.877	0.213	0.153
-112.064	-200.000	-0.055	0.327
-111.049	-200.000	0.075	0.447
-110.034	351.381	0.052	-0.102
-109.020	-128.975	-0.279	0.038
-108.005	800.000	0.021	0.073
-106.991	-151.209	0.075	0.005
-105.976	140.969	0.101	0.131
-104.962	-200.000	-0.004	0.115
-103.947	-200.000	0.004	0.066
-102.932	-134.002	-0.258	0.031
-101.918	800.000	-0.069	0.200
-100.903	-200.000	-0.015	0.283
-99.889	141.876	-0.076	0.099
-98.874	135.028	0.059	0.075
-97.859	-127.646	-0.094	0.013
-96.845	-128.382	0.199	0.028
-95.830	42.738	0.281	-0.251
-94.816	158.922	0.127	0.173
-93.801	-124.286	-0.492	0.076
-92.786	-200.000	0.047	0.383
-91.772	25.872	0.350	-0.287
-90.757	-144.996	0.041	-0.004
-89.743	-200.000	-0.025	0.181
-88.728	800.000	-0.079	0.218
-87.713	-140.581	-0.349	0.036
-86.699	99.648	-0.165	0.187
-85.684	800.000	0.048	-0.135
-84.670	291.695	-0.082	0.146
-83.655	-200.000	0.011	0.144
-82.640	215.031	0.126	0.196
-81.626	-94.464	-0.308	-0.082
-80.611	-200.000	0.016	-0.107
-79.597	-144.671	0.323	0.029
-78.582	222.644	-0.060	-0.094
-77.567	40.102	-0.275	0.243
-76.553	267.008	0.143	-0.246
-75.538	-51.802	0.182	-0.083
-74.524	-37.746	0.234	0.122
-73.509	105.685	-0.119	0.138
-72.494	-200.000	-0.054	-0.505
-71.480	-70.056	0.144	0.054
-70.465	-200.000	-0.060	0.257
-69.451	-200.000	-0.013	-0.105
-68.436	-114.710	0.187	-0.035
-67.422	5.919	0.239	-0.173
-66.407	-132.820	-0.031	0.004
-65.392	173.237	0.211	0.298
-64.378	800.000	-0.040	0.135
-63.363	-2.283	-0.064	0.044
-62.349	37.092	-0.057	0.049
-61.334	53.196	-1.204	-1.131
-60.319	538.222	0.306	0.712
-59.305	367.496	-0.330	-0.653
-58.290	268.017	0.700	1.202
-57.276	800.000	0.508	1.486
-56.261	-200.000	110.995	616.980
-55.246	510.429	1517.602	3460.795
-54.232	176.926	2694.173	3842.670
-53.217	109.472	2172.839	2551.556
-52.203	39.060	1703.275	1492.861
-51.188	32.070	1520.738	1285.179
-50.173	29.599	1495.508	1247.153
-49.159	51.217	1554.162	1445.609
-48.144	51.060	1569.612	1458.839
-47.130	32.074	1524.855	1288.487
-46.115	29.071	1509.975	1255.417
-45.100	28.850	1506.888	1251.292
-44.086	28.850	1504.456	1249.223
-43.071	28.843	1502.430	1247.447
-42.057	28.775	1500.789	1245.570
-41.042	28.849	1499.413	1244.885
-40.027	28.731	1497.878	1242.760
-39.013	28.762	1496.721	1241.962
-37.998	28.765	1495.233	1240.694
-36.984	28.762	1493.998	1239.602
-35.969	28.851	1492.586	1238.985
-34.954	28.715	1491.796	1237.361
-33.940	28.756	1490.552	1236.559
-32.925	28.868	1488.551	1235.599
-31.911	28.852	1487.537	1234.599
-30.896	28.829	1486.385	1233.440
-29.881	28.914	1484.805	1232.653
-28.867	28.823	1483.448	1230.867
-27.852	28.847	1482.353	1230.073
-26.838	28.814	1481.448	1229.053
-25.823	28.816	1480.159	1227.946
-24.809	28.869	1477.947	1226.415
-23.794	28.761	1476.768	1224.671
-22.779	28.831	1475.549	1224.072
-21.765	28.769	1475.088	1223.229
-20.750	28.780	1474.123	1222.458
-19.736	28.859	1472.322	1221.436
-18.721	28.780	1471.529	1220.210
-17.706	28.719	1470.581	1218.970
-16.692	28.769	1469.331	1218.212
-15.677	28.945	1467.754	1218.025
-14.663	28.900	1466.565	1216.690
-13.648	28.789	1466.186	1215.596
-12.633	28.781	1465.380	1214.828
-11.619	28.706	1464.478	1213.534
-10.604	28.778	1463.463	1213.121
-9.590	28.741	1462.584	1212.102
-8.575	28.786	1461.754	1211.663
-7.560	28.834	1460.817	1211.149
-6.546	28.790	1459.426	1209.661
-5.531	28.759	1458.860	1208.939
-4.517	28.783	1457.961	1208.305
-3.502	28.779	1456.989	1207.427
-2.487	28.900	1455.753	1207.149
-1.473	28.679	1454.899	1204.942
-0.458	28.849	1453.259	1204.646
0.556	30.374	1443.721	1193.003
1.571	27.235	1418.664	1152.336
2.586	23.582	1360.229	1082.533
3.600	21.769	1278.264	1006.809
4.615	20.499	1231.568	962.911
5.629	17.956	1175.579	905.588
6.644	10.712	1092.643	805.796
7.659	4.886	1053.902	749.205
8.673	4.011	1049.066	741.514
9.688	3.722	1045.722	737.705
10.702	3.709	1043.378	735.924
11.717	3.698	1041.821	734.709
12.731	6.447	1044.600	749.698
13.746	14.262	1054.961	794.497
14.761	21.198	1063.929	834.450
15.775	23.160	1066.289	845.610
16.790	22.908	1064.233	842.704
17.804	21.952	1062.820	836.952
18.819	21.367	1061.191	832.812
19.834	20.978	1060.246	830.145
20.848	21.051	1059.409	829.764
21.863	21.041	1059.582	829.774
22.877	21.070	1058.088	828.672
23.892	20.728	1057.889	826.819
24.907	20.689	1057.099	825.940
25.921	20.664	1056.015	824.902
26.936	20.510	1055.256	823.507
27.950	20.610	1053.924	822.868
28.965	20.550	1052.912	821.723
29.980	20.635	1051.892	821.254
30.994	20.752	1051.166	821.169
32.009	20.946	1050.580	821.549
33.023	20.852	1050.063	820.634
34.038	21.020	1048.914	820.453
35.053	20.894	1047.808	818.923
36.067	20.691	1046.842	817.142
37.082	20.629	1045.976	816.101
38.096	20.516	1045.683	815.272
39.111	20.856	1044.627	815.968
40.126	21.012	1043.619	815.839
41.140	20.821	1042.601	814.079
42.155	20.457	1041.109	811.142
43.169	20.159	1040.081	808.879
44.184	20.076	1038.878	807.483
45.199	20.133	1038.026	807.017
46.213	20.121	1036.942	806.047
47.228	20.210	1036.294	805.885
48.242	20.636	1035.616	807.266
49.257	20.770	1035.102	807.414
50.271	20.790	1034.315	806.821
51.286	20.720	1033.759	805.990
52.301	20.852	1033.291	806.166
53.315	20.917	1032.046	805.424
54.330	20.653	1031.398	803.628
55.344	20.551	1030.049	802.036
56.359	20.463	1029.265	800.949
57.374	20.370	1028.511	799.860
58.388	20.400	1027.603	799.224
59.403	20.251	1027.212	798.164
60.417	20.119	1026.154	796.666
61.432	20.043	1025.198	795.503
62.447	20.002	1024.823	794.950
63.461	20.027	1023.154	793.700
64.476	19.898	1022.676	792.670
65.490	20.059	1021.470	792.400
66.505	19.883	1020.959	791.128
67.520	19.867	1020.491	790.626
68.534	19.992	1019.718	790.526
69.549	19.884	1018.916	789.343
70.563	19.819	1017.895	788.184
71.578	19.851	1016.735	787.363
72.593	19.540	1016.081	785.373
73.607	19.421	1014.618	783.633
74.622	19.407	1013.923	782.963
75.636	19.422	1013.457	782.602
76.651	19.624	1012.206	782.479
77.666	19.593	1011.836	781.986
78.680	19.756	1011.038	782.036
79.695	19.679	1010.768	781.411
80.709	19.785	1009.876	781.133
81.724	19.948	1008.822	780.981
82.739	20.127	1008.602	781.551
83.753	20.050	1008.207	780.827
84.768	20.575	1007.447	782.533
85.782	20.961	1007.130	783.952
86.797	21.186	1006.760	784.608
87.812	21.206	1006.073	784.091
88.826	20.951	1005.106	782.125
89.841	20.838	1004.589	781.148
90.855	21.034	1003.673	781.244
91.870	21.149	1002.793	781.006
92.884	21.139	1002.441	780.618
93.899	21.069	1001.192	779.260
94.914	20.989	1000.627	778.398
95.928	21.030	1000.125	778.119
96.943	20.984	999.265	777.177
97.957	20.888	998.230	775.877
98.972	20.762	997.265	774.495
99.987	20.841	996.496	774.180
101.001	21.041	995.665	774.355
102.016	20.928	994.954	773.234
103.030	20.872	993.741	771.974
104.045	20.957	992.814	771.562
105.060	20.912	992.208	770.823
106.074	20.819	991.054	769.449
107.089	20.467	990.433	767.343
108.103	20.146	989.585	765.202
109.118	20.161	988.047	764.009
110.133	19.953	987.000	762.219
111.147	19.860	986.007	760.976
112.162	19.752	985.385	759.955
113.176	19.844	984.576	759.667
114.191	20.058	983.748	759.897
115.206	20.203	982.798	759.734
116.220	20.096	982.115	758.667
117.235	19.860	981.575	757.151
118.249	19.814	980.912	756.373
119.264	19.909	979.604	755.712
120.279	19.683	979.104	754.271
121.293	19.695	978.163	753.535
122.308	19.617	977.159	752.354
123.322	19.539	976.048	751.094
124.337	19.431	975.418	750.072
125.352	19.333	974.373	748.773
126.366	19.332	973.071	747.703
127.381	19.441	971.725	747.075
128.395	19.516	971.074	746.837
129.410	19.744	970.185	747.068
130.424	19.475	970.045	745.736
131.439	19.626	969.071	745.572
132.454	19.916	968.382	746.227
133.468	20.005	967.640	745.971
134.483	19.972	967.144	745.379
135.497	20.011	966.244	744.788
136.512	19.952	965.872	744.182
137.527	20.155	964.552	743.972
138.541	20.045	963.957	742.974
139.556	19.992	963.546	742.365
140.570	20.012	962.988	741.955
141.585	20.324	962.256	742.661
142.600	20.731	961.183	743.506
143.614	20.728	960.852	743.172
144.629	20.889	960.156	743.255
145.643	20.979	959.857	743.341
146.658	20.781	959.159	741.890
147.673	20.807	957.073	740.320
148.687	20.437	956.492	738.235
149.702	20.309	955.024	736.494
150.716	20.169	954.134	735.148
151.731	20.053	953.859	734.377
152.746	20.217	952.993	734.341
153.760	20.382	952.130	734.308
154.775	20.319	951.469	733.468
155.789	20.467	950.696	733.435
156.804	20.477	949.778	732.701
157.819	20.496	949.096	732.193
158.833	20.493	948.632	731.757
159.848	20.751	948.033	732.313
160.862	20.984	947.607	732.898
161.877	20.936	946.270	731.599
162.892	20.464	944.982	728.562
163.906	20.165	943.925	726.427
164.921	19.998	943.084	725.017
165.935	19.948	942.257	724.110
166.950	20.179	941.266	724.248
167.964	20.170	940.616	723.645
168.979	20.269	939.473	723.115
169.994	20.221	937.820	721.580
171.008	20.024	937.687	720.592
172.023	20.308	936.825	721.050
173.037	20.521	936.624	721.715
174.052	20.749	935.521	721.745
175.067	20.783	934.486	721.023
176.081	20.345	934.032	718.796
177.096	20.015	932.435	716.139
178.110	19.927	931.701	715.149
179.125	19.982	931.364	715.056
180.140	20.045	930.438	714.540
181.154	20.268	929.611	714.760
182.169	20.387	929.472	715.081
183.183	20.610	929.419	715.894
184.198	20.596	928.667	715.196
185.213	20.563	927.994	714.477
186.227	20.717	926.921	714.219
187.242	20.846	926.493	714.354
188.256	20.817	925.732	713.590
189.271	20.934	925.489	713.818
190.286	21.090	924.753	713.823
191.300	20.715	924.117	711.736
192.315	20.194	922.671	708.431
193.329	19.882	921.569	706.251
194.344	19.850	920.981	705.607
195.359	19.971	920.951	706.016
196.373	20.324	920.250	706.852
197.388	20.343	920.009	706.682
198.402	20.630	919.963	707.751
199.417	20.844	919.418	708.140
200.432	21.130	919.115	709.007
201.446	21.152	919.358	709.219
202.461	21.408	918.498	709.532
203.475	21.400	918.384	709.351
204.490	21.299	917.387	708.109
205.504	20.959	915.927	705.541
206.519	20.645	914.880	703.403
207.534	20.619	914.406	702.872
208.548	20.534	913.683	701.910
209.563	20.644	913.174	701.903
210.577	20.739	912.309	701.558
211.592	20.831	911.558	701.287
212.607	20.943	911.923	701.960
213.621	21.163	910.968	702.045
214.636	21.171	910.438	701.609
215.650	21.026	909.751	700.432
216.665	21.039	908.939	699.801
217.680	21.125	908.343	699.624
218.694	21.132	908.707	699.867
219.709	21.268	908.360	700.083
220.723	21.187	907.376	698.941
221.738	21.158	905.995	697.699
222.753	21.000	905.567	696.678
223.767	20.944	904.886	695.867
224.782	21.048	904.172	695.673
225.796	21.165	903.892	695.861
226.811	21.388	902.754	695.813
227.826	21.371	902.131	695.201
228.840	20.966	901.243	692.846
229.855	20.759	900.895	691.695
230.869	20.905	900.071	691.581
231.884	20.833	899.322	690.660
232.899	20.782	898.684	689.905
233.913	20.730	897.503	688.733
234.928	20.522	897.068	687.514
235.942	20.505	896.294	686.796
236.957	20.499	895.423	686.043
237.972	20.407	895.172	685.427
238.986	20.506	894.381	685.148
240.001	20.577	893.469	684.672
241.015	20.342	893.268	683.530
242.030	20.510	892.594	683.615
243.045	20.703	892.040	683.890
244.059	20.885	891.199	683.900
245.074	20.916	890.680	683.560
246.088	21.034	889.857	683.331
247.103	21.174	889.831	683.797
248.117	21.272	889.218	683.651
249.132	21.300	889.774	684.126
250.147	21.734	889.158	685.293
251.161	22.028	888.814	686.113
252.176	22.290	888.429	686.779
253.190	22.255	887.427	685.806
254.205	22.249	887.186	685.536
255.220	22.261	886.979	685.362
256.234	22.246	885.785	684.322
257.249	22.197	885.343	683.730
258.263	22.132	884.480	682.751
259.278	22.173	884.080	682.539
260.293	21.937	883.702	681.273
261.307	22.052	883.267	681.323
262.322	22.150	882.549	681.088
263.336	22.276	882.233	681.271
264.351	22.304	881.491	680.748
265.366	22.242	880.713	679.845
266.380	22.221	880.159	679.279
267.395	22.376	879.430	679.252
268.409	22.133	878.754	677.733
269.424	22.040	877.927	676.677
270.439	21.957	877.001	675.583
271.453	21.972	876.291	675.036
272.468	21.789	876.021	674.063
273.482	21.741	874.945	672.991
274.497	21.823	874.247	672.711
275.512	21.680	873.447	671.486
276.526	21.687	872.774	670.938
277.541	21.865	872.246	671.153
278.555	21.888	871.886	670.905
279.570	22.053	871.905	671.489
280.585	22.258	871.305	671.754
281.599	22.366	870.818	671.731
282.614	22.063	869.926	669.827
283.628	21.922	869.335	668.774
284.643	21.719	868.408	667.231
285.657	21.707	868.126	666.907
286.672	21.770	867.879	666.898
287.687	21.946	866.827	666.701
288.701	21.747	866.829	665.888
289.716	21.859	866.068	665.670
290.730	21.788	865.353	664.792
291.745	22.008	864.852	665.181
292.760	21.995	864.226	664.590
293.774	22.207	863.484	664.763
294.789	22.360	863.347	665.178
295.803	22.476	862.634	665.007
296.818	22.089	861.713	662.778
297.833	21.908	861.004	661.491
298.847	21.924	860.182	660.864
299.862	21.974	859.310	660.324
300.876	22.119	858.616	660.278
301.891	22.249	858.492	660.610
302.906	22.249	858.513	660.567
303.920	22.423	858.303	661.001
304.935	22.588	857.567	660.993
305.949	22.826	857.130	661.493
306.964	22.503	856.780	659.953
307.979	22.501	855.516	658.914
308.993	22.297	854.653	657.430
310.008	22.460	854.294	657.702
311.022	22.630	853.576	657.725
312.037	22.519	853.225	656.984
313.052	22.286	852.605	655.580
314.066	22.017	851.744	653.858
315.081	21.793	851.080	652.456
316.095	21.719	850.384	651.592
317.110	21.703	850.149	651.294
318.125	21.842	849.331	651.124
319.139	21.856	848.804	650.714
320.154	21.837	848.094	650.044
321.168	21.679	847.845	649.208
322.183	21.906	847.142	649.454
323.197	21.928	846.711	649.149
324.212	21.949	846.200	648.776
325.227	21.898	845.870	648.277
326.241	22.084	844.940	648.193
327.256	21.843	844.669	647.037
328.270	21.828	843.920	646.354
329.285	21.829	843.364	645.872
330.300	21.881	842.527	645.366
331.314	21.843	842.087	644.832
332.329	21.762	841.849	644.293
333.343	22.013	841.291	644.734
334.358	22.294	840.717	645.267
335.373	22.148	840.676	644.644
336.387	22.293	839.690	644.361
337.402	22.222	839.696	644.048
338.416	22.545	838.834	644.512
339.431	22.636	838.403	644.458
340.446	22.746	838.317	644.736
341.460	23.072	837.676	645.375
342.475	23.036	837.285	644.887
343.489	23.125	836.563	644.599
344.504	23.197	836.203	644.524
345.519	23.272	835.852	644.470
346.533	23.304	835.295	644.101
347.548	23.299	834.911	643.728
348.562	23.045	833.869	641.945
349.577	22.705	833.070	640.039
350.592	22.395	832.262	638.238
351.606	22.339	831.685	637.539
352.621	22.368	830.911	636.992
353.635	22.362	830.701	636.754
354.650	22.336	830.298	636.296
355.665	22.436	830.236	636.552
356.679	22.475	829.694	636.221
357.694	22.542	829.338	636.136
358.708	22.686	828.457	635.920
359.723	22.606	827.886	635.137
360.738	22.626	827.197	634.625
361.752	22.520	826.811	633.894
362.767	22.636	826.905	634.324
363.781	22.894	826.187	634.647
364.796	23.106	826.631	635.692
365.810	23.116	826.019	635.200
366.825	23.502	825.880	636.422
367.840	23.572	825.748	636.516
368.854	23.425	824.931	635.306
369.869	23.272	824.106	634.064
370.883	22.944	823.850	632.638
371.898	23.024	822.613	631.919
372.913	23.308	822.277	632.618
373.927	23.135	822.041	631.761
374.942	23.122	821.306	631.094
375.956	23.079	820.290	630.105
376.971	23.289	819.773	630.402
377.986	23.383	819.537	630.498
379.000	23.635	818.803	630.771
380.015	23.628	818.540	630.491
381.029	23.540	818.029	629.730
382.044	23.621	817.188	629.313
383.059	23.545	816.817	628.701
384.073	23.545	815.887	627.930
385.088	23.452	815.388	627.163
386.102	23.104	815.006	625.582
387.117	23.162	813.608	624.657
388.132	22.842	813.436	623.340
389.146	22.851	812.888	622.897
390.161	22.858	812.625	622.667
391.175	23.236	812.304	623.696
392.190	23.463	812.338	624.465
393.205	23.419	811.480	623.599
394.219	23.135	810.944	622.132
395.234	22.829	810.389	620.576
396.248	22.788	810.074	620.134
397.263	22.686	809.394	619.204
398.278	22.644	808.859	618.592
399.292	22.601	808.203	617.883
400.307	22.490	807.759	617.100
401.321	22.617	807.329	617.160
402.336	22.677	806.831	616.935
403.350	22.728	806.956	617.156
404.365	22.949	806.499	617.525
405.380	23.144	806.420	618.092
406.394	23.471	805.899	618.777
407.409	23.609	805.611	618.984
408.423	23.774	805.345	619.299
409.438	23.787	804.670	618.770
410.453	23.867	804.564	618.912
411.467	23.954	804.158	618.847
412.482	23.930	803.546	618.238
413.496	23.863	803.299	617.762
414.511	24.034	802.951	618.034
415.526	24.170	802.181	617.857
416.540	24.071	801.821	617.184
417.555	23.838	801.195	615.839
418.569	23.827	801.000	615.595
419.584	23.993	800.125	615.444
420.599	23.908	799.704	614.770
421.613	163.155	1371.334	1796.477
422.628	141.699	1454.617	1796.565
