DTS Sentinel unit serial number:	SN413079Multiplexer serial number:	ORYXHardware model number:	OX4-SRSoftware version number:	ORYX F/W v4.00 Oryx Data Collector v3.7.2.0data status	okinstallation	princeton_trtdifferential loss correction	single-endedforward channel	channel 3reverse channel	N/Adate	2019/09/14time	08:16:35forward acquisition time	60.00reverse acquisition time	0.00gamma	496.2192k internal	0.2332k external	0.2332temperature offset calibration	1.0050default loss term (dB/km)	0.3790temperature slope calibration	1.0000multiplexer offset coefficient	1.0000multiplexer slope coefficient	1.0000fibre end	0.00T internal ref (°C)	27.72T ext. ref 1 (°C)	3.60T ext. ref 2 (°C)	26.19length (m)	temperature (°C)	Stokes	anti-Stokes-747.200	-8.646	0.054	-0.036
-746.185	-3.405	0.164	0.115
-745.171	-0.402	0.358	0.256
-744.156	204.296	-0.128	0.200
-743.142	-119.412	0.289	0.050
-742.127	-200.000	-0.040	-0.374
-741.112	-129.602	0.404	-0.056
-740.098	377.225	-0.105	0.215
-739.083	77.331	-0.005	-0.006
-738.069	-4.872	-0.290	0.201
-737.054	-91.418	0.285	-0.082
-736.039	199.688	-0.099	0.153
-735.025	115.266	0.072	0.088
-734.010	-34.175	-0.218	0.121
-732.996	1.988	-0.203	0.148
-731.981	78.352	-0.236	0.253
-730.966	50.232	-0.053	0.050
-729.952	-136.072	0.113	-0.013
-728.937	124.488	-0.104	-0.131
-727.923	60.177	0.323	-0.321
-726.908	-56.550	0.196	-0.087
-725.894	415.920	-0.162	-0.346
-724.879	78.180	-0.204	-0.219
-723.864	-101.615	-0.154	0.038
-722.850	-57.840	0.040	0.017
-721.835	-125.967	0.140	0.021
-720.821	199.763	0.080	-0.124
-719.806	-54.298	0.053	0.024
-718.791	-77.398	0.020	-0.007
-717.777	273.965	-0.059	0.105
-716.762	620.502	0.063	0.160
-715.748	604.745	-0.114	0.286
-714.733	800.000	-0.097	0.286
-713.718	11.330	-0.009	0.007
-712.704	-34.360	-0.084	-0.047
-711.689	-67.812	-0.153	0.060
-710.675	119.828	-0.124	-0.155
-709.660	-69.866	-0.084	0.032
-708.645	800.000	-0.026	-0.087
-707.631	147.506	-0.097	-0.131
-706.616	-200.000	-0.008	0.140
-705.602	800.000	-0.003	-0.011
-704.587	342.608	-0.097	0.191
-703.572	-200.000	-0.005	-0.205
-702.558	-36.640	-0.032	0.017
-701.543	73.611	-0.112	-0.118
-700.529	-32.320	0.493	0.277
-699.514	-59.844	-0.312	0.134
-698.499	-115.140	0.109	-0.021
-697.485	-81.782	-0.111	0.037
-696.470	-52.616	-0.126	0.058
-695.456	-140.427	-0.068	-0.007
-694.441	-200.000	0.013	0.102
-693.426	80.251	-0.292	0.315
-692.412	103.412	0.092	0.108
-691.397	691.567	-0.046	-0.122
-690.383	-200.000	0.017	-0.178
-689.368	-146.817	0.152	-0.013
-688.354	22.319	-0.165	-0.135
-687.339	-91.336	0.139	0.040
-686.324	800.000	-0.105	0.448
-685.310	-166.092	0.132	0.006
-684.295	56.206	-0.153	0.149
-683.281	103.688	-0.176	0.208
-682.266	589.017	-0.166	-0.410
-681.251	-129.771	0.168	-0.023
-680.237	-74.929	0.036	-0.013
-679.222	800.000	-0.045	-0.175
-678.208	-116.549	-0.403	-0.075
-677.193	588.298	0.020	-0.049
-676.178	773.322	0.056	-0.152
-675.164	27.704	-0.071	-0.060
-674.149	-200.000	-0.082	-0.483
-673.135	-87.679	0.030	0.009
-672.120	43.851	-0.154	-0.142
-671.105	38.289	-0.182	-0.162
-670.091	6.542	-0.208	0.155
-669.076	-44.587	-0.246	0.123
-668.062	-9.768	0.155	0.103
-667.047	146.159	0.035	-0.047
-666.032	-76.888	0.182	0.064
-665.018	-200.000	0.007	-0.051
-664.003	58.015	-0.116	0.114
-662.989	-102.168	-0.210	0.051
-661.974	163.285	-0.148	-0.208
-660.959	-200.000	-0.015	-0.148
-659.945	40.312	-0.168	-0.151
-658.930	-19.962	0.122	-0.076
-657.916	-6.534	0.091	-0.062
-656.901	-180.603	-0.446	-0.009
-655.886	208.908	0.107	0.168
-654.872	-200.000	-0.017	0.184
-653.857	606.224	0.135	0.336
-652.843	800.000	-0.070	-0.253
-651.828	-164.845	-0.118	-0.005
-650.814	-44.095	-0.167	0.084
-649.799	285.487	-0.176	-0.319
-648.784	-29.971	-0.238	-0.136
-647.770	-32.422	0.310	0.173
-646.755	-26.621	0.129	-0.076
-645.741	9.516	-0.333	0.253
-644.726	53.209	-0.146	0.141
-643.711	-51.364	0.356	-0.167
-642.697	414.024	0.118	-0.252
-641.682	-150.732	-0.141	0.011
-640.668	84.892	-0.373	-0.409
-639.653	-200.000	-0.024	-0.211
-638.638	26.614	0.358	-0.300
-637.624	-82.008	-0.265	-0.087
-636.609	-164.561	-0.241	-0.011
-635.595	800.000	0.093	0.324
-634.580	154.502	0.155	0.214
-633.565	-7.999	-0.331	0.224
-632.551	6.641	-0.026	-0.020
-631.536	800.000	-0.088	-0.274
-630.522	-51.818	-0.243	0.113
-629.507	-55.190	0.177	-0.080
-628.492	-200.000	0.043	0.294
-627.478	-200.000	0.025	-0.137
-626.463	85.033	0.099	-0.109
-625.449	-200.000	0.009	-0.129
-624.434	800.000	-0.075	0.254
-623.419	-141.894	-0.112	0.011
-622.405	-200.000	-0.071	-0.412
-621.390	140.725	0.025	0.034
-620.376	800.000	0.074	0.321
-619.361	187.119	-0.052	-0.078
-618.346	17.612	-0.168	0.134
-617.332	267.019	-0.279	-0.489
-616.317	140.856	0.063	0.083
-615.303	-39.257	-0.128	-0.067
-614.288	377.287	-0.052	-0.107
-613.273	-49.497	-0.160	-0.076
-612.259	212.666	-0.053	0.083
-611.244	53.867	-0.131	0.126
-610.230	-148.219	-0.415	0.034
-609.215	-200.000	-0.034	0.249
-608.201	58.239	0.192	-0.188
-607.186	568.284	-0.111	0.269
-606.171	108.609	-0.149	0.178
-605.157	-200.000	0.009	-0.110
-604.142	-200.000	-0.035	-0.184
-603.128	-50.993	0.155	-0.073
-602.113	262.184	-0.108	0.187
-601.098	-123.400	0.374	-0.060
-600.084	64.135	0.121	-0.122
-599.069	-129.480	-0.381	0.053
-598.055	169.021	-0.112	-0.160
-597.040	800.000	0.108	-0.303
-596.025	800.000	0.070	-0.254
-595.011	800.000	-0.075	0.217
-593.996	136.824	0.201	-0.262
-592.982	-27.519	0.223	0.130
-591.967	48.556	-0.237	-0.222
-590.952	-200.000	-0.032	-0.177
-589.938	9.778	-0.318	-0.242
-588.923	-155.086	0.146	-0.010
-587.909	-31.896	0.233	-0.131
-586.894	800.000	-0.055	-0.207
-585.879	156.995	0.014	0.020
-584.865	800.000	-0.064	-0.254
-583.850	-74.229	-0.071	0.026
-582.836	246.790	-0.067	-0.112
-581.821	171.675	0.041	-0.059
-580.806	209.363	-0.088	0.138
-579.792	-82.384	-0.150	0.049
-578.777	-116.571	0.345	0.064
-577.763	800.000	0.060	-0.248
-576.748	-200.000	0.061	-0.311
-575.733	-41.837	-0.056	0.029
-574.719	25.618	0.196	-0.163
-573.704	800.000	-0.102	0.373
-572.690	-163.675	-0.081	-0.004
-571.675	650.272	0.053	0.135
-570.661	-101.107	0.311	-0.076
-569.646	760.000	-0.077	-0.207
-568.631	50.719	-0.247	0.234
-567.617	133.512	0.223	-0.288
-566.602	44.031	-0.071	-0.065
-565.588	-200.000	-0.033	0.189
-564.573	80.114	0.085	-0.092
-563.558	342.640	-0.097	-0.189
-562.544	-12.769	0.235	-0.153
-561.529	35.639	-0.376	0.330
-560.515	423.984	0.121	0.260
-559.500	42.494	0.266	0.241
-558.485	-146.658	0.159	-0.014
-557.471	-176.628	-0.266	-0.007
-556.456	-57.071	-0.293	-0.129
-555.442	504.642	0.127	0.294
-554.427	68.585	-0.195	0.200
-553.412	274.594	-0.095	-0.168
-552.398	116.227	0.253	0.309
-551.383	41.859	-0.268	0.242
-550.369	277.481	0.155	-0.276
-549.354	-15.204	0.163	-0.104
-548.339	187.620	-0.152	0.227
-547.325	9.242	-0.106	0.080
-546.310	-200.000	-0.056	0.503
-545.296	-113.137	0.259	-0.051
-544.281	-200.000	0.008	-0.094
-543.266	287.246	0.085	0.153
-542.252	-200.000	-0.026	-0.269
-541.237	70.873	0.077	-0.079
-540.223	-200.000	-0.045	-0.262
-539.208	313.634	-0.081	-0.152
-538.193	-124.682	-0.122	0.019
-537.179	-22.465	0.105	0.063
-536.164	-8.226	-0.099	0.066
-535.150	687.404	0.060	-0.158
-534.135	800.000	-0.060	-0.198
-533.121	-200.000	0.043	0.370
-532.106	-21.608	-0.179	0.109
-531.091	14.850	-0.111	0.087
-530.077	-77.308	0.051	0.018
-529.062	477.894	-0.096	-0.217
-528.048	98.209	0.258	-0.296
-527.033	-30.444	0.053	-0.030
-526.018	-200.000	-0.038	0.364
-525.004	238.037	-0.075	-0.124
-523.989	-55.577	0.038	0.017
-522.975	-163.193	-0.161	-0.008
-521.960	800.000	-0.062	0.260
-520.945	277.179	0.085	-0.150
-519.931	-162.903	0.314	-0.015
-518.916	-200.000	-0.022	0.296
-517.902	-117.813	-0.276	-0.049
-516.887	-140.035	0.236	0.025
-515.872	800.000	-0.069	0.197
-514.858	63.204	-0.102	0.101
-513.843	167.371	-0.167	0.236
-512.829	-164.135	-0.431	-0.020
-511.814	471.526	0.038	-0.085
-510.799	-59.394	0.267	0.114
-509.785	9.121	0.101	-0.076
-508.770	-34.731	-0.250	-0.136
-507.756	800.000	0.108	0.419
-506.741	16.729	-0.044	0.035
-505.726	22.066	0.397	-0.323
-504.712	-22.923	0.163	-0.098
-503.697	-79.472	0.070	0.023
-502.683	309.578	0.101	-0.189
-501.668	800.000	0.095	-0.285
-500.653	-151.981	-0.563	-0.041
-499.639	226.559	-0.113	-0.182
-498.624	198.783	0.111	-0.169
-497.610	-144.418	0.232	-0.021
-496.595	-200.000	-0.005	0.063
-495.581	-100.313	-0.128	-0.032
-494.566	45.638	-0.208	-0.192
-493.551	-200.000	-0.005	-0.272
-492.537	-200.000	-0.028	0.244
-491.522	-116.648	0.091	0.017
-490.508	39.555	-0.175	0.156
-489.493	-114.602	0.212	0.041
-488.478	22.947	-0.227	-0.186
-487.464	120.762	-0.133	0.165
-486.449	331.679	-0.075	0.145
-485.435	123.413	-0.208	-0.260
-484.420	52.957	0.017	0.016
-483.405	26.252	0.129	0.108
-482.391	-74.202	0.240	0.086
-481.376	401.529	-0.122	-0.256
-480.362	-112.422	0.179	-0.036
-479.347	-31.488	-0.114	-0.064
-478.332	124.114	-0.051	0.064
-477.318	9.328	0.044	0.033
-476.303	-41.842	-0.242	0.124
-475.289	42.934	0.166	-0.150
-474.274	276.617	0.193	0.341
-473.259	-73.644	0.182	0.066
-472.245	-200.000	-0.005	0.123
-471.230	-165.324	0.320	0.014
-470.216	-200.000	0.026	-0.122
-469.201	-148.261	0.349	0.029
-468.186	-50.879	0.411	0.192
-467.172	1.572	-0.273	-0.196
-466.157	800.000	-0.059	-0.253
-465.143	-200.000	-0.014	0.173
-464.128	-75.487	-0.411	0.145
-463.113	-173.382	-0.218	0.007
-462.099	22.946	-0.063	0.052
-461.084	6.887	-0.339	0.251
-460.070	-200.000	0.046	-0.343
-459.055	-200.000	0.018	0.189
-458.040	18.282	0.083	0.066
-457.026	49.272	-0.061	-0.057
-456.011	-200.000	0.019	-0.330
-454.997	120.703	0.129	0.160
-453.982	93.507	0.083	-0.093
-452.968	67.348	0.088	-0.090
-451.953	208.951	-0.192	0.298
-450.938	688.232	-0.027	0.070
-449.924	356.739	0.033	0.066
-448.909	26.402	-0.178	0.148
-447.895	-66.546	0.138	0.054
-446.880	-200.000	-0.004	-0.027
-445.865	800.000	0.134	0.383
-444.851	-141.305	0.319	-0.032
-443.836	-13.799	0.163	-0.105
-442.822	-95.470	-0.294	-0.078
-441.807	-35.819	0.109	0.059
-440.792	463.541	-0.173	-0.384
-439.778	-138.361	-0.043	-0.005
-438.763	-200.000	0.007	0.209
-437.749	151.406	0.127	0.172
-436.734	-200.000	-0.013	-0.121
-435.719	-118.756	0.228	0.040
-434.705	-48.324	-0.066	0.032
-433.690	-9.848	-0.183	-0.121
-432.676	-25.134	-0.250	0.147
-431.661	123.017	-0.207	0.258
-430.646	489.565	0.134	-0.304
-429.632	-104.684	0.165	0.038
-428.617	-56.803	-0.433	-0.190
-427.603	684.737	-0.079	0.204
-426.588	-200.000	0.008	0.166
-425.573	-8.270	-0.208	-0.139
-424.559	35.391	-0.259	0.226
-423.544	800.000	0.042	0.143
-422.530	-45.570	0.195	0.096
-421.515	-200.000	0.009	-0.054
-420.500	17.898	-0.079	-0.063
-419.486	-200.000	0.053	0.246
-418.471	800.000	0.070	-0.232
-417.457	-131.859	0.588	-0.076
-416.442	-200.000	-0.087	-0.000
-415.428	-44.305	0.015	0.008
-414.413	115.281	-0.089	0.108
-413.398	452.710	-0.086	0.189
-412.384	88.593	0.145	0.160
-411.369	-62.046	0.145	0.060
-410.355	-200.000	-0.008	0.081
-409.340	-200.000	0.025	-0.270
-408.325	800.000	0.049	0.194
-407.311	81.244	-0.048	0.051
-406.296	-78.391	0.098	0.033
-405.282	-112.764	-0.426	0.084
-404.267	-200.000	-0.013	-0.072
-403.252	57.982	0.316	-0.307
-402.238	-198.092	0.119	-0.001
-401.223	-77.344	-0.061	0.021
-400.209	-200.000	-0.026	0.156
-399.194	-12.706	0.025	-0.016
-398.179	-80.229	0.083	0.028
-397.165	-30.837	-0.127	0.071
-396.150	396.281	-0.202	-0.418
-395.136	800.000	-0.052	0.210
-394.121	287.596	0.068	-0.122
-393.106	69.120	-0.246	0.251
-392.092	-156.500	0.068	0.004
-391.077	276.234	-0.011	-0.019
-390.063	-200.000	-0.022	0.217
-389.048	-19.314	-0.249	-0.153
-388.033	16.151	-0.031	0.024
-387.019	133.665	-0.048	0.061
-386.004	418.058	-0.139	0.295
-384.990	-200.000	0.002	0.194
-383.975	482.335	-0.033	0.075
-382.960	-135.905	-0.327	0.038
-381.946	222.363	-0.063	-0.100
-380.931	-143.714	0.125	0.012
-379.917	239.053	0.144	-0.238
-378.902	139.999	0.102	-0.133
-377.888	-56.505	-0.370	-0.163
-376.873	-200.000	0.017	-0.096
-375.858	800.000	0.062	0.184
-374.844	25.372	-0.287	0.237
-373.829	-94.579	-0.108	-0.029
-372.815	800.000	-0.087	-0.273
-371.800	-80.213	0.205	0.068
-370.785	-42.561	0.270	0.136
-369.771	28.218	-0.189	0.158
-368.756	800.000	-0.054	-0.168
-367.742	-63.699	-0.212	0.086
-366.727	703.081	0.049	-0.128
-365.712	800.000	0.071	0.248
-364.698	-123.117	-0.406	0.065
-363.683	38.733	-0.178	-0.158
-362.669	347.451	-0.059	0.115
-361.654	-93.456	0.173	-0.047
-360.639	-144.610	0.311	0.028
-359.625	-124.542	0.290	-0.045
-358.610	463.486	-0.033	-0.072
-357.596	-119.525	-0.151	-0.026
-356.581	366.913	-0.027	-0.053
-355.566	-17.889	0.137	0.085
-354.552	-64.027	-0.076	0.031
-353.537	-77.479	-0.211	0.073
-352.523	-0.054	0.176	0.124
-351.508	800.000	0.008	-0.024
-350.493	-200.000	-0.016	0.247
-349.479	800.000	-0.022	-0.060
-348.464	-27.094	0.268	0.155
-347.450	-63.730	0.059	0.024
-346.435	19.199	-0.066	-0.053
-345.420	-51.227	-0.166	0.077
-344.406	-200.000	0.034	0.270
-343.391	-164.782	-0.201	0.009
-342.377	-16.256	0.107	0.067
-341.362	537.583	0.091	-0.215
-340.348	-136.211	0.537	0.062
-339.333	-200.000	-0.056	0.274
-338.318	-80.863	0.131	-0.043
-337.304	-19.408	0.137	-0.084
-336.289	-100.923	-0.152	-0.037
-335.275	-200.000	0.020	-0.140
-334.260	800.000	0.042	-0.157
-333.245	-200.000	-0.019	0.300
-332.231	800.000	0.075	0.231
-331.216	305.044	-0.059	-0.108
-330.202	-200.000	0.006	-0.166
-329.187	800.000	0.103	0.306
-328.172	800.000	0.137	0.425
-327.158	157.527	-0.194	0.266
-326.143	339.656	0.165	-0.318
-325.129	-125.099	-0.538	0.082
-324.114	23.185	-0.133	0.108
-323.099	-93.417	0.381	-0.105
-322.085	-66.973	-0.224	-0.088
-321.070	-67.870	0.247	0.095
-320.056	71.988	0.142	-0.147
-319.041	-58.043	0.224	0.097
-318.026	800.000	-0.012	-0.041
-317.012	800.000	0.044	-0.156
-315.997	-200.000	-0.011	-0.287
-314.983	-89.898	0.463	0.134
-313.968	92.490	0.167	-0.186
-312.953	800.000	0.060	0.255
-311.939	800.000	0.026	-0.093
-310.924	16.931	-0.166	0.130
-309.910	-200.000	0.048	0.298
-308.895	-200.000	0.009	0.325
-307.880	800.000	0.042	-0.135
-306.866	-160.030	0.337	-0.018
-305.851	-94.070	0.243	-0.066
-304.837	-176.765	0.081	-0.002
-303.822	-58.883	0.074	0.032
-302.807	-34.372	-0.013	0.007
-301.793	67.447	-0.245	0.248
-300.778	-93.725	-0.176	0.048
-299.764	800.000	0.049	-0.159
-298.749	132.107	0.114	-0.145
-297.735	508.052	-0.165	-0.378
-296.720	225.966	-0.120	0.192
-295.705	800.000	0.042	0.161
-294.691	800.000	-0.039	0.135
-293.676	-200.000	-0.013	-0.124
-292.662	373.239	-0.078	-0.157
-291.647	-200.000	0.016	-0.099
-290.632	-98.160	0.227	0.058
-289.618	-35.677	-0.263	0.141
-288.603	121.262	0.365	0.450
-287.589	-102.757	0.154	-0.036
-286.574	-177.285	-0.204	-0.005
-285.559	347.087	0.166	-0.324
-284.545	800.000	0.040	-0.172
-283.530	-192.926	0.283	0.003
-282.516	-200.000	0.033	-0.229
-281.501	-200.000	0.025	0.170
-280.486	800.000	-0.024	-0.077
-279.472	-200.000	-0.005	0.167
-278.457	-27.710	-0.281	0.161
-277.443	-8.051	0.283	-0.188
-276.428	-65.249	0.043	-0.017
-275.413	-200.000	-0.111	-0.585
-274.399	-83.949	-0.193	0.061
-273.384	530.198	0.061	-0.142
-272.370	-57.461	0.253	-0.110
-271.355	281.250	-0.078	-0.138
-270.340	-200.000	0.020	-0.099
-269.326	-126.874	0.488	0.071
-268.311	800.000	-0.073	0.227
-267.297	-96.426	0.240	0.063
-266.282	-30.299	-0.311	-0.175
-265.267	-200.000	0.001	-0.495
-264.253	74.462	0.217	0.225
-263.238	-56.318	0.349	-0.153
-262.224	36.904	-0.179	-0.157
-261.209	-116.441	-0.174	-0.032
-260.195	-6.518	0.198	0.133
-259.180	67.529	-0.083	-0.083
-258.165	-59.690	-0.231	-0.098
-257.151	350.840	-0.170	0.331
-256.136	83.846	-0.367	-0.396
-255.122	434.321	-0.097	0.209
-254.107	-34.495	0.094	-0.051
-253.092	781.727	0.098	-0.265
-252.078	-200.000	-0.066	0.358
-251.063	-34.710	0.070	-0.038
-250.049	326.187	-0.103	0.195
-249.034	-66.891	0.255	-0.100
-248.019	800.000	-0.082	-0.242
-247.005	-122.007	0.373	-0.061
-245.990	800.000	-0.083	0.237
-244.976	32.274	0.179	-0.153
-243.961	163.717	0.128	0.178
-242.946	-17.083	0.165	-0.103
-241.932	-95.169	0.186	0.049
-240.917	-164.110	-0.185	-0.008
-239.903	88.052	-0.138	-0.151
-238.888	-175.072	0.097	0.003
-237.873	-30.426	-0.258	-0.144
-236.859	-200.000	0.014	0.184
-235.844	147.121	-0.141	0.187
-234.830	303.595	-0.115	-0.210
-233.815	-200.000	-0.022	-0.113
-232.800	-41.604	0.286	-0.145
-231.786	491.907	0.131	-0.295
-230.771	67.258	0.219	0.220
-229.757	89.474	0.096	0.105
-228.742	415.828	0.013	-0.027
-227.727	-13.969	-0.162	0.103
-226.713	223.976	-0.087	0.139
-225.698	800.000	-0.034	-0.116
-224.684	-20.514	0.072	-0.043
-223.669	-200.000	-0.018	-0.116
-222.655	382.287	0.154	0.312
-221.640	21.534	-0.013	-0.010
-220.625	129.714	0.355	-0.447
-219.611	-166.341	0.062	0.003
-218.596	6.795	-0.202	0.148
-217.582	-13.144	0.237	0.152
-216.567	-44.562	0.157	-0.078
-215.552	61.316	-0.119	-0.117
-214.538	-155.569	-0.404	0.026
-213.523	108.938	-0.148	-0.175
-212.509	-1.960	0.197	-0.136
-211.494	-200.000	-0.001	0.006
-210.479	134.233	0.203	0.259
-209.465	-160.331	0.180	0.010
-208.450	558.049	-0.071	-0.168
-207.436	109.798	-0.140	-0.166
-206.421	-93.065	-0.042	-0.011
-205.406	91.423	-0.139	0.154
-204.392	-159.600	0.149	0.008
-203.377	101.364	0.078	-0.090
-202.363	-93.139	-0.170	-0.047
-201.348	-84.963	-0.206	0.064
-200.333	800.000	0.110	0.435
-199.319	55.999	-0.170	0.163
-198.304	-117.766	-0.213	-0.038
-197.290	-170.857	0.115	0.004
-196.275	9.016	0.183	0.136
-195.260	57.621	0.211	-0.203
-194.246	58.580	0.051	0.050
-193.231	-134.823	0.252	-0.030
-192.217	248.333	-0.100	0.167
-191.202	97.636	-0.270	-0.305
-190.187	-30.511	0.127	0.071
-189.173	-200.000	0.028	-0.181
-188.158	-83.285	-0.377	0.119
-187.144	9.065	0.177	-0.131
-186.129	-105.495	-0.293	-0.065
-185.114	-147.579	-0.197	0.016
-184.100	71.202	-0.117	-0.120
-183.085	146.162	0.130	-0.172
-182.071	255.646	0.058	-0.098
-181.056	588.425	-0.046	0.113
-180.042	800.000	0.039	-0.130
-179.027	-173.240	0.295	-0.009
-178.012	450.671	-0.076	0.164
-176.998	489.906	0.071	-0.160
-175.983	-54.603	-0.386	-0.172
-174.969	-61.218	-0.226	-0.094
-173.954	-200.000	-0.058	0.345
-172.939	-147.536	-0.097	0.008
-171.925	-31.446	0.179	0.099
-170.910	-39.569	-0.090	0.046
-169.896	-200.000	-0.014	0.090
-168.881	-90.386	0.037	0.011
-167.866	-40.573	0.246	-0.125
-166.852	800.000	-0.054	0.157
-165.837	-200.000	-0.059	0.459
-164.823	-150.933	0.209	-0.016
-163.808	-83.308	-0.279	0.088
-162.793	-29.488	0.189	-0.106
-161.779	-75.039	-0.051	-0.018
-160.764	107.815	0.035	-0.040
-159.750	305.141	-0.078	0.142
-158.735	-20.410	0.206	0.125
-157.720	-87.040	-0.214	0.064
-156.706	-14.926	0.271	-0.171
-155.691	164.242	-0.228	-0.315
-154.677	-148.329	0.483	0.039
-153.662	800.000	0.072	-0.282
-152.647	149.418	0.246	0.327
-151.633	564.895	0.064	0.151
-150.618	-113.010	-0.336	-0.065
-149.604	87.358	-0.089	0.097
-148.589	-53.320	-0.198	-0.089
-147.574	-77.564	0.091	0.031
-146.560	344.027	-0.071	-0.136
-145.545	670.118	0.042	0.107
-144.531	-50.421	-0.272	-0.126
-143.516	-18.889	0.415	-0.254
-142.502	133.650	-0.181	0.231
-141.487	-156.092	0.234	0.015
-140.472	169.424	0.158	0.221
-139.458	441.465	0.092	-0.198
-138.443	-200.000	-0.020	0.182
-137.429	-20.232	0.083	0.050
-136.414	-200.000	0.040	0.400
-135.399	143.006	0.070	0.091
-134.385	264.685	0.037	-0.063
-133.370	-200.000	0.045	-0.289
-132.356	248.500	0.083	-0.139
-131.341	-200.000	-0.082	0.457
-130.326	-182.011	0.289	0.005
-129.312	-12.610	0.250	0.160
-128.297	-200.000	0.008	0.287
-127.283	-54.612	0.279	-0.124
-126.268	800.000	-0.085	0.326
-125.253	121.226	0.114	0.139
-124.239	-129.856	0.420	-0.057
-123.224	188.120	0.192	0.282
-122.210	103.496	0.080	-0.092
-121.195	193.566	-0.112	-0.167
-120.180	-98.581	0.272	0.068
-119.166	-45.330	-0.073	-0.035
-118.151	11.224	-0.285	-0.214
-117.137	-75.970	0.243	0.084
-116.122	-158.889	-0.312	-0.017
-115.107	-109.251	-0.080	0.017
-114.093	23.158	-0.210	-0.169
-113.078	72.591	0.146	0.149
-112.064	770.520	0.046	0.124
-111.049	56.370	0.192	-0.183
-110.034	800.000	0.057	0.235
-109.020	-85.182	0.229	0.070
-108.005	311.411	-0.080	0.147
-106.991	311.734	-0.019	0.034
-105.976	373.785	0.135	-0.270
-104.962	231.973	0.108	-0.173
-103.947	-160.184	0.366	0.019
-102.932	15.993	0.152	-0.117
-101.918	354.635	-0.139	-0.272
-100.903	-200.000	-0.029	-0.184
-99.889	-72.481	-0.484	0.176
-98.874	-85.242	-0.183	0.056
-97.859	-200.000	-0.026	-0.157
-96.845	-57.883	0.174	-0.075
-95.830	-19.569	-0.234	-0.142
-94.816	-150.145	0.382	0.029
-93.801	-84.190	0.443	0.138
-92.786	-116.604	-0.339	0.061
-91.772	-28.072	0.211	0.120
-90.757	-200.000	0.012	0.055
-89.743	-73.171	-0.195	-0.070
-88.728	-45.246	-0.128	0.063
-87.713	-16.071	0.149	0.093
-86.699	-38.410	0.112	0.058
-85.684	721.339	-0.052	0.135
-84.670	-57.642	-0.404	-0.174
-83.655	-37.789	0.078	0.041
-82.640	7.176	-0.161	-0.117
-81.626	-52.539	0.222	0.100
-80.611	800.000	0.015	0.057
-79.597	300.634	-0.083	-0.150
-78.582	68.638	-0.222	0.223
-77.567	-101.020	-0.070	0.017
-76.553	424.757	0.037	-0.077
-75.538	800.000	-0.012	-0.048
-74.524	-26.687	0.101	-0.058
-73.509	-200.000	-0.031	-0.244
-72.494	-200.000	0.006	0.116
-71.480	-200.000	0.016	-0.328
-70.465	224.001	0.073	0.116
-69.451	-127.856	-0.100	0.014
-68.436	16.205	-0.077	-0.060
-67.422	800.000	0.044	-0.186
-66.407	-104.215	-0.111	0.025
-65.392	-86.379	0.112	0.034
-64.378	635.760	0.222	0.552
-63.363	-82.619	-0.302	-0.096
-62.349	67.051	-0.127	0.127
-61.334	24.033	-1.081	-0.873
-60.319	31.706	0.770	0.649
-59.305	532.405	-0.429	-0.996
-58.290	610.667	0.512	1.254
-57.276	683.817	0.562	1.436
-56.261	-200.000	110.665	607.759
-55.246	498.785	1527.603	3446.883
-54.232	174.734	2711.050	3841.920
-53.217	106.829	2193.467	2549.983
-52.203	38.289	1714.813	1495.514
-51.188	30.909	1530.516	1284.103
-50.173	28.592	1505.497	1247.329
-49.159	50.022	1564.582	1445.582
-48.144	49.655	1580.063	1457.280
-47.130	31.018	1534.909	1288.337
-46.115	28.116	1519.342	1255.334
-45.100	27.900	1516.037	1251.076
-44.086	27.797	1514.006	1248.648
-43.071	27.781	1512.022	1246.848
-42.057	27.709	1510.572	1245.112
-41.042	27.703	1509.544	1244.173
-40.027	27.674	1508.197	1242.817
-39.013	27.803	1506.130	1241.944
-37.998	27.719	1504.645	1240.098
-36.984	27.722	1503.675	1239.268
-35.969	27.690	1502.220	1237.804
-34.954	27.636	1500.657	1236.102
-33.940	27.713	1499.337	1235.487
-32.925	27.753	1497.909	1234.529
-31.911	27.760	1496.966	1233.755
-30.896	27.775	1495.351	1232.477
-29.881	27.776	1494.387	1231.638
-28.867	27.802	1492.891	1230.532
-27.852	27.703	1492.075	1229.145
-26.838	27.762	1490.739	1228.388
-25.823	27.768	1488.909	1226.871
-24.809	27.807	1487.232	1225.705
-23.794	27.750	1486.075	1224.323
-22.779	27.750	1485.268	1223.611
-21.765	27.750	1484.060	1222.566
-20.750	27.741	1482.318	1221.022
-19.736	27.649	1481.769	1219.905
-18.721	27.699	1480.534	1219.174
-17.706	27.720	1479.215	1218.179
-16.692	27.749	1478.167	1217.461
-15.677	27.725	1477.187	1216.442
-14.663	27.697	1476.031	1215.257
-13.648	27.779	1474.808	1214.748
-12.633	27.679	1474.565	1213.833
-11.619	27.675	1473.266	1212.689
-10.604	27.608	1472.744	1211.768
-9.590	27.661	1472.018	1211.471
-8.575	27.750	1470.975	1211.158
-7.560	27.646	1469.811	1209.461
-6.546	27.756	1468.865	1209.368
-5.531	27.692	1468.460	1208.556
-4.517	27.608	1467.110	1206.842
-3.502	27.693	1466.272	1206.669
-2.487	27.657	1465.004	1205.344
-1.473	27.686	1463.866	1204.546
-0.458	27.785	1462.841	1204.312
0.556	28.280	1453.852	1195.952
1.571	26.267	1430.426	1163.630
2.586	23.617	1370.169	1098.141
3.600	22.359	1286.416	1023.611
4.615	20.900	1240.628	978.896
5.629	17.884	1182.471	916.756
6.644	10.204	1098.069	812.799
7.659	4.419	1060.102	756.507
8.673	3.577	1055.073	748.766
9.688	3.703	1051.820	747.000
10.702	3.554	1050.424	745.225
11.717	3.577	1048.409	743.837
12.731	5.791	1050.482	755.928
13.746	13.364	1060.787	800.023
14.761	19.009	1067.824	832.660
15.775	19.651	1067.854	835.717
16.790	19.071	1066.113	831.477
17.804	18.097	1063.999	825.057
18.819	17.078	1061.986	818.511
19.834	16.808	1061.005	816.385
20.848	16.584	1059.703	814.229
21.863	16.428	1058.919	812.809
22.877	16.183	1058.437	811.186
23.892	16.027	1057.254	809.458
24.907	15.929	1056.411	808.273
25.921	15.901	1056.102	807.829
26.936	15.988	1054.845	807.212
27.950	16.074	1054.057	806.952
28.965	15.912	1053.050	805.333
29.980	16.023	1051.839	804.865
30.994	16.187	1050.964	804.908
32.009	16.398	1049.666	804.848
33.023	16.309	1049.345	804.108
34.038	16.199	1048.655	802.986
35.053	16.128	1047.723	801.860
36.067	16.064	1046.652	800.666
37.082	16.060	1045.503	799.697
38.096	16.062	1045.278	799.463
39.111	16.197	1043.867	798.956
40.126	16.243	1043.124	798.533
41.140	16.110	1041.685	796.732
42.155	15.931	1041.057	795.334
43.169	15.811	1039.643	793.622
44.184	15.656	1039.264	792.529
45.199	15.677	1037.791	791.434
46.213	15.723	1036.422	790.535
47.228	15.865	1035.608	790.512
48.242	15.936	1035.135	790.413
49.257	16.100	1034.087	790.314
50.271	16.040	1033.359	789.407
51.286	16.050	1032.129	788.444
52.301	15.968	1031.926	787.836
53.315	16.071	1031.120	787.631
54.330	16.122	1029.801	786.795
55.344	15.827	1029.258	784.933
56.359	15.874	1028.001	784.126
57.374	15.824	1027.495	783.433
58.388	15.815	1026.555	782.608
59.403	15.837	1025.361	781.732
60.417	15.788	1024.934	781.106
61.432	15.748	1024.258	780.337
62.447	15.612	1023.663	779.183
63.461	15.764	1022.711	779.096
64.476	15.746	1021.377	777.926
65.490	15.526	1020.653	776.288
66.505	15.641	1019.800	776.102
67.520	15.659	1019.256	775.705
68.534	15.667	1018.136	774.818
69.549	15.659	1017.349	774.114
70.563	15.768	1016.086	773.587
71.578	15.686	1016.202	773.230
72.593	15.635	1014.991	772.004
73.607	15.573	1014.198	771.051
74.622	15.467	1013.021	769.600
75.636	15.450	1012.548	769.093
76.651	15.491	1011.143	768.148
77.666	15.637	1010.289	768.100
78.680	15.688	1009.868	767.943
79.695	15.634	1009.301	767.195
80.709	15.489	1009.306	766.473
81.724	15.615	1008.621	766.459
82.739	15.778	1007.483	766.270
83.753	15.873	1006.634	765.987
84.768	16.002	1005.886	765.934
85.782	16.069	1005.659	766.000
86.797	16.205	1004.684	765.809
87.812	16.158	1003.742	764.807
88.826	15.955	1003.202	763.409
89.841	15.909	1002.297	762.443
90.855	16.086	1001.158	762.313
91.870	16.094	1000.747	761.968
92.884	16.315	999.523	761.963
93.899	16.194	999.107	761.034
94.914	16.137	998.435	760.200
95.928	16.246	998.138	760.395
96.943	16.250	997.079	759.538
97.957	16.263	995.756	758.526
98.972	16.149	994.977	757.352
99.987	16.134	994.071	756.526
101.001	16.226	993.730	756.612
102.016	16.138	993.065	755.647
103.030	16.153	992.132	754.936
104.045	16.163	991.228	754.225
105.060	15.991	990.530	752.858
106.074	16.185	988.739	752.300
107.089	15.905	987.987	750.411
108.103	15.915	986.902	749.567
109.118	15.798	985.737	748.095
110.133	15.740	985.164	747.335
111.147	15.750	984.320	746.675
112.162	15.731	983.625	745.997
113.176	15.639	982.908	744.976
114.191	15.800	981.798	744.786
115.206	15.911	981.333	744.856
116.220	15.789	980.311	743.474
117.235	15.859	979.240	742.907
118.249	15.878	978.659	742.483
119.264	15.788	977.713	741.306
120.279	15.656	976.779	739.948
121.293	15.672	976.008	739.369
122.308	15.669	975.259	738.723
123.322	15.650	974.507	738.006
124.337	15.568	973.612	736.901
125.352	15.583	971.860	735.576
126.366	15.449	971.144	734.386
127.381	15.706	969.917	734.514
128.395	15.570	969.276	733.368
129.410	15.571	967.981	732.330
130.424	15.657	967.022	731.914
131.439	15.693	966.215	731.396
132.454	15.682	965.553	730.780
133.468	15.838	964.619	730.685
134.483	15.727	964.306	729.903
135.497	15.869	963.395	729.763
136.512	15.785	963.160	729.156
137.527	15.691	962.518	728.201
138.541	15.975	960.953	728.181
139.556	15.714	960.872	726.924
140.570	15.861	959.504	726.462
141.585	15.784	959.541	726.093
142.600	15.927	958.530	725.880
143.614	16.196	957.286	726.031
144.629	16.121	956.935	725.376
145.643	16.155	956.088	724.818
146.658	16.166	955.300	724.203
147.673	16.042	954.292	722.844
148.687	15.982	953.105	721.625
149.702	15.958	952.256	720.816
150.716	15.822	951.645	719.708
151.731	15.863	950.385	718.866
152.746	15.800	950.362	718.513
153.760	15.917	948.932	717.871
154.775	16.113	947.953	717.900
155.789	16.025	948.059	717.540
156.804	16.050	947.254	716.977
157.819	16.063	946.073	716.075
158.833	16.150	945.559	715.989
159.848	16.231	945.007	715.854
160.862	16.241	944.434	715.398
161.877	16.331	943.196	714.777
162.892	16.055	942.646	713.130
163.906	15.963	941.426	711.754
164.921	16.012	940.620	711.290
165.935	15.901	939.496	709.907
166.950	15.916	938.642	709.261
167.964	15.992	937.910	708.969
168.979	16.184	936.500	708.644
169.994	15.946	935.987	707.197
171.008	15.973	934.845	706.385
172.023	16.091	934.180	706.311
173.037	16.362	932.904	706.420
174.052	16.291	932.912	706.066
175.067	16.249	932.447	705.475
176.081	16.112	931.089	703.815
177.096	16.061	930.455	703.059
178.110	16.009	929.635	702.159
179.125	16.084	928.916	701.870
180.140	16.117	928.071	701.304
181.154	16.090	927.706	700.853
182.169	16.241	927.087	700.954
183.183	16.243	926.658	700.574
184.198	16.417	925.458	700.327
185.213	16.288	924.902	699.310
186.227	16.320	924.450	699.037
187.242	16.393	924.231	699.113
188.256	16.427	923.036	698.288
189.271	16.485	923.023	698.455
190.286	16.626	921.686	697.962
191.300	16.245	921.090	695.881
192.315	16.266	919.797	694.930
193.329	15.859	919.558	693.009
194.344	15.950	918.799	692.753
195.359	16.069	918.394	692.874
196.373	16.193	917.470	692.625
197.388	16.226	917.224	692.515
198.402	16.392	917.044	692.996
199.417	16.582	916.384	693.217
200.432	16.580	916.229	693.030
201.446	16.707	915.631	693.036
202.461	16.849	915.239	693.256
203.475	16.716	915.026	692.489
204.490	16.652	914.431	691.716
205.504	16.562	913.168	690.334
206.519	16.540	912.255	689.494
207.534	16.510	911.315	688.599
208.548	16.411	910.724	687.691
209.563	16.537	910.395	687.892
210.577	16.531	909.586	687.194
211.592	16.521	909.144	686.760
212.607	16.630	908.509	686.664
213.621	16.881	907.768	687.060
214.636	16.813	906.810	686.000
215.650	16.664	906.049	684.757
216.665	16.693	905.673	684.531
217.680	16.721	905.267	684.276
218.694	16.722	905.148	684.131
219.709	16.952	904.343	684.390
220.723	16.884	903.691	683.562
221.738	16.990	902.929	683.350
222.753	16.850	902.342	682.283
223.767	16.855	901.817	681.848
224.782	17.058	900.487	681.595
225.796	16.979	900.071	680.904
226.811	17.000	899.192	680.263
227.826	16.978	898.552	679.628
228.840	16.715	898.316	678.339
229.855	16.953	897.221	678.405
230.869	16.883	896.426	677.462
231.884	16.820	895.832	676.701
232.899	16.889	895.094	676.360
233.913	16.724	894.875	675.475
234.928	16.769	893.854	674.824
235.942	16.685	893.303	674.015
236.957	16.694	892.295	673.231
237.972	16.639	892.011	672.737
238.986	16.710	891.361	672.472
240.001	16.644	890.771	671.704
241.015	16.878	889.836	671.867
242.030	16.705	889.301	670.717
243.045	16.973	888.247	670.923
244.059	16.948	887.885	670.492
245.074	17.009	886.956	669.973
246.088	16.926	886.664	669.363
247.103	17.053	886.194	669.453
248.117	17.122	885.502	669.141
249.132	17.144	885.186	668.929
250.147	17.267	884.986	669.205
251.161	17.385	884.224	669.032
252.176	17.446	883.884	668.957
253.190	17.527	882.829	668.415
254.205	17.569	882.256	668.089
255.220	17.485	881.916	667.443
256.234	17.583	880.826	666.942
257.249	17.571	880.504	666.592
258.263	17.380	880.274	665.611
259.278	17.583	879.211	665.544
260.293	17.364	879.024	664.488
261.307	17.613	878.215	664.789
262.322	17.600	878.043	664.548
263.336	17.681	877.157	664.133
264.351	17.722	876.486	663.728
265.366	17.756	875.583	663.119
266.380	17.667	875.298	662.498
267.395	17.593	874.759	661.741
268.409	17.725	873.412	661.176
269.424	17.725	872.537	660.455
270.439	17.575	872.675	659.921
271.453	17.649	871.945	659.598
272.468	17.628	870.635	658.468
273.482	17.466	870.351	657.569
274.497	17.644	869.694	657.702
275.512	17.545	868.934	656.686
276.526	17.703	867.969	656.507
277.541	17.603	867.765	655.911
278.555	17.690	866.658	655.351
279.570	17.673	866.659	655.225
280.585	17.854	866.160	655.486
281.599	17.859	865.571	655.001
282.614	17.803	864.679	654.052
283.628	17.573	864.449	652.943
284.643	17.594	863.700	652.399
285.657	17.716	863.376	652.561
286.672	17.822	862.617	652.338
287.687	17.739	862.048	651.532
288.701	17.835	861.563	651.474
289.716	17.803	861.133	650.970
290.730	17.892	860.009	650.401
291.745	17.797	859.657	649.715
292.760	17.775	858.705	648.854
293.774	17.933	858.213	649.026
294.789	17.970	858.015	648.960
295.803	18.031	857.307	648.596
296.818	17.912	856.930	647.803
297.833	17.774	856.274	646.729
298.847	17.916	855.464	646.598
299.862	17.868	854.866	645.906
300.876	17.964	854.378	645.842
301.891	18.008	853.425	645.230
302.906	18.048	852.872	644.908
303.920	18.226	852.308	645.095
304.935	18.341	851.545	644.894
305.949	18.338	851.057	644.456
306.964	18.139	850.926	643.551
307.979	18.250	849.870	643.112
308.993	18.310	849.477	642.982
310.008	18.240	848.916	642.239
311.022	18.425	848.405	642.487
312.037	18.200	847.923	641.223
313.052	18.298	846.986	640.826
314.066	18.172	846.331	639.801
315.081	18.096	846.039	639.238
316.095	18.046	845.485	638.578
317.110	17.979	844.914	637.839
318.125	18.140	844.072	637.750
319.139	18.201	843.694	637.635
320.154	18.144	843.466	637.194
321.168	18.138	842.663	636.509
322.183	18.145	842.165	636.103
323.197	18.142	841.439	635.485
324.212	18.333	841.300	636.034
325.227	18.114	840.888	634.854
326.241	18.315	839.891	634.790
327.256	18.196	839.515	634.009
328.270	18.212	839.088	633.688
329.285	18.161	838.481	632.986
330.300	18.277	837.569	632.670
331.314	17.969	837.236	631.224
332.329	18.213	836.830	631.764
333.343	18.260	836.065	631.305
334.358	18.429	835.489	631.434
335.373	18.418	834.699	630.743
336.387	18.524	834.377	630.831
337.402	18.469	833.636	630.014
338.416	18.562	833.237	629.999
339.431	18.752	832.868	630.361
340.446	18.680	832.249	629.572
341.460	18.787	831.762	629.541
342.475	18.833	831.067	629.128
343.489	18.750	830.925	628.660
344.504	18.891	830.154	628.539
345.519	18.896	829.663	628.129
346.533	18.991	829.115	628.004
347.548	18.940	828.277	627.129
348.562	18.820	827.981	626.412
349.577	18.843	827.290	625.918
350.592	18.635	826.817	624.747
351.606	18.570	826.337	624.091
352.621	18.579	825.815	623.677
353.635	18.597	825.432	623.395
354.650	18.706	825.049	623.450
355.665	18.566	824.976	622.828
356.679	18.719	824.116	622.679
357.694	18.763	823.608	622.402
358.708	18.942	823.101	622.609
359.723	18.694	822.771	621.409
360.738	18.769	821.938	620.995
361.752	18.859	821.416	620.870
362.767	18.799	821.383	620.576
363.781	18.850	820.858	620.308
364.796	18.977	820.554	620.481
365.810	19.097	820.368	620.718
366.825	19.143	819.838	620.429
367.840	19.231	819.434	620.383
368.854	19.253	818.627	619.798
369.869	19.068	818.053	618.642
370.883	19.170	817.683	618.674
371.898	19.050	817.341	617.929
372.913	19.172	816.578	617.735
373.927	19.199	815.815	617.202
374.942	19.231	815.279	616.855
375.956	19.123	814.900	616.127
376.971	19.404	814.058	616.441
377.986	19.236	813.859	615.634
379.000	19.330	813.216	615.430
380.015	19.467	812.954	615.666
381.029	19.383	812.011	614.598
382.044	19.427	811.579	614.374
383.059	19.416	810.856	613.733
384.073	19.456	810.496	613.549
385.088	19.343	810.309	612.950
386.102	19.307	809.525	612.176
387.117	19.173	808.613	610.958
388.132	19.250	808.305	610.943
389.146	19.404	807.524	610.846
390.161	19.261	807.466	610.241
391.175	19.332	807.338	610.340
392.190	19.231	807.247	609.860
393.205	19.331	806.774	609.803
394.219	19.361	805.952	609.234
395.234	19.338	805.270	608.583
396.248	19.264	804.814	607.924
397.263	19.162	804.258	607.088
398.278	19.057	803.685	606.232
399.292	19.157	803.331	606.265
400.307	19.129	802.910	605.795
401.321	19.180	802.372	605.514
402.336	19.235	802.108	605.456
403.350	19.245	801.887	605.270
404.365	19.374	801.438	605.330
405.380	19.362	801.015	604.915
406.394	19.543	800.603	605.185
407.409	19.685	799.818	605.036
408.423	19.665	799.406	604.600
409.438	19.676	799.234	604.456
410.453	19.816	798.801	604.565
411.467	19.726	798.516	603.979
412.482	19.890	797.660	603.852
413.496	19.920	797.280	603.615
414.511	19.809	797.152	603.079
415.526	19.864	796.900	603.025
416.540	19.821	796.543	602.551
417.555	19.924	795.918	602.386
418.569	19.915	795.238	601.784
419.584	19.775	795.059	601.110
420.599	19.998	794.202	601.182
421.613	160.592	1370.909	1796.120
422.628	139.202	1454.934	1796.218
