DTS Sentinel unit serial number:	SN413079Multiplexer serial number:	ORYXHardware model number:	OX4-SRSoftware version number:	ORYX F/W v4.00 Oryx Data Collector v3.7.2.0data status	okinstallation	princeton_trtdifferential loss correction	single-endedforward channel	channel 3reverse channel	N/Adate	2019/09/15time	04:08:35forward acquisition time	60.00reverse acquisition time	0.00gamma	496.2192k internal	0.2323k external	0.2323temperature offset calibration	0.9968default loss term (dB/km)	0.3790temperature slope calibration	1.0000multiplexer offset coefficient	1.0000multiplexer slope coefficient	1.0000fibre end	0.00T internal ref (°C)	30.94T ext. ref 1 (°C)	4.64T ext. ref 2 (°C)	25.80length (m)	temperature (°C)	Stokes	anti-Stokes-747.200	-102.614	0.433	-0.105
-746.185	-200.000	0.071	0.503
-745.171	-0.666	-0.258	-0.185
-744.156	506.275	0.098	0.230
-743.142	83.616	0.045	-0.049
-742.127	4.072	0.435	0.322
-741.112	-155.250	0.359	0.024
-740.098	-6.545	-0.257	-0.177
-739.083	-100.946	0.280	-0.070
-738.069	500.608	-0.074	0.172
-737.054	-188.994	-0.302	-0.004
-736.039	-8.275	-0.114	-0.077
-735.025	-110.447	0.099	0.021
-734.010	-3.353	-0.336	-0.236
-732.996	18.309	-0.394	-0.318
-731.981	223.907	0.075	0.123
-730.966	-83.246	-0.079	-0.025
-729.952	-200.000	-0.046	0.225
-728.937	146.257	0.097	-0.131
-727.923	-122.018	0.048	-0.008
-726.908	279.984	-0.200	0.360
-725.894	262.794	-0.170	-0.298
-724.879	-103.176	-0.110	-0.026
-723.864	-200.000	-0.079	0.362
-722.850	-23.130	0.034	-0.021
-721.835	124.480	-0.147	-0.187
-720.821	-10.127	0.043	0.029
-719.806	327.236	0.067	-0.129
-718.791	-200.000	-0.010	0.076
-717.777	105.236	-0.040	0.047
-716.762	33.385	-0.180	-0.158
-715.748	-200.000	-0.068	0.330
-714.733	-132.564	0.557	-0.072
-713.718	221.719	-0.055	-0.089
-712.704	-25.567	-0.001	-0.001
-711.689	453.852	-0.071	-0.158
-710.675	-152.444	0.116	-0.008
-709.660	-104.611	-0.495	-0.115
-708.645	-200.000	-0.030	-0.345
-707.631	-22.156	0.196	0.120
-706.616	156.639	0.171	-0.238
-705.602	555.223	-0.142	-0.344
-704.587	98.229	-0.118	-0.137
-703.572	-5.927	-0.308	-0.212
-702.558	-200.000	0.002	0.038
-701.543	-90.209	0.254	-0.074
-700.529	800.000	-0.038	-0.109
-699.514	347.970	-0.074	0.148
-698.499	-12.852	-0.161	-0.106
-697.485	-200.000	0.030	0.221
-696.470	-27.321	0.156	-0.091
-695.456	202.223	0.170	-0.264
-694.441	112.786	-0.226	-0.276
-693.426	288.067	0.092	-0.169
-692.412	10.412	-0.064	-0.049
-691.397	-17.133	-0.160	0.102
-690.383	19.706	0.203	0.164
-689.368	-163.432	0.206	-0.010
-688.354	800.000	-0.159	-0.458
-687.339	-28.688	0.222	-0.129
-686.324	-62.559	-0.187	-0.078
-685.310	85.537	-0.263	-0.292
-684.295	194.721	-0.144	-0.220
-683.281	77.499	-0.140	0.150
-682.266	9.501	-0.213	0.163
-681.251	800.000	-0.072	0.299
-680.237	194.078	0.330	-0.503
-679.222	-200.000	0.020	-0.119
-678.208	217.038	-0.087	-0.140
-677.193	77.252	-0.075	-0.080
-676.178	-82.827	0.189	-0.061
-675.164	-200.000	-0.058	-0.356
-674.149	77.551	0.375	-0.402
-673.135	188.524	-0.219	-0.330
-672.120	302.284	-0.043	-0.080
-671.105	130.009	0.123	0.158
-670.091	40.180	0.044	0.040
-669.076	-74.733	-0.469	0.170
-668.062	-200.000	-0.003	0.076
-667.047	-42.318	0.139	-0.071
-666.032	229.283	0.203	-0.334
-665.018	-93.894	-0.039	0.011
-664.003	-17.475	0.172	0.109
-662.989	74.604	-0.076	0.081
-661.974	2.085	-0.169	-0.123
-660.959	62.415	0.073	-0.073
-659.945	176.674	0.217	-0.318
-658.930	-2.514	0.259	-0.183
-657.916	523.051	0.067	-0.159
-656.901	-141.351	0.146	-0.015
-655.886	-27.551	-0.100	-0.058
-654.872	-91.880	0.224	0.064
-653.857	697.005	0.067	-0.177
-652.843	7.217	0.049	0.037
-651.828	-111.129	-0.341	-0.070
-650.814	-200.000	0.016	-0.136
-649.799	43.306	-0.077	-0.071
-648.784	-200.000	-0.050	0.301
-647.770	-200.000	0.090	-0.496
-646.755	-9.316	0.090	-0.061
-645.741	273.137	-0.045	0.081
-644.726	-200.000	0.000	0.003
-643.711	-200.000	-0.018	-0.124
-642.697	-200.000	-0.005	0.126
-641.682	800.000	-0.073	-0.239
-640.668	-3.863	0.272	-0.190
-639.653	-1.148	0.165	-0.117
-638.638	800.000	-0.022	-0.092
-637.624	-200.000	-0.016	0.131
-636.609	702.900	-0.029	-0.077
-635.595	101.001	-0.126	-0.147
-634.580	51.896	0.125	0.120
-633.565	-48.279	-0.361	-0.175
-632.551	800.000	-0.092	-0.280
-631.536	156.202	0.105	-0.145
-630.522	-92.267	-0.136	0.039
-629.507	-113.430	-0.189	0.037
-628.492	-79.330	-0.238	-0.081
-627.478	-200.000	-0.001	0.265
-626.463	-200.000	0.034	0.317
-625.449	63.841	-0.277	-0.280
-624.434	184.646	-0.390	-0.581
-623.419	313.108	0.166	-0.314
-622.405	-63.493	-0.422	0.174
-621.390	-200.000	0.001	-0.169
-620.376	59.518	0.340	0.337
-619.361	560.146	-0.046	-0.111
-618.346	329.899	0.090	0.174
-617.332	-101.611	-0.409	0.100
-616.317	-200.000	-0.033	0.180
-615.303	369.829	-0.143	0.292
-614.288	587.594	-0.090	-0.222
-613.273	-185.263	-0.165	0.003
-612.259	589.308	-0.166	0.411
-611.244	568.739	0.018	-0.044
-610.230	-4.924	-0.223	0.154
-609.215	-36.430	-0.238	0.129
-608.201	18.394	-0.187	0.150
-607.186	-88.206	0.077	0.023
-606.171	83.129	-0.226	-0.247
-605.157	14.331	0.197	-0.154
-604.142	-200.000	-0.000	-0.039
-603.128	283.380	-0.037	0.067
-602.113	800.000	-0.075	0.241
-601.098	-200.000	0.019	0.411
-600.084	-120.426	-0.642	0.110
-599.069	357.189	0.061	-0.122
-598.055	-200.000	-0.062	0.300
-597.040	136.379	0.088	0.115
-596.025	160.461	-0.069	0.097
-595.011	-110.925	0.184	-0.038
-593.996	-81.061	-0.212	-0.070
-592.982	-200.000	-0.026	0.123
-591.967	-47.772	0.191	-0.093
-590.952	-9.997	-0.258	-0.172
-589.938	-200.000	0.055	-0.325
-588.923	-81.487	-0.007	-0.002
-587.909	-200.000	0.015	0.104
-586.894	451.515	-0.120	0.266
-585.879	-119.474	-0.167	0.029
-584.865	-200.000	0.007	0.107
-583.850	-167.162	0.072	-0.003
-582.836	53.534	-0.173	0.166
-581.821	-48.397	0.155	-0.075
-580.806	-120.045	-0.105	0.018
-579.792	-200.000	-0.101	-0.480
-578.777	-29.285	-0.249	0.143
-577.763	-120.374	-0.218	0.037
-576.748	-189.782	-0.535	0.006
-575.733	-20.834	-0.181	-0.111
-574.719	-66.223	0.423	-0.169
-573.704	-200.000	-0.040	-0.367
-572.690	738.943	-0.030	0.081
-571.675	-4.939	0.175	0.121
-570.661	74.777	-0.186	-0.197
-569.646	144.675	0.005	-0.007
-568.631	-110.720	0.296	0.061
-567.617	-128.598	0.195	0.028
-566.602	-138.122	0.077	-0.009
-565.588	-155.119	-0.137	-0.009
-564.573	800.000	0.064	0.198
-563.558	392.007	-0.139	0.289
-562.544	-200.000	-0.002	0.088
-561.529	17.643	-0.182	0.145
-560.515	-200.000	-0.277	0.001
-559.500	-185.641	-0.394	0.006
-558.485	166.498	-0.240	-0.341
-557.471	-126.690	0.198	0.029
-556.456	87.020	-0.142	-0.157
-555.442	-111.300	-0.243	-0.050
-554.427	149.400	-0.180	-0.245
-553.412	240.839	-0.106	-0.178
-552.398	98.381	0.154	-0.178
-551.383	-36.792	0.238	0.128
-550.369	-18.714	-0.128	0.080
-549.354	37.181	-0.074	-0.066
-548.339	159.530	-0.228	0.318
-547.325	231.214	-0.050	-0.082
-546.310	800.000	-0.103	-0.292
-545.296	-131.551	0.058	0.008
-544.281	-200.000	0.030	-0.281
-543.266	-200.000	-0.004	-0.211
-542.252	-200.000	0.010	-0.193
-541.237	338.516	0.003	0.006
-540.223	-114.728	-0.251	-0.048
-539.208	21.555	-0.097	-0.079
-538.193	-73.126	-0.116	-0.043
-537.179	287.757	0.101	-0.183
-536.164	-87.462	-0.098	-0.030
-535.150	-140.011	-0.173	0.018
-534.135	-149.070	0.165	0.013
-533.121	-172.328	-0.143	-0.005
-532.106	5.627	0.173	-0.128
-531.091	2.288	-0.240	0.174
-530.077	-60.641	-0.464	0.197
-529.062	-76.826	0.183	-0.064
-528.048	-93.139	-0.308	0.086
-527.033	-200.000	-0.033	0.162
-526.018	-11.606	0.094	-0.062
-525.004	-36.158	-0.191	-0.103
-523.989	-82.622	0.092	0.030
-522.975	-200.000	-0.006	-0.286
-521.960	491.674	-0.108	-0.248
-520.945	239.700	0.086	-0.143
-519.931	-108.362	-0.430	-0.093
-518.916	-200.000	0.107	-0.650
-517.902	33.485	-0.246	0.214
-516.887	35.747	-0.038	0.033
-515.872	-79.869	0.075	-0.025
-514.858	-200.000	-0.021	0.210
-513.843	-67.679	-0.248	-0.097
-512.829	95.538	-0.184	-0.210
-511.814	800.000	-0.075	-0.285
-510.799	366.447	0.224	0.452
-509.785	43.906	0.021	-0.019
-508.770	-50.599	0.109	0.051
-507.756	800.000	-0.137	0.417
-506.741	-137.537	0.497	-0.056
-505.726	-147.884	-0.407	0.034
-504.712	746.993	-0.086	0.231
-503.697	426.454	-0.025	-0.054
-502.683	-6.882	0.188	0.128
-501.668	-106.832	0.089	-0.020
-500.653	800.000	-0.065	0.214
-499.639	-200.000	0.077	-0.498
-498.624	20.416	0.193	-0.156
-497.610	-41.043	0.231	-0.119
-496.595	101.270	-0.147	0.171
-495.581	-9.765	0.036	-0.024
-494.566	-62.275	-0.320	-0.133
-493.551	6.671	0.299	-0.223
-492.537	10.974	0.382	0.292
-491.522	800.000	-0.051	0.209
-490.508	365.582	-0.071	-0.142
-489.493	455.048	0.127	-0.282
-488.478	-200.000	-0.005	0.335
-487.464	-200.000	0.001	-0.160
-486.449	18.885	0.234	0.187
-485.435	-200.000	0.042	0.374
-484.420	-83.081	0.280	-0.090
-483.405	-116.990	0.159	0.029
-482.391	110.998	0.171	-0.206
-481.376	-108.133	-0.352	-0.076
-480.362	-86.895	-0.119	0.036
-479.347	-124.204	0.107	-0.017
-478.332	-65.997	0.353	-0.141
-477.318	227.714	-0.131	-0.214
-476.303	-104.382	0.058	-0.013
-475.289	-112.797	0.244	-0.048
-474.274	524.139	-0.053	0.124
-473.259	107.922	0.159	0.190
-472.245	-20.853	-0.230	-0.141
-471.230	38.740	-0.106	-0.094
-470.216	-109.656	-0.205	0.043
-469.201	27.417	0.207	-0.174
-468.186	-125.046	0.144	0.022
-467.172	-39.767	0.121	0.063
-466.157	-138.174	-0.167	-0.019
-465.143	-16.649	-0.211	-0.133
-464.128	687.263	0.055	0.144
-463.113	127.568	-0.067	-0.085
-462.099	-167.842	-0.282	-0.011
-461.084	-200.000	0.015	0.362
-460.070	800.000	-0.028	-0.110
-459.055	100.150	-0.150	0.173
-458.040	98.007	0.205	0.235
-457.026	-126.050	0.035	-0.005
-456.011	163.503	0.135	0.190
-454.997	114.168	0.045	0.055
-453.982	-200.000	-0.071	-0.542
-452.968	-38.632	0.250	-0.132
-451.953	129.286	0.117	0.149
-450.938	-200.000	0.110	0.573
-449.924	-97.141	0.155	0.041
-448.909	147.691	0.250	-0.336
-447.895	-149.074	-0.078	0.006
-446.880	-12.642	-0.278	0.181
-445.865	-6.309	-0.074	-0.050
-444.851	-133.887	0.337	-0.042
-443.836	160.511	0.086	0.119
-442.822	106.481	0.047	-0.056
-441.807	134.306	-0.035	-0.046
-440.792	-78.071	0.382	0.131
-439.778	-126.980	0.235	0.034
-438.763	-200.000	0.004	-0.053
-437.749	-67.825	0.261	-0.102
-436.734	-172.783	-0.084	-0.003
-435.719	-92.634	-0.411	-0.115
-434.705	-200.000	0.075	-0.600
-433.690	219.494	-0.166	0.266
-432.676	-200.000	0.010	-0.356
-431.661	191.039	-0.308	-0.462
-430.646	222.254	0.176	0.283
-429.632	-64.200	-0.421	0.171
-428.617	-200.000	0.054	-0.389
-427.603	63.060	-0.246	0.245
-426.588	800.000	-0.094	-0.265
-425.573	-138.056	-0.429	-0.048
-424.559	-200.000	0.032	0.211
-423.544	-39.669	0.168	-0.088
-422.530	800.000	0.034	-0.103
-421.515	65.998	-0.209	0.211
-420.500	-19.790	-0.138	0.085
-419.486	83.905	-0.092	-0.100
-418.471	219.184	-0.182	-0.290
-417.457	-49.885	-0.129	-0.061
-416.442	-154.543	0.142	-0.009
-415.428	47.015	0.239	0.221
-414.413	93.240	0.193	0.217
-413.398	103.873	-0.158	-0.185
-412.384	86.058	0.103	0.113
-411.369	108.848	-0.192	-0.229
-410.355	-171.852	0.135	-0.004
-409.340	44.576	-0.255	-0.234
-408.325	-72.790	0.106	0.039
-407.311	48.671	0.160	0.150
-406.296	240.039	-0.163	-0.270
-405.282	800.000	0.032	0.136
-404.267	108.215	-0.205	-0.244
-403.252	-200.000	-0.004	-0.037
-402.238	800.000	0.017	0.049
-401.223	-96.670	0.262	0.069
-400.209	-200.000	0.008	-0.237
-399.194	524.985	-0.129	-0.302
-398.179	174.329	-0.079	-0.114
-397.165	800.000	0.024	-0.084
-396.150	15.929	0.372	-0.292
-395.136	-200.000	0.008	0.092
-394.121	-58.450	-0.179	-0.077
-393.106	-2.494	0.174	0.121
-392.092	-150.719	-0.215	-0.016
-391.077	413.500	-0.046	-0.098
-390.063	-200.000	0.028	-0.234
-389.048	-174.779	-0.407	0.011
-388.033	-164.334	0.355	0.016
-387.019	-200.000	0.027	0.121
-386.004	-66.423	-0.063	0.025
-384.990	269.289	0.075	0.132
-383.975	262.743	-0.096	-0.166
-382.960	-117.292	-0.052	0.009
-381.946	-112.305	-0.471	-0.094
-380.931	800.000	-0.062	0.177
-379.917	273.735	-0.109	-0.192
-378.902	162.334	0.203	0.283
-377.888	11.978	0.195	0.149
-376.873	-134.184	0.318	-0.039
-375.858	-200.000	0.138	0.000
-374.844	-93.044	0.142	0.039
-373.829	103.317	0.217	-0.253
-372.815	-108.732	0.228	0.049
-371.800	517.851	-0.088	0.206
-370.785	-3.456	0.310	-0.215
-369.771	262.155	0.087	-0.149
-368.756	452.399	0.065	-0.142
-367.742	800.000	-0.068	0.250
-366.727	-38.657	0.240	0.126
-365.712	-72.696	0.305	0.112
-364.698	-160.833	0.215	0.011
-363.683	267.939	0.047	-0.082
-362.669	-3.232	-0.078	-0.054
-361.654	179.496	0.153	0.223
-360.639	-141.682	0.152	-0.015
-359.625	240.659	-0.145	-0.240
-358.610	800.000	0.064	0.202
-357.596	-200.000	0.004	0.098
-356.581	17.912	-0.127	-0.101
-355.566	-83.143	0.056	-0.018
-354.552	-200.000	0.008	0.253
-353.537	-200.000	-0.029	0.203
-352.523	100.118	-0.121	-0.139
-351.508	777.920	-0.105	-0.286
-350.493	8.344	0.068	-0.051
-349.479	800.000	-0.025	0.087
-348.464	-134.190	0.390	0.048
-347.450	2.483	-0.287	0.206
-346.435	-26.725	0.351	0.204
-345.420	158.179	-0.266	0.367
-344.406	-27.032	0.409	0.237
-343.391	42.123	0.152	-0.137
-342.377	-200.000	-0.035	0.321
-341.362	485.261	0.155	-0.351
-340.348	146.683	0.061	0.082
-339.333	656.811	0.065	0.166
-338.318	-104.919	0.282	0.064
-337.304	194.121	-0.093	0.141
-336.289	-128.241	-0.180	-0.025
-335.275	-150.066	0.403	0.031
-334.260	21.385	0.310	-0.250
-333.245	-200.000	-0.014	0.252
-332.231	122.065	-0.076	-0.095
-331.216	-34.994	0.173	-0.094
-330.202	56.404	-0.151	0.146
-329.187	-79.942	0.150	0.050
-328.172	-200.000	-0.022	0.131
-327.158	322.216	0.100	-0.189
-326.143	-92.856	-0.370	-0.103
-325.129	-60.387	-0.187	-0.079
-324.114	-97.082	-0.364	0.094
-323.099	-135.129	-0.080	0.010
-322.085	-58.851	0.113	-0.049
-321.070	518.438	-0.074	0.172
-320.056	331.638	0.079	-0.151
-319.041	136.905	-0.177	0.230
-318.026	-200.000	-0.013	-0.305
-317.012	23.693	-0.116	-0.095
-315.997	-102.367	-0.180	-0.043
-314.983	-88.017	0.166	-0.050
-313.968	800.000	-0.083	-0.351
-312.953	-39.845	0.143	-0.074
-311.939	-136.939	0.357	0.041
-310.924	496.650	0.019	0.042
-309.910	-42.728	0.302	-0.153
-308.895	-8.868	0.139	-0.092
-307.880	-200.000	-0.046	-0.322
-306.866	-171.645	-0.218	0.007
-305.851	151.726	0.108	-0.146
-304.837	159.388	-0.108	-0.149
-303.822	530.601	-0.163	0.382
-302.807	800.000	0.088	0.343
-301.793	-200.000	-0.008	-0.072
-300.778	800.000	0.027	-0.082
-299.764	-49.959	0.529	-0.249
-298.749	463.889	-0.029	-0.064
-297.735	184.512	0.166	0.244
-296.720	4.210	0.185	0.134
-295.705	800.000	0.046	-0.160
-294.691	204.901	0.099	-0.153
-293.676	800.000	-0.078	0.224
-292.662	-11.139	-0.283	-0.185
-291.647	800.000	-0.063	0.269
-290.632	-200.000	-0.029	0.185
-289.618	-200.000	-0.002	0.050
-288.603	-51.231	0.228	-0.106
-287.589	-200.000	-0.008	0.264
-286.574	768.729	-0.055	0.148
-285.559	263.269	-0.109	-0.188
-284.545	-58.479	0.185	-0.080
-283.530	-25.550	0.254	-0.149
-282.516	-109.075	0.186	0.039
-281.501	-190.983	0.404	0.004
-280.486	-68.738	0.213	0.082
-279.472	-128.333	0.201	0.028
-278.457	64.861	0.270	0.270
-277.443	-156.864	0.137	0.008
-276.428	-1.978	-0.263	0.183
-275.413	228.502	0.209	0.337
-274.399	141.131	-0.097	0.127
-273.384	206.667	0.147	-0.227
-272.370	-92.928	-0.322	0.089
-271.355	-200.000	0.001	-0.112
-270.340	595.032	0.128	0.313
-269.326	-121.925	-0.240	-0.039
-268.311	-54.862	-0.027	0.012
-267.297	250.772	-0.151	-0.255
-266.282	291.952	-0.087	0.156
-265.267	-61.101	-0.215	0.090
-264.253	-200.000	0.021	0.104
-263.238	-3.567	-0.133	-0.091
-262.224	-25.689	0.272	0.159
-261.209	674.187	-0.063	0.162
-260.195	-88.582	0.143	0.042
-259.180	-7.046	-0.253	0.170
-258.165	484.346	-0.094	0.212
-257.151	-17.126	-0.237	-0.148
-256.136	-41.327	0.050	0.026
-255.122	124.632	0.169	0.210
-254.107	800.000	-0.079	-0.241
-253.092	800.000	-0.077	0.291
-252.078	-31.634	-0.153	-0.085
-251.063	84.239	-0.079	0.086
-250.049	-116.561	0.312	0.057
-249.034	-43.878	-0.156	0.078
-248.019	-200.000	0.022	0.133
-247.005	800.000	0.113	0.347
-245.990	174.016	0.038	-0.054
-244.976	61.054	0.109	-0.107
-243.961	-200.000	-0.016	0.178
-242.946	28.868	-0.097	0.082
-241.932	469.047	-0.092	0.205
-240.917	128.502	-0.061	-0.077
-239.903	77.300	-0.080	0.084
-238.888	-44.368	0.300	0.149
-237.873	800.000	0.020	0.066
-236.859	68.966	-0.180	-0.184
-235.844	96.580	-0.148	0.168
-234.830	140.913	0.240	0.314
-233.815	18.492	0.152	-0.120
-232.800	6.305	-0.202	-0.148
-231.786	800.000	0.091	0.258
-230.771	-183.946	-0.417	-0.007
-229.757	-132.063	0.177	0.023
-228.742	16.572	0.089	0.070
-227.727	-200.000	0.034	0.210
-226.713	800.000	-0.123	0.448
-225.698	293.862	0.058	-0.106
-224.684	462.027	-0.037	0.081
-223.669	-47.220	-0.180	-0.087
-222.655	-200.000	-0.068	-0.323
-221.640	-111.797	0.215	-0.043
-220.625	-200.000	0.025	-0.382
-219.611	-123.923	-0.221	0.034
-218.596	7.363	0.128	-0.095
-217.582	-25.515	-0.118	0.069
-216.567	-109.303	0.270	-0.057
-215.552	-90.365	0.177	0.051
-214.538	-65.873	0.252	-0.100
-213.523	244.907	0.084	0.140
-212.509	-25.597	-0.044	-0.026
-211.494	800.000	0.043	-0.144
-210.479	-16.403	0.160	0.101
-209.465	0.210	-0.057	0.040
-208.450	-96.076	-0.084	0.022
-207.436	-199.309	0.121	0.001
-206.421	88.930	0.022	0.025
-205.406	13.002	-0.008	-0.006
-204.392	21.708	0.168	-0.135
-203.377	-42.791	-0.252	0.127
-202.363	57.290	-0.111	-0.107
-201.348	79.345	0.242	0.256
-200.333	-71.678	0.270	-0.100
-199.319	-55.996	0.247	0.109
-198.304	50.523	0.149	-0.140
-197.290	554.070	0.054	0.128
-196.275	-200.000	0.098	-0.428
-195.260	543.040	0.147	-0.347
-194.246	245.207	-0.059	0.098
-193.231	78.452	-0.122	-0.129
-192.217	63.308	0.203	-0.201
-191.202	-106.280	0.056	-0.012
-190.187	-85.766	-0.219	-0.067
-189.173	800.000	0.106	0.377
-188.158	-158.433	-0.329	0.019
-187.144	800.000	-0.044	0.158
-186.129	25.012	0.202	0.166
-185.114	-200.000	-0.065	0.321
-184.100	-164.040	0.140	0.006
-183.085	-200.000	0.078	0.370
-182.071	-196.761	0.300	0.002
-181.056	-32.309	0.084	0.046
-180.042	-200.000	-0.012	0.146
-179.027	800.000	-0.054	0.155
-178.012	-76.897	0.174	-0.060
-176.998	-200.000	0.005	-0.293
-175.983	283.739	0.136	-0.241
-174.969	-97.165	0.560	0.145
-173.954	-72.827	-0.237	-0.086
-172.939	13.895	0.239	0.183
-171.925	120.088	-0.064	-0.079
-170.910	800.000	-0.025	0.106
-169.896	-200.000	-0.016	0.131
-168.881	800.000	0.029	-0.084
-167.866	-91.525	-0.308	0.087
-166.852	-200.000	-0.035	-0.222
-165.837	-38.244	-0.079	0.041
-164.823	800.000	-0.079	-0.278
-163.808	-47.466	0.224	-0.107
-162.793	-200.000	-0.046	0.289
-161.779	-200.000	-0.034	-0.191
-160.764	45.222	0.140	0.128
-159.750	-200.000	0.001	0.010
-158.735	89.640	0.017	-0.018
-157.720	664.884	0.106	-0.270
-156.706	-180.419	0.356	0.007
-155.691	143.601	0.029	0.038
-154.677	-139.977	-0.099	-0.010
-153.662	192.720	0.124	0.184
-152.647	-200.000	-0.046	0.223
-151.633	-126.335	-0.167	-0.025
-150.618	-200.000	-0.052	-0.260
-149.604	-73.032	-0.122	-0.044
-148.589	-25.996	0.178	-0.103
-147.574	33.676	0.213	-0.183
-146.560	-200.000	-0.035	-0.208
-145.545	800.000	0.084	0.242
-144.531	42.438	-0.096	-0.087
-143.516	59.212	0.048	-0.047
-142.502	202.534	-0.135	0.205
-141.487	28.600	0.200	0.167
-140.472	-200.000	0.023	0.136
-139.458	-46.295	-0.150	0.073
-138.443	-188.690	-0.131	-0.002
-137.429	-200.000	0.009	0.383
-136.414	505.046	0.104	0.237
-135.399	800.000	0.174	0.485
-134.385	-200.000	-0.006	0.239
-133.370	60.976	-0.149	0.146
-132.356	-200.000	0.001	0.086
-131.341	154.290	-0.092	-0.124
-130.326	136.476	-0.109	0.140
-129.312	-64.697	0.436	-0.174
-128.297	-46.775	-0.064	-0.031
-127.283	-82.176	0.130	0.042
-126.268	138.139	0.162	0.210
-125.253	132.660	-0.008	-0.010
-124.239	-8.303	-0.023	0.015
-123.224	-200.000	0.022	0.267
-122.210	-199.276	0.362	-0.002
-121.195	-200.000	-0.032	0.277
-120.180	-200.000	0.000	-0.074
-119.166	800.000	0.078	0.227
-118.151	-91.327	0.253	0.071
-117.137	-200.000	0.004	-0.063
-116.122	800.000	0.040	-0.139
-115.107	-13.979	0.272	0.173
-114.093	227.211	-0.148	-0.237
-113.078	-73.603	0.191	0.069
-112.064	10.234	-0.380	-0.285
-111.049	-200.000	0.041	0.544
-110.034	-54.274	0.228	0.102
-109.020	-40.129	-0.160	0.082
-108.005	332.063	0.080	0.153
-106.991	-200.000	-0.015	-0.443
-105.976	-130.304	-0.269	0.036
-104.962	800.000	0.099	-0.274
-103.947	213.290	0.121	-0.188
-102.932	37.375	0.085	-0.074
-101.918	665.473	-0.115	-0.292
-100.903	-89.343	0.319	-0.093
-99.889	-45.015	0.323	0.158
-98.874	123.852	-0.066	-0.081
-97.859	163.646	-0.174	-0.242
-96.845	-25.518	0.127	0.074
-95.830	77.926	-0.155	-0.163
-94.816	-52.167	-0.136	0.062
-93.801	628.352	0.026	0.065
-92.786	59.980	-0.150	0.146
-91.772	-200.000	0.019	0.205
-90.757	2.718	0.134	-0.096
-89.743	180.934	-0.326	-0.471
-88.728	502.889	-0.219	-0.498
-87.713	800.000	0.079	-0.288
-86.699	-200.000	0.037	0.439
-85.684	-200.000	0.022	-0.332
-84.670	-200.000	0.032	-0.238
-83.655	-200.000	-0.011	-0.129
-82.640	800.000	-0.182	0.514
-81.626	363.018	0.146	-0.288
-80.611	-42.760	0.289	0.145
-79.597	-200.000	0.007	0.145
-78.582	216.980	0.116	0.182
-77.567	337.971	0.107	-0.205
-76.553	-107.653	0.119	0.026
-75.538	-92.921	0.166	-0.046
-74.524	-200.000	0.040	-0.265
-73.509	141.927	0.102	-0.133
-72.494	428.566	0.111	0.236
-71.480	-105.891	0.282	0.063
-70.465	-105.534	0.074	-0.016
-69.451	41.530	0.261	0.233
-68.436	-60.618	0.175	0.073
-67.422	25.761	-0.178	-0.146
-66.407	800.000	-0.023	-0.072
-65.392	-200.000	-0.011	-0.124
-64.378	-200.000	-0.010	-0.288
-63.363	20.829	-0.297	-0.236
-62.349	71.160	0.288	0.293
-61.334	14.025	-1.056	-0.808
-60.319	-60.154	0.745	0.312
-59.305	486.928	-0.415	-0.930
-58.290	122.559	0.940	1.156
-57.276	233.055	0.848	1.370
-56.261	-200.000	101.672	593.872
-55.246	566.520	1417.947	3382.470
-54.232	190.612	2602.132	3844.597
-53.217	116.113	2163.735	2604.801
-52.203	41.749	1696.230	1511.118
-51.188	34.067	1507.139	1290.733
-50.173	31.683	1480.415	1251.884
-49.159	51.184	1532.407	1429.043
-48.144	52.865	1549.496	1456.360
-47.130	34.192	1508.602	1292.634
-46.115	31.194	1492.891	1258.937
-45.100	31.078	1489.404	1255.165
-44.086	30.927	1487.901	1252.837
-43.071	30.994	1485.223	1250.980
-42.057	30.893	1484.096	1249.303
-41.042	30.882	1482.532	1247.862
-40.027	30.837	1481.454	1246.609
-39.013	30.904	1479.864	1245.666
-37.998	30.931	1478.350	1244.521
-36.984	30.826	1477.086	1242.711
-35.969	30.850	1475.794	1241.732
-34.954	31.020	1473.658	1241.016
-33.940	30.928	1473.029	1239.824
-32.925	30.951	1471.648	1238.769
-31.911	30.906	1470.550	1237.498
-30.896	31.009	1468.890	1236.735
-29.881	31.153	1467.569	1236.527
-28.867	30.983	1466.613	1234.545
-27.852	31.071	1464.880	1233.620
-26.838	30.986	1463.720	1232.033
-25.823	30.952	1462.323	1230.584
-24.809	31.066	1460.443	1229.705
-23.794	31.032	1459.121	1228.319
-22.779	30.913	1458.169	1226.687
-21.765	30.976	1457.177	1226.214
-20.750	30.968	1456.040	1225.159
-19.736	30.974	1454.736	1224.047
-18.721	30.845	1454.166	1222.678
-17.706	30.972	1452.275	1221.870
-16.692	30.825	1451.209	1219.958
-15.677	30.929	1450.343	1219.864
-14.663	30.958	1449.326	1219.154
-13.648	30.966	1448.155	1218.169
-12.633	30.954	1447.370	1217.383
-11.619	31.009	1446.502	1216.965
-10.604	30.889	1445.734	1215.485
-9.590	30.762	1445.717	1214.592
-8.575	30.929	1444.674	1214.757
-7.560	31.025	1442.989	1213.916
-6.546	30.831	1442.959	1212.581
-5.531	30.806	1442.164	1211.704
-4.517	30.923	1440.328	1210.873
-3.502	30.780	1439.730	1209.394
-2.487	30.831	1438.868	1208.956
-1.473	30.844	1437.607	1207.930
-0.458	30.978	1435.798	1207.228
0.556	29.593	1426.521	1196.132
1.571	26.618	1401.725	1156.273
2.586	23.357	1343.547	1088.191
3.600	21.781	1262.235	1013.141
4.615	20.425	1217.576	969.644
5.629	17.734	1162.432	911.283
6.644	10.696	1080.819	812.139
7.659	5.332	1042.728	757.509
8.673	4.722	1037.209	750.490
9.688	4.760	1033.789	748.132
10.702	4.545	1032.352	745.996
11.717	4.553	1030.736	744.798
12.731	6.558	1032.497	755.622
13.746	13.249	1041.493	794.388
14.761	18.090	1047.639	822.353
15.775	18.343	1046.639	822.711
16.790	17.395	1044.218	816.187
17.804	16.303	1042.391	809.454
18.819	15.340	1040.443	803.260
19.834	14.983	1038.934	800.317
20.848	14.702	1037.590	797.867
21.863	14.364	1037.655	796.234
22.877	14.244	1036.841	794.968
23.892	13.938	1036.045	792.823
24.907	13.967	1035.005	792.097
25.921	13.998	1033.776	791.235
26.936	13.933	1033.831	790.895
27.950	14.039	1032.673	790.447
28.965	13.962	1031.731	789.285
29.980	14.039	1030.601	788.717
30.994	14.158	1029.253	788.180
32.009	14.274	1028.071	787.754
33.023	14.369	1027.803	787.930
34.038	14.237	1027.030	786.642
35.053	14.234	1025.940	785.724
36.067	14.181	1024.994	784.683
37.082	14.084	1024.224	783.566
38.096	14.111	1023.045	782.720
39.111	14.070	1022.705	782.201
40.126	14.351	1021.599	782.602
41.140	14.094	1020.746	780.675
42.155	13.948	1019.662	779.090
43.169	13.966	1018.647	778.334
44.184	13.897	1017.083	776.745
45.199	13.787	1016.441	775.670
46.213	13.866	1015.137	774.975
47.228	13.887	1014.371	774.423
48.242	14.017	1013.863	774.570
49.257	13.914	1013.303	773.596
50.271	13.959	1011.597	772.435
51.286	14.084	1011.200	772.645
52.301	14.265	1010.250	772.689
53.315	14.202	1009.055	771.414
54.330	14.067	1008.926	770.621
55.344	13.854	1007.829	768.729
56.359	14.076	1006.555	768.715
57.374	13.977	1005.675	767.520
58.388	13.994	1004.909	766.946
59.403	13.730	1004.363	765.240
60.417	13.726	1003.381	764.406
61.432	13.741	1003.116	764.207
62.447	13.986	1001.723	764.207
63.461	13.809	1000.822	762.636
64.476	13.778	999.841	761.679
65.490	13.714	999.230	760.856
66.505	13.811	998.201	760.449
67.520	13.933	997.326	760.274
68.534	13.789	997.116	759.385
69.549	13.823	996.162	758.748
70.563	13.816	995.571	758.196
71.578	13.809	994.872	757.566
72.593	13.858	993.472	756.657
73.607	13.633	993.031	755.229
74.622	13.578	992.586	754.575
75.636	13.629	991.288	753.754
76.651	13.697	990.175	753.149
77.666	13.646	989.659	752.457
78.680	13.712	989.124	752.282
79.695	13.701	988.583	751.757
80.709	13.666	988.570	751.518
81.724	13.853	987.401	751.410
82.739	13.872	986.769	750.951
83.753	13.829	985.916	750.040
84.768	13.944	984.974	749.777
85.782	14.079	984.196	749.726
86.797	14.135	983.519	749.397
87.812	14.291	982.466	749.230
88.826	14.029	982.118	747.720
89.841	14.086	980.932	747.005
90.855	14.025	980.538	746.366
91.870	14.208	979.427	746.274
92.884	14.163	978.894	745.602
93.899	14.183	978.145	745.056
94.914	14.079	977.554	744.074
95.928	14.304	976.426	744.154
96.943	14.235	976.279	743.669
97.957	14.172	975.737	742.908
98.972	14.115	974.338	741.525
99.987	14.179	973.793	741.328
101.001	14.141	972.763	740.308
102.016	14.158	972.208	739.898
103.030	14.102	971.427	738.989
104.045	14.104	970.523	738.244
105.060	14.102	969.449	737.351
106.074	14.065	968.302	736.250
107.089	14.075	967.286	735.459
108.103	13.939	966.252	734.006
109.118	13.798	965.751	732.936
110.133	13.877	964.347	732.155
111.147	13.844	963.997	731.681
112.162	13.826	962.687	730.540
113.176	13.867	962.191	730.280
114.191	13.953	961.686	730.212
115.206	14.012	960.368	729.405
116.220	14.055	959.475	728.849
117.235	14.050	958.768	728.228
118.249	13.909	958.203	727.116
119.264	13.878	957.667	726.510
120.279	13.877	956.460	725.528
121.293	13.902	955.711	725.001
122.308	13.761	955.226	723.953
123.322	13.918	953.719	723.433
124.337	13.817	952.760	722.199
125.352	13.781	951.775	721.237
126.366	13.789	951.060	720.662
127.381	13.825	949.892	719.873
128.395	13.830	949.094	719.225
129.410	13.768	948.372	718.346
130.424	13.876	947.264	717.912
131.439	13.849	946.875	717.433
132.454	13.896	945.886	716.823
133.468	13.981	945.020	716.473
134.483	13.936	944.683	715.960
135.497	14.095	943.526	715.703
136.512	13.958	943.026	714.671
137.527	13.922	942.331	713.928
138.541	13.908	941.566	713.225
139.556	13.902	941.122	712.798
140.570	14.050	939.808	712.373
141.585	14.075	939.141	711.911
142.600	14.136	938.718	711.790
143.614	14.163	937.777	711.130
144.629	14.203	937.090	710.718
145.643	14.282	936.419	710.482
146.658	14.144	935.589	709.199
147.673	14.111	934.354	708.062
148.687	14.185	933.687	707.806
149.702	14.189	932.737	707.042
150.716	13.994	931.769	705.418
151.731	14.057	930.754	704.854
152.746	14.083	930.139	704.435
153.760	14.026	929.641	703.756
154.775	14.171	928.732	703.617
155.789	14.163	928.165	703.091
156.804	14.252	927.284	702.737
157.819	14.181	926.619	701.872
158.833	14.110	926.129	701.141
159.848	14.226	925.335	700.965
160.862	14.217	924.485	700.220
161.877	14.293	923.664	699.856
162.892	14.267	922.850	699.069
163.906	14.117	921.892	697.654
164.921	13.972	921.735	696.866
165.935	14.129	919.874	696.054
166.950	14.163	919.290	695.693
167.964	14.313	918.255	695.472
168.979	14.377	917.011	694.738
169.994	14.114	916.872	693.472
171.008	14.079	915.793	692.448
172.023	14.297	914.879	692.603
173.037	14.274	914.217	691.946
174.052	14.352	913.613	691.751
175.067	14.429	912.796	691.391
176.081	14.251	911.954	689.954
177.096	14.156	910.898	688.702
178.110	14.165	910.524	688.398
179.125	14.380	909.409	688.380
180.140	14.280	908.702	687.369
181.154	14.355	907.793	686.932
182.169	14.302	907.651	686.547
183.183	14.501	907.275	687.020
184.198	14.480	906.282	686.121
185.213	14.421	906.288	685.823
186.227	14.543	904.883	685.198
187.242	14.487	904.770	684.825
188.256	14.660	903.863	684.785
189.271	14.533	903.488	683.919
190.286	14.589	902.713	683.504
191.300	14.392	901.967	682.071
192.315	14.264	901.093	680.826
193.329	14.137	900.476	679.779
194.344	14.109	900.001	679.248
195.359	14.261	899.071	679.104
196.373	14.418	898.959	679.601
197.388	14.477	898.414	679.372
198.402	14.690	897.917	679.800
199.417	14.631	897.495	679.182
200.432	14.776	897.070	679.390
201.446	14.650	896.853	678.652
202.461	14.947	896.021	679.169
203.475	14.849	895.601	678.394
204.490	14.884	894.954	677.983
205.504	14.758	894.128	676.790
206.519	14.434	893.669	675.069
207.534	14.718	892.559	675.318
208.548	14.670	891.709	674.422
209.563	14.624	891.706	674.176
210.577	14.711	890.312	673.410
211.592	14.767	890.021	673.359
212.607	14.751	889.583	672.904
213.621	14.874	888.933	672.849
214.636	14.958	888.105	672.498
215.650	14.857	887.836	671.828
216.665	14.848	887.297	671.328
217.680	14.835	886.583	670.672
218.694	14.844	886.241	670.390
219.709	15.026	885.669	670.630
220.723	14.906	885.116	669.669
221.738	14.817	884.535	668.816
222.753	15.070	883.251	668.798
223.767	14.871	883.000	667.754
224.782	15.057	881.731	667.477
225.796	15.111	881.383	667.368
226.811	15.116	880.641	666.768
227.826	15.040	879.898	665.845
228.840	14.897	879.337	664.790
229.855	14.917	878.758	664.374
230.869	15.049	877.612	663.974
231.884	15.040	877.083	663.477
232.899	14.955	876.707	662.797
233.913	14.900	876.254	662.179
234.928	14.948	875.002	661.366
235.942	15.011	874.176	660.931
236.957	14.980	873.869	660.515
237.972	14.745	873.135	658.978
238.986	14.910	872.832	659.342
240.001	14.848	872.376	658.695
241.015	14.934	871.227	658.105
242.030	15.041	870.893	658.217
243.045	15.138	870.223	658.033
244.059	15.065	869.868	657.421
245.074	15.167	868.829	656.976
246.088	15.241	868.362	656.853
247.103	15.130	867.741	655.891
248.117	15.211	867.381	655.880
249.132	15.212	866.510	655.169
250.147	15.373	866.343	655.610
251.161	15.580	865.347	655.609
252.176	15.559	864.922	655.145
253.190	15.458	864.617	654.463
254.205	15.687	863.509	654.460
255.220	15.709	863.313	654.338
256.234	15.609	862.436	653.227
257.249	15.563	861.836	652.536
258.263	15.567	861.774	652.448
259.278	15.662	861.090	652.238
260.293	15.683	859.959	651.406
261.307	15.766	859.835	651.574
262.322	15.627	859.196	650.495
263.336	15.819	858.482	650.638
264.351	15.767	858.193	650.162
265.366	15.865	857.273	649.787
266.380	15.939	856.811	649.665
267.395	15.721	856.309	648.384
268.409	15.759	855.383	647.775
269.424	15.828	854.513	647.321
270.439	15.822	853.946	646.813
271.453	15.666	853.330	645.692
272.468	15.783	852.786	645.672
273.482	15.802	851.916	645.029
274.497	15.767	851.402	644.446
275.512	15.786	850.649	643.892
276.526	15.768	850.077	643.335
277.541	15.901	849.215	643.133
278.555	15.806	848.646	642.283
279.570	15.825	848.484	642.176
280.585	15.913	848.215	642.249
281.599	15.924	847.733	641.870
282.614	15.908	846.623	640.911
283.628	15.887	845.843	640.187
284.643	15.982	845.476	640.212
285.657	15.908	845.089	639.580
286.672	15.920	844.543	639.156
287.687	15.898	844.060	638.651
288.701	15.971	843.592	638.516
289.716	16.033	842.673	638.002
290.730	15.957	842.403	637.452
291.745	16.100	841.631	637.350
292.760	15.976	841.362	636.623
293.774	16.035	840.692	636.284
294.789	16.115	840.276	636.213
295.803	16.092	839.586	635.550
296.818	15.937	839.485	634.832
297.833	16.070	838.349	634.418
298.847	16.217	837.447	634.229
299.862	16.118	836.726	633.256
300.876	16.062	836.518	632.833
301.891	16.132	835.691	632.416
302.906	16.337	834.997	632.602
303.920	16.266	834.810	632.138
304.935	16.249	833.803	631.253
305.949	16.399	833.212	631.313
306.964	16.477	832.601	631.086
307.979	16.405	832.225	630.474
308.993	16.331	831.691	629.737
310.008	16.346	831.204	629.369
311.022	16.375	830.859	629.163
312.037	16.421	830.184	628.767
313.052	16.243	829.737	627.710
314.066	16.297	829.008	627.304
315.081	16.368	828.282	626.961
316.095	16.381	827.601	626.437
317.110	16.302	826.784	625.474
318.125	16.258	826.655	625.158
319.139	16.313	826.074	624.865
320.154	16.247	825.643	624.238
321.168	16.358	825.126	624.203
322.183	16.397	824.377	623.726
323.197	16.424	823.905	623.415
324.212	16.432	823.203	622.856
325.227	16.353	823.542	622.766
326.241	16.327	822.713	621.991
327.256	16.424	822.090	621.822
328.270	16.419	821.523	621.319
329.285	16.440	820.823	620.812
330.300	16.240	820.250	619.589
331.314	16.326	819.794	619.504
332.329	16.564	818.751	619.532
333.343	16.480	818.356	618.871
334.358	16.632	817.669	618.854
335.373	16.548	817.479	618.350
336.387	16.692	817.247	618.644
337.402	16.582	816.791	617.840
338.416	16.685	816.361	617.837
339.431	16.732	815.331	617.174
340.446	16.830	814.639	616.954
341.460	16.886	813.871	616.520
342.475	16.954	813.590	616.500
343.489	16.982	812.926	616.044
344.504	16.918	812.635	615.538
345.519	17.059	812.044	615.546
346.533	17.057	811.521	615.089
347.548	16.939	811.402	614.516
348.562	17.035	810.751	614.318
349.577	16.877	810.175	613.255
350.592	16.857	809.505	612.619
351.606	16.842	809.126	612.226
352.621	16.777	808.574	611.518
353.635	16.826	808.039	611.236
354.650	16.953	807.479	611.216
355.665	16.934	807.474	611.092
356.679	16.863	806.910	610.353
357.694	16.968	806.816	610.607
358.708	17.010	805.909	610.019
359.723	16.980	805.665	609.671
360.738	17.112	804.809	609.442
361.752	16.911	804.350	608.319
362.767	17.042	804.230	608.646
363.781	16.974	803.820	608.039
364.796	17.109	803.436	608.179
365.810	17.207	802.856	608.034
366.825	17.190	802.545	607.686
367.840	17.286	802.174	607.692
368.854	17.131	801.820	606.816
369.869	17.228	801.403	606.793
370.883	17.233	800.733	606.250
371.898	17.301	800.018	605.901
372.913	17.378	799.382	605.636
373.927	17.280	799.153	605.063
374.942	17.223	798.239	604.112
375.956	17.403	797.651	604.256
376.971	17.359	797.222	603.720
377.986	17.391	797.032	603.635
379.000	17.525	796.415	603.590
380.015	17.435	795.974	602.883
381.029	17.538	795.359	602.728
382.044	17.516	794.359	601.841
383.059	17.537	794.114	601.676
384.073	17.550	793.521	601.220
385.088	17.517	793.130	600.754
386.102	17.446	792.481	599.960
387.117	17.378	792.037	599.330
388.132	17.348	791.270	598.592
389.146	17.462	790.913	598.670
390.161	17.462	790.629	598.400
391.175	17.395	790.438	597.967
392.190	17.642	789.982	598.439
393.205	17.519	789.679	597.724
394.219	17.507	788.676	596.868
395.234	17.639	788.332	597.019
396.248	17.357	788.449	596.066
397.263	17.372	787.787	595.564
398.278	17.340	786.912	594.741
399.292	17.362	786.607	594.533
400.307	17.435	786.307	594.510
401.321	17.440	785.738	594.044
402.336	17.566	785.300	594.098
403.350	17.505	785.135	593.708
404.365	17.627	784.952	593.942
405.380	17.651	784.547	593.669
406.394	17.756	783.602	593.265
407.409	17.871	783.288	593.374
408.423	17.851	783.057	593.080
409.438	17.766	782.417	592.245
410.453	17.803	782.219	592.171
411.467	17.953	781.594	592.167
412.482	17.869	781.402	591.676
413.496	17.908	780.940	591.410
414.511	17.954	780.499	591.184
415.526	17.914	780.294	590.837
416.540	18.042	779.734	590.805
417.555	18.122	778.924	590.414
418.569	17.997	778.775	589.815
419.584	17.908	778.428	589.195
420.599	18.033	777.781	589.084
421.613	156.793	1369.386	1797.498
422.628	135.244	1455.594	1797.613
