DTS Sentinel unit serial number:	SN413079Multiplexer serial number:	ORYXHardware model number:	OX4-SRSoftware version number:	ORYX F/W v4.00 Oryx Data Collector v3.7.2.0data status	okinstallation	princeton_trtdifferential loss correction	single-endedforward channel	channel 3reverse channel	N/Adate	2019/09/13time	20:28:35forward acquisition time	60.00reverse acquisition time	0.00gamma	496.2192k internal	0.2331k external	0.2331temperature offset calibration	1.0066default loss term (dB/km)	0.3790temperature slope calibration	1.0000multiplexer offset coefficient	1.0000multiplexer slope coefficient	1.0000fibre end	0.00T internal ref (°C)	29.12T ext. ref 1 (°C)	3.29T ext. ref 2 (°C)	23.69length (m)	temperature (°C)	Stokes	anti-Stokes-747.200	31.109	0.133	0.115
-746.185	13.759	-0.293	0.229
-745.171	-30.449	-0.038	-0.022
-744.156	-105.012	-0.169	-0.039
-743.142	-200.000	0.058	-0.328
-742.127	514.589	0.143	0.336
-741.112	-47.508	0.352	0.172
-740.098	-21.447	-0.174	-0.107
-739.083	44.583	0.232	0.214
-738.069	108.895	-0.267	0.321
-737.054	219.939	-0.022	-0.036
-736.039	-100.371	-0.269	-0.067
-735.025	-174.527	0.352	0.010
-734.010	800.000	0.010	0.036
-732.996	674.258	-0.098	0.256
-731.981	74.971	-0.022	0.023
-730.966	787.141	-0.089	-0.245
-729.952	335.245	0.082	0.161
-728.937	800.000	-0.039	0.155
-727.923	-187.365	-0.153	0.002
-726.908	-200.000	0.000	-0.190
-725.894	-93.844	-0.270	-0.075
-724.879	-129.752	-0.499	0.069
-723.864	89.290	0.186	-0.208
-722.850	-79.452	-0.068	0.023
-721.835	-66.364	0.196	0.078
-720.821	-108.729	-0.318	-0.069
-719.806	469.732	-0.142	-0.321
-718.791	12.422	0.190	-0.147
-717.777	-144.783	-0.257	-0.024
-716.762	-200.000	-0.016	-0.135
-715.748	504.265	0.175	-0.406
-714.733	-66.627	-0.435	-0.173
-713.718	-200.000	-0.028	-0.246
-712.704	-200.000	-0.001	0.278
-711.689	-98.114	0.152	-0.039
-710.675	-21.088	0.348	0.214
-709.660	-71.195	0.217	-0.082
-708.645	-123.793	0.445	-0.071
-707.631	800.000	-0.030	-0.100
-706.616	-98.081	-0.054	-0.014
-705.602	-67.660	-0.069	-0.027
-704.587	-152.742	0.185	0.013
-703.572	-61.828	0.191	0.080
-702.558	-150.734	-0.351	-0.027
-701.543	-95.638	0.194	-0.052
-700.529	281.048	-0.093	-0.167
-699.514	-18.423	-0.243	0.153
-698.499	168.145	0.075	-0.108
-697.485	-93.460	0.178	0.049
-696.470	216.509	-0.254	-0.406
-695.456	102.601	-0.183	0.215
-694.441	-105.121	-0.130	-0.030
-693.426	31.598	0.275	0.237
-692.412	-200.000	-0.003	-0.259
-691.397	485.593	-0.035	-0.081
-690.383	341.667	-0.138	-0.270
-689.368	-126.031	0.225	-0.034
-688.354	98.483	0.067	-0.078
-687.339	-200.000	-0.013	0.089
-686.324	208.858	0.125	-0.197
-685.310	-77.230	-0.293	0.102
-684.295	-0.592	0.061	-0.043
-683.281	-27.775	-0.186	-0.108
-682.266	-200.000	0.058	-0.369
-681.251	-53.370	0.132	-0.061
-680.237	-142.388	-0.075	-0.007
-679.222	800.000	-0.072	0.291
-678.208	29.096	0.039	-0.033
-677.193	-90.620	-0.244	-0.071
-676.178	-2.466	-0.069	0.048
-675.164	-34.796	0.167	-0.092
-674.149	22.358	0.134	0.110
-673.135	163.815	-0.125	0.177
-672.120	21.818	0.387	-0.316
-671.105	-200.000	0.039	-0.244
-670.091	800.000	0.012	-0.034
-669.076	-95.094	-0.162	-0.044
-668.062	-25.355	-0.286	-0.170
-667.047	-200.000	0.005	0.087
-666.032	124.298	-0.046	-0.058
-665.018	-200.000	0.003	0.121
-664.003	51.271	-0.004	0.004
-662.989	-66.990	0.184	-0.073
-661.974	-200.000	-0.019	-0.090
-660.959	-200.000	-0.010	0.099
-659.945	-115.066	0.132	-0.025
-658.930	-200.000	0.065	0.301
-657.916	14.243	-0.274	0.214
-656.901	21.787	-0.123	0.100
-655.886	-200.000	-0.061	0.399
-654.872	325.937	-0.109	-0.209
-653.857	-67.974	0.281	0.110
-652.843	-106.819	-0.469	0.104
-651.828	-73.180	0.212	-0.078
-650.814	-200.000	0.007	-0.343
-649.799	-64.169	0.126	0.052
-648.784	-47.807	0.162	0.079
-647.770	59.888	0.163	-0.161
-646.755	38.145	-0.303	-0.270
-645.741	135.668	-0.067	-0.087
-644.726	225.228	-0.033	-0.054
-643.711	-112.771	0.240	0.048
-642.697	84.775	0.036	-0.040
-641.682	-200.000	0.046	0.299
-640.668	-153.556	-0.296	-0.020
-639.653	-163.496	-0.243	-0.012
-638.638	-200.000	-0.006	-0.062
-637.624	-63.805	-0.338	-0.139
-636.609	675.069	0.085	-0.220
-635.595	-200.000	-0.022	-0.150
-634.580	-111.964	0.060	-0.012
-633.565	-112.604	-0.272	0.054
-632.551	800.000	0.076	-0.293
-631.536	97.509	0.149	0.171
-630.522	-200.000	0.044	0.270
-629.507	116.403	-0.031	0.038
-628.492	87.128	-0.090	-0.099
-627.478	-139.771	-0.355	0.038
-626.463	95.949	0.210	-0.240
-625.449	-19.759	0.089	0.055
-624.434	571.192	0.078	-0.191
-623.419	-48.513	0.243	-0.117
-622.405	30.350	0.154	0.132
-621.390	-200.000	0.053	0.463
-620.376	-151.693	0.286	-0.021
-619.361	-24.727	0.289	-0.172
-618.346	1.459	0.232	0.167
-617.332	63.581	-0.135	0.136
-616.317	10.718	-0.416	0.318
-615.303	126.608	0.215	0.273
-614.288	-97.492	0.467	0.122
-613.273	-200.000	0.066	-0.323
-612.259	256.418	-0.109	-0.187
-611.244	-200.000	0.007	0.151
-610.230	413.597	-0.035	-0.075
-609.215	800.000	0.040	-0.148
-608.201	-105.281	0.109	-0.025
-607.186	4.086	0.234	0.172
-606.171	784.798	-0.061	0.167
-605.157	-37.157	-0.046	0.025
-604.142	98.142	0.104	0.120
-603.128	10.060	-0.170	-0.129
-602.113	733.250	0.074	-0.199
-601.098	-200.000	0.029	0.172
-600.084	171.233	0.059	0.084
-599.069	181.326	-0.064	-0.095
-598.055	-72.123	-0.176	0.065
-597.040	-79.745	0.319	-0.108
-596.025	-35.474	0.186	0.101
-595.011	800.000	0.050	-0.200
-593.996	-91.070	-0.151	-0.043
-592.982	800.000	-0.051	-0.185
-591.967	76.939	0.162	0.172
-590.952	467.668	-0.100	-0.224
-589.938	-20.871	0.251	-0.154
-588.923	-132.789	0.087	0.011
-587.909	-127.525	0.012	-0.002
-586.894	-67.521	0.227	0.089
-585.879	800.000	0.084	0.299
-584.865	-40.601	0.304	-0.158
-583.850	97.223	0.123	0.141
-582.836	32.204	-0.454	0.391
-581.821	8.691	0.141	0.107
-580.806	-95.550	0.133	-0.036
-579.792	-153.999	-0.214	0.015
-578.777	114.574	-0.151	0.184
-577.763	54.943	0.051	-0.049
-576.748	153.862	0.159	-0.219
-575.733	81.764	0.058	-0.063
-574.719	96.695	-0.114	-0.130
-573.704	13.698	-0.133	0.103
-572.690	417.146	-0.089	-0.191
-571.675	-154.650	0.210	-0.014
-570.661	-148.461	-0.356	0.029
-569.646	-200.000	0.016	0.124
-568.631	800.000	0.092	-0.255
-567.617	91.299	-0.181	-0.203
-566.602	-3.117	-0.278	-0.194
-565.588	111.124	-0.087	0.105
-564.573	-43.712	0.386	0.194
-563.558	193.984	0.034	-0.052
-562.544	-200.000	0.003	-0.256
-561.529	-78.008	0.176	-0.061
-560.515	-23.502	-0.330	0.198
-559.500	379.871	-0.056	-0.114
-558.485	146.372	0.062	0.084
-557.471	403.240	0.114	-0.239
-556.456	-148.228	0.455	-0.038
-555.442	478.881	-0.093	0.211
-554.427	-200.000	-0.053	-0.480
-553.412	800.000	0.040	-0.134
-552.398	-147.696	0.226	-0.019
-551.383	-43.817	-0.204	0.102
-550.369	-46.100	-0.270	0.133
-549.354	36.617	-0.158	-0.140
-548.339	285.607	0.137	-0.247
-547.325	-200.000	-0.065	-0.299
-546.310	347.740	0.083	0.163
-545.296	-200.000	-0.002	-0.106
-544.281	12.559	-0.281	-0.216
-543.266	5.603	0.126	-0.093
-542.252	-119.686	-0.157	0.027
-541.237	-2.947	-0.279	-0.195
-540.223	-106.729	0.353	0.078
-539.208	-200.000	0.006	-0.135
-538.193	506.798	-0.134	-0.309
-537.179	-200.000	-0.008	-0.037
-536.164	-200.000	-0.010	-0.088
-535.150	-91.535	0.314	0.089
-534.135	83.136	-0.221	0.240
-533.121	137.249	0.115	0.150
-532.106	800.000	-0.069	-0.241
-531.091	253.878	-0.119	0.202
-530.077	101.589	-0.050	0.058
-529.062	256.666	0.124	0.213
-528.048	479.165	0.012	0.027
-527.033	147.059	0.061	0.081
-526.018	-38.816	0.184	0.097
-525.004	-120.198	-0.091	-0.016
-523.989	172.022	-0.135	-0.193
-522.975	-200.000	0.000	-0.110
-521.960	-104.535	0.293	-0.067
-520.945	280.475	-0.101	0.180
-519.931	-12.795	-0.229	-0.149
-518.916	-53.890	-0.194	0.088
-517.902	-200.000	-0.057	-0.000
-516.887	-132.115	-0.205	0.027
-515.872	800.000	-0.016	0.053
-514.858	-200.000	0.001	-0.168
-513.843	363.283	-0.073	-0.146
-512.829	-31.740	0.203	-0.114
-511.814	-126.804	-0.088	0.013
-510.799	285.515	-0.023	0.041
-509.785	-200.000	0.011	-0.221
-508.770	-64.806	0.072	0.029
-507.756	14.163	0.380	0.295
-506.741	327.418	0.071	0.136
-505.726	-140.269	-0.287	-0.030
-504.712	29.159	0.153	0.130
-503.697	-200.000	-0.029	-0.167
-502.683	-200.000	0.029	-0.279
-501.668	14.298	0.169	-0.131
-500.653	-200.000	-0.057	0.277
-499.639	640.871	0.077	-0.196
-498.624	-14.642	0.066	0.043
-497.610	28.343	0.144	-0.121
-496.595	20.651	0.113	-0.091
-495.581	-138.927	0.045	0.005
-494.566	4.309	0.177	0.129
-493.551	-135.930	-0.187	0.022
-492.537	800.000	-0.045	0.140
-491.522	55.318	-0.233	-0.224
-490.508	-34.595	0.093	-0.051
-489.493	16.201	0.208	-0.163
-488.478	517.307	0.204	0.475
-487.464	-200.000	0.020	-0.252
-486.449	800.000	0.061	-0.188
-485.435	86.534	-0.098	-0.108
-484.420	175.905	-0.169	0.244
-483.405	-89.933	-0.182	0.053
-482.391	-200.000	0.014	0.097
-481.376	77.292	-0.077	0.082
-480.362	331.428	-0.128	-0.245
-479.347	431.227	0.179	0.386
-478.332	800.000	-0.050	-0.187
-477.318	271.510	0.032	-0.056
-476.303	102.352	0.157	0.183
-475.289	-141.353	0.195	-0.020
-474.274	-21.049	0.197	-0.120
-473.259	367.988	-0.108	-0.218
-472.245	31.909	0.208	0.178
-471.230	-200.000	0.004	0.577
-470.216	-46.640	0.147	-0.072
-469.201	64.821	-0.012	-0.012
-468.186	-11.668	-0.324	-0.212
-467.172	-200.000	-0.005	0.094
-466.157	167.447	0.107	0.152
-465.143	-136.996	0.322	0.037
-464.128	121.435	-0.227	0.281
-463.113	-64.502	0.263	-0.106
-462.099	-52.540	-0.239	-0.110
-461.084	-67.674	-0.185	0.072
-460.070	7.848	0.276	-0.206
-459.055	-64.006	0.156	-0.064
-458.040	430.010	0.137	0.294
-457.026	188.897	-0.079	0.118
-456.011	168.355	-0.087	0.123
-454.997	-61.023	-0.218	-0.092
-453.982	-76.658	-0.267	-0.093
-452.968	-44.759	0.172	0.086
-451.953	-58.298	0.228	0.099
-450.938	-200.000	-0.066	0.412
-449.924	-200.000	-0.028	-0.200
-448.909	800.000	0.024	-0.073
-447.895	-200.000	0.015	-0.347
-446.880	-96.724	-0.327	0.086
-445.865	176.965	0.091	-0.132
-444.851	-200.000	0.068	0.301
-443.836	-161.996	-0.171	0.009
-442.822	-170.685	0.193	-0.007
-441.807	-38.952	0.038	-0.020
-440.792	-72.904	-0.301	-0.110
-439.778	-200.000	-0.031	0.256
-438.763	88.932	-0.133	-0.147
-437.749	-200.000	0.010	-0.211
-436.734	-200.000	-0.057	0.294
-435.719	-137.938	0.373	0.041
-434.705	-89.928	0.324	0.094
-433.690	800.000	-0.048	0.185
-432.676	-35.746	-0.433	-0.233
-431.661	-200.000	0.018	0.149
-430.646	569.902	-0.151	-0.365
-429.632	140.294	-0.197	-0.259
-428.617	-131.208	0.369	-0.049
-427.603	-200.000	-0.005	-0.198
-426.588	205.410	0.134	-0.207
-425.573	-115.470	-0.227	-0.042
-424.559	-135.839	-0.192	-0.023
-423.544	275.527	-0.045	0.078
-422.530	-33.785	-0.275	-0.151
-421.515	-200.000	0.085	-0.440
-420.500	-200.000	-0.015	-0.123
-419.486	376.284	0.133	-0.270
-418.471	94.670	-0.123	-0.139
-417.457	-5.416	0.092	0.063
-416.442	-6.442	-0.169	-0.114
-415.428	-179.938	0.237	0.005
-414.413	-35.839	0.119	-0.064
-413.398	-171.988	0.332	-0.011
-412.384	-96.750	-0.192	0.050
-411.369	-200.000	-0.126	0.000
-410.355	460.696	0.091	0.202
-409.340	287.116	0.180	0.322
-408.325	2.969	-0.365	0.263
-407.311	15.656	-0.150	-0.117
-406.296	218.943	0.076	-0.121
-405.282	-109.365	-0.288	-0.061
-404.267	787.371	-0.020	-0.055
-403.252	-81.180	0.112	-0.037
-402.238	97.449	0.048	0.055
-401.223	140.782	-0.024	0.032
-400.209	-50.565	-0.286	-0.134
-399.194	-200.000	-0.009	-0.080
-398.179	-38.713	0.105	-0.055
-397.165	-200.000	0.008	0.323
-396.150	-200.000	-0.002	0.035
-395.136	17.376	0.162	-0.128
-394.121	-10.227	-0.097	0.064
-393.106	-9.061	-0.328	-0.218
-392.092	-37.043	0.353	-0.188
-391.077	33.311	-0.172	-0.149
-390.063	366.175	0.112	0.224
-389.048	-200.000	-0.014	0.310
-388.033	176.048	0.117	-0.168
-387.019	-6.707	0.201	-0.135
-386.004	-200.000	-0.010	0.046
-384.990	271.232	0.074	0.129
-383.975	235.917	0.159	0.261
-382.960	-176.618	-0.426	-0.011
-381.946	90.933	0.057	-0.063
-380.931	-84.032	-0.249	-0.079
-379.917	-70.957	-0.170	-0.063
-378.902	-200.000	0.048	0.243
-377.888	86.053	0.102	-0.111
-376.873	167.978	0.043	-0.061
-375.858	-156.439	-0.187	0.012
-374.844	-73.636	-0.174	0.063
-373.829	-197.942	0.120	-0.001
-372.815	-33.832	0.099	0.054
-371.800	125.952	-0.033	-0.041
-370.785	65.005	-0.162	-0.162
-369.771	800.000	0.040	0.137
-368.756	650.499	-0.054	-0.138
-367.742	-162.099	0.407	-0.020
-366.727	125.839	-0.222	-0.279
-365.712	-86.393	0.323	-0.099
-364.698	642.757	-0.102	0.257
-363.683	351.966	0.141	0.278
-362.669	55.644	0.203	0.195
-361.654	133.449	-0.192	-0.246
-360.639	-105.392	0.130	-0.029
-359.625	93.139	0.097	0.108
-358.610	54.394	-0.198	0.189
-357.596	-200.000	-0.017	-0.110
-356.581	-54.734	-0.259	-0.116
-355.566	800.000	-0.039	0.127
-354.552	41.530	0.016	0.014
-353.537	90.629	-0.343	-0.380
-352.523	800.000	-0.120	-0.403
-351.508	-5.665	0.381	0.259
-350.493	194.836	0.058	0.087
-349.479	800.000	-0.028	-0.092
-348.464	-90.709	-0.129	-0.037
-347.450	-108.745	0.400	-0.085
-346.435	442.074	0.032	0.069
-345.420	800.000	-0.102	0.286
-344.406	395.044	0.018	-0.038
-343.391	-17.882	0.200	-0.124
-342.377	261.700	-0.059	-0.102
-341.362	15.045	-0.235	-0.182
-340.348	134.616	0.187	-0.240
-339.333	-200.000	0.004	-0.088
-338.318	529.338	-0.059	0.137
-337.304	23.100	0.013	0.011
-336.289	800.000	0.110	0.318
-335.275	-200.000	0.002	0.114
-334.260	336.237	0.114	0.220
-333.245	719.858	-0.028	-0.073
-332.231	-93.932	-0.240	0.065
-331.216	93.100	0.119	0.133
-330.202	-18.183	-0.229	0.142
-329.187	94.369	-0.051	0.057
-328.172	117.189	-0.118	0.144
-327.158	261.864	0.064	0.109
-326.143	-109.583	-0.234	0.049
-325.129	800.000	-0.121	0.439
-324.114	-200.000	-0.012	-0.232
-323.099	-5.775	-0.168	0.114
-322.085	61.834	0.160	0.158
-321.070	479.947	-0.058	0.130
-320.056	-37.849	0.275	-0.145
-319.041	-75.483	-0.131	0.046
-318.026	-143.512	0.049	-0.005
-317.012	109.911	-0.170	0.202
-315.997	286.629	-0.078	0.140
-314.983	357.297	-0.102	-0.202
-313.968	-200.000	0.025	0.399
-312.953	5.167	0.141	-0.103
-311.939	53.466	-0.227	-0.215
-310.924	-200.000	-0.016	-0.123
-309.910	-68.403	0.448	0.172
-308.895	-19.067	0.207	-0.127
-307.880	-55.681	0.083	0.037
-306.866	800.000	-0.096	0.272
-305.851	-1.681	0.277	-0.193
-304.837	131.027	-0.179	0.227
-303.822	-75.962	0.175	0.061
-302.807	-35.854	0.075	0.040
-301.793	80.007	0.136	-0.145
-300.778	41.265	-0.209	0.187
-299.764	334.658	-0.132	0.253
-298.749	262.574	-0.134	-0.230
-297.735	-69.174	-0.272	-0.103
-296.720	736.234	0.047	-0.124
-295.705	800.000	0.050	0.170
-294.691	-200.000	0.011	0.186
-293.676	-130.622	-0.261	-0.035
-292.662	-81.486	0.223	0.073
-291.647	1.377	-0.154	0.110
-290.632	-29.794	0.148	-0.083
-289.618	365.385	0.191	-0.381
-288.603	-200.000	0.001	-0.081
-287.589	4.283	0.156	0.113
-286.574	641.491	0.156	0.392
-285.559	-95.799	-0.079	0.021
-284.545	114.095	0.087	0.104
-283.530	-200.000	-0.045	-0.243
-282.516	-102.644	-0.226	-0.053
-281.501	-200.000	-0.010	0.045
-280.486	24.942	-0.125	-0.102
-279.472	-200.000	0.018	-0.088
-278.457	-155.286	-0.296	0.019
-277.443	-88.749	-0.049	-0.014
-276.428	459.129	-0.039	-0.085
-275.413	-113.131	0.110	0.022
-274.399	149.939	-0.170	-0.228
-273.384	-182.280	-0.162	-0.003
-272.370	154.072	-0.068	0.092
-271.355	108.375	-0.213	-0.251
-270.340	-33.920	0.361	-0.197
-269.326	637.233	0.215	-0.540
-268.311	-200.000	-0.012	0.146
-267.297	-77.551	-0.146	0.050
-266.282	-110.008	-0.295	-0.061
-265.267	-77.693	0.164	0.056
-264.253	-64.103	-0.282	-0.114
-263.238	-200.000	-0.008	-0.139
-262.224	37.742	0.302	-0.265
-261.209	-44.814	0.147	-0.072
-260.195	-162.105	-0.249	0.012
-259.180	-70.227	-0.068	0.026
-258.165	-61.613	0.394	0.163
-257.151	-64.507	0.293	0.117
-256.136	96.870	-0.131	0.148
-255.122	-120.249	-0.414	-0.070
-254.107	59.726	-0.119	-0.116
-253.092	-10.367	0.221	-0.145
-252.078	800.000	-0.105	0.366
-251.063	-29.615	-0.148	-0.083
-250.049	-61.371	-0.348	-0.145
-249.034	-39.548	0.280	-0.145
-248.019	55.632	-0.049	-0.047
-247.005	-68.557	-0.156	-0.060
-245.990	106.382	0.228	-0.267
-244.976	512.574	-0.042	0.097
-243.961	69.496	0.244	0.248
-242.946	-21.947	-0.224	0.134
-241.932	115.867	-0.225	0.272
-240.917	-114.521	-0.322	0.061
-239.903	-20.100	0.145	0.088
-238.888	-200.000	-0.003	-0.037
-237.873	-103.872	0.117	-0.027
-236.859	-43.404	-0.172	0.086
-235.844	-200.000	-0.035	-0.261
-234.830	-34.785	0.389	-0.210
-233.815	-53.717	-0.182	-0.082
-232.800	800.000	-0.072	0.210
-231.786	-82.344	0.225	0.072
-230.771	800.000	0.097	0.267
-229.757	205.482	0.061	0.093
-228.742	793.528	-0.081	0.219
-227.727	-200.000	0.014	-0.330
-226.713	26.413	-0.069	0.057
-225.698	341.235	0.130	0.250
-224.684	800.000	-0.054	0.224
-223.669	1.012	-0.071	0.050
-222.655	-106.343	0.077	-0.017
-221.640	112.485	0.103	0.122
-220.625	-200.000	-0.001	-0.169
-219.611	26.055	0.116	0.095
-218.596	-96.322	0.292	-0.076
-217.582	-148.191	-0.222	-0.018
-216.567	149.987	-0.144	-0.192
-215.552	103.776	-0.097	-0.112
-214.538	-200.000	-0.005	0.304
-213.523	30.049	0.057	-0.048
-212.509	-200.000	0.029	0.319
-211.494	16.601	0.110	-0.086
-210.479	112.104	-0.105	-0.125
-209.465	-176.067	0.372	0.010
-208.450	74.395	-0.129	-0.133
-207.436	-200.000	0.008	0.297
-206.421	-142.405	0.188	0.018
-205.406	18.846	-0.173	0.137
-204.392	-200.000	-0.012	-0.195
-203.377	800.000	0.013	-0.035
-202.363	438.349	0.075	-0.160
-201.348	125.628	-0.142	0.176
-200.333	-105.491	-0.261	0.058
-199.319	800.000	-0.070	0.268
-198.304	800.000	-0.098	0.338
-197.290	5.566	0.055	0.040
-196.275	155.947	-0.120	0.163
-195.260	29.090	-0.351	0.293
-194.246	-175.494	-0.122	0.003
-193.231	130.299	-0.106	-0.134
-192.217	-200.000	-0.029	-0.250
-191.202	-135.889	0.195	-0.023
-190.187	800.000	0.007	-0.025
-189.173	705.631	0.020	-0.052
-188.158	678.493	0.022	0.056
-187.144	31.783	0.054	0.046
-186.129	800.000	0.031	-0.123
-185.114	-200.000	-0.015	0.236
-184.100	-200.000	0.030	0.174
-183.085	-63.706	0.567	0.229
-182.071	800.000	0.115	-0.328
-181.056	-200.000	-0.031	0.148
-180.042	20.911	-0.094	0.075
-179.027	-48.710	0.213	0.101
-178.012	-88.958	0.167	-0.049
-176.998	-88.230	0.260	0.077
-175.983	-5.104	-0.199	0.135
-174.969	33.358	-0.115	-0.098
-173.954	-185.893	-0.417	-0.006
-172.939	401.537	0.112	-0.232
-171.925	178.873	0.149	0.214
-170.910	-138.525	-0.306	0.033
-169.896	-78.711	0.223	0.075
-168.881	800.000	0.068	0.276
-167.866	-200.000	0.040	-0.311
-166.852	800.000	-0.141	-0.503
-165.837	-34.119	0.280	-0.152
-164.823	-49.682	0.061	0.028
-163.808	474.347	-0.078	0.172
-162.793	800.000	-0.085	-0.355
-161.779	54.362	-0.062	0.059
-160.764	800.000	0.108	0.293
-159.750	-77.677	-0.049	-0.017
-158.735	-111.012	-0.009	0.002
-157.720	-61.712	-0.116	-0.048
-156.706	565.259	0.065	0.156
-155.691	-35.755	-0.135	0.072
-154.677	-125.040	-0.200	-0.030
-153.662	202.824	0.020	0.030
-152.647	-174.540	-0.247	-0.007
-151.633	-200.000	-0.055	0.277
-150.618	122.633	0.284	-0.350
-149.604	-86.194	-0.277	-0.084
-148.589	-167.240	0.366	0.015
-147.574	-132.865	0.076	-0.010
-146.560	-200.000	-0.101	-0.710
-145.545	-161.288	-0.256	0.013
-144.531	-179.258	-0.219	0.005
-143.516	-200.000	-0.061	-0.273
-142.502	-200.000	-0.034	0.233
-141.487	-200.000	-0.022	-0.429
-140.472	-39.988	0.117	-0.060
-139.458	690.270	0.173	0.444
-138.443	349.855	-0.048	0.092
-137.429	-55.293	0.268	0.118
-136.414	6.802	0.214	0.157
-135.399	69.295	-0.241	0.243
-134.385	-94.003	-0.110	-0.030
-133.370	-200.000	0.037	-0.357
-132.356	-113.434	0.236	0.045
-131.341	-147.387	0.242	-0.020
-130.326	-16.528	0.049	0.030
-129.312	-200.000	-0.003	0.130
-128.297	-200.000	0.045	0.453
-127.283	366.192	-0.305	0.604
-126.268	127.607	-0.075	0.094
-125.253	217.972	0.109	-0.170
-124.239	-5.356	0.119	0.080
-123.224	193.599	-0.028	-0.042
-122.210	273.501	0.032	-0.056
-121.195	-200.000	-0.013	-0.317
-120.180	-24.668	0.183	0.107
-119.166	-200.000	-0.001	-0.049
-118.151	-94.226	-0.154	-0.041
-117.137	-21.701	-0.240	-0.144
-116.122	-113.753	-0.333	0.064
-115.107	42.542	0.312	0.279
-114.093	304.029	0.039	0.071
-113.078	-145.326	-0.045	0.004
-112.064	25.671	-0.244	-0.200
-111.049	651.520	-0.138	0.347
-110.034	-200.000	-0.024	0.233
-109.020	116.425	-0.117	-0.140
-108.005	-32.369	0.177	-0.097
-106.991	-27.568	-0.082	0.047
-105.976	243.570	0.118	-0.194
-104.962	32.501	0.074	-0.063
-103.947	-96.045	0.330	0.086
-102.932	142.166	0.116	-0.152
-101.918	-200.000	-0.033	-0.151
-100.903	307.553	0.199	-0.363
-99.889	20.611	0.117	-0.093
-98.874	15.266	-0.251	0.193
-97.859	78.862	0.258	-0.271
-96.845	800.000	-0.141	-0.415
-95.830	-105.250	0.104	-0.023
-94.816	-127.190	-0.230	-0.033
-93.801	32.628	-0.194	0.165
-92.786	-21.119	0.233	-0.140
-91.772	153.011	0.208	-0.279
-90.757	-32.386	0.101	-0.055
-89.743	-200.000	-0.014	0.061
-88.728	800.000	0.045	0.193
-87.713	-7.856	-0.221	0.146
-86.699	-22.563	-0.335	-0.199
-85.684	-138.903	0.512	0.055
-84.670	232.905	-0.026	-0.043
-83.655	143.647	0.100	0.130
-82.640	568.390	-0.095	-0.225
-81.626	-148.521	-0.297	0.024
-80.611	142.759	-0.205	-0.267
-79.597	-200.000	0.007	0.294
-78.582	-200.000	-0.007	0.125
-77.567	178.099	0.142	-0.204
-76.553	233.924	0.129	-0.208
-75.538	-63.070	-0.051	0.021
-74.524	-1.783	0.123	0.085
-73.509	-200.000	-0.011	0.110
-72.494	-150.164	0.285	-0.022
-71.480	-59.266	-0.235	0.099
-70.465	-121.774	0.160	-0.026
-69.451	-86.623	-0.211	-0.063
-68.436	332.904	0.100	-0.190
-67.422	-65.270	0.073	0.029
-66.407	75.910	-0.285	0.295
-65.392	-52.199	0.052	-0.024
-64.378	522.146	-0.034	0.079
-63.363	-76.659	-0.154	-0.053
-62.349	280.269	-0.056	0.097
-61.334	-74.099	-1.257	-0.446
-60.319	134.740	0.584	0.743
-59.305	760.545	-0.306	-0.812
-58.290	122.236	0.920	1.125
-57.276	363.101	0.744	1.463
-56.261	-200.000	111.329	640.377
-55.246	532.617	1514.075	3510.850
-54.232	177.916	2690.694	3844.120
-53.217	111.838	2171.395	2568.329
-52.203	39.610	1702.416	1495.162
-51.188	32.299	1520.363	1285.465
-50.173	29.927	1494.704	1247.757
-49.159	52.081	1553.253	1449.557
-48.144	51.856	1568.372	1462.060
-47.130	32.395	1523.611	1288.665
-46.115	29.447	1508.546	1255.843
-45.100	29.170	1505.288	1251.200
-44.086	29.170	1503.719	1249.849
-43.071	29.071	1501.108	1246.956
-42.057	29.071	1499.441	1245.524
-41.042	29.033	1498.302	1244.272
-40.027	29.131	1496.795	1243.633
-39.013	29.174	1494.743	1242.170
-37.998	29.016	1494.365	1240.739
-36.984	29.110	1492.968	1240.160
-35.969	28.998	1491.896	1238.471
-34.954	29.002	1491.044	1237.741
-33.940	29.129	1488.792	1236.676
-32.925	29.122	1487.763	1235.726
-31.911	29.086	1486.703	1234.555
-30.896	29.147	1484.958	1233.464
-29.881	29.260	1483.335	1232.821
-28.867	29.139	1482.558	1231.315
-27.852	29.127	1481.353	1230.187
-26.838	29.198	1479.930	1229.428
-25.823	29.227	1478.012	1227.984
-24.809	29.151	1476.631	1226.278
-23.794	29.202	1475.545	1225.669
-22.779	29.159	1474.186	1224.209
-21.765	29.111	1473.358	1223.150
-20.750	29.259	1471.894	1222.869
-19.736	29.111	1470.617	1220.778
-18.721	29.140	1469.372	1219.890
-17.706	29.109	1468.627	1219.014
-16.692	29.081	1467.727	1218.033
-15.677	29.127	1466.512	1217.280
-14.663	29.172	1465.582	1216.757
-13.648	29.184	1464.905	1216.226
-12.633	29.103	1463.816	1214.742
-11.619	29.073	1462.645	1213.526
-10.604	29.216	1461.751	1213.678
-9.590	29.139	1461.094	1212.575
-8.575	29.132	1460.344	1211.862
-7.560	29.117	1459.509	1211.019
-6.546	29.065	1458.361	1209.674
-5.531	29.108	1457.490	1209.187
-4.517	29.124	1456.191	1208.169
-3.502	29.060	1455.432	1207.071
-2.487	29.097	1454.065	1206.130
-1.473	28.969	1453.808	1205.031
-0.458	29.158	1452.096	1204.804
0.556	29.496	1442.006	1192.585
1.571	26.104	1416.271	1149.637
2.586	22.383	1353.917	1076.217
3.600	20.524	1270.780	999.362
4.615	19.265	1226.274	957.287
5.629	16.515	1170.359	898.958
6.644	9.340	1089.408	801.079
7.659	4.070	1051.419	747.687
8.673	3.343	1045.530	739.943
9.688	3.339	1042.168	737.479
10.702	3.209	1040.952	735.933
11.717	3.279	1038.747	734.644
12.731	5.200	1040.384	744.905
13.746	12.215	1050.271	785.602
14.761	18.602	1058.248	822.213
15.775	20.146	1059.164	830.251
16.790	19.599	1057.633	826.362
17.804	18.582	1055.805	820.002
18.819	17.610	1054.113	813.973
19.834	17.421	1052.309	811.605
20.848	17.210	1051.657	810.027
21.863	17.198	1050.893	809.305
22.877	16.943	1050.159	807.458
23.892	16.575	1049.640	805.235
24.907	16.684	1049.000	805.189
25.921	16.576	1048.283	804.058
26.936	16.593	1047.377	803.372
27.950	16.603	1046.584	802.740
28.965	16.682	1045.222	801.996
29.980	16.665	1044.196	801.060
30.994	16.758	1043.158	800.633
32.009	16.931	1042.011	800.498
33.023	17.040	1041.191	800.310
34.038	16.919	1040.387	799.053
35.053	17.043	1039.611	798.971
36.067	16.776	1038.761	796.988
37.082	16.677	1037.849	795.753
38.096	16.746	1036.972	795.336
39.111	16.836	1036.471	795.304
40.126	16.971	1035.132	794.835
41.140	16.839	1034.294	793.503
42.155	16.523	1033.346	791.228
43.169	16.488	1031.893	789.883
44.184	16.403	1030.908	788.662
45.199	16.374	1029.767	787.583
46.213	16.402	1028.873	786.963
47.228	16.360	1028.033	786.054
48.242	16.610	1027.166	786.483
49.257	16.714	1026.411	786.321
50.271	16.755	1025.162	785.483
51.286	16.793	1024.082	784.762
52.301	16.731	1023.981	784.329
53.315	16.738	1023.282	783.754
54.330	16.647	1022.289	782.506
55.344	16.558	1021.106	781.121
56.359	16.533	1019.570	779.759
57.374	16.487	1018.993	779.037
58.388	16.501	1018.106	778.357
59.403	16.335	1017.571	777.113
60.417	16.484	1016.227	776.701
61.432	16.313	1015.927	775.621
62.447	16.257	1015.213	774.751
63.461	16.219	1014.552	774.000
64.476	16.269	1013.208	773.139
65.490	16.156	1012.418	771.950
66.505	16.259	1011.369	771.552
67.520	16.138	1011.010	770.655
68.534	16.358	1010.103	770.902
69.549	16.368	1009.344	770.298
70.563	16.270	1008.523	769.156
71.578	16.197	1008.016	768.369
72.593	16.218	1006.853	767.512
73.607	16.071	1006.099	766.200
74.622	16.010	1005.101	765.095
75.636	16.147	1003.797	764.655
76.651	16.157	1003.273	764.237
77.666	16.237	1002.328	763.809
78.680	16.173	1001.885	763.116
79.695	16.204	1001.577	762.955
80.709	16.188	1000.353	761.882
81.724	16.344	999.694	762.014
82.739	16.428	999.136	761.900
83.753	16.431	998.392	761.280
84.768	16.593	997.868	761.543
85.782	16.793	996.851	761.599
86.797	16.964	996.582	762.096
87.812	16.798	995.965	760.808
88.826	16.766	994.561	759.525
89.841	16.756	994.197	759.137
90.855	16.721	993.258	758.197
91.870	16.783	992.742	758.013
92.884	17.007	991.659	758.121
93.899	16.894	991.194	757.194
94.914	16.961	990.216	756.674
95.928	16.929	989.788	756.138
96.943	17.044	988.569	755.652
97.957	16.789	988.085	754.082
98.972	16.824	986.902	753.266
99.987	16.807	986.505	752.823
101.001	16.861	985.942	752.564
102.016	16.879	984.982	751.845
103.030	16.860	983.686	750.708
104.045	16.729	983.365	749.816
105.060	16.879	982.088	749.439
106.074	16.821	980.737	748.087
107.089	16.621	980.038	746.605
108.103	16.409	979.076	744.869
109.118	16.389	977.606	743.600
110.133	16.314	977.134	742.844
111.147	16.368	976.193	742.302
112.162	16.314	975.221	741.256
113.176	16.313	974.240	740.440
114.191	16.392	974.071	740.596
115.206	16.492	973.251	740.343
116.220	16.462	972.339	739.454
117.235	16.457	971.402	738.654
118.249	16.335	971.007	737.757
119.264	16.453	969.505	737.061
120.279	16.287	969.367	736.167
121.293	16.421	967.890	735.567
122.308	16.224	967.662	734.471
123.322	16.004	966.963	732.916
124.337	16.085	965.460	732.066
125.352	16.105	964.187	731.120
126.366	16.035	963.159	729.977
127.381	16.135	962.108	729.548
128.395	15.963	961.775	728.487
129.410	16.132	960.225	727.975
130.424	16.187	959.669	727.728
131.439	16.256	958.749	727.264
132.454	16.313	958.081	726.936
133.468	16.369	957.744	726.858
134.483	16.392	956.969	726.304
135.497	16.431	955.769	725.497
136.512	16.422	955.364	725.087
137.527	16.514	954.394	724.679
138.541	16.522	953.686	724.111
139.556	16.510	953.174	723.610
140.570	16.479	952.281	722.735
141.585	16.506	952.019	722.587
142.600	16.754	951.260	723.006
143.614	16.826	950.619	722.761
144.629	16.737	950.000	721.848
145.643	16.929	949.190	721.985
146.658	16.882	948.240	720.998
147.673	16.689	947.314	719.414
148.687	16.673	946.199	718.435
149.702	16.604	945.088	717.232
150.716	16.501	944.280	716.123
151.731	16.470	943.519	715.348
152.746	16.366	943.064	714.503
153.760	16.668	941.565	714.576
154.775	16.462	941.491	713.588
155.789	16.731	940.416	713.846
156.804	16.625	940.062	713.067
157.819	16.686	938.991	712.446
158.833	16.744	938.492	712.249
159.848	16.892	937.885	712.349
160.862	16.972	937.115	712.035
161.877	16.949	936.140	711.137
162.892	16.759	935.645	709.900
163.906	16.544	934.226	707.860
164.921	16.406	933.580	706.731
165.935	16.506	932.713	706.432
166.950	16.533	931.511	705.571
167.964	16.738	930.501	705.597
168.979	16.611	930.289	704.844
169.994	16.484	929.001	703.280
171.008	16.567	927.976	702.785
172.023	16.703	927.022	702.566
173.037	16.713	926.794	702.371
174.052	16.930	926.093	702.679
175.067	16.894	925.101	701.714
176.081	16.685	924.331	700.203
177.096	16.631	923.150	699.024
178.110	16.560	922.278	698.009
179.125	16.474	922.271	697.586
180.140	16.776	920.681	697.564
181.154	16.717	920.318	696.988
182.169	16.687	920.247	696.746
183.183	16.795	919.545	696.598
184.198	16.982	918.508	696.521
185.213	16.911	917.842	695.660
186.227	16.974	917.261	695.418
187.242	17.022	916.813	695.214
188.256	17.078	916.356	695.036
189.271	17.113	915.445	694.424
190.286	17.193	914.771	694.177
191.300	16.939	913.914	692.431
192.315	16.782	912.747	690.844
193.329	16.493	912.090	689.109
194.344	16.433	911.665	688.481
195.359	16.659	911.103	688.918
196.373	16.863	910.824	689.473
197.388	16.847	910.390	689.018
198.402	16.997	909.892	689.191
199.417	17.178	909.270	689.395
200.432	17.232	908.935	689.297
201.446	17.164	909.054	689.053
202.461	17.374	908.485	689.411
203.475	17.321	907.845	688.649
204.490	17.468	907.034	688.567
205.504	17.085	906.270	686.379
206.519	17.125	904.960	685.486
207.534	17.048	904.566	684.818
208.548	17.027	903.697	684.013
209.563	17.048	903.095	683.583
210.577	17.053	902.336	682.967
211.592	17.238	901.442	682.976
212.607	17.389	901.040	683.216
213.621	17.583	900.746	683.711
214.636	17.452	899.813	682.417
215.650	17.349	899.392	681.624
216.665	17.258	898.930	680.850
217.680	17.313	898.934	681.014
218.694	17.484	898.020	680.945
219.709	17.508	897.426	680.529
220.723	17.472	896.835	679.878
221.738	17.533	895.988	679.419
222.753	17.458	895.574	678.746
223.767	17.365	895.154	677.996
224.782	17.478	894.095	677.585
225.796	17.541	893.611	677.409
226.811	17.611	893.003	677.166
227.826	17.572	892.347	676.454
228.840	17.568	891.000	675.356
229.855	17.501	890.634	674.753
230.869	17.362	890.262	673.862
231.884	17.462	889.403	673.549
232.899	17.387	888.523	672.525
233.913	17.470	887.539	672.048
234.928	17.431	886.750	671.237
235.942	17.233	886.500	670.208
236.957	17.297	885.545	669.680
237.972	17.297	884.729	669.003
238.986	17.194	884.698	668.516
240.001	17.423	883.498	668.450
241.015	17.181	883.345	667.322
242.030	17.334	882.436	667.177
243.045	17.491	881.899	667.327
244.059	17.381	881.518	666.549
245.074	17.531	880.631	666.409
246.088	17.529	880.180	665.999
247.103	17.638	879.540	665.881
248.117	17.769	878.866	665.824
249.132	17.800	878.626	665.703
250.147	17.872	878.390	665.746
251.161	18.225	877.255	666.203
252.176	18.086	877.293	665.630
253.190	18.126	876.660	665.249
254.205	18.344	875.636	665.261
255.220	18.323	875.485	665.005
256.234	18.242	874.988	664.255
257.249	18.260	874.110	663.599
258.263	18.307	873.277	663.090
259.278	18.327	872.798	662.745
260.293	18.233	872.635	662.197
261.307	18.335	872.067	662.104
262.322	18.346	871.573	661.713
263.336	18.538	870.576	661.636
264.351	18.379	870.306	660.759
265.366	18.494	869.348	660.418
266.380	18.395	868.895	659.635
267.395	18.409	868.151	659.064
268.409	18.357	867.342	658.190
269.424	18.120	866.576	656.641
270.439	18.247	865.391	656.173
271.453	18.244	865.093	655.879
272.468	18.158	864.353	654.929
273.482	18.136	863.734	654.319
274.497	18.137	863.229	653.880
275.512	18.179	862.612	653.516
276.526	18.179	861.844	652.876
277.541	18.243	861.195	652.572
278.555	18.170	860.959	652.057
279.570	18.372	860.684	652.560
280.585	18.398	860.021	652.101
281.599	18.672	859.167	652.436
282.614	18.570	858.294	651.330
283.628	18.378	857.667	650.068
284.643	18.221	857.565	649.337
285.657	18.266	857.180	649.156
286.672	18.279	856.696	648.782
287.687	18.444	855.763	648.643
288.701	18.325	855.255	647.751
289.716	18.421	854.666	647.611
290.730	18.430	854.067	647.132
291.745	18.485	853.767	647.054
292.760	18.412	852.690	645.906
293.774	18.509	852.322	645.936
294.789	18.590	851.943	645.898
295.803	18.589	851.612	645.585
296.818	18.384	851.249	644.481
297.833	18.480	850.110	643.923
298.847	18.452	849.431	643.247
299.862	18.599	848.411	642.970
300.876	18.476	848.020	642.153
301.891	18.523	847.870	642.161
302.906	18.659	846.817	641.814
303.920	18.828	845.890	641.686
304.935	18.971	845.357	641.758
305.949	19.056	845.240	641.930
306.964	18.930	844.732	641.017
307.979	18.835	843.835	639.928
308.993	18.827	843.163	639.332
310.008	18.875	843.043	639.361
311.022	18.914	842.459	639.009
312.037	18.997	841.694	638.678
313.052	18.787	841.458	637.664
314.066	18.759	840.331	636.650
315.081	18.691	839.557	635.756
316.095	18.420	839.436	634.604
317.110	18.663	838.849	635.004
318.125	18.683	837.921	634.317
319.139	18.507	837.686	633.433
320.154	18.626	837.604	633.756
321.168	18.763	836.505	633.372
322.183	18.721	836.055	632.820
323.197	18.711	835.722	632.477
324.212	18.753	835.178	632.162
325.227	18.779	834.620	631.782
326.241	18.782	834.307	631.498
327.256	18.668	833.810	630.648
328.270	18.750	832.837	630.157
329.285	18.805	832.108	629.752
330.300	18.592	831.770	628.660
331.314	18.527	831.716	628.323
332.329	18.674	830.522	627.904
333.343	18.806	830.050	627.974
334.358	19.038	829.580	628.412
335.373	18.937	829.005	627.551
336.387	19.083	828.261	627.467
337.402	19.096	827.887	627.174
338.416	19.056	827.250	626.492
339.431	19.032	827.254	626.351
340.446	19.290	826.406	626.592
341.460	19.265	825.988	626.128
342.475	19.336	825.559	626.006
343.489	19.448	824.963	625.902
344.504	19.596	824.253	625.846
345.519	19.471	823.966	625.119
346.533	19.597	823.415	625.104
347.548	19.407	823.069	624.096
348.562	19.471	822.261	623.659
349.577	19.250	821.788	622.447
350.592	19.234	820.731	621.536
351.606	19.025	820.603	620.628
352.621	19.036	820.218	620.322
353.635	19.102	819.580	620.024
354.650	19.189	819.320	620.085
355.665	19.245	819.067	620.040
356.679	19.179	818.370	619.220
357.694	19.157	817.994	618.802
358.708	19.305	817.406	618.834
359.723	19.358	816.921	618.604
360.738	19.375	816.113	617.996
361.752	19.317	815.605	617.348
362.767	19.298	815.168	616.897
363.781	19.519	815.077	617.564
364.796	19.636	814.692	617.636
365.810	19.533	814.625	617.160
366.825	19.824	813.971	617.650
367.840	19.897	813.441	617.456
368.854	19.733	813.057	616.524
369.869	19.775	812.505	616.200
370.883	19.589	812.029	615.121
371.898	19.628	811.208	614.585
372.913	19.816	810.612	614.745
373.927	19.882	810.390	614.757
374.942	19.624	810.001	613.494
375.956	19.689	809.184	613.048
376.971	19.854	808.398	612.985
377.986	20.048	807.994	613.311
379.000	19.939	807.471	612.474
380.015	20.044	807.179	612.572
381.029	20.129	806.274	612.130
382.044	20.033	805.478	611.131
383.059	19.994	805.437	610.911
384.073	19.948	805.380	610.648
385.088	20.001	804.451	610.077
386.102	20.030	803.454	609.371
387.117	19.714	802.922	607.801
388.132	19.634	802.811	607.384
389.146	19.711	802.553	607.404
390.161	19.751	802.100	607.147
391.175	19.934	801.793	607.504
392.190	20.086	801.098	607.457
393.205	19.927	800.673	606.523
394.219	19.828	800.567	606.042
395.234	19.713	799.798	605.004
396.248	19.596	799.330	604.188
397.263	19.575	798.499	603.432
398.278	19.536	798.298	603.090
399.292	19.576	797.345	602.456
400.307	19.494	797.716	602.397
401.321	19.685	796.951	602.434
402.336	19.579	796.600	601.746
403.350	19.717	796.122	601.813
404.365	19.634	795.955	601.344
405.380	19.946	795.382	601.941
406.394	20.247	794.736	602.445
407.409	20.250	794.454	602.187
408.423	20.089	794.239	601.414
409.438	20.268	793.248	601.229
410.453	20.155	793.592	601.045
411.467	20.415	793.140	601.553
412.482	20.384	792.500	600.904
413.496	20.541	791.856	600.906
414.511	20.628	791.522	600.901
415.526	20.609	791.223	600.556
416.540	20.457	790.774	599.638
417.555	20.474	790.427	599.378
418.569	20.446	789.824	598.773
419.584	20.399	789.393	598.231
420.599	20.389	789.021	597.862
421.613	161.270	1371.130	1797.373
422.628	139.625	1455.960	1797.452
