DTS Sentinel unit serial number:	SN413079Multiplexer serial number:	ORYXHardware model number:	OX4-SRSoftware version number:	ORYX F/W v4.00 Oryx Data Collector v3.7.2.0data status	okinstallation	princeton_trtdifferential loss correction	single-endedforward channel	channel 3reverse channel	N/Adate	2019/09/12time	07:46:11forward acquisition time	60.00reverse acquisition time	0.00gamma	496.2192k internal	0.2314k external	0.2314temperature offset calibration	1.0033default loss term (dB/km)	0.3790temperature slope calibration	1.0000multiplexer offset coefficient	1.0000multiplexer slope coefficient	1.0000fibre end	0.00T internal ref (°C)	32.81T ext. ref 1 (°C)	1.63T ext. ref 2 (°C)	28.92length (m)	temperature (°C)	Stokes	anti-Stokes-747.200	125.895	0.172	0.220
-746.185	-72.954	-0.303	0.113
-745.171	-87.924	-0.114	-0.035
-744.156	-200.000	-0.006	0.222
-743.142	135.469	-0.043	0.056
-742.127	-200.000	-0.011	0.115
-741.112	-200.000	-0.015	0.308
-740.098	-49.543	-0.357	0.172
-739.083	-64.758	-0.387	0.159
-738.069	61.125	-0.041	0.042
-737.054	22.000	-0.166	-0.137
-736.039	-73.909	-0.092	-0.034
-735.025	9.267	0.128	-0.098
-734.010	-16.668	-0.095	-0.061
-732.996	126.926	-0.285	0.366
-731.981	-86.778	-0.169	-0.052
-730.966	800.000	0.120	-0.415
-729.952	-0.438	0.032	0.023
-728.937	-65.807	0.115	0.047
-727.923	-43.885	-0.089	-0.046
-726.908	137.918	-0.254	-0.337
-725.894	-200.000	-0.020	-0.401
-724.879	529.008	0.184	-0.440
-723.864	-200.000	0.017	-0.215
-722.850	-200.000	0.056	-0.422
-721.835	-137.247	-0.279	0.032
-720.821	278.564	0.067	-0.121
-719.806	-50.948	-0.107	0.051
-718.791	-52.611	-0.017	0.008
-717.777	314.881	0.183	-0.349
-716.762	-57.945	0.178	0.079
-715.748	94.790	-0.121	-0.139
-714.733	-7.617	0.230	0.157
-713.718	743.863	0.092	-0.250
-712.704	-116.045	-0.237	0.045
-711.689	-22.210	0.299	0.183
-710.675	-47.262	0.315	-0.155
-709.660	-26.788	-0.352	-0.208
-708.645	27.061	0.108	0.092
-707.631	800.000	-0.056	-0.166
-706.616	-107.763	0.148	0.033
-705.602	-163.952	-0.208	0.010
-704.587	-68.907	-0.346	-0.135
-703.572	300.514	0.092	0.172
-702.558	508.584	0.025	-0.059
-701.543	31.476	0.300	-0.261
-700.529	-200.000	0.045	-0.226
-699.514	-200.000	-0.005	-0.114
-698.499	-98.683	-0.262	-0.068
-697.485	284.165	0.114	-0.207
-696.470	172.521	0.082	-0.120
-695.456	-45.433	-0.086	0.043
-694.441	800.000	0.073	-0.249
-693.426	263.580	0.104	-0.183
-692.412	31.199	0.221	-0.192
-691.397	605.728	0.039	0.098
-690.383	-200.000	0.047	-0.258
-689.368	-85.697	0.023	-0.007
-688.354	-200.000	0.064	0.335
-687.339	46.087	-0.117	-0.110
-686.324	113.079	0.246	0.302
-685.310	-0.654	0.293	0.210
-684.295	-12.105	-0.200	-0.132
-683.281	7.557	0.114	-0.086
-682.266	670.373	0.101	-0.264
-681.251	595.063	-0.107	-0.268
-680.237	-138.083	0.064	0.007
-679.222	-180.390	0.184	0.004
-678.208	53.577	-0.151	0.146
-677.193	10.296	-0.142	-0.109
-676.178	-121.500	0.207	-0.035
-675.164	-200.000	0.011	-0.370
-674.149	143.233	-0.113	-0.152
-673.135	306.150	0.085	0.160
-672.120	-106.977	0.218	-0.049
-671.105	-116.348	-0.305	-0.057
-670.091	-200.000	-0.043	-0.261
-669.076	-92.896	-0.162	0.046
-668.062	-46.793	0.086	-0.043
-667.047	-25.314	0.049	-0.029
-666.032	-157.681	-0.247	-0.015
-665.018	-70.719	0.206	0.079
-664.003	-200.000	0.010	-0.097
-662.989	-117.178	-0.373	0.069
-661.974	800.000	-0.055	-0.159
-660.959	198.520	-0.163	-0.252
-659.945	800.000	-0.024	-0.097
-658.930	-154.113	-0.078	0.005
-657.916	233.054	0.176	0.292
-656.901	-124.414	-0.551	-0.087
-655.886	169.863	-0.189	-0.273
-654.872	-104.385	-0.286	0.067
-653.857	-22.421	-0.101	0.062
-652.843	648.695	-0.064	-0.166
-651.828	-200.000	0.069	-0.323
-650.814	-200.000	0.004	-0.121
-649.799	-128.209	0.511	-0.074
-648.784	800.000	-0.018	0.079
-647.770	-39.386	0.044	-0.023
-646.755	104.111	0.122	-0.145
-645.741	-200.000	-0.044	0.227
-644.726	-200.000	-0.054	-0.494
-643.711	167.540	-0.243	-0.349
-642.697	116.572	-0.338	-0.418
-641.682	12.978	0.227	0.177
-640.668	-34.727	0.250	0.138
-639.653	16.411	-0.020	0.016
-638.638	283.504	0.137	-0.248
-637.624	118.709	-0.024	-0.030
-636.609	800.000	0.039	0.140
-635.595	800.000	-0.024	-0.099
-634.580	-121.201	0.180	0.030
-633.565	141.100	-0.112	0.149
-632.551	32.201	0.127	0.110
-631.536	-200.000	-0.001	0.189
-630.522	614.491	-0.165	0.417
-629.507	-16.953	0.118	0.075
-628.492	380.702	-0.113	0.235
-627.478	-59.578	0.316	0.137
-626.463	-165.599	0.467	0.020
-625.449	304.673	-0.112	-0.209
-624.434	-200.000	-0.065	0.317
-623.419	275.043	0.212	-0.379
-622.405	281.564	-0.056	-0.101
-621.390	48.880	-0.176	-0.167
-620.376	-97.501	0.260	-0.068
-619.361	-110.145	-0.175	0.037
-618.346	-200.000	0.014	0.387
-617.332	195.206	0.051	0.077
-616.317	5.397	-0.214	0.159
-615.303	-24.386	-0.082	0.050
-614.288	800.000	-0.056	-0.208
-613.273	-200.000	0.025	-0.130
-612.259	529.752	-0.101	-0.241
-611.244	-99.203	-0.305	-0.078
-610.230	-192.707	0.416	-0.004
-609.215	108.695	0.150	0.181
-608.201	-64.714	0.058	0.024
-607.186	-133.466	-0.229	0.029
-606.171	-166.702	0.181	0.008
-605.157	-200.000	-0.017	-0.174
-604.142	-75.650	0.054	-0.019
-603.128	12.637	-0.136	-0.106
-602.113	207.654	-0.100	0.157
-601.098	65.154	0.209	-0.213
-600.084	-200.000	0.020	-0.541
-599.069	-3.523	-0.099	0.069
-598.055	194.326	0.008	0.012
-597.040	-19.900	0.364	-0.226
-596.025	121.835	0.130	-0.164
-595.011	35.926	0.205	0.182
-593.996	111.203	0.053	-0.065
-592.982	-19.681	-0.108	-0.067
-591.967	-200.000	-0.052	-0.415
-590.952	-33.796	0.111	0.062
-589.938	666.493	0.009	0.023
-588.923	506.620	-0.125	0.293
-587.909	800.000	0.052	0.153
-586.894	-200.000	-0.005	0.176
-585.879	7.939	0.102	-0.077
-584.865	-82.749	-0.360	0.117
-583.850	-53.096	0.097	0.045
-582.836	800.000	-0.038	0.108
-581.821	1.921	0.127	-0.093
-580.806	87.230	0.170	0.189
-579.792	800.000	-0.040	-0.170
-578.777	255.811	-0.040	0.069
-577.763	800.000	0.031	0.117
-576.748	-107.506	0.067	0.015
-575.733	174.133	-0.127	-0.184
-574.719	-133.017	-0.249	0.032
-573.704	327.877	-0.128	-0.248
-572.690	-10.753	0.093	0.062
-571.675	-0.739	-0.369	0.263
-570.661	-200.000	-0.010	-0.136
-569.646	-200.000	-0.018	0.487
-568.631	309.445	-0.126	-0.238
-567.617	-78.550	-0.222	0.077
-566.602	111.806	0.088	-0.108
-565.588	4.557	0.257	-0.190
-564.573	399.104	-0.058	0.122
-563.558	191.475	-0.161	0.244
-562.544	8.406	-0.132	0.100
-561.529	-86.224	-0.246	-0.076
-560.515	100.293	0.101	-0.118
-559.500	-199.804	0.089	0.000
-558.485	-107.226	0.159	-0.035
-557.471	800.000	0.112	0.351
-556.456	96.381	-0.232	-0.267
-555.442	-200.000	0.039	-0.506
-554.427	2.377	0.203	-0.148
-553.412	36.318	0.069	-0.061
-552.398	417.361	0.186	-0.400
-551.383	-128.628	0.463	-0.066
-550.369	-82.265	-0.246	-0.081
-549.354	195.972	-0.078	-0.119
-548.339	-27.390	-0.327	-0.191
-547.325	43.765	0.290	0.267
-546.310	-200.000	-0.053	-0.324
-545.296	260.504	-0.129	-0.225
-544.281	53.919	-0.108	0.105
-543.266	210.077	-0.118	0.186
-542.252	196.531	-0.041	0.063
-541.237	201.476	0.132	0.204
-540.223	-105.994	-0.169	-0.038
-539.208	-200.000	-0.026	0.171
-538.193	266.481	0.050	-0.088
-537.179	-200.000	-0.060	0.309
-536.164	544.228	-0.107	0.256
-535.150	727.220	0.111	0.297
-534.135	149.999	0.173	-0.236
-533.121	-155.899	0.243	-0.016
-532.106	380.415	-0.107	-0.221
-531.091	-10.141	0.343	-0.229
-530.077	53.961	0.121	-0.117
-529.062	-136.312	-0.168	-0.020
-528.048	-150.753	-0.089	0.007
-527.033	96.688	0.122	0.140
-526.018	-200.000	-0.008	-0.221
-525.004	249.363	-0.144	0.246
-523.989	-73.283	-0.021	0.008
-522.975	-200.000	-0.029	-0.309
-521.960	-200.000	-0.061	-0.381
-520.945	151.201	-0.040	-0.055
-519.931	270.574	0.063	-0.112
-518.916	-74.038	0.317	-0.116
-517.902	-95.303	-0.224	-0.061
-516.887	335.302	0.151	-0.294
-515.872	-149.679	0.191	0.015
-514.858	-13.568	0.134	0.088
-513.843	-200.000	-0.064	-0.315
-512.829	127.761	0.030	0.039
-511.814	-86.673	-0.155	0.048
-510.799	-23.672	0.206	0.124
-509.785	176.553	-0.177	-0.258
-508.770	44.520	-0.089	0.082
-507.756	-143.037	0.119	-0.012
-506.741	124.632	-0.084	-0.106
-505.726	5.987	0.234	-0.174
-504.712	800.000	0.051	-0.142
-503.697	-34.676	-0.077	-0.042
-502.683	-82.038	-0.047	0.015
-501.668	800.000	0.092	-0.394
-500.653	800.000	-0.079	-0.233
-499.639	35.175	-0.236	-0.208
-498.624	-200.000	0.004	-0.194
-497.610	-35.877	0.271	-0.147
-496.595	68.385	-0.246	-0.253
-495.581	38.361	-0.478	0.427
-494.566	-200.000	0.013	-0.160
-493.551	-5.775	0.136	0.094
-492.537	-200.000	-0.019	-0.095
-491.522	-200.000	-0.017	-0.146
-490.508	-154.914	0.354	-0.023
-489.493	652.018	0.049	0.126
-488.478	800.000	0.059	-0.250
-487.464	-12.935	0.287	-0.188
-486.449	-105.269	0.038	0.009
-485.435	-200.000	0.003	-0.113
-484.420	800.000	-0.027	-0.090
-483.405	243.146	0.121	-0.203
-482.391	54.922	0.259	0.251
-481.376	61.438	0.049	0.049
-480.362	111.473	-0.137	0.166
-479.347	135.379	-0.236	0.308
-478.332	18.388	-0.217	-0.174
-477.318	-82.003	0.284	0.093
-476.303	-200.000	-0.178	-0.001
-475.289	-87.998	0.360	0.108
-474.274	111.686	-0.131	-0.158
-473.259	48.542	0.162	0.152
-472.245	-151.519	-0.315	-0.023
-471.230	565.878	0.049	0.119
-470.216	105.733	0.092	-0.109
-469.201	125.193	0.193	0.243
-468.186	800.000	0.115	0.348
-467.172	-130.401	-0.359	-0.049
-466.157	800.000	-0.035	-0.129
-465.143	-45.986	-0.194	0.096
-464.128	-58.095	0.080	-0.035
-463.113	-151.244	0.037	0.003
-462.099	75.132	0.124	0.131
-461.084	-200.000	0.020	-0.134
-460.070	-200.000	-0.067	-0.309
-459.055	6.754	-0.135	0.101
-458.040	-33.920	0.049	-0.027
-457.026	-200.000	0.009	0.043
-456.011	143.486	0.161	0.215
-454.997	258.712	-0.143	0.247
-453.982	1.259	-0.163	0.117
-452.968	-131.223	-0.556	0.074
-451.953	-81.726	0.376	0.124
-450.938	299.449	0.131	0.242
-449.924	-13.459	-0.294	0.191
-448.909	-150.912	-0.436	0.033
-447.895	62.541	-0.222	0.222
-446.880	189.162	0.164	0.245
-445.865	-40.007	0.119	-0.062
-444.851	329.666	0.054	0.104
-443.836	57.106	-0.227	0.222
-442.822	800.000	-0.028	-0.100
-441.807	-200.000	-0.035	0.346
-440.792	-98.439	0.441	0.113
-439.778	-75.641	0.306	-0.109
-438.763	444.992	-0.097	-0.214
-437.749	-39.700	0.250	0.131
-436.734	-14.207	-0.182	0.117
-435.719	-144.922	0.037	-0.003
-434.705	46.829	0.200	-0.186
-433.690	-200.000	-0.002	0.115
-432.676	-71.441	-0.316	-0.118
-431.661	-68.222	0.241	-0.094
-430.646	800.000	0.026	0.074
-429.632	85.462	-0.242	-0.266
-428.617	66.234	0.165	-0.167
-427.603	416.260	-0.103	-0.220
-426.588	19.014	0.148	-0.119
-425.573	-81.082	0.059	0.020
-424.559	-200.000	-0.007	0.047
-423.544	-105.739	0.312	-0.071
-422.530	-192.046	0.290	0.003
-421.515	-158.580	0.152	0.009
-420.500	-200.000	-0.013	0.112
-419.486	221.523	-0.124	-0.199
-418.471	34.588	0.048	-0.042
-417.457	-200.000	-0.021	-0.193
-416.442	44.263	-0.050	0.046
-415.428	-105.096	-0.087	-0.020
-414.413	-50.968	-0.213	0.100
-413.398	23.841	0.109	0.090
-412.384	-200.000	0.006	0.083
-411.369	-111.927	-0.278	0.056
-410.355	468.408	-0.095	0.212
-409.340	-200.000	-0.015	-0.206
-408.325	-33.487	0.088	0.049
-407.311	117.528	-0.132	0.162
-406.296	262.613	0.161	-0.280
-405.282	99.279	-0.165	-0.190
-404.267	-60.500	-0.280	-0.119
-403.252	-200.000	-0.023	0.226
-402.238	427.745	0.078	0.168
-401.223	-81.396	0.216	-0.071
-400.209	-79.719	0.257	-0.086
-399.194	-15.138	-0.352	0.225
-398.179	-157.628	0.306	-0.018
-397.165	267.220	0.046	-0.081
-396.150	21.188	0.212	-0.172
-395.136	529.661	0.039	0.093
-394.121	-200.000	0.034	0.152
-393.106	-18.320	-0.104	0.065
-392.092	-117.753	-0.100	0.018
-391.077	532.621	-0.117	-0.276
-390.063	-37.601	-0.132	0.070
-389.048	119.205	0.165	-0.204
-388.033	-200.000	0.040	-0.326
-387.019	9.807	0.075	-0.057
-386.004	-200.000	-0.061	0.324
-384.990	365.778	-0.077	0.156
-383.975	-200.000	0.017	-0.334
-382.960	-126.709	0.216	0.032
-381.946	-200.000	-0.005	0.038
-380.931	-198.163	0.277	-0.002
-379.917	-140.237	-0.319	-0.033
-378.902	318.056	-0.210	0.397
-377.888	-93.612	-0.047	0.013
-376.873	477.953	0.077	-0.174
-375.858	31.111	0.237	0.203
-374.844	10.276	-0.256	-0.195
-373.829	-200.000	-0.073	0.407
-372.815	106.236	0.227	0.268
-371.800	91.051	-0.077	0.086
-370.785	-112.697	-0.241	0.048
-369.771	42.673	0.239	0.217
-368.756	121.484	-0.231	0.287
-367.742	-52.941	-0.195	-0.090
-366.727	-200.000	0.048	0.255
-365.712	94.763	-0.187	0.213
-364.698	-107.469	0.176	0.039
-363.683	101.193	-0.187	0.217
-362.669	-38.716	-0.145	0.077
-361.654	65.329	0.047	0.048
-360.639	-19.075	-0.097	0.060
-359.625	514.358	0.143	0.333
-358.610	588.243	0.057	0.140
-357.596	706.590	-0.028	-0.074
-356.581	800.000	0.051	0.154
-355.566	452.422	-0.153	0.338
-354.552	-200.000	-0.002	-0.125
-353.537	-86.809	0.160	-0.049
-352.523	78.661	0.124	0.132
-351.508	-102.388	-0.323	-0.077
-350.493	-99.263	-0.064	-0.016
-349.479	-100.781	0.125	0.031
-348.464	-200.000	-0.028	0.267
-347.450	307.819	0.087	0.162
-346.435	-107.056	0.081	-0.018
-345.420	-200.000	0.002	-0.098
-344.406	94.385	-0.086	-0.098
-343.391	94.794	-0.043	-0.048
-342.377	-23.023	0.283	-0.170
-341.362	-200.000	0.006	-0.074
-340.348	42.092	-0.158	-0.143
-339.333	-121.296	0.077	0.013
-338.318	6.577	0.155	0.115
-337.304	-200.000	0.058	-0.274
-336.289	32.837	0.127	-0.110
-335.275	-50.708	0.392	-0.184
-334.260	800.000	0.054	0.168
-333.245	-131.720	0.232	0.030
-332.231	-71.894	0.123	-0.046
-331.216	730.152	-0.100	-0.265
-330.202	30.573	-0.229	-0.196
-329.187	800.000	-0.119	-0.440
-328.172	-0.937	0.096	-0.068
-327.158	-39.828	-0.194	-0.101
-326.143	-200.000	0.006	-0.105
-325.129	-200.000	0.017	0.075
-324.114	0.579	0.521	-0.372
-323.099	800.000	-0.047	0.199
-322.085	60.747	-0.068	-0.067
-321.070	800.000	0.046	0.131
-320.056	-141.390	0.092	-0.009
-319.041	132.386	0.327	0.420
-318.026	-200.000	-0.060	0.325
-317.012	-137.258	0.100	-0.011
-315.997	514.553	0.033	0.078
-314.983	271.244	0.145	0.254
-313.968	-32.703	-0.178	-0.098
-312.953	-200.000	0.046	-0.245
-311.939	-46.263	-0.446	0.219
-310.924	-71.128	-0.419	0.157
-309.910	169.123	-0.212	0.301
-308.895	-200.000	-0.025	-0.148
-307.880	-4.175	0.152	0.105
-306.866	800.000	-0.056	0.166
-305.851	-200.000	-0.052	-0.302
-304.837	229.553	-0.036	-0.059
-303.822	-200.000	0.009	-0.249
-302.807	327.265	0.040	-0.076
-301.793	643.452	-0.012	0.031
-300.778	-73.413	0.251	-0.092
-299.764	33.203	-0.122	0.106
-298.749	385.110	0.076	0.156
-297.735	62.299	-0.290	0.288
-296.720	4.893	0.131	-0.096
-295.705	233.132	0.088	-0.144
-294.691	-61.169	0.275	-0.115
-293.676	153.498	-0.097	0.133
-292.662	-75.464	0.133	0.047
-291.647	-118.479	-0.097	-0.017
-290.632	379.358	-0.031	0.063
-289.618	-122.557	-0.080	0.013
-288.603	199.379	-0.168	-0.257
-287.589	-30.285	-0.234	0.132
-286.574	22.742	-0.107	0.087
-285.559	1.870	0.307	0.220
-284.545	800.000	0.067	-0.231
-283.530	15.397	-0.165	0.129
-282.516	800.000	0.066	-0.224
-281.501	800.000	0.076	-0.275
-280.486	-200.000	-0.059	-0.342
-279.472	-81.495	-0.400	-0.131
-278.457	81.206	-0.151	0.163
-277.443	-8.874	-0.082	0.055
-276.428	-51.842	-0.273	0.127
-275.413	-39.134	-0.226	0.118
-274.399	-200.000	-0.007	0.135
-273.384	-128.120	0.165	0.023
-272.370	800.000	0.163	0.575
-271.355	-200.000	0.027	0.349
-270.340	-7.914	-0.273	0.183
-269.326	135.847	-0.392	0.509
-268.311	-35.417	-0.145	0.078
-267.297	163.542	0.052	-0.073
-266.282	-83.171	0.041	0.013
-265.267	-51.971	-0.255	-0.118
-264.253	277.491	0.087	-0.153
-263.238	-200.000	0.029	0.458
-262.224	-112.404	0.173	0.034
-261.209	548.436	-0.128	0.305
-260.195	32.556	-0.189	-0.163
-259.180	-200.000	-0.028	-0.282
-258.165	800.000	-0.121	0.476
-257.151	-50.801	0.098	0.046
-256.136	96.219	0.151	0.171
-255.122	-168.047	-0.187	0.007
-254.107	0.747	-0.135	0.096
-253.092	84.240	0.173	0.188
-252.078	800.000	0.079	-0.286
-251.063	107.641	-0.228	-0.269
-250.049	-200.000	-0.003	-0.072
-249.034	-29.149	-0.383	-0.218
-248.019	-95.447	-0.191	-0.051
-247.005	800.000	0.127	-0.452
-245.990	160.145	-0.123	0.170
-244.976	196.280	0.126	-0.191
-243.961	79.999	0.066	-0.070
-242.946	-83.309	-0.049	0.016
-241.932	305.686	0.081	0.150
-240.917	4.487	-0.138	-0.101
-239.903	83.689	-0.197	-0.214
-238.888	-200.000	-0.011	0.051
-237.873	-11.878	-0.199	0.130
-236.859	-200.000	0.017	0.277
-235.844	145.297	-0.056	0.074
-234.830	-79.297	-0.267	0.090
-233.815	607.872	-0.127	-0.315
-232.800	-200.000	0.026	-0.116
-231.786	-20.235	-0.194	0.119
-230.771	-45.061	0.086	0.042
-229.757	115.088	-0.105	0.127
-228.742	201.187	0.247	0.378
-227.727	-82.416	-0.101	0.033
-226.713	-51.342	-0.135	0.063
-225.698	85.778	-0.090	-0.098
-224.684	193.131	0.040	-0.060
-223.669	197.343	-0.086	-0.130
-222.655	128.243	-0.026	0.032
-221.640	229.793	-0.087	0.141
-220.625	-8.129	0.119	0.080
-219.611	-101.810	0.312	-0.075
-218.596	56.743	-0.180	-0.174
-217.582	-39.978	-0.142	0.073
-216.567	363.088	0.120	-0.240
-215.552	285.810	0.064	-0.114
-214.538	-143.276	-0.303	0.029
-213.523	-159.933	0.275	0.015
-212.509	-120.955	0.298	-0.050
-211.494	-48.163	0.295	-0.141
-210.479	-111.263	0.284	0.058
-209.465	-42.915	0.244	0.123
-208.450	-200.000	-0.009	-0.192
-207.436	-78.260	0.051	-0.017
-206.421	63.668	0.163	0.162
-205.406	691.684	0.122	0.316
-204.392	800.000	0.039	-0.142
-203.377	262.062	0.151	-0.260
-202.363	653.389	0.065	-0.164
-201.348	192.016	-0.104	0.156
-200.333	51.148	-0.135	-0.127
-199.319	531.443	-0.024	0.055
-198.304	46.423	0.083	0.076
-197.290	-105.472	0.193	0.044
-196.275	392.124	-0.030	0.062
-195.260	246.049	0.216	0.361
-194.246	-53.306	-0.234	-0.106
-193.231	800.000	-0.032	-0.133
-192.217	703.247	0.128	-0.335
-191.202	271.902	0.126	-0.220
-190.187	-122.769	-0.105	0.017
-189.173	-63.407	0.072	-0.029
-188.158	49.567	-0.133	-0.124
-187.144	-200.000	-0.007	-0.239
-186.129	800.000	-0.059	0.185
-185.114	800.000	0.057	0.245
-184.100	-200.000	0.029	-0.163
-183.085	-126.394	-0.367	0.054
-182.071	47.742	0.165	0.152
-181.056	788.331	-0.050	-0.135
-180.042	-200.000	-0.039	0.199
-179.027	238.622	0.098	-0.161
-178.012	-200.000	-0.011	-0.300
-176.998	800.000	-0.085	-0.281
-175.983	459.783	-0.121	0.266
-174.969	-160.358	-0.195	-0.010
-173.954	800.000	-0.044	-0.178
-172.939	400.700	0.129	0.269
-171.925	-24.562	0.247	0.145
-170.910	289.586	0.146	-0.263
-169.896	-58.930	-0.178	-0.076
-168.881	-114.052	0.156	0.030
-167.866	-13.756	-0.158	-0.101
-166.852	69.441	0.178	0.182
-165.837	-200.000	0.061	-0.411
-164.823	296.636	-0.088	0.159
-163.808	58.909	0.027	0.026
-162.793	93.021	-0.185	0.207
-161.779	-35.420	0.116	-0.063
-160.764	43.336	0.151	-0.136
-159.750	-200.000	-0.008	0.155
-158.735	-24.697	-0.282	0.166
-157.720	-200.000	0.019	0.250
-156.706	800.000	0.048	0.205
-155.691	800.000	0.054	-0.179
-154.677	151.007	0.103	0.139
-153.662	800.000	-0.035	-0.124
-152.647	800.000	-0.011	0.045
-151.633	-99.743	-0.160	0.040
-150.618	-200.000	-0.058	0.261
-149.604	41.390	-0.146	-0.131
-148.589	-34.756	0.149	0.081
-147.574	391.267	-0.186	-0.383
-146.560	-200.000	-0.082	-0.427
-145.545	-144.966	-0.308	-0.028
-144.531	-200.000	-0.018	-0.137
-143.516	-27.405	0.229	0.132
-142.502	21.884	0.136	-0.110
-141.487	164.706	0.104	0.145
-140.472	-200.000	0.010	0.069
-139.458	170.143	-0.052	0.074
-138.443	100.027	-0.172	-0.197
-137.429	-200.000	-0.060	0.501
-136.414	-200.000	-0.007	0.113
-135.399	-140.033	-0.142	0.015
-134.385	226.796	0.012	0.020
-133.370	-200.000	-0.006	-0.179
-132.356	-24.950	-0.060	0.035
-131.341	800.000	-0.077	-0.213
-130.326	-97.571	0.594	-0.153
-129.312	-200.000	-0.050	0.248
-128.297	-121.550	0.429	-0.070
-127.283	-134.755	0.286	0.034
-126.268	605.494	-0.006	0.015
-125.253	-131.203	0.088	0.012
-124.239	-200.000	-0.034	-0.241
-123.224	323.776	0.191	-0.360
-122.210	253.305	-0.027	0.045
-121.195	-200.000	-0.018	0.191
-120.180	-127.973	0.421	-0.060
-119.166	201.437	0.218	-0.332
-118.151	-137.516	0.414	-0.046
-117.137	119.546	-0.317	0.388
-116.122	-63.205	-0.104	-0.042
-115.107	-200.000	0.113	-0.000
-114.093	-200.000	0.037	-0.194
-113.078	155.455	0.073	0.099
-112.064	32.524	-0.349	-0.298
-111.049	-80.691	0.054	-0.018
-110.034	-200.000	0.019	0.106
-109.020	68.462	-0.280	0.284
-108.005	-25.499	-0.128	-0.075
-106.991	540.076	0.075	0.175
-105.976	-200.000	0.057	0.257
-104.962	230.706	0.137	0.222
-103.947	-200.000	-0.022	-0.171
-102.932	493.116	-0.044	0.099
-101.918	123.997	0.078	-0.097
-100.903	613.645	0.108	0.267
-99.889	-35.968	-0.347	0.185
-98.874	-152.467	0.115	-0.008
-97.859	-200.000	0.009	0.232
-96.845	-90.275	0.108	-0.031
-95.830	-105.313	-0.171	-0.039
-94.816	137.094	-0.217	0.281
-93.801	280.286	0.191	-0.337
-92.786	111.237	-0.120	0.142
-91.772	-130.452	0.120	0.016
-90.757	35.544	0.096	0.083
-89.743	-76.623	-0.277	0.096
-88.728	-86.444	0.245	-0.074
-87.713	-200.000	0.028	0.138
-86.699	-140.327	-0.280	0.029
-85.684	111.238	-0.164	-0.195
-84.670	339.833	-0.112	0.215
-83.655	-200.000	0.027	0.295
-82.640	-35.933	0.357	-0.191
-81.626	800.000	-0.073	0.274
-80.611	-97.462	-0.444	-0.114
-79.597	800.000	-0.063	-0.199
-78.582	262.869	-0.083	-0.142
-77.567	351.937	-0.100	-0.196
-76.553	-189.720	0.616	-0.007
-75.538	800.000	0.055	-0.196
-74.524	-74.635	0.413	-0.147
-73.509	800.000	-0.092	0.282
-72.494	-200.000	0.001	0.097
-71.480	800.000	0.079	0.283
-70.465	800.000	-0.049	-0.142
-69.451	800.000	0.013	0.037
-68.436	-63.559	-0.365	0.148
-67.422	-110.351	-0.407	0.084
-66.407	-200.000	-0.019	-0.250
-65.392	-200.000	-0.001	-0.265
-64.378	17.152	0.171	0.134
-63.363	149.057	0.192	0.257
-62.349	200.703	0.169	0.257
-61.334	517.447	-0.473	-1.093
-60.319	-20.812	0.450	0.272
-59.305	350.699	-0.380	-0.742
-58.290	301.825	0.535	0.976
-57.276	800.000	0.563	1.590
-56.261	-200.000	97.366	596.777
-55.246	546.544	1404.290	3314.023
-54.232	153.497	2591.302	3501.024
-53.217	111.596	2182.763	2598.103
-52.203	43.282	1720.212	1549.851
-51.188	35.950	1532.764	1330.491
-50.173	33.571	1506.127	1291.139
-49.159	53.385	1555.053	1470.528
-48.144	55.034	1572.753	1498.610
-47.130	36.209	1531.548	1331.014
-46.115	33.066	1517.178	1296.942
-45.100	32.874	1514.188	1293.019
-44.086	32.891	1512.240	1291.423
-43.071	32.876	1509.782	1289.166
-42.057	32.784	1508.239	1287.170
-41.042	32.791	1507.103	1286.203
-40.027	32.867	1505.592	1285.376
-39.013	32.827	1504.182	1283.851
-37.998	32.807	1503.108	1282.744
-36.984	32.764	1502.061	1281.507
-35.969	32.843	1500.532	1280.692
-34.954	32.764	1499.031	1278.823
-33.940	32.805	1497.750	1277.960
-32.925	32.915	1496.253	1277.373
-31.911	32.885	1495.015	1276.063
-30.896	32.930	1493.472	1274.997
-29.881	32.894	1492.025	1273.472
-28.867	32.794	1490.945	1271.821
-27.852	32.881	1488.836	1270.561
-26.838	32.858	1487.888	1269.546
-25.823	32.791	1486.356	1267.738
-24.809	32.835	1484.942	1266.776
-23.794	32.980	1482.983	1266.027
-22.779	32.885	1481.777	1264.311
-21.765	32.801	1480.965	1263.006
-20.750	32.833	1479.555	1261.965
-19.736	32.911	1478.628	1261.647
-18.721	32.807	1477.951	1260.324
-17.706	32.784	1477.012	1259.322
-16.692	32.791	1475.614	1258.127
-15.677	32.901	1474.525	1257.880
-14.663	32.853	1473.211	1256.391
-13.648	32.739	1473.202	1255.575
-12.633	32.732	1471.921	1254.386
-11.619	32.739	1470.955	1253.560
-10.604	32.744	1470.527	1253.176
-9.590	32.726	1469.552	1252.179
-8.575	32.733	1468.337	1251.138
-7.560	32.747	1467.488	1250.460
-6.546	32.822	1467.106	1250.579
-5.531	32.732	1465.929	1248.933
-4.517	32.763	1464.721	1248.059
-3.502	32.748	1463.589	1246.944
-2.487	32.698	1463.184	1246.218
-1.473	32.727	1461.753	1245.144
-0.458	32.764	1460.384	1244.173
0.556	32.715	1451.145	1233.725
1.571	30.073	1426.423	1195.577
2.586	26.860	1369.219	1127.597
3.600	25.345	1289.256	1052.776
4.615	24.001	1242.223	1006.682
5.629	20.082	1183.819	938.096
6.644	10.237	1096.112	818.926
7.659	2.789	1054.289	751.252
8.673	1.898	1048.464	742.697
9.688	1.705	1045.227	739.399
10.702	1.508	1044.010	737.521
11.717	1.430	1041.883	735.571
12.731	4.441	1045.359	752.572
13.746	14.263	1059.153	810.460
14.761	22.469	1070.346	859.158
15.775	24.768	1072.149	871.747
16.790	25.143	1071.955	873.338
17.804	24.862	1070.872	871.014
18.819	24.723	1070.516	869.971
19.834	24.844	1069.517	869.672
20.848	24.900	1069.489	869.843
21.863	25.119	1068.873	870.326
22.877	25.070	1068.678	869.856
23.892	24.992	1068.120	868.944
24.907	24.991	1067.048	867.992
25.921	24.954	1066.210	867.055
26.936	25.040	1065.397	866.729
27.950	25.003	1064.503	865.749
28.965	24.993	1062.959	864.366
29.980	24.913	1061.794	862.959
30.994	24.745	1060.513	861.034
32.009	24.946	1060.185	861.657
33.023	25.133	1059.266	861.733
34.038	24.985	1058.097	859.993
35.053	24.929	1057.177	858.900
36.067	24.926	1056.982	858.655
37.082	25.006	1055.703	857.921
38.096	25.031	1055.376	857.699
39.111	25.243	1054.793	858.166
40.126	25.377	1053.919	858.018
41.140	25.171	1052.644	855.920
42.155	25.006	1051.239	853.917
43.169	24.594	1050.186	851.021
44.184	24.660	1048.833	850.166
45.199	24.578	1048.351	849.311
46.213	24.596	1046.794	848.057
47.228	24.502	1046.303	847.141
48.242	24.612	1045.765	847.151
49.257	24.818	1044.913	847.360
50.271	24.896	1044.305	847.161
51.286	25.135	1043.283	847.388
52.301	25.175	1042.409	846.790
53.315	25.115	1042.063	846.151
54.330	25.149	1041.387	845.687
55.344	24.903	1040.684	843.883
56.359	25.018	1039.757	843.598
57.374	24.978	1039.395	843.040
58.388	24.791	1038.119	841.054
59.403	24.738	1037.220	840.002
60.417	24.818	1036.541	839.753
61.432	24.586	1036.175	838.293
62.447	24.561	1035.197	837.312
63.461	24.761	1034.792	837.845
64.476	24.729	1033.909	836.907
65.490	24.771	1032.993	836.291
66.505	24.603	1032.443	834.983
67.520	24.549	1031.741	834.093
68.534	24.782	1030.386	834.006
69.549	24.545	1029.699	832.273
70.563	24.233	1028.352	829.661
71.578	24.132	1027.502	828.429
72.593	24.229	1026.451	827.960
73.607	24.048	1025.491	826.271
74.622	24.206	1024.188	825.882
75.636	24.321	1024.268	826.406
76.651	24.580	1023.261	826.720
77.666	24.407	1022.510	825.241
78.680	24.415	1021.464	824.358
79.695	24.386	1021.058	823.826
80.709	24.521	1020.251	823.726
81.724	24.512	1019.757	823.213
82.739	24.641	1018.371	822.614
83.753	24.572	1017.999	821.923
84.768	24.820	1017.641	822.699
85.782	25.154	1016.913	823.575
86.797	25.347	1016.513	824.065
87.812	25.350	1015.268	822.996
88.826	25.131	1014.351	821.176
89.841	25.278	1012.663	820.406
90.855	25.201	1012.706	820.017
91.870	25.344	1011.701	819.784
92.884	25.122	1011.660	818.667
93.899	25.201	1010.320	817.868
94.914	25.110	1009.143	816.429
95.928	25.223	1008.562	816.400
96.943	25.277	1007.528	815.739
97.957	24.777	1006.804	812.809
98.972	24.744	1005.149	811.250
99.987	24.497	1004.288	809.366
101.001	24.554	1003.840	809.191
102.016	24.898	1003.643	810.519
103.030	25.039	1002.462	810.132
104.045	25.028	1000.778	808.648
105.060	24.727	1000.344	806.866
106.074	24.599	999.316	805.388
107.089	24.638	998.521	804.854
108.103	24.963	998.304	806.069
109.118	24.979	997.712	805.592
110.133	24.760	996.193	803.310
111.147	24.581	995.118	801.570
112.162	24.619	993.582	800.432
113.176	24.421	992.773	798.823
114.191	24.486	992.557	798.870
115.206	24.591	991.854	798.703
116.220	24.289	990.373	796.094
117.235	24.177	989.466	794.792
118.249	24.470	988.783	795.481
119.264	24.489	987.563	794.513
120.279	24.349	986.918	793.299
121.293	24.265	986.827	792.784
122.308	24.335	985.583	792.024
123.322	24.461	984.698	791.802
124.337	24.390	983.973	790.836
125.352	24.178	982.981	789.027
126.366	23.650	981.470	785.409
127.381	23.550	979.657	783.448
128.395	24.131	979.362	785.707
129.410	24.739	979.390	788.340
130.424	24.845	978.439	787.975
131.439	24.977	977.481	787.711
132.454	24.851	976.530	786.325
133.468	24.745	976.534	785.792
134.483	24.825	975.026	784.859
135.497	24.926	974.400	784.730
136.512	25.170	974.071	785.464
137.527	25.197	973.119	784.743
138.541	25.206	972.525	784.234
139.556	25.021	972.076	782.994
140.570	25.114	970.875	782.364
141.585	25.210	969.823	781.866
142.600	25.272	969.496	781.804
143.614	25.096	968.876	780.468
144.629	25.239	967.612	780.003
145.643	25.407	967.366	780.462
146.658	25.467	965.700	779.311
147.673	25.049	965.199	777.025
148.687	25.021	963.962	775.842
149.702	25.022	962.894	774.917
150.716	24.944	962.075	773.851
151.731	24.832	960.756	772.238
152.746	25.073	960.162	772.732
153.760	25.237	959.913	773.168
154.775	25.195	959.503	772.592
155.789	25.418	958.177	772.413
156.804	25.329	957.249	771.215
157.819	25.301	956.180	770.164
158.833	25.346	955.203	769.505
159.848	25.531	954.500	769.659
160.862	25.561	953.591	768.990
161.877	25.249	953.407	767.439
162.892	25.138	952.452	766.128
163.906	25.260	951.182	765.559
164.921	25.254	950.290	764.745
165.935	25.245	949.166	763.736
166.950	25.245	948.211	762.901
167.964	25.319	946.988	762.165
168.979	25.178	946.650	761.226
169.994	25.149	945.597	760.190
171.008	25.125	944.075	758.798
172.023	25.190	943.599	758.621
173.037	25.411	942.712	758.773
174.052	25.113	941.964	756.848
175.067	24.991	940.939	755.441
176.081	24.939	940.110	754.492
177.096	25.057	939.264	754.240
178.110	25.142	938.407	753.843
179.125	24.950	937.595	752.319
180.140	24.660	936.879	750.462
181.154	24.793	935.353	749.729
182.169	24.800	935.551	749.852
183.183	24.929	935.448	750.243
184.198	25.076	935.334	750.699
185.213	25.162	934.184	750.070
186.227	25.172	933.202	749.256
187.242	25.186	933.164	749.220
188.256	25.270	932.310	748.819
189.271	25.107	931.747	747.619
190.286	25.379	931.135	748.197
191.300	25.195	930.030	746.475
192.315	24.648	928.660	743.038
193.329	24.026	926.721	738.840
194.344	23.499	925.585	735.680
195.359	23.995	926.276	738.225
196.373	24.897	926.800	742.317
197.388	25.282	926.007	743.213
198.402	25.192	925.336	742.236
199.417	25.204	924.920	741.887
200.432	25.253	924.658	741.811
201.446	25.105	923.463	740.179
202.461	24.847	923.347	738.955
203.475	24.876	922.522	738.346
204.490	24.454	920.852	735.210
205.504	23.118	919.228	728.350
206.519	23.612	918.408	729.668
207.534	24.639	919.272	734.512
208.548	24.752	918.504	734.299
209.563	25.165	918.184	735.672
210.577	25.229	917.238	735.110
211.592	25.015	916.854	733.862
212.607	25.141	917.049	734.468
213.621	25.378	916.433	734.882
214.636	25.346	915.624	734.036
215.650	25.349	915.082	733.546
216.665	25.246	914.654	732.719
217.680	25.376	914.083	732.727
218.694	25.489	913.119	732.353
219.709	25.126	912.336	730.182
220.723	24.741	911.350	727.759
221.738	25.009	910.814	728.359
222.753	25.151	910.697	728.776
223.767	24.902	910.264	727.355
224.782	25.079	909.686	727.545
225.796	25.397	908.802	728.062
226.811	25.503	908.296	728.022
227.826	25.009	907.275	725.143
228.840	24.249	905.436	720.536
229.855	24.184	904.821	719.721
230.869	24.491	904.432	720.587
231.884	24.075	903.599	718.180
232.899	24.214	902.978	718.184
233.913	24.944	903.483	721.465
234.928	25.163	902.954	721.862
235.942	25.055	901.817	720.453
236.957	25.107	901.380	720.249
237.972	24.697	900.500	717.837
238.986	24.677	899.418	716.833
240.001	24.764	899.237	716.973
241.015	24.912	898.199	716.674
242.030	24.978	897.911	716.644
243.045	25.111	897.549	716.825
244.059	25.099	896.960	716.241
245.074	25.360	896.536	716.880
246.088	25.344	895.480	715.909
247.103	24.797	894.858	713.169
248.117	24.887	894.529	713.205
249.132	25.308	894.344	714.669
250.147	25.754	894.389	716.419
251.161	25.881	893.557	716.193
252.176	26.133	893.563	717.135
253.190	26.153	892.656	716.422
254.205	26.037	891.968	715.347
255.220	26.234	891.481	715.674
256.234	26.281	890.880	715.313
257.249	26.190	890.270	714.403
258.263	26.068	889.805	713.481
259.278	26.078	889.098	712.891
260.293	26.055	888.855	712.543
261.307	26.056	888.309	712.046
262.322	26.000	887.651	711.237
263.336	26.050	886.700	710.606
264.351	25.585	885.232	707.539
265.366	24.258	883.987	701.265
266.380	24.003	882.650	699.139
267.395	24.849	883.062	702.727
268.409	25.601	882.802	705.408
269.424	25.594	882.664	705.208
270.439	25.693	882.379	705.308
271.453	25.766	881.862	705.117
272.468	25.956	880.841	704.981
273.482	26.085	880.180	704.893
274.497	26.283	879.790	705.294
275.512	25.998	878.760	703.295
276.526	25.314	877.493	699.551
277.541	25.703	876.983	700.598
278.555	25.987	877.085	701.724
279.570	25.679	876.527	700.017
280.585	25.393	875.795	698.259
281.599	25.479	875.365	698.187
282.614	25.782	874.937	698.963
283.628	25.389	873.465	696.203
284.643	24.936	872.686	693.765
285.657	25.443	872.847	695.792
286.672	25.160	872.297	694.199
287.687	24.845	871.164	692.019
288.701	25.141	871.255	693.172
289.716	25.656	870.574	694.561
290.730	25.256	869.648	692.216
291.745	25.043	869.052	690.860
292.760	24.897	867.957	689.367
293.774	24.942	867.495	689.111
294.789	25.743	868.271	692.751
295.803	26.362	868.611	695.342
296.818	26.306	867.826	694.436
297.833	26.488	867.256	694.617
298.847	26.149	866.019	692.265
299.862	25.744	865.298	690.076
300.876	26.026	864.816	690.713
301.891	26.347	864.592	691.698
302.906	26.461	863.739	691.391
303.920	26.072	862.695	689.008
304.935	25.995	862.144	688.213
305.949	26.204	861.951	688.796
306.964	26.518	861.241	689.363
307.979	26.141	860.965	687.646
308.993	26.109	859.865	686.587
310.008	26.369	860.059	687.669
311.022	26.520	859.858	688.023
312.037	26.446	858.941	686.945
313.052	26.097	858.358	685.093
314.066	25.950	857.430	683.736
315.081	25.324	856.172	680.300
316.095	24.642	854.802	676.571
317.110	25.121	854.933	678.429
318.125	25.993	855.215	681.892
319.139	25.529	854.389	679.416
320.154	24.475	852.415	673.813
321.168	23.787	851.772	670.649
322.183	24.644	851.773	673.824
323.197	25.628	852.102	677.732
324.212	26.023	851.692	678.833
325.227	26.088	851.610	678.952
326.241	26.124	851.323	678.800
327.256	26.058	850.527	677.855
328.270	25.732	850.074	676.211
329.285	25.800	849.032	675.577
330.300	25.655	848.567	674.606
331.314	25.442	847.458	672.865
332.329	25.536	847.064	672.845
333.343	25.851	847.076	673.972
334.358	26.193	846.610	674.820
335.373	26.198	845.597	673.974
336.387	26.222	845.183	673.672
337.402	26.527	844.872	674.501
338.416	26.766	844.623	675.134
339.431	26.750	843.870	674.411
340.446	26.643	843.664	673.790
341.460	26.869	843.483	674.428
342.475	26.960	842.305	673.764
343.489	26.693	841.579	672.130
344.504	26.567	841.278	671.364
345.519	26.937	840.813	672.305
346.533	27.055	840.434	672.379
347.548	27.099	840.079	672.197
348.562	27.165	839.833	672.186
349.577	27.079	839.141	671.255
350.592	27.014	838.532	670.469
351.606	27.100	837.747	670.097
352.621	26.943	837.697	669.421
353.635	26.828	836.978	668.362
354.650	26.837	836.561	668.003
355.665	26.483	835.322	665.655
356.679	25.428	833.688	660.418
357.694	25.261	833.362	659.488
358.708	26.092	833.231	662.375
359.723	25.893	832.767	661.219
360.738	26.206	832.405	662.022
361.752	26.568	832.549	663.402
362.767	26.709	832.179	663.566
363.781	27.039	832.084	664.638
364.796	27.244	831.937	665.215
365.810	27.417	831.062	665.086
366.825	27.279	831.152	664.595
367.840	27.498	830.813	665.065
368.854	27.285	830.171	663.716
369.869	26.947	828.997	661.487
370.883	26.626	828.600	659.944
371.898	26.738	828.181	659.959
372.913	26.678	827.234	658.927
373.927	26.752	826.648	658.669
374.942	26.738	826.274	658.261
375.956	26.965	825.464	658.384
376.971	27.023	824.952	658.127
377.986	27.263	824.292	658.411
379.000	27.483	824.000	658.916
380.015	27.325	823.848	658.163
381.029	27.276	822.958	657.219
382.044	27.206	822.079	656.207
383.059	27.211	822.483	656.488
384.073	27.348	821.259	655.948
385.088	27.345	820.904	655.593
386.102	27.344	820.307	655.054
387.117	27.042	819.721	653.444
388.132	26.970	819.421	652.888
389.146	26.808	818.151	651.237
390.161	26.207	817.512	648.512
391.175	26.490	817.048	649.100
392.190	26.987	817.286	651.016
393.205	27.017	816.629	650.543
394.219	25.963	814.792	645.253
395.234	24.265	812.717	637.486
396.248	23.480	811.609	633.755
397.263	24.559	812.476	638.233
398.278	26.538	813.824	646.311
399.292	26.894	813.898	647.583
400.307	26.613	813.246	646.006
401.321	26.711	812.754	645.909
402.336	26.590	812.299	645.058
403.350	26.957	811.949	646.029
404.365	27.471	812.091	647.913
405.380	27.662	812.025	648.483
406.394	28.049	811.428	649.322
407.409	28.191	811.055	649.473
408.423	28.042	810.383	648.347
409.438	27.899	810.085	647.545
410.453	28.043	809.932	647.877
411.467	28.076	809.676	647.730
412.482	27.965	808.805	646.583
413.496	27.900	808.139	645.766
414.511	28.150	807.408	646.007
415.526	28.160	807.545	646.095
416.540	28.110	807.370	645.720
417.555	27.914	806.559	644.324
418.569	27.755	805.912	643.188
419.584	27.656	805.635	642.563
420.599	27.719	804.793	642.056
421.613	108.482	1284.833	1453.042
422.628	93.584	1354.755	1453.160
