DTS Sentinel unit serial number:	SN413079Multiplexer serial number:	ORYXHardware model number:	OX4-SRSoftware version number:	ORYX F/W v4.00 Oryx Data Collector v3.7.2.0data status	okinstallation	princeton_trtdifferential loss correction	single-endedforward channel	channel 3reverse channel	N/Adate	2019/09/13time	05:44:35forward acquisition time	60.00reverse acquisition time	0.00gamma	496.2192k internal	0.2338k external	0.2338temperature offset calibration	1.0134default loss term (dB/km)	0.3790temperature slope calibration	1.0000multiplexer offset coefficient	1.0000multiplexer slope coefficient	1.0000fibre end	0.00T internal ref (°C)	26.19T ext. ref 1 (°C)	4.05T ext. ref 2 (°C)	20.89length (m)	temperature (°C)	Stokes	anti-Stokes-747.200	800.000	0.006	0.025
-746.185	-200.000	0.014	0.338
-745.171	800.000	-0.053	0.189
-744.156	-149.871	-0.524	0.041
-743.142	18.612	0.038	-0.030
-742.127	76.863	-0.097	-0.103
-741.112	-200.000	-0.025	0.204
-740.098	-200.000	-0.025	0.216
-739.083	800.000	0.027	-0.108
-738.069	-120.516	-0.101	-0.017
-737.054	45.986	-0.087	0.080
-736.039	-25.091	-0.325	0.193
-735.025	620.099	-0.126	-0.318
-734.010	-112.133	-0.477	-0.096
-732.996	265.373	-0.133	-0.233
-731.981	17.528	-0.122	-0.097
-730.966	800.000	0.048	0.143
-729.952	-42.626	-0.321	-0.164
-728.937	-200.000	-0.012	-0.153
-727.923	182.365	0.164	-0.242
-726.908	-200.000	0.024	0.235
-725.894	2.670	-0.169	-0.123
-724.879	-200.000	-0.034	-0.277
-723.864	-200.000	-0.034	0.198
-722.850	800.000	0.038	0.135
-721.835	-163.713	0.133	0.006
-720.821	-3.002	0.224	-0.156
-719.806	-78.474	-0.309	0.106
-718.791	-39.966	-0.067	-0.035
-717.777	396.443	0.047	-0.098
-716.762	-200.000	-0.026	-0.227
-715.748	192.729	-0.178	-0.270
-714.733	-200.000	0.018	-0.256
-713.718	26.405	0.098	0.082
-712.704	-153.421	-0.320	0.022
-711.689	-200.000	0.008	-0.126
-710.675	-33.815	-0.237	-0.131
-709.660	601.643	-0.036	-0.088
-708.645	-113.716	0.172	0.034
-707.631	293.340	0.080	-0.146
-706.616	394.036	0.072	0.151
-705.602	-200.000	-0.002	-0.091
-704.587	-135.516	0.161	0.019
-703.572	212.437	0.136	-0.216
-702.558	53.653	-0.153	0.147
-701.543	-200.000	-0.013	0.152
-700.529	-67.088	0.192	0.076
-699.514	-200.000	0.077	0.467
-698.499	-102.702	-0.204	-0.049
-697.485	684.528	-0.015	-0.039
-696.470	125.049	-0.081	-0.102
-695.456	800.000	-0.042	0.151
-694.441	138.391	-0.220	0.290
-693.426	-19.156	-0.182	-0.113
-692.412	-200.000	0.037	-0.297
-691.397	800.000	-0.149	0.461
-690.383	80.071	-0.341	-0.367
-689.368	116.842	0.298	0.366
-688.354	-43.220	-0.189	0.096
-687.339	-4.031	0.094	-0.066
-686.324	-195.719	0.086	0.001
-685.310	-89.434	0.088	-0.026
-684.295	800.000	-0.049	-0.175
-683.281	800.000	-0.059	0.247
-682.266	191.036	0.109	0.164
-681.251	800.000	0.070	-0.216
-680.237	-114.434	0.148	-0.028
-679.222	-168.545	-0.061	-0.002
-678.208	604.314	-0.077	-0.191
-677.193	800.000	-0.021	-0.088
-676.178	-200.000	0.029	0.145
-675.164	800.000	-0.041	-0.150
-674.149	60.063	0.237	0.234
-673.135	800.000	-0.065	-0.221
-672.120	422.110	0.114	0.245
-671.105	-111.782	0.113	-0.023
-670.091	-122.125	-0.141	-0.023
-669.076	-200.000	-0.073	-0.328
-668.062	-115.286	0.217	-0.041
-667.047	161.931	-0.110	0.154
-666.032	-98.541	0.404	0.103
-665.018	112.889	-0.157	-0.191
-664.003	-200.000	-0.017	0.323
-662.989	-89.348	0.273	-0.081
-661.974	-178.686	-0.092	0.002
-660.959	72.672	-0.121	-0.126
-659.945	17.722	-0.228	0.181
-658.930	348.493	-0.029	0.057
-657.916	800.000	0.022	-0.060
-656.901	566.371	-0.071	-0.173
-655.886	70.080	0.205	0.211
-654.872	-104.809	-0.163	0.037
-653.857	53.046	-0.034	0.032
-652.843	193.951	0.151	-0.228
-651.828	800.000	0.151	0.427
-650.814	-109.732	-0.138	0.029
-649.799	186.824	-0.197	0.293
-648.784	-22.571	0.275	-0.166
-647.770	241.914	0.182	0.305
-646.755	-124.613	0.187	-0.029
-645.741	-109.400	0.093	0.020
-644.726	-9.508	0.114	0.076
-643.711	-200.000	0.015	0.163
-642.697	-24.084	0.294	0.175
-641.682	-107.570	-0.202	0.044
-640.668	81.549	-0.068	0.073
-639.653	-173.931	-0.211	-0.006
-638.638	-200.000	-0.002	-0.083
-637.624	200.929	-0.133	-0.205
-636.609	800.000	0.086	0.282
-635.595	16.828	0.157	0.124
-634.580	10.320	-0.366	-0.278
-633.565	-115.197	0.380	-0.072
-632.551	-1.754	-0.135	0.095
-631.536	-42.860	0.167	-0.085
-630.522	77.427	0.104	-0.111
-629.507	800.000	-0.080	0.341
-628.492	-21.194	-0.190	0.116
-627.478	-47.802	-0.362	-0.175
-626.463	-200.000	-0.023	0.151
-625.449	185.116	-0.161	-0.238
-624.434	61.121	-0.144	0.142
-623.419	800.000	-0.014	-0.041
-622.405	-168.369	-0.221	0.008
-621.390	-200.000	-0.010	-0.237
-620.376	-49.637	0.134	-0.064
-619.361	185.870	-0.077	-0.114
-618.346	-200.000	0.002	0.113
-617.332	-154.008	0.241	0.016
-616.317	-141.096	0.650	0.066
-615.303	221.577	0.015	0.023
-614.288	-68.369	-0.207	0.080
-613.273	-118.803	0.138	-0.024
-612.259	32.745	-0.039	-0.033
-611.244	62.080	-0.259	-0.257
-610.230	-92.093	-0.126	-0.035
-609.215	300.519	-0.111	-0.205
-608.201	-182.950	-0.148	-0.003
-607.186	-200.000	-0.102	-0.000
-606.171	-85.544	-0.339	-0.105
-605.157	139.820	-0.199	-0.262
-604.142	-106.321	-0.102	-0.023
-603.128	753.981	0.050	0.136
-602.113	22.463	0.131	-0.107
-601.098	-200.000	0.020	-0.136
-600.084	193.848	-0.033	-0.049
-599.069	644.582	-0.079	-0.201
-598.055	800.000	0.048	0.205
-597.040	-44.514	-0.175	0.087
-596.025	-53.187	0.082	0.037
-595.011	71.889	0.166	-0.172
-593.996	-78.844	-0.189	0.064
-592.982	253.976	0.081	0.139
-591.967	800.000	0.097	-0.284
-590.952	4.864	0.196	0.144
-589.938	0.326	0.220	-0.157
-588.923	419.931	-0.109	0.232
-587.909	-64.207	0.210	0.085
-586.894	58.135	-0.115	0.112
-585.879	-118.230	0.115	0.020
-584.865	243.224	-0.027	0.046
-583.850	60.990	-0.274	-0.271
-582.836	333.015	0.195	-0.375
-581.821	364.993	-0.052	0.104
-580.806	-107.682	-0.369	-0.080
-579.792	33.895	-0.099	-0.086
-578.777	-179.699	-0.153	0.003
-577.763	-200.000	0.031	-0.134
-576.748	93.010	0.079	0.089
-575.733	473.795	-0.140	-0.314
-574.719	81.795	-0.288	0.310
-573.704	24.560	0.124	0.102
-572.690	-168.766	-0.111	0.004
-571.675	-54.978	0.155	0.070
-570.661	800.000	-0.132	0.492
-569.646	-3.688	0.268	-0.185
-568.631	-160.096	-0.094	0.005
-567.617	-45.525	0.210	0.104
-566.602	800.000	0.028	-0.092
-565.588	281.993	-0.156	-0.279
-564.573	-200.000	-0.014	-0.082
-563.558	537.437	-0.119	-0.282
-562.544	-200.000	0.288	0.001
-561.529	116.211	0.042	0.051
-560.515	-200.000	-0.088	-0.000
-559.500	1.622	0.102	0.073
-558.485	0.307	0.217	-0.154
-557.471	221.695	0.102	0.164
-556.456	17.415	-0.196	0.155
-555.442	-63.568	0.386	0.158
-554.427	-52.439	0.254	0.117
-553.412	196.886	-0.063	0.095
-552.398	-9.186	0.211	0.140
-551.383	32.210	-0.122	0.105
-550.369	-56.179	0.228	0.101
-549.354	-101.446	0.145	-0.035
-548.339	800.000	0.077	0.221
-547.325	-11.625	-0.361	0.236
-546.310	34.841	-0.131	0.114
-545.296	89.682	0.039	0.044
-544.281	210.656	0.246	0.385
-543.266	-26.407	-0.081	0.047
-542.252	-200.000	-0.010	0.270
-541.237	245.189	0.103	-0.172
-540.223	-200.000	-0.045	-0.483
-539.208	-200.000	-0.040	-0.187
-538.193	-185.598	0.402	-0.006
-537.179	-129.783	-0.422	-0.058
-536.164	-1.279	0.267	-0.188
-535.150	-200.000	-0.019	-0.246
-534.135	-141.800	0.102	-0.010
-533.121	-71.319	0.090	0.033
-532.106	119.996	-0.193	0.238
-531.091	-2.105	-0.237	-0.165
-530.077	-84.058	-0.170	0.054
-529.062	800.000	-0.127	-0.446
-528.048	37.893	-0.114	0.101
-527.033	-84.969	0.370	-0.115
-526.018	-133.508	-0.354	0.044
-525.004	99.844	-0.354	0.407
-523.989	113.997	0.181	-0.219
-522.975	-200.000	-0.044	-0.206
-521.960	51.550	-0.142	-0.134
-520.945	800.000	0.060	0.190
-519.931	800.000	0.029	0.112
-518.916	169.931	0.087	0.124
-517.902	-117.057	0.190	-0.034
-516.887	-22.872	0.308	0.185
-515.872	800.000	-0.088	-0.262
-514.858	196.625	-0.145	0.220
-513.843	-27.039	0.077	-0.045
-512.829	-30.975	-0.133	0.075
-511.814	-200.000	0.020	-0.117
-510.799	800.000	0.021	-0.065
-509.785	-3.890	0.238	-0.164
-508.770	-200.000	0.008	0.189
-507.756	86.792	-0.112	0.122
-506.741	-13.146	-0.203	0.131
-505.726	-17.620	0.245	0.153
-504.712	113.140	-0.155	0.187
-503.697	-192.725	-0.486	-0.004
-502.683	-200.000	-0.073	-0.321
-501.668	-98.412	-0.355	0.090
-500.653	-116.059	0.204	-0.038
-499.639	-200.000	-0.012	0.184
-498.624	-2.031	0.307	0.214
-497.610	-52.632	-0.085	-0.039
-496.595	-154.802	0.237	0.016
-495.581	300.923	0.087	-0.160
-494.566	79.647	0.206	-0.219
-493.551	-200.000	0.046	-0.208
-492.537	195.171	0.132	-0.199
-491.522	725.483	-0.034	-0.091
-490.508	-32.859	-0.334	0.185
-489.493	-60.659	0.431	0.182
-488.478	24.618	-0.315	0.259
-487.464	90.301	-0.152	-0.169
-486.449	-55.552	0.064	0.028
-485.435	-200.000	-0.021	0.136
-484.420	800.000	0.124	-0.447
-483.405	-200.000	0.025	-0.169
-482.391	-200.000	-0.026	0.152
-481.376	-200.000	0.006	0.155
-480.362	-160.756	0.201	0.011
-479.347	-197.165	0.229	-0.001
-478.332	-200.000	-0.045	-0.416
-477.318	800.000	-0.066	0.271
-476.303	-118.223	0.305	-0.054
-475.289	-0.117	-0.243	0.172
-474.274	228.056	-0.357	-0.577
-473.259	800.000	-0.035	0.149
-472.245	-200.000	0.031	0.135
-471.230	-122.729	0.167	0.027
-470.216	563.876	0.021	-0.052
-469.201	163.573	-0.178	-0.249
-468.186	800.000	0.038	0.146
-467.172	493.584	-0.036	-0.083
-466.157	-200.000	0.069	0.302
-465.143	-48.993	0.134	0.064
-464.128	392.930	-0.149	0.308
-463.113	-33.562	-0.234	-0.128
-462.099	-22.840	0.180	-0.108
-461.084	361.739	-0.085	0.170
-460.070	23.810	0.252	-0.206
-459.055	-154.024	0.136	-0.009
-458.040	192.312	-0.039	0.059
-457.026	133.939	-0.286	-0.367
-456.011	-135.677	0.232	0.027
-454.997	116.831	-0.198	-0.241
-453.982	-14.470	0.153	-0.098
-452.968	800.000	-0.070	-0.211
-451.953	-200.000	0.026	-0.141
-450.938	104.234	0.103	-0.120
-449.924	-79.082	0.419	0.141
-448.909	-200.000	0.019	0.224
-447.895	-200.000	0.009	-0.097
-446.880	64.581	0.136	-0.135
-445.865	110.179	-0.191	-0.227
-444.851	-200.000	0.020	0.104
-443.836	-41.104	-0.199	0.102
-442.822	421.226	-0.186	-0.395
-441.807	284.700	-0.086	-0.154
-440.792	43.190	-0.070	0.063
-439.778	91.530	0.220	0.246
-438.763	-200.000	-0.010	0.236
-437.749	130.051	-0.208	0.264
-436.734	-64.688	-0.355	-0.143
-435.719	-79.082	-0.089	0.030
-434.705	456.686	-0.048	-0.105
-433.690	-89.218	0.256	0.075
-432.676	-78.731	-0.312	-0.106
-431.661	-200.000	-0.032	0.286
-430.646	-70.607	0.259	-0.097
-429.632	-132.517	-0.168	0.021
-428.617	242.241	-0.156	0.258
-427.603	-106.711	0.222	0.049
-426.588	-200.000	0.027	0.213
-425.573	800.000	0.050	-0.153
-424.559	629.199	0.096	0.240
-423.544	102.105	-0.057	0.065
-422.530	464.723	-0.047	-0.103
-421.515	81.261	0.258	-0.276
-420.500	-7.615	-0.022	-0.015
-419.486	-200.000	0.009	0.060
-418.471	-16.644	0.091	-0.057
-417.457	291.917	-0.168	-0.302
-416.442	-43.089	0.158	0.079
-415.428	-90.194	0.047	-0.014
-414.413	163.633	-0.121	-0.169
-413.398	-200.000	0.018	-0.105
-412.384	37.164	-0.052	-0.046
-411.369	335.445	-0.032	0.062
-410.355	264.975	-0.303	-0.523
-409.340	97.046	-0.083	0.094
-408.325	82.526	-0.150	-0.161
-407.311	89.646	-0.095	-0.105
-406.296	5.168	-0.103	-0.075
-405.282	-200.000	0.068	0.382
-404.267	-192.434	-0.211	0.002
-403.252	-36.007	-0.420	0.225
-402.238	800.000	0.039	-0.126
-401.223	97.949	0.034	0.038
-400.209	-200.000	-0.015	-0.310
-399.194	-126.489	-0.281	0.041
-398.179	800.000	0.092	0.274
-397.165	-55.693	-0.366	-0.162
-396.150	165.100	0.088	-0.123
-395.136	-82.356	0.104	-0.034
-394.121	800.000	0.026	-0.109
-393.106	190.429	0.043	0.064
-392.092	800.000	-0.042	0.163
-391.077	483.675	0.168	-0.379
-390.063	-200.000	0.048	-0.222
-389.048	286.097	0.110	-0.197
-388.033	749.770	0.125	0.332
-387.019	-72.036	0.145	0.053
-386.004	-200.000	-0.007	-0.114
-384.990	155.804	-0.156	-0.213
-383.975	800.000	-0.039	-0.163
-382.960	-129.659	-0.123	0.017
-381.946	30.995	0.206	0.174
-380.931	-112.815	0.503	-0.099
-379.917	-4.844	-0.299	0.204
-378.902	198.095	-0.095	0.144
-377.888	116.851	-0.111	0.135
-376.873	-25.751	0.237	0.138
-375.858	-135.172	0.113	0.013
-374.844	800.000	-0.036	-0.131
-373.829	-17.879	0.258	-0.160
-372.815	4.643	-0.029	-0.021
-371.800	-163.053	-0.125	0.006
-370.785	200.508	-0.190	0.289
-369.771	-61.682	0.464	-0.192
-368.756	37.305	-0.110	0.097
-367.742	-200.000	-0.010	0.078
-366.727	-157.978	-0.135	-0.008
-365.712	114.601	0.180	0.217
-364.698	73.666	-0.239	-0.248
-363.683	-26.917	-0.342	-0.198
-362.669	-200.000	0.011	0.339
-361.654	77.402	0.112	-0.118
-360.639	53.157	0.041	-0.039
-359.625	360.617	-0.170	0.337
-358.610	-67.362	0.060	0.023
-357.596	263.244	0.073	-0.126
-356.581	73.199	-0.167	-0.172
-355.566	-51.144	-0.380	0.176
-354.552	-100.923	-0.103	-0.025
-353.537	-54.528	0.192	-0.086
-352.523	-200.000	0.025	-0.245
-351.508	624.036	0.100	0.249
-350.493	-200.000	0.012	-0.109
-349.479	-64.911	-0.162	-0.065
-348.464	729.124	0.078	-0.207
-347.450	800.000	0.060	-0.204
-346.435	-200.000	-0.019	0.174
-345.420	42.197	-0.214	-0.192
-344.406	-131.916	0.112	0.014
-343.391	8.530	0.135	0.100
-342.377	260.023	0.051	-0.088
-341.362	311.840	0.173	0.321
-340.348	588.144	0.013	-0.031
-339.333	139.090	0.264	0.343
-338.318	27.581	0.158	0.131
-337.304	1.446	-0.193	0.137
-336.289	-114.783	0.237	0.045
-335.275	-200.000	0.000	0.265
-334.260	-200.000	-0.030	0.157
-333.245	-28.306	0.070	0.040
-332.231	189.070	-0.098	-0.145
-331.216	800.000	-0.031	0.100
-330.202	-166.080	-0.225	-0.009
-329.187	-77.741	0.281	-0.096
-328.172	159.254	0.117	-0.161
-327.158	-129.998	-0.176	0.024
-326.143	37.431	0.095	-0.083
-325.129	-133.542	0.063	-0.008
-324.114	-154.462	-0.185	0.012
-323.099	206.783	-0.044	0.068
-322.085	-200.000	0.034	0.215
-321.070	-5.083	0.038	-0.025
-320.056	-62.746	-0.204	0.084
-319.041	213.690	0.055	-0.086
-318.026	800.000	-0.025	-0.068
-317.012	75.773	0.230	0.240
-315.997	-149.810	-0.131	0.010
-314.983	86.041	-0.187	0.203
-313.968	-130.967	0.037	0.005
-312.953	31.595	0.254	-0.215
-311.939	-68.373	-0.360	0.138
-310.924	-95.609	-0.213	-0.056
-309.910	-58.018	-0.126	0.054
-308.895	139.167	0.177	-0.230
-307.880	-200.000	-0.011	0.158
-306.866	48.056	0.186	0.171
-305.851	-200.000	0.018	0.111
-304.837	128.416	0.100	0.126
-303.822	-73.355	0.125	-0.045
-302.807	-200.000	0.049	-0.293
-301.793	25.354	0.143	0.117
-300.778	267.886	0.081	0.140
-299.764	-200.000	0.013	-0.262
-298.749	-93.316	0.231	0.063
-297.735	63.473	-0.290	0.287
-296.720	-200.000	-0.013	0.075
-295.705	-75.345	0.323	-0.114
-294.691	-56.591	-0.043	-0.019
-293.676	-63.497	0.163	-0.066
-292.662	800.000	0.069	-0.191
-291.647	-105.325	-0.208	0.047
-290.632	-200.000	0.012	-0.126
-289.618	-91.114	0.328	0.093
-288.603	-137.806	-0.365	0.040
-287.589	-62.435	0.484	-0.198
-286.574	-36.971	0.211	0.112
-285.559	161.165	-0.158	0.218
-284.545	800.000	-0.050	-0.159
-283.530	-153.970	-0.341	0.023
-282.516	-200.000	-0.016	-0.443
-281.501	-200.000	0.014	-0.247
-280.486	152.807	-0.143	0.193
-279.472	86.092	-0.182	0.198
-278.457	73.636	-0.209	0.216
-277.443	-72.446	0.096	0.035
-276.428	744.683	-0.077	0.204
-275.413	241.161	0.069	0.114
-274.399	-200.000	-0.017	-0.129
-273.384	800.000	-0.079	-0.245
-272.370	70.147	-0.077	-0.078
-271.355	25.124	-0.174	-0.142
-270.340	21.783	-0.235	-0.189
-269.326	-200.000	-0.021	0.227
-268.311	-179.537	-0.116	-0.002
-267.297	-200.000	-0.031	0.168
-266.282	-61.412	-0.210	0.087
-265.267	-200.000	0.041	0.206
-264.253	492.819	-0.021	-0.048
-263.238	-88.746	-0.179	-0.053
-262.224	-200.000	0.116	0.537
-261.209	-114.759	-0.135	0.025
-260.195	-145.646	0.314	0.028
-259.180	121.439	-0.023	0.029
-258.165	-200.000	0.002	-0.262
-257.151	-28.822	-0.046	0.026
-256.136	-200.000	-0.001	-0.179
-255.122	617.146	-0.107	0.264
-254.107	-200.000	0.030	-0.274
-253.092	800.000	-0.063	0.258
-252.078	-200.000	-0.034	-0.439
-251.063	331.857	-0.124	-0.236
-250.049	-200.000	-0.007	0.275
-249.034	-177.553	-0.329	0.008
-248.019	13.830	-0.177	0.135
-247.005	-36.821	0.190	-0.100
-245.990	144.706	0.025	-0.033
-244.976	636.412	0.134	0.335
-243.961	-200.000	-0.002	-0.075
-242.946	404.003	-0.011	-0.022
-241.932	-75.632	-0.445	0.156
-240.917	25.339	-0.086	0.070
-239.903	-98.073	0.134	0.034
-238.888	800.000	-0.025	-0.082
-237.873	-162.582	-0.059	0.003
-236.859	-58.664	0.173	0.074
-235.844	-63.871	-0.258	-0.104
-234.830	319.916	0.091	0.171
-233.815	-64.071	0.262	0.105
-232.800	-168.204	0.116	-0.004
-231.786	-97.525	-0.022	-0.006
-230.771	-195.553	-0.120	-0.001
-229.757	-134.704	0.180	0.022
-228.742	154.637	-0.209	0.283
-227.727	117.932	-0.084	-0.102
-226.713	-5.457	0.122	0.082
-225.698	800.000	0.034	0.123
-224.684	367.109	-0.056	-0.111
-223.669	-108.065	0.095	-0.020
-222.655	-83.447	0.298	0.094
-221.640	-84.969	0.197	-0.061
-220.625	-115.817	0.225	-0.041
-219.611	-200.000	0.050	-0.280
-218.596	-87.956	-0.207	-0.061
-217.582	-200.000	0.005	-0.052
-216.567	-200.000	-0.015	0.093
-215.552	6.447	0.360	0.263
-214.538	261.376	0.065	-0.111
-213.523	-104.664	-0.274	-0.062
-212.509	15.372	-0.286	-0.220
-211.494	-185.931	0.314	-0.005
-210.479	424.678	-0.078	-0.165
-209.465	48.536	-0.198	-0.183
-208.450	-164.049	-0.156	-0.007
-207.436	-45.448	-0.242	-0.118
-206.421	-140.396	-0.400	0.041
-205.406	-156.516	0.195	0.012
-204.392	5.074	0.195	0.141
-203.377	-76.851	0.215	0.074
-202.363	-185.336	-0.126	-0.002
-201.348	3.673	0.117	0.084
-200.333	57.065	-0.328	-0.314
-199.319	-17.042	0.042	0.026
-198.304	-151.410	0.215	-0.016
-197.290	-24.626	0.249	0.146
-196.275	122.647	0.157	-0.193
-195.260	-86.923	0.215	0.064
-194.246	331.224	0.181	-0.343
-193.231	123.424	0.287	0.353
-192.217	-200.000	0.011	0.067
-191.202	-200.000	0.033	0.157
-190.187	125.756	0.084	0.104
-189.173	59.830	0.120	0.116
-188.158	-132.129	-0.114	-0.015
-187.144	224.393	0.157	-0.248
-186.129	-96.015	-0.084	0.022
-185.114	-101.385	0.345	-0.083
-184.100	185.612	-0.083	0.120
-183.085	35.326	0.137	-0.118
-182.071	-55.545	-0.062	-0.027
-181.056	235.890	-0.068	-0.110
-180.042	-88.376	-0.365	0.107
-179.027	-112.331	-0.205	-0.040
-178.012	-151.092	0.344	0.025
-176.998	-57.962	0.388	-0.166
-175.983	-37.833	0.244	-0.127
-174.969	-200.000	-0.019	0.416
-173.954	-109.301	0.315	0.066
-172.939	800.000	-0.056	-0.166
-171.925	-200.000	0.005	0.232
-170.910	-200.000	0.037	-0.322
-169.896	278.735	-0.041	-0.071
-168.881	313.873	-0.053	-0.098
-167.866	230.769	0.074	-0.118
-166.852	-104.877	-0.079	-0.018
-165.837	73.104	-0.032	-0.033
-164.823	335.719	-0.050	-0.096
-163.808	-47.958	0.210	0.100
-162.793	800.000	0.080	0.219
-161.779	80.499	-0.089	0.094
-160.764	19.331	-0.041	0.032
-159.750	-8.565	-0.222	-0.146
-158.735	168.969	-0.249	0.349
-157.720	-83.420	0.208	-0.065
-156.706	-106.559	-0.170	0.037
-155.691	54.099	0.028	-0.027
-154.677	-148.626	0.273	-0.022
-153.662	144.694	0.109	-0.142
-152.647	-127.461	-0.216	0.031
-151.633	-35.193	0.169	0.090
-150.618	-131.728	0.299	0.038
-149.604	800.000	-0.091	0.249
-148.589	800.000	-0.039	-0.110
-147.574	100.200	0.110	0.125
-146.560	-48.291	0.193	-0.091
-145.545	-48.668	-0.144	-0.068
-144.531	106.003	-0.054	-0.062
-143.516	76.731	-0.104	0.108
-142.502	-106.793	0.279	0.061
-141.487	-200.000	0.004	-0.302
-140.472	-200.000	0.025	-0.123
-139.458	-13.734	-0.108	-0.068
-138.443	444.682	0.046	0.098
-137.429	33.099	-0.083	0.070
-136.414	653.796	0.069	0.175
-135.399	-65.920	-0.273	0.107
-134.385	79.069	0.250	-0.262
-133.370	-200.000	-0.019	-0.106
-132.356	-91.276	-0.241	0.068
-131.341	438.168	-0.132	-0.282
-130.326	-15.784	-0.100	-0.062
-129.312	800.000	0.052	-0.209
-128.297	85.621	-0.188	-0.203
-127.283	102.439	-0.146	0.167
-126.268	179.647	0.084	0.121
-125.253	-200.000	-0.081	0.399
-124.239	54.866	-0.097	0.092
-123.224	800.000	0.127	-0.390
-122.210	-200.000	-0.076	0.351
-121.195	61.674	0.251	-0.244
-120.180	-87.995	0.182	0.054
-119.166	-62.669	-0.292	-0.119
-118.151	-36.038	0.371	0.196
-117.137	-52.769	-0.160	-0.072
-116.122	-200.000	0.007	-0.271
-115.107	-70.285	0.041	0.015
-114.093	-70.446	0.208	0.077
-113.078	800.000	0.062	0.219
-112.064	-200.000	0.068	-0.301
-111.049	171.986	0.060	-0.084
-110.034	30.686	-0.194	0.163
-109.020	-31.671	0.031	0.017
-108.005	-52.619	0.138	-0.062
-106.991	12.760	0.123	0.093
-105.976	-108.940	-0.053	0.011
-104.962	-200.000	0.018	-0.102
-103.947	-10.330	0.375	0.244
-102.932	-185.009	0.365	-0.006
-101.918	800.000	-0.041	0.171
-100.903	-108.737	0.186	0.039
-99.889	-145.391	-0.099	-0.009
-98.874	-51.284	-0.396	-0.181
-97.859	-112.342	-0.143	-0.028
-96.845	27.096	-0.055	0.045
-95.830	800.000	-0.088	0.355
-94.816	-200.000	0.012	0.264
-93.801	-50.055	-0.249	0.115
-92.786	-125.196	0.109	0.016
-91.772	38.137	0.207	-0.180
-90.757	69.974	-0.212	0.214
-89.743	-86.376	-0.234	0.070
-88.728	800.000	0.017	-0.048
-87.713	-66.766	0.247	0.095
-86.699	800.000	-0.021	-0.073
-85.684	0.551	-0.262	-0.183
-84.670	800.000	-0.112	0.339
-83.655	-69.311	-0.130	0.049
-82.640	403.244	-0.097	-0.199
-81.626	-200.000	0.007	-0.394
-80.611	34.978	0.135	-0.115
-79.597	800.000	0.049	-0.164
-78.582	32.329	0.060	-0.050
-77.567	800.000	-0.060	0.172
-76.553	800.000	0.113	-0.339
-75.538	-90.173	-0.167	-0.048
-74.524	-109.848	-0.206	0.042
-73.509	800.000	0.086	0.311
-72.494	18.866	-0.158	-0.123
-71.480	-5.637	-0.535	0.358
-70.465	27.069	-0.191	0.157
-69.451	-69.430	-0.267	0.100
-68.436	-93.556	-0.074	-0.020
-67.422	-154.123	-0.204	0.014
-66.407	592.752	-0.033	0.079
-65.392	106.498	-0.235	0.273
-64.378	-80.159	-0.177	-0.058
-63.363	92.351	-0.240	-0.264
-62.349	81.873	0.131	-0.139
-61.334	136.818	-0.948	-1.209
-60.319	-200.000	0.136	0.673
-59.305	717.661	-0.563	-1.459
-58.290	225.407	0.771	1.219
-57.276	722.955	0.577	1.502
-56.261	-200.000	117.645	642.509
-55.246	484.751	1551.900	3450.450
-54.232	174.678	2718.579	3841.120
-53.217	102.746	2173.835	2484.494
-52.203	36.645	1689.413	1456.808
-51.188	29.256	1505.782	1248.576
-50.173	27.194	1480.455	1213.777
-49.159	49.186	1541.812	1414.853
-48.144	47.878	1555.973	1418.866
-47.130	29.284	1511.617	1253.403
-46.115	26.375	1496.129	1220.901
-45.100	26.245	1492.508	1217.023
-44.086	26.198	1491.159	1215.561
-43.071	26.106	1489.068	1213.189
-42.057	26.187	1487.355	1212.288
-41.042	26.189	1485.660	1210.870
-40.027	26.124	1484.164	1209.167
-39.013	26.168	1482.786	1208.293
-37.998	26.093	1482.441	1207.457
-36.984	26.235	1480.770	1207.001
-35.969	26.197	1479.443	1205.617
-34.954	26.102	1478.362	1204.055
-33.940	26.227	1476.369	1203.215
-32.925	26.220	1475.259	1202.217
-31.911	26.165	1474.136	1200.891
-30.896	26.284	1472.976	1200.690
-29.881	26.304	1471.659	1199.700
-28.867	26.200	1470.245	1197.811
-27.852	26.227	1468.987	1196.913
-26.838	26.286	1467.123	1195.739
-25.823	26.171	1466.451	1194.381
-24.809	26.246	1464.294	1193.077
-23.794	26.090	1463.483	1191.335
-22.779	26.148	1461.434	1190.005
-21.765	26.245	1460.913	1190.174
-20.750	26.303	1459.570	1189.412
-19.736	26.271	1458.467	1188.253
-18.721	26.164	1457.532	1186.741
-17.706	26.259	1456.540	1186.512
-16.692	26.183	1455.230	1184.897
-15.677	26.167	1454.480	1184.136
-14.663	26.186	1453.748	1183.616
-13.648	26.220	1452.751	1182.981
-12.633	26.169	1451.755	1181.789
-11.619	26.152	1450.704	1180.774
-10.604	26.190	1449.842	1180.275
-9.590	26.066	1449.490	1179.132
-8.575	26.155	1448.165	1178.587
-7.560	26.176	1447.206	1177.902
-6.546	26.144	1446.456	1177.035
-5.531	26.183	1445.061	1176.108
-4.517	26.189	1444.092	1175.308
-3.502	26.131	1443.723	1174.584
-2.487	26.136	1442.245	1173.367
-1.473	26.164	1441.174	1172.630
-0.458	26.255	1439.569	1171.871
0.556	27.896	1430.168	1160.961
1.571	24.619	1406.383	1121.033
2.586	21.271	1347.304	1053.687
3.600	19.593	1266.364	980.781
4.615	18.579	1221.902	940.699
5.629	16.315	1166.427	886.046
6.644	9.793	1085.179	792.322
7.659	4.835	1048.651	742.008
8.673	4.255	1043.629	735.637
9.688	3.968	1039.840	731.543
10.702	3.943	1038.346	730.309
11.717	4.025	1036.225	729.140
12.731	6.403	1038.041	741.563
13.746	13.420	1047.982	781.850
14.761	20.030	1056.450	819.475
15.775	22.243	1058.436	831.417
16.790	21.871	1057.513	828.861
17.804	20.828	1055.643	822.400
18.819	20.229	1053.433	817.784
19.834	19.841	1052.039	814.801
20.848	19.704	1051.493	813.662
21.863	19.750	1051.425	813.753
22.877	19.559	1050.576	812.126
23.892	19.466	1049.495	810.780
24.907	19.179	1049.159	809.102
25.921	19.304	1048.094	808.797
26.936	19.144	1047.580	807.579
27.950	19.229	1046.497	807.072
28.965	19.150	1045.485	805.848
29.980	19.256	1044.382	805.421
30.994	19.415	1043.216	805.192
32.009	19.718	1042.348	805.866
33.023	19.694	1041.731	805.204
34.038	19.676	1041.189	804.633
35.053	19.521	1040.044	802.954
36.067	19.372	1038.839	801.260
37.082	19.296	1037.894	800.110
38.096	19.350	1037.371	799.886
39.111	19.481	1036.614	799.839
40.126	19.588	1035.678	799.540
41.140	19.454	1034.567	797.990
42.155	19.126	1032.904	795.126
43.169	18.906	1032.291	793.566
44.184	18.892	1030.499	792.052
45.199	18.870	1029.827	791.364
46.213	18.775	1029.271	790.431
47.228	19.037	1028.134	790.693
48.242	19.240	1027.379	790.976
49.257	19.457	1026.662	791.346
50.271	19.292	1026.271	790.221
51.286	19.406	1025.046	789.726
52.301	19.390	1024.656	789.285
53.315	19.463	1023.109	788.355
54.330	19.283	1022.763	787.200
55.344	19.105	1021.795	785.572
56.359	19.077	1020.419	784.318
57.374	19.063	1019.918	783.796
58.388	19.105	1018.686	782.975
59.403	18.874	1018.051	781.366
60.417	18.816	1017.287	780.445
61.432	18.808	1017.142	780.230
62.447	18.836	1016.226	779.587
63.461	18.812	1014.986	778.458
64.476	18.723	1014.258	777.426
65.490	18.469	1013.500	775.628
66.505	18.594	1012.389	775.275
67.520	18.690	1011.768	775.162
68.534	18.764	1011.136	774.945
69.549	18.755	1010.502	774.348
70.563	18.635	1009.477	772.954
71.578	18.680	1008.658	772.460
72.593	18.554	1007.738	771.120
73.607	18.328	1006.574	769.147
74.622	18.369	1005.733	768.621
75.636	18.355	1004.738	767.728
76.651	18.292	1004.754	767.390
77.666	18.449	1003.816	767.312
78.680	18.560	1003.245	767.303
79.695	18.613	1002.415	766.837
80.709	18.593	1002.116	766.451
81.724	18.779	1001.276	766.569
82.739	18.813	1000.582	766.125
83.753	18.991	999.463	765.990
84.768	19.030	999.577	766.186
85.782	19.481	999.380	767.973
86.797	19.651	998.135	767.704
87.812	19.789	997.234	767.555
88.826	19.748	995.976	766.339
89.841	19.539	995.585	765.043
90.855	19.545	994.699	764.323
91.870	19.587	994.392	764.204
92.884	19.605	994.148	764.028
93.899	19.710	992.926	763.486
94.914	19.785	991.942	762.991
95.928	19.672	991.255	761.898
96.943	19.829	990.166	761.688
97.957	19.602	989.103	759.801
98.972	19.485	988.336	758.631
99.987	19.547	987.689	758.338
101.001	19.601	986.869	757.878
102.016	19.606	986.360	757.444
103.030	19.465	985.207	755.873
104.045	19.571	984.829	755.980
105.060	19.595	983.494	754.996
106.074	19.583	982.440	754.068
107.089	19.257	981.435	751.805
108.103	18.903	980.200	749.249
109.118	18.790	979.401	748.083
110.133	18.644	978.614	746.780
111.147	18.631	977.624	745.902
112.162	18.782	976.346	745.515
113.176	18.701	976.238	745.016
114.191	18.813	975.440	744.824
115.206	19.004	974.334	744.744
116.220	19.123	973.121	744.265
117.235	18.888	972.576	742.764
118.249	18.836	972.147	742.147
119.264	18.835	971.312	741.439
120.279	18.781	969.860	740.032
121.293	18.484	969.845	738.677
122.308	18.542	968.752	738.029
123.322	18.528	967.659	737.073
124.337	18.476	966.566	735.949
125.352	18.392	965.814	734.953
126.366	18.409	964.579	734.020
127.381	18.344	963.759	733.052
128.395	18.445	962.711	732.621
129.410	18.501	961.790	732.096
130.424	18.490	961.287	731.603
131.439	18.607	960.287	731.276
132.454	18.949	959.355	731.954
133.468	18.850	959.117	731.287
134.483	18.913	958.452	730.985
135.497	18.821	958.067	730.234
136.512	18.826	957.171	729.509
137.527	18.890	955.911	728.754
138.541	19.038	955.198	728.775
139.556	18.886	954.931	727.864
140.570	18.816	954.265	726.995
141.585	18.989	953.557	727.122
142.600	19.309	953.351	728.254
143.614	19.370	952.646	727.907
144.629	19.524	951.834	727.872
145.643	19.582	951.059	727.461
146.658	19.542	950.084	726.483
147.673	19.340	948.862	724.634
148.687	19.219	948.105	723.482
149.702	19.011	947.096	721.777
150.716	18.954	945.971	720.614
151.731	19.032	944.730	719.932
152.746	18.921	944.563	719.279
153.760	18.899	943.956	718.659
154.775	18.985	943.154	718.346
155.789	19.153	942.583	718.547
156.804	19.219	942.036	718.344
157.819	19.355	940.746	717.863
158.833	19.323	940.040	717.126
159.848	19.541	939.412	717.489
160.862	19.624	939.022	717.472
161.877	19.576	938.373	716.715
162.892	19.227	936.930	714.105
163.906	18.840	936.111	711.813
164.921	19.008	935.039	711.630
165.935	18.794	934.233	710.066
166.950	18.928	933.145	709.730
167.964	19.274	932.179	710.362
168.979	19.086	931.674	709.139
169.994	19.111	930.096	707.978
171.008	18.967	929.302	706.720
172.023	19.178	928.666	707.039
173.037	19.261	928.266	707.015
174.052	19.553	927.592	707.635
175.067	19.472	926.858	706.679
176.081	19.238	925.505	704.628
177.096	18.853	924.880	702.519
178.110	18.819	923.543	701.300
179.125	18.938	923.021	701.326
180.140	18.858	922.982	700.911
181.154	18.968	922.310	700.785
182.169	19.233	921.721	701.355
183.183	19.383	921.581	701.797
184.198	19.341	920.958	701.091
185.213	19.485	919.926	700.827
186.227	19.479	919.326	700.282
187.242	19.590	918.831	700.295
188.256	19.484	918.291	699.392
189.271	19.721	917.292	699.530
190.286	19.807	916.865	699.489
191.300	19.597	915.624	697.633
192.315	19.076	914.863	694.886
193.329	18.857	913.808	693.140
194.344	18.743	913.281	692.221
195.359	18.899	912.831	692.445
196.373	19.063	912.574	692.849
197.388	19.210	912.288	693.165
198.402	19.522	911.817	693.999
199.417	19.709	911.461	694.418
200.432	19.915	910.974	694.812
201.446	19.999	911.033	695.133
202.461	20.193	909.907	694.989
203.475	20.085	909.549	694.222
204.490	20.145	908.864	693.877
205.504	19.811	907.792	691.662
206.519	19.727	906.561	690.327
207.534	19.591	905.932	689.244
208.548	19.466	905.415	688.293
209.563	19.508	905.154	688.199
210.577	19.592	904.025	687.617
211.592	19.498	903.719	686.947
212.607	19.867	903.484	688.176
213.621	19.991	902.809	688.095
214.636	19.902	901.999	687.064
215.650	19.858	901.439	686.401
216.665	19.965	900.927	686.373
217.680	19.976	900.219	685.820
218.694	20.026	900.190	685.935
219.709	20.052	899.630	685.549
220.723	20.103	898.761	685.029
221.738	19.948	897.889	683.690
222.753	19.930	897.389	683.176
223.767	19.866	896.518	682.202
224.782	19.973	895.857	682.060
225.796	20.254	895.216	682.617
226.811	20.211	894.434	681.790
227.826	20.276	893.673	681.408
228.840	20.002	892.923	679.699
229.855	19.881	892.113	678.546
230.869	19.931	891.679	678.355
231.884	19.937	890.454	677.386
232.899	19.822	890.064	676.578
233.913	19.726	889.361	675.608
234.928	19.623	888.669	674.623
235.942	19.551	887.819	673.634
236.957	19.597	887.102	673.211
237.972	19.485	886.511	672.268
238.986	19.651	885.931	672.413
240.001	19.506	885.505	671.466
241.015	19.585	884.507	670.956
242.030	19.548	884.207	670.529
243.045	19.773	883.608	670.888
244.059	19.779	883.154	670.507
245.074	19.829	882.542	670.177
246.088	19.829	882.095	669.777
247.103	20.069	881.372	670.097
248.117	20.112	881.197	670.070
249.132	20.336	880.979	670.711
250.147	20.607	880.117	671.040
251.161	20.878	879.900	671.862
252.176	21.012	879.269	671.838
253.190	21.060	878.670	671.505
254.205	20.980	878.358	670.900
255.220	21.143	877.766	671.013
256.234	21.005	877.092	669.908
257.249	20.906	876.305	668.868
258.263	20.952	875.737	668.553
259.278	20.859	875.217	667.741
260.293	20.741	874.995	667.062
261.307	20.853	874.693	667.201
262.322	21.133	873.941	667.638
263.336	21.058	873.465	666.929
264.351	20.998	872.840	666.165
265.366	21.091	872.186	665.960
266.380	21.214	871.064	665.513
267.395	21.064	870.940	664.787
268.409	21.004	869.574	663.459
269.424	20.993	868.816	662.779
270.439	20.945	868.238	662.097
271.453	20.947	867.343	661.365
272.468	20.781	866.452	659.997
273.482	20.673	866.154	659.304
274.497	20.594	865.650	658.560
275.512	20.642	865.068	658.241
276.526	20.801	863.835	657.847
277.541	20.723	863.812	657.476
278.555	20.643	863.219	656.663
279.570	20.966	862.641	657.387
280.585	21.087	862.108	657.378
281.599	21.108	861.750	657.125
282.614	21.037	860.745	656.033
283.628	20.959	860.195	655.261
284.643	20.749	859.725	654.059
285.657	20.738	859.330	653.659
286.672	20.799	858.921	653.516
287.687	20.834	858.290	653.112
288.701	20.841	857.593	652.549
289.716	20.792	857.306	652.089
290.730	20.815	856.684	651.645
291.745	20.940	856.158	651.654
292.760	20.988	855.448	651.236
293.774	21.011	854.279	650.375
294.789	21.195	854.338	651.046
295.803	21.305	853.640	650.868
296.818	20.841	853.133	648.696
297.833	20.829	852.324	647.979
298.847	20.858	852.079	647.844
299.862	20.819	851.413	647.135
300.876	21.009	850.530	647.110
301.891	21.155	849.957	647.160
302.906	21.273	849.582	647.253
303.920	21.341	848.981	646.992
304.935	21.473	848.375	646.961
305.949	21.555	848.221	647.090
306.964	21.485	847.667	646.348
307.979	21.349	846.894	645.200
308.993	21.251	846.212	644.263
310.008	21.265	845.643	643.825
311.022	21.475	844.999	644.050
312.037	21.563	844.212	643.717
313.052	21.243	843.914	642.257
314.066	21.194	842.786	641.161
315.081	21.022	842.045	639.909
316.095	20.911	841.526	639.049
317.110	20.972	840.650	638.555
318.125	20.912	840.875	638.448
319.139	21.086	840.029	638.385
320.154	20.901	839.730	637.426
321.168	20.880	838.869	636.639
322.183	20.977	838.256	636.469
323.197	21.115	838.069	636.777
324.212	21.048	838.184	636.565
325.227	21.200	836.745	635.968
326.241	21.240	836.373	635.774
327.256	21.013	835.900	634.531
328.270	21.009	835.311	634.016
329.285	21.028	834.896	633.711
330.300	21.007	833.952	632.864
331.314	20.977	833.608	632.438
332.329	21.063	832.969	632.211
333.343	21.271	832.586	632.614
334.358	21.409	832.054	632.654
335.373	21.371	831.491	632.032
336.387	21.343	831.220	631.668
337.402	21.523	830.862	631.991
338.416	21.457	830.189	631.185
339.431	21.663	829.711	631.508
340.446	21.846	829.088	631.639
341.460	21.977	828.895	631.908
342.475	21.894	828.591	631.323
343.489	22.030	828.407	631.614
344.504	22.008	827.378	630.694
345.519	22.081	827.093	630.685
346.533	22.352	826.470	631.124
347.548	22.035	826.394	629.873
348.562	21.849	825.500	628.469
349.577	21.703	824.566	627.181
350.592	21.513	823.773	625.845
351.606	21.503	823.008	625.171
352.621	21.393	822.930	624.663
353.635	21.434	822.370	624.328
354.650	21.494	821.972	624.187
355.665	21.699	821.156	624.243
356.679	21.648	821.148	623.998
357.694	21.711	820.962	624.026
358.708	21.855	820.044	623.784
359.723	21.722	819.498	622.841
360.738	21.776	818.899	622.525
361.752	21.736	818.320	621.887
362.767	21.813	818.204	622.018
363.781	21.975	817.874	622.286
364.796	22.056	817.759	622.431
365.810	22.173	817.489	622.582
366.825	22.247	817.045	622.451
367.840	22.470	816.652	622.885
368.854	22.393	815.976	622.044
369.869	22.319	815.292	621.206
370.883	22.081	814.821	619.951
371.898	22.135	814.155	619.582
372.913	22.456	812.948	619.738
373.927	22.389	812.722	619.275
374.942	22.271	812.405	618.564
375.956	22.274	811.745	618.018
376.971	22.336	811.371	617.895
377.986	22.473	810.616	617.746
379.000	22.705	810.217	618.200
380.015	22.771	809.956	618.179
381.029	22.475	809.792	616.961
382.044	22.462	808.967	616.234
383.059	22.577	808.044	615.878
384.073	22.636	807.519	615.629
385.088	22.394	807.234	614.511
386.102	22.131	806.415	612.919
387.117	22.113	805.574	612.161
388.132	22.167	805.039	611.886
389.146	21.957	804.931	611.021
390.161	22.172	804.358	611.279
391.175	22.338	804.157	611.651
392.190	22.494	803.817	611.879
393.205	22.366	803.399	611.061
394.219	22.235	802.779	610.082
395.234	22.266	802.092	609.615
396.248	22.122	801.376	608.516
397.263	21.900	801.020	607.424
398.278	21.793	800.448	606.567
399.292	21.786	799.817	606.009
400.307	21.804	799.457	605.746
401.321	21.718	799.381	605.336
402.336	21.889	798.901	605.512
403.350	21.963	798.583	605.471
404.365	22.174	798.088	605.771
405.380	22.309	797.747	605.922
406.394	22.531	797.449	606.407
407.409	22.485	797.139	605.960
408.423	22.644	796.834	606.222
409.438	22.880	796.157	606.462
410.453	22.861	795.758	606.041
411.467	22.968	795.405	606.084
412.482	22.865	794.883	605.278
413.496	22.968	794.531	605.311
414.511	23.154	794.381	605.779
415.526	23.177	793.934	605.465
416.540	23.059	793.065	604.346
417.555	22.922	792.668	603.520
418.569	22.939	792.039	603.046
419.584	22.750	792.220	602.484
420.599	22.862	791.702	602.420
421.613	165.232	1370.153	1796.820
422.628	143.325	1454.408	1796.907
