DTS Sentinel unit serial number:	SN413079Multiplexer serial number:	ORYXHardware model number:	OX4-SRSoftware version number:	ORYX F/W v4.00 Oryx Data Collector v3.7.2.0data status	okinstallation	princeton_trtdifferential loss correction	single-endedforward channel	channel 3reverse channel	N/Adate	2019/09/18time	17:04:35forward acquisition time	60.00reverse acquisition time	0.00gamma	496.2192k internal	0.2295k external	0.2295temperature offset calibration	0.9992default loss term (dB/km)	0.3790temperature slope calibration	1.0000multiplexer offset coefficient	1.0000multiplexer slope coefficient	1.0000fibre end	0.00T internal ref (°C)	40.00T ext. ref 1 (°C)	0.88T ext. ref 2 (°C)	32.81length (m)	temperature (°C)	Stokes	anti-Stokes-747.200	6.062	-0.153	-0.116
-746.185	-91.446	-0.319	0.093
-745.171	220.604	-0.155	0.254
-744.156	-200.000	0.003	0.171
-743.142	-81.627	0.191	0.064
-742.127	-29.115	0.242	0.142
-741.112	-7.931	-0.316	-0.218
-740.098	-92.926	0.062	0.018
-739.083	-200.000	0.047	0.260
-738.069	-100.263	0.125	0.032
-737.054	-47.738	0.189	-0.094
-736.039	3.430	0.108	-0.081
-735.025	-134.928	0.421	0.052
-734.010	-39.170	-0.374	-0.201
-732.996	-119.493	-0.308	-0.055
-731.981	302.714	0.099	0.188
-730.966	-156.598	-0.333	0.021
-729.952	800.000	-0.149	-0.444
-728.937	324.015	0.098	-0.191
-727.923	45.523	-0.172	0.162
-726.908	-200.000	-0.011	0.147
-725.894	-200.000	0.031	0.419
-724.879	-17.882	-0.315	-0.202
-723.864	-131.485	0.222	0.030
-722.850	-164.228	-0.351	0.017
-721.835	56.300	0.130	-0.129
-720.821	-107.731	-0.108	0.024
-719.806	37.111	-0.173	0.156
-718.791	98.993	0.069	-0.082
-717.777	-104.237	0.440	-0.104
-716.762	-104.128	0.179	-0.043
-715.748	-16.232	-0.229	0.149
-714.733	387.806	-0.060	0.128
-713.718	-77.665	0.232	-0.082
-712.704	-62.186	-0.194	-0.083
-711.689	-28.349	0.247	0.146
-710.675	-199.031	-0.286	-0.002
-709.660	101.157	-0.097	-0.115
-708.645	-27.194	-0.084	0.050
-707.631	-34.850	0.124	0.069
-706.616	-89.406	-0.219	-0.066
-705.602	-6.849	-0.325	-0.225
-704.587	41.589	0.047	-0.044
-703.572	800.000	0.018	0.069
-702.558	-200.000	0.009	0.121
-701.543	180.114	-0.066	-0.098
-700.529	418.723	0.105	0.230
-699.514	397.962	-0.057	0.122
-698.499	96.143	-0.184	-0.214
-697.485	-172.752	0.237	-0.008
-696.470	-35.376	0.112	-0.062
-695.456	-68.278	-0.189	0.075
-694.441	800.000	0.096	-0.309
-693.426	597.693	-0.054	0.138
-692.412	127.093	-0.144	-0.186
-691.397	-131.743	0.101	-0.013
-690.383	800.000	0.047	0.157
-689.368	263.270	0.029	-0.052
-688.354	-7.667	-0.027	-0.018
-687.339	800.000	-0.026	-0.111
-686.324	52.245	0.209	0.203
-685.310	800.000	-0.079	0.297
-684.295	2.166	0.210	-0.155
-683.281	101.206	-0.066	-0.078
-682.266	-60.133	0.113	-0.049
-681.251	-200.000	-0.041	-0.345
-680.237	245.382	-0.204	-0.350
-679.222	647.897	-0.170	-0.443
-678.208	256.359	-0.079	0.138
-677.193	-200.000	0.085	0.472
-676.178	-87.244	0.104	-0.032
-675.164	-62.763	-0.230	-0.097
-674.149	-73.008	-0.189	0.071
-673.135	470.245	0.012	0.028
-672.120	-95.162	0.141	-0.039
-671.105	-86.911	0.104	-0.032
-670.091	-200.000	-0.012	0.113
-669.076	59.898	0.165	-0.166
-668.062	-21.030	-0.026	-0.016
-667.047	-93.189	-0.337	0.096
-666.032	800.000	0.182	0.574
-665.018	-115.191	0.128	-0.025
-664.003	-42.930	-0.159	0.082
-662.989	800.000	-0.101	0.347
-661.974	112.852	-0.081	0.100
-660.959	177.632	0.180	0.267
-659.945	99.945	0.103	0.122
-658.930	-5.145	-0.120	0.084
-657.916	-168.057	0.114	-0.005
-656.901	216.149	0.024	0.038
-655.886	607.579	-0.183	0.464
-654.872	-8.947	-0.252	-0.172
-653.857	-131.475	-0.264	-0.036
-652.843	-91.996	0.157	-0.045
-651.828	-9.882	-0.134	0.091
-650.814	207.661	-0.202	0.321
-649.799	11.774	-0.209	0.164
-648.784	98.364	0.086	-0.101
-647.770	-62.833	0.133	-0.056
-646.755	63.289	0.090	0.091
-645.741	-189.422	-0.067	0.001
-644.726	-200.000	-0.027	-0.279
-643.711	-153.036	-0.295	-0.021
-642.697	-200.000	0.040	0.380
-641.682	112.919	0.165	0.203
-640.668	67.693	0.170	-0.177
-639.653	-26.758	-0.113	0.067
-638.638	314.278	-0.029	-0.056
-637.624	-200.000	0.027	0.315
-636.609	274.584	-0.121	0.219
-635.595	703.814	-0.029	-0.077
-634.580	-154.759	0.035	-0.002
-633.565	-200.000	-0.003	-0.183
-632.551	286.018	-0.240	-0.440
-631.536	-20.042	0.211	0.133
-630.522	-200.000	-0.012	0.278
-629.507	-156.377	-0.234	0.015
-628.492	-143.286	0.164	-0.016
-627.478	-200.000	0.044	-0.229
-626.463	-32.217	0.220	-0.125
-625.449	-15.703	-0.077	0.050
-624.434	-98.735	-0.205	0.053
-623.419	-86.539	-0.279	0.087
-622.405	30.319	-0.320	0.278
-621.390	635.932	0.089	-0.231
-620.376	800.000	-0.113	0.384
-619.361	-200.000	0.066	0.309
-618.346	-48.654	-0.139	-0.068
-617.332	56.748	0.130	0.129
-616.317	-21.703	-0.269	-0.167
-615.303	63.440	-0.210	0.214
-614.288	37.628	-0.230	-0.208
-613.273	-200.000	-0.017	0.416
-612.259	-59.789	0.362	-0.158
-611.244	-195.522	-0.365	0.003
-610.230	25.872	-0.201	0.171
-609.215	-36.196	0.171	0.094
-608.201	800.000	-0.025	0.088
-607.186	597.749	-0.064	-0.161
-606.171	-110.443	0.068	0.014
-605.157	94.580	-0.094	-0.108
-604.142	47.092	0.095	-0.090
-603.128	-200.000	-0.038	-0.182
-602.113	-20.270	-0.150	0.094
-601.098	-200.000	-0.020	-0.152
-600.084	-200.000	0.006	0.070
-599.069	-200.000	-0.009	-0.175
-598.055	-200.000	0.035	-0.167
-597.040	-104.500	0.336	0.079
-596.025	-200.000	-0.003	-0.271
-595.011	-200.000	0.001	0.237
-593.996	13.582	0.073	0.058
-592.982	-104.184	0.172	-0.041
-591.967	-200.000	-0.005	-0.305
-590.952	-200.000	0.054	0.304
-589.938	-200.000	-0.013	0.331
-588.923	214.384	0.039	-0.063
-587.909	231.740	-0.065	-0.108
-586.894	-45.839	0.207	0.104
-585.879	-84.343	-0.235	0.076
-584.865	86.531	0.099	0.111
-583.850	-200.000	0.007	0.166
-582.836	-60.293	-0.177	-0.077
-581.821	-96.412	-0.070	-0.019
-580.806	800.000	-0.091	0.261
-579.792	-3.403	-0.390	-0.276
-578.777	-103.544	-0.229	-0.055
-577.763	246.311	0.136	0.233
-576.748	790.468	-0.141	-0.394
-575.733	-149.179	-0.073	-0.006
-574.719	-12.605	0.052	0.035
-573.704	-62.099	0.163	-0.069
-572.690	-200.000	-0.047	-0.234
-571.675	-200.000	-0.008	0.222
-570.661	-8.750	0.207	0.141
-569.646	-50.586	-0.145	-0.070
-568.631	-121.056	0.170	-0.029
-567.617	-125.245	0.239	0.037
-566.602	138.827	-0.284	0.379
-565.588	70.542	0.111	-0.117
-564.573	800.000	-0.060	-0.214
-563.558	-165.178	0.351	0.016
-562.544	-61.518	-0.515	-0.220
-561.529	-200.000	0.021	-0.145
-560.515	-5.762	-0.341	-0.237
-559.500	800.000	-0.068	-0.199
-558.485	2.215	-0.194	0.143
-557.471	206.276	0.068	-0.108
-556.456	-118.121	-0.155	0.028
-555.442	-200.000	0.056	0.270
-554.427	800.000	0.113	0.341
-553.412	77.867	-0.155	0.168
-552.398	49.697	0.206	-0.197
-551.383	-94.682	0.264	-0.073
-550.369	-127.404	0.246	-0.036
-549.354	141.433	0.065	-0.088
-548.339	62.067	-0.106	-0.107
-547.325	-54.420	-0.237	0.109
-546.310	83.888	-0.077	0.086
-545.296	-200.000	0.034	-0.291
-544.281	247.546	0.146	0.251
-543.266	216.749	0.131	0.211
-542.252	714.287	0.026	-0.070
-541.237	-200.000	-0.047	-0.228
-540.223	266.368	-0.057	0.100
-539.208	143.225	-0.112	0.152
-538.193	719.625	0.066	0.177
-537.179	15.784	0.029	-0.023
-536.164	-200.000	-0.033	0.166
-535.150	800.000	0.100	-0.387
-534.135	-29.446	-0.060	-0.035
-533.121	-28.358	0.032	-0.019
-532.106	44.388	0.041	-0.038
-531.091	-200.000	0.015	0.138
-530.077	800.000	0.040	-0.130
-529.062	498.240	-0.085	-0.199
-528.048	-200.000	-0.016	-0.128
-527.033	-200.000	0.021	-0.466
-526.018	306.416	0.041	0.077
-525.004	183.101	-0.170	-0.255
-523.989	589.309	0.088	-0.220
-522.975	39.411	-0.214	-0.194
-521.960	169.846	-0.187	-0.270
-520.945	-200.000	0.022	0.201
-519.931	-200.000	-0.017	0.210
-518.916	-42.631	-0.323	-0.166
-517.902	-46.578	-0.326	0.162
-516.887	-200.000	0.008	0.322
-515.872	-200.000	-0.034	-0.164
-514.858	24.803	0.328	-0.275
-513.843	-200.000	-0.005	-0.082
-512.829	-200.000	-0.011	0.364
-511.814	-200.000	-0.036	-0.224
-510.799	800.000	-0.111	0.375
-509.785	-13.995	0.120	0.079
-508.770	-175.042	-0.116	0.003
-507.756	208.348	-0.055	0.087
-506.741	115.029	0.124	0.154
-505.726	-200.000	0.003	0.082
-504.712	-200.000	-0.066	0.476
-503.697	-200.000	0.006	0.197
-502.683	-171.465	-0.167	-0.006
-501.668	234.343	-0.046	-0.076
-500.653	-131.832	0.430	0.057
-499.639	41.685	-0.240	-0.221
-498.624	-86.772	0.291	-0.090
-497.610	60.267	0.150	0.150
-496.595	-81.461	-0.252	0.084
-495.581	-150.028	-0.108	0.009
-494.566	408.252	-0.016	-0.035
-493.551	-200.000	-0.041	0.268
-492.537	-170.431	0.230	-0.008
-491.522	5.390	0.056	0.042
-490.508	800.000	-0.013	0.049
-489.493	39.305	-0.047	-0.043
-488.478	-23.484	0.100	-0.061
-487.464	-16.523	-0.172	0.110
-486.449	-142.388	-0.510	0.051
-485.435	-67.189	-0.134	-0.053
-484.420	130.776	-0.134	0.173
-483.405	-200.000	-0.080	-0.424
-482.391	800.000	-0.121	-0.355
-481.376	127.313	-0.094	-0.121
-480.362	800.000	-0.065	-0.234
-479.347	49.494	-0.211	-0.201
-478.332	197.090	-0.163	-0.251
-477.318	-23.200	-0.239	0.146
-476.303	438.469	0.090	0.198
-475.289	-200.000	-0.014	-0.184
-474.274	49.982	0.191	-0.182
-473.259	54.019	0.109	-0.106
-472.245	80.934	0.180	0.196
-471.230	15.485	0.151	0.120
-470.216	67.572	-0.199	-0.205
-469.201	800.000	-0.048	-0.178
-468.186	-31.807	-0.089	-0.050
-467.172	93.024	-0.233	-0.266
-466.157	-200.000	0.029	-0.326
-465.143	-132.223	-0.225	-0.029
-464.128	-105.085	-0.217	-0.050
-463.113	-127.083	-0.148	0.022
-462.099	637.327	0.035	-0.090
-461.084	429.692	0.186	-0.407
-460.070	-70.933	0.251	0.096
-459.055	800.000	-0.033	0.146
-458.040	-79.967	-0.425	-0.144
-457.026	-62.666	0.195	-0.082
-456.011	-115.402	0.162	-0.031
-454.997	116.467	-0.194	-0.240
-453.982	46.253	-0.159	-0.149
-452.968	-70.216	-0.138	-0.053
-451.953	-200.000	0.011	0.154
-450.938	-184.801	-0.160	0.003
-449.924	240.983	0.313	0.528
-448.909	-95.655	0.147	-0.040
-447.895	-18.952	-0.276	-0.173
-446.880	-149.369	-0.073	0.006
-445.865	-200.000	0.015	0.157
-444.851	55.945	-0.163	-0.160
-443.836	-200.000	0.027	0.142
-442.822	135.032	-0.167	0.219
-441.807	65.213	0.308	-0.314
-440.792	-106.999	0.236	0.053
-439.778	800.000	0.070	0.231
-438.763	218.926	0.086	-0.139
-437.749	-43.012	0.220	0.113
-436.734	45.720	0.108	0.101
-435.719	-200.000	0.001	0.133
-434.705	-150.027	0.179	-0.014
-433.690	96.514	-0.052	-0.060
-432.676	-135.741	0.406	0.049
-431.661	78.751	0.178	-0.193
-430.646	-108.974	0.488	-0.105
-429.632	147.885	-0.229	-0.312
-428.617	-0.173	0.162	-0.116
-427.603	800.000	0.034	0.099
-426.588	800.000	-0.081	0.281
-425.573	-200.000	0.002	0.080
-424.559	800.000	-0.070	-0.287
-423.544	-49.521	0.287	-0.138
-422.530	-67.098	0.191	0.076
-421.515	190.189	0.117	0.177
-420.500	-48.287	0.182	-0.089
-419.486	14.651	0.151	0.119
-418.471	800.000	-0.074	-0.221
-417.457	176.364	-0.160	-0.234
-416.442	-82.240	-0.165	0.054
-415.428	-200.000	-0.018	0.323
-414.413	86.246	-0.109	-0.121
-413.398	-200.000	-0.025	-0.179
-412.384	-100.340	-0.240	-0.060
-411.369	334.667	0.111	-0.216
-410.355	238.676	0.085	0.142
-409.340	-107.360	-0.034	0.008
-408.325	-200.000	-0.027	0.131
-407.311	49.597	0.115	-0.109
-406.296	246.501	0.085	0.145
-405.282	-200.000	0.014	0.261
-404.267	28.812	-0.416	-0.356
-403.252	-158.791	-0.142	0.008
-402.238	-121.417	-0.109	-0.018
-401.223	-17.725	-0.263	-0.167
-400.209	-30.717	-0.205	0.117
-399.194	161.997	0.107	0.151
-398.179	-200.000	0.020	0.121
-397.165	-117.730	0.388	0.070
-396.150	46.415	0.184	0.172
-395.136	-66.971	0.300	0.119
-394.121	-200.000	-0.033	-0.241
-393.106	55.360	-0.192	0.187
-392.092	64.305	-0.317	0.322
-391.077	-91.990	-0.300	0.086
-390.063	-134.901	0.354	0.043
-389.048	43.986	-0.121	-0.111
-388.033	-55.520	0.271	0.122
-387.019	800.000	0.022	-0.085
-386.004	68.770	-0.145	0.150
-384.990	-135.333	0.083	0.010
-383.975	118.698	0.118	0.148
-382.960	-195.138	-0.158	0.001
-381.946	56.630	0.298	0.292
-380.931	-29.921	-0.110	0.063
-379.917	77.200	0.228	0.244
-378.902	-48.971	0.246	0.119
-377.888	-200.000	0.066	0.521
-376.873	-200.000	-0.021	0.253
-375.858	-150.704	-0.289	-0.022
-374.844	-57.942	-0.124	0.055
-373.829	453.402	0.104	-0.232
-372.815	155.487	0.265	0.368
-371.800	18.793	0.042	-0.034
-370.785	-200.000	0.036	-0.515
-369.771	-91.912	0.207	-0.059
-368.756	57.205	0.272	0.268
-367.742	800.000	0.108	0.354
-366.727	-53.843	-0.346	0.159
-365.712	-200.000	-0.018	0.126
-364.698	-78.214	0.097	-0.034
-363.683	800.000	-0.079	0.223
-362.669	800.000	-0.092	-0.391
-361.654	354.664	0.092	-0.183
-360.639	-200.000	-0.023	-0.294
-359.625	-16.702	0.355	0.226
-358.610	223.644	0.062	0.100
-357.596	162.479	0.183	0.258
-356.581	105.436	0.196	-0.233
-355.566	120.765	-0.155	-0.193
-354.552	13.226	0.125	-0.098
-353.537	311.725	-0.149	-0.282
-352.523	0.230	0.249	-0.179
-351.508	248.728	0.118	-0.201
-350.493	114.252	-0.073	-0.090
-349.479	-155.933	-0.108	-0.007
-348.464	-96.769	-0.267	0.071
-347.450	-0.793	0.288	-0.206
-346.435	132.906	-0.110	0.143
-345.420	440.053	0.093	0.205
-344.406	800.000	0.127	-0.406
-343.391	-37.668	0.153	-0.082
-342.377	800.000	-0.023	-0.065
-341.362	151.268	0.100	-0.136
-340.348	-103.632	-0.177	0.042
-339.333	-188.683	0.212	-0.003
-338.318	-46.981	0.171	-0.084
-337.304	-200.000	-0.025	-0.160
-336.289	-103.338	-0.263	-0.062
-335.275	-200.000	-0.007	-0.074
-334.260	-200.000	0.001	0.137
-333.245	75.952	-0.059	-0.062
-332.231	-200.000	-0.012	0.199
-331.216	-85.528	-0.213	-0.067
-330.202	23.442	0.171	0.142
-329.187	-200.000	0.005	-0.102
-328.172	-200.000	0.070	-0.505
-327.158	-200.000	0.085	-0.432
-326.143	333.759	0.120	-0.233
-325.129	360.485	0.057	-0.115
-324.114	-116.466	0.277	-0.051
-323.099	550.112	0.059	-0.142
-322.085	800.000	-0.012	-0.054
-321.070	-200.000	-0.014	0.241
-320.056	680.934	-0.038	0.100
-319.041	36.189	-0.135	0.120
-318.026	20.466	0.043	-0.035
-317.012	-10.577	0.166	-0.110
-315.997	5.330	0.121	0.090
-314.983	655.821	-0.048	-0.125
-313.968	-200.000	0.044	-0.375
-312.953	16.837	0.175	0.139
-311.939	571.370	0.107	0.262
-310.924	77.166	-0.055	-0.059
-309.910	800.000	0.079	0.306
-308.895	-119.132	-0.178	-0.031
-307.880	8.275	-0.160	0.121
-306.866	120.749	0.115	-0.144
-305.851	-73.401	-0.176	0.065
-304.837	-48.869	0.292	-0.141
-303.822	315.518	-0.050	-0.095
-302.807	-78.535	-0.083	-0.028
-301.793	-116.273	0.118	0.022
-300.778	157.441	-0.150	-0.209
-299.764	-148.180	0.323	-0.027
-298.749	-92.356	0.105	-0.030
-297.735	-130.055	-0.375	-0.051
-296.720	800.000	0.051	0.179
-295.705	800.000	-0.053	-0.182
-294.691	-17.971	0.195	-0.123
-293.676	-162.257	-0.204	-0.010
-292.662	-68.765	0.365	0.142
-291.647	6.814	0.219	0.164
-290.632	-2.336	-0.192	-0.135
-289.618	139.488	0.080	0.106
-288.603	-200.000	-0.035	0.248
-287.589	209.737	0.301	0.473
-286.574	-200.000	0.036	0.161
-285.559	392.627	0.085	0.177
-284.545	25.351	0.109	0.091
-283.530	-200.000	-0.013	-0.382
-282.516	-200.000	-0.006	0.112
-281.501	-200.000	0.021	-0.248
-280.486	639.381	0.045	-0.116
-279.472	-0.102	-0.172	-0.123
-278.457	-200.000	-0.003	0.256
-277.443	670.867	0.100	0.260
-276.428	-75.421	-0.262	-0.094
-275.413	-17.351	0.158	0.100
-274.399	237.075	-0.051	-0.084
-273.384	-56.802	0.184	0.081
-272.370	58.383	0.134	-0.132
-271.355	81.490	-0.148	-0.161
-270.340	-65.342	-0.172	0.069
-269.326	-200.000	-0.005	0.135
-268.311	236.955	0.094	0.156
-267.297	395.571	-0.074	-0.155
-266.282	-113.221	0.221	-0.044
-265.267	-200.000	-0.009	0.093
-264.253	92.841	-0.188	-0.213
-263.238	10.210	-0.221	-0.169
-262.224	340.464	-0.064	-0.125
-261.209	-34.580	-0.094	-0.051
-260.195	369.083	0.140	-0.285
-259.180	-43.593	0.041	-0.021
-258.165	619.014	-0.068	-0.172
-257.151	27.866	0.088	0.074
-256.136	38.287	-0.203	0.181
-255.122	-100.307	-0.182	0.045
-254.107	529.803	-0.139	0.328
-253.092	348.314	0.106	-0.209
-252.078	800.000	0.029	0.089
-251.063	167.247	-0.172	0.244
-250.049	-151.317	-0.092	0.007
-249.034	-3.618	0.167	0.116
-248.019	323.981	-0.035	0.067
-247.005	-200.000	0.018	-0.138
-245.990	-171.626	-0.167	0.006
-244.976	216.149	0.071	0.113
-243.961	-145.077	0.157	-0.014
-242.946	-32.224	0.171	-0.096
-241.932	-200.000	0.000	-0.005
-240.917	-51.535	-0.177	0.083
-239.903	15.691	-0.210	-0.165
-238.888	552.407	0.018	0.044
-237.873	289.699	0.094	-0.171
-236.859	115.525	0.163	0.200
-235.844	-62.706	-0.369	-0.153
-234.830	-150.165	-0.254	-0.020
-233.815	-50.876	-0.092	-0.043
-232.800	72.507	-0.163	-0.170
-231.786	115.655	-0.027	-0.033
-230.771	-185.902	-0.388	-0.006
-229.757	-0.597	0.038	0.027
-228.742	-3.785	-0.129	0.090
-227.727	-52.415	0.041	-0.019
-226.713	-83.618	-0.120	-0.039
-225.698	96.597	-0.108	0.124
-224.684	-200.000	-0.019	0.237
-223.669	69.718	-0.148	-0.152
-222.655	111.224	0.080	-0.096
-221.640	-200.000	-0.010	0.051
-220.625	4.259	0.204	0.150
-219.611	-200.000	-0.002	-0.066
-218.596	-2.372	-0.261	-0.183
-217.582	-113.888	0.237	0.046
-216.567	74.916	0.146	0.154
-215.552	-200.000	-0.026	0.136
-214.538	-76.851	-0.429	-0.150
-213.523	-19.413	-0.408	-0.253
-212.509	800.000	-0.066	-0.245
-211.494	800.000	0.113	-0.322
-210.479	119.632	0.365	-0.453
-209.465	-54.809	0.292	0.132
-208.450	50.631	-0.061	-0.058
-207.436	-132.579	-0.068	-0.009
-206.421	234.748	0.037	0.062
-205.406	-200.000	-0.008	-0.256
-204.392	175.084	-0.109	0.158
-203.377	-200.000	0.011	-0.085
-202.363	-136.863	0.402	-0.046
-201.348	-200.000	-0.017	0.099
-200.333	336.646	-0.185	0.359
-199.319	-106.177	-0.073	0.016
-198.304	-171.707	-0.136	0.004
-197.290	24.641	0.236	0.196
-196.275	-200.000	-0.031	0.274
-195.260	56.694	-0.069	0.067
-194.246	277.089	0.113	0.202
-193.231	61.109	0.252	-0.250
-192.217	-72.685	-0.208	-0.077
-191.202	-200.000	-0.008	-0.151
-190.187	418.313	0.221	-0.473
-189.173	429.619	0.134	0.290
-188.158	-30.259	-0.139	0.079
-187.144	152.742	0.177	0.241
-186.129	69.430	-0.071	-0.073
-185.114	60.201	0.238	0.235
-184.100	800.000	0.011	0.034
-183.085	-200.000	0.027	0.160
-182.071	-200.000	-0.041	0.253
-181.056	-151.024	-0.259	-0.020
-180.042	150.292	0.274	0.372
-179.027	-143.039	0.174	-0.017
-178.012	17.632	0.114	-0.091
-176.998	-200.000	-0.002	-0.227
-175.983	298.354	0.152	0.280
-174.969	-200.000	-0.040	0.283
-173.954	-44.682	-0.330	0.165
-172.939	-88.664	0.136	-0.040
-171.925	-154.827	0.238	0.016
-170.910	-99.432	0.211	-0.053
-169.896	307.585	0.038	-0.071
-168.881	-8.281	0.501	0.337
-167.866	244.498	-0.131	-0.219
-166.852	-93.672	0.174	0.048
-165.837	800.000	0.033	-0.122
-164.823	-120.668	-0.027	0.005
-163.808	147.340	-0.154	0.207
-162.793	-111.520	-0.221	0.045
-161.779	-200.000	-0.029	0.204
-160.764	139.937	0.192	0.253
-159.750	15.572	0.136	-0.107
-158.735	125.580	-0.068	0.085
-157.720	208.765	-0.139	0.218
-156.706	188.274	-0.085	0.127
-155.691	-200.000	-0.018	0.129
-154.677	-200.000	-0.058	-0.278
-153.662	781.959	0.044	-0.121
-152.647	-200.000	-0.017	-0.074
-151.633	-80.842	0.337	0.112
-150.618	-4.290	-0.460	-0.318
-149.604	-200.000	-0.031	-0.399
-148.589	-200.000	-0.045	-0.393
-147.574	-78.781	-0.065	0.022
-146.560	-68.588	0.090	0.035
-145.545	6.309	0.214	-0.158
-144.531	94.099	-0.111	-0.125
-143.516	238.246	-0.104	0.172
-142.502	656.469	-0.152	0.391
-141.487	800.000	-0.051	-0.184
-140.472	2.250	-0.172	-0.124
-139.458	-200.000	0.034	0.189
-138.443	-200.000	0.017	0.254
-137.429	800.000	0.072	-0.208
-136.414	-49.632	0.113	0.054
-135.399	187.360	0.154	-0.229
-134.385	-12.428	0.273	0.178
-133.370	-1.180	-0.394	0.278
-132.356	-200.000	0.020	0.201
-131.341	335.980	-0.066	0.127
-130.326	624.870	0.068	0.171
-129.312	-79.837	0.292	-0.098
-128.297	-40.319	0.288	0.150
-127.283	31.035	0.119	-0.102
-126.268	-200.000	-0.069	-0.311
-125.253	798.079	0.103	0.283
-124.239	33.442	-0.216	0.187
-123.224	-9.015	-0.359	0.240
-122.210	-200.000	-0.008	-0.068
-121.195	423.701	-0.142	-0.304
-120.180	800.000	0.048	0.161
-119.166	800.000	0.080	0.224
-118.151	800.000	-0.064	0.231
-117.137	-200.000	-0.002	0.096
-116.122	-200.000	-0.001	0.008
-115.107	-32.039	0.057	0.032
-114.093	160.810	0.133	-0.185
-113.078	-60.614	0.103	-0.044
-112.064	-148.251	0.527	0.043
-111.049	90.032	-0.056	-0.062
-110.034	-65.654	0.305	0.122
-109.020	89.704	-0.106	0.118
-108.005	-130.370	0.200	-0.027
-106.991	-117.926	0.252	0.045
-105.976	800.000	-0.015	0.061
-104.962	-59.587	-0.209	0.089
-103.947	-141.541	-0.397	0.040
-102.932	-110.865	-0.278	-0.057
-101.918	55.910	0.135	-0.131
-100.903	7.612	0.109	-0.081
-99.889	-8.347	-0.316	-0.212
-98.874	93.289	-0.039	-0.044
-97.859	144.440	0.103	-0.137
-96.845	-200.000	-0.014	-0.072
-95.830	-78.013	0.187	-0.064
-94.816	-54.458	-0.162	0.073
-93.801	-200.000	0.037	0.181
-92.786	-133.248	0.057	0.007
-91.772	-150.997	0.182	0.014
-90.757	-86.726	0.057	0.018
-89.743	-6.371	-0.069	-0.047
-88.728	-127.162	-0.011	-0.002
-87.713	403.254	0.070	-0.146
-86.699	-60.955	0.138	-0.058
-85.684	800.000	0.085	-0.318
-84.670	-136.111	-0.293	-0.034
-83.655	-200.000	-0.030	0.327
-82.640	-124.174	-0.112	0.018
-81.626	-74.046	0.170	0.061
-80.611	-28.787	-0.092	0.053
-79.597	-91.941	0.320	-0.090
-78.582	-89.591	-0.149	0.043
-77.567	-90.214	0.091	0.026
-76.553	-200.000	-0.058	-0.277
-75.538	-106.299	0.056	-0.013
-74.524	-56.977	0.260	-0.114
-73.509	-200.000	0.012	-0.080
-72.494	210.898	0.016	0.025
-71.480	413.711	-0.021	0.044
-70.465	96.303	-0.063	-0.072
-69.451	800.000	0.051	0.196
-68.436	-118.873	-0.068	-0.012
-67.422	569.978	-0.064	-0.155
-66.407	-109.578	-0.148	-0.031
-65.392	226.236	0.188	0.304
-64.378	24.031	0.083	0.068
-63.363	125.879	0.124	0.155
-62.349	240.658	0.102	0.169
-61.334	47.500	-0.645	-0.598
-60.319	142.294	0.470	0.621
-59.305	-200.000	-0.040	-0.990
-58.290	0.880	0.875	0.624
-57.276	274.603	0.812	1.431
-56.261	-200.000	77.793	501.086
-55.246	492.142	1343.302	3062.874
-54.232	143.636	2591.660	3435.980
-53.217	110.865	2279.901	2730.523
-52.203	49.939	1803.965	1693.228
-51.188	43.218	1601.709	1455.068
-50.173	40.729	1571.467	1409.892
-49.159	56.026	1611.218	1555.694
-48.144	60.707	1631.142	1608.512
-47.130	43.780	1593.115	1451.064
-46.115	40.269	1578.542	1412.731
-45.100	40.166	1574.695	1408.498
-44.086	40.102	1572.373	1405.912
-43.071	39.987	1570.369	1403.250
-42.057	39.930	1568.679	1401.281
-41.042	39.908	1567.473	1399.992
-40.027	39.981	1565.105	1398.336
-39.013	39.940	1563.956	1396.962
-37.998	39.964	1562.713	1395.967
-36.984	40.005	1561.373	1395.007
-35.969	40.075	1560.214	1394.410
-34.954	40.054	1558.290	1392.487
-33.940	39.955	1557.160	1390.720
-32.925	39.991	1555.435	1389.383
-31.911	40.015	1554.102	1388.305
-30.896	40.152	1552.403	1387.695
-29.881	40.058	1551.578	1386.242
-28.867	40.107	1549.667	1384.818
-27.852	39.994	1548.685	1383.097
-26.838	39.984	1547.299	1381.733
-25.823	40.014	1545.020	1379.857
-24.809	39.970	1543.580	1378.209
-23.794	40.066	1541.977	1377.391
-22.779	40.027	1540.850	1376.059
-21.765	40.061	1539.631	1375.148
-20.750	40.047	1538.490	1373.982
-19.736	40.027	1537.827	1373.191
-18.721	40.088	1536.153	1372.069
-17.706	40.086	1534.865	1370.846
-16.692	39.884	1534.178	1368.784
-15.677	40.022	1532.700	1368.363
-14.663	39.979	1531.802	1367.211
-13.648	39.976	1530.869	1366.303
-12.633	39.989	1529.581	1365.187
-11.619	39.977	1528.999	1364.530
-10.604	40.019	1527.809	1363.706
-9.590	39.949	1527.306	1362.716
-8.575	40.031	1526.165	1362.211
-7.560	39.919	1525.491	1360.785
-6.546	39.946	1524.459	1359.994
-5.531	39.885	1523.929	1359.050
-4.517	40.000	1522.508	1358.516
-3.502	40.015	1521.353	1357.540
-2.487	40.012	1520.352	1356.573
-1.473	40.006	1519.233	1355.474
-0.458	39.934	1518.267	1354.070
0.556	39.065	1507.863	1341.888
1.571	35.080	1477.987	1288.439
2.586	29.606	1409.364	1193.261
3.600	26.187	1319.068	1095.998
4.615	23.449	1267.885	1037.384
5.629	19.644	1209.116	967.936
6.644	10.239	1119.007	846.732
7.659	2.457	1073.278	772.886
8.673	1.076	1066.926	761.306
9.688	0.810	1064.873	758.444
10.702	0.829	1063.045	757.166
11.717	0.806	1061.260	755.713
12.731	3.181	1064.281	769.688
13.746	11.328	1075.346	818.661
14.761	17.278	1082.433	853.957
15.775	17.839	1081.987	856.348
16.790	17.160	1080.351	851.576
17.804	16.010	1078.730	844.463
18.819	15.342	1076.233	839.091
19.834	14.668	1074.891	834.605
20.848	14.531	1073.430	832.712
21.863	14.332	1072.911	831.242
22.877	13.958	1072.125	828.692
23.892	13.812	1071.111	827.108
24.907	13.702	1070.518	826.029
25.921	13.673	1069.619	825.116
26.936	13.679	1069.184	824.739
27.950	13.690	1068.448	824.151
28.965	13.733	1067.581	823.625
29.980	13.750	1066.557	822.847
30.994	13.931	1065.721	823.025
32.009	13.886	1064.465	821.760
33.023	13.898	1063.780	821.219
34.038	13.866	1063.023	820.401
35.053	13.955	1062.220	820.150
36.067	13.769	1061.731	818.783
37.082	13.842	1060.500	818.119
38.096	13.855	1060.141	817.834
39.111	13.960	1058.557	817.055
40.126	13.871	1057.750	815.923
41.140	13.757	1057.651	815.218
42.155	13.767	1056.128	814.017
43.169	13.709	1055.505	813.182
44.184	13.657	1054.100	811.774
45.199	13.626	1053.338	810.963
46.213	13.723	1052.247	810.526
47.228	13.575	1051.219	808.939
48.242	13.693	1049.931	808.449
49.257	13.808	1049.131	808.325
50.271	13.758	1048.084	807.202
51.286	13.767	1047.023	806.359
52.301	13.721	1046.400	805.583
53.315	13.820	1045.437	805.249
54.330	13.737	1044.745	804.243
55.344	13.772	1043.454	803.348
56.359	13.641	1043.150	802.409
57.374	13.731	1042.056	801.931
58.388	13.739	1040.978	801.071
59.403	13.662	1040.368	800.160
60.417	13.656	1039.531	799.416
61.432	13.608	1038.914	798.637
62.447	13.637	1038.172	798.137
63.461	13.622	1037.362	797.372
64.476	13.555	1036.101	796.011
65.490	13.472	1035.395	794.999
66.505	13.598	1034.680	794.982
67.520	13.639	1033.814	794.445
68.534	13.596	1032.770	793.364
69.549	13.551	1031.921	792.427
70.563	13.571	1031.097	791.822
71.578	13.723	1030.637	792.122
72.593	13.649	1029.601	790.905
73.607	13.603	1028.517	789.780
74.622	13.484	1027.648	788.479
75.636	13.543	1027.100	788.270
76.651	13.663	1026.215	788.090
77.666	13.601	1025.260	786.991
78.680	13.516	1024.763	786.137
79.695	13.557	1024.233	785.859
80.709	13.535	1023.802	785.354
81.724	13.571	1022.566	784.506
82.739	13.671	1021.462	784.063
83.753	13.517	1021.490	783.284
84.768	13.623	1020.514	782.967
85.782	13.794	1019.183	782.685
86.797	13.756	1018.677	782.048
87.812	13.890	1017.521	781.724
88.826	13.813	1016.721	780.678
89.841	13.630	1016.294	779.418
90.855	13.783	1014.929	779.023
91.870	13.750	1014.663	778.592
92.884	13.746	1013.601	777.689
93.899	13.752	1013.016	777.200
94.914	13.973	1011.856	777.278
95.928	13.936	1011.012	776.385
96.943	13.983	1010.555	776.186
97.957	13.928	1009.897	775.357
98.972	13.824	1009.211	774.276
99.987	13.836	1008.058	773.377
101.001	13.838	1007.639	773.000
102.016	13.884	1006.376	772.174
103.030	13.731	1006.011	771.113
104.045	13.816	1004.951	770.630
105.060	13.832	1003.974	769.883
106.074	13.704	1003.202	768.634
107.089	13.752	1002.046	767.900
108.103	13.691	1001.497	767.130
109.118	13.673	1000.297	766.062
110.133	13.735	999.558	765.713
111.147	13.704	998.963	765.045
112.162	13.644	997.780	763.798
113.176	13.704	997.145	763.521
114.191	13.575	996.306	762.217
115.206	13.614	995.491	761.705
116.220	13.673	994.705	761.304
117.235	13.717	993.784	760.736
118.249	13.793	992.618	760.124
119.264	13.751	991.575	759.064
120.279	13.692	990.996	758.283
121.293	13.781	990.357	758.136
122.308	13.687	989.651	757.100
123.322	13.625	988.619	755.960
124.337	13.640	987.464	755.077
125.352	13.670	986.445	754.368
126.366	13.667	985.200	753.334
127.381	13.731	984.447	752.984
128.395	13.709	983.467	752.069
129.410	13.789	982.128	751.340
130.424	13.714	981.538	750.483
131.439	13.824	980.712	750.284
132.454	13.831	979.738	749.503
133.468	13.814	979.252	748.987
134.483	13.740	978.436	747.962
135.497	13.816	977.845	747.789
136.512	13.888	976.915	747.334
137.527	13.854	976.313	746.654
138.541	13.931	975.328	746.179
139.556	13.865	974.596	745.257
140.570	13.892	973.994	744.855
141.585	13.787	973.141	743.667
142.600	14.002	972.433	744.020
143.614	13.843	971.530	742.552
144.629	13.878	971.217	742.406
145.643	13.939	970.077	741.740
146.658	13.951	968.948	740.864
147.673	13.897	967.883	739.744
148.687	13.826	967.384	738.983
149.702	13.800	966.157	737.864
150.716	13.826	965.488	737.403
151.731	13.843	964.764	736.860
152.746	13.855	963.853	736.152
153.760	13.830	963.384	735.617
154.775	13.869	962.214	734.831
155.789	13.860	961.506	734.186
156.804	13.918	960.859	733.882
157.819	14.053	960.259	733.957
158.833	14.036	959.450	733.200
159.848	13.991	958.642	732.319
160.862	14.002	958.261	732.010
161.877	13.950	957.720	731.305
162.892	13.894	956.945	730.402
163.906	13.873	955.744	729.329
164.921	13.937	954.727	728.769
165.935	13.904	954.031	728.029
166.950	13.972	952.943	727.429
167.964	13.956	952.226	726.749
168.979	13.999	951.237	726.118
169.994	14.084	950.283	725.696
171.008	14.096	949.316	724.945
172.023	13.948	948.820	723.858
173.037	13.937	948.252	723.313
174.052	14.108	947.426	723.361
175.067	14.046	946.649	722.435
176.081	14.147	945.501	721.934
177.096	14.033	944.763	720.812
178.110	14.045	943.944	720.175
179.125	14.046	943.120	719.488
180.140	14.096	942.050	718.824
181.154	14.070	941.568	718.279
182.169	14.083	941.078	717.900
183.183	14.239	940.336	717.943
184.198	14.248	939.757	717.476
185.213	14.221	939.071	716.774
186.227	14.118	938.634	715.931
187.242	14.174	937.838	715.501
188.256	14.283	937.092	715.340
189.271	14.352	936.011	714.746
190.286	14.379	935.393	714.327
191.300	14.291	934.441	713.160
192.315	14.130	933.900	711.993
193.329	14.147	933.109	711.401
194.344	14.159	932.565	710.975
195.359	14.243	932.255	711.033
196.373	14.179	932.023	710.521
197.388	14.397	930.937	710.560
198.402	14.334	930.586	709.958
199.417	14.407	929.906	709.690
200.432	14.402	929.773	709.504
201.446	14.491	928.978	709.213
202.461	14.514	928.525	708.902
203.475	14.586	928.309	708.979
204.490	14.539	927.559	708.144
205.504	14.538	926.594	707.343
206.519	14.519	925.562	706.409
207.534	14.464	924.915	705.620
208.548	14.487	924.416	705.277
209.563	14.557	923.774	705.017
210.577	14.586	922.485	704.097
211.592	14.460	922.083	703.194
212.607	14.589	921.618	703.322
213.621	14.606	920.968	702.834
214.636	14.624	920.210	702.268
215.650	14.614	919.628	701.721
216.665	14.693	919.085	701.578
217.680	14.761	918.399	701.276
218.694	14.703	918.062	700.714
219.709	14.717	917.463	700.252
220.723	14.748	916.730	699.762
221.738	14.874	915.640	699.395
222.753	14.756	914.945	698.308
223.767	14.777	914.538	698.027
224.782	14.658	914.222	697.227
225.796	14.793	912.921	696.734
226.811	14.768	912.299	696.093
227.826	14.865	911.939	696.162
228.840	14.886	910.824	695.334
229.855	14.863	910.330	694.802
230.869	14.771	909.599	693.800
231.884	14.996	908.870	694.118
232.899	14.800	908.012	692.587
233.913	14.779	907.400	691.970
234.928	14.801	906.799	691.545
235.942	14.886	906.140	691.332
236.957	14.832	905.146	690.290
237.972	14.812	904.589	689.722
238.986	14.853	903.933	689.330
240.001	14.888	903.471	689.061
241.015	14.873	902.645	688.307
242.030	14.839	901.795	687.457
243.045	14.891	901.485	687.376
244.059	15.103	900.730	687.609
245.074	15.059	900.062	686.857
246.088	14.983	899.246	685.862
247.103	14.980	899.279	685.817
248.117	15.023	898.877	685.625
249.132	15.003	898.325	685.061
250.147	15.038	897.564	684.560
251.161	15.260	896.371	684.500
252.176	15.394	895.463	684.291
253.190	15.304	894.820	683.372
254.205	15.312	894.657	683.222
255.220	15.253	894.156	682.539
256.234	15.230	893.566	681.931
257.249	15.240	892.741	681.285
258.263	15.233	892.446	680.969
259.278	15.335	891.635	680.702
260.293	15.418	890.960	680.463
261.307	15.321	890.553	679.700
262.322	15.377	890.175	679.581
263.336	15.464	889.459	679.326
264.351	15.307	888.481	677.882
265.366	15.367	887.955	677.663
266.380	15.470	887.187	677.434
267.395	15.454	886.639	676.890
268.409	15.570	885.622	676.521
269.424	15.570	884.502	675.608
270.439	15.620	884.460	675.714
271.453	15.668	883.396	675.037
272.468	15.544	883.035	674.202
273.482	15.492	882.165	673.270
274.497	15.548	881.739	673.111
275.512	15.600	881.234	672.874
276.526	15.527	880.558	672.004
277.541	15.587	879.639	671.483
278.555	15.591	879.047	670.988
279.570	15.609	878.682	670.721
280.585	15.777	877.972	670.790
281.599	15.825	877.545	670.597
282.614	15.735	876.849	669.647
283.628	15.665	876.226	668.831
284.643	15.644	875.908	668.449
285.657	15.818	874.977	668.368
286.672	15.793	874.452	667.811
287.687	15.778	873.962	667.319
288.701	15.787	873.523	666.960
289.716	15.817	873.130	666.717
290.730	15.750	872.586	665.981
291.745	15.882	871.750	665.803
292.760	15.794	870.922	664.764
293.774	15.811	870.341	664.329
294.789	16.024	869.969	664.828
295.803	15.894	869.395	663.816
296.818	15.820	868.746	662.972
297.833	15.820	868.174	662.478
298.847	15.908	867.348	662.134
299.862	16.088	866.368	662.032
300.876	15.914	866.034	661.036
301.891	16.050	864.947	660.681
302.906	15.975	864.537	660.016
303.920	15.989	864.012	659.611
304.935	16.066	863.310	659.317
305.949	16.077	862.461	658.654
306.964	16.246	862.269	659.110
307.979	16.038	861.854	657.922
308.993	16.142	860.846	657.500
310.008	16.254	860.404	657.543
311.022	16.208	860.029	657.019
312.037	16.214	859.660	656.699
313.052	16.282	858.806	656.256
314.066	16.241	858.307	655.655
315.081	16.195	857.593	654.876
316.095	16.108	857.303	654.259
317.110	16.220	856.648	654.132
318.125	16.233	855.928	653.576
319.139	16.125	855.517	652.787
320.154	16.275	855.049	652.951
321.168	16.195	854.453	652.132
322.183	16.201	853.951	651.713
323.197	16.370	853.387	651.876
324.212	16.421	852.750	651.529
325.227	16.400	852.075	650.875
326.241	16.457	851.681	650.736
327.256	16.284	851.193	649.641
328.270	16.290	850.345	648.956
329.285	16.429	850.027	649.192
330.300	16.254	849.387	647.974
331.314	16.461	848.280	647.867
332.329	16.443	847.861	647.418
333.343	16.485	847.173	646.998
334.358	16.324	846.803	646.041
335.373	16.404	846.496	646.056
336.387	16.501	845.667	645.735
337.402	16.542	845.311	645.566
338.416	16.570	844.782	645.211
339.431	16.605	844.114	644.776
340.446	16.546	843.886	644.318
341.460	16.623	843.041	643.909
342.475	16.645	842.615	643.613
343.489	16.614	842.213	643.131
344.504	16.925	841.053	643.366
345.519	16.697	840.975	642.387
346.533	16.812	840.465	642.374
347.548	16.834	839.838	641.921
348.562	16.694	839.573	641.133
349.577	16.715	838.749	640.527
350.592	16.610	838.571	639.936
351.606	16.689	837.828	639.611
352.621	16.773	837.179	639.378
353.635	16.706	836.795	638.774
354.650	16.758	836.312	638.547
355.665	16.819	835.544	638.130
356.679	16.722	835.621	637.770
357.694	16.702	835.473	637.527
358.708	16.914	834.221	637.310
359.723	16.837	833.619	636.504
360.738	16.730	833.541	635.987
361.752	16.836	832.742	635.720
362.767	16.929	832.511	635.833
363.781	17.031	831.652	635.505
364.796	16.883	831.672	634.908
365.810	16.923	831.176	634.626
366.825	16.982	830.479	634.256
367.840	16.998	830.334	634.150
368.854	17.142	829.646	634.103
369.869	16.993	829.430	633.326
370.883	17.143	828.745	633.307
371.898	16.926	828.416	632.191
372.913	17.170	827.544	632.378
373.927	17.112	827.232	631.869
374.942	17.183	826.291	631.358
375.956	17.056	825.809	630.463
376.971	17.110	825.597	630.445
377.986	17.201	824.620	629.980
379.000	17.310	824.160	629.978
380.015	17.178	823.893	629.228
381.029	17.323	823.266	629.229
382.044	17.276	822.578	628.476
383.059	17.437	821.826	628.439
384.073	17.334	821.450	627.717
385.088	17.294	821.391	627.468
386.102	17.417	820.481	627.172
387.117	17.288	819.755	626.084
388.132	17.398	819.257	626.056
389.146	17.392	818.947	625.739
390.161	17.419	818.494	625.437
391.175	17.369	818.372	625.107
392.190	17.445	818.137	625.149
393.205	17.358	817.453	624.255
394.219	17.431	817.127	624.215
395.234	17.474	816.373	623.742
396.248	17.494	815.942	623.431
397.263	17.375	815.371	622.505
398.278	17.279	815.198	621.965
399.292	17.319	814.592	621.594
400.307	17.386	813.960	621.301
401.321	17.481	813.729	621.417
402.336	17.496	813.209	621.021
403.350	17.499	813.054	620.858
404.365	17.481	812.650	620.430
405.380	17.562	812.215	620.338
406.394	17.471	811.527	619.427
407.409	17.627	811.113	619.624
408.423	17.833	810.284	619.682
409.438	17.781	809.856	619.112
410.453	17.702	809.759	618.696
411.467	17.739	809.063	618.243
412.482	17.682	808.889	617.847
413.496	17.669	808.490	617.441
414.511	17.768	807.904	617.299
415.526	17.671	807.848	616.851
416.540	17.794	807.358	616.866
417.555	17.881	806.733	616.647
418.569	17.905	806.307	616.355
419.584	17.947	805.783	616.050
420.599	17.966	805.212	615.628
421.613	95.369	1269.130	1387.908
422.628	81.740	1336.741	1388.056
