DTS Sentinel unit serial number:	SN413079Multiplexer serial number:	ORYXHardware model number:	OX4-SRSoftware version number:	ORYX F/W v4.00 Oryx Data Collector v3.7.2.0data status	okinstallation	princeton_trtdifferential loss correction	single-endedforward channel	channel 3reverse channel	N/Adate	2019/09/11time	00:30:10forward acquisition time	60.00reverse acquisition time	0.00gamma	496.2192k internal	0.2332k external	0.2332temperature offset calibration	0.9916default loss term (dB/km)	0.3790temperature slope calibration	1.0000multiplexer offset coefficient	1.0000multiplexer slope coefficient	1.0000fibre end	0.00T internal ref (°C)	29.25T ext. ref 1 (°C)	-0.31T ext. ref 2 (°C)	23.00length (m)	temperature (°C)	Stokes	anti-Stokes-747.200	18.871	-0.138	0.112
-746.185	35.793	0.141	0.125
-745.171	-2.617	-0.289	0.203
-744.156	463.026	-0.208	0.467
-743.142	113.104	0.305	0.372
-742.127	-18.459	-0.270	-0.169
-741.112	132.474	-0.049	0.064
-740.098	125.902	-0.059	0.075
-739.083	-99.744	0.239	0.060
-738.069	2.969	0.136	0.099
-737.054	252.876	0.177	-0.304
-736.039	-7.485	0.081	-0.055
-735.025	-128.477	-0.053	-0.008
-734.010	-86.483	0.101	0.031
-732.996	-97.911	-0.305	0.079
-731.981	-25.576	0.248	-0.147
-730.966	23.777	0.200	-0.165
-729.952	-29.500	-0.322	-0.185
-728.937	-90.311	-0.100	0.029
-727.923	-200.000	0.032	-0.234
-726.908	-102.409	-0.248	-0.060
-725.894	-126.523	0.424	0.063
-724.879	-89.229	-0.261	0.077
-723.864	-178.992	-0.202	-0.005
-722.850	-148.039	0.017	0.001
-721.835	-147.073	-0.272	-0.023
-720.821	48.970	-0.130	0.122
-719.806	11.304	-0.299	0.230
-718.791	-195.041	0.247	0.002
-717.777	-200.000	-0.055	0.292
-716.762	88.411	-0.171	-0.191
-715.748	-126.649	0.579	0.086
-714.733	-49.033	-0.213	-0.103
-713.718	12.233	-0.243	-0.188
-712.704	-16.666	0.378	0.241
-711.689	-85.929	0.067	-0.021
-710.675	-107.170	0.250	-0.055
-709.660	-200.000	-0.000	-0.471
-708.645	282.694	-0.089	0.160
-707.631	-53.553	0.269	-0.124
-706.616	2.481	-0.113	0.082
-705.602	800.000	-0.016	-0.057
-704.587	-16.028	-0.120	0.077
-703.572	-61.510	-0.167	-0.070
-702.558	351.611	-0.075	-0.150
-701.543	-27.986	-0.222	-0.129
-700.529	20.580	-0.194	0.158
-699.514	70.872	-0.122	0.127
-698.499	-116.205	-0.174	-0.032
-697.485	-41.790	-0.420	-0.217
-696.470	503.856	0.092	0.214
-695.456	-35.277	0.256	-0.140
-694.441	278.587	-0.175	-0.313
-693.426	622.992	0.158	-0.399
-692.412	-200.000	-0.087	-0.398
-691.397	-200.000	-0.002	-0.045
-690.383	111.562	-0.238	-0.289
-689.368	93.505	-0.255	-0.290
-688.354	201.549	0.021	0.033
-687.339	202.516	0.111	0.173
-686.324	-141.095	0.146	-0.015
-685.310	-150.038	0.070	-0.005
-684.295	57.469	0.200	0.196
-683.281	800.000	0.066	-0.232
-682.266	-75.761	0.339	-0.121
-681.251	-118.307	-0.186	0.033
-680.237	-200.000	0.008	-0.234
-679.222	27.176	-0.150	-0.126
-678.208	104.693	-0.166	0.196
-677.193	-28.046	-0.410	-0.238
-676.178	-200.000	-0.012	0.087
-675.164	-200.000	-0.016	-0.106
-674.149	-200.000	-0.034	-0.251
-673.135	96.728	-0.168	-0.194
-672.120	-40.910	0.182	0.094
-671.105	-158.758	-0.248	-0.014
-670.091	179.785	-0.086	-0.127
-669.076	-200.000	-0.100	-0.451
-668.062	800.000	-0.066	0.201
-667.047	119.884	0.067	-0.083
-666.032	-69.370	-0.242	-0.093
-665.018	-77.001	-0.089	-0.031
-664.003	49.542	0.137	0.129
-662.989	-200.000	0.011	-0.122
-661.974	800.000	-0.080	-0.275
-660.959	800.000	0.071	0.250
-659.945	31.886	0.171	-0.147
-658.930	109.873	-0.086	-0.103
-657.916	-200.000	-0.031	-0.252
-656.901	188.115	-0.258	-0.386
-655.886	-200.000	-0.012	-0.205
-654.872	-76.181	0.183	0.065
-653.857	193.318	0.047	0.071
-652.843	-28.511	-0.191	0.111
-651.828	622.119	0.060	0.151
-650.814	24.299	-0.109	0.090
-649.799	-88.450	-0.025	-0.007
-648.784	-21.090	0.121	0.074
-647.770	-18.046	-0.356	-0.223
-646.755	603.484	0.089	0.221
-645.741	-51.487	-0.343	-0.161
-644.726	-75.117	0.218	-0.078
-643.711	439.118	0.144	-0.316
-642.697	158.803	0.052	0.073
-641.682	-173.792	-0.258	0.008
-640.668	-100.536	0.123	-0.030
-639.653	69.911	0.087	0.090
-638.638	-121.059	-0.086	-0.015
-637.624	43.259	-0.089	0.082
-636.609	-159.996	0.127	-0.007
-635.595	-112.860	0.111	0.022
-634.580	152.584	0.043	-0.058
-633.565	-31.357	-0.273	-0.154
-632.551	60.534	-0.076	0.076
-631.536	82.599	0.243	-0.264
-630.522	647.291	-0.039	-0.101
-629.507	29.763	-0.149	-0.127
-628.492	0.150	0.180	-0.129
-627.478	115.279	-0.204	0.249
-626.463	355.600	-0.119	-0.238
-625.449	468.602	-0.048	0.108
-624.434	-88.939	-0.295	-0.088
-623.419	13.456	-0.229	0.178
-622.405	-200.000	0.011	0.064
-621.390	128.669	-0.100	-0.128
-620.376	278.676	-0.144	-0.257
-619.361	-20.227	0.068	0.042
-618.346	800.000	-0.048	-0.198
-617.332	-65.017	0.309	-0.125
-616.317	-112.713	-0.237	-0.047
-615.303	-200.000	0.001	0.214
-614.288	-200.000	0.022	0.200
-613.273	201.064	0.186	-0.286
-612.259	129.124	-0.341	-0.436
-611.244	166.598	0.057	0.080
-610.230	-200.000	0.034	0.259
-609.215	307.516	-0.017	0.031
-608.201	68.130	0.099	0.101
-607.186	96.651	0.184	-0.211
-606.171	-14.523	0.237	-0.152
-605.157	643.654	-0.084	-0.215
-604.142	800.000	0.030	-0.129
-603.128	51.342	0.044	-0.042
-602.113	143.769	0.065	0.086
-601.098	-147.615	-0.241	0.020
-600.084	-130.251	0.327	0.045
-599.069	800.000	-0.084	-0.249
-598.055	-134.873	0.176	0.021
-597.040	445.801	0.139	-0.306
-596.025	-102.782	-0.296	0.070
-595.011	-200.000	-0.040	0.392
-593.996	-55.297	-0.262	-0.118
-592.982	-161.733	0.280	-0.014
-591.967	-78.157	-0.159	0.055
-590.952	-56.506	-0.196	0.087
-589.938	-84.466	0.476	-0.151
-588.923	220.075	0.031	-0.049
-587.909	-84.321	-0.125	-0.040
-586.894	-200.000	0.056	-0.247
-585.879	268.506	0.129	0.227
-584.865	-171.801	0.155	-0.005
-583.850	322.280	-0.200	-0.380
-582.836	759.850	-0.050	0.134
-581.821	-44.017	-0.112	-0.056
-580.806	59.263	0.280	0.276
-579.792	-200.000	0.029	0.137
-578.777	474.719	-0.068	-0.154
-577.763	-117.730	-0.067	0.012
-576.748	-40.363	-0.241	0.125
-575.733	-0.738	0.263	0.187
-574.719	-102.331	-0.127	-0.030
-573.704	52.633	0.088	-0.084
-572.690	-158.278	-0.062	-0.004
-571.675	133.185	-0.074	0.096
-570.661	-2.019	-0.212	0.149
-569.646	556.150	0.075	-0.181
-568.631	-147.268	0.240	0.020
-567.617	-72.524	0.280	0.103
-566.602	18.001	-0.173	-0.138
-565.588	419.276	-0.110	0.236
-564.573	-46.169	-0.285	-0.140
-563.558	117.385	0.176	-0.216
-562.544	-134.999	0.235	0.028
-561.529	-21.033	0.276	0.169
-560.515	-131.867	0.220	0.029
-559.500	20.811	-0.110	0.089
-558.485	-85.284	-0.028	-0.009
-557.471	156.903	-0.133	-0.184
-556.456	248.047	-0.033	0.056
-555.442	-200.000	-0.044	0.396
-554.427	182.222	0.104	-0.154
-553.412	800.000	0.061	0.232
-552.398	-19.044	-0.188	-0.116
-551.383	-200.000	-0.033	0.341
-550.369	76.892	-0.103	0.110
-549.354	342.173	0.030	0.059
-548.339	390.769	0.070	-0.145
-547.325	-60.848	-0.268	-0.113
-546.310	800.000	0.059	-0.180
-545.296	-104.100	-0.195	-0.045
-544.281	-149.750	-0.106	-0.008
-543.266	106.573	0.211	0.250
-542.252	-63.161	-0.185	0.076
-541.237	-15.931	0.283	0.180
-540.223	800.000	-0.046	-0.168
-539.208	72.688	-0.260	-0.270
-538.193	202.433	0.136	0.210
-537.179	-84.354	-0.201	-0.063
-536.164	368.661	-0.150	-0.302
-535.150	352.207	-0.103	-0.203
-534.135	-46.396	0.140	-0.069
-533.121	-150.705	-0.337	-0.026
-532.106	-200.000	0.048	-0.269
-531.091	-39.706	-0.134	-0.070
-530.077	-200.000	-0.041	0.242
-529.062	49.485	-0.243	0.229
-528.048	326.408	-0.128	0.244
-527.033	158.009	0.177	-0.245
-526.018	-82.999	0.191	-0.061
-525.004	-112.516	-0.078	0.016
-523.989	33.332	-0.239	-0.207
-522.975	-30.843	-0.256	0.144
-521.960	128.786	-0.095	0.121
-520.945	-14.798	-0.279	0.178
-519.931	-126.477	-0.173	0.026
-518.916	800.000	-0.074	-0.228
-517.902	-200.000	0.046	-0.289
-516.887	559.670	-0.096	-0.231
-515.872	800.000	0.086	-0.302
-514.858	-200.000	0.025	0.404
-513.843	-200.000	0.025	-0.174
-512.829	208.123	-0.163	0.254
-511.814	-94.101	-0.167	-0.046
-510.799	-72.052	-0.310	-0.115
-509.785	240.473	0.090	-0.150
-508.770	556.607	-0.066	0.159
-507.756	-115.768	-0.243	-0.045
-506.741	62.684	0.120	0.119
-505.726	24.489	-0.131	0.108
-504.712	-112.548	0.124	0.025
-503.697	175.372	0.111	0.160
-502.683	-89.113	-0.279	-0.082
-501.668	-46.152	-0.163	-0.080
-500.653	669.317	-0.064	0.165
-499.639	117.874	-0.104	0.128
-498.624	-116.701	-0.066	0.012
-497.610	-49.316	0.307	-0.146
-496.595	-93.601	0.350	0.096
-495.581	212.352	0.041	0.064
-494.566	800.000	-0.058	0.228
-493.551	211.705	-0.082	-0.128
-492.537	210.730	0.089	-0.139
-491.522	-79.376	-0.314	0.106
-490.508	29.474	-0.102	-0.086
-489.493	103.990	0.132	0.154
-488.478	-65.841	-0.053	0.021
-487.464	800.000	-0.040	-0.129
-486.449	-12.194	0.229	0.150
-485.435	167.808	-0.101	-0.143
-484.420	202.424	0.067	0.104
-483.405	229.638	-0.118	-0.191
-482.391	367.661	0.041	-0.083
-481.376	20.830	0.128	0.104
-480.362	342.385	0.037	-0.072
-479.347	-57.769	0.178	-0.078
-478.332	167.701	0.165	-0.233
-477.318	800.000	-0.055	0.161
-476.303	270.267	-0.234	0.409
-475.289	-51.943	0.327	0.151
-474.274	28.551	-0.246	-0.208
-473.259	-144.121	0.213	0.020
-472.245	-115.354	0.108	0.020
-471.230	-142.092	0.522	-0.052
-470.216	-137.157	0.422	-0.048
-469.201	27.051	0.029	0.024
-468.186	-22.342	-0.318	-0.192
-467.172	308.425	-0.021	0.039
-466.157	41.627	-0.212	0.191
-465.143	18.891	-0.060	-0.048
-464.128	800.000	-0.125	-0.345
-463.113	-106.146	0.165	-0.037
-462.099	707.583	-0.175	-0.460
-461.084	20.393	0.082	0.066
-460.070	-137.773	-0.267	-0.030
-459.055	308.203	0.156	0.289
-458.040	-167.415	-0.456	-0.018
-457.026	800.000	-0.076	-0.269
-456.011	6.683	-0.041	0.030
-454.997	133.654	0.185	0.238
-453.982	-193.121	-0.283	-0.003
-452.968	60.565	-0.309	-0.305
-451.953	217.032	0.129	0.205
-450.938	-11.664	0.278	0.182
-449.924	264.036	-0.197	0.341
-448.909	-123.029	0.398	-0.064
-447.895	164.560	-0.146	0.204
-446.880	-200.000	-0.006	0.067
-445.865	-103.431	0.022	0.005
-444.851	-156.153	-0.307	0.019
-443.836	15.954	0.249	-0.195
-442.822	-9.099	0.032	0.022
-441.807	480.718	-0.051	0.115
-440.792	-200.000	-0.032	0.180
-439.778	54.876	0.375	-0.360
-438.763	170.913	-0.060	-0.086
-437.749	-54.037	0.271	-0.123
-436.734	213.084	-0.096	-0.151
-435.719	-52.852	0.010	0.004
-434.705	-162.905	0.185	-0.009
-433.690	-179.263	-0.624	-0.014
-432.676	-134.716	0.617	0.075
-431.661	411.718	-0.023	0.048
-430.646	800.000	0.054	-0.162
-429.632	-95.563	0.308	-0.082
-428.617	-83.368	0.197	-0.063
-427.603	-58.489	0.120	0.052
-426.588	712.769	-0.062	-0.164
-425.573	79.045	0.100	0.107
-424.559	13.736	-0.120	0.093
-423.544	-97.208	0.188	0.049
-422.530	800.000	-0.088	-0.316
-421.515	800.000	0.055	-0.227
-420.500	-76.413	-0.119	-0.042
-419.486	54.102	-0.097	0.093
-418.471	32.051	-0.127	-0.108
-417.457	-187.554	0.024	0.000
-416.442	60.412	0.171	0.168
-415.428	314.373	0.067	0.125
-414.413	-58.889	-0.243	0.104
-413.398	-88.658	-0.274	-0.081
-412.384	141.642	0.197	-0.259
-411.369	800.000	0.040	0.159
-410.355	122.526	0.051	-0.063
-409.340	21.913	0.213	0.172
-408.325	-200.000	0.004	-0.025
-407.311	87.532	-0.173	-0.190
-406.296	-98.413	0.243	-0.062
-405.282	66.238	0.181	-0.183
-404.267	161.153	0.048	0.067
-403.252	-100.917	-0.249	-0.061
-402.238	96.217	-0.125	0.142
-401.223	68.208	0.063	-0.064
-400.209	-20.136	-0.043	-0.027
-399.194	800.000	0.076	-0.249
-398.179	-200.000	-0.008	0.098
-397.165	-200.000	0.042	0.207
-396.150	-121.961	-0.273	0.045
-395.136	-200.000	-0.014	-0.506
-394.121	-152.048	-0.263	-0.019
-393.106	48.057	-0.077	-0.071
-392.092	-200.000	0.005	-0.026
-391.077	800.000	0.018	0.076
-390.063	150.226	0.183	-0.246
-389.048	-157.183	0.163	0.010
-388.033	239.901	-0.071	0.118
-387.019	263.381	0.152	0.262
-386.004	800.000	-0.047	-0.182
-384.990	266.546	0.058	0.101
-383.975	-126.249	-0.115	0.017
-382.960	33.503	-0.178	-0.154
-381.946	-47.047	-0.241	0.117
-380.931	136.948	0.128	0.166
-379.917	-200.000	-0.027	-0.138
-378.902	-200.000	-0.009	0.052
-377.888	-158.642	0.324	0.019
-376.873	-82.010	-0.152	-0.049
-375.858	575.517	-0.047	-0.115
-374.844	-167.784	0.071	-0.003
-373.829	-8.271	-0.297	0.199
-372.815	800.000	0.071	-0.226
-371.800	50.455	-0.132	-0.124
-370.785	800.000	0.061	-0.263
-369.771	-34.432	-0.134	0.073
-368.756	388.801	-0.086	-0.176
-367.742	-40.035	0.103	0.053
-366.727	176.539	0.039	0.056
-365.712	-136.985	-0.292	-0.033
-364.698	-16.162	0.084	0.053
-363.683	-200.000	-0.032	0.311
-362.669	-70.918	0.087	-0.033
-361.654	-78.230	0.127	-0.043
-360.639	194.763	-0.091	0.136
-359.625	-17.864	-0.345	0.214
-358.610	298.306	0.236	0.430
-357.596	185.142	-0.111	0.164
-356.581	-200.000	0.035	0.251
-355.566	-24.427	0.042	0.025
-354.552	26.030	0.119	-0.098
-353.537	-15.380	0.178	0.113
-352.523	800.000	-0.022	-0.072
-351.508	284.644	0.134	-0.239
-350.493	-111.394	0.277	-0.056
-349.479	42.525	-0.327	-0.295
-348.464	60.208	0.204	-0.200
-347.450	-93.916	0.150	-0.041
-346.435	-112.406	-0.178	0.035
-345.420	800.000	-0.052	0.178
-344.406	-200.000	0.025	0.483
-343.391	-96.739	-0.187	0.049
-342.377	-119.975	-0.213	-0.036
-341.362	92.593	0.164	-0.184
-340.348	-200.000	-0.024	-0.227
-339.333	71.169	-0.074	-0.076
-338.318	-57.502	-0.299	-0.130
-337.304	-200.000	0.011	-0.175
-336.289	-40.770	0.037	0.019
-335.275	-200.000	-0.000	-0.365
-334.260	-44.198	0.113	-0.056
-333.245	62.931	0.071	0.071
-332.231	52.409	0.039	0.037
-331.216	254.082	-0.272	-0.461
-330.202	35.659	-0.037	-0.032
-329.187	800.000	0.118	0.373
-328.172	9.322	0.137	0.103
-327.158	-33.062	-0.110	0.060
-326.143	-200.000	0.013	0.241
-325.129	-185.526	-0.140	-0.002
-324.114	800.000	0.026	0.103
-323.099	-51.577	0.083	0.038
-322.085	131.179	-0.121	-0.154
-321.070	-40.360	-0.070	-0.036
-320.056	146.554	0.313	-0.416
-319.041	95.261	-0.133	-0.150
-318.026	232.546	-0.058	-0.094
-317.012	-57.979	-0.153	0.066
-315.997	114.172	0.170	0.205
-314.983	-133.636	0.173	-0.021
-313.968	-65.289	-0.168	0.067
-312.953	18.966	-0.137	0.109
-311.939	223.077	-0.148	0.236
-310.924	578.484	-0.061	0.149
-309.910	61.204	0.136	-0.133
-308.895	800.000	-0.057	-0.190
-307.880	-106.627	-0.212	-0.047
-306.866	698.150	-0.087	0.227
-305.851	-37.102	0.280	0.148
-304.837	-197.198	0.311	-0.002
-303.822	800.000	-0.129	-0.553
-302.807	-65.397	-0.420	-0.167
-301.793	-74.168	-0.216	0.077
-300.778	120.087	0.177	0.217
-299.764	-123.248	-0.617	0.098
-298.749	-50.354	0.313	0.146
-297.735	-200.000	0.046	0.252
-296.720	566.938	-0.092	0.220
-295.705	-76.008	0.277	-0.097
-294.691	11.014	-0.189	0.143
-293.676	-200.000	-0.008	-0.065
-292.662	101.572	-0.165	0.190
-291.647	791.836	0.158	0.429
-290.632	136.436	0.092	0.118
-289.618	-88.949	0.093	0.027
-288.603	137.299	0.138	0.178
-287.589	-133.002	0.310	0.039
-286.574	-88.304	-0.197	0.058
-285.559	-25.499	-0.081	0.047
-284.545	154.904	-0.162	-0.220
-283.530	-64.265	0.269	-0.108
-282.516	78.914	-0.216	0.228
-281.501	-200.000	0.028	-0.175
-280.486	-24.626	-0.507	-0.298
-279.472	-109.235	-0.489	0.103
-278.457	-162.028	0.253	0.013
-277.443	-128.766	-0.359	0.050
-276.428	-72.350	-0.144	0.053
-275.413	-200.000	0.045	-0.326
-274.399	202.971	-0.086	-0.132
-273.384	-137.264	0.395	0.044
-272.370	-200.000	0.006	0.156
-271.355	-138.496	-0.052	0.006
-270.340	-163.183	0.269	-0.013
-269.326	-152.203	0.269	-0.019
-268.311	-122.982	0.219	-0.035
-267.297	146.824	0.033	0.043
-266.282	8.619	-0.056	0.041
-265.267	-66.349	0.138	0.054
-264.253	-200.000	-0.006	0.202
-263.238	65.874	-0.277	0.277
-262.224	-120.076	-0.277	0.047
-261.209	148.963	0.035	-0.047
-260.195	646.870	0.050	0.125
-259.180	-198.084	-0.277	-0.002
-258.165	-177.141	0.131	0.003
-257.151	-149.821	-0.041	0.003
-256.136	-128.686	0.353	0.049
-255.122	-200.000	-0.015	-0.104
-254.107	-20.331	-0.278	-0.169
-253.092	-200.000	0.025	-0.237
-252.078	-147.368	0.365	0.031
-251.063	286.787	-0.069	-0.122
-250.049	8.955	0.288	0.214
-249.034	-200.000	0.019	0.255
-248.019	800.000	-0.060	0.261
-247.005	-125.726	0.247	0.037
-245.990	16.060	0.491	0.382
-244.976	539.074	-0.162	-0.381
-243.961	-200.000	0.033	0.164
-242.946	-66.099	0.255	0.100
-241.932	190.268	0.039	0.058
-240.917	99.769	-0.087	0.100
-239.903	364.493	0.138	-0.273
-238.888	-83.774	0.338	-0.106
-237.873	-45.970	-0.304	0.148
-236.859	-200.000	0.001	-0.012
-235.844	210.608	-0.157	-0.244
-234.830	-36.027	0.261	0.139
-233.815	800.000	0.038	0.145
-232.800	-87.084	0.245	0.074
-231.786	-74.103	-0.165	-0.059
-230.771	-186.313	-0.175	-0.003
-229.757	166.011	0.176	0.246
-228.742	466.996	0.115	-0.255
-227.727	109.069	-0.070	-0.082
-226.713	-50.802	0.228	0.106
-225.698	199.940	0.156	-0.236
-224.684	234.432	-0.091	0.148
-223.669	-83.657	0.219	0.069
-222.655	-111.810	-0.073	0.015
-221.640	165.266	0.222	-0.309
-220.625	153.638	-0.185	0.250
-219.611	-11.761	0.203	0.132
-218.596	-152.439	-0.021	0.002
-217.582	-82.532	-0.304	0.097
-216.567	800.000	-0.024	0.102
-215.552	-95.661	-0.174	0.046
-214.538	54.690	-0.081	0.077
-213.523	-69.640	0.144	-0.054
-212.509	-31.766	0.167	-0.093
-211.494	-200.000	-0.033	-0.301
-210.479	-135.864	-0.329	0.038
-209.465	-200.000	-0.004	-0.142
-208.450	-146.476	0.454	0.039
-207.436	-200.000	-0.076	-0.364
-206.421	-47.769	0.285	0.136
-205.406	-200.000	0.013	0.164
-204.392	77.378	-0.176	0.185
-203.377	-52.935	0.201	0.091
-202.363	800.000	0.013	-0.055
-201.348	73.433	-0.145	-0.150
-200.333	-139.648	-0.044	-0.005
-199.319	91.718	0.147	0.163
-198.304	-68.304	-0.395	-0.151
-197.290	800.000	0.015	0.041
-196.275	113.561	-0.170	0.204
-195.260	-200.000	-0.024	0.268
-194.246	800.000	0.038	-0.137
-193.231	37.079	-0.082	-0.071
-192.217	756.802	-0.029	0.078
-191.202	-88.757	0.300	-0.088
-190.187	263.121	0.049	0.084
-189.173	800.000	0.053	0.169
-188.158	800.000	0.014	-0.046
-187.144	-46.630	0.247	0.119
-186.129	-185.717	0.322	0.005
-185.114	-184.524	-0.011	-0.000
-184.100	-49.330	-0.144	-0.067
-183.085	-162.644	-0.116	0.006
-182.071	-200.000	-0.015	-0.089
-181.056	315.911	-0.129	0.239
-180.042	319.018	-0.073	0.136
-179.027	161.491	0.219	0.302
-178.012	283.500	-0.076	-0.134
-176.998	-66.502	0.239	0.093
-175.983	-182.833	0.267	-0.005
-174.969	800.000	-0.085	0.273
-173.954	-114.711	0.126	-0.024
-172.939	-95.885	0.246	0.065
-171.925	-25.026	-0.087	-0.051
-170.910	800.000	0.056	-0.160
-169.896	-60.039	0.125	-0.053
-168.881	-200.000	0.030	0.260
-167.866	168.309	0.164	-0.230
-166.852	800.000	0.034	0.119
-165.837	135.671	0.131	0.168
-164.823	65.245	0.212	-0.211
-163.808	-109.128	-0.113	-0.024
-162.793	-119.278	-0.163	0.028
-161.779	-138.649	0.125	-0.013
-160.764	251.561	0.176	0.294
-159.750	102.846	-0.086	0.099
-158.735	406.406	0.068	-0.142
-157.720	-200.000	0.025	-0.477
-156.706	-200.000	-0.006	-0.094
-155.691	-8.126	0.387	0.256
-154.677	130.909	0.210	0.264
-153.662	45.477	0.225	-0.204
-152.647	176.993	-0.191	0.273
-151.633	-131.991	-0.327	-0.042
-150.618	41.808	-0.142	0.126
-149.604	-153.047	-0.123	0.008
-148.589	56.109	0.366	-0.349
-147.574	-200.000	0.056	-0.312
-146.560	93.324	-0.061	-0.068
-145.545	199.684	0.050	-0.076
-144.531	196.039	0.112	0.167
-143.516	-105.209	0.091	0.020
-142.502	33.823	0.349	0.299
-141.487	-120.927	-0.301	0.050
-140.472	-17.192	-0.298	-0.185
-139.458	-130.059	-0.328	0.044
-138.443	-157.541	0.004	0.000
-137.429	800.000	-0.026	0.104
-136.414	15.712	-0.073	0.056
-135.399	214.627	0.174	-0.270
-134.385	12.817	0.040	0.030
-133.370	-83.484	0.253	-0.080
-132.356	800.000	0.081	-0.341
-131.341	-44.736	0.087	0.043
-130.326	-200.000	-0.011	0.145
-129.312	114.500	0.324	0.388
-128.297	800.000	-0.093	0.328
-127.283	-200.000	0.054	0.369
-126.268	10.412	-0.163	0.122
-125.253	-161.368	-0.038	-0.002
-124.239	-66.299	-0.148	0.058
-123.224	-65.271	-0.207	-0.082
-122.210	171.347	-0.159	-0.224
-121.195	-63.233	-0.308	0.125
-120.180	75.923	0.171	-0.177
-119.166	-100.380	0.092	-0.022
-118.151	-95.756	0.238	0.062
-117.137	522.869	0.183	-0.421
-116.122	-200.000	0.057	0.255
-115.107	212.930	-0.135	-0.208
-114.093	-27.505	0.255	-0.145
-113.078	40.564	-0.218	0.193
-112.064	64.414	-0.115	-0.114
-111.049	18.695	0.111	0.087
-110.034	-84.838	-0.088	0.027
-109.020	-52.578	0.251	0.114
-108.005	376.555	-0.128	0.256
-106.991	13.763	0.126	0.096
-105.976	14.367	0.138	-0.106
-104.962	-70.778	-0.281	-0.104
-103.947	-200.000	0.060	-0.260
-102.932	35.238	-0.217	-0.186
-101.918	121.038	0.184	-0.225
-100.903	-200.000	0.079	-0.424
-99.889	160.442	0.201	0.275
-98.874	-44.401	0.244	-0.120
-97.859	-32.248	-0.213	-0.117
-96.845	-21.881	-0.382	0.228
-95.830	-200.000	-0.003	-0.065
-94.816	688.127	-0.115	0.294
-93.801	248.439	0.284	0.471
-92.786	429.435	0.091	-0.193
-91.772	-7.110	-0.106	0.070
-90.757	489.902	0.069	0.156
-89.743	-3.672	0.372	-0.253
-88.728	-168.331	0.209	0.008
-87.713	-60.380	-0.126	0.053
-86.699	-200.000	-0.062	0.271
-85.684	434.749	-0.104	0.221
-84.670	-200.000	0.006	-0.076
-83.655	-200.000	-0.017	-0.123
-82.640	-200.000	-0.036	-0.199
-81.626	800.000	0.152	-0.473
-80.611	-95.123	0.239	-0.063
-79.597	-34.633	-0.144	0.077
-78.582	555.328	-0.011	0.027
-77.567	-126.358	-0.171	-0.025
-76.553	-159.499	0.043	-0.002
-75.538	800.000	-0.044	-0.173
-74.524	-125.752	0.274	0.041
-73.509	137.114	0.249	-0.319
-72.494	-95.910	-0.097	0.025
-71.480	19.632	0.240	-0.190
-70.465	-14.838	-0.068	0.043
-69.451	-148.090	0.226	0.018
-68.436	40.922	0.198	0.175
-67.422	-20.945	0.114	-0.069
-66.407	165.392	0.069	-0.095
-65.392	6.574	-0.042	-0.031
-64.378	-200.000	-0.017	-0.371
-63.363	137.668	0.247	0.317
-62.349	800.000	0.121	0.383
-61.334	10.070	-1.271	-0.946
-60.319	8.238	0.409	0.301
-59.305	266.379	-0.560	-0.959
-58.290	422.383	0.473	0.994
-57.276	247.128	0.756	1.249
-56.261	-200.000	107.104	619.769
-55.246	516.741	1511.958	3461.728
-54.232	176.448	2700.816	3843.539
-53.217	109.932	2179.673	2560.837
-52.203	39.755	1703.569	1496.807
-51.188	32.376	1517.017	1282.757
-50.173	30.110	1490.175	1244.814
-49.159	50.561	1547.140	1433.095
-48.144	50.801	1563.211	1449.568
-47.130	32.535	1518.712	1285.075
-46.115	29.495	1504.663	1252.547
-45.100	29.469	1500.791	1249.093
-44.086	29.451	1498.323	1246.873
-43.071	29.221	1496.616	1243.846
-42.057	29.185	1494.771	1242.022
-41.042	29.287	1493.245	1241.394
-40.027	29.309	1491.651	1240.165
-39.013	29.271	1490.409	1238.832
-37.998	29.255	1489.293	1237.741
-36.984	29.210	1487.815	1236.166
-35.969	29.204	1486.630	1235.090
-34.954	29.205	1485.335	1233.971
-33.940	29.166	1484.062	1232.607
-32.925	29.322	1482.287	1232.127
-31.911	29.252	1481.058	1230.585
-30.896	29.246	1480.610	1230.124
-29.881	29.363	1478.796	1229.350
-28.867	29.383	1477.358	1228.239
-27.852	29.332	1476.072	1226.783
-26.838	29.236	1474.790	1225.033
-25.823	29.297	1473.286	1224.139
-24.809	29.304	1471.633	1222.762
-23.794	29.297	1470.175	1221.456
-22.779	29.256	1469.611	1220.667
-21.765	29.302	1467.920	1219.515
-20.750	29.293	1467.265	1218.867
-19.736	29.285	1465.868	1217.604
-18.721	29.311	1464.747	1216.796
-17.706	29.309	1463.290	1215.527
-16.692	29.234	1462.558	1214.371
-15.677	29.210	1461.916	1213.633
-14.663	29.247	1460.525	1212.675
-13.648	29.251	1459.578	1211.870
-12.633	29.186	1458.636	1210.608
-11.619	29.147	1457.799	1209.608
-10.604	29.166	1456.823	1208.879
-9.590	29.163	1456.231	1208.321
-8.575	29.269	1455.273	1208.173
-7.560	29.309	1453.836	1207.192
-6.546	29.164	1453.132	1205.610
-5.531	29.294	1452.415	1205.820
-4.517	29.236	1451.674	1204.775
-3.502	29.169	1450.634	1203.428
-2.487	29.227	1449.320	1202.666
-1.473	29.206	1448.259	1201.604
-0.458	29.261	1447.400	1201.199
0.556	27.028	1437.596	1190.373
1.571	24.002	1412.316	1149.816
2.586	20.797	1352.623	1081.258
3.600	19.428	1270.842	1007.796
4.615	18.145	1227.344	965.973
5.629	15.804	1172.030	909.718
6.644	7.674	1088.670	803.956
7.659	0.732	1048.515	740.327
8.673	-0.234	1043.066	731.707
9.688	-0.220	1039.408	729.145
10.702	-0.376	1038.112	727.410
11.717	-0.430	1036.185	725.734
12.731	2.558	1039.065	742.182
13.746	11.224	1051.627	793.431
14.761	18.206	1060.394	834.138
15.775	19.901	1061.835	843.465
16.790	20.103	1061.435	844.054
17.804	19.879	1060.610	842.235
18.819	19.727	1059.730	840.725
19.834	19.981	1058.540	840.939
20.848	19.897	1059.143	840.933
21.863	19.971	1058.570	840.764
22.877	19.907	1058.346	840.201
23.892	19.966	1057.166	839.476
24.907	19.878	1056.521	838.464
25.921	20.007	1055.824	838.459
26.936	19.895	1055.245	837.387
27.950	19.860	1053.959	836.120
28.965	19.884	1052.680	835.148
29.980	19.902	1050.900	833.750
30.994	19.656	1049.950	831.737
32.009	19.891	1048.864	831.932
33.023	20.059	1048.355	832.261
34.038	19.779	1046.918	829.707
35.053	19.723	1046.127	828.738
36.067	20.063	1045.281	829.619
37.082	19.888	1044.663	828.222
38.096	20.085	1043.936	828.513
39.111	20.073	1043.367	827.930
40.126	20.188	1041.963	827.292
41.140	20.309	1040.753	826.834
42.155	19.918	1039.461	823.872
43.169	19.658	1038.494	821.799
44.184	19.811	1036.772	821.088
45.199	19.700	1036.123	819.974
46.213	19.637	1035.143	818.828
47.228	19.581	1033.864	817.481
48.242	19.725	1033.233	817.592
49.257	19.791	1032.534	817.276
50.271	19.953	1031.613	817.240
51.286	20.032	1030.907	816.981
52.301	20.011	1029.881	815.995
53.315	19.981	1029.245	815.277
54.330	20.049	1028.146	814.659
55.344	19.896	1027.292	813.188
56.359	19.938	1026.147	812.406
57.374	20.030	1025.622	812.352
58.388	19.828	1024.919	810.778
59.403	19.826	1023.850	809.850
60.417	19.824	1023.254	809.296
61.432	19.636	1022.409	807.677
62.447	19.765	1021.398	807.408
63.461	19.809	1020.975	807.209
64.476	20.005	1019.892	807.197
65.490	19.869	1019.139	805.897
66.505	19.760	1018.689	804.960
67.520	19.664	1017.602	803.585
68.534	19.881	1016.856	803.932
69.549	19.906	1015.662	803.032
70.563	19.406	1014.518	799.740
71.578	19.446	1013.624	799.151
72.593	19.445	1012.869	798.480
73.607	19.285	1011.718	796.760
74.622	19.310	1010.767	796.059
75.636	19.569	1010.060	796.625
76.651	19.571	1009.185	795.872
77.666	19.513	1008.488	794.984
78.680	19.537	1007.373	794.150
79.695	19.489	1007.280	793.783
80.709	19.614	1006.585	793.740
81.724	19.650	1005.580	793.042
82.739	19.764	1004.326	792.508
83.753	19.677	1004.013	791.788
84.768	19.840	1003.481	792.045
85.782	20.132	1002.713	792.707
86.797	20.290	1001.602	792.481
87.812	20.257	1001.216	791.954
88.826	20.061	1000.060	790.073
89.841	20.210	999.152	789.967
90.855	20.188	998.620	789.378
91.870	20.081	997.822	788.190
92.884	20.220	996.647	787.822
93.899	20.129	995.628	786.535
94.914	19.997	994.765	785.187
95.928	20.142	994.404	785.487
96.943	20.136	993.353	784.561
97.957	19.884	992.329	782.545
98.972	19.624	990.822	780.112
99.987	19.414	989.993	778.444
101.001	19.641	989.005	778.620
102.016	19.890	988.515	779.284
103.030	19.973	987.402	778.712
104.045	19.848	986.397	777.290
105.060	19.733	984.903	775.526
106.074	19.540	983.568	773.543
107.089	19.574	983.155	773.303
108.103	19.777	983.220	774.192
109.118	20.035	982.034	774.343
110.133	19.892	980.623	772.526
111.147	19.853	979.649	771.517
112.162	19.831	978.041	770.085
113.176	19.467	977.161	767.705
114.191	19.548	976.558	767.522
115.206	19.870	974.906	767.586
116.220	19.417	974.212	764.962
117.235	19.429	972.902	763.920
118.249	19.589	972.136	763.959
119.264	19.552	971.509	763.233
120.279	19.373	970.732	761.766
121.293	19.524	969.634	761.501
122.308	19.571	969.141	761.253
123.322	19.634	968.211	760.736
124.337	19.499	967.314	759.370
125.352	19.440	966.033	758.035
126.366	19.002	964.179	754.592
127.381	18.736	962.804	752.285
128.395	19.208	962.813	754.293
129.410	19.729	962.603	756.340
130.424	19.995	961.495	756.565
131.439	20.062	960.073	755.674
132.454	20.003	959.153	754.627
133.468	19.921	958.476	753.668
134.483	19.767	957.814	752.413
135.497	19.933	957.096	752.503
136.512	20.176	956.145	752.743
137.527	20.001	955.979	751.786
138.541	20.180	954.716	751.503
139.556	20.268	953.634	750.966
140.570	20.165	953.077	750.017
141.585	20.100	952.328	749.077
142.600	20.220	951.380	748.787
143.614	20.187	950.530	747.905
144.629	20.196	949.992	747.458
145.643	20.449	949.123	747.793
146.658	20.297	948.130	746.294
147.673	20.124	946.812	744.447
148.687	20.020	945.918	743.232
149.702	20.027	944.734	742.264
150.716	19.966	943.961	741.332
151.731	19.974	942.933	740.492
152.746	20.055	941.806	739.890
153.760	20.179	941.532	740.137
154.775	20.394	940.636	740.284
155.789	20.458	939.617	739.688
156.804	20.304	938.955	738.448
157.819	20.240	938.283	737.581
158.833	20.228	937.151	736.574
159.848	20.267	936.905	736.482
160.862	20.437	935.527	736.054
161.877	20.177	935.003	734.477
162.892	20.167	933.948	733.538
163.906	20.513	932.928	734.134
164.921	20.267	932.495	732.693
165.935	20.301	931.003	731.598
166.950	20.406	929.563	730.841
167.964	20.507	928.790	730.597
168.979	20.391	927.985	729.412
169.994	20.454	926.108	728.135
171.008	20.185	925.764	726.672
172.023	20.295	925.343	726.739
173.037	20.395	924.348	726.312
174.052	20.177	923.116	724.366
175.067	20.045	922.277	723.095
176.081	20.088	921.367	722.498
177.096	20.214	920.654	722.398
178.110	20.245	919.703	721.719
179.125	20.010	918.714	719.902
180.140	19.705	917.990	718.002
181.154	19.752	917.419	717.688
182.169	19.904	916.496	717.534
183.183	20.088	916.376	718.139
184.198	20.339	915.848	718.701
185.213	20.138	915.113	717.229
186.227	20.150	914.410	716.661
187.242	20.247	914.231	716.860
188.256	20.290	913.690	716.551
189.271	20.347	911.954	715.362
190.286	20.373	911.682	715.191
191.300	20.287	910.333	713.713
192.315	19.921	909.197	711.259
193.329	19.187	907.902	707.170
194.344	18.847	907.056	705.051
195.359	19.382	906.901	707.064
196.373	20.091	907.380	710.280
197.388	20.263	907.276	710.842
198.402	20.188	906.063	709.522
199.417	20.154	905.828	709.134
200.432	20.165	905.564	708.911
201.446	20.028	903.826	706.930
202.461	19.764	903.176	705.281
203.475	19.784	903.272	705.374
204.490	19.356	901.697	702.339
205.504	18.258	899.614	696.194
206.519	18.880	899.141	698.294
207.534	19.747	899.539	702.064
208.548	19.741	899.246	701.747
209.563	20.246	898.806	703.388
210.577	20.148	898.151	702.418
211.592	20.035	896.888	700.911
212.607	20.241	897.353	702.044
213.621	20.253	897.107	701.838
214.636	20.369	895.796	701.222
215.650	20.442	895.177	700.967
216.665	20.311	894.827	700.103
217.680	20.221	894.501	699.422
218.694	20.480	893.580	699.684
219.709	19.987	892.502	696.797
220.723	19.791	891.569	695.218
221.738	20.009	890.987	695.577
222.753	20.170	890.854	696.060
223.767	20.125	890.693	695.690
224.782	20.280	888.967	694.902
225.796	20.493	888.451	695.292
226.811	20.611	888.175	695.485
227.826	20.154	886.670	692.419
228.840	19.335	885.369	688.075
229.855	19.175	885.175	687.223
230.869	19.542	884.248	687.906
231.884	19.213	882.909	685.495
232.899	19.415	882.447	685.880
233.913	20.137	882.938	689.069
234.928	20.210	882.734	689.143
235.942	20.035	882.021	687.830
236.957	20.247	881.075	687.873
237.972	19.933	879.939	685.679
238.986	19.803	879.425	684.705
240.001	19.959	878.832	684.797
241.015	19.909	878.074	683.951
242.030	20.198	877.103	684.274
243.045	20.243	876.939	684.262
244.059	20.250	876.671	684.022
245.074	20.443	876.072	684.254
246.088	20.262	875.632	683.136
247.103	20.032	873.771	680.721
248.117	20.033	873.954	680.805
249.132	20.369	873.729	681.890
250.147	20.794	873.242	683.119
251.161	20.702	872.841	682.384
252.176	20.926	871.993	682.536
253.190	21.018	871.320	682.312
254.205	20.946	870.780	681.545
255.220	21.218	870.316	682.184
256.234	21.211	869.762	681.664
257.249	21.169	868.908	680.768
258.263	20.938	868.546	679.527
259.278	20.943	868.000	679.057
260.293	21.038	867.537	679.003
261.307	21.001	866.850	678.264
262.322	20.958	866.100	677.451
263.336	20.893	864.918	676.211
264.351	20.318	863.904	673.131
265.366	19.245	861.665	667.173
266.380	18.931	861.198	665.538
267.395	19.872	861.570	669.408
268.409	20.585	861.672	672.184
269.424	20.591	860.893	671.540
270.439	20.584	860.674	671.286
271.453	20.946	859.781	671.924
272.468	20.939	859.053	671.269
273.482	21.115	858.689	671.601
274.497	21.056	858.517	671.180
275.512	20.930	857.304	669.688
276.526	20.288	856.113	666.238
277.541	20.614	855.636	667.057
278.555	20.828	855.308	667.561
279.570	20.649	854.275	666.010
280.585	20.480	853.575	664.759
281.599	20.482	853.293	664.488
282.614	20.645	852.937	664.776
283.628	20.351	851.500	662.476
284.643	19.962	850.992	660.540
285.657	20.578	850.891	662.751
286.672	20.396	849.587	660.983
287.687	19.991	848.884	658.839
288.701	20.250	848.641	659.578
289.716	20.609	848.448	660.733
290.730	20.146	847.564	658.228
291.745	20.140	846.754	657.517
292.760	19.951	846.115	656.247
293.774	19.774	845.717	655.209
294.789	20.751	845.899	658.993
295.803	21.395	845.667	661.191
296.818	21.390	845.106	660.675
297.833	21.468	844.570	660.492
298.847	21.073	843.740	658.292
299.862	20.885	842.392	656.476
300.876	20.943	842.223	656.502
301.891	21.290	841.707	657.351
302.906	21.394	841.282	657.349
303.920	20.997	839.896	654.718
304.935	20.812	839.362	653.549
305.949	21.189	839.142	654.735
306.964	21.382	838.390	654.814
307.979	21.254	837.693	653.732
308.993	21.283	837.374	653.533
310.008	21.375	837.533	653.943
311.022	21.613	836.366	653.864
312.037	21.496	835.756	652.891
313.052	21.125	835.464	651.224
314.066	21.148	834.538	650.529
315.081	20.461	833.235	646.900
316.095	19.710	832.342	643.355
317.110	20.200	832.295	645.085
318.125	21.146	832.588	648.772
319.139	20.713	831.502	646.261
320.154	19.803	829.852	641.549
321.168	19.224	829.010	638.694
322.183	19.850	829.017	640.963
323.197	20.716	829.450	644.448
324.212	21.051	829.161	645.405
325.227	21.091	828.838	645.246
326.241	21.289	828.254	645.465
327.256	21.116	827.743	644.373
328.270	21.096	827.058	643.708
329.285	21.011	826.143	642.624
330.300	20.994	825.421	641.943
331.314	20.733	824.645	640.324
332.329	20.670	824.189	639.680
333.343	21.003	823.897	640.623
334.358	21.381	823.697	641.797
335.373	21.146	823.219	640.505
336.387	21.341	822.654	640.724
337.402	21.733	821.781	641.424
338.416	21.928	821.445	641.818
339.431	21.615	821.181	640.410
340.446	21.547	820.451	639.537
341.460	21.868	819.934	640.250
342.475	21.785	819.209	639.322
343.489	21.725	818.183	638.247
344.504	21.689	818.244	638.107
345.519	21.829	818.130	638.469
346.533	21.981	817.488	638.468
347.548	22.055	817.405	638.616
348.562	21.974	816.780	637.775
349.577	22.182	815.942	637.821
350.592	22.242	815.251	637.439
351.606	22.055	815.006	636.515
352.621	22.026	814.612	636.044
353.635	22.034	813.918	635.475
354.650	21.958	813.269	634.639
355.665	21.344	812.730	631.942
356.679	20.441	810.878	627.187
357.694	20.363	810.262	626.374
358.708	20.998	810.724	628.966
359.723	20.855	810.149	627.949
360.738	21.248	809.609	628.891
361.752	21.832	809.151	630.582
362.767	21.741	808.767	629.899
363.781	22.040	808.556	630.754
364.796	22.356	808.207	631.559
365.810	22.225	807.970	630.850
366.825	22.498	807.458	631.371
367.840	22.358	807.411	630.775
368.854	22.140	806.628	629.327
369.869	21.780	805.495	627.100
370.883	21.710	804.981	626.394
371.898	21.759	804.541	626.174
372.913	21.736	803.675	625.360
373.927	21.693	803.065	624.679
374.942	21.807	802.861	624.868
375.956	21.805	802.384	624.435
376.971	22.124	801.737	625.011
377.986	22.255	801.330	625.106
379.000	22.254	800.822	624.650
380.015	22.167	800.670	624.166
381.029	22.240	799.786	623.680
382.044	22.171	798.976	622.753
383.059	22.194	798.775	622.620
384.073	22.144	798.476	622.157
385.088	22.307	798.023	622.324
386.102	22.321	797.333	621.779
387.117	22.142	796.403	620.369
388.132	22.078	796.014	619.785
389.146	21.933	795.491	618.811
390.161	21.316	794.542	615.846
391.175	21.540	794.119	616.249
392.190	21.947	794.312	617.780
393.205	22.058	793.657	617.605
394.219	21.104	791.905	612.838
395.234	19.712	789.537	606.073
396.248	18.928	788.830	602.732
397.263	20.074	789.741	607.394
398.278	21.713	790.764	613.872
399.292	22.105	790.665	615.115
400.307	21.753	790.427	613.642
401.321	21.905	789.661	613.525
402.336	21.843	789.480	613.115
403.350	22.130	789.408	614.007
404.365	22.488	788.984	614.873
405.380	22.825	788.382	615.525
406.394	23.005	788.800	616.424
407.409	22.943	788.506	615.922
408.423	22.977	787.579	615.262
409.438	23.066	786.662	614.800
410.453	22.964	786.825	614.522
411.467	23.113	786.160	614.464
412.482	23.016	785.295	613.395
413.496	23.174	784.640	613.380
414.511	23.110	784.785	613.217
415.526	22.988	784.484	612.506
416.540	22.976	783.947	611.989
417.555	22.884	783.238	611.064
418.569	22.703	782.847	610.080
419.584	22.571	782.418	609.233
420.599	22.711	781.927	609.280
421.613	157.949	1363.169	1797.486
422.628	136.544	1447.853	1797.562
