DTS Sentinel unit serial number:	SN413079Multiplexer serial number:	ORYXHardware model number:	OX4-SRSoftware version number:	ORYX F/W v4.00 Oryx Data Collector v3.7.2.0data status	okinstallation	princeton_trtdifferential loss correction	single-endedforward channel	channel 3reverse channel	N/Adate	2019/09/15time	04:52:35forward acquisition time	60.00reverse acquisition time	0.00gamma	496.2192k internal	0.2324k external	0.2324temperature offset calibration	0.9979default loss term (dB/km)	0.3790temperature slope calibration	1.0000multiplexer offset coefficient	1.0000multiplexer slope coefficient	1.0000fibre end	0.00T internal ref (°C)	30.75T ext. ref 1 (°C)	4.82T ext. ref 2 (°C)	25.27length (m)	temperature (°C)	Stokes	anti-Stokes-747.200	-135.918	-0.220	0.026
-746.185	152.413	-0.171	0.236
-745.171	503.363	0.109	0.255
-744.156	800.000	0.159	0.589
-743.142	-91.924	0.465	-0.133
-742.127	-200.000	-0.052	0.349
-741.112	-116.917	0.265	0.049
-740.098	-77.940	-0.030	0.010
-739.083	59.881	-0.030	0.030
-738.069	768.263	-0.141	0.387
-737.054	-200.000	-0.007	-0.057
-736.039	-200.000	-0.058	-0.296
-735.025	152.437	-0.063	0.087
-734.010	800.000	0.107	0.388
-732.996	-25.842	-0.452	-0.269
-731.981	323.592	-0.020	-0.038
-730.966	246.636	-0.116	-0.197
-729.952	164.074	0.336	-0.477
-728.937	800.000	0.101	-0.346
-727.923	-200.000	0.009	0.284
-726.908	120.744	-0.049	0.061
-725.894	-90.401	0.237	0.069
-724.879	143.626	0.100	-0.134
-723.864	-3.535	0.193	-0.136
-722.850	-200.000	-0.016	0.152
-721.835	270.649	0.104	-0.185
-720.821	-132.969	0.251	-0.032
-719.806	800.000	-0.050	-0.156
-718.791	109.312	-0.092	-0.111
-717.777	283.419	-0.100	0.182
-716.762	-200.000	0.011	-0.196
-715.748	164.310	0.075	-0.107
-714.733	170.111	-0.129	-0.186
-713.718	120.644	-0.311	0.390
-712.704	-76.001	0.051	0.018
-711.689	-198.656	0.508	0.003
-710.675	-136.441	-0.373	0.044
-709.660	26.676	-0.348	0.294
-708.645	-200.000	0.013	-0.266
-707.631	-68.188	0.195	-0.076
-706.616	22.876	-0.158	-0.131
-705.602	-37.393	0.180	-0.097
-704.587	-149.143	-0.026	0.002
-703.572	21.728	-0.108	0.089
-702.558	346.466	-0.019	-0.038
-701.543	-37.146	0.359	-0.194
-700.529	-94.797	-0.111	-0.030
-699.514	19.401	-0.187	-0.151
-698.499	385.827	-0.082	-0.170
-697.485	-144.183	-0.313	-0.029
-696.470	-200.000	-0.058	-0.373
-695.456	-26.103	0.260	0.154
-694.441	600.782	0.169	0.424
-693.426	488.433	-0.106	0.245
-692.412	53.164	-0.292	-0.281
-691.397	76.116	0.067	-0.072
-690.383	-24.743	0.301	-0.180
-689.368	123.912	0.097	-0.123
-688.354	447.304	0.093	0.206
-687.339	-77.574	-0.200	-0.070
-686.324	-27.573	-0.396	-0.231
-685.310	800.000	-0.090	0.329
-684.295	41.769	0.118	-0.108
-683.281	-200.000	-0.062	-0.345
-682.266	-59.629	-0.351	-0.152
-681.251	-119.337	0.242	0.042
-680.237	-200.000	-0.026	-0.169
-679.222	104.818	0.151	-0.179
-678.208	-32.699	-0.151	-0.085
-677.193	800.000	-0.046	0.179
-676.178	26.048	-0.098	-0.082
-675.164	-190.581	0.142	0.002
-674.149	-18.967	0.088	-0.055
-673.135	800.000	0.056	-0.189
-672.120	51.380	0.072	-0.069
-671.105	-200.000	-0.035	-0.204
-670.091	-113.548	0.167	0.033
-669.076	-126.341	-0.192	-0.029
-668.062	210.806	-0.137	-0.216
-667.047	100.379	0.033	-0.038
-666.032	-92.273	0.378	0.107
-665.018	102.200	0.123	-0.144
-664.003	512.409	-0.041	0.095
-662.989	-9.770	-0.180	-0.120
-661.974	650.612	0.057	-0.146
-660.959	34.946	0.205	-0.181
-659.945	-114.455	-0.287	-0.055
-658.930	-108.128	-0.279	0.061
-657.916	-200.000	0.034	0.362
-656.901	213.656	0.153	0.243
-655.886	-200.000	0.018	0.124
-654.872	-19.972	-0.326	0.202
-653.857	95.483	-0.163	-0.187
-652.843	-182.857	-0.028	0.001
-651.828	800.000	-0.046	0.139
-650.814	-107.829	-0.085	0.019
-649.799	99.710	0.107	0.124
-648.784	-117.838	-0.203	0.037
-647.770	433.884	0.095	-0.207
-646.755	-16.500	-0.246	-0.157
-645.741	-78.303	-0.394	-0.136
-644.726	421.513	0.067	0.145
-643.711	57.183	0.080	-0.079
-642.697	-200.000	-0.006	-0.279
-641.682	-156.813	-0.034	0.002
-640.668	-200.000	0.034	-0.240
-639.653	196.368	-0.203	-0.311
-638.638	47.616	0.213	0.200
-637.624	-82.403	-0.237	-0.077
-636.609	-200.000	-0.055	-0.443
-635.595	178.404	-0.114	-0.167
-634.580	-200.000	0.036	-0.223
-633.565	-105.645	0.129	0.029
-632.551	489.384	0.043	-0.098
-631.536	-23.127	-0.257	-0.156
-630.522	271.199	-0.012	-0.022
-629.507	-200.000	0.043	-0.267
-628.492	-118.118	-0.095	0.017
-627.478	107.070	-0.252	0.301
-626.463	-84.315	-0.140	0.044
-625.449	479.503	-0.143	0.326
-624.434	-131.229	-0.123	0.016
-623.419	206.705	0.076	-0.118
-622.405	43.869	0.116	0.107
-621.390	-105.950	0.231	-0.052
-620.376	400.328	0.100	0.211
-619.361	-200.000	-0.022	-0.104
-618.346	57.028	-0.362	-0.354
-617.332	-200.000	-0.019	0.332
-616.317	152.581	0.103	0.141
-615.303	-185.063	-0.186	-0.003
-614.288	-200.000	-0.018	-0.251
-613.273	-193.057	0.293	-0.003
-612.259	42.447	0.038	-0.035
-611.244	12.467	-0.113	-0.087
-610.230	6.135	0.183	-0.136
-609.215	-44.268	0.142	-0.071
-608.201	-200.000	0.052	0.508
-607.186	-127.699	0.159	0.023
-606.171	81.998	-0.016	-0.017
-605.157	45.802	-0.261	-0.243
-604.142	-112.848	-0.161	-0.032
-603.128	51.828	0.239	0.228
-602.113	-43.872	-0.058	-0.029
-601.098	-98.713	-0.108	-0.028
-600.084	508.280	0.166	0.386
-599.069	-161.234	-0.097	0.005
-598.055	11.886	0.058	-0.045
-597.040	115.242	0.191	-0.233
-596.025	-80.190	-0.070	0.024
-595.011	-52.724	0.025	-0.012
-593.996	-18.017	0.121	-0.076
-592.982	471.921	0.045	0.103
-591.967	644.882	0.067	-0.171
-590.952	-182.856	-0.298	0.005
-589.938	146.437	-0.077	-0.103
-588.923	167.780	0.047	0.067
-587.909	-200.000	0.002	-0.311
-586.894	-183.604	-0.376	-0.006
-585.879	-151.305	0.312	0.023
-584.865	56.887	-0.135	0.132
-583.850	234.953	0.145	-0.241
-582.836	-200.000	0.005	-0.100
-581.821	723.239	-0.066	0.176
-580.806	255.949	-0.274	0.472
-579.792	42.908	0.295	0.270
-578.777	-93.265	0.201	-0.056
-577.763	-200.000	0.019	0.232
-576.748	-79.230	0.058	0.020
-575.733	-90.244	-0.250	0.073
-574.719	180.920	-0.103	-0.152
-573.704	97.595	0.074	-0.085
-572.690	466.172	-0.098	-0.221
-571.675	-168.372	0.125	0.005
-570.661	-200.000	0.014	0.088
-569.646	-57.115	-0.219	-0.097
-568.631	5.633	0.114	-0.085
-567.617	297.983	-0.146	-0.269
-566.602	-200.000	0.015	0.109
-565.588	458.083	-0.012	0.027
-564.573	-2.772	0.139	0.097
-563.558	-200.000	-0.006	0.229
-562.544	-115.046	0.233	0.044
-561.529	320.860	0.130	-0.248
-560.515	-92.531	-0.175	0.049
-559.500	-6.909	-0.184	-0.125
-558.485	369.211	0.237	-0.480
-557.471	-188.118	-0.155	0.002
-556.456	-200.000	-0.018	-0.251
-555.442	726.848	-0.084	0.224
-554.427	24.443	0.228	-0.189
-553.412	-111.086	0.055	0.011
-552.398	-200.000	0.013	0.098
-551.383	84.487	0.319	-0.350
-550.369	164.993	-0.103	-0.145
-549.354	-106.672	-0.251	0.056
-548.339	-12.702	0.128	0.083
-547.325	-33.616	0.259	-0.143
-546.310	-200.000	-0.005	-0.136
-545.296	-200.000	-0.006	-0.160
-544.281	-200.000	0.080	-0.469
-543.266	-42.954	-0.058	0.029
-542.252	29.083	-0.186	0.158
-541.237	-200.000	0.042	-0.389
-540.223	-156.641	-0.455	0.028
-539.208	3.513	0.068	0.049
-538.193	-200.000	-0.042	-0.275
-537.179	-164.886	0.075	-0.003
-536.164	-37.069	0.306	0.164
-535.150	-48.271	0.171	-0.083
-534.135	-45.152	-0.203	0.101
-533.121	-34.274	0.299	-0.164
-532.106	-26.849	-0.214	0.125
-531.091	17.486	-0.059	-0.047
-530.077	-31.331	-0.265	-0.149
-529.062	139.752	-0.203	-0.268
-528.048	-200.000	-0.051	-0.252
-527.033	665.164	0.080	-0.206
-526.018	258.442	0.166	-0.287
-525.004	153.455	-0.152	0.209
-523.989	-94.489	0.158	0.043
-522.975	-35.306	-0.191	0.104
-521.960	11.104	-0.186	0.142
-520.945	800.000	-0.035	0.126
-519.931	-1.261	-0.110	0.077
-518.916	-63.617	-0.280	-0.115
-517.902	-138.006	0.591	0.066
-516.887	-200.000	-0.040	0.194
-515.872	118.397	-0.126	-0.155
-514.858	-86.278	0.101	0.031
-513.843	-200.000	0.025	0.263
-512.829	-157.373	-0.196	-0.012
-511.814	-200.000	0.049	-0.263
-510.799	-43.386	-0.238	-0.120
-509.785	292.926	-0.186	0.339
-508.770	-200.000	-0.018	0.153
-507.756	-200.000	0.005	0.149
-506.741	-72.299	0.293	-0.109
-505.726	50.791	-0.249	0.236
-504.712	-81.075	0.293	0.097
-503.697	566.796	-0.111	0.269
-502.683	7.249	-0.175	-0.131
-501.668	-200.000	0.015	-0.117
-500.653	-51.942	-0.389	-0.181
-499.639	-48.852	-0.302	-0.145
-498.624	104.658	0.050	-0.059
-497.610	-42.146	0.341	0.174
-496.595	-200.000	0.075	-0.451
-495.581	-146.998	-0.290	-0.025
-494.566	-99.618	-0.164	-0.041
-493.551	237.857	0.233	0.387
-492.537	-200.000	-0.000	0.148
-491.522	17.848	0.300	0.239
-490.508	84.894	-0.210	0.230
-489.493	800.000	-0.042	0.129
-488.478	-142.453	-0.164	-0.016
-487.464	-24.652	0.190	-0.113
-486.449	389.986	-0.119	0.247
-485.435	-179.609	-0.145	0.003
-484.420	-168.490	0.277	0.011
-483.405	-200.000	0.027	-0.125
-482.391	-29.461	-0.241	0.137
-481.376	418.000	0.057	-0.121
-480.362	-32.579	-0.200	0.111
-479.347	800.000	0.039	-0.153
-478.332	800.000	-0.099	0.281
-477.318	11.898	-0.153	-0.118
-476.303	38.443	0.524	-0.466
-475.289	-83.567	0.050	-0.016
-474.274	-151.365	-0.326	-0.024
-473.259	649.995	-0.077	-0.196
-472.245	110.850	-0.083	-0.099
-471.230	21.152	-0.158	0.128
-470.216	57.484	-0.261	0.255
-469.201	2.373	-0.266	-0.193
-468.186	11.445	0.176	-0.135
-467.172	-200.000	-0.015	0.176
-466.157	50.002	-0.200	0.188
-465.143	439.408	-0.040	0.087
-464.128	-67.520	0.191	0.075
-463.113	390.319	-0.124	0.258
-462.099	-139.912	0.148	-0.016
-461.084	-46.527	0.119	0.058
-460.070	-200.000	-0.023	0.153
-459.055	40.282	0.078	-0.070
-458.040	-11.351	-0.040	-0.026
-457.026	-132.599	0.134	0.017
-456.011	-117.900	0.175	-0.031
-454.997	-170.967	0.084	0.003
-453.982	-24.440	-0.134	0.080
-452.968	-87.608	-0.357	0.108
-451.953	22.907	0.115	0.094
-450.938	33.474	0.132	-0.114
-449.924	15.089	-0.181	0.141
-448.909	179.009	-0.186	0.271
-447.895	38.788	0.154	0.137
-446.880	-200.000	-0.047	-0.299
-445.865	-113.187	0.341	0.067
-444.851	-102.149	0.078	0.019
-443.836	-8.947	-0.111	0.074
-442.822	-200.000	-0.022	0.188
-441.807	50.518	-0.249	-0.235
-440.792	-200.000	0.018	0.187
-439.778	341.298	-0.268	0.523
-438.763	388.523	0.053	0.110
-437.749	320.572	0.193	-0.365
-436.734	97.497	-0.205	0.235
-435.719	-84.339	-0.204	-0.064
-434.705	554.142	-0.025	-0.060
-433.690	-94.427	-0.293	-0.080
-432.676	-100.764	0.273	-0.067
-431.661	-200.000	-0.014	0.137
-430.646	-124.528	0.164	0.025
-429.632	676.532	-0.114	0.295
-428.617	128.390	-0.109	0.138
-427.603	37.755	0.053	-0.047
-426.588	150.490	0.012	-0.016
-425.573	64.499	-0.222	0.223
-424.559	800.000	0.063	-0.184
-423.544	65.120	0.255	0.257
-422.530	-130.588	-0.384	-0.052
-421.515	-200.000	0.035	-0.330
-420.500	559.550	-0.147	-0.353
-419.486	48.635	0.100	0.094
-418.471	-122.430	0.436	-0.071
-417.457	-200.000	-0.036	-0.286
-416.442	-113.132	0.132	0.026
-415.428	423.257	-0.079	0.168
-414.413	394.209	0.087	-0.181
-413.398	78.020	0.175	-0.186
-412.384	-51.515	0.185	-0.086
-411.369	-126.172	-0.194	0.029
-410.355	-135.656	-0.047	-0.006
-409.340	40.483	-0.560	0.502
-408.325	-17.227	-0.191	0.120
-407.311	-200.000	0.015	-0.068
-406.296	-200.000	0.103	-0.000
-405.282	800.000	0.062	-0.233
-404.267	-200.000	-0.006	-0.111
-403.252	800.000	-0.080	-0.268
-402.238	7.674	-0.217	0.162
-401.223	-140.339	0.099	0.010
-400.209	-157.534	-0.091	-0.005
-399.194	-78.604	0.429	-0.146
-398.179	-56.818	0.268	-0.118
-397.165	-175.865	-0.259	0.007
-396.150	-149.527	-0.296	0.023
-395.136	-30.499	0.227	-0.128
-394.121	-200.000	-0.008	-0.210
-393.106	-200.000	0.014	-0.113
-392.092	282.250	0.040	0.071
-391.077	-112.864	0.277	0.055
-390.063	-117.610	0.218	0.039
-389.048	-51.746	-0.367	-0.170
-388.033	382.871	0.087	-0.178
-387.019	-94.691	-0.193	0.052
-386.004	0.219	-0.291	-0.206
-384.990	500.023	-0.051	-0.118
-383.975	-84.971	0.012	0.004
-382.960	-200.000	-0.020	-0.089
-381.946	-94.472	-0.101	0.027
-380.931	-96.190	-0.201	0.053
-379.917	502.653	-0.098	0.226
-378.902	-75.580	0.078	-0.028
-377.888	800.000	0.029	-0.087
-376.873	123.074	0.126	0.157
-375.858	-91.050	0.363	-0.104
-374.844	-7.733	-0.110	-0.074
-373.829	403.146	-0.115	0.242
-372.815	157.998	0.075	0.103
-371.800	-200.000	0.021	0.339
-370.785	64.904	-0.182	-0.183
-369.771	-49.758	-0.148	0.070
-368.756	-200.000	0.039	0.318
-367.742	321.595	0.094	-0.178
-366.727	445.166	-0.034	-0.074
-365.712	95.968	0.115	0.130
-364.698	96.403	0.100	-0.114
-363.683	9.465	0.131	0.099
-362.669	83.174	-0.019	-0.020
-361.654	-84.282	-0.100	0.031
-360.639	-114.236	-0.379	0.073
-359.625	800.000	-0.067	-0.228
-358.610	-200.000	-0.027	0.378
-357.596	-181.764	-0.410	-0.008
-356.581	737.045	0.073	0.195
-355.566	369.681	0.121	-0.243
-354.552	-57.023	0.240	0.105
-353.537	-77.867	-0.262	-0.090
-352.523	800.000	0.081	0.321
-351.508	-200.000	0.006	0.327
-350.493	170.928	-0.013	0.018
-349.479	800.000	0.097	0.321
-348.464	-189.294	-0.198	-0.002
-347.450	18.740	0.157	0.125
-346.435	800.000	-0.031	-0.090
-345.420	800.000	-0.040	-0.113
-344.406	647.631	-0.016	-0.041
-343.391	425.453	-0.058	-0.124
-342.377	-200.000	-0.021	-0.240
-341.362	-105.766	-0.422	-0.095
-340.348	22.038	-0.292	-0.237
-339.333	-168.722	-0.374	-0.014
-338.318	-146.756	0.082	0.007
-337.304	800.000	-0.093	0.346
-336.289	161.512	0.226	-0.314
-335.275	-99.057	-0.323	-0.081
-334.260	-59.948	-0.135	-0.057
-333.245	-200.000	-0.049	-0.314
-332.231	-200.000	0.047	-0.246
-331.216	-7.133	-0.056	-0.038
-330.202	384.794	-0.218	-0.445
-329.187	800.000	0.054	-0.170
-328.172	-200.000	0.024	-0.182
-327.158	-144.054	-0.109	0.010
-326.143	-200.000	0.023	-0.187
-325.129	91.530	-0.299	0.333
-324.114	-134.738	-0.074	0.009
-323.099	800.000	0.059	-0.179
-322.085	710.816	0.148	0.389
-321.070	-30.250	-0.166	-0.094
-320.056	132.314	-0.188	0.241
-319.041	283.071	-0.103	-0.183
-318.026	-128.194	0.231	0.033
-317.012	-98.925	0.074	0.019
-315.997	-57.530	0.225	-0.098
-314.983	279.983	0.101	0.180
-313.968	-24.129	-0.175	-0.104
-312.953	40.381	0.167	0.149
-311.939	397.359	0.094	-0.194
-310.924	71.011	-0.197	-0.202
-309.910	-151.925	-0.185	-0.013
-308.895	69.643	-0.071	-0.073
-307.880	-75.548	-0.102	-0.036
-306.866	-200.000	0.031	0.242
-305.851	-68.115	-0.268	0.104
-304.837	773.616	-0.070	-0.190
-303.822	800.000	-0.050	-0.185
-302.807	-185.203	0.084	-0.001
-301.793	-67.581	0.173	0.067
-300.778	747.077	0.088	0.235
-299.764	43.043	0.222	0.201
-298.749	-57.386	-0.114	0.050
-297.735	-152.619	0.137	-0.010
-296.720	-141.744	-0.310	0.031
-295.705	800.000	0.114	-0.397
-294.691	-71.470	0.194	-0.072
-293.676	130.393	0.142	0.180
-292.662	252.132	0.103	0.174
-291.647	107.623	-0.058	0.068
-290.632	90.916	-0.122	0.136
-289.618	800.000	0.111	0.321
-288.603	677.010	-0.016	-0.041
-287.589	-200.000	0.001	0.285
-286.574	-200.000	-0.030	0.182
-285.559	1.003	-0.318	0.226
-284.545	21.877	0.079	0.064
-283.530	-106.072	0.186	-0.041
-282.516	436.153	0.073	0.157
-281.501	-102.096	-0.128	0.031
-280.486	196.690	0.128	-0.193
-279.472	800.000	-0.043	0.122
-278.457	-31.300	-0.204	0.114
-277.443	-101.742	0.087	-0.021
-276.428	-200.000	0.006	-0.273
-275.413	-200.000	-0.003	-0.264
-274.399	211.881	0.064	0.100
-273.384	467.436	-0.074	0.165
-272.370	154.589	0.042	0.058
-271.355	-1.618	-0.245	-0.171
-270.340	-200.000	0.023	-0.243
-269.326	-160.476	-0.234	-0.012
-268.311	800.000	-0.033	-0.137
-267.297	-200.000	-0.033	0.200
-266.282	367.356	0.077	0.153
-265.267	-50.463	0.275	-0.129
-264.253	33.716	-0.256	0.220
-263.238	328.870	0.132	-0.251
-262.224	-172.512	0.068	0.002
-261.209	-21.506	0.272	0.164
-260.195	800.000	0.087	0.252
-259.180	-69.496	0.134	-0.051
-258.165	41.068	0.265	-0.237
-257.151	-107.574	0.230	-0.050
-256.136	-30.072	0.168	-0.094
-255.122	-200.000	0.057	0.261
-254.107	-29.980	0.201	-0.114
-253.092	-200.000	-0.001	-0.021
-252.078	800.000	0.051	0.162
-251.063	-93.473	0.387	-0.106
-250.049	800.000	-0.084	0.241
-249.034	28.321	-0.045	0.038
-248.019	800.000	0.108	-0.439
-247.005	-104.338	-0.413	0.095
-245.990	43.747	0.110	0.100
-244.976	40.615	0.260	-0.232
-243.961	-200.000	0.000	-0.081
-242.946	800.000	-0.104	0.303
-241.932	-35.595	0.434	0.233
-240.917	23.069	-0.266	-0.216
-239.903	-86.151	0.087	0.026
-238.888	800.000	-0.089	0.275
-237.873	-6.343	0.168	0.114
-236.859	-125.878	-0.077	-0.012
-235.844	-200.000	0.035	0.187
-234.830	-19.526	0.175	0.107
-233.815	-77.843	-0.238	-0.081
-232.800	-130.503	-0.263	-0.035
-231.786	-111.823	0.221	-0.044
-230.771	447.575	-0.154	-0.335
-229.757	-200.000	-0.032	0.157
-228.742	-75.503	-0.118	-0.041
-227.727	196.184	0.083	0.126
-226.713	-55.695	-0.104	-0.046
-225.698	-10.844	0.095	0.062
-224.684	-158.023	0.105	0.006
-223.669	-200.000	0.011	-0.048
-222.655	309.558	0.108	-0.200
-221.640	129.565	0.315	-0.398
-220.625	800.000	0.039	-0.109
-219.611	54.612	0.361	-0.344
-218.596	-35.731	-0.525	-0.281
-217.582	136.063	0.194	-0.250
-216.567	-20.682	-0.239	0.145
-215.552	246.623	0.180	0.301
-214.538	800.000	-0.200	0.775
-213.523	521.336	-0.076	-0.175
-212.509	-200.000	-0.034	0.166
-211.494	23.167	0.090	-0.073
-210.479	-23.355	0.200	0.119
-209.465	42.896	0.109	0.098
-208.450	-79.749	0.414	0.138
-207.436	263.777	0.097	0.168
-206.421	-42.201	0.201	0.102
-205.406	34.806	0.210	0.182
-204.392	-13.887	0.342	0.219
-203.377	34.103	0.314	0.271
-202.363	-32.928	0.177	-0.097
-201.348	23.609	0.232	-0.188
-200.333	-200.000	-0.057	-0.273
-199.319	100.102	-0.171	-0.196
-198.304	-42.031	0.141	0.071
-197.290	-32.828	0.150	0.083
-196.275	254.996	0.019	0.032
-195.260	315.327	0.073	0.137
-194.246	67.913	0.223	0.225
-193.231	-37.337	0.407	0.215
-192.217	-200.000	0.037	-0.169
-191.202	377.675	-0.103	0.208
-190.187	-49.152	0.199	-0.094
-189.173	-200.000	-0.010	-0.116
-188.158	-93.696	0.547	0.149
-187.144	-79.379	-0.262	0.088
-186.129	87.143	0.152	0.165
-185.114	-134.574	0.251	0.030
-184.100	-147.905	0.088	-0.007
-183.085	119.672	-0.124	0.151
-182.071	-137.353	-0.063	-0.007
-181.056	-52.654	-0.117	-0.053
-180.042	112.724	-0.062	0.074
-179.027	800.000	-0.023	-0.101
-178.012	-200.000	0.050	0.324
-176.998	-140.813	0.495	-0.050
-175.983	345.510	0.079	0.153
-174.969	-200.000	-0.044	0.216
-173.954	-95.974	0.476	-0.125
-172.939	-63.825	-0.054	0.022
-171.925	-200.000	0.013	-0.092
-170.910	-200.000	-0.010	-0.204
-169.896	422.919	0.136	0.288
-168.881	-110.109	0.239	-0.049
-167.866	-77.308	0.312	-0.107
-166.852	-37.848	-0.172	0.090
-165.837	-149.130	0.264	-0.021
-164.823	800.000	0.045	-0.192
-163.808	719.344	-0.083	0.218
-162.793	-24.871	-0.252	-0.147
-161.779	262.653	0.067	0.114
-160.764	-200.000	0.010	-0.087
-159.750	63.318	-0.105	-0.104
-158.735	-137.566	-0.164	-0.018
-157.720	-137.089	-0.360	-0.041
-156.706	21.572	0.117	0.094
-155.691	-68.462	-0.181	-0.069
-154.677	800.000	0.045	-0.160
-153.662	-1.081	0.464	0.324
-152.647	-200.000	0.000	0.252
-151.633	-26.439	-0.165	-0.095
-150.618	335.055	0.142	0.271
-149.604	9.580	0.136	0.102
-148.589	64.830	-0.117	0.116
-147.574	-120.066	0.087	-0.015
-146.560	-40.916	0.056	0.029
-145.545	-31.251	-0.188	0.104
-144.531	-200.000	-0.000	0.186
-143.516	-200.000	0.035	-0.156
-142.502	92.680	-0.076	-0.085
-141.487	-74.826	-0.137	0.048
-140.472	-119.895	-0.330	-0.056
-139.458	-101.567	-0.434	0.104
-138.443	219.533	-0.100	0.158
-137.429	-170.593	0.376	-0.013
-136.414	-15.989	-0.315	0.198
-135.399	120.135	0.173	0.211
-134.385	800.000	-0.093	0.281
-133.370	-68.377	0.090	0.035
-132.356	128.169	0.164	0.206
-131.341	-16.241	-0.368	-0.230
-130.326	800.000	0.088	-0.302
-129.312	120.543	-0.107	0.130
-128.297	286.991	0.166	0.296
-127.283	-65.547	-0.568	0.225
-126.268	-61.795	-0.210	-0.087
-125.253	498.535	0.253	0.575
-124.239	-3.186	-0.086	-0.059
-123.224	-134.904	-0.219	-0.026
-122.210	3.942	-0.186	0.134
-121.195	-124.603	0.340	0.052
-120.180	-153.112	-0.098	-0.007
-119.166	-39.514	0.240	0.124
-118.151	-27.317	0.085	-0.049
-117.137	-20.822	0.324	-0.196
-116.122	513.835	0.014	0.032
-115.107	178.546	-0.216	0.311
-114.093	-200.000	-0.015	0.145
-113.078	-200.000	-0.002	-0.179
-112.064	-200.000	-0.015	0.085
-111.049	295.562	0.177	0.319
-110.034	-84.936	-0.396	0.122
-109.020	543.979	0.072	0.169
-108.005	41.467	-0.103	0.092
-106.991	15.045	0.053	0.041
-105.976	33.328	0.120	0.103
-104.962	-157.840	-0.403	-0.024
-103.947	-57.969	-0.101	0.043
-102.932	-200.000	0.046	-0.265
-101.918	59.851	0.162	0.158
-100.903	172.972	-0.249	-0.353
-99.889	-131.067	0.022	0.003
-98.874	-30.153	-0.223	0.125
-97.859	800.000	0.036	0.109
-96.845	26.475	0.089	-0.073
-95.830	-200.000	-0.091	-0.465
-94.816	27.233	-0.155	-0.128
-93.801	-116.853	0.092	0.017
-92.786	-100.421	0.055	0.013
-91.772	557.964	-0.121	-0.287
-90.757	-124.563	-0.304	0.046
-89.743	-200.000	0.070	0.324
-88.728	349.483	0.055	0.106
-87.713	1.417	0.228	-0.162
-86.699	-94.368	-0.108	-0.029
-85.684	283.881	-0.130	0.230
-84.670	67.328	-0.138	-0.138
-83.655	-157.393	0.118	0.007
-82.640	715.140	0.095	0.248
-81.626	-200.000	-0.033	0.207
-80.611	48.134	0.111	-0.102
-79.597	322.636	0.174	0.325
-78.582	-200.000	0.032	0.295
-77.567	-27.262	0.177	-0.101
-76.553	137.349	-0.237	0.305
-75.538	800.000	0.012	0.033
-74.524	-200.000	0.447	0.002
-73.509	-200.000	0.015	0.127
-72.494	-47.334	-0.445	0.213
-71.480	40.901	-0.147	0.130
-70.465	-22.412	0.226	0.134
-69.451	101.800	-0.157	0.180
-68.436	-157.769	0.502	-0.029
-67.422	-63.105	-0.278	0.113
-66.407	-60.268	-0.149	-0.062
-65.392	-200.000	-0.058	-0.310
-64.378	-200.000	-0.002	0.152
-63.363	-13.698	0.254	0.162
-62.349	143.646	0.192	0.251
-61.334	0.361	-1.150	-0.807
-60.319	394.631	0.342	0.699
-59.305	-200.000	-0.222	-1.128
-58.290	114.459	0.876	1.048
-57.276	800.000	0.596	1.624
-56.261	-200.000	102.245	588.327
-55.246	554.106	1431.280	3382.395
-54.232	188.008	2618.274	3843.178
-53.217	115.530	2165.955	2601.153
-52.203	41.433	1695.999	1507.752
-51.188	33.922	1505.600	1287.773
-50.173	31.554	1479.244	1249.389
-49.159	51.552	1531.682	1430.108
-48.144	52.761	1549.599	1455.005
-47.130	34.134	1506.878	1290.097
-46.115	30.984	1492.307	1256.385
-45.100	30.831	1488.359	1251.982
-44.086	30.731	1486.403	1249.614
-43.071	30.741	1484.756	1248.248
-42.057	30.772	1482.971	1246.907
-41.042	30.753	1481.418	1245.422
-40.027	30.768	1480.197	1244.448
-39.013	30.731	1479.019	1243.158
-37.998	30.636	1477.703	1241.372
-36.984	30.704	1476.214	1240.523
-35.969	30.823	1474.234	1239.601
-34.954	30.837	1472.916	1238.541
-33.940	30.751	1471.901	1237.062
-32.925	30.712	1470.806	1235.839
-31.911	30.715	1469.322	1234.561
-30.896	30.823	1467.877	1234.014
-29.881	30.814	1466.931	1233.111
-28.867	30.796	1465.685	1231.893
-27.852	30.788	1464.251	1230.588
-26.838	30.782	1462.554	1229.073
-25.823	30.797	1460.966	1227.789
-24.809	30.839	1459.597	1226.864
-23.794	30.856	1458.517	1226.020
-22.779	30.891	1456.689	1224.664
-21.765	30.819	1456.244	1223.768
-20.750	30.762	1454.696	1222.046
-19.736	30.810	1453.844	1221.596
-18.721	30.784	1452.348	1220.118
-17.706	30.705	1452.081	1219.331
-16.692	30.705	1451.215	1218.553
-15.677	30.811	1449.497	1217.757
-14.663	30.772	1448.608	1216.705
-13.648	30.780	1447.693	1215.939
-12.633	30.666	1447.237	1214.769
-11.619	30.615	1446.055	1213.397
-10.604	30.675	1445.169	1212.993
-9.590	30.777	1443.951	1212.584
-8.575	30.740	1443.045	1211.538
-7.560	30.703	1442.460	1210.754
-6.546	30.661	1441.922	1209.987
-5.531	30.662	1441.400	1209.506
-4.517	30.660	1440.495	1208.681
-3.502	30.709	1438.801	1207.534
-2.487	30.653	1437.767	1206.255
-1.473	30.709	1436.780	1205.739
-0.458	30.710	1435.296	1204.456
0.556	29.495	1425.816	1193.004
1.571	26.548	1400.775	1153.205
2.586	23.104	1341.854	1083.542
3.600	21.421	1261.345	1008.743
4.615	20.140	1215.739	965.057
5.629	17.546	1160.629	907.424
6.644	10.741	1079.705	810.237
7.659	5.658	1041.203	756.772
8.673	4.879	1036.489	749.532
9.688	4.876	1033.153	747.038
10.702	4.793	1031.482	745.368
11.717	4.732	1029.807	743.800
12.731	6.674	1031.472	754.227
13.746	13.166	1040.004	791.594
14.761	18.170	1046.249	820.338
15.775	18.523	1045.775	821.584
16.790	17.481	1043.817	814.991
17.804	16.367	1041.389	807.699
18.819	15.543	1039.534	802.253
19.834	15.017	1038.143	798.598
20.848	14.847	1037.142	796.947
21.863	14.434	1036.712	794.577
22.877	14.344	1035.880	793.443
23.892	14.242	1034.561	791.879
24.907	14.122	1034.385	791.101
25.921	14.091	1033.579	790.269
26.936	14.090	1032.776	789.578
27.950	14.167	1031.407	788.825
28.965	14.231	1030.625	788.463
29.980	14.068	1029.846	787.024
30.994	14.300	1028.516	787.035
32.009	14.322	1027.681	786.430
33.023	14.408	1026.964	786.220
34.038	14.507	1025.789	785.714
35.053	14.393	1025.271	784.715
36.067	14.381	1024.471	783.975
37.082	14.222	1023.276	782.244
38.096	14.294	1022.482	781.907
39.111	14.176	1022.168	781.044
40.126	14.462	1020.354	780.929
41.140	14.413	1019.082	779.656
42.155	14.106	1018.760	777.905
43.169	14.018	1017.985	776.831
44.184	14.030	1016.643	775.794
45.199	14.111	1015.031	774.873
46.213	13.998	1014.733	774.053
47.228	14.137	1013.686	773.831
48.242	14.089	1012.577	772.696
49.257	14.180	1011.854	772.495
50.271	14.185	1011.055	771.842
51.286	14.134	1010.323	770.980
52.301	14.333	1008.815	770.679
53.315	14.205	1008.475	769.760
54.330	14.145	1007.870	768.952
55.344	14.183	1006.411	767.947
56.359	14.148	1005.912	767.338
57.374	14.175	1004.485	766.303
58.388	14.158	1004.098	765.864
59.403	14.042	1003.424	764.746
60.417	14.047	1002.421	763.939
61.432	14.029	1001.917	763.405
62.447	13.953	1001.112	762.376
63.461	14.039	1000.066	761.905
64.476	13.947	999.296	760.827
65.490	13.862	998.786	759.983
66.505	13.971	997.606	759.517
67.520	13.995	996.835	758.972
68.534	14.000	996.325	758.540
69.549	14.106	995.252	758.140
70.563	13.957	994.663	756.947
71.578	13.987	994.144	756.621
72.593	13.938	993.204	755.612
73.607	13.895	992.104	754.514
74.622	13.888	991.278	753.788
75.636	13.787	990.607	752.755
76.651	13.899	989.697	752.505
77.666	13.901	989.097	751.989
78.680	13.771	988.634	750.980
79.695	13.902	988.215	751.189
80.709	13.837	987.763	750.485
81.724	13.962	986.340	749.902
82.739	14.107	985.755	750.044
83.753	14.203	984.996	749.836
84.768	14.238	984.083	749.229
85.782	14.406	983.474	749.455
86.797	14.317	982.989	748.622
87.812	14.379	982.601	748.535
88.826	14.269	981.588	747.208
89.841	14.130	980.434	745.636
90.855	14.339	979.585	745.864
91.870	14.313	979.515	745.628
92.884	14.482	978.278	745.377
93.899	14.376	977.591	744.311
94.914	14.358	976.821	743.580
95.928	14.437	975.992	743.234
96.943	14.440	975.338	742.685
97.957	14.412	974.724	742.026
98.972	14.510	973.461	741.436
99.987	14.430	972.982	740.647
101.001	14.410	972.525	740.146
102.016	14.215	972.055	738.858
103.030	14.397	970.552	738.456
104.045	14.396	969.829	737.836
105.060	14.377	968.999	737.056
106.074	14.325	968.154	736.120
107.089	14.131	967.074	734.375
108.103	14.026	966.526	733.431
109.118	14.082	965.176	732.590
110.133	13.988	964.755	731.789
111.147	14.054	963.334	730.938
112.162	13.995	962.897	730.281
113.176	14.099	961.947	729.952
114.191	14.123	961.258	729.470
115.206	14.157	960.861	729.257
116.220	14.065	959.901	728.057
117.235	14.247	958.744	727.915
118.249	14.246	957.914	727.213
119.264	14.053	957.530	726.015
120.279	14.183	956.458	725.705
121.293	14.141	955.490	724.725
122.308	14.068	955.031	723.993
123.322	14.075	954.012	723.186
124.337	13.939	953.065	721.816
125.352	13.930	951.733	720.705
126.366	13.983	950.926	720.258
127.381	13.974	949.724	719.245
128.395	13.882	948.727	718.029
129.410	13.994	947.760	717.719
130.424	13.991	947.308	717.296
131.439	14.150	945.946	716.889
132.454	13.956	945.772	715.855
133.468	14.200	944.627	715.976
134.483	14.048	943.941	714.739
135.497	14.207	942.973	714.627
136.512	14.164	942.726	714.193
137.527	14.193	941.608	713.406
138.541	14.207	940.944	712.902
139.556	14.146	940.590	712.306
140.570	14.012	939.946	711.183
141.585	14.204	939.167	711.351
142.600	14.429	938.530	711.766
143.614	14.265	937.680	710.360
144.629	14.270	937.215	709.965
145.643	14.386	936.236	709.655
146.658	14.357	935.622	709.003
147.673	14.400	934.253	708.087
148.687	14.187	933.604	706.630
149.702	14.188	932.833	705.988
150.716	14.143	931.757	704.921
151.731	14.194	930.908	704.429
152.746	14.338	930.192	704.436
153.760	14.107	929.850	703.138
154.775	14.286	928.944	703.145
155.789	14.225	928.590	702.559
156.804	14.164	927.901	701.715
157.819	14.477	926.781	702.125
158.833	14.333	926.507	701.250
159.848	14.462	925.981	701.332
160.862	14.466	925.189	700.687
161.877	14.484	924.309	700.036
162.892	14.404	923.772	699.230
163.906	14.339	922.667	698.061
164.921	14.279	921.931	697.191
165.935	14.226	920.752	696.016
166.950	14.392	919.793	695.921
167.964	14.538	918.582	695.554
168.979	14.475	917.595	694.482
169.994	14.413	916.456	693.300
171.008	14.453	916.289	693.281
172.023	14.405	915.162	692.165
173.037	14.392	914.966	691.902
174.052	14.557	914.338	692.052
175.067	14.574	913.265	691.247
176.081	14.352	912.869	689.967
177.096	14.298	912.112	689.111
178.110	14.351	911.147	688.541
179.125	14.426	910.016	687.933
180.140	14.434	909.430	687.464
181.154	14.492	908.487	686.929
182.169	14.526	907.882	686.550
183.183	14.535	907.710	686.395
184.198	14.594	906.893	685.962
185.213	14.607	906.147	685.389
186.227	14.818	905.500	685.704
187.242	14.751	904.989	684.984
188.256	14.703	904.778	684.566
189.271	14.796	904.108	684.378
190.286	14.669	903.050	682.999
191.300	14.683	902.184	682.341
192.315	14.406	901.336	680.508
193.329	14.244	900.794	679.378
194.344	14.236	900.130	678.782
195.359	14.442	899.358	678.981
196.373	14.539	899.042	679.078
197.388	14.729	898.291	679.223
198.402	14.918	897.710	679.491
199.417	14.898	897.654	679.305
200.432	14.996	897.306	679.382
201.446	14.817	897.388	678.654
202.461	14.937	896.420	678.349
203.475	15.048	895.863	678.319
204.490	14.975	895.091	677.377
205.504	14.839	893.884	675.855
206.519	14.879	893.539	675.696
207.534	14.827	893.107	675.098
208.548	14.845	891.902	674.201
209.563	14.910	891.331	673.975
210.577	14.802	890.715	673.012
211.592	14.911	889.926	672.795
212.607	15.068	889.452	673.008
213.621	15.010	889.255	672.568
214.636	15.120	888.094	672.072
215.650	14.975	887.963	671.329
216.665	14.897	887.587	670.673
217.680	14.938	887.278	670.546
218.694	15.142	886.530	670.738
219.709	15.225	885.947	670.568
220.723	15.136	885.136	669.540
221.738	15.178	884.371	669.069
222.753	14.984	884.174	668.088
223.767	15.001	883.796	667.810
224.782	15.070	882.812	667.284
225.796	15.182	881.784	666.895
226.811	15.313	881.072	666.814
227.826	15.366	880.584	666.599
228.840	15.291	879.738	665.601
229.855	15.185	879.406	664.871
230.869	15.188	878.449	664.102
231.884	15.096	878.234	663.513
232.899	14.995	877.322	662.365
233.913	15.053	876.492	661.910
234.928	15.159	875.693	661.667
235.942	15.093	875.167	660.951
236.957	15.122	874.320	660.369
237.972	15.030	874.050	659.743
238.986	15.189	873.394	659.815
240.001	15.173	872.867	659.296
241.015	15.088	871.931	658.197
242.030	15.213	871.308	658.161
243.045	15.216	870.757	657.698
244.059	15.466	869.613	657.754
245.074	15.250	869.337	656.640
246.088	15.359	868.597	656.451
247.103	15.328	868.226	655.991
248.117	15.374	867.740	655.746
249.132	15.409	867.321	655.508
250.147	15.574	866.855	655.740
251.161	15.681	865.979	655.436
252.176	15.701	865.269	654.918
253.190	15.828	864.518	654.789
254.205	15.728	864.026	653.970
255.220	15.890	863.479	654.126
256.234	15.778	862.924	653.212
257.249	15.879	862.240	653.031
258.263	15.824	861.859	652.471
259.278	15.786	861.279	651.824
260.293	15.784	860.733	651.346
261.307	15.822	859.982	650.866
262.322	15.944	859.486	650.906
263.336	15.872	859.116	650.292
264.351	16.032	857.937	649.959
265.366	15.912	857.819	649.348
266.380	16.045	856.995	649.178
267.395	15.999	856.668	648.698
268.409	16.005	855.882	648.067
269.424	15.961	854.995	647.171
270.439	15.818	854.691	646.333
271.453	15.942	853.758	646.046
272.468	16.047	852.553	645.478
273.482	15.926	852.202	644.692
274.497	15.839	851.914	644.084
275.512	15.821	850.904	643.194
276.526	16.201	849.916	643.841
277.541	15.886	849.728	642.440
278.555	15.966	849.111	642.224
279.570	16.042	848.882	642.281
280.585	16.178	848.082	642.139
281.599	16.223	847.449	641.771
282.614	16.017	847.190	640.737
283.628	16.030	846.314	640.066
284.643	16.189	845.586	640.063
285.657	16.085	845.333	639.421
286.672	16.101	845.048	639.208
287.687	16.250	844.235	639.103
288.701	16.063	843.955	638.124
289.716	16.130	843.083	637.664
290.730	16.165	842.855	637.566
291.745	16.062	842.222	636.642
292.760	16.306	841.152	636.697
293.774	16.218	841.015	636.204
294.789	16.173	840.554	635.631
295.803	16.328	839.723	635.530
296.818	16.273	839.155	634.837
297.833	16.169	838.495	633.891
298.847	16.396	837.360	633.830
299.862	16.135	837.605	632.979
300.876	16.183	836.766	632.468
301.891	16.314	835.722	632.111
302.906	16.339	835.531	632.005
303.920	16.512	834.418	631.754
304.935	16.471	834.317	631.469
305.949	16.543	833.818	631.304
306.964	16.673	832.891	631.031
307.979	16.547	832.215	629.993
308.993	16.503	832.153	629.726
310.008	16.633	830.890	629.201
311.022	16.678	830.635	629.117
312.037	16.686	830.374	628.895
313.052	16.559	830.081	628.147
314.066	16.699	828.947	627.751
315.081	16.426	828.577	626.404
316.095	16.476	827.755	625.910
317.110	16.564	827.332	625.862
318.125	16.390	827.120	625.001
319.139	16.474	826.686	624.931
320.154	16.531	825.763	624.386
321.168	16.523	825.175	623.858
322.183	16.657	824.774	623.994
323.197	16.630	824.249	623.440
324.212	16.625	823.698	622.951
325.227	16.618	823.424	622.662
326.241	16.603	822.973	622.211
327.256	16.646	822.357	621.848
328.270	16.560	821.769	621.035
329.285	16.571	821.072	620.492
330.300	16.598	820.313	619.961
331.314	16.525	820.229	619.575
332.329	16.597	819.263	619.056
333.343	16.795	818.971	619.503
334.358	16.663	818.542	618.642
335.373	16.828	817.734	618.581
336.387	16.822	817.172	618.077
337.402	16.721	816.932	617.472
338.416	16.863	816.131	617.330
339.431	16.855	815.914	617.081
340.446	17.092	814.928	617.143
341.460	17.074	814.403	616.628
342.475	16.944	814.324	616.038
343.489	16.879	813.559	615.172
344.504	16.932	813.155	615.004
345.519	17.178	812.530	615.366
346.533	17.126	812.186	614.864
347.548	17.156	811.659	614.520
348.562	17.081	811.110	613.778
349.577	17.050	810.265	612.973
350.592	16.934	809.941	612.255
351.606	16.962	809.305	611.820
352.621	16.925	808.503	611.027
353.635	16.964	808.757	611.303
354.650	16.974	808.123	610.807
355.665	16.966	807.648	610.366
356.679	17.086	807.229	610.425
357.694	17.205	806.386	610.163
358.708	17.286	805.837	609.985
359.723	17.093	805.417	608.919
360.738	17.137	804.957	608.677
361.752	17.151	804.344	608.209
362.767	17.239	804.080	608.268
363.781	17.116	804.161	607.837
364.796	17.414	803.213	608.134
365.810	17.497	802.952	608.179
366.825	17.460	802.478	607.632
367.840	17.440	802.235	607.322
368.854	17.478	801.864	607.125
369.869	17.373	801.439	606.375
370.883	17.333	800.499	605.466
371.898	17.376	800.055	605.232
372.913	17.343	799.487	604.631
373.927	17.528	799.068	604.918
374.942	17.592	797.891	604.201
375.956	17.461	798.096	603.838
376.971	17.559	797.307	603.534
377.986	17.615	796.293	602.910
379.000	17.846	795.887	603.366
380.015	17.733	795.518	602.634
381.029	17.601	795.565	602.150
382.044	17.521	795.004	601.388
383.059	17.613	794.051	600.941
384.073	17.748	793.644	601.053
385.088	17.749	793.276	600.727
386.102	17.464	792.630	599.180
387.117	17.657	791.857	599.221
388.132	17.545	791.538	598.536
389.146	17.433	791.641	598.164
390.161	17.492	791.138	597.939
391.175	17.636	790.700	598.060
392.190	17.655	790.141	597.652
393.205	17.831	789.255	597.544
394.219	17.696	789.169	596.955
395.234	17.743	788.749	596.750
396.248	17.501	788.224	595.451
397.263	17.669	787.840	595.696
398.278	17.593	786.933	594.693
399.292	17.583	786.682	594.416
400.307	17.618	786.188	594.112
401.321	17.585	785.712	593.585
402.336	17.750	785.241	593.752
403.350	17.624	785.001	593.079
404.365	17.889	784.342	593.447
405.380	17.851	784.002	593.006
406.394	17.694	784.112	592.492
407.409	17.979	783.242	592.773
408.423	17.922	783.252	592.531
409.438	17.967	782.668	592.190
410.453	18.055	782.005	591.943
411.467	17.974	781.864	591.501
412.482	17.986	781.280	591.051
413.496	18.066	780.944	591.019
414.511	18.205	780.703	591.265
415.526	18.269	780.014	590.911
416.540	18.216	779.809	590.523
417.555	18.157	779.416	589.969
418.569	18.252	778.668	589.678
419.584	18.185	778.444	589.224
420.599	18.197	777.754	588.691
421.613	157.167	1369.173	1796.164
422.628	135.581	1455.366	1796.274
