DTS Sentinel unit serial number:	SN413079Multiplexer serial number:	ORYXHardware model number:	OX4-SRSoftware version number:	ORYX F/W v4.00 Oryx Data Collector v3.7.2.0data status	okinstallation	princeton_trtdifferential loss correction	single-endedforward channel	channel 3reverse channel	N/Adate	2019/09/18time	14:12:35forward acquisition time	60.00reverse acquisition time	0.00gamma	496.2192k internal	0.2311k external	0.2311temperature offset calibration	0.9971default loss term (dB/km)	0.3790temperature slope calibration	1.0000multiplexer offset coefficient	1.0000multiplexer slope coefficient	1.0000fibre end	0.00T internal ref (°C)	34.37T ext. ref 1 (°C)	0.68T ext. ref 2 (°C)	29.53length (m)	temperature (°C)	Stokes	anti-Stokes-747.200	254.966	-0.102	0.177
-746.185	-200.000	-0.018	0.402
-745.171	-150.690	-0.188	0.015
-744.156	800.000	0.086	0.265
-743.142	-50.152	-0.249	-0.120
-742.127	-85.279	0.282	0.089
-741.112	54.852	-0.232	0.228
-740.098	93.124	-0.278	0.319
-739.083	161.055	0.153	-0.217
-738.069	594.032	0.083	0.208
-737.054	-174.845	0.162	-0.005
-736.039	-43.394	0.080	0.041
-735.025	-23.892	0.275	-0.167
-734.010	63.685	-0.335	-0.341
-732.996	-52.972	0.158	-0.074
-731.981	800.000	-0.063	0.197
-730.966	-200.000	0.014	0.160
-729.952	-92.944	-0.439	0.124
-728.937	-200.000	0.013	-0.168
-727.923	86.801	-0.130	0.146
-726.908	-80.716	-0.198	0.067
-725.894	81.672	-0.264	-0.290
-724.879	72.967	-0.217	-0.230
-723.864	-172.720	-0.109	-0.003
-722.850	800.000	0.082	-0.256
-721.835	-55.918	-0.085	0.038
-720.821	50.556	0.219	-0.210
-719.806	538.080	-0.088	-0.211
-718.791	-200.000	-0.001	0.015
-717.777	-16.950	-0.231	0.148
-716.762	65.261	-0.188	0.193
-715.748	-37.056	-0.093	-0.051
-714.733	-124.675	-0.386	-0.061
-713.718	-167.804	-0.377	0.015
-712.704	-80.150	-0.361	-0.123
-711.689	-60.571	0.108	-0.047
-710.675	-200.000	-0.046	-0.352
-709.660	-56.674	0.092	-0.041
-708.645	800.000	-0.064	-0.190
-707.631	26.162	0.093	0.079
-706.616	542.756	0.091	-0.221
-705.602	-140.449	-0.114	-0.012
-704.587	-200.000	-0.121	0.000
-703.572	-200.000	-0.021	-0.292
-702.558	-19.011	-0.233	0.147
-701.543	-200.000	-0.031	-0.337
-700.529	33.297	0.216	0.190
-699.514	-200.000	0.020	-0.121
-698.499	800.000	-0.071	0.282
-697.485	-122.339	0.082	0.014
-696.470	-151.680	-0.052	-0.004
-695.456	234.845	-0.151	-0.253
-694.441	800.000	0.069	-0.215
-693.426	265.946	0.126	0.223
-692.412	-66.105	0.354	0.143
-691.397	166.640	0.069	-0.100
-690.383	-5.022	0.099	-0.069
-689.368	128.444	0.173	-0.223
-688.354	-45.685	-0.233	0.117
-687.339	-134.880	-0.181	0.022
-686.324	76.577	0.023	0.025
-685.310	-49.627	-0.120	0.058
-684.295	-77.278	0.166	-0.058
-683.281	800.000	0.100	-0.326
-682.266	-6.162	0.323	-0.223
-681.251	-200.000	0.025	0.296
-680.237	-69.066	-0.251	0.098
-679.222	-11.210	-0.162	0.108
-678.208	-74.357	-0.213	-0.078
-677.193	-95.163	-0.141	-0.039
-676.178	-62.069	-0.236	0.100
-675.164	-200.000	-0.019	-0.131
-674.149	-70.940	0.250	-0.095
-673.135	641.503	0.085	0.218
-672.120	800.000	-0.032	0.095
-671.105	800.000	-0.049	0.202
-670.091	185.263	0.065	0.098
-669.076	-23.720	0.086	0.052
-668.062	-48.143	-0.284	0.139
-667.047	-200.000	0.011	0.289
-666.032	715.114	-0.123	-0.330
-665.018	-200.000	-0.001	-0.316
-664.003	-88.023	0.090	-0.027
-662.989	-200.000	-0.007	0.087
-661.974	-200.000	-0.022	-0.137
-660.959	800.000	-0.069	-0.237
-659.945	12.768	-0.200	0.156
-658.930	-200.000	0.024	-0.219
-657.916	313.378	-0.099	-0.188
-656.901	-63.003	0.112	-0.047
-655.886	-50.295	-0.199	-0.095
-654.872	250.880	0.215	-0.369
-653.857	74.573	0.228	-0.243
-652.843	-44.545	0.291	-0.147
-651.828	224.569	-0.073	0.120
-650.814	95.702	0.206	0.238
-649.799	-114.547	-0.417	0.081
-648.784	-72.422	0.013	-0.005
-647.770	88.770	0.132	-0.149
-646.755	220.207	0.067	-0.108
-645.741	310.267	0.110	0.208
-644.726	-56.341	0.229	0.103
-643.711	115.622	-0.151	-0.187
-642.697	-41.190	-0.523	-0.273
-641.682	4.515	0.172	0.128
-640.668	2.674	-0.205	-0.150
-639.653	-32.324	0.116	0.065
-638.638	-103.078	0.189	0.045
-637.624	429.170	-0.101	-0.220
-636.609	384.981	-0.074	0.154
-635.595	-110.401	0.143	0.030
-634.580	-42.971	0.168	-0.086
-633.565	-200.000	-0.037	-0.228
-632.551	562.090	-0.113	-0.275
-631.536	328.009	0.085	0.165
-630.522	168.027	-0.058	0.083
-629.507	-145.679	0.086	-0.008
-628.492	-97.224	-0.102	-0.027
-627.478	759.515	-0.078	-0.213
-626.463	-23.798	-0.220	-0.133
-625.449	800.000	-0.123	0.396
-624.434	268.532	0.210	-0.371
-623.419	534.960	0.127	0.303
-622.405	-200.000	0.009	0.130
-621.390	46.296	0.078	0.073
-620.376	348.648	0.126	0.251
-619.361	800.000	0.066	-0.217
-618.346	-200.000	-0.022	0.191
-617.332	252.024	-0.197	0.338
-616.317	240.135	-0.146	-0.246
-615.303	-158.509	-0.340	0.020
-614.288	-200.000	0.069	-0.457
-613.273	-127.270	0.280	0.041
-612.259	50.446	0.250	-0.238
-611.244	8.150	-0.193	-0.146
-610.230	87.201	0.055	0.062
-609.215	-60.385	0.134	-0.058
-608.201	-103.684	0.016	0.004
-607.186	-104.165	-0.128	-0.030
-606.171	111.525	-0.066	-0.080
-605.157	800.000	0.033	-0.111
-604.142	-25.528	0.175	0.104
-603.128	645.019	-0.036	0.092
-602.113	8.721	-0.171	-0.130
-601.098	-76.946	-0.151	-0.053
-600.084	-64.139	0.255	-0.105
-599.069	-55.466	-0.318	0.144
-598.055	800.000	-0.122	0.451
-597.040	-200.000	-0.004	0.299
-596.025	565.681	0.018	-0.043
-595.011	371.631	-0.053	0.109
-593.996	-200.000	-0.020	0.298
-592.982	78.113	0.375	0.404
-591.967	174.460	-0.289	0.421
-590.952	15.650	0.110	-0.088
-589.938	378.220	-0.110	-0.227
-588.923	-200.000	0.086	-0.418
-587.909	-46.506	0.106	0.052
-586.894	73.475	-0.162	-0.171
-585.879	-166.311	-0.130	-0.006
-584.865	-125.088	0.126	0.020
-583.850	-185.845	-0.066	0.001
-582.836	375.940	0.032	0.066
-581.821	88.772	0.158	-0.178
-580.806	800.000	0.048	0.156
-579.792	-112.979	-0.322	-0.064
-578.777	-126.475	-0.204	-0.031
-577.763	143.541	0.026	-0.035
-576.748	-200.000	0.058	-0.284
-575.733	493.294	0.207	-0.478
-574.719	-147.068	-0.050	0.004
-573.704	-200.000	0.012	0.204
-572.690	-12.522	0.198	0.130
-571.675	88.203	0.121	0.136
-570.661	-200.000	0.077	-0.467
-569.646	-200.000	0.026	-0.153
-568.631	-72.256	0.187	0.070
-567.617	17.203	0.040	0.032
-566.602	124.998	-0.200	0.254
-565.588	10.962	-0.075	-0.058
-564.573	174.983	-0.115	0.167
-563.558	-103.419	0.363	-0.086
-562.544	-107.867	-0.054	0.012
-561.529	345.355	-0.093	-0.184
-560.515	216.940	0.156	-0.251
-559.500	-14.518	0.182	0.118
-558.485	-96.569	0.132	0.035
-557.471	585.729	0.023	0.057
-556.456	-113.568	-0.296	-0.058
-555.442	198.606	0.274	0.422
-554.427	144.270	-0.115	0.154
-553.412	455.953	-0.056	-0.126
-552.398	212.883	-0.232	0.369
-551.383	-42.415	0.194	-0.100
-550.369	-111.410	0.273	-0.056
-549.354	202.260	-0.176	0.274
-548.339	56.525	0.244	0.239
-547.325	800.000	-0.090	0.366
-546.310	-200.000	0.025	-0.345
-545.296	38.132	0.113	-0.101
-544.281	-200.000	-0.053	0.385
-543.266	195.126	0.109	0.166
-542.252	302.389	-0.032	-0.059
-541.237	-85.367	0.435	-0.137
-540.223	271.135	-0.079	-0.141
-539.208	448.102	-0.177	-0.392
-538.193	-112.211	0.138	-0.028
-537.179	49.459	0.127	0.120
-536.164	163.561	-0.100	-0.142
-535.150	-73.599	0.344	0.126
-534.135	-17.169	0.298	0.189
-533.121	-0.734	-0.271	0.193
-532.106	34.056	-0.229	-0.201
-531.091	61.555	-0.114	0.114
-530.077	428.321	-0.130	0.282
-529.062	40.852	-0.224	0.204
-528.048	-42.139	0.204	0.105
-527.033	396.972	0.046	0.096
-526.018	800.000	-0.034	-0.137
-525.004	-43.598	0.192	0.098
-523.989	-200.000	-0.041	0.388
-522.975	16.918	0.021	-0.016
-521.960	129.084	-0.085	-0.109
-520.945	408.234	0.105	-0.222
-519.931	-200.000	-0.013	-0.101
-518.916	-200.000	-0.009	0.255
-517.902	65.616	0.086	-0.088
-516.887	67.017	0.167	0.172
-515.872	11.728	-0.207	0.159
-514.858	25.786	0.174	0.146
-513.843	-76.769	0.262	0.092
-512.829	331.640	0.011	-0.022
-511.814	-134.254	-0.277	0.034
-510.799	26.952	0.264	0.223
-509.785	121.638	0.145	0.182
-508.770	210.427	0.039	-0.061
-507.756	72.517	-0.186	0.195
-506.741	-139.737	0.369	0.039
-505.726	244.152	0.046	0.078
-504.712	-53.001	-0.131	0.061
-503.697	106.435	-0.122	0.146
-502.683	116.482	-0.076	0.094
-501.668	-98.631	-0.201	0.052
-500.653	-15.561	-0.191	-0.122
-499.639	-49.182	0.228	-0.110
-498.624	696.013	-0.110	0.289
-497.610	800.000	0.063	0.246
-496.595	-200.000	0.097	-0.512
-495.581	-200.000	-0.103	-0.466
-494.566	-150.072	-0.063	-0.005
-493.551	-191.513	-0.326	-0.003
-492.537	72.269	0.293	-0.307
-491.522	-141.406	-0.097	0.010
-490.508	-65.234	-0.240	0.097
-489.493	-25.576	0.132	0.078
-488.478	33.160	0.178	-0.155
-487.464	9.390	-0.085	0.065
-486.449	-191.882	0.065	-0.001
-485.435	125.676	-0.096	0.121
-484.420	0.811	-0.156	0.112
-483.405	-167.427	0.158	0.006
-482.391	-200.000	-0.082	0.509
-481.376	-117.141	0.385	-0.070
-480.362	50.837	-0.047	-0.044
-479.347	347.689	-0.131	-0.260
-478.332	-100.655	-0.197	-0.049
-477.318	-200.000	0.023	-0.328
-476.303	800.000	-0.104	0.370
-475.289	139.649	0.110	0.145
-474.274	-69.843	0.083	0.032
-473.259	-200.000	-0.032	-0.485
-472.245	-42.132	0.190	0.098
-471.230	-200.000	-0.001	-0.262
-470.216	98.332	-0.189	0.219
-469.201	-200.000	-0.006	-0.070
-468.186	-20.654	-0.144	-0.089
-467.172	-200.000	0.039	-0.300
-466.157	80.696	-0.087	0.094
-465.143	-133.427	-0.106	-0.013
-464.128	298.634	-0.078	0.144
-463.113	-179.127	0.094	-0.002
-462.099	-48.768	-0.404	-0.194
-461.084	-117.838	-0.253	-0.046
-460.070	-41.572	-0.213	-0.110
-459.055	651.619	0.103	-0.264
-458.040	-101.829	-0.214	-0.052
-457.026	-50.909	-0.350	0.165
-456.011	-92.411	-0.373	0.105
-454.997	-91.970	-0.132	0.038
-453.982	307.525	0.052	0.097
-452.968	233.181	0.170	0.281
-451.953	800.000	-0.049	0.157
-450.938	288.810	0.038	-0.069
-449.924	532.689	0.117	0.278
-448.909	25.899	0.260	-0.217
-447.895	-1.252	-0.210	0.149
-446.880	-145.239	0.251	0.023
-445.865	470.787	-0.045	-0.101
-444.851	800.000	-0.021	0.087
-443.836	225.693	-0.207	0.336
-442.822	-73.726	0.118	-0.043
-441.807	-82.240	-0.034	0.011
-440.792	-200.000	0.005	0.156
-439.778	295.087	-0.026	0.047
-438.763	538.481	-0.036	0.085
-437.749	246.453	0.212	0.359
-436.734	193.946	0.015	-0.023
-435.719	-54.742	-0.065	-0.029
-434.705	-30.730	-0.113	0.064
-433.690	-91.918	-0.348	-0.099
-432.676	-126.237	-0.065	-0.010
-431.661	199.245	0.045	-0.069
-430.646	230.467	-0.135	0.222
-429.632	-200.000	0.043	0.210
-428.617	119.258	-0.150	0.186
-427.603	48.254	-0.177	0.166
-426.588	417.089	-0.066	-0.142
-425.573	9.998	-0.156	-0.118
-424.559	-200.000	-0.050	0.441
-423.544	48.587	0.088	0.082
-422.530	-8.185	-0.249	-0.168
-421.515	800.000	-0.054	-0.216
-420.500	178.549	-0.103	-0.150
-419.486	140.085	0.188	0.249
-418.471	-107.910	-0.311	0.068
-417.457	-200.000	0.036	-0.239
-416.442	-99.671	0.070	-0.018
-415.428	-87.584	-0.463	0.140
-414.413	43.811	0.212	-0.195
-413.398	800.000	0.090	0.367
-412.384	557.595	-0.143	-0.346
-411.369	261.511	-0.120	-0.209
-410.355	266.347	-0.064	0.112
-409.340	-21.100	-0.131	-0.080
-408.325	-64.929	0.039	0.016
-407.311	-200.000	0.057	-0.323
-406.296	-33.146	-0.127	0.071
-405.282	800.000	-0.035	0.140
-404.267	87.767	0.170	0.188
-403.252	-76.161	0.274	-0.097
-402.238	-88.253	0.456	0.137
-401.223	-135.723	0.157	0.019
-400.209	-35.388	0.233	-0.127
-399.194	-78.560	0.121	-0.041
-398.179	104.502	0.123	0.145
-397.165	-136.727	0.130	-0.015
-396.150	-104.966	0.267	-0.061
-395.136	-200.000	-0.014	-0.095
-394.121	342.078	-0.211	-0.414
-393.106	-200.000	-0.043	-0.252
-392.092	15.029	-0.145	0.114
-391.077	-130.550	0.152	-0.021
-390.063	-33.288	-0.068	0.038
-389.048	-200.000	-0.031	0.181
-388.033	264.586	-0.147	-0.257
-387.019	109.137	0.188	-0.225
-386.004	32.606	-0.177	0.154
-384.990	23.900	-0.060	-0.049
-383.975	175.496	0.129	0.186
-382.960	-90.476	0.088	-0.026
-381.946	316.149	0.020	-0.038
-380.931	445.625	0.225	0.494
-379.917	10.591	0.038	-0.029
-378.902	174.497	0.020	0.028
-377.888	-86.704	0.266	0.081
-376.873	-102.329	-0.146	-0.035
-375.858	-194.037	0.254	-0.002
-374.844	-200.000	-0.008	-0.079
-373.829	-30.925	0.300	-0.169
-372.815	-200.000	-0.035	-0.197
-371.800	-167.593	-0.273	-0.011
-370.785	299.950	-0.009	-0.017
-369.771	-130.548	-0.267	0.036
-368.756	94.795	0.136	0.155
-367.742	-116.775	-0.508	-0.093
-366.727	-200.000	-0.022	0.435
-365.712	27.711	-0.277	0.234
-364.698	-200.000	-0.008	-0.133
-363.683	-200.000	0.013	-0.212
-362.669	-55.934	0.059	-0.026
-361.654	-166.866	-0.325	-0.013
-360.639	-165.814	0.440	0.019
-359.625	19.290	-0.203	0.163
-358.610	800.000	0.111	-0.422
-357.596	-200.000	-0.072	-0.322
-356.581	-95.694	0.087	-0.023
-355.566	81.005	-0.215	-0.232
-354.552	800.000	-0.026	0.107
-353.537	257.427	0.140	-0.241
-352.523	-109.843	0.212	-0.045
-351.508	108.965	-0.318	-0.380
-350.493	-19.309	-0.170	-0.105
-349.479	800.000	-0.046	0.132
-348.464	-180.527	0.247	-0.005
-347.450	-116.809	-0.180	-0.033
-346.435	-102.045	0.127	-0.031
-345.420	276.680	-0.091	-0.161
-344.406	-200.000	0.055	-0.270
-343.391	13.032	-0.121	-0.093
-342.377	-200.000	-0.035	-0.280
-341.362	465.974	0.127	-0.285
-340.348	-134.876	-0.043	0.005
-339.333	147.827	-0.034	-0.046
-338.318	800.000	0.020	-0.077
-337.304	-39.070	0.161	-0.084
-336.289	-84.473	0.267	0.084
-335.275	-135.344	-0.318	0.038
-334.260	18.322	0.080	0.064
-333.245	-11.444	-0.182	-0.120
-332.231	800.000	-0.026	-0.111
-331.216	32.954	-0.028	-0.024
-330.202	-143.735	-0.329	0.031
-329.187	51.958	0.271	0.258
-328.172	800.000	0.062	-0.203
-327.158	113.783	0.155	0.188
-326.143	-200.000	0.009	-0.178
-325.129	-200.000	-0.042	-0.296
-324.114	265.364	-0.101	-0.175
-323.099	412.260	0.079	0.167
-322.085	340.295	-0.067	0.131
-321.070	746.559	-0.036	0.096
-320.056	-200.000	0.036	-0.204
-319.041	25.305	0.092	0.076
-318.026	1.107	-0.294	0.210
-317.012	139.112	0.146	-0.191
-315.997	376.401	-0.180	-0.366
-314.983	44.590	0.162	-0.148
-313.968	-200.000	-0.029	-0.145
-312.953	314.421	0.121	-0.227
-311.939	-200.000	0.052	0.434
-310.924	-146.024	0.272	0.024
-309.910	48.050	0.256	0.239
-308.895	100.337	-0.161	-0.186
-307.880	-200.000	0.022	-0.220
-306.866	-49.349	-0.221	0.105
-305.851	-26.872	-0.118	-0.069
-304.837	-82.767	0.127	-0.041
-303.822	-200.000	0.033	-0.271
-302.807	800.000	-0.020	-0.085
-301.793	371.536	-0.221	0.448
-300.778	-103.570	-0.331	-0.077
-299.764	48.532	0.199	0.186
-298.749	113.907	-0.026	-0.032
-297.735	800.000	-0.089	0.266
-296.720	312.922	0.141	0.264
-295.705	21.326	-0.101	0.082
-294.691	-51.081	0.094	-0.044
-293.676	-86.929	-0.140	0.043
-292.662	-179.693	-0.232	0.005
-291.647	85.484	0.180	-0.198
-290.632	-167.483	0.306	-0.012
-289.618	-200.000	0.024	-0.149
-288.603	-44.124	0.174	-0.087
-287.589	-200.000	-0.002	-0.279
-286.574	-158.913	0.100	-0.006
-285.559	-70.783	0.115	-0.043
-284.545	185.704	0.120	-0.178
-283.530	94.778	-0.144	-0.163
-282.516	-184.439	0.093	-0.002
-281.501	800.000	0.039	-0.127
-280.486	521.274	0.019	0.043
-279.472	-200.000	0.020	0.171
-278.457	-73.087	-0.381	0.139
-277.443	-200.000	-0.012	-0.140
-276.428	22.869	-0.175	-0.143
-275.413	800.000	-0.099	-0.356
-274.399	13.278	0.162	-0.125
-273.384	44.861	-0.222	0.204
-272.370	63.020	0.094	0.093
-271.355	50.260	-0.064	-0.060
-270.340	180.932	-0.121	-0.177
-269.326	-111.002	-0.180	-0.037
-268.311	-200.000	0.039	-0.182
-267.297	-41.016	0.126	-0.065
-266.282	-200.000	0.044	0.334
-265.267	800.000	-0.069	-0.223
-264.253	-142.516	0.229	0.022
-263.238	-91.070	-0.241	-0.069
-262.224	-116.112	0.379	-0.070
-261.209	68.671	-0.309	-0.316
-260.195	-200.000	0.058	-0.346
-259.180	89.460	0.176	-0.195
-258.165	-200.000	-0.066	0.317
-257.151	188.214	-0.208	0.309
-256.136	71.180	0.189	0.195
-255.122	-200.000	0.015	-0.194
-254.107	-200.000	0.043	-0.423
-253.092	-200.000	0.014	-0.206
-252.078	38.161	0.188	0.167
-251.063	-91.865	0.328	0.093
-250.049	6.361	-0.331	0.245
-249.034	-86.757	-0.119	-0.036
-248.019	286.189	-0.108	0.193
-247.005	1.282	-0.040	-0.028
-245.990	-200.000	-0.015	0.164
-244.976	216.596	0.061	-0.096
-243.961	-200.000	-0.028	0.195
-242.946	-99.382	-0.342	-0.086
-241.932	46.817	-0.275	-0.255
-240.917	105.261	0.085	0.100
-239.903	414.690	0.058	0.122
-238.888	-69.275	0.257	0.098
-237.873	30.497	0.150	0.128
-236.859	-200.000	-0.016	0.077
-235.844	427.652	-0.121	-0.260
-234.830	378.025	0.033	0.067
-233.815	800.000	0.027	-0.118
-232.800	-200.000	-0.047	0.405
-231.786	-62.548	-0.129	-0.053
-230.771	-140.374	0.295	0.031
-229.757	800.000	-0.099	0.337
-228.742	383.109	-0.095	0.194
-227.727	-4.736	0.094	-0.065
-226.713	11.036	0.144	-0.109
-225.698	121.429	-0.188	0.233
-224.684	-89.367	0.158	-0.046
-223.669	422.196	-0.137	-0.293
-222.655	800.000	0.090	-0.360
-221.640	58.368	0.368	-0.359
-220.625	14.869	0.131	-0.102
-219.611	-73.519	0.321	-0.117
-218.596	412.770	-0.213	0.449
-217.582	-200.000	0.021	0.345
-216.567	-200.000	-0.021	-0.099
-215.552	800.000	-0.046	0.156
-214.538	-200.000	-0.007	0.046
-213.523	-200.000	-0.015	0.279
-212.509	32.010	-0.159	0.137
-211.494	701.290	-0.131	-0.342
-210.479	228.288	-0.059	0.096
-209.465	800.000	-0.043	0.128
-208.450	-200.000	-0.001	0.262
-207.436	496.354	0.088	-0.202
-206.421	64.967	-0.071	-0.072
-205.406	-200.000	0.002	0.043
-204.392	-161.350	-0.184	0.009
-203.377	-200.000	-0.171	0.000
-202.363	-48.767	-0.135	-0.064
-201.348	-126.014	0.041	0.006
-200.333	-105.571	-0.099	0.022
-199.319	-69.045	-0.157	0.060
-198.304	388.605	-0.095	-0.195
-197.290	-166.023	-0.213	0.009
-196.275	-39.733	-0.191	-0.099
-195.260	-136.215	0.295	0.034
-194.246	98.645	0.205	0.235
-193.231	-152.613	0.161	-0.011
-192.217	3.016	-0.142	0.102
-191.202	17.083	0.385	0.304
-190.187	-93.379	0.255	0.070
-189.173	-200.000	-0.035	0.177
-188.158	-78.677	0.289	0.098
-187.144	68.649	0.201	0.204
-186.129	-58.689	-0.062	0.027
-185.114	-73.733	-0.209	0.076
-184.100	-72.483	0.232	0.085
-183.085	280.705	-0.096	0.170
-182.071	-200.000	0.022	0.191
-181.056	-200.000	0.036	-0.280
-180.042	800.000	-0.018	0.068
-179.027	-200.000	0.045	0.262
-178.012	-75.877	0.161	0.057
-176.998	477.337	-0.070	-0.157
-175.983	245.231	-0.150	-0.250
-174.969	-32.402	0.448	0.248
-173.954	19.296	-0.190	-0.152
-172.939	268.721	-0.112	0.195
-171.925	37.268	0.134	0.118
-170.910	-72.011	-0.516	0.190
-169.896	137.658	-0.041	0.054
-168.881	20.680	0.188	0.151
-167.866	800.000	-0.098	-0.418
-166.852	-51.143	0.166	-0.077
-165.837	251.176	-0.043	-0.073
-164.823	617.604	0.021	-0.053
-163.808	-29.642	0.229	-0.130
-162.793	623.206	0.062	-0.156
-161.779	79.416	-0.296	-0.315
-160.764	-100.790	0.612	-0.149
-159.750	-177.982	0.159	-0.004
-158.735	51.295	-0.129	-0.121
-157.720	295.164	0.228	0.413
-156.706	176.135	0.167	0.240
-155.691	153.536	-0.015	0.021
-154.677	-55.705	0.232	0.103
-153.662	98.506	-0.202	-0.232
-152.647	304.972	0.128	-0.236
-151.633	-82.992	0.306	-0.098
-150.618	-20.716	0.129	-0.079
-149.604	-200.000	0.038	-0.347
-148.589	-94.552	-0.455	0.123
-147.574	98.271	0.238	0.272
-146.560	273.698	0.042	0.073
-145.545	587.892	0.039	-0.095
-144.531	-156.660	0.320	-0.020
-143.516	132.331	-0.155	-0.198
-142.502	800.000	-0.093	0.263
-141.487	-200.000	-0.036	0.213
-140.472	-154.387	-0.087	-0.006
-139.458	0.902	0.283	0.201
-138.443	773.463	-0.132	-0.357
-137.429	125.161	-0.174	0.217
-136.414	-43.696	-0.194	0.097
-135.399	322.172	0.058	0.110
-134.385	-74.022	0.404	-0.145
-133.370	139.276	0.202	-0.264
-132.356	-51.111	-0.002	0.001
-131.341	-200.000	-0.027	-0.249
-130.326	-162.769	0.092	-0.004
-129.312	-61.878	-0.291	0.121
-128.297	-200.000	0.045	0.409
-127.283	21.483	0.065	0.052
-126.268	-92.795	-0.310	-0.086
-125.253	-4.935	-0.383	-0.262
-124.239	102.762	-0.229	0.265
-123.224	36.634	0.379	-0.332
-122.210	-200.000	-0.005	0.022
-121.195	73.861	-0.288	0.299
-120.180	-160.435	0.171	-0.009
-119.166	-200.000	-0.027	-0.134
-118.151	-25.941	-0.090	0.052
-117.137	-200.000	-0.020	-0.132
-116.122	-61.415	0.481	-0.200
-115.107	-60.950	-0.127	-0.053
-114.093	-123.988	0.226	-0.035
-113.078	-200.000	-0.028	0.363
-112.064	-128.028	0.373	0.053
-111.049	-106.893	-0.270	-0.059
-110.034	-118.283	0.023	0.004
-109.020	-57.250	0.330	0.144
-108.005	800.000	0.064	-0.242
-106.991	-200.000	-0.005	0.288
-105.976	-200.000	-0.033	0.305
-104.962	-76.600	0.160	-0.056
-103.947	-38.985	-0.172	0.089
-102.932	-200.000	-0.061	-0.266
-101.918	-102.282	0.293	-0.070
-100.903	353.204	0.089	-0.174
-99.889	117.374	0.095	-0.116
-98.874	-200.000	0.158	-0.000
-97.859	-151.537	-0.309	0.023
-96.845	600.544	-0.136	0.335
-95.830	-33.629	0.100	0.055
-94.816	124.534	-0.093	-0.115
-93.801	207.815	0.139	-0.215
-92.786	-74.561	0.113	-0.040
-91.772	183.371	0.100	0.146
-90.757	-54.014	-0.086	0.039
-89.743	-200.000	-0.002	0.427
-88.728	-32.578	0.165	-0.091
-87.713	-200.000	-0.003	0.053
-86.699	276.033	0.102	0.179
-85.684	-31.442	-0.102	-0.057
-84.670	204.491	-0.115	-0.176
-83.655	-104.211	-0.244	-0.056
-82.640	192.150	0.133	-0.199
-81.626	-200.000	0.003	-0.137
-80.611	42.005	-0.126	0.113
-79.597	172.266	0.121	-0.171
-78.582	-57.308	-0.131	0.057
-77.567	-54.367	0.083	0.037
-76.553	599.173	-0.078	-0.191
-75.538	661.777	0.127	-0.323
-74.524	-200.000	-0.037	0.203
-73.509	-150.886	-0.204	0.015
-72.494	-67.834	0.245	-0.095
-71.480	7.263	0.180	0.133
-70.465	-91.255	0.154	0.044
-69.451	-150.044	0.551	0.042
-68.436	-101.307	0.154	-0.037
-67.422	66.343	-0.366	-0.368
-66.407	800.000	0.083	-0.279
-65.392	-17.079	-0.065	-0.040
-64.378	-38.483	-0.092	-0.048
-63.363	202.217	0.123	0.187
-62.349	-0.727	0.344	0.241
-61.334	43.066	-1.033	-0.932
-60.319	800.000	0.117	0.502
-59.305	800.000	-0.385	-1.068
-58.290	288.233	0.425	0.761
-57.276	264.574	0.792	1.364
-56.261	-200.000	96.032	550.579
-55.246	502.395	1420.306	3242.738
-54.232	146.213	2638.550	3498.378
-53.217	109.510	2234.049	2644.158
-52.203	44.534	1759.418	1597.199
-51.188	37.440	1568.041	1373.526
-50.173	34.976	1540.884	1332.546
-49.159	52.448	1590.065	1499.143
-48.144	55.519	1608.896	1538.588
-47.130	37.724	1565.886	1373.421
-46.115	34.574	1550.478	1337.813
-45.100	34.466	1546.632	1333.692
-44.086	34.367	1544.946	1331.494
-43.071	34.278	1543.391	1329.477
-42.057	34.235	1541.627	1327.608
-41.042	34.316	1539.747	1326.494
-40.027	34.405	1538.217	1325.744
-39.013	34.404	1536.908	1324.558
-37.998	34.266	1536.018	1322.782
-36.984	34.394	1534.503	1322.312
-35.969	34.377	1532.890	1320.747
-34.954	34.354	1531.361	1319.221
-33.940	34.340	1530.031	1317.927
-32.925	34.382	1528.449	1316.799
-31.911	34.454	1527.299	1316.258
-30.896	34.486	1525.973	1315.281
-29.881	34.463	1524.223	1313.565
-28.867	34.417	1523.170	1312.287
-27.852	34.428	1522.134	1311.420
-26.838	34.484	1520.080	1309.979
-25.823	34.415	1518.728	1308.288
-24.809	34.333	1517.494	1306.613
-23.794	34.413	1515.982	1305.809
-22.779	34.544	1514.260	1305.167
-21.765	34.495	1513.543	1304.165
-20.750	34.453	1512.471	1302.900
-19.736	34.407	1511.810	1301.963
-18.721	34.338	1510.774	1300.550
-17.706	34.400	1509.515	1299.836
-16.692	34.329	1508.489	1298.419
-15.677	34.273	1507.467	1297.103
-14.663	34.329	1506.061	1296.228
-13.648	34.391	1505.245	1295.891
-12.633	34.317	1504.191	1294.432
-11.619	34.304	1503.793	1293.953
-10.604	34.320	1502.598	1292.980
-9.590	34.356	1501.715	1292.409
-8.575	34.339	1500.635	1291.316
-7.560	34.370	1499.891	1290.831
-6.546	34.307	1499.471	1289.996
-5.531	34.313	1497.921	1288.653
-4.517	34.345	1496.927	1287.962
-3.502	34.236	1496.364	1286.686
-2.487	34.330	1495.146	1286.221
-1.473	34.187	1494.713	1284.834
-0.458	34.344	1492.507	1283.945
0.556	33.131	1482.613	1272.924
1.571	29.812	1455.354	1227.430
2.586	25.728	1390.172	1146.404
3.600	23.315	1303.589	1060.477
4.615	21.399	1255.690	1010.360
5.629	18.310	1198.391	947.113
6.644	9.475	1110.273	831.917
7.659	2.067	1066.555	762.202
8.673	0.816	1060.580	751.649
9.688	0.691	1057.882	749.052
10.702	0.504	1056.585	747.143
11.717	0.690	1054.082	746.224
12.731	3.218	1057.235	760.900
13.746	11.525	1069.122	810.772
14.761	17.274	1076.221	844.735
15.775	17.618	1074.804	845.256
16.790	16.887	1073.490	840.523
17.804	15.847	1071.295	833.581
18.819	15.029	1069.092	827.751
19.834	14.418	1068.542	824.227
20.848	14.157	1066.694	821.441
21.863	13.896	1066.320	819.795
22.877	13.729	1065.300	818.111
23.892	13.479	1064.431	816.139
24.907	13.348	1063.557	814.756
25.921	13.365	1062.812	814.192
26.936	13.342	1062.411	813.702
27.950	13.446	1061.534	813.469
28.965	13.565	1060.360	813.081
29.980	13.555	1059.598	812.375
30.994	13.505	1059.146	811.714
32.009	13.800	1057.980	812.191
33.023	13.745	1057.566	811.532
34.038	13.632	1056.563	810.140
35.053	13.597	1055.641	809.192
36.067	13.549	1054.915	808.325
37.082	13.509	1054.035	807.386
38.096	13.546	1053.380	806.993
39.111	13.607	1052.623	806.638
40.126	13.519	1051.448	805.239
41.140	13.529	1050.224	804.282
42.155	13.449	1049.341	803.143
43.169	13.461	1048.559	802.531
44.184	13.330	1047.732	801.192
45.199	13.310	1046.323	799.950
46.213	13.479	1045.271	799.890
47.228	13.374	1045.029	799.127
48.242	13.591	1043.220	798.718
49.257	13.583	1042.107	797.759
50.271	13.455	1041.921	796.930
51.286	13.454	1040.981	796.133
52.301	13.457	1040.193	795.479
53.315	13.508	1039.153	794.856
54.330	13.541	1038.044	794.096
55.344	13.410	1037.941	793.317
56.359	13.365	1036.979	792.296
57.374	13.580	1035.394	792.045
58.388	13.397	1035.143	790.906
59.403	13.268	1034.438	789.683
60.417	13.302	1033.769	789.265
61.432	13.321	1032.941	788.651
62.447	13.404	1031.785	788.097
63.461	13.363	1031.123	787.324
64.476	13.317	1030.671	786.690
65.490	13.276	1029.365	785.429
66.505	13.297	1028.440	784.753
67.520	13.395	1027.713	784.594
68.534	13.276	1027.418	783.737
69.549	13.418	1026.180	783.393
70.563	13.330	1025.549	782.428
71.578	13.466	1024.638	782.308
72.593	13.365	1024.055	781.314
73.607	13.376	1023.124	780.590
74.622	13.353	1022.293	779.777
75.636	13.410	1020.954	778.955
76.651	13.367	1020.237	778.137
77.666	13.261	1019.702	777.163
78.680	13.279	1018.808	776.496
79.695	13.347	1018.022	776.147
80.709	13.342	1017.801	775.887
81.724	13.403	1016.633	775.212
82.739	13.256	1016.198	774.121
83.753	13.428	1015.239	774.130
84.768	13.421	1014.815	773.704
85.782	13.578	1013.481	773.352
86.797	13.608	1013.149	773.172
87.812	13.516	1011.956	771.765
88.826	13.495	1011.405	771.175
89.841	13.454	1010.507	770.235
90.855	13.465	1009.569	769.501
91.870	13.500	1008.814	769.018
92.884	13.601	1007.867	768.697
93.899	13.535	1007.652	768.161
94.914	13.596	1006.765	767.699
95.928	13.604	1006.164	767.212
96.943	13.683	1005.208	766.777
97.957	13.639	1004.204	765.740
98.972	13.526	1003.727	764.786
99.987	13.538	1002.868	764.120
101.001	13.624	1002.023	763.805
102.016	13.603	1001.641	763.351
103.030	13.602	1000.437	762.362
104.045	13.555	999.517	761.377
105.060	13.646	998.362	760.848
106.074	13.640	997.657	760.216
107.089	13.451	996.692	758.546
108.103	13.337	996.129	757.527
109.118	13.463	994.762	756.999
110.133	13.437	994.269	756.438
111.147	13.375	993.690	755.645
112.162	13.451	992.316	754.880
113.176	13.376	991.756	754.046
114.191	13.393	990.953	753.446
115.206	13.578	989.576	753.175
116.220	13.606	988.834	752.673
117.235	13.435	988.173	751.325
118.249	13.543	987.283	751.069
119.264	13.532	986.533	750.383
120.279	13.470	985.637	749.357
121.293	13.465	984.617	748.491
122.308	13.494	983.967	748.061
123.322	13.544	983.029	747.508
124.337	13.379	982.824	746.541
125.352	13.386	981.596	745.574
126.366	13.363	980.166	744.318
127.381	13.469	978.917	743.783
128.395	13.544	977.885	743.268
129.410	13.431	977.076	742.078
130.424	13.469	976.351	741.633
131.439	13.427	975.221	740.523
132.454	13.490	974.906	740.500
133.468	13.605	973.393	739.798
134.483	13.644	972.744	739.413
135.497	13.617	972.378	738.952
136.512	13.606	971.633	738.270
137.527	13.621	970.710	737.571
138.541	13.524	970.029	736.556
139.556	13.409	969.465	735.552
140.570	13.642	968.114	735.497
141.585	13.547	967.453	734.507
142.600	13.610	967.200	734.530
143.614	13.682	966.245	734.055
144.629	13.684	965.480	733.421
145.643	13.608	964.897	732.577
146.658	13.802	963.466	732.281
147.673	13.697	962.541	731.050
148.687	13.585	962.283	730.295
149.702	13.638	961.074	729.549
150.716	13.589	960.492	728.823
151.731	13.635	959.513	728.220
152.746	13.598	958.842	727.482
153.760	13.664	957.923	727.012
154.775	13.537	957.448	726.031
155.789	13.670	956.655	725.949
156.804	13.800	955.021	725.210
157.819	13.695	954.957	724.638
158.833	13.687	954.074	723.871
159.848	13.745	953.340	723.502
160.862	13.823	952.910	723.451
161.877	13.810	951.920	722.579
162.892	13.696	951.186	721.465
163.906	13.713	950.430	720.897
164.921	13.708	949.845	720.370
165.935	13.677	948.949	719.493
166.950	13.758	947.650	718.794
167.964	13.949	946.450	718.647
168.979	13.895	945.226	717.423
169.994	13.795	944.763	716.573
171.008	13.729	944.263	715.845
172.023	13.719	943.098	714.858
173.037	13.736	942.606	714.494
174.052	13.912	941.290	714.189
175.067	13.972	940.430	713.734
176.081	13.842	940.428	713.111
177.096	13.891	939.223	712.341
178.110	13.810	938.389	711.298
179.125	13.840	938.019	711.084
180.140	13.866	937.028	710.383
181.154	13.895	936.572	710.097
182.169	13.890	935.834	709.452
183.183	13.960	935.302	709.287
184.198	13.974	934.411	708.606
185.213	13.947	933.861	708.016
186.227	14.004	933.146	707.653
187.242	14.009	932.814	707.360
188.256	14.072	932.323	707.192
189.271	14.234	930.973	706.794
190.286	14.100	930.301	705.652
191.300	14.064	929.738	705.011
192.315	13.914	928.909	703.681
193.329	13.956	928.074	703.168
194.344	14.025	927.707	703.116
195.359	14.008	927.209	702.607
196.373	14.112	926.334	702.320
197.388	14.157	925.730	701.988
198.402	14.152	925.366	701.632
199.417	14.217	925.036	701.592
200.432	14.228	924.215	700.956
201.446	14.162	924.144	700.560
202.461	14.162	923.723	700.178
203.475	14.281	923.006	700.073
204.490	14.323	922.156	699.544
205.504	14.292	921.488	698.845
206.519	14.245	920.562	697.883
207.534	14.268	919.962	697.463
208.548	14.393	918.811	697.054
209.563	14.211	918.709	696.151
210.577	14.227	917.699	695.393
211.592	14.277	917.203	695.161
212.607	14.440	916.823	695.495
213.621	14.359	916.027	694.490
214.636	14.333	915.359	693.813
215.650	14.503	914.496	693.809
216.665	14.445	914.189	693.270
217.680	14.310	913.940	692.458
218.694	14.474	913.072	692.424
219.709	14.566	912.280	692.140
220.723	14.487	911.538	691.191
221.738	14.401	911.348	690.626
222.753	14.492	910.585	690.367
223.767	14.449	909.970	689.662
224.782	14.440	909.012	688.838
225.796	14.442	908.176	688.151
226.811	14.606	907.760	688.450
227.826	14.699	906.567	687.868
228.840	14.684	905.847	687.198
229.855	14.590	905.643	686.595
230.869	14.602	904.862	685.995
231.884	14.709	904.318	685.960
232.899	14.551	903.319	684.492
233.913	14.632	902.500	684.143
234.928	14.627	901.581	683.366
235.942	14.706	900.897	683.109
236.957	14.642	900.516	682.500
237.972	14.619	899.947	681.916
238.986	14.632	899.309	681.424
240.001	14.740	898.433	681.140
241.015	14.708	898.093	680.691
242.030	14.729	897.485	680.257
243.045	14.673	896.585	679.284
244.059	14.714	896.281	679.164
245.074	14.688	895.709	678.563
246.088	14.871	894.747	678.518
247.103	14.797	894.315	677.828
248.117	14.864	893.618	677.513
249.132	14.877	893.122	677.128
250.147	14.806	892.947	676.649
251.161	14.974	891.944	676.510
252.176	14.900	890.905	675.363
253.190	15.001	890.341	675.282
254.205	15.006	890.235	675.160
255.220	15.128	889.124	674.753
256.234	15.134	888.356	674.132
257.249	15.140	887.609	673.529
258.263	14.993	887.670	672.926
259.278	15.050	887.136	672.691
260.293	15.144	886.137	672.252
261.307	15.213	885.648	672.098
262.322	15.222	884.826	671.449
263.336	15.364	884.137	671.437
264.351	15.326	883.876	671.028
265.366	15.295	883.037	670.208
266.380	15.371	882.835	670.298
267.395	15.295	882.321	669.545
268.409	15.243	881.459	668.621
269.424	15.253	880.216	667.659
270.439	15.286	879.923	667.512
271.453	15.293	878.993	666.774
272.468	15.204	878.385	665.902
273.482	15.263	877.702	665.557
274.497	15.272	877.224	665.174
275.512	15.343	876.278	664.679
276.526	15.394	875.689	664.375
277.541	15.366	874.929	663.628
278.555	15.365	874.457	663.206
279.570	15.413	874.257	663.187
280.585	15.551	873.472	663.076
281.599	15.565	872.660	662.459
282.614	15.514	872.097	661.770
283.628	15.503	871.376	661.123
284.643	15.424	871.306	660.699
285.657	15.581	870.590	660.715
286.672	15.664	870.030	660.558
287.687	15.489	869.869	659.688
288.701	15.541	869.298	659.401
289.716	15.724	868.254	659.269
290.730	15.626	867.605	658.336
291.745	15.520	867.200	657.555
292.760	15.617	866.831	657.594
293.774	15.593	865.918	656.750
294.789	15.651	865.447	656.561
295.803	15.814	864.637	656.526
296.818	15.684	863.984	655.466
297.833	15.543	863.671	654.620
298.847	15.750	862.545	654.515
299.862	15.677	861.846	653.641
300.876	15.863	861.081	653.728
301.891	15.800	860.664	653.108
302.906	15.730	860.430	652.602
303.920	15.787	859.490	652.049
304.935	15.744	858.779	651.285
305.949	15.781	858.172	650.911
306.964	15.888	857.441	650.712
307.979	15.949	856.782	650.391
308.993	15.917	856.459	649.967
310.008	15.937	856.048	649.674
311.022	16.027	855.301	649.395
312.037	16.032	854.506	648.754
313.052	16.101	854.220	648.744
314.066	15.990	853.753	647.905
315.081	16.048	852.825	647.368
316.095	15.974	852.246	646.587
317.110	15.964	851.655	646.042
318.125	16.108	851.013	646.051
319.139	16.014	850.541	645.275
320.154	16.117	850.242	645.384
321.168	16.023	849.591	644.473
322.183	15.976	849.345	644.052
323.197	16.097	848.818	644.055
324.212	16.234	848.054	643.943
325.227	16.131	847.737	643.252
326.241	16.146	846.793	642.536
327.256	16.195	846.277	642.274
328.270	16.181	845.988	641.945
329.285	16.153	845.443	641.369
330.300	15.963	844.917	640.188
331.314	16.043	844.109	639.824
332.329	16.124	843.648	639.726
333.343	16.200	843.169	639.592
334.358	16.175	842.534	638.961
335.373	16.154	842.200	638.571
336.387	16.170	841.612	638.132
337.402	16.357	840.653	638.053
338.416	16.288	840.191	637.384
339.431	16.425	839.615	637.409
340.446	16.351	839.008	636.612
341.460	16.412	838.359	636.294
342.475	16.495	838.063	636.326
343.489	16.427	837.449	635.545
344.504	16.416	836.989	635.099
345.519	16.499	836.422	634.927
346.533	16.640	835.672	634.828
347.548	16.618	835.111	634.264
348.562	16.522	834.940	633.718
349.577	16.509	834.239	633.080
350.592	16.493	833.635	632.508
351.606	16.370	833.270	631.715
352.621	16.518	832.680	631.766
353.635	16.404	832.407	631.076
354.650	16.593	831.914	631.352
355.665	16.515	831.696	630.837
356.679	16.575	830.952	630.442
357.694	16.632	830.677	630.391
358.708	16.630	830.089	629.880
359.723	16.597	829.360	629.147
360.738	16.703	828.519	628.847
361.752	16.600	828.559	628.440
362.767	16.643	827.856	628.013
363.781	16.594	827.531	627.529
364.796	16.700	826.942	627.419
365.810	16.828	826.464	627.476
366.825	16.908	825.946	627.323
367.840	16.759	825.977	626.737
368.854	16.913	825.507	626.896
369.869	16.850	824.919	626.160
370.883	16.862	824.464	625.806
371.898	16.988	823.624	625.577
372.913	16.887	823.224	624.844
373.927	16.820	822.582	624.057
374.942	17.054	821.475	624.022
375.956	16.945	821.058	623.247
376.971	16.952	820.869	623.077
377.986	17.000	820.329	622.787
379.000	17.063	819.709	622.491
380.015	17.239	819.082	622.606
381.029	17.125	818.691	621.837
382.044	17.080	818.313	621.328
383.059	17.120	817.457	620.770
384.073	17.124	817.114	620.469
385.088	17.193	816.637	620.303
386.102	17.200	815.898	619.713
387.117	17.021	815.635	618.807
388.132	17.179	815.090	618.916
389.146	17.242	814.470	618.617
390.161	17.042	814.569	617.911
391.175	17.111	813.995	617.673
392.190	17.296	813.350	617.799
393.205	17.378	812.807	617.632
394.219	17.227	812.527	616.813
395.234	17.272	811.847	616.408
396.248	17.364	811.363	616.318
397.263	17.208	810.991	615.416
398.278	17.182	810.748	615.084
399.292	17.132	810.364	614.556
400.307	17.267	809.637	614.440
401.321	17.281	809.181	614.091
402.336	17.289	808.933	613.874
403.350	17.307	808.365	613.456
404.365	17.197	808.379	613.014
405.380	17.360	807.334	612.756
406.394	17.338	807.005	612.371
407.409	17.266	806.679	611.810
408.423	17.409	806.211	611.917
409.438	17.502	805.783	611.871
410.453	17.512	805.343	611.520
411.467	17.500	805.064	611.211
412.482	17.475	804.410	610.571
413.496	17.620	803.503	610.348
414.511	17.726	803.579	610.729
415.526	17.740	802.798	610.132
416.540	17.707	802.555	609.775
417.555	17.664	802.419	609.466
418.569	17.667	801.764	608.923
419.584	17.585	801.420	608.317
420.599	17.633	800.907	608.043
421.613	105.697	1284.952	1450.366
422.628	90.892	1355.474	1450.473
