DTS Sentinel unit serial number:	SN413079Multiplexer serial number:	ORYXHardware model number:	OX4-SRSoftware version number:	ORYX F/W v4.00 Oryx Data Collector v3.7.2.0data status	okinstallation	princeton_trtdifferential loss correction	single-endedforward channel	channel 3reverse channel	N/Adate	2019/09/13time	16:04:34forward acquisition time	60.00reverse acquisition time	0.00gamma	496.2192k internal	0.2305k external	0.2305temperature offset calibration	1.0141default loss term (dB/km)	0.3790temperature slope calibration	1.0000multiplexer offset coefficient	1.0000multiplexer slope coefficient	1.0000fibre end	0.00T internal ref (°C)	34.69T ext. ref 1 (°C)	4.84T ext. ref 2 (°C)	31.51length (m)	temperature (°C)	Stokes	anti-Stokes-747.200	18.284	0.238	0.194
-746.185	-91.655	0.244	0.071
-745.171	38.074	0.098	0.088
-744.156	33.890	-0.181	0.160
-743.142	800.000	0.022	-0.094
-742.127	-7.314	0.123	0.085
-741.112	-53.369	-0.505	-0.236
-740.098	-80.042	-0.142	-0.048
-739.083	84.955	-0.126	0.140
-738.069	-91.267	0.231	0.067
-737.054	35.648	-0.099	-0.089
-736.039	37.354	-0.254	-0.229
-735.025	40.580	-0.027	-0.024
-734.010	800.000	-0.052	-0.164
-732.996	576.177	-0.138	-0.344
-731.981	-200.000	-0.045	-0.222
-730.966	800.000	-0.046	-0.183
-729.952	800.000	0.048	-0.195
-728.937	-104.284	-0.134	0.032
-727.923	227.284	0.191	0.315
-726.908	-43.432	0.086	-0.044
-725.894	391.225	0.076	0.161
-724.879	800.000	0.058	0.200
-723.864	-164.726	-0.294	0.013
-722.850	25.499	-0.212	0.179
-721.835	53.125	0.092	-0.089
-720.821	-109.384	-0.154	-0.033
-719.806	800.000	0.072	0.238
-718.791	-200.000	-0.036	0.212
-717.777	54.240	0.057	0.056
-716.762	800.000	0.099	-0.279
-715.748	-19.475	0.308	-0.194
-714.733	257.630	0.068	-0.119
-713.718	159.155	-0.279	-0.395
-712.704	-109.115	0.136	-0.029
-711.689	-131.578	0.062	0.008
-710.675	622.203	0.082	0.211
-709.660	-8.853	0.133	0.090
-708.645	-51.845	-0.199	0.094
-707.631	75.253	-0.334	0.358
-706.616	-104.559	-0.166	-0.039
-705.602	72.621	-0.133	0.141
-704.587	-6.089	-0.107	-0.074
-703.572	-200.000	0.023	-0.119
-702.558	-111.415	-0.374	-0.077
-701.543	-105.100	-0.301	0.070
-700.529	-148.875	-0.150	0.012
-699.514	-6.437	0.155	-0.107
-698.499	-58.898	-0.109	0.048
-697.485	-138.408	-0.366	-0.041
-696.470	-199.951	-0.289	0.001
-695.456	-68.453	-0.127	0.050
-694.441	396.069	0.091	-0.193
-693.426	-14.285	-0.175	-0.114
-692.412	22.393	0.086	-0.072
-691.397	-73.514	0.258	-0.096
-690.383	-182.572	-0.127	0.002
-689.368	70.633	0.017	0.018
-688.354	-200.000	0.002	-0.167
-687.339	-200.000	0.058	0.270
-686.324	127.611	0.230	0.297
-685.310	94.262	-0.071	-0.082
-684.295	-82.906	0.352	-0.115
-683.281	-71.157	0.114	-0.043
-682.266	-200.000	-0.052	-0.355
-681.251	800.000	-0.058	-0.184
-680.237	48.765	0.159	-0.151
-679.222	-5.505	-0.142	-0.099
-678.208	-200.000	0.051	-0.334
-677.193	-200.000	-0.033	-0.160
-676.178	-46.330	0.091	0.045
-675.164	676.672	-0.080	0.212
-674.149	72.344	-0.105	-0.112
-673.135	169.261	-0.159	-0.230
-672.120	-119.809	0.400	-0.070
-671.105	291.980	0.122	-0.225
-670.091	800.000	-0.018	-0.065
-669.076	-200.000	0.020	0.134
-668.062	-37.291	-0.179	-0.097
-667.047	279.430	0.064	0.116
-666.032	800.000	0.062	-0.182
-665.018	-200.000	-0.005	-0.151
-664.003	128.279	0.167	-0.215
-662.989	430.046	0.171	0.376
-661.974	-41.596	0.264	0.138
-660.959	226.210	0.102	-0.168
-659.945	-200.000	0.020	-0.142
-658.930	90.267	0.021	0.023
-657.916	-93.354	-0.108	-0.030
-656.901	-6.830	0.295	-0.203
-655.886	314.054	-0.123	0.234
-654.872	-101.331	0.120	-0.030
-653.857	-72.172	0.326	-0.123
-652.843	-74.464	0.377	-0.138
-651.828	-60.340	-0.214	0.092
-650.814	-200.000	0.011	0.184
-649.799	363.373	0.145	-0.296
-648.784	-130.447	0.237	0.032
-647.770	650.479	-0.108	-0.281
-646.755	800.000	-0.059	-0.224
-645.741	-48.941	-0.395	0.192
-644.726	800.000	0.055	-0.162
-643.711	-200.000	-0.008	-0.475
-642.697	800.000	-0.048	-0.191
-641.682	-30.966	-0.119	0.068
-640.668	800.000	-0.098	-0.330
-639.653	214.654	-0.079	-0.127
-638.638	447.589	-0.089	-0.199
-637.624	-65.888	0.244	-0.099
-636.609	-155.115	0.203	-0.013
-635.595	167.483	0.031	0.045
-634.580	-200.000	0.038	0.323
-633.565	-200.000	0.011	-0.375
-632.551	-200.000	-0.010	-0.164
-631.536	-140.034	0.274	-0.029
-630.522	-200.000	-0.030	0.292
-629.507	-200.000	0.102	0.518
-628.492	-38.693	-0.132	0.071
-627.478	233.136	-0.145	0.241
-626.463	-93.309	-0.197	0.055
-625.449	56.893	-0.079	-0.078
-624.434	-186.946	0.295	0.004
-623.419	-200.000	-0.015	0.294
-622.405	-200.000	0.009	-0.455
-621.390	107.287	-0.175	-0.211
-620.376	-81.862	0.096	0.032
-619.361	-69.439	0.338	-0.131
-618.346	133.624	0.151	0.198
-617.332	-200.000	-0.033	0.301
-616.317	-106.773	-0.261	-0.059
-615.303	30.140	0.256	0.221
-614.288	-116.424	0.123	0.023
-613.273	322.464	0.119	-0.229
-612.259	-133.581	0.146	-0.019
-611.244	139.247	0.063	-0.084
-610.230	-200.000	0.007	-0.181
-609.215	-200.000	0.004	0.159
-608.201	-200.000	-0.019	-0.180
-607.186	25.541	-0.058	0.048
-606.171	-200.000	0.035	-0.538
-605.157	800.000	0.024	-0.069
-604.142	-49.616	0.271	0.130
-603.128	305.227	0.145	-0.274
-602.113	-24.511	-0.414	-0.250
-601.098	-200.000	-0.023	-0.175
-600.084	210.437	-0.040	-0.064
-599.069	-7.176	-0.198	-0.136
-598.055	-45.605	-0.168	0.084
-597.040	30.089	-0.174	-0.150
-596.025	-146.521	0.084	0.007
-595.011	-49.058	-0.297	-0.144
-593.996	41.795	0.286	0.262
-592.982	-200.000	0.007	-0.270
-591.967	-91.022	-0.102	0.030
-590.952	800.000	0.047	-0.186
-589.938	800.000	0.049	-0.156
-588.923	-142.525	-0.163	-0.016
-587.909	-200.000	-0.005	-0.136
-586.894	3.969	-0.170	-0.126
-585.879	44.966	0.128	-0.120
-584.865	-87.020	0.256	0.079
-583.850	-102.782	0.061	-0.015
-582.836	800.000	0.081	0.232
-581.821	-129.195	0.200	0.028
-580.806	6.721	-0.219	0.165
-579.792	-167.451	0.062	-0.003
-578.777	44.834	0.087	-0.081
-577.763	800.000	-0.080	0.244
-576.748	162.321	-0.248	0.351
-575.733	800.000	-0.102	-0.383
-574.719	-87.178	0.085	-0.026
-573.704	116.155	-0.197	0.244
-572.690	36.216	0.169	0.150
-571.675	-67.179	-0.092	-0.036
-570.661	-37.220	0.019	-0.010
-569.646	-65.104	-0.228	-0.093
-568.631	-45.208	-0.106	-0.053
-567.617	-25.371	0.319	0.191
-566.602	-200.000	-0.008	-0.200
-565.588	121.848	0.257	0.324
-564.573	-200.000	0.023	-0.115
-563.558	800.000	0.101	-0.315
-562.544	15.682	-0.103	0.082
-561.529	3.001	0.280	-0.205
-560.515	-2.030	0.181	-0.129
-559.500	-200.000	0.053	-0.317
-558.485	-82.073	-0.453	-0.150
-557.471	-44.222	-0.013	0.006
-556.456	-73.062	-0.194	0.072
-555.442	-200.000	-0.006	-0.069
-554.427	133.432	0.041	0.054
-553.412	8.763	-0.131	-0.100
-552.398	26.428	-0.112	-0.094
-551.383	55.975	0.173	-0.170
-550.369	-97.038	-0.311	0.082
-549.354	380.038	0.085	-0.176
-548.339	-109.249	0.206	-0.044
-547.325	-70.232	0.141	0.054
-546.310	184.893	0.211	-0.315
-545.296	-3.403	0.148	-0.104
-544.281	49.594	-0.273	-0.259
-543.266	28.868	0.082	-0.071
-542.252	130.917	0.149	-0.193
-541.237	-200.000	-0.015	0.083
-540.223	-97.183	-0.020	0.005
-539.208	-37.192	0.014	0.008
-538.193	-200.000	0.053	0.234
-537.179	187.646	-0.203	-0.306
-536.164	754.026	0.036	0.099
-535.150	223.222	-0.174	-0.283
-534.135	63.580	-0.233	-0.236
-533.121	800.000	0.053	-0.156
-532.106	800.000	0.074	0.223
-531.091	-59.613	-0.135	0.058
-530.077	-84.690	-0.107	-0.034
-529.062	-146.248	-0.226	-0.020
-528.048	-35.244	0.380	0.209
-527.033	-166.703	0.291	0.012
-526.018	-93.586	0.060	-0.017
-525.004	-7.363	0.136	-0.093
-523.989	184.546	0.150	0.225
-522.975	-139.492	-0.081	-0.009
-521.960	60.691	-0.138	-0.138
-520.945	117.031	0.152	-0.188
-519.931	-124.921	-0.316	0.049
-518.916	-200.000	0.024	0.125
-517.902	93.970	-0.107	-0.123
-516.887	-43.078	-0.117	0.060
-515.872	-200.000	-0.025	-0.472
-514.858	800.000	0.037	0.117
-513.843	253.653	-0.081	-0.140
-512.829	698.626	-0.180	0.478
-511.814	-153.856	-0.038	0.003
-510.799	230.000	-0.155	0.256
-509.785	80.678	0.162	-0.176
-508.770	283.280	0.066	0.120
-507.756	253.336	0.039	-0.067
-506.741	-200.000	-0.054	0.407
-505.726	-113.919	0.453	0.089
-504.712	-87.263	-0.365	-0.112
-503.697	10.571	0.121	0.093
-502.683	-162.265	0.424	-0.021
-501.668	-64.461	-0.138	-0.057
-500.653	538.119	0.029	-0.069
-499.639	674.491	0.103	-0.269
-498.624	318.254	-0.089	0.170
-497.610	299.716	0.108	-0.201
-496.595	-6.702	0.384	0.264
-495.581	-157.197	0.294	-0.018
-494.566	-109.986	0.198	0.042
-493.551	-185.723	0.324	-0.005
-492.537	343.140	0.071	-0.141
-491.522	-26.469	0.393	0.232
-490.508	-83.983	0.181	-0.058
-489.493	29.834	0.167	-0.143
-488.478	-150.007	-0.578	0.045
-487.464	-136.019	0.124	-0.015
-486.449	-200.000	-0.027	-0.365
-485.435	366.552	-0.290	-0.590
-484.420	-200.000	-0.056	-0.254
-483.405	165.248	-0.113	0.160
-482.391	-83.174	0.196	-0.064
-481.376	336.299	-0.047	0.093
-480.362	44.334	0.253	0.234
-479.347	-200.000	-0.001	-0.315
-478.332	23.556	0.024	0.020
-477.318	42.782	-0.076	0.070
-476.303	-59.630	0.191	0.083
-475.289	-155.575	-0.103	0.007
-474.274	235.372	-0.046	0.076
-473.259	-10.061	-0.086	0.058
-472.245	800.000	-0.048	-0.175
-471.230	292.974	-0.058	0.107
-470.216	-172.316	0.226	0.007
-469.201	85.952	0.188	-0.209
-468.186	-2.400	0.305	0.215
-467.172	-57.996	0.364	-0.160
-466.157	-200.000	0.031	0.232
-465.143	-49.074	-0.197	0.095
-464.128	6.499	-0.188	0.140
-463.113	23.591	-0.166	0.138
-462.099	-79.342	-0.027	0.009
-461.084	-110.461	0.226	-0.047
-460.070	-200.000	0.018	0.132
-459.055	173.572	-0.145	0.211
-458.040	629.567	-0.060	-0.154
-457.026	-200.000	0.031	-0.167
-456.011	4.707	-0.057	-0.042
-454.997	-64.265	0.209	0.086
-453.982	-57.606	0.086	0.038
-452.968	800.000	0.076	0.223
-451.953	-138.831	0.173	0.019
-450.938	475.121	-0.055	0.125
-449.924	388.747	0.079	0.165
-448.909	160.981	-0.190	-0.268
-447.895	800.000	0.100	0.302
-446.880	-66.427	0.184	-0.074
-445.865	130.317	-0.181	0.233
-444.851	79.669	0.235	0.254
-443.836	-171.964	-0.190	0.006
-442.822	-101.127	-0.206	0.051
-441.807	-104.287	0.186	0.043
-440.792	120.958	-0.093	0.116
-439.778	186.203	-0.029	0.044
-438.763	-40.889	0.159	0.083
-437.749	-45.473	-0.321	-0.160
-436.734	-17.690	-0.022	0.014
-435.719	332.909	-0.051	0.100
-434.705	85.474	-0.363	-0.401
-433.690	108.558	0.287	0.345
-432.676	-43.531	0.071	-0.036
-431.661	-196.932	0.159	-0.001
-430.646	-200.000	0.035	-0.225
-429.632	95.804	0.069	-0.079
-428.617	11.558	-0.142	0.109
-427.603	-64.973	-0.092	0.037
-426.588	-75.383	0.034	-0.012
-425.573	-200.000	-0.078	-0.446
-424.559	-103.016	0.352	-0.084
-423.544	-171.763	-0.355	-0.012
-422.530	800.000	-0.029	-0.115
-421.515	476.525	0.113	-0.257
-420.500	-200.000	-0.004	0.039
-419.486	-200.000	0.008	-0.041
-418.471	-113.370	0.126	0.025
-417.457	388.822	0.082	-0.170
-416.442	-94.668	-0.054	0.015
-415.428	800.000	-0.106	0.330
-414.413	-89.189	0.222	-0.066
-413.398	138.222	-0.205	0.271
-412.384	-200.000	-0.031	0.268
-411.369	-143.799	0.387	-0.037
-410.355	46.434	-0.178	-0.166
-409.340	-200.000	0.017	-0.174
-408.325	-200.000	-0.513	0.001
-407.311	-200.000	0.022	-0.154
-406.296	-97.609	-0.299	0.078
-405.282	-104.759	-0.451	0.104
-404.267	48.629	-0.059	0.055
-403.252	-13.102	0.081	0.053
-402.238	-200.000	-0.017	0.075
-401.223	-200.000	0.016	0.291
-400.209	-2.213	0.164	0.116
-399.194	-200.000	-0.030	-0.185
-398.179	-200.000	-0.010	0.106
-397.165	800.000	0.033	0.098
-396.150	-200.000	0.011	0.088
-395.136	-109.402	-0.160	-0.034
-394.121	800.000	-0.074	-0.300
-393.106	-111.997	0.188	-0.038
-392.092	-71.093	-0.191	0.072
-391.077	-200.000	0.085	0.417
-390.063	-56.331	-0.069	0.031
-389.048	-103.029	0.093	-0.022
-388.033	467.014	-0.138	0.310
-387.019	59.361	0.191	0.189
-386.004	-110.396	0.131	-0.027
-384.990	-200.000	-0.019	-0.281
-383.975	7.684	0.148	0.111
-382.960	-152.953	-0.260	-0.018
-381.946	131.031	-0.058	0.074
-380.931	6.256	-0.119	0.089
-379.917	-200.000	0.054	-0.381
-378.902	214.358	-0.234	0.372
-377.888	800.000	-0.142	-0.482
-376.873	131.418	-0.053	0.069
-375.858	-40.517	-0.059	0.031
-374.844	-97.642	-0.071	-0.018
-373.829	-53.969	-0.110	-0.050
-372.815	-200.000	-0.012	-0.100
-371.800	-200.000	0.001	0.174
-370.785	-158.769	-0.204	-0.012
-369.771	11.916	0.238	0.184
-368.756	-4.529	0.409	0.283
-367.742	-47.603	-0.269	0.131
-366.727	-51.768	0.113	-0.053
-365.712	90.153	0.168	-0.188
-364.698	15.563	0.073	-0.057
-363.683	800.000	0.014	0.057
-362.669	-200.000	0.067	0.365
-361.654	-120.968	-0.218	-0.037
-360.639	-179.892	-0.290	-0.006
-359.625	550.655	-0.022	0.054
-358.610	-83.911	0.056	-0.018
-357.596	-33.462	-0.287	0.159
-356.581	-140.005	0.151	0.016
-355.566	-98.875	-0.321	0.082
-354.552	-200.000	0.034	-0.178
-353.537	-158.419	0.102	0.006
-352.523	800.000	-0.068	-0.250
-351.508	800.000	0.156	0.434
-350.493	800.000	-0.058	0.196
-349.479	-200.000	0.017	-0.172
-348.464	330.913	-0.116	0.224
-347.450	-26.539	-0.056	-0.033
-346.435	-47.117	-0.252	0.123
-345.420	-149.218	0.102	0.008
-344.406	-13.733	-0.064	0.042
-343.391	33.420	0.225	0.196
-342.377	-90.123	-0.242	-0.071
-341.362	800.000	-0.020	-0.084
-340.348	-50.054	0.219	0.104
-339.333	-118.366	0.091	0.016
-338.318	295.669	-0.149	0.273
-337.304	-200.000	-0.009	-0.201
-336.289	400.074	-0.141	-0.296
-335.275	300.231	-0.037	0.068
-334.260	32.689	-0.153	-0.133
-333.245	-84.836	0.217	-0.068
-332.231	-40.142	-0.178	0.093
-331.216	-13.025	0.096	-0.063
-330.202	-35.954	-0.164	-0.089
-329.187	-60.691	0.271	0.115
-328.172	79.136	-0.155	-0.166
-327.158	-84.432	-0.280	-0.089
-326.143	184.151	0.105	0.155
-325.129	-162.988	-0.254	-0.012
-324.114	151.509	-0.135	-0.184
-323.099	-200.000	0.010	-0.126
-322.085	-200.000	-0.017	-0.207
-321.070	-25.117	-0.305	-0.181
-320.056	-200.000	0.006	-0.086
-319.041	-133.396	0.182	-0.023
-318.026	337.946	-0.112	0.218
-317.012	-200.000	0.022	0.126
-315.997	72.291	0.152	-0.158
-314.983	800.000	-0.101	0.335
-313.968	-96.354	-0.207	-0.055
-312.953	-58.215	-0.110	0.048
-311.939	-200.000	-0.023	-0.109
-310.924	-78.411	-0.221	-0.076
-309.910	-200.000	0.012	0.164
-308.895	-200.000	-0.034	0.341
-307.880	-100.093	-0.186	-0.046
-306.866	-105.021	-0.102	-0.023
-305.851	-85.271	0.297	-0.093
-304.837	-89.834	0.163	0.048
-303.822	-106.311	0.225	-0.050
-302.807	167.990	-0.281	0.400
-301.793	536.496	-0.078	-0.184
-300.778	413.986	0.181	0.386
-299.764	26.052	-0.051	0.043
-298.749	-98.836	0.064	-0.016
-297.735	-67.859	-0.326	-0.127
-296.720	193.380	-0.064	-0.097
-295.705	-200.000	0.017	0.180
-294.691	800.000	-0.086	0.275
-293.676	800.000	-0.037	-0.151
-292.662	-200.000	-0.006	0.158
-291.647	21.907	0.145	-0.118
-290.632	-1.742	0.228	0.161
-289.618	-200.000	0.030	0.216
-288.603	-200.000	0.005	0.457
-287.589	-143.809	-0.239	-0.023
-286.574	-70.977	0.214	-0.081
-285.559	800.000	0.101	0.375
-284.545	-200.000	0.013	-0.087
-283.530	593.081	0.065	-0.160
-282.516	14.823	0.119	0.093
-281.501	361.825	-0.043	-0.086
-280.486	442.514	-0.030	-0.065
-279.472	-200.000	-0.045	0.202
-278.457	125.419	0.092	-0.116
-277.443	-200.000	-0.046	-0.290
-276.428	-200.000	0.010	0.374
-275.413	101.514	0.151	-0.176
-274.399	-165.508	-0.129	0.006
-273.384	-200.000	0.005	-0.031
-272.370	41.368	0.125	-0.113
-271.355	-45.306	0.135	0.067
-270.340	24.134	0.182	-0.150
-269.326	286.677	0.053	0.096
-268.311	-94.823	0.070	-0.019
-267.297	333.357	0.081	-0.157
-266.282	-200.000	0.010	-0.207
-265.267	731.395	-0.075	-0.200
-264.253	38.876	0.162	-0.145
-263.238	241.884	0.213	-0.355
-262.224	-128.142	0.080	0.011
-261.209	-160.806	-0.146	-0.008
-260.195	-135.626	0.093	-0.011
-259.180	800.000	-0.117	0.329
-258.165	-56.741	0.132	-0.058
-257.151	148.596	-0.061	0.083
-256.136	1.574	0.196	-0.141
-255.122	523.155	0.070	-0.164
-254.107	3.627	-0.173	-0.126
-253.092	230.111	0.033	0.054
-252.078	800.000	-0.151	-0.438
-251.063	-181.724	0.277	0.005
-250.049	-51.851	-0.337	-0.157
-249.034	109.962	0.120	0.144
-248.019	450.004	-0.088	-0.194
-247.005	154.491	-0.180	0.247
-245.990	800.000	0.057	0.162
-244.976	433.855	-0.101	0.219
-243.961	-200.000	-0.007	0.030
-242.946	-200.000	-0.019	-0.382
-241.932	449.155	-0.065	-0.142
-240.917	-47.872	0.183	0.088
-239.903	180.885	0.184	0.270
-238.888	-48.445	0.066	0.032
-237.873	571.012	0.068	-0.165
-236.859	-128.497	-0.407	0.058
-235.844	-200.000	0.014	0.093
-234.830	800.000	0.009	-0.038
-233.815	-16.408	-0.149	-0.094
-232.800	46.775	-0.253	0.235
-231.786	-200.000	-0.040	0.241
-230.771	-200.000	-0.115	-0.000
-229.757	-171.152	-0.395	0.013
-228.742	-26.975	0.161	0.094
-227.727	-200.000	0.020	0.183
-226.713	47.070	0.126	0.117
-225.698	59.218	-0.167	0.164
-224.684	-200.000	-0.002	0.013
-223.669	-200.000	0.048	0.310
-222.655	-200.000	-0.011	0.299
-221.640	-61.093	0.103	-0.043
-220.625	-98.646	-0.045	-0.011
-219.611	100.493	0.290	0.336
-218.596	6.490	-0.201	-0.149
-217.582	-11.896	0.156	0.102
-216.567	-11.131	0.014	0.009
-215.552	800.000	-0.072	0.203
-214.538	281.308	-0.048	-0.086
-213.523	24.529	-0.200	-0.165
-212.509	-136.290	0.013	-0.001
-211.494	800.000	0.104	-0.322
-210.479	-184.160	0.350	-0.006
-209.465	611.519	0.104	0.259
-208.450	55.729	0.333	0.321
-207.436	118.143	0.136	-0.167
-206.421	-53.700	0.318	-0.145
-205.406	-200.000	-0.005	0.164
-204.392	105.028	-0.214	0.252
-203.377	-200.000	0.014	0.203
-202.363	-200.000	-0.004	-0.069
-201.348	180.799	-0.014	-0.020
-200.333	6.255	0.110	0.081
-199.319	49.123	0.021	0.020
-198.304	157.406	0.198	0.273
-197.290	-200.000	-0.029	-0.128
-196.275	156.916	-0.050	-0.068
-195.260	-96.378	-0.318	-0.084
-194.246	-161.873	-0.111	0.006
-193.231	186.508	-0.098	0.145
-192.217	561.753	-0.063	0.151
-191.202	-200.000	-0.001	0.476
-190.187	-16.777	0.060	-0.038
-189.173	64.157	-0.116	0.117
-188.158	559.408	0.061	-0.146
-187.144	-85.151	-0.317	0.099
-186.129	-0.271	-0.099	-0.070
-185.114	-200.000	-0.016	0.112
-184.100	99.758	0.036	-0.041
-183.085	-17.353	0.221	-0.138
-182.071	-97.746	-0.126	-0.032
-181.056	-17.372	-0.273	0.171
-180.042	166.366	0.081	0.114
-179.027	47.688	-0.134	-0.124
-178.012	800.000	0.023	-0.064
-176.998	-33.042	-0.148	0.082
-175.983	-200.000	-0.010	-0.188
-174.969	-98.496	0.427	0.109
-173.954	-200.000	0.009	-0.260
-172.939	-119.039	0.067	-0.012
-171.925	204.468	-0.143	0.221
-170.910	-200.000	0.017	-0.126
-169.896	77.172	0.076	-0.081
-168.881	108.697	0.231	-0.275
-167.866	-31.821	-0.270	0.151
-166.852	800.000	-0.025	0.074
-165.837	271.135	-0.026	-0.046
-164.823	31.838	0.213	0.182
-163.808	-147.779	-0.034	0.003
-162.793	-40.045	0.159	-0.082
-161.779	417.624	-0.141	-0.300
-160.764	-153.312	0.278	-0.019
-159.750	-200.000	-0.020	0.196
-158.735	800.000	-0.188	-0.677
-157.720	-100.179	-0.272	-0.067
-156.706	160.148	0.123	0.170
-155.691	-112.952	0.066	-0.013
-154.677	164.035	0.216	0.302
-153.662	-46.582	0.103	-0.050
-152.647	800.000	-0.073	0.296
-151.633	170.949	-0.185	0.264
-150.618	-39.624	-0.053	0.028
-149.604	16.515	0.173	0.136
-148.589	-200.000	0.004	0.195
-147.574	-105.573	0.181	0.041
-146.560	98.426	0.163	-0.186
-145.545	-200.000	-0.011	-0.177
-144.531	-42.373	0.098	0.050
-143.516	474.055	0.253	0.567
-142.502	-200.000	0.011	0.210
-141.487	-132.943	0.397	-0.050
-140.472	272.905	-0.186	0.326
-139.458	-110.238	0.270	-0.056
-138.443	-29.398	-0.336	0.191
-137.429	134.687	-0.070	0.090
-136.414	-68.046	-0.161	0.062
-135.399	800.000	-0.098	-0.319
-134.385	-200.000	0.011	-0.106
-133.370	8.333	-0.093	-0.069
-132.356	-101.436	-0.217	0.053
-131.341	26.747	0.170	0.142
-130.326	338.277	-0.105	-0.204
-129.312	-83.609	0.221	0.070
-128.297	239.277	0.082	0.136
-127.283	800.000	-0.044	-0.147
-126.268	-115.037	0.365	-0.069
-125.253	-3.737	0.170	0.117
-124.239	754.901	-0.066	0.177
-123.224	-114.202	0.157	-0.030
-122.210	15.902	0.031	0.024
-121.195	-32.269	-0.280	0.156
-120.180	-124.676	0.221	0.034
-119.166	-147.131	0.189	-0.016
-118.151	-200.000	-0.013	0.066
-117.137	393.561	0.170	0.352
-116.122	137.218	-0.060	-0.077
-115.107	-15.911	0.190	0.120
-114.093	35.676	-0.212	0.185
-113.078	111.687	0.082	-0.098
-112.064	-113.238	0.320	-0.062
-111.049	167.163	-0.074	-0.105
-110.034	326.729	0.038	-0.072
-109.020	800.000	-0.080	0.229
-108.005	229.922	-0.125	0.202
-106.991	-200.000	-0.019	-0.398
-105.976	-200.000	-0.000	0.498
-104.962	-44.026	0.079	0.039
-103.947	-87.500	-0.461	0.138
-102.932	70.436	0.084	0.086
-101.918	468.094	0.046	0.102
-100.903	-101.783	0.173	-0.042
-99.889	19.042	0.147	-0.117
-98.874	-93.078	-0.195	-0.054
-97.859	86.958	0.159	-0.174
-96.845	29.480	0.096	0.081
-95.830	554.700	-0.063	-0.150
-94.816	41.656	0.150	0.135
-93.801	25.719	-0.093	0.077
-92.786	15.977	0.210	0.164
-91.772	46.675	-0.270	-0.248
-90.757	0.627	0.251	-0.178
-89.743	267.042	0.199	-0.345
-88.728	-200.000	-0.011	-0.252
-87.713	30.600	0.045	-0.038
-86.699	339.903	0.142	0.275
-85.684	-53.021	0.239	0.109
-84.670	543.954	0.167	-0.396
-83.655	112.098	0.056	-0.067
-82.640	100.648	0.234	0.270
-81.626	25.259	0.116	0.095
-80.611	-158.233	-0.041	0.002
-79.597	111.630	-0.275	-0.329
-78.582	-70.203	0.267	-0.101
-77.567	800.000	-0.048	0.169
-76.553	555.153	0.085	0.204
-75.538	351.885	0.070	-0.137
-74.524	295.576	0.093	-0.169
-73.509	-200.000	0.028	0.448
-72.494	-149.350	0.396	0.031
-71.480	800.000	0.055	0.178
-70.465	-200.000	0.005	0.577
-69.451	257.471	0.066	0.113
-68.436	-200.000	-0.026	-0.197
-67.422	182.129	-0.097	-0.142
-66.407	219.861	-0.146	0.232
-65.392	38.686	-0.104	0.092
-64.378	-200.000	0.031	-0.166
-63.363	226.092	0.103	-0.166
-62.349	-169.127	0.475	0.017
-61.334	-25.019	-1.167	-0.686
-60.319	27.849	0.362	0.302
-59.305	-200.000	0.059	-0.927
-58.290	-200.000	0.232	1.106
-57.276	468.585	0.732	1.628
-56.261	-200.000	96.571	567.681
-55.246	636.297	1384.161	3482.375
-54.232	186.248	2601.382	3834.737
-53.217	121.219	2202.436	2716.845
-52.203	45.275	1736.265	1586.469
-51.188	37.777	1547.018	1361.361
-50.173	35.358	1519.866	1320.782
-49.159	53.913	1570.174	1494.808
-48.144	57.835	1588.764	1539.881
-47.130	38.259	1543.923	1361.781
-46.115	34.882	1528.768	1325.004
-45.100	34.816	1524.734	1321.006
-44.086	34.702	1523.048	1318.699
-43.071	34.658	1521.441	1316.958
-42.057	34.696	1519.675	1315.640
-41.042	34.677	1518.683	1314.596
-40.027	34.690	1517.095	1313.256
-39.013	34.724	1515.013	1311.638
-37.998	34.665	1514.407	1310.657
-36.984	34.617	1513.435	1309.435
-35.969	34.659	1512.061	1308.478
-34.954	34.620	1510.354	1306.687
-33.940	34.676	1509.271	1306.080
-32.925	34.755	1507.264	1304.829
-31.911	34.626	1506.442	1303.182
-30.896	34.754	1504.639	1302.446
-29.881	34.744	1503.342	1301.205
-28.867	34.745	1501.730	1299.764
-27.852	34.679	1500.765	1298.431
-26.838	34.725	1499.345	1297.460
-25.823	34.760	1497.386	1295.953
-24.809	34.744	1495.933	1294.533
-23.794	34.740	1495.071	1293.707
-22.779	34.685	1493.877	1292.253
-21.765	34.736	1492.517	1291.371
-20.750	34.806	1490.856	1290.355
-19.736	34.720	1490.135	1289.101
-18.721	34.717	1488.807	1287.879
-17.706	34.746	1487.675	1287.040
-16.692	34.683	1487.180	1286.139
-15.677	34.637	1486.115	1284.855
-14.663	34.621	1485.361	1284.048
-13.648	34.598	1483.984	1282.649
-12.633	34.642	1482.967	1282.020
-11.619	34.617	1482.512	1281.401
-10.604	34.728	1481.240	1280.997
-9.590	34.691	1480.464	1280.028
-8.575	34.651	1479.801	1279.135
-7.560	34.653	1478.916	1278.337
-6.546	34.780	1477.812	1278.176
-5.531	34.664	1477.730	1277.279
-4.517	34.617	1476.167	1275.564
-3.502	34.708	1475.025	1275.138
-2.487	34.609	1474.095	1273.623
-1.473	34.592	1473.100	1272.597
-0.458	34.668	1471.523	1271.688
0.556	36.776	1462.775	1262.238
1.571	33.991	1436.432	1221.532
2.586	30.004	1373.710	1143.531
3.600	27.858	1290.389	1061.616
4.615	25.353	1242.669	1008.222
5.629	21.378	1184.641	939.734
6.644	12.878	1099.252	829.337
7.659	6.050	1057.780	764.833
8.673	4.974	1051.792	755.223
9.688	4.889	1047.905	751.958
10.702	4.633	1047.198	750.148
11.717	4.864	1045.662	750.096
12.731	8.032	1048.770	767.539
13.746	16.379	1060.088	816.241
14.761	21.799	1067.048	847.812
15.775	22.112	1066.182	848.562
16.790	21.224	1064.301	842.706
17.804	20.076	1062.778	835.889
18.819	19.324	1060.851	830.682
19.834	18.981	1059.577	827.959
20.848	18.797	1058.288	825.992
21.863	18.565	1057.702	824.349
22.877	18.454	1057.072	823.250
23.892	18.326	1056.105	821.812
24.907	18.209	1055.367	820.600
25.921	18.182	1054.595	819.799
26.936	18.157	1054.279	819.359
27.950	18.214	1052.629	818.280
28.965	18.197	1051.182	816.998
29.980	18.201	1050.847	816.688
30.994	18.409	1049.567	816.613
32.009	18.530	1048.985	816.665
33.023	18.523	1048.156	815.911
34.038	18.547	1047.279	815.270
35.053	18.485	1046.430	814.245
36.067	18.423	1045.465	813.126
37.082	18.318	1044.089	811.489
38.096	18.247	1043.757	810.819
39.111	18.409	1042.804	810.775
40.126	18.534	1041.715	810.448
41.140	18.407	1040.878	809.125
42.155	18.043	1039.747	806.456
43.169	17.962	1038.796	805.264
44.184	17.900	1037.806	804.135
45.199	17.960	1036.375	803.237
46.213	17.994	1035.289	802.484
47.228	18.023	1034.548	801.977
48.242	18.100	1034.238	802.027
49.257	18.236	1033.328	801.884
50.271	18.285	1031.966	800.986
51.286	18.248	1031.312	800.238
52.301	18.370	1030.771	800.316
53.315	18.331	1030.021	799.478
54.330	18.234	1028.861	798.058
55.344	17.995	1028.191	796.351
56.359	17.999	1026.701	795.146
57.374	18.022	1026.073	794.697
58.388	18.098	1025.175	794.285
59.403	17.841	1024.816	792.743
60.417	17.823	1023.679	791.709
61.432	17.829	1022.718	790.924
62.447	17.792	1022.436	790.463
63.461	17.801	1021.340	789.589
64.476	17.794	1019.746	788.255
65.490	17.618	1019.405	787.108
66.505	17.683	1018.367	786.536
67.520	17.711	1017.937	786.264
68.534	17.781	1016.817	785.650
69.549	17.757	1016.354	785.113
70.563	17.877	1015.253	784.748
71.578	17.719	1014.922	783.693
72.593	17.557	1013.712	781.948
73.607	17.567	1012.394	780.905
74.622	17.630	1011.160	780.177
75.636	17.486	1010.965	779.294
76.651	17.503	1010.363	778.840
77.666	17.676	1009.508	778.904
78.680	17.513	1008.843	777.578
79.695	17.552	1008.278	777.251
80.709	17.735	1007.692	777.566
81.724	17.819	1006.890	777.258
82.739	17.896	1006.358	777.130
83.753	17.973	1005.955	777.099
84.768	18.285	1004.569	777.379
85.782	18.388	1004.349	777.609
86.797	18.530	1003.634	777.630
87.812	18.523	1002.954	777.002
88.826	18.369	1001.919	775.433
89.841	18.337	1000.961	774.477
90.855	18.255	1000.527	773.703
91.870	18.491	999.249	773.712
92.884	18.549	998.711	773.488
93.899	18.447	997.912	772.344
94.914	18.472	997.215	771.848
95.928	18.518	996.684	771.574
96.943	18.601	995.873	771.251
97.957	18.605	994.866	770.422
98.972	18.391	994.022	768.739
99.987	18.347	993.582	768.135
101.001	18.343	992.836	767.474
102.016	18.418	992.350	767.365
103.030	18.411	990.752	766.027
104.045	18.401	990.426	765.667
105.060	18.426	989.364	764.886
106.074	18.334	988.232	763.532
107.089	18.051	987.320	761.501
108.103	17.864	986.423	759.911
109.118	17.716	985.275	758.302
110.133	17.730	984.298	757.543
111.147	17.942	982.998	757.414
112.162	17.696	982.447	755.835
113.176	17.752	981.387	755.199
114.191	17.749	980.547	754.471
115.206	17.959	979.808	754.767
116.220	17.943	979.144	754.118
117.235	18.021	978.198	753.666
118.249	17.819	977.693	752.318
119.264	17.891	976.407	751.579
120.279	17.892	975.577	750.880
121.293	17.778	975.118	749.956
122.308	17.663	974.590	748.981
123.322	17.671	973.302	747.960
124.337	17.628	972.180	746.841
125.352	17.660	970.934	745.960
126.366	17.626	970.356	745.300
127.381	17.520	969.337	743.987
128.395	17.642	968.077	743.488
129.410	17.646	967.438	742.951
130.424	17.648	966.497	742.171
131.439	17.731	965.683	741.839
132.454	17.784	964.984	741.468
133.468	17.998	964.226	741.749
134.483	18.012	963.727	741.361
135.497	17.835	963.102	740.047
136.512	17.933	962.301	739.790
137.527	17.956	961.599	739.283
138.541	18.064	960.682	738.983
139.556	18.094	959.736	738.319
140.570	18.003	959.380	737.585
141.585	18.170	958.670	737.693
142.600	18.277	958.272	737.782
143.614	18.412	957.202	737.475
144.629	18.460	956.630	737.176
145.643	18.524	955.699	736.668
146.658	18.475	955.116	735.942
147.673	18.328	953.924	734.331
148.687	18.152	952.905	732.726
149.702	18.103	951.747	731.562
150.716	17.890	951.301	730.244
151.731	17.939	950.227	729.563
152.746	18.026	949.535	729.338
153.760	18.031	948.839	728.763
154.775	18.093	948.231	728.494
155.789	18.171	947.268	728.022
156.804	18.268	946.713	727.946
157.819	18.273	945.951	727.314
158.833	18.171	945.832	726.725
159.848	18.384	944.848	726.809
160.862	18.471	944.348	726.731
161.877	18.533	943.267	726.094
162.892	18.317	942.112	724.231
163.906	18.066	941.378	722.540
164.921	17.948	940.334	721.177
165.935	17.928	939.807	720.623
166.950	17.997	938.566	719.898
167.964	18.163	937.679	719.853
168.979	18.199	936.752	719.231
169.994	18.091	935.753	717.946
171.008	17.956	934.897	716.659
172.023	18.234	933.911	717.006
173.037	18.247	933.686	716.824
174.052	18.390	933.092	716.900
175.067	18.465	932.007	716.316
176.081	18.174	931.298	714.495
177.096	17.927	930.307	712.642
178.110	18.132	928.995	712.427
179.125	18.161	928.616	712.192
180.140	18.026	927.500	710.715
181.154	18.236	927.021	711.154
182.169	18.194	927.041	710.935
183.183	18.341	926.637	711.171
184.198	18.457	925.643	710.827
185.213	18.483	925.094	710.451
186.227	18.449	924.386	709.702
187.242	18.569	923.806	709.693
188.256	18.691	923.248	709.703
189.271	18.740	922.347	709.154
190.286	18.805	921.448	708.666
191.300	18.520	920.744	706.886
192.315	18.119	919.806	704.454
193.329	17.894	919.170	702.976
194.344	17.852	918.640	702.338
195.359	18.158	917.739	702.844
196.373	18.234	917.556	702.951
197.388	18.310	917.149	702.891
198.402	18.591	916.863	703.764
199.417	18.604	916.766	703.678
200.432	18.784	915.897	703.688
201.446	18.859	915.995	704.008
202.461	18.980	915.489	704.052
203.475	18.965	915.045	703.585
204.490	18.921	914.240	702.727
205.504	18.826	912.995	701.319
206.519	18.653	911.949	699.750
207.534	18.577	911.008	698.654
208.548	18.519	910.632	698.068
209.563	18.527	909.938	697.505
210.577	18.597	909.217	697.178
211.592	18.708	908.626	697.114
212.607	18.690	908.662	697.006
213.621	18.788	908.470	697.195
214.636	18.830	907.382	696.467
215.650	18.883	906.183	695.699
216.665	18.916	905.851	695.519
217.680	18.854	905.567	694.985
218.694	18.941	904.958	694.810
219.709	18.998	904.431	694.575
220.723	19.042	903.711	694.136
221.738	18.985	902.753	693.110
222.753	18.954	902.453	692.693
223.767	18.917	901.201	691.524
224.782	19.006	900.765	691.485
225.796	19.071	900.273	691.305
226.811	19.239	899.631	691.426
227.826	19.154	898.751	690.347
228.840	18.979	897.632	688.727
229.855	18.856	897.191	687.838
230.869	18.839	896.756	687.373
231.884	18.979	895.996	687.291
232.899	18.790	895.386	686.008
233.913	18.722	894.896	685.298
234.928	18.790	893.773	684.650
235.942	18.684	893.366	683.856
236.957	18.711	892.459	683.206
237.972	18.622	892.061	682.489
238.986	18.683	891.147	681.969
240.001	18.556	890.913	681.227
241.015	18.837	889.706	681.360
242.030	18.742	889.282	680.597
243.045	18.857	888.687	680.535
244.059	18.864	888.366	680.258
245.074	18.981	887.763	680.200
246.088	18.911	887.014	679.287
247.103	18.961	886.934	679.363
248.117	19.083	886.446	679.411
249.132	19.341	885.517	679.657
250.147	19.471	885.569	680.148
251.161	19.713	884.809	680.460
252.176	19.616	884.376	679.685
253.190	19.794	883.702	679.807
254.205	19.848	883.018	679.432
255.220	19.801	882.785	679.006
256.234	19.821	881.678	678.175
257.249	19.705	881.163	677.263
258.263	19.797	880.584	677.120
259.278	19.810	879.689	676.420
260.293	19.804	879.151	675.924
261.307	19.781	878.805	675.508
262.322	19.783	878.865	675.504
263.336	19.953	877.818	675.301
264.351	19.989	877.220	674.921
265.366	20.025	876.271	674.271
266.380	19.882	875.998	673.447
267.395	20.059	874.897	673.229
268.409	19.718	874.622	671.630
269.424	19.900	873.550	671.456
270.439	19.879	873.055	670.936
271.453	19.814	871.854	669.700
272.468	19.762	871.101	668.861
273.482	19.658	870.652	668.055
274.497	19.654	870.391	667.782
275.512	19.648	869.592	667.084
276.526	19.684	869.140	666.820
277.541	19.716	867.908	665.938
278.555	19.759	867.460	665.702
279.570	19.901	867.246	666.023
280.585	20.039	866.785	666.143
281.599	20.105	866.359	666.009
282.614	19.827	865.596	664.297
283.628	19.889	864.348	663.517
284.643	19.765	864.385	663.013
285.657	19.836	863.525	662.567
286.672	19.768	863.316	662.087
287.687	19.958	862.500	662.127
288.701	19.887	861.996	661.410
289.716	19.895	861.585	661.070
290.730	19.891	860.951	660.509
291.745	19.889	860.229	659.888
292.760	20.005	859.545	659.745
293.774	20.046	859.264	659.629
294.789	20.141	858.971	659.705
295.803	20.160	858.175	659.111
296.818	20.045	857.413	658.029
297.833	19.930	856.691	656.980
298.847	19.987	856.391	656.909
299.862	19.874	855.822	655.985
300.876	19.967	854.751	655.458
301.891	20.186	854.375	655.943
302.906	20.187	853.888	655.514
303.920	20.361	852.842	655.308
304.935	20.502	852.481	655.505
305.949	20.485	851.999	655.011
306.964	20.445	851.456	654.384
307.979	20.341	850.681	653.340
308.993	20.361	850.183	652.975
310.008	20.405	849.598	652.634
311.022	20.332	849.248	652.035
312.037	20.393	848.856	651.903
313.052	20.309	848.237	651.057
314.066	20.208	847.394	649.973
315.081	19.946	846.659	648.372
316.095	20.142	845.488	648.149
317.110	20.079	845.653	647.984
318.125	20.139	844.679	647.402
319.139	20.048	844.541	646.901
320.154	20.083	844.069	646.614
321.168	20.107	843.529	646.232
322.183	20.110	842.977	645.762
323.197	20.300	842.814	646.286
324.212	20.127	841.947	644.923
325.227	20.170	841.397	644.604
326.241	20.242	840.739	644.310
327.256	20.218	840.315	643.840
328.270	20.177	839.816	643.248
329.285	20.200	838.964	642.623
330.300	20.108	838.329	641.738
331.314	20.142	837.905	641.485
332.329	20.229	837.658	641.559
333.343	20.309	836.934	641.243
334.358	20.535	836.146	641.419
335.373	20.423	835.714	640.615
336.387	20.589	835.193	640.771
337.402	20.534	835.012	640.375
338.416	20.684	833.987	640.083
339.431	20.763	833.602	640.021
340.446	20.903	833.018	640.032
341.460	20.829	832.978	639.671
342.475	20.887	832.123	639.171
343.489	20.930	831.934	639.127
344.504	21.121	831.203	639.208
345.519	21.002	830.608	638.260
346.533	21.114	830.373	638.432
347.548	21.121	829.881	638.024
348.562	21.001	828.978	636.834
349.577	20.756	828.622	635.610
350.592	20.535	827.664	634.011
351.606	20.564	827.558	633.981
352.621	20.566	827.056	633.546
353.635	20.551	826.343	632.891
354.650	20.616	826.157	632.927
355.665	20.619	826.016	632.777
356.679	20.690	825.230	632.374
357.694	20.864	824.640	632.499
358.708	20.770	824.219	631.777
359.723	20.802	823.677	631.423
360.738	20.862	822.827	630.935
361.752	20.763	822.616	630.358
362.767	20.850	822.368	630.427
363.781	21.152	821.722	630.966
364.796	21.253	821.246	630.910
365.810	21.134	821.178	630.373
366.825	21.357	820.864	630.882
367.840	21.437	820.596	630.907
368.854	21.525	819.651	630.441
369.869	21.332	819.364	629.469
370.883	21.198	818.672	628.399
371.898	21.217	817.990	627.890
372.913	21.231	817.659	627.632
373.927	21.327	817.124	627.511
374.942	21.312	816.276	626.749
375.956	21.330	815.430	626.107
376.971	21.396	814.966	625.935
377.986	21.443	814.886	625.985
379.000	21.423	814.323	625.425
380.015	21.609	813.547	625.438
381.029	21.479	813.184	624.642
382.044	21.458	812.801	624.216
383.059	21.549	811.980	623.853
384.073	21.513	811.935	623.637
385.088	21.539	810.973	622.935
386.102	21.412	810.180	621.819
387.117	21.178	809.819	620.654
388.132	21.345	809.103	620.644
389.146	21.195	808.632	619.697
390.161	21.253	808.294	619.589
391.175	21.335	807.990	619.589
392.190	21.565	807.798	620.204
393.205	21.428	807.277	619.264
394.219	21.351	807.041	618.755
395.234	21.330	806.161	617.951
396.248	21.131	805.872	616.973
397.263	21.147	804.904	616.234
398.278	21.120	804.423	615.713
399.292	21.031	803.945	614.981
400.307	20.985	803.900	614.728
401.321	21.230	803.190	614.996
402.336	21.074	802.966	614.219
403.350	21.152	802.529	614.104
404.365	21.332	802.136	614.384
405.380	21.406	801.838	614.360
406.394	21.572	801.462	614.600
407.409	21.572	801.258	614.392
408.423	21.673	800.561	614.156
409.438	21.667	800.067	613.702
410.453	21.839	799.755	614.009
411.467	21.857	799.373	613.725
412.482	21.996	798.455	613.451
413.496	21.920	798.565	613.216
414.511	21.992	798.261	613.181
415.526	22.087	797.849	613.141
416.540	21.963	797.433	612.334
417.555	21.974	796.514	611.614
418.569	21.958	796.013	611.120
419.584	21.918	795.409	610.461
420.599	21.932	795.624	610.622
421.613	158.229	1368.930	1787.135
422.628	137.147	1452.499	1787.245
