DTS Sentinel unit serial number:	SN413079Multiplexer serial number:	ORYXHardware model number:	OX4-SRSoftware version number:	ORYX F/W v4.00 Oryx Data Collector v3.7.2.0data status	okinstallation	princeton_trtdifferential loss correction	single-endedforward channel	channel 3reverse channel	N/Adate	2019/09/14time	22:28:35forward acquisition time	60.00reverse acquisition time	0.00gamma	496.2192k internal	0.2318k external	0.2318temperature offset calibration	0.9992default loss term (dB/km)	0.3790temperature slope calibration	1.0000multiplexer offset coefficient	1.0000multiplexer slope coefficient	1.0000fibre end	0.00T internal ref (°C)	32.56T ext. ref 1 (°C)	4.68T ext. ref 2 (°C)	27.53length (m)	temperature (°C)	Stokes	anti-Stokes-747.200	-82.709	-0.243	-0.080
-746.185	-200.000	-0.007	0.090
-745.171	-29.679	-0.251	-0.145
-744.156	-98.116	0.154	0.040
-743.142	753.609	0.030	0.082
-742.127	-59.855	-0.152	0.066
-741.112	181.212	0.156	0.232
-740.098	-200.000	0.004	0.404
-739.083	201.880	0.155	0.242
-738.069	-200.000	0.030	0.206
-737.054	800.000	0.088	-0.260
-736.039	-70.007	-0.152	-0.059
-735.025	85.482	-0.052	-0.058
-734.010	-21.342	-0.155	-0.096
-732.996	7.381	-0.195	-0.148
-731.981	-200.000	0.035	-0.262
-730.966	-42.663	0.158	-0.081
-729.952	96.044	-0.114	-0.131
-728.937	185.583	0.156	-0.234
-727.923	752.072	-0.062	-0.170
-726.908	47.762	-0.265	-0.251
-725.894	239.956	0.054	0.091
-724.879	-34.158	0.210	0.117
-723.864	-29.758	0.144	0.083
-722.850	30.535	-0.052	0.045
-721.835	417.945	-0.044	-0.094
-720.821	-100.387	-0.378	-0.095
-719.806	-12.067	-0.182	-0.121
-718.791	-200.000	0.012	0.242
-717.777	-200.000	-0.029	-0.228
-716.762	72.566	-0.107	0.113
-715.748	-63.376	-0.283	-0.118
-714.733	-200.000	0.022	-0.182
-713.718	64.685	0.070	-0.072
-712.704	-177.573	0.176	0.004
-711.689	-200.000	-0.007	0.062
-710.675	-93.896	0.375	-0.104
-709.660	-200.000	0.041	-0.245
-708.645	800.000	-0.107	-0.300
-707.631	417.188	0.156	-0.337
-706.616	-133.752	-0.324	0.041
-705.602	-123.478	-0.340	0.055
-704.587	227.116	0.037	-0.061
-703.572	-82.832	0.220	0.072
-702.558	64.516	0.283	0.288
-701.543	-5.582	-0.164	0.114
-700.529	113.713	0.153	-0.188
-699.514	-86.403	-0.171	0.053
-698.499	-104.276	0.211	-0.050
-697.485	-200.000	-0.051	0.362
-696.470	234.800	0.046	0.076
-695.456	-200.000	0.003	0.227
-694.441	-160.584	0.063	-0.003
-693.426	-69.458	-0.212	-0.082
-692.412	-200.000	-0.004	0.308
-691.397	-120.912	-0.230	0.039
-690.383	-3.801	0.341	-0.239
-689.368	204.654	0.198	-0.310
-688.354	158.766	0.203	-0.285
-687.339	-146.575	0.301	0.026
-686.324	456.143	0.021	-0.048
-685.310	35.250	-0.217	-0.192
-684.295	195.056	-0.131	-0.201
-683.281	-74.189	-0.343	-0.125
-682.266	500.411	-0.084	0.195
-681.251	-54.955	0.524	0.239
-680.237	-145.213	0.136	-0.012
-679.222	-200.000	0.070	-0.313
-678.208	-144.552	-0.075	0.007
-677.193	188.733	0.216	-0.327
-676.178	19.300	-0.103	-0.084
-675.164	-193.379	0.250	0.002
-674.149	-16.420	-0.110	-0.070
-673.135	55.811	0.129	-0.126
-672.120	426.151	-0.118	-0.257
-671.105	144.651	-0.164	-0.221
-670.091	159.593	0.113	-0.159
-669.076	102.353	-0.160	-0.189
-668.062	7.997	0.182	-0.138
-667.047	-102.842	-0.351	0.084
-666.032	140.646	0.022	-0.029
-665.018	-84.485	-0.170	0.054
-664.003	-102.762	-0.229	0.055
-662.989	-165.597	0.312	-0.014
-661.974	-57.425	0.337	-0.149
-660.959	-200.000	0.023	0.581
-659.945	-31.346	0.245	0.139
-658.930	-88.269	0.362	-0.109
-657.916	42.872	0.327	0.301
-656.901	-179.138	0.067	-0.002
-655.886	109.805	0.113	0.136
-654.872	66.809	-0.146	-0.150
-653.857	30.301	0.122	-0.105
-652.843	-164.211	-0.192	-0.009
-651.828	-130.696	0.296	-0.040
-650.814	532.244	-0.058	0.139
-649.799	257.414	-0.133	-0.231
-648.784	74.641	0.049	0.051
-647.770	800.000	-0.202	-0.582
-646.755	800.000	-0.011	-0.039
-645.741	97.354	-0.190	-0.220
-644.726	-63.190	0.199	0.083
-643.711	4.128	-0.235	0.174
-642.697	232.306	0.102	0.169
-641.682	-178.685	-0.406	0.009
-640.668	-16.422	-0.135	0.086
-639.653	178.003	0.134	-0.198
-638.638	25.138	0.136	-0.114
-637.624	238.871	-0.059	0.099
-636.609	73.920	0.119	0.126
-635.595	800.000	-0.003	0.014
-634.580	-200.000	0.045	0.292
-633.565	-200.000	-0.021	0.111
-632.551	71.131	-0.054	-0.056
-631.536	-200.000	-0.059	-0.317
-630.522	113.041	-0.134	0.164
-629.507	105.310	0.073	0.087
-628.492	19.631	-0.019	0.015
-627.478	-176.200	-0.310	0.008
-626.463	-59.812	-0.027	0.012
-625.449	-68.874	0.108	-0.042
-624.434	241.480	-0.053	0.088
-623.419	-178.166	-0.438	0.010
-622.405	-139.453	-0.213	0.023
-621.390	-200.000	-0.015	-0.175
-620.376	184.722	0.015	-0.023
-619.361	284.182	0.140	0.254
-618.346	-200.000	-0.009	0.098
-617.332	599.998	0.050	-0.125
-616.317	293.465	-0.075	-0.138
-615.303	-200.000	-0.080	0.439
-614.288	-15.276	-0.192	0.124
-613.273	37.755	0.215	-0.193
-612.259	-200.000	-0.009	-0.401
-611.244	41.150	-0.123	-0.112
-610.230	-73.005	0.077	-0.029
-609.215	-82.001	0.266	0.087
-608.201	532.823	0.062	0.149
-607.186	123.230	-0.071	0.090
-606.171	-200.000	0.064	-0.323
-605.157	-39.984	-0.298	-0.157
-604.142	90.266	-0.118	0.133
-603.128	227.073	-0.066	-0.108
-602.113	1.756	0.123	-0.089
-601.098	-200.000	0.030	-0.154
-600.084	-200.000	0.018	0.206
-599.069	437.900	-0.217	0.475
-598.055	-102.772	-0.147	-0.035
-597.040	-49.203	-0.098	-0.047
-596.025	327.832	-0.131	0.254
-595.011	108.662	-0.221	-0.265
-593.996	39.039	-0.274	-0.247
-592.982	-152.358	-0.131	0.010
-591.967	-141.088	0.155	-0.016
-590.952	-200.000	0.040	0.405
-589.938	131.383	0.171	-0.220
-588.923	800.000	0.067	-0.210
-587.909	-62.431	0.098	0.041
-586.894	-124.397	-0.122	0.019
-585.879	63.592	-0.119	0.120
-584.865	165.145	-0.154	0.219
-583.850	800.000	0.079	-0.264
-582.836	-80.831	-0.077	0.026
-581.821	160.338	0.199	-0.279
-580.806	329.756	0.078	0.150
-579.792	28.185	-0.183	-0.155
-578.777	800.000	-0.051	0.209
-577.763	-55.761	-0.244	0.110
-576.748	-103.953	0.269	-0.063
-575.733	-200.000	0.009	-0.190
-574.719	-199.771	-0.286	-0.001
-573.704	-130.226	-0.401	0.055
-572.690	800.000	0.080	-0.278
-571.675	-92.869	0.247	-0.070
-570.661	-200.000	0.045	0.255
-569.646	220.451	-0.104	-0.167
-568.631	425.113	-0.050	-0.108
-567.617	-129.810	0.250	0.035
-566.602	-133.988	-0.086	0.011
-565.588	55.961	0.164	-0.160
-564.573	-124.201	0.259	-0.041
-563.558	-116.269	0.114	-0.021
-562.544	-2.650	0.224	0.158
-561.529	-188.082	-0.141	-0.002
-560.515	-57.041	-0.166	0.074
-559.500	46.598	-0.244	-0.228
-558.485	-16.119	-0.129	0.082
-557.471	-200.000	-0.036	-0.340
-556.456	204.488	-0.133	0.207
-555.442	10.214	-0.275	-0.210
-554.427	3.382	-0.256	0.187
-553.412	-29.675	0.403	0.231
-552.398	-200.000	0.003	0.249
-551.383	-200.000	-0.019	0.252
-550.369	-65.462	-0.320	0.129
-549.354	-102.021	0.167	-0.041
-548.339	800.000	-0.069	-0.265
-547.325	88.436	-0.158	-0.177
-546.310	14.771	0.212	0.167
-545.296	-61.067	-0.209	0.089
-544.281	-88.038	0.257	-0.078
-543.266	800.000	0.070	-0.299
-542.252	-97.326	-0.205	-0.054
-541.237	-160.729	0.334	0.018
-540.223	-23.199	0.039	-0.023
-539.208	35.832	0.149	-0.132
-538.193	-200.000	-0.040	0.233
-537.179	-142.150	-0.070	-0.007
-536.164	800.000	-0.027	-0.081
-535.150	-126.427	0.565	0.084
-534.135	800.000	-0.022	-0.065
-533.121	-200.000	-0.020	-0.241
-532.106	-120.268	-0.272	0.047
-531.091	798.600	0.030	-0.083
-530.077	-126.019	0.147	0.022
-529.062	94.590	-0.075	0.085
-528.048	549.024	-0.111	0.267
-527.033	213.644	0.122	0.194
-526.018	-124.062	-0.284	0.045
-525.004	-126.088	0.252	0.038
-523.989	-54.393	0.134	-0.061
-522.975	84.787	0.125	-0.137
-521.960	-182.046	-0.414	-0.008
-520.945	81.477	0.146	-0.158
-519.931	-40.986	-0.131	-0.068
-518.916	157.674	-0.134	0.186
-517.902	-148.855	-0.339	0.027
-516.887	-152.485	0.064	0.005
-515.872	-2.408	0.253	0.178
-514.858	67.813	-0.145	0.148
-513.843	800.000	-0.055	-0.162
-512.829	468.309	0.131	-0.294
-511.814	-128.465	0.412	-0.059
-510.799	-135.265	0.138	0.017
-509.785	59.250	0.206	-0.203
-508.770	-17.067	0.322	-0.204
-507.756	-65.811	0.415	-0.167
-506.741	265.010	0.088	0.153
-505.726	-20.164	-0.211	-0.131
-504.712	49.427	-0.170	-0.160
-503.697	417.426	0.060	0.128
-502.683	-200.000	0.016	0.235
-501.668	-147.899	-0.339	-0.028
-500.653	-44.648	-0.272	0.136
-499.639	-200.000	-0.028	-0.167
-498.624	-76.474	0.208	-0.073
-497.610	572.789	0.023	0.056
-496.595	-91.121	-0.109	-0.031
-495.581	-63.494	-0.096	0.040
-494.566	-45.821	0.127	-0.063
-493.551	476.613	0.093	-0.211
-492.537	-200.000	-0.031	0.200
-491.522	-170.256	0.365	-0.013
-490.508	-200.000	-0.070	0.320
-489.493	-118.274	-0.109	-0.019
-488.478	38.845	-0.290	0.259
-487.464	-140.168	0.180	-0.019
-486.449	423.863	-0.071	-0.154
-485.435	-77.059	0.117	-0.041
-484.420	-200.000	0.008	0.074
-483.405	-71.515	0.153	0.057
-482.391	-150.678	-0.378	-0.029
-481.376	385.461	-0.078	0.160
-480.362	-57.562	0.104	0.046
-479.347	-200.000	-0.082	-0.541
-478.332	199.228	0.158	-0.243
-477.318	182.289	0.187	0.276
-476.303	89.939	-0.345	-0.386
-475.289	318.579	-0.086	-0.164
-474.274	-49.908	-0.161	-0.076
-473.259	-200.000	-0.021	-0.184
-472.245	464.571	0.043	0.096
-471.230	800.000	-0.037	0.133
-470.216	136.396	0.121	0.158
-469.201	437.969	0.082	0.178
-468.186	498.942	-0.089	-0.205
-467.172	800.000	0.023	0.080
-466.157	311.289	0.015	-0.029
-465.143	41.148	-0.212	0.192
-464.128	800.000	0.027	-0.109
-463.113	486.753	0.088	-0.201
-462.099	-130.775	0.114	-0.015
-461.084	7.079	-0.131	0.098
-460.070	783.964	0.082	-0.226
-459.055	180.674	-0.015	0.022
-458.040	-152.648	0.405	0.029
-457.026	-3.770	0.455	-0.316
-456.011	106.661	-0.079	-0.094
-454.997	639.494	-0.035	0.088
-453.982	-104.321	0.132	-0.031
-452.968	283.436	0.118	-0.213
-451.953	427.709	0.148	-0.320
-450.938	59.044	0.264	0.260
-449.924	-200.000	-0.017	0.118
-448.909	311.590	0.112	0.209
-447.895	-200.000	-0.046	0.300
-446.880	37.253	-0.095	0.084
-445.865	79.246	0.146	0.156
-444.851	800.000	-0.061	-0.169
-443.836	-186.076	-0.382	0.006
-442.822	57.667	0.201	0.197
-441.807	-200.000	0.038	-0.196
-440.792	194.002	0.126	-0.190
-439.778	36.217	-0.060	0.053
-438.763	-8.190	-0.108	-0.073
-437.749	191.220	0.217	0.327
-436.734	33.871	-0.239	-0.208
-435.719	-9.916	0.073	-0.049
-434.705	134.981	0.177	-0.229
-433.690	-132.503	0.284	0.036
-432.676	69.936	-0.156	-0.161
-431.661	-168.083	0.054	-0.002
-430.646	-120.621	0.151	0.026
-429.632	0.427	0.250	-0.179
-428.617	-191.587	0.324	-0.003
-427.603	13.640	0.184	-0.143
-426.588	-200.000	0.059	0.380
-425.573	-200.000	0.058	0.380
-424.559	-200.000	-0.049	-0.216
-423.544	-121.169	-0.382	-0.064
-422.530	554.480	0.097	-0.233
-421.515	138.588	-0.083	0.109
-420.500	-200.000	0.067	0.346
-419.486	191.458	-0.116	0.175
-418.471	-128.953	0.285	-0.040
-417.457	109.142	-0.240	-0.287
-416.442	42.228	0.132	0.120
-415.428	543.365	-0.077	0.184
-414.413	-82.550	-0.251	0.081
-413.398	19.651	0.047	-0.038
-412.384	800.000	0.071	0.231
-411.369	363.544	-0.149	0.298
-410.355	190.848	-0.033	0.049
-409.340	1.319	0.268	-0.192
-408.325	-200.000	0.042	0.222
-407.311	339.561	0.038	-0.075
-406.296	8.592	-0.091	-0.068
-405.282	-76.480	-0.116	0.041
-404.267	54.669	-0.095	0.091
-403.252	-47.044	0.333	0.162
-402.238	338.059	0.025	-0.048
-401.223	-99.857	0.259	-0.065
-400.209	-200.000	-0.032	0.184
-399.194	186.559	0.179	-0.266
-398.179	22.868	-0.291	-0.238
-397.165	-144.419	0.214	0.020
-396.150	800.000	-0.082	-0.243
-395.136	370.088	0.154	-0.312
-394.121	800.000	0.034	-0.114
-393.106	-143.986	0.094	-0.009
-392.092	-200.000	-0.014	0.116
-391.077	164.782	-0.210	0.296
-390.063	-39.117	-0.050	-0.026
-389.048	27.900	-0.132	0.111
-388.033	-200.000	-0.001	0.096
-387.019	-154.855	-0.104	-0.007
-386.004	-17.549	0.265	0.166
-384.990	-84.193	0.224	0.071
-383.975	-84.639	0.151	0.047
-382.960	414.520	-0.073	-0.155
-381.946	-36.796	-0.245	0.131
-380.931	-73.166	-0.118	0.043
-379.917	-119.041	0.099	0.017
-378.902	245.621	0.061	-0.102
-377.888	602.645	0.055	0.137
-376.873	-200.000	0.011	0.073
-375.858	549.901	0.088	0.211
-374.844	405.518	-0.167	-0.352
-373.829	-200.000	-0.021	-0.111
-372.815	-200.000	-0.023	0.259
-371.800	81.094	0.142	-0.153
-370.785	-133.450	0.092	0.012
-369.771	142.140	0.073	-0.096
-368.756	629.839	-0.091	-0.229
-367.742	93.786	0.366	-0.413
-366.727	439.642	-0.026	0.058
-365.712	80.957	0.087	-0.094
-364.698	-106.608	0.146	0.032
-363.683	-53.680	-0.440	0.201
-362.669	123.773	-0.077	0.096
-361.654	-144.890	0.127	0.012
-360.639	-115.145	-0.266	-0.050
-359.625	21.326	-0.032	-0.026
-358.610	-73.106	-0.191	0.070
-357.596	-95.125	0.167	0.045
-356.581	-200.000	-0.019	-0.102
-355.566	-97.566	-0.159	-0.041
-354.552	153.824	-0.125	-0.170
-353.537	-156.154	0.109	0.007
-352.523	14.384	-0.177	-0.137
-351.508	-84.719	0.150	-0.047
-350.493	800.000	-0.020	0.077
-349.479	800.000	0.048	-0.184
-348.464	-55.367	-0.250	-0.112
-347.450	-30.763	-0.252	-0.142
-346.435	800.000	0.027	0.077
-345.420	121.178	-0.220	0.273
-344.406	-200.000	0.016	-0.213
-343.391	-57.255	-0.144	-0.063
-342.377	-10.372	-0.189	-0.125
-341.362	-24.389	0.090	0.053
-340.348	125.845	-0.227	0.286
-339.333	-169.621	0.422	-0.015
-338.318	800.000	-0.098	0.372
-337.304	-18.530	-0.152	0.094
-336.289	91.450	0.112	0.125
-335.275	-114.645	-0.174	-0.033
-334.260	153.139	0.135	0.184
-333.245	-107.389	0.280	0.061
-332.231	37.310	-0.111	-0.098
-331.216	800.000	0.058	0.229
-330.202	-170.974	0.110	-0.004
-329.187	402.385	0.188	-0.392
-328.172	-23.085	0.322	-0.193
-327.158	-85.176	-0.544	-0.169
-326.143	30.339	-0.151	-0.128
-325.129	122.650	0.116	0.145
-324.114	800.000	-0.060	-0.239
-323.099	-79.383	-0.287	-0.097
-322.085	-95.566	0.215	0.057
-321.070	-47.468	0.182	-0.088
-320.056	-20.775	0.192	0.117
-319.041	609.669	0.039	-0.096
-318.026	-180.129	0.347	-0.007
-317.012	-119.295	-0.097	-0.017
-315.997	781.010	0.082	0.222
-314.983	-200.000	-0.009	-0.065
-313.968	-200.000	0.014	0.286
-312.953	-120.405	-0.350	-0.059
-311.939	340.967	0.062	-0.121
-310.924	-200.000	-0.329	-0.001
-309.910	-16.917	0.033	0.021
-308.895	-200.000	0.016	-0.258
-307.880	157.964	0.070	0.097
-306.866	-41.368	-0.196	-0.100
-305.851	-200.000	-0.008	-0.151
-304.837	800.000	0.105	-0.321
-303.822	-200.000	-0.052	0.492
-302.807	-64.835	-0.086	-0.035
-301.793	-92.701	-0.316	0.088
-300.778	-64.016	0.320	-0.130
-299.764	-200.000	-0.034	-0.290
-298.749	-74.862	-0.341	-0.122
-297.735	-116.359	-0.208	-0.038
-296.720	-133.266	0.047	-0.006
-295.705	664.291	-0.043	0.110
-294.691	280.355	-0.100	-0.178
-293.676	-146.666	0.181	-0.016
-292.662	800.000	0.083	-0.252
-291.647	17.805	-0.186	-0.147
-290.632	49.570	-0.153	-0.144
-289.618	309.509	0.152	0.282
-288.603	107.355	-0.276	0.327
-287.589	-144.747	0.225	-0.021
-286.574	800.000	-0.032	-0.121
-285.559	-78.304	0.191	0.065
-284.545	-16.686	0.156	0.098
-283.530	-97.591	-0.206	-0.053
-282.516	-25.783	0.064	0.038
-281.501	-200.000	-0.039	0.325
-280.486	296.441	-0.066	0.121
-279.472	-200.000	-0.005	-0.034
-278.457	-16.891	0.240	0.151
-277.443	619.290	0.080	0.199
-276.428	-25.128	-0.097	-0.057
-275.413	800.000	-0.024	-0.102
-274.399	-156.531	0.118	0.007
-273.384	-54.611	-0.108	0.049
-272.370	1.505	0.365	0.261
-271.355	-22.700	-0.229	0.138
-270.340	-178.774	0.185	0.004
-269.326	-200.000	-0.023	-0.152
-268.311	109.407	0.172	0.205
-267.297	800.000	0.053	-0.230
-266.282	474.014	-0.095	-0.212
-265.267	-122.271	-0.024	0.004
-264.253	-200.000	-0.035	0.255
-263.238	800.000	0.061	0.232
-262.224	800.000	0.055	-0.229
-261.209	-116.108	0.261	0.048
-260.195	57.347	0.153	-0.148
-259.180	-105.080	-0.369	-0.084
-258.165	19.809	0.208	0.167
-257.151	-200.000	-0.054	-0.242
-256.136	-200.000	-0.048	0.242
-255.122	332.076	0.124	-0.237
-254.107	569.899	-0.059	-0.142
-253.092	-33.455	0.145	0.080
-252.078	-174.674	-0.454	0.013
-251.063	-200.000	-0.019	0.288
-250.049	404.740	0.072	0.152
-249.034	41.519	-0.109	0.098
-248.019	-35.468	0.137	-0.074
-247.005	95.556	0.174	0.197
-245.990	593.168	-0.027	-0.067
-244.976	-12.529	0.161	-0.104
-243.961	-156.994	-0.315	-0.019
-242.946	88.800	-0.121	0.134
-241.932	-200.000	0.027	0.197
-240.917	-77.089	0.005	0.002
-239.903	45.194	-0.228	-0.209
-238.888	76.380	-0.179	0.188
-237.873	-200.000	0.005	-0.054
-236.859	2.318	-0.098	-0.070
-235.844	800.000	0.146	0.493
-234.830	53.363	0.155	0.147
-233.815	-141.812	0.150	0.015
-232.800	-186.187	-0.429	0.006
-231.786	-191.674	0.148	-0.001
-230.771	-74.777	-0.470	0.167
-229.757	800.000	0.069	-0.232
-228.742	34.535	0.085	-0.074
-227.727	156.490	0.037	-0.050
-226.713	22.850	0.093	-0.076
-225.698	-162.829	0.223	-0.011
-224.684	-200.000	0.068	0.528
-223.669	182.499	0.049	0.072
-222.655	-200.000	-0.020	-0.116
-221.640	74.449	0.306	0.319
-220.625	-23.046	0.090	-0.053
-219.611	-151.758	-0.233	0.017
-218.596	-52.001	-0.075	-0.034
-217.582	-163.896	0.058	0.003
-216.567	-18.252	-0.160	0.099
-215.552	13.747	0.109	-0.084
-214.538	800.000	-0.125	0.363
-213.523	800.000	0.081	0.276
-212.509	46.761	-0.311	-0.286
-211.494	-200.000	0.045	-0.000
-210.479	-39.526	0.467	0.242
-209.465	3.646	-0.108	-0.078
-208.450	137.497	-0.100	-0.130
-207.436	-35.667	0.335	-0.180
-206.421	-9.446	-0.091	0.060
-205.406	200.352	0.046	-0.071
-204.392	800.000	0.044	-0.161
-203.377	800.000	-0.023	-0.084
-202.363	217.027	-0.143	0.226
-201.348	-36.845	0.338	0.180
-200.333	-200.000	-0.016	0.119
-199.319	328.689	0.173	-0.329
-198.304	457.850	0.137	-0.302
-197.290	-108.259	0.200	0.043
-196.275	-128.430	0.254	-0.036
-195.260	271.805	0.070	0.122
-194.246	266.033	-0.046	0.080
-193.231	-200.000	0.009	0.115
-192.217	40.232	0.143	0.127
-191.202	16.834	-0.137	0.108
-190.187	-200.000	-0.004	-0.112
-189.173	40.323	-0.249	0.222
-188.158	186.328	-0.153	-0.226
-187.144	-200.000	-0.007	0.068
-186.129	800.000	0.116	-0.384
-185.114	800.000	-0.097	-0.322
-184.100	462.041	-0.018	0.040
-183.085	-5.142	0.303	0.206
-182.071	198.047	-0.053	0.080
-181.056	-124.643	0.194	0.030
-180.042	-200.000	0.013	-0.122
-179.027	-75.518	0.468	0.165
-178.012	-184.507	-0.205	-0.003
-176.998	-163.191	-0.130	-0.006
-175.983	-84.038	-0.146	0.046
-174.969	-44.473	-0.234	-0.116
-173.954	198.639	0.114	0.172
-172.939	12.411	-0.111	0.084
-171.925	-106.459	-0.271	-0.060
-170.910	192.822	0.205	0.306
-169.896	286.154	-0.052	-0.093
-168.881	-10.738	-0.186	-0.121
-167.866	285.039	0.054	-0.097
-166.852	-173.732	-0.374	0.011
-165.837	691.476	-0.059	-0.154
-164.823	34.358	0.122	-0.105
-163.808	394.103	0.068	0.141
-162.793	800.000	-0.007	0.020
-161.779	-200.000	0.038	0.416
-160.764	70.040	0.182	-0.186
-159.750	163.673	-0.119	-0.166
-158.735	-133.501	-0.249	-0.031
-157.720	-122.835	-0.093	0.015
-156.706	140.522	-0.113	0.147
-155.691	-200.000	0.034	0.306
-154.677	-90.801	0.228	-0.065
-153.662	362.402	0.104	-0.207
-152.647	96.398	0.232	0.262
-151.633	800.000	0.063	-0.180
-150.618	36.533	0.149	0.130
-149.604	0.601	0.267	0.189
-148.589	226.225	-0.104	0.167
-147.574	-95.542	0.461	-0.122
-146.560	800.000	-0.043	-0.166
-145.545	506.345	-0.055	0.126
-144.531	-200.000	0.005	0.025
-143.516	-22.943	-0.107	-0.064
-142.502	-200.000	-0.001	0.058
-141.487	456.621	0.157	0.345
-140.472	-156.379	-0.494	-0.031
-139.458	216.639	-0.068	-0.107
-138.443	249.625	-0.071	0.119
-137.429	407.539	0.072	-0.151
-136.414	-104.000	0.269	-0.062
-135.399	-78.311	0.343	0.116
-134.385	-18.174	0.068	0.042
-133.370	43.823	0.266	-0.241
-132.356	65.041	0.192	-0.192
-131.341	-200.000	0.008	-0.050
-130.326	119.513	-0.236	0.289
-129.312	33.946	0.175	0.151
-128.297	30.724	0.261	0.220
-127.283	-79.722	-0.161	0.054
-126.268	533.878	-0.139	0.325
-125.253	-133.838	0.313	-0.038
-124.239	248.678	0.112	0.186
-123.224	153.716	0.204	0.276
-122.210	800.000	0.124	-0.372
-121.195	107.638	-0.263	-0.309
-120.180	-200.000	0.029	0.221
-119.166	6.986	0.156	0.115
-118.151	24.881	-0.162	-0.133
-117.137	-135.911	-0.294	0.034
-116.122	-61.711	0.210	0.087
-115.107	-109.555	-0.333	0.069
-114.093	-200.000	-0.018	-0.169
-113.078	48.928	-0.342	-0.317
-112.064	-86.232	-0.215	-0.065
-111.049	-200.000	-0.014	0.084
-110.034	141.658	0.103	0.134
-109.020	-200.000	-0.023	-0.176
-108.005	800.000	-0.019	0.053
-106.991	18.686	0.132	0.104
-105.976	-38.116	0.452	0.237
-104.962	-5.748	-0.398	0.269
-103.947	-200.000	-0.030	-0.226
-102.932	-172.993	0.094	-0.003
-101.918	-151.451	-0.291	-0.021
-100.903	-200.000	-0.018	-0.311
-99.889	-63.598	-0.103	0.042
-98.874	137.332	-0.030	-0.038
-97.859	231.602	-0.061	-0.099
-96.845	461.547	0.037	-0.082
-95.830	343.742	0.104	0.201
-94.816	26.489	0.159	0.131
-93.801	49.352	-0.348	0.323
-92.786	131.948	0.049	-0.062
-91.772	639.100	-0.093	0.233
-90.757	-156.301	0.197	-0.012
-89.743	-200.000	0.068	0.411
-88.728	-200.000	0.007	-0.164
-87.713	129.481	0.313	0.395
-86.699	331.315	0.080	-0.151
-85.684	-200.000	-0.008	-0.290
-84.670	29.676	0.236	0.198
-83.655	-172.744	-0.408	-0.013
-82.640	10.587	0.135	0.101
-81.626	-200.000	0.052	0.304
-80.611	136.947	0.117	-0.151
-79.597	616.664	-0.097	-0.240
-78.582	-2.389	-0.219	-0.151
-77.567	9.730	0.167	0.125
-76.553	-99.914	-0.170	0.042
-75.538	19.166	-0.228	0.180
-74.524	800.000	0.024	0.098
-73.509	-115.352	0.393	-0.073
-72.494	170.050	-0.114	-0.161
-71.480	85.679	0.392	-0.425
-70.465	-20.404	-0.327	-0.198
-69.451	164.280	0.076	0.106
-68.436	-32.734	-0.151	-0.083
-67.422	-200.000	-0.014	0.172
-66.407	-44.852	0.158	-0.078
-65.392	800.000	-0.099	0.288
-64.378	-162.966	-0.297	0.014
-63.363	65.240	-0.228	0.227
-62.349	156.017	0.216	0.294
-61.334	57.111	-0.779	-0.749
-60.319	334.555	0.171	0.327
-59.305	-200.000	-0.092	-1.095
-58.290	351.461	0.483	0.943
-57.276	391.532	0.727	1.487
-56.261	-200.000	94.995	580.354
-55.246	659.533	1370.771	3475.568
-54.232	199.957	2541.046	3842.424
-53.217	119.560	2160.310	2635.343
-52.203	43.222	1707.319	1535.348
-51.188	35.820	1520.514	1316.878
-50.173	33.337	1493.767	1276.939
-49.159	52.185	1541.963	1447.706
-48.144	54.033	1559.654	1476.928
-47.130	35.941	1519.688	1316.784
-46.115	32.871	1504.764	1282.969
-45.100	32.647	1501.533	1278.647
-44.086	32.633	1499.747	1276.977
-43.071	32.630	1498.252	1275.631
-42.057	32.671	1496.301	1274.199
-41.042	32.538	1495.107	1272.230
-40.027	32.592	1493.605	1271.267
-39.013	32.604	1491.969	1269.904
-37.998	32.530	1490.340	1267.971
-36.984	32.628	1489.734	1268.063
-35.969	32.617	1488.285	1266.710
-34.954	32.578	1487.011	1265.310
-33.940	32.555	1485.657	1263.951
-32.925	32.661	1483.960	1263.172
-31.911	32.620	1482.868	1261.917
-30.896	32.606	1481.520	1260.628
-29.881	32.674	1480.422	1260.096
-28.867	32.617	1478.928	1258.392
-27.852	32.602	1477.383	1256.926
-26.838	32.639	1475.636	1255.642
-25.823	32.679	1474.121	1254.567
-24.809	32.564	1472.370	1252.265
-23.794	32.580	1470.929	1251.092
-22.779	32.629	1469.807	1250.413
-21.765	32.537	1468.638	1248.760
-20.750	32.554	1467.448	1247.814
-19.736	32.512	1466.789	1246.925
-18.721	32.493	1465.700	1245.819
-17.706	32.532	1464.478	1244.995
-16.692	32.545	1463.540	1244.230
-15.677	32.529	1462.467	1243.166
-14.663	32.512	1461.517	1242.193
-13.648	32.541	1460.398	1241.389
-12.633	32.581	1459.468	1240.806
-11.619	32.527	1458.686	1239.740
-10.604	32.530	1457.590	1238.779
-9.590	32.438	1457.427	1237.983
-8.575	32.497	1456.608	1237.633
-7.560	32.522	1455.410	1236.724
-6.546	32.605	1454.250	1236.234
-5.531	32.513	1453.411	1234.871
-4.517	32.562	1452.620	1234.468
-3.502	32.460	1451.707	1232.976
-2.487	32.463	1450.496	1231.922
-1.473	32.503	1449.375	1231.182
-0.458	32.544	1447.951	1230.188
0.556	31.609	1438.595	1218.999
1.571	28.764	1412.819	1178.824
2.586	25.287	1351.790	1106.410
3.600	23.483	1270.419	1029.257
4.615	22.192	1224.388	984.648
5.629	19.188	1168.072	923.199
6.644	11.555	1084.905	819.249
7.659	5.616	1045.558	760.689
8.673	4.851	1039.551	752.559
9.688	4.662	1037.198	749.875
10.702	4.624	1035.710	748.549
11.717	4.573	1033.695	746.785
12.731	6.795	1035.274	758.541
13.746	13.911	1045.394	800.290
14.761	19.081	1051.028	829.515
15.775	18.957	1049.640	827.752
16.790	17.820	1047.843	820.791
17.804	16.698	1045.747	813.692
18.819	15.826	1043.445	807.642
19.834	15.442	1042.126	804.708
20.848	15.099	1041.294	802.352
21.863	14.907	1040.740	800.934
22.877	14.623	1040.175	799.071
23.892	14.470	1039.426	797.694
24.907	14.506	1038.012	796.707
25.921	14.383	1037.714	795.820
26.936	14.588	1036.774	796.011
27.950	14.378	1035.848	794.224
28.965	14.487	1034.614	793.727
29.980	14.458	1034.040	793.082
30.994	14.729	1032.304	792.964
32.009	14.820	1031.503	792.711
33.023	14.776	1031.035	792.074
34.038	14.811	1030.241	791.559
35.053	14.797	1028.905	790.399
36.067	14.657	1028.239	789.152
37.082	14.505	1027.724	787.971
38.096	14.632	1026.840	787.824
39.111	14.607	1025.816	786.849
40.126	14.669	1025.508	786.836
41.140	14.693	1024.024	785.742
42.155	14.556	1022.695	784.005
43.169	14.254	1021.973	781.966
44.184	14.364	1020.222	781.073
45.199	14.307	1019.550	780.224
46.213	14.314	1018.435	779.333
47.228	14.288	1017.399	778.351
48.242	14.492	1016.677	778.683
49.257	14.515	1015.666	777.944
50.271	14.417	1014.648	776.641
51.286	14.522	1014.046	776.600
52.301	14.618	1013.442	776.517
53.315	14.549	1012.226	775.193
54.330	14.434	1011.800	774.265
55.344	14.375	1010.441	772.883
56.359	14.525	1009.457	772.757
57.374	14.503	1008.622	771.948
58.388	14.277	1008.046	770.393
59.403	14.369	1006.940	769.903
60.417	14.235	1006.271	768.706
61.432	14.132	1005.948	767.917
62.447	14.241	1004.844	767.508
63.461	14.233	1004.231	766.932
64.476	14.185	1002.902	765.631
65.490	14.196	1001.814	764.784
66.505	14.257	1001.304	764.608
67.520	14.223	1000.546	763.804
68.534	14.330	1000.009	763.815
69.549	14.304	999.270	763.065
70.563	14.210	998.453	761.942
71.578	14.249	997.649	761.442
72.593	14.358	996.539	761.023
73.607	14.114	995.964	759.403
74.622	14.108	995.056	758.619
75.636	14.139	993.616	757.592
76.651	14.149	992.858	756.995
77.666	14.064	992.660	756.388
78.680	14.167	991.689	756.051
79.695	14.177	991.340	755.762
80.709	14.200	990.507	755.163
81.724	14.352	989.867	755.301
82.739	14.297	989.330	754.573
83.753	14.337	988.686	754.197
84.768	14.419	987.855	753.868
85.782	14.636	986.864	754.023
86.797	14.661	986.365	753.690
87.812	14.695	985.457	753.081
88.826	14.512	984.981	751.826
89.841	14.579	983.708	751.092
90.855	14.487	983.239	750.253
91.870	14.569	982.153	749.726
92.884	14.649	981.574	749.579
93.899	14.781	980.723	749.454
94.914	14.626	980.304	748.373
95.928	14.886	979.081	748.534
96.943	14.881	978.389	747.917
97.957	14.625	978.023	746.427
98.972	14.596	976.975	745.432
99.987	14.628	976.481	745.133
101.001	14.658	975.524	744.471
102.016	14.643	975.035	743.965
103.030	14.613	973.793	742.816
104.045	14.627	972.890	742.125
105.060	14.715	972.053	741.811
106.074	14.562	971.264	740.464
107.089	14.648	969.654	739.551
108.103	14.235	969.689	737.686
109.118	14.322	968.008	736.723
110.133	14.337	967.509	736.345
111.147	14.354	966.526	735.608
112.162	14.288	965.935	734.803
113.176	14.392	965.131	734.582
114.191	14.395	964.200	733.824
115.206	14.491	963.568	733.701
116.220	14.437	962.879	732.875
117.235	14.376	961.878	731.779
118.249	14.370	961.344	731.283
119.264	14.479	960.303	730.900
120.279	14.427	959.171	729.747
121.293	14.426	958.366	729.065
122.308	14.311	957.809	728.074
123.322	14.258	957.173	727.296
124.337	14.292	955.728	726.283
125.352	14.157	955.130	725.174
126.366	14.225	953.988	724.539
127.381	14.222	953.108	723.796
128.395	14.185	951.651	722.466
129.410	14.299	950.922	722.342
130.424	14.248	950.213	721.516
131.439	14.381	949.179	721.246
132.454	14.191	948.652	719.957
133.468	14.509	947.755	720.586
134.483	14.599	946.759	720.157
135.497	14.364	946.769	719.084
136.512	14.403	945.630	718.324
137.527	14.465	944.826	717.915
138.541	14.403	944.693	717.485
139.556	14.312	943.469	716.102
140.570	14.463	943.167	716.459
141.585	14.614	942.194	716.303
142.600	14.531	941.622	715.447
143.614	14.686	941.054	715.617
144.629	14.714	939.844	714.757
145.643	14.734	939.468	714.489
146.658	14.632	938.516	713.269
147.673	14.664	937.304	712.419
148.687	14.503	936.741	711.243
149.702	14.479	936.028	710.534
150.716	14.556	934.605	709.722
151.731	14.367	934.669	708.904
152.746	14.461	933.451	708.313
153.760	14.501	932.968	708.055
154.775	14.572	932.229	707.734
155.789	14.538	931.599	707.047
156.804	14.656	930.677	706.787
157.819	14.576	929.885	705.783
158.833	14.669	929.276	705.653
159.848	14.699	928.378	705.032
160.862	14.811	927.914	705.094
161.877	14.697	926.996	703.851
162.892	14.599	926.252	702.812
163.906	14.610	925.311	702.081
164.921	14.650	924.564	701.620
165.935	14.511	923.770	700.373
166.950	14.696	922.654	700.242
167.964	14.658	921.783	699.359
168.979	14.584	921.197	698.543
169.994	14.783	919.754	698.216
171.008	14.633	918.813	696.814
172.023	14.670	918.276	696.500
173.037	14.607	917.715	695.752
174.052	14.889	916.693	696.090
175.067	14.851	915.945	695.302
176.081	14.797	915.108	694.381
177.096	14.627	914.331	693.025
178.110	14.594	913.960	692.545
179.125	14.560	913.358	691.884
180.140	14.758	912.195	691.763
181.154	14.656	911.498	690.750
182.169	14.691	911.361	690.733
183.183	14.735	910.993	690.574
184.198	14.945	909.563	690.294
185.213	14.847	909.381	689.692
186.227	14.824	908.691	689.011
187.242	14.935	908.491	689.255
188.256	15.016	907.274	688.607
189.271	15.050	906.853	688.365
190.286	15.096	905.811	687.704
191.300	15.003	904.819	686.508
192.315	14.735	904.682	685.242
193.329	14.545	903.716	683.672
194.344	14.630	903.048	683.455
195.359	14.676	902.369	683.067
196.373	14.873	902.286	683.750
197.388	14.830	901.498	682.916
198.402	15.111	900.817	683.486
199.417	15.131	900.690	683.414
200.432	15.108	900.438	683.066
201.446	15.111	899.884	682.597
202.461	15.258	899.798	683.073
203.475	15.349	898.811	682.634
204.490	15.351	898.220	682.130
205.504	15.260	897.336	681.031
206.519	15.197	896.486	680.070
207.534	15.083	895.721	678.967
208.548	15.151	895.334	678.887
209.563	15.132	894.330	677.989
210.577	15.143	893.774	677.553
211.592	15.081	893.163	676.781
212.607	15.326	892.702	677.360
213.621	15.341	892.224	676.998
214.636	15.370	891.535	676.532
215.650	15.220	890.838	675.340
216.665	15.412	890.094	675.487
217.680	15.375	889.777	675.039
218.694	15.443	889.338	674.921
219.709	15.715	888.480	675.302
220.723	15.427	888.212	673.880
221.738	15.499	887.135	673.292
222.753	15.509	886.622	672.885
223.767	15.276	886.068	671.471
224.782	15.571	884.938	671.736
225.796	15.599	884.329	671.327
226.811	15.635	883.285	670.618
227.826	15.542	882.874	669.874
228.840	15.547	882.447	669.511
229.855	15.463	881.855	668.668
230.869	15.442	881.071	667.931
231.884	15.481	880.625	667.688
232.899	15.370	879.861	666.611
233.913	15.281	879.276	665.755
234.928	15.363	878.315	665.294
235.942	15.340	877.705	664.680
236.957	15.330	877.425	664.372
237.972	15.536	876.170	664.176
238.986	15.435	875.789	663.430
240.001	15.549	874.920	663.163
241.015	15.461	874.507	662.442
242.030	15.486	873.707	661.880
243.045	15.519	873.101	661.491
244.059	15.641	872.561	661.503
245.074	15.593	871.957	660.798
246.088	15.641	871.187	660.345
247.103	15.649	871.116	660.265
248.117	15.651	870.419	659.686
249.132	15.619	869.846	659.067
250.147	15.764	869.492	659.308
251.161	15.916	869.004	659.475
252.176	16.097	868.419	659.682
253.190	16.050	867.659	658.860
254.205	16.100	867.038	658.526
255.220	16.140	866.480	658.199
256.234	16.093	865.419	657.155
257.249	16.135	864.773	656.768
258.263	16.273	864.177	656.796
259.278	16.090	864.389	656.186
260.293	16.115	863.439	655.502
261.307	16.125	863.330	655.402
262.322	16.267	861.985	654.872
263.336	16.273	861.853	654.741
264.351	16.460	860.855	654.646
265.366	16.318	860.622	653.862
266.380	16.252	860.031	653.099
267.395	16.242	859.030	652.245
268.409	16.290	858.014	651.600
269.424	16.235	857.575	650.998
270.439	16.198	857.169	650.487
271.453	16.265	856.025	649.818
272.468	16.331	855.417	649.554
273.482	16.080	854.962	648.185
274.497	16.175	854.437	648.095
275.512	16.280	853.560	647.776
276.526	16.221	852.962	647.040
277.541	16.271	852.590	646.891
278.555	16.146	852.372	646.191
279.570	16.279	851.568	646.031
280.585	16.527	850.836	646.367
281.599	16.454	850.539	645.807
282.614	16.426	849.713	645.017
283.628	16.302	849.080	644.006
284.643	16.414	848.973	644.292
285.657	16.377	848.359	643.631
286.672	16.383	847.984	643.310
287.687	16.488	847.381	643.194
288.701	16.408	846.696	642.317
289.716	16.447	846.045	641.912
290.730	16.547	845.640	641.928
291.745	16.680	844.952	641.852
292.760	16.533	844.126	640.612
293.774	16.535	843.611	640.173
294.789	16.524	843.588	640.058
295.803	16.684	842.863	640.057
296.818	16.590	841.798	638.836
297.833	16.670	840.759	638.293
298.847	16.728	840.534	638.282
299.862	16.548	839.844	637.024
300.876	16.673	839.130	636.896
301.891	16.693	838.829	636.686
302.906	16.694	838.431	636.334
303.920	16.686	837.876	635.826
304.935	16.739	837.000	635.301
305.949	16.816	836.448	635.116
306.964	16.919	835.637	634.830
307.979	16.801	835.308	634.081
308.993	16.811	834.486	633.439
310.008	16.765	834.313	633.080
311.022	16.902	833.828	633.167
312.037	16.733	833.269	632.056
313.052	16.935	832.526	632.190
314.066	16.647	832.386	630.954
315.081	16.613	831.473	630.079
316.095	16.554	830.929	629.391
317.110	16.622	830.538	629.292
318.125	16.686	829.932	629.015
319.139	16.704	829.030	628.345
320.154	16.787	828.558	628.239
321.168	16.721	828.285	627.731
322.183	16.777	827.757	627.484
323.197	16.907	826.882	627.247
324.212	16.903	826.056	626.549
325.227	16.970	826.031	626.722
326.241	16.811	825.413	625.610
327.256	16.881	824.925	625.444
328.270	16.913	824.170	624.934
329.285	16.969	823.599	624.649
330.300	16.900	823.308	624.120
331.314	16.869	822.560	623.384
332.329	16.674	822.341	622.446
333.343	16.838	821.393	622.275
334.358	16.986	820.835	622.340
335.373	16.996	820.419	622.007
336.387	17.029	820.023	621.772
337.402	17.068	819.566	621.514
338.416	17.143	818.733	621.101
339.431	17.210	818.213	620.898
340.446	17.371	817.607	620.971
341.460	17.311	817.213	620.399
342.475	17.548	816.335	620.539
343.489	17.379	816.108	619.696
344.504	17.450	815.600	619.514
345.519	17.510	815.229	619.395
346.533	17.389	814.949	618.689
347.548	17.435	814.109	618.163
348.562	17.399	813.690	617.661
349.577	17.280	813.131	616.748
350.592	17.250	812.564	616.155
351.606	17.238	812.133	615.729
352.621	17.180	811.888	615.280
353.635	17.216	811.271	614.889
354.650	17.257	810.920	614.718
355.665	17.509	810.130	614.973
356.679	17.569	809.699	614.809
357.694	17.403	809.441	613.959
358.708	17.462	809.204	613.939
359.723	17.334	808.605	612.968
360.738	17.432	808.192	612.952
361.752	17.439	807.139	612.126
362.767	17.309	807.538	611.907
363.781	17.604	806.765	612.326
364.796	17.566	806.342	611.816
365.810	17.557	805.778	611.302
366.825	17.773	805.480	611.796
367.840	17.623	805.210	611.000
368.854	17.850	804.466	611.192
369.869	17.737	804.265	610.582
370.883	17.645	803.515	609.631
371.898	17.708	802.910	609.340
372.913	17.703	802.308	608.814
373.927	17.684	801.670	608.207
374.942	17.789	801.075	608.077
375.956	17.759	800.666	607.605
376.971	17.792	799.977	607.146
377.986	17.937	799.364	607.144
379.000	18.018	799.393	607.398
380.015	17.954	798.836	606.693
381.029	18.067	797.965	606.379
382.044	17.861	797.635	605.345
383.059	17.932	796.963	605.034
384.073	18.000	796.482	604.855
385.088	17.969	795.981	604.310
386.102	17.855	795.335	603.365
387.117	17.887	794.677	602.924
388.132	17.980	794.068	602.738
389.146	17.968	793.617	602.299
390.161	18.102	793.043	602.284
391.175	17.967	793.258	601.917
392.190	17.999	793.110	601.866
393.205	17.991	792.513	601.331
394.219	18.056	791.558	600.780
395.234	17.972	791.334	600.264
396.248	18.029	790.593	599.846
397.263	17.972	790.135	599.246
398.278	17.962	789.386	598.589
399.292	17.831	789.261	597.985
400.307	17.848	788.934	597.741
401.321	17.909	788.541	597.606
402.336	17.850	788.426	597.260
403.350	17.870	788.004	596.958
404.365	18.000	787.639	597.080
405.380	18.043	787.291	596.916
406.394	18.167	786.664	596.820
407.409	18.204	786.464	596.745
408.423	18.328	785.661	596.514
409.438	18.342	785.348	596.273
410.453	18.326	784.862	595.795
411.467	18.419	784.412	595.723
412.482	18.415	784.189	595.488
413.496	18.532	783.540	595.349
414.511	18.499	782.919	594.708
415.526	18.525	782.861	594.703
416.540	18.435	782.854	594.333
417.555	18.363	782.124	593.478
418.569	18.435	781.578	593.258
419.584	18.520	781.065	593.110
420.599	18.339	780.911	592.317
421.613	156.390	1369.695	1795.360
422.628	134.984	1455.452	1795.445
