DTS Sentinel unit serial number:	SN413079Multiplexer serial number:	ORYXHardware model number:	OX4-SRSoftware version number:	ORYX F/W v4.00 Oryx Data Collector v3.7.2.0data status	okinstallation	princeton_trtdifferential loss correction	single-endedforward channel	channel 3reverse channel	N/Adate	2019/09/12time	19:48:04forward acquisition time	15.00reverse acquisition time	0.00gamma	496.2192k internal	0.2322k external	0.2322temperature offset calibration	1.0116default loss term (dB/km)	0.3790temperature slope calibration	1.0000multiplexer offset coefficient	1.0000multiplexer slope coefficient	1.0000fibre end	0.00T internal ref (°C)	31.94T ext. ref 1 (°C)	3.48T ext. ref 2 (°C)	26.49length (m)	temperature (°C)	Stokes	anti-Stokes-747.200	92.989	0.439	-0.502
-746.185	125.633	0.584	-0.745
-745.171	676.905	0.099	-0.261
-744.156	163.615	-0.247	0.351
-743.142	67.767	-0.579	0.598
-742.127	-43.393	0.363	-0.186
-741.112	-8.975	0.736	-0.498
-740.098	168.185	-0.250	0.360
-739.083	-56.958	-0.198	0.088
-738.069	-200.000	-0.029	0.301
-737.054	-54.370	0.445	0.204
-736.039	125.648	-0.373	0.476
-735.025	666.860	0.182	0.474
-734.010	761.337	-0.122	0.334
-732.996	369.890	-0.450	0.920
-731.981	-22.468	0.543	0.332
-730.966	149.956	-0.252	-0.346
-729.952	-55.022	-0.581	-0.264
-728.937	-200.000	0.073	-0.943
-727.923	-30.961	0.627	-0.357
-726.908	105.520	0.477	-0.569
-725.894	-26.015	-0.625	0.371
-724.879	40.218	-0.611	-0.554
-723.864	-6.027	0.080	0.055
-722.850	-84.064	0.352	-0.113
-721.835	0.428	-0.318	0.229
-720.821	177.875	0.630	0.927
-719.806	47.742	-0.385	0.363
-718.791	-124.392	-0.354	0.056
-717.777	47.846	0.237	-0.224
-716.762	-0.350	0.787	-0.564
-715.748	-200.000	0.138	-1.606
-714.733	264.734	0.145	-0.256
-713.718	800.000	0.130	-0.408
-712.704	-200.000	-0.020	-0.778
-711.689	-164.090	0.510	0.024
-710.675	-200.000	0.025	-0.421
-709.660	227.970	-0.581	-0.955
-708.645	-96.890	0.328	0.087
-707.631	190.458	0.502	0.761
-706.616	-126.580	0.583	0.087
-705.602	-12.386	-0.568	0.374
-704.587	-128.948	-0.435	-0.062
-703.572	-129.638	0.658	0.092
-702.558	800.000	-0.127	-0.499
-701.543	800.000	-0.289	1.001
-700.529	-107.335	-0.114	-0.025
-699.514	-146.759	0.777	-0.068
-698.499	800.000	0.153	-0.490
-697.485	-199.666	-0.678	0.003
-696.470	42.358	0.516	0.473
-695.456	-58.593	0.630	0.275
-694.441	-200.000	-0.152	0.708
-693.426	-15.556	0.620	0.399
-692.412	75.312	0.527	0.561
-691.397	-140.822	-0.564	-0.059
-690.383	-200.000	0.023	-0.334
-689.368	132.206	-0.506	0.658
-688.354	309.886	0.350	0.660
-687.339	-156.141	0.092	-0.006
-686.324	-200.000	-0.077	0.364
-685.310	800.000	0.282	-0.937
-684.295	192.706	0.397	0.604
-683.281	206.903	-0.236	-0.371
-682.266	445.100	-0.309	0.684
-681.251	52.173	-0.386	-0.371
-680.237	78.842	0.684	-0.737
-679.222	-185.670	-0.371	0.006
-678.208	-136.910	-0.206	-0.024
-677.193	367.577	0.189	-0.384
-676.178	-115.630	0.165	0.031
-675.164	208.993	-0.024	-0.039
-674.149	-184.676	-0.754	-0.012
-673.135	-200.000	0.034	0.521
-672.120	59.992	-0.361	-0.360
-671.105	800.000	-0.209	0.665
-670.091	-200.000	-0.070	0.904
-669.076	-200.000	-0.029	-0.267
-668.062	800.000	0.303	-1.181
-667.047	-101.317	-0.186	-0.046
-666.032	73.226	0.120	-0.126
-665.018	800.000	0.190	0.563
-664.003	569.462	-0.186	0.456
-662.989	-60.484	0.504	0.216
-661.974	-200.000	0.125	-0.572
-660.959	210.251	0.399	0.630
-659.945	800.000	0.143	-0.525
-658.930	-75.907	-0.566	0.202
-657.916	0.597	0.319	-0.230
-656.901	-88.457	0.685	-0.206
-655.886	-200.000	0.008	-0.439
-654.872	788.955	-0.192	-0.530
-653.857	39.671	0.421	0.380
-652.843	102.561	-0.524	-0.617
-651.828	-62.550	-0.342	-0.143
-650.814	-151.239	0.278	0.021
-649.799	41.296	0.126	-0.115
-648.784	-165.600	-0.478	-0.021
-647.770	800.000	0.224	-0.691
-646.755	-114.241	-0.167	-0.032
-645.741	-24.866	0.501	0.299
-644.726	437.207	-0.290	-0.636
-643.711	800.000	0.247	-0.814
-642.697	-200.000	-0.002	0.540
-641.682	-127.924	0.443	0.064
-640.668	107.291	0.232	-0.278
-639.653	-8.599	0.975	0.658
-638.638	-105.825	0.544	0.124
-637.624	-142.578	0.833	0.082
-636.609	76.088	0.360	0.383
-635.595	73.115	-0.897	0.944
-634.580	230.183	0.021	0.035
-633.565	-200.000	-0.155	-1.495
-632.551	106.039	0.308	0.367
-631.536	-60.303	-0.346	0.148
-630.522	272.897	-0.345	-0.613
-629.507	154.533	0.168	-0.232
-628.492	-60.414	-0.810	0.346
-627.478	228.583	-0.096	0.157
-626.463	-13.450	0.454	-0.296
-625.449	-200.000	0.051	-0.368
-624.434	-98.944	-0.787	0.201
-623.419	-44.138	0.200	-0.101
-622.405	-200.000	0.147	-0.651
-621.390	-23.257	0.340	0.206
-620.376	400.254	-0.160	-0.338
-619.361	-93.672	-0.780	0.216
-618.346	-200.000	0.051	-0.461
-617.332	-141.052	-0.506	-0.052
-616.317	77.996	0.664	0.712
-615.303	-135.106	0.321	0.039
-614.288	-28.570	-0.507	0.293
-613.273	-6.132	0.410	0.281
-612.259	-61.548	-0.593	0.250
-611.244	800.000	-0.118	0.400
-610.230	-19.012	1.020	0.637
-609.215	-140.320	-0.354	0.037
-608.201	-200.000	-0.131	-0.879
-607.186	264.615	-0.395	-0.692
-606.171	271.232	0.119	-0.211
-605.157	-9.466	1.218	0.817
-604.142	242.508	0.111	0.187
-603.128	36.926	0.282	0.251
-602.113	-62.721	-1.153	-0.480
-601.098	-200.000	-0.001	-0.533
-600.084	28.655	-0.612	-0.520
-599.069	800.000	0.159	0.479
-598.055	-116.227	0.201	0.038
-597.040	-73.922	0.384	-0.140
-596.025	800.000	-0.112	0.334
-595.011	-169.645	-0.340	0.012
-593.996	174.705	0.704	1.022
-592.982	-8.858	0.507	0.341
-591.967	-54.287	0.054	0.025
-590.952	428.074	-0.185	-0.400
-589.938	233.829	-0.145	-0.240
-588.923	800.000	-0.081	-0.279
-587.909	-200.000	0.017	0.502
-586.894	85.759	0.426	0.470
-585.879	79.772	-0.426	0.460
-584.865	366.999	0.107	-0.216
-583.850	39.911	0.380	-0.343
-582.836	-78.689	0.221	-0.076
-581.821	119.412	-0.214	0.266
-580.806	122.517	0.531	0.667
-579.792	-66.039	0.097	0.039
-578.777	308.348	-0.388	-0.727
-577.763	800.000	-0.058	-0.234
-576.748	-200.000	-0.026	-0.302
-575.733	-200.000	-0.051	0.472
-574.719	-200.000	-0.000	-0.978
-573.704	-200.000	0.058	-0.446
-572.690	3.989	-0.560	0.411
-571.675	-180.378	-0.547	-0.011
-570.661	-200.000	-0.001	-1.327
-569.646	-200.000	-0.019	-0.250
-568.631	-200.000	0.081	-0.465
-567.617	406.307	0.222	0.471
-566.602	-200.000	-0.007	-0.331
-565.588	75.159	0.157	0.166
-564.573	-200.000	0.040	0.373
-563.558	-200.000	0.064	-0.521
-562.544	-182.123	-0.832	-0.016
-561.529	-200.000	0.056	-0.586
-560.515	-200.000	0.268	0.001
-559.500	-32.216	-0.035	0.020
-558.485	124.234	-0.576	-0.726
-557.471	-35.902	0.345	0.187
-556.456	800.000	-0.115	0.448
-555.442	-105.146	0.162	-0.037
-554.427	146.063	0.579	0.779
-553.412	8.160	0.752	0.566
-552.398	-148.279	0.811	-0.067
-551.383	763.481	-0.064	-0.173
-550.369	561.861	-0.359	-0.871
-549.354	-200.000	-0.064	-0.804
-548.339	-36.611	-1.054	0.568
-547.325	18.235	-0.439	-0.352
-546.310	134.865	-0.180	0.234
-545.296	-139.544	0.137	0.015
-544.281	-200.000	0.031	-0.451
-543.266	-200.000	-0.076	-0.584
-542.252	-74.883	-0.240	-0.086
-541.237	91.722	-0.351	0.395
-540.223	-103.217	-0.607	0.144
-539.208	-26.618	0.734	-0.430
-538.193	-200.000	0.036	0.319
-537.179	386.764	0.219	0.453
-536.164	573.953	0.099	0.242
-535.150	800.000	-0.246	-0.748
-534.135	-60.160	0.804	-0.344
-533.121	-80.611	-1.468	-0.489
-532.106	800.000	0.416	-1.175
-531.091	490.408	-0.300	-0.687
-530.077	153.885	-0.560	-0.769
-529.062	-200.000	-0.090	0.439
-528.048	-132.496	0.446	0.057
-527.033	53.107	-0.373	0.357
-526.018	-200.000	-0.014	0.581
-525.004	-200.000	0.094	0.434
-523.989	-37.610	0.459	0.245
-522.975	39.667	-0.216	0.194
-521.960	-39.266	-0.539	0.283
-520.945	-200.000	0.003	-0.039
-519.931	-200.000	0.010	-0.615
-518.916	250.987	0.085	-0.144
-517.902	-89.095	0.176	-0.052
-516.887	-52.851	-0.456	0.211
-515.872	-128.390	-0.421	-0.060
-514.858	-28.046	0.744	-0.431
-513.843	-107.846	-0.942	-0.205
-512.829	38.035	-0.126	-0.112
-511.814	-200.000	-0.045	-0.303
-510.799	-111.426	-0.572	0.117
-509.785	-66.839	-0.438	-0.173
-508.770	-69.905	-0.279	-0.106
-507.756	-75.487	0.183	-0.065
-506.741	208.439	-0.361	-0.565
-505.726	-103.964	0.762	0.178
-504.712	-200.000	0.160	0.758
-503.697	-77.132	-0.194	0.068
-502.683	216.936	-0.091	-0.145
-501.668	155.135	0.508	-0.699
-500.653	-44.934	0.207	-0.103
-499.639	50.050	0.508	-0.480
-498.624	-200.000	0.082	-0.565
-497.610	800.000	-0.269	0.846
-496.595	800.000	0.162	-0.630
-495.581	134.207	-0.667	-0.864
-494.566	132.709	0.028	0.036
-493.551	-166.549	-0.529	0.022
-492.537	-122.121	-0.366	-0.060
-491.522	800.000	0.163	0.634
-490.508	-118.077	-0.765	0.137
-489.493	-51.929	0.470	0.219
-488.478	800.000	0.170	-0.671
-487.464	-120.359	0.278	-0.047
-486.449	227.214	-0.138	0.224
-485.435	-200.000	-0.022	-0.597
-484.420	-18.136	-0.404	-0.253
-483.405	95.571	0.242	0.276
-482.391	-121.110	-0.626	0.105
-481.376	-200.000	-0.030	-0.241
-480.362	-159.568	-0.417	0.023
-479.347	-114.644	-0.337	0.065
-478.332	120.015	0.768	0.952
-477.318	-200.000	0.039	-0.204
-476.303	66.814	0.502	0.511
-475.289	56.563	0.742	0.722
-474.274	800.000	0.136	0.522
-473.259	800.000	0.091	-0.253
-472.245	-99.939	-0.472	-0.118
-471.230	-200.000	-0.017	-0.331
-470.216	-137.048	-0.741	0.085
-469.201	-78.456	1.220	0.418
-468.186	-24.323	1.322	-0.788
-467.172	-23.929	0.406	0.243
-466.157	-200.000	0.031	-0.587
-465.143	-133.555	-0.246	-0.031
-464.128	376.846	-0.135	0.275
-463.113	34.109	-0.636	0.554
-462.099	-63.260	0.419	-0.172
-461.084	-66.400	-0.515	0.205
-460.070	-200.000	-0.085	0.687
-459.055	31.340	-0.452	0.388
-458.040	15.340	-0.397	-0.311
-457.026	-200.000	0.052	-0.644
-456.011	2.971	0.466	0.338
-454.997	52.923	-0.210	-0.201
-453.982	146.381	0.276	0.370
-452.968	499.652	0.286	-0.659
-451.953	126.546	-0.405	-0.512
-450.938	-64.193	-0.290	0.118
-449.924	-62.057	-0.189	-0.079
-448.909	50.629	-0.616	0.582
-447.895	438.399	-0.143	0.312
-446.880	-149.990	0.894	-0.070
-445.865	-62.179	0.346	-0.144
-444.851	44.720	0.629	0.577
-443.836	390.845	-0.138	0.286
-442.822	-200.000	-0.106	0.545
-441.807	393.838	0.139	-0.290
-440.792	800.000	0.213	-0.636
-439.778	323.272	0.431	-0.821
-438.763	-100.628	0.388	-0.096
-437.749	38.833	0.134	0.119
-436.734	232.743	-0.723	1.186
-435.719	743.093	0.209	0.562
-434.705	95.184	-0.423	-0.481
-433.690	-5.423	-0.501	-0.344
-432.676	113.208	0.531	0.643
-431.661	196.890	0.438	0.667
-430.646	-122.997	1.126	0.181
-429.632	20.051	-0.419	-0.337
-428.617	-196.666	0.361	0.002
-427.603	-70.399	0.092	-0.035
-426.588	176.418	-0.297	-0.430
-425.573	-200.000	-0.049	0.266
-424.559	91.486	0.042	-0.047
-423.544	-200.000	-0.043	0.199
-422.530	-135.270	-1.072	0.128
-421.515	9.180	0.425	-0.320
-420.500	62.986	-0.519	-0.518
-419.486	-166.571	0.603	-0.025
-418.471	-52.835	-0.660	-0.303
-417.457	312.950	0.352	0.660
-416.442	-77.001	-0.695	0.242
-415.428	363.775	-0.048	-0.097
-414.413	-152.361	0.883	0.063
-413.398	192.445	0.264	0.397
-412.384	430.509	0.027	-0.058
-411.369	377.511	0.241	0.491
-410.355	800.000	0.168	0.475
-409.340	320.266	-0.226	0.429
-408.325	-200.000	0.017	0.208
-407.311	-135.001	-0.644	-0.077
-406.296	-200.000	0.167	-0.892
-405.282	138.975	-0.196	0.257
-404.267	-124.616	-0.513	-0.079
-403.252	46.858	0.387	-0.359
-402.238	800.000	-0.136	0.396
-401.223	-154.711	0.635	0.042
-400.209	-158.219	-0.392	0.023
-399.194	8.911	-0.389	-0.292
-398.179	692.759	-0.198	0.518
-397.165	-132.590	-0.098	-0.013
-396.150	-119.243	0.373	-0.065
-395.136	-182.516	-0.161	0.003
-394.121	-200.000	0.071	0.573
-393.106	-190.570	-1.101	0.012
-392.092	-200.000	-0.038	0.242
-391.077	202.745	-0.291	-0.447
-390.063	-71.270	0.456	-0.171
-389.048	11.245	-0.591	-0.451
-388.033	800.000	-0.284	-0.823
-387.019	-98.103	0.659	-0.169
-386.004	-200.000	-0.161	0.716
-384.990	-200.000	0.025	0.207
-383.975	576.931	-0.305	0.743
-382.960	82.397	-0.413	-0.447
-381.946	104.222	-0.279	-0.327
-380.931	-166.658	-0.620	0.026
-379.917	-81.105	-0.292	0.096
-378.902	66.704	-0.149	-0.150
-377.888	-77.157	-0.349	-0.121
-376.873	-85.154	0.449	0.140
-375.858	800.000	-0.078	0.260
-374.844	800.000	-0.102	0.372
-373.829	800.000	0.179	-0.551
-372.815	-200.000	0.099	0.653
-371.800	800.000	0.196	-0.623
-370.785	295.955	-0.569	-1.037
-369.771	9.579	0.432	-0.326
-368.756	-122.005	-0.658	-0.108
-367.742	-50.541	0.388	-0.182
-366.727	-163.983	-0.481	0.022
-365.712	323.328	0.184	0.350
-364.698	-123.296	0.685	0.109
-363.683	31.722	-0.156	-0.134
-362.669	107.315	-0.396	0.468
-361.654	572.974	0.063	0.153
-360.639	-103.497	-0.405	0.095
-359.625	-135.884	-0.986	-0.116
-358.610	-6.843	0.231	-0.156
-357.596	-137.348	0.305	-0.034
-356.581	800.000	-0.138	0.496
-355.566	-26.864	0.288	-0.167
-354.552	-92.598	-0.618	0.173
-353.537	-200.000	-0.062	0.324
-352.523	86.563	0.349	0.383
-351.508	297.863	0.458	0.836
-350.493	-100.946	0.304	0.074
-349.479	-26.453	-0.741	0.432
-348.464	-181.866	0.788	0.015
-347.450	19.279	0.615	-0.491
-346.435	800.000	-0.255	-0.851
-345.420	-200.000	0.043	-0.331
-344.406	125.018	-0.844	1.057
-343.391	800.000	-0.216	0.650
-342.377	-75.692	0.251	-0.089
-341.362	36.928	0.240	-0.211
-340.348	-200.000	-0.139	0.672
-339.333	-54.419	0.848	-0.382
-338.318	-200.000	0.130	-0.724
-337.304	456.482	-0.423	0.933
-336.289	92.666	-0.324	0.363
-335.275	170.783	-0.250	-0.356
-334.260	369.452	0.134	-0.269
-333.245	57.251	0.388	0.376
-332.231	503.482	-0.068	0.156
-331.216	361.853	0.177	-0.352
-330.202	-200.000	0.073	-0.470
-329.187	60.793	-0.414	0.408
-328.172	12.031	-0.358	-0.273
-327.158	-75.252	0.459	0.163
-326.143	595.317	0.225	0.552
-325.129	800.000	-0.264	-0.803
-324.114	433.737	-0.243	-0.524
-323.099	-133.061	0.109	0.014
-322.085	-200.000	0.035	0.565
-321.070	-48.831	0.869	-0.414
-320.056	-116.102	-0.622	-0.115
-319.041	288.035	-0.282	0.508
-318.026	800.000	-0.079	0.324
-317.012	-76.193	-0.673	0.236
-315.997	68.894	0.024	-0.024
-314.983	-200.000	0.017	-0.356
-313.968	-136.366	1.330	-0.154
-312.953	-28.164	-0.420	0.241
-311.939	800.000	0.179	0.715
-310.924	-63.060	-0.750	0.307
-309.910	255.379	-0.168	-0.286
-308.895	317.279	-0.716	1.345
-307.880	-164.741	-0.437	0.020
-306.866	29.897	-0.482	0.408
-305.851	-165.463	0.693	-0.030
-304.837	245.069	-0.204	0.340
-303.822	340.375	0.168	-0.326
-302.807	-133.464	0.744	0.093
-301.793	-3.984	0.248	0.171
-300.778	705.715	0.308	0.808
-299.764	-200.000	0.158	-1.102
-298.749	-138.422	0.905	0.099
-297.735	-133.670	0.973	0.121
-296.720	171.469	-0.590	0.841
-295.705	358.078	0.433	-0.857
-294.691	-123.352	0.476	-0.075
-293.676	-14.156	-0.386	-0.247
-292.662	-87.293	-0.062	0.019
-291.647	-16.601	0.231	-0.145
-290.632	77.597	0.609	-0.644
-289.618	-42.485	0.828	-0.419
-288.603	97.785	-0.345	-0.394
-287.589	-153.712	-0.736	0.050
-286.574	-183.171	-0.298	0.005
-285.559	48.862	0.659	0.614
-284.545	320.353	-0.433	-0.815
-283.530	800.000	-0.211	0.581
-282.516	249.101	0.390	-0.655
-281.501	77.047	0.222	-0.234
-280.486	-0.067	-0.511	0.361
-279.472	148.777	0.393	0.527
-278.457	-43.147	-0.486	0.244
-277.443	-16.576	0.637	-0.401
-276.428	131.105	0.427	-0.543
-275.413	356.723	0.216	0.427
-274.399	29.764	0.492	0.415
-273.384	-79.357	0.469	-0.158
-272.370	84.649	-0.789	-0.856
-271.355	145.452	-0.165	0.220
-270.340	-120.952	0.404	0.067
-269.326	-78.441	-0.779	-0.265
-268.311	-200.000	0.061	0.964
-267.297	-200.000	-0.078	0.986
-266.282	-32.772	-0.513	0.283
-265.267	-55.312	-0.314	0.140
-264.253	800.000	0.026	0.085
-263.238	-126.459	0.630	0.093
-262.224	7.307	0.334	0.247
-261.209	800.000	0.232	0.730
-260.195	-89.507	0.401	-0.117
-259.180	-200.000	0.051	0.406
-258.165	800.000	0.076	0.318
-257.151	800.000	0.114	-0.408
-256.136	81.870	0.222	-0.238
-255.122	-58.443	0.151	0.065
-254.107	-108.196	0.992	0.213
-253.092	18.215	0.047	-0.037
-252.078	-61.066	0.759	-0.317
-251.063	516.821	-0.245	0.568
-250.049	284.965	-0.034	-0.061
-249.034	12.657	0.517	-0.396
-248.019	-128.589	0.838	-0.118
-247.005	-79.559	-0.362	0.121
-245.990	-4.174	0.496	0.340
-244.976	32.737	-0.740	0.635
-243.961	-50.921	0.326	0.152
-242.946	25.147	-0.236	-0.194
-241.932	-189.224	-0.427	-0.005
-240.917	-200.000	-0.022	-0.365
-239.903	-200.000	-0.007	-0.426
-238.888	-79.048	1.370	-0.461
-237.873	-114.000	0.722	0.139
-236.859	-62.752	-0.864	0.355
-235.844	39.007	-0.021	0.019
-234.830	-200.000	0.021	0.189
-233.815	-103.555	-0.280	-0.065
-232.800	-200.000	-0.110	-0.592
-231.786	199.333	0.307	0.466
-230.771	-200.000	0.034	0.343
-229.757	-149.643	-0.673	-0.053
-228.742	-146.542	0.576	-0.050
-227.727	414.095	0.313	0.660
-226.713	110.313	0.143	-0.170
-225.698	-200.000	0.019	-0.434
-224.684	800.000	0.184	-0.743
-223.669	-54.561	-0.990	0.443
-222.655	43.684	0.145	0.131
-221.640	137.273	0.296	-0.383
-220.625	-34.392	-0.663	-0.360
-219.611	-165.853	0.241	0.010
-218.596	92.176	0.118	-0.131
-217.582	-200.000	0.068	-0.390
-216.567	-51.614	0.916	0.423
-215.552	380.563	-0.387	0.784
-214.538	278.237	0.100	0.177
-213.523	-200.000	0.166	-1.050
-212.509	-74.525	0.701	0.250
-211.494	131.876	-0.531	0.676
-210.479	-200.000	-0.066	0.666
-209.465	-66.890	0.139	0.054
-208.450	164.394	0.435	-0.607
-207.436	-12.386	-0.722	-0.467
-206.421	-154.151	-0.681	0.046
-205.406	-200.000	0.023	-0.459
-204.392	126.412	0.666	0.834
-203.377	-6.942	-0.221	-0.148
-202.363	-200.000	0.181	0.958
-201.348	-196.786	-0.424	-0.003
-200.333	-200.000	0.110	-0.668
-199.319	174.714	-0.229	-0.327
-198.304	-200.000	-0.042	0.321
-197.290	-58.305	0.396	-0.170
-196.275	155.396	0.621	-0.845
-195.260	-34.068	1.225	-0.666
-194.246	-108.643	-0.533	0.113
-193.231	-88.677	-1.449	0.426
-192.217	-200.000	0.008	-0.272
-191.202	-20.062	0.529	-0.323
-190.187	-79.676	0.052	0.017
-189.173	-142.681	-0.892	-0.086
-188.158	-53.539	0.162	0.073
-187.144	10.869	-0.192	0.145
-186.129	73.050	0.197	0.203
-185.114	63.365	0.044	0.044
-184.100	-200.000	0.063	0.457
-183.085	-90.121	-0.817	0.235
-182.071	-91.448	-0.685	0.193
-181.056	-200.000	-0.014	0.473
-180.042	-106.955	0.476	-0.104
-179.027	-136.830	-0.450	0.051
-178.012	-200.000	0.065	-0.284
-176.998	800.000	0.153	0.530
-175.983	709.078	-0.314	-0.820
-174.969	-200.000	-0.105	-1.363
-173.954	-200.000	0.123	0.971
-172.939	472.113	-0.141	0.314
-171.925	102.882	-0.254	-0.294
-170.910	2.964	0.358	0.257
-169.896	-63.019	0.314	-0.128
-168.881	76.574	-0.348	0.365
-167.866	39.380	-0.280	0.248
-166.852	50.937	-0.194	0.182
-165.837	-158.557	-0.422	-0.024
-164.823	-67.910	0.385	-0.149
-163.808	49.944	0.219	-0.204
-162.793	800.000	-0.039	-0.151
-161.779	-39.445	-0.083	0.043
-160.764	-90.817	0.089	-0.025
-159.750	92.528	0.149	-0.166
-158.735	800.000	0.133	0.450
-157.720	76.473	-0.319	-0.334
-156.706	-32.088	0.264	0.146
-155.691	-200.000	0.057	0.344
-154.677	-146.765	-0.766	-0.065
-153.662	376.445	-0.381	-0.767
-152.647	62.993	-0.509	-0.503
-151.633	-56.751	0.462	-0.202
-150.618	-176.342	-1.061	-0.027
-149.604	100.686	-0.635	0.728
-148.589	40.503	0.483	0.430
-147.574	-36.026	0.691	0.368
-146.560	-200.000	0.042	0.750
-145.545	733.376	-0.315	0.832
-144.531	-54.911	-0.165	-0.074
-143.516	-132.698	0.324	-0.041
-142.502	72.861	0.018	-0.018
-141.487	42.161	-0.266	-0.239
-140.472	10.306	-0.203	0.152
-139.458	-158.810	-0.643	-0.036
-138.443	77.334	-0.371	0.389
-137.429	48.307	-0.213	-0.197
-136.414	-118.142	-0.406	-0.072
-135.399	-123.906	0.774	-0.120
-134.385	-200.000	-0.138	-0.845
-133.370	-31.889	0.208	0.115
-132.356	46.919	-0.429	0.394
-131.341	107.817	-0.589	0.692
-130.326	-6.466	0.102	-0.069
-129.312	-200.000	0.095	-0.544
-128.297	-127.095	0.432	0.062
-127.283	6.726	0.263	0.193
-126.268	-153.089	0.419	0.029
-125.253	-46.730	0.411	0.198
-124.239	-120.035	0.372	0.063
-123.224	-200.000	-0.083	1.156
-122.210	-200.000	-0.043	1.166
-121.195	-112.580	0.126	0.025
-120.180	-200.000	-0.045	-0.678
-119.166	462.451	-0.408	0.897
-118.151	772.942	0.078	-0.210
-117.137	-59.743	0.529	-0.223
-116.122	-93.158	-0.958	-0.263
-115.107	98.759	0.454	-0.517
-114.093	402.654	-0.100	-0.208
-113.078	-120.152	-0.454	-0.076
-112.064	-73.220	-0.435	0.157
-111.049	38.318	-0.401	0.352
-110.034	754.336	0.196	0.521
-109.020	-63.856	0.482	-0.194
-108.005	-151.063	-0.248	-0.018
-106.991	-5.664	0.481	0.325
-105.976	-200.000	0.172	1.049
-104.962	36.054	-0.166	-0.144
-103.947	-200.000	-0.005	0.036
-102.932	347.087	-0.419	-0.812
-101.918	800.000	0.119	0.391
-100.903	-200.000	0.107	1.063
-99.889	-33.533	0.554	-0.302
-98.874	-200.000	0.101	-0.631
-97.859	86.571	0.747	0.811
-96.845	191.187	0.218	-0.323
-95.830	-200.000	-0.016	-0.145
-94.816	-170.987	-0.546	0.018
-93.801	-99.735	-1.179	0.291
-92.786	-30.244	-0.057	-0.032
-91.772	-116.443	0.688	0.125
-90.757	-114.254	-0.484	0.092
-89.743	-41.703	-0.618	-0.312
-88.728	-59.390	-0.327	0.138
-87.713	-109.377	-0.554	-0.115
-86.699	-74.809	-0.544	-0.192
-85.684	-62.648	0.539	0.220
-84.670	30.035	-0.522	0.438
-83.655	33.309	-0.554	-0.473
-82.640	-59.133	0.660	0.280
-81.626	-177.154	0.484	-0.012
-80.611	-86.838	0.416	-0.125
-79.597	-160.044	1.118	-0.060
-78.582	58.985	-0.239	0.232
-77.567	-158.279	1.074	0.062
-76.553	491.817	-0.220	0.495
-75.538	-55.935	-0.461	0.202
-74.524	422.105	-0.413	-0.872
-73.509	-200.000	0.118	0.948
-72.494	151.176	0.184	0.247
-71.480	211.814	-0.378	-0.586
-70.465	800.000	-0.114	-0.480
-69.451	800.000	-0.114	0.311
-68.436	-38.791	0.667	-0.346
-67.422	18.451	-0.890	-0.700
-66.407	-11.502	0.437	-0.283
-65.392	34.162	0.531	-0.456
-64.378	-69.803	0.481	-0.181
-63.363	-172.419	-0.494	-0.015
-62.349	309.841	-0.213	0.392
-61.334	-200.000	-0.240	-1.865
-60.319	-121.208	1.302	0.214
-59.305	164.132	-0.626	-0.868
-58.290	-200.000	0.173	1.621
-57.276	679.438	0.582	1.490
-56.261	-200.000	96.586	611.550
-55.246	660.145	1363.519	3451.914
-54.232	203.452	2525.529	3841.240
-53.217	119.036	2138.328	2599.259
-52.203	42.918	1687.821	1512.691
-51.188	35.101	1505.098	1296.225
-50.173	32.913	1476.850	1257.290
-49.159	53.652	1530.211	1443.835
-48.144	54.127	1545.696	1461.604
-47.130	35.452	1505.213	1298.490
-46.115	32.261	1490.751	1264.541
-45.100	32.066	1487.626	1260.530
-44.086	31.872	1485.351	1257.253
-43.071	32.273	1482.150	1257.174
-42.057	32.000	1482.117	1255.273
-41.042	31.869	1481.232	1253.597
-40.027	32.028	1479.765	1253.368
-39.013	31.846	1478.236	1250.809
-37.998	31.985	1476.567	1250.275
-36.984	31.895	1474.292	1247.697
-35.969	31.948	1473.733	1247.526
-34.954	31.940	1473.116	1246.903
-33.940	31.763	1471.198	1244.056
-32.925	32.152	1468.538	1244.335
-31.911	31.961	1467.928	1242.503
-30.896	32.113	1466.237	1242.027
-29.881	32.089	1465.935	1241.563
-28.867	32.007	1464.175	1239.482
-27.852	31.833	1463.641	1237.831
-26.838	31.909	1461.769	1236.703
-25.823	31.854	1460.490	1235.208
-24.809	31.983	1458.441	1234.275
-23.794	31.875	1457.127	1232.404
-22.779	31.771	1456.934	1231.504
-21.765	32.038	1454.038	1230.763
-20.750	32.149	1453.100	1230.645
-19.736	32.130	1451.868	1229.432
-18.721	31.840	1452.373	1227.906
-17.706	31.886	1450.936	1226.949
-16.692	31.895	1449.382	1225.640
-15.677	31.997	1447.647	1224.790
-14.663	31.805	1446.959	1222.910
-13.648	31.736	1446.547	1222.064
-12.633	31.889	1445.199	1221.872
-11.619	31.808	1445.224	1221.316
-10.604	32.000	1443.649	1221.186
-9.590	32.142	1442.472	1221.068
-8.575	31.998	1442.100	1219.770
-7.560	31.875	1442.126	1218.938
-6.546	32.012	1440.703	1218.579
-5.531	31.978	1439.108	1216.958
-4.517	31.989	1438.010	1216.053
-3.502	32.078	1437.138	1215.844
-2.487	32.023	1435.715	1214.240
-1.473	31.927	1434.618	1212.642
-0.458	31.882	1433.719	1211.543
0.556	33.189	1424.728	1200.216
1.571	29.997	1399.644	1159.042
2.586	26.284	1341.376	1088.374
3.600	24.647	1261.542	1014.227
4.615	23.321	1215.511	969.875
5.629	20.189	1159.560	908.766
6.644	11.474	1075.274	800.100
7.659	4.772	1035.492	738.712
8.673	3.788	1028.606	729.092
9.688	3.582	1026.214	726.362
10.702	3.253	1024.719	723.693
11.717	3.299	1022.719	722.436
12.731	6.412	1026.027	739.339
13.746	15.121	1038.149	789.212
14.761	22.509	1046.664	830.587
15.775	24.264	1048.724	840.429
16.790	24.260	1047.702	839.519
17.804	23.683	1045.319	834.821
18.819	23.265	1045.964	833.295
19.834	23.417	1043.952	832.331
20.848	23.176	1044.206	831.327
21.863	23.436	1044.137	832.422
22.877	23.531	1042.283	831.315
23.892	23.281	1042.782	830.467
24.907	23.227	1042.687	830.065
25.921	23.037	1040.864	827.651
26.936	23.165	1039.504	827.092
27.950	23.172	1039.061	826.700
28.965	22.988	1038.140	825.036
29.980	22.941	1036.393	823.357
30.994	23.040	1035.982	823.419
32.009	23.302	1033.812	822.838
33.023	23.119	1035.184	823.005
34.038	23.177	1033.097	821.544
35.053	23.430	1031.857	821.659
36.067	23.161	1031.315	819.905
37.082	22.863	1030.818	818.058
38.096	22.960	1028.956	816.959
39.111	22.982	1029.004	817.027
40.126	23.104	1028.421	817.053
41.140	23.260	1026.870	816.468
42.155	22.718	1025.819	813.065
43.169	22.529	1024.508	811.081
44.184	22.593	1023.548	810.544
45.199	22.319	1023.066	808.832
46.213	22.244	1021.425	807.116
47.228	22.352	1021.487	807.592
48.242	22.817	1021.637	809.770
49.257	23.218	1020.497	810.635
50.271	23.413	1019.183	810.409
51.286	23.002	1020.339	809.375
52.301	23.071	1017.761	807.576
53.315	23.641	1017.634	810.004
54.330	23.430	1015.372	807.173
55.344	23.052	1015.558	805.527
56.359	22.955	1014.959	804.538
57.374	22.712	1014.204	802.762
58.388	23.069	1012.968	803.337
59.403	22.744	1012.563	801.465
60.417	22.486	1011.564	799.433
61.432	22.616	1011.324	799.765
62.447	22.679	1009.739	798.727
63.461	22.717	1009.346	798.514
64.476	22.568	1007.853	796.588
65.490	22.341	1007.924	795.549
66.505	22.375	1007.441	795.250
67.520	22.425	1006.245	794.463
68.534	22.284	1005.766	793.377
69.549	22.790	1004.155	794.317
70.563	22.565	1002.388	791.838
71.578	22.055	1003.239	790.148
72.593	22.072	1001.496	788.779
73.607	21.977	999.831	786.972
74.622	21.794	999.255	785.629
75.636	22.097	998.503	786.325
76.651	22.089	997.467	785.403
77.666	22.178	997.256	785.564
78.680	22.218	996.993	785.468
79.695	22.397	995.996	785.412
80.709	21.931	995.657	782.998
81.724	22.365	994.718	784.122
82.739	22.339	994.555	783.810
83.753	22.306	994.316	783.405
84.768	22.690	993.445	784.357
85.782	23.652	992.754	788.013
86.797	23.426	992.682	786.881
87.812	23.764	990.976	786.957
88.826	23.550	990.507	785.569
89.841	23.831	988.850	785.429
90.855	23.552	989.385	784.549
91.870	23.770	987.839	784.216
92.884	23.617	987.827	783.461
93.899	23.861	985.750	782.822
94.914	23.451	985.584	780.816
95.928	23.182	985.058	779.145
96.943	23.491	984.213	779.767
97.957	23.546	982.470	778.556
98.972	23.288	982.398	777.298
99.987	23.452	981.121	776.937
101.001	23.064	981.929	775.808
102.016	23.344	980.349	775.716
103.030	23.069	979.729	773.954
104.045	23.049	978.967	773.198
105.060	23.409	978.203	774.096
106.074	23.342	976.707	772.551
107.089	22.978	976.843	771.003
108.103	22.785	974.969	768.617
109.118	22.690	973.704	767.136
110.133	22.652	972.872	766.250
111.147	22.567	971.071	764.394
112.162	22.318	969.359	761.899
113.176	22.128	969.237	760.913
114.191	22.264	969.116	761.340
115.206	22.704	968.265	762.510
116.220	22.511	966.970	760.589
117.235	22.365	967.126	760.011
118.249	22.354	964.963	758.196
119.264	22.390	963.525	757.157
120.279	22.115	964.154	756.400
121.293	21.996	963.962	755.671
122.308	21.874	962.555	753.975
123.322	22.120	960.857	753.635
124.337	21.803	960.174	751.673
125.352	21.918	958.537	750.815
126.366	21.977	957.242	749.990
127.381	21.571	957.925	748.721
128.395	22.163	956.450	750.028
129.410	22.163	956.605	750.087
130.424	22.200	955.209	749.083
131.439	22.470	954.047	749.251
132.454	22.436	953.998	749.003
133.468	22.561	953.423	749.015
134.483	22.670	951.549	747.941
135.497	22.401	951.579	746.757
136.512	22.388	951.989	746.956
137.527	22.661	950.209	746.651
138.541	22.498	949.767	745.546
139.556	22.623	948.671	745.151
140.570	22.703	948.588	745.354
141.585	22.813	947.014	744.517
142.600	23.048	947.071	745.487
143.614	23.404	946.469	746.448
144.629	23.455	945.713	746.001
145.643	23.533	945.573	746.152
146.658	23.519	944.413	745.112
147.673	23.154	942.395	741.923
148.687	22.947	942.245	740.874
149.702	22.700	940.897	738.714
150.716	22.668	939.722	737.588
151.731	23.052	938.005	737.779
152.746	23.048	937.407	737.226
153.760	22.915	937.961	737.045
154.775	22.948	937.228	736.539
155.789	23.251	936.130	736.873
156.804	23.471	935.287	737.059
157.819	23.281	934.448	735.545
158.833	23.019	934.590	734.502
159.848	23.408	932.240	734.201
160.862	23.412	932.829	734.618
161.877	23.451	931.518	733.680
162.892	23.292	930.444	732.113
163.906	22.863	928.919	729.076
164.921	23.021	927.713	728.716
165.935	22.473	926.867	725.734
166.950	22.292	927.933	725.754
167.964	22.577	925.679	725.099
168.979	22.846	924.730	725.398
169.994	22.671	924.172	724.177
171.008	22.709	922.429	722.904
172.023	22.439	922.365	721.682
173.037	23.399	921.745	725.063
174.052	23.634	920.534	725.007
175.067	23.328	920.639	723.777
176.081	23.048	919.308	721.522
177.096	22.543	918.338	718.640
178.110	22.451	917.088	717.222
179.125	22.310	917.196	716.670
180.140	22.372	916.398	716.236
181.154	22.513	914.589	715.331
182.169	23.105	914.972	717.968
183.183	23.019	914.552	717.226
184.198	23.476	914.090	718.653
185.213	23.286	912.922	716.904
186.227	23.235	912.368	716.200
187.242	23.020	912.272	715.191
188.256	23.038	912.528	715.402
189.271	22.920	911.304	713.902
190.286	23.640	910.222	715.894
191.300	23.365	909.722	714.331
192.315	22.559	908.187	709.818
193.329	22.291	907.101	707.826
194.344	22.267	905.614	706.506
195.359	22.543	906.617	708.336
196.373	22.824	906.301	709.158
197.388	22.862	905.214	708.395
198.402	23.358	904.917	710.089
199.417	23.692	904.904	711.356
200.432	23.761	905.262	711.849
201.446	23.924	904.390	711.751
202.461	23.795	904.498	711.257
203.475	23.708	903.967	710.429
204.490	23.769	902.910	709.779
205.504	23.157	902.120	706.651
206.519	22.865	900.761	704.360
207.534	23.144	900.977	705.581
208.548	22.912	899.142	703.159
209.563	23.211	898.836	704.045
210.577	22.899	899.427	703.205
211.592	23.337	897.373	703.274
212.607	23.527	897.705	704.230
213.621	23.789	896.454	704.224
214.636	23.523	896.601	703.221
215.650	23.539	896.053	702.792
216.665	23.901	894.207	702.714
217.680	23.150	894.466	699.884
218.694	23.578	894.069	701.204
219.709	23.451	893.302	700.039
220.723	23.451	892.365	699.242
221.738	23.322	892.215	698.557
222.753	23.021	891.396	696.664
223.767	22.946	890.894	695.916
224.782	23.508	890.443	697.716
225.796	23.340	890.558	697.081
226.811	23.413	889.284	696.309
227.826	23.530	888.011	695.711
228.840	23.131	886.759	693.104
229.855	22.779	887.064	691.902
230.869	22.983	886.369	692.099
231.884	23.008	885.240	691.253
232.899	23.178	884.025	690.905
233.913	23.076	884.646	690.931
234.928	23.412	882.634	690.609
235.942	22.876	882.664	688.484
236.957	22.806	881.519	687.257
237.972	22.543	881.256	685.966
238.986	22.582	880.530	685.492
240.001	22.573	879.699	684.749
241.015	22.863	878.991	685.265
242.030	22.796	878.902	684.874
243.045	22.799	877.634	683.838
244.059	22.876	877.161	683.707
245.074	23.224	876.583	684.543
246.088	23.427	876.531	685.225
247.103	23.276	876.458	684.522
248.117	23.526	876.200	685.226
249.132	23.957	875.851	686.558
250.147	24.365	875.801	688.031
251.161	24.493	874.505	687.444
252.176	24.809	874.929	688.933
253.190	24.601	873.898	687.262
254.205	24.947	873.282	688.046
255.220	24.856	873.158	687.537
256.234	24.575	871.773	685.310
257.249	24.441	871.997	684.911
258.263	24.406	871.248	684.127
259.278	24.299	870.706	683.231
260.293	24.396	869.640	682.705
261.307	24.078	870.761	682.307
262.322	24.549	868.386	682.186
263.336	24.640	868.651	682.680
264.351	24.555	867.765	681.598
265.366	24.148	867.057	679.432
266.380	24.042	866.950	678.882
267.395	24.310	866.073	679.155
268.409	24.397	865.082	678.648
269.424	24.122	865.082	677.542
270.439	24.031	864.953	677.036
271.453	24.050	862.859	675.408
272.468	24.312	861.514	675.289
273.482	23.855	862.246	674.071
274.497	24.244	861.449	674.863
275.512	23.889	861.321	673.356
276.526	23.972	859.989	672.570
277.541	24.077	859.304	672.372
278.555	24.085	858.843	671.980
279.570	24.487	858.377	673.073
280.585	24.426	858.296	672.720
281.599	24.635	857.513	672.834
282.614	24.167	857.666	671.133
283.628	24.028	856.524	669.655
284.643	23.713	855.148	667.339
285.657	23.879	855.858	668.455
286.672	24.169	854.060	668.080
287.687	23.977	853.421	666.803
288.701	24.289	853.379	667.881
289.716	24.186	853.091	667.208
290.730	23.946	853.436	666.521
291.745	24.063	852.444	666.124
292.760	24.240	851.160	665.725
293.774	24.251	850.489	665.182
294.789	24.385	851.189	666.169
295.803	24.757	849.738	666.364
296.818	24.654	849.187	665.488
297.833	24.417	848.421	663.947
298.847	23.750	847.653	660.808
299.862	24.172	847.306	662.046
300.876	24.105	846.763	661.315
301.891	24.248	846.886	661.884
302.906	24.523	845.797	661.995
303.920	24.599	845.359	661.873
304.935	24.752	844.622	661.803
305.949	24.879	844.785	662.345
306.964	24.808	844.096	661.481
307.979	24.463	842.763	659.105
308.993	24.107	842.739	657.712
310.008	24.437	841.923	658.236
311.022	24.591	841.553	658.457
312.037	24.623	841.357	658.361
313.052	24.719	840.127	657.695
314.066	24.221	839.416	655.248
315.081	23.876	838.447	653.167
316.095	23.792	837.572	652.121
317.110	23.992	837.689	652.888
318.125	24.430	836.097	653.193
319.139	24.179	835.583	651.817
320.154	23.459	835.201	648.825
321.168	23.456	835.089	648.670
322.183	24.025	833.907	649.771
323.197	23.822	834.152	649.163
324.212	23.858	833.670	648.864
325.227	23.969	833.502	649.080
326.241	23.768	832.919	647.835
327.256	23.843	831.464	646.920
328.270	24.030	831.267	647.388
329.285	23.819	830.835	646.228
330.300	23.657	831.018	645.725
331.314	23.656	828.967	644.069
332.329	23.754	828.789	644.229
333.343	23.792	828.833	644.344
334.358	24.589	827.603	646.217
335.373	24.703	827.535	646.517
336.387	24.405	827.863	645.641
337.402	24.330	827.127	644.739
338.416	24.384	827.105	644.857
339.431	25.052	826.259	646.553
340.446	24.990	825.697	645.831
341.460	25.548	824.679	646.988
342.475	25.307	824.523	645.940
343.489	25.050	824.172	644.682
344.504	25.028	823.811	644.265
345.519	25.411	823.169	645.082
346.533	25.597	823.026	645.581
347.548	25.783	821.336	644.864
348.562	25.217	821.055	642.558
349.577	24.560	821.768	640.707
350.592	24.922	820.185	640.708
351.606	24.612	819.788	639.233
352.621	24.189	818.766	636.870
353.635	24.399	818.798	637.589
354.650	24.853	818.551	638.960
355.665	24.701	817.976	637.913
356.679	24.596	817.487	637.100
357.694	24.686	817.288	637.210
358.708	24.784	816.728	637.064
359.723	24.364	816.480	635.321
360.738	24.741	815.301	635.688
361.752	24.683	815.014	635.202
362.767	24.925	814.246	635.406
363.781	24.665	814.205	634.395
364.796	25.017	814.808	636.060
365.810	25.768	813.202	637.407
366.825	25.396	813.717	636.438
367.840	25.356	813.526	636.088
368.854	25.253	812.975	635.239
369.869	25.004	812.528	633.950
370.883	24.940	810.526	632.106
371.898	24.985	810.892	632.497
372.913	25.365	810.007	633.091
373.927	25.241	810.425	632.925
374.942	25.510	808.965	632.675
375.956	25.195	807.131	630.076
376.971	25.205	807.311	630.196
377.986	25.017	807.681	629.770
379.000	25.638	806.434	630.921
380.015	25.224	806.817	629.712
381.029	25.598	805.773	630.152
382.044	25.653	805.128	629.783
383.059	25.588	804.924	629.342
384.073	25.732	804.017	629.078
385.088	25.413	804.248	628.090
386.102	25.413	802.148	626.393
387.117	24.973	801.470	624.274
388.132	24.763	801.500	623.510
389.146	24.787	800.699	622.918
390.161	24.529	800.252	621.616
391.175	25.436	799.674	624.265
392.190	25.631	799.865	625.037
393.205	25.231	800.246	623.887
394.219	25.115	798.741	622.255
395.234	24.524	797.991	619.567
396.248	24.464	796.989	618.528
397.263	24.465	797.152	618.601
398.278	24.537	797.183	618.822
399.292	24.539	796.046	617.892
400.307	24.559	795.292	617.318
401.321	24.445	794.964	616.616
402.336	24.594	794.473	616.695
403.350	24.426	794.849	616.352
404.365	25.008	794.422	617.974
405.380	25.607	794.461	620.015
406.394	25.565	794.468	619.822
407.409	25.920	794.290	620.853
408.423	26.180	793.253	620.881
409.438	25.856	792.735	619.306
410.453	25.597	793.538	618.989
411.467	25.922	792.687	619.387
412.482	25.624	791.396	617.301
413.496	26.053	790.511	618.024
414.511	25.867	790.712	617.491
415.526	25.910	790.464	617.389
416.540	25.831	789.583	616.377
417.555	25.373	789.519	614.706
418.569	25.467	789.955	615.310
419.584	25.962	788.123	615.522
420.599	25.943	788.110	615.390
421.613	161.534	1369.625	1794.246
422.628	139.867	1454.375	1794.362
