DTS Sentinel unit serial number:	SN413079Multiplexer serial number:	ORYXHardware model number:	OX4-SRSoftware version number:	ORYX F/W v4.00 Oryx Data Collector v3.7.2.0data status	okinstallation	princeton_trtdifferential loss correction	single-endedforward channel	channel 3reverse channel	N/Adate	2019/09/15time	05:28:34forward acquisition time	60.00reverse acquisition time	0.00gamma	496.2192k internal	0.2324k external	0.2324temperature offset calibration	0.9980default loss term (dB/km)	0.3790temperature slope calibration	1.0000multiplexer offset coefficient	1.0000multiplexer slope coefficient	1.0000fibre end	0.00T internal ref (°C)	30.56T ext. ref 1 (°C)	4.76T ext. ref 2 (°C)	25.69length (m)	temperature (°C)	Stokes	anti-Stokes-747.200	-70.654	0.242	-0.092
-746.185	-200.000	-0.014	-0.146
-745.171	-200.000	-0.067	0.319
-744.156	-126.164	-0.210	0.032
-743.142	-200.000	-0.029	0.184
-742.127	800.000	-0.113	0.390
-741.112	37.256	-0.152	-0.136
-740.098	-132.893	-0.076	-0.010
-739.083	-61.125	-0.160	0.068
-738.069	56.155	-0.185	0.181
-737.054	-71.728	0.224	0.084
-736.039	228.218	0.036	-0.060
-735.025	77.595	0.165	0.177
-734.010	186.655	-0.062	-0.093
-732.996	55.533	0.189	-0.185
-731.981	-200.000	-0.011	0.207
-730.966	-80.284	-0.144	0.049
-729.952	-43.500	0.029	-0.015
-728.937	-69.668	-0.190	0.073
-727.923	-61.476	-0.195	0.083
-726.908	-200.000	-0.021	-0.279
-725.894	-63.523	-0.231	-0.096
-724.879	-48.524	-0.351	0.170
-723.864	-102.975	0.438	0.105
-722.850	-200.000	-0.017	0.203
-721.835	-15.702	0.228	-0.147
-720.821	-150.094	-0.293	0.023
-719.806	800.000	-0.166	0.482
-718.791	64.137	-0.115	-0.117
-717.777	19.850	-0.099	-0.080
-716.762	-200.000	-0.049	-0.409
-715.748	-113.151	-0.241	0.048
-714.733	-200.000	-0.034	0.417
-713.718	505.162	0.099	-0.230
-712.704	506.281	0.076	-0.178
-711.689	300.214	0.097	-0.180
-710.675	197.112	-0.161	-0.248
-709.660	96.321	-0.152	-0.175
-708.645	-125.168	-0.161	-0.025
-707.631	-78.107	-0.226	0.078
-706.616	19.129	-0.151	0.122
-705.602	-54.934	0.236	0.107
-704.587	-42.420	-0.279	-0.143
-703.572	126.746	-0.080	-0.103
-702.558	114.533	-0.182	-0.223
-701.543	-24.681	-0.215	-0.129
-700.529	30.536	-0.242	0.208
-699.514	132.836	0.171	0.223
-698.499	224.508	-0.093	-0.151
-697.485	459.633	0.103	-0.231
-696.470	381.573	-0.100	0.207
-695.456	99.853	0.029	0.034
-694.441	-25.301	0.158	-0.094
-693.426	162.971	0.064	0.091
-692.412	8.329	-0.302	0.229
-691.397	-41.333	0.355	-0.184
-690.383	132.653	-0.079	0.103
-689.368	23.025	0.320	-0.264
-688.354	-57.328	0.139	-0.061
-687.339	48.111	0.117	0.110
-686.324	315.845	0.137	-0.261
-685.310	800.000	-0.089	0.388
-684.295	-60.235	0.189	-0.081
-683.281	-142.531	-0.233	0.023
-682.266	800.000	0.119	0.438
-681.251	755.482	0.108	-0.294
-680.237	-200.000	-0.061	-0.391
-679.222	98.853	0.030	0.035
-678.208	-13.645	0.203	0.133
-677.193	7.346	-0.291	0.219
-676.178	-169.777	-0.276	0.010
-675.164	77.930	-0.127	0.137
-674.149	800.000	-0.117	-0.449
-673.135	-32.129	-0.196	0.111
-672.120	-30.963	-0.291	0.165
-671.105	53.778	-0.223	0.215
-670.091	-5.133	-0.174	0.121
-669.076	-163.198	-0.216	0.010
-668.062	144.318	0.199	0.267
-667.047	-31.267	0.064	0.036
-666.032	800.000	-0.024	-0.076
-665.018	296.517	-0.067	-0.123
-664.003	-75.560	0.100	-0.036
-662.989	82.538	0.031	-0.034
-661.974	-108.787	-0.290	-0.063
-660.959	2.546	0.068	0.050
-659.945	9.371	0.288	0.219
-658.930	-55.163	-0.332	-0.150
-657.916	108.853	-0.071	-0.086
-656.901	-24.989	0.213	-0.127
-655.886	400.981	0.069	-0.145
-654.872	-200.000	0.035	-0.256
-653.857	-131.026	-0.037	-0.005
-652.843	-154.599	0.417	-0.028
-651.828	34.290	-0.245	-0.215
-650.814	9.835	0.265	-0.202
-649.799	70.583	-0.186	0.194
-648.784	800.000	0.075	-0.231
-647.770	64.099	-0.094	-0.095
-646.755	800.000	-0.008	-0.030
-645.741	800.000	-0.082	-0.264
-644.726	-64.868	-0.164	0.067
-643.711	67.144	-0.223	-0.228
-642.697	74.977	-0.143	0.151
-641.682	-115.101	0.323	0.062
-640.668	-60.621	-0.149	0.064
-639.653	-200.000	0.036	-0.172
-638.638	-200.000	-0.045	0.409
-637.624	-157.236	-0.089	-0.005
-636.609	800.000	-0.077	-0.318
-635.595	-200.000	-0.055	-0.273
-634.580	0.769	0.083	0.060
-633.565	-143.368	-0.150	0.014
-632.551	159.108	-0.053	0.073
-631.536	-13.814	0.138	0.090
-630.522	-200.000	0.038	-0.347
-629.507	-200.000	-0.026	-0.120
-628.492	-13.534	-0.212	0.138
-627.478	158.266	0.082	-0.115
-626.463	253.205	-0.226	-0.387
-625.449	39.144	-0.258	0.232
-624.434	415.915	-0.185	0.395
-623.419	800.000	-0.051	-0.158
-622.405	-64.781	-0.010	-0.004
-621.390	157.405	-0.037	-0.051
-620.376	-82.694	-0.387	0.126
-619.361	87.461	-0.014	-0.015
-618.346	5.411	-0.151	0.112
-617.332	-166.957	-0.107	0.004
-616.317	-200.000	0.004	-0.213
-615.303	17.346	-0.180	0.144
-614.288	-77.363	-0.288	0.100
-613.273	-200.000	-0.006	-0.402
-612.259	-98.737	0.088	-0.023
-611.244	16.008	0.241	0.191
-610.230	-39.682	-0.266	0.139
-609.215	-200.000	0.012	-0.255
-608.201	-150.398	0.072	0.006
-607.186	6.898	0.193	-0.144
-606.171	800.000	-0.072	0.222
-605.157	-145.209	0.389	-0.035
-604.142	701.829	-0.104	-0.275
-603.128	-3.438	-0.099	-0.069
-602.113	-16.568	0.122	-0.078
-601.098	-147.589	-0.064	-0.005
-600.084	-15.157	0.240	-0.154
-599.069	52.579	0.026	0.025
-598.055	59.719	-0.109	-0.108
-597.040	-21.001	-0.174	0.107
-596.025	-60.002	0.383	0.164
-595.011	-163.222	0.390	0.019
-593.996	-37.464	0.152	-0.081
-592.982	99.421	0.151	-0.175
-591.967	-135.296	-0.280	0.034
-590.952	23.980	0.209	-0.173
-589.938	-200.000	-0.048	-0.305
-588.923	59.473	-0.141	-0.140
-587.909	-86.138	0.050	0.015
-586.894	800.000	0.026	-0.109
-585.879	-98.075	-0.190	0.049
-584.865	-200.000	-0.050	0.224
-583.850	-20.395	-0.318	-0.196
-582.836	8.958	-0.136	0.103
-581.821	323.108	-0.072	0.138
-580.806	1.874	-0.207	0.149
-579.792	-45.150	0.370	0.185
-578.777	-52.955	-0.194	0.090
-577.763	800.000	0.044	-0.179
-576.748	332.872	-0.136	0.264
-575.733	-83.308	-0.126	0.040
-574.719	-132.448	0.158	-0.020
-573.704	-133.754	0.098	-0.012
-572.690	20.021	0.241	0.195
-571.675	232.473	-0.078	0.128
-570.661	9.177	0.130	0.098
-569.646	317.063	0.043	0.081
-568.631	-35.460	0.124	0.067
-567.617	277.338	0.135	-0.240
-566.602	-200.000	-0.068	0.349
-565.588	14.426	0.176	0.137
-564.573	-32.050	-0.199	0.112
-563.558	150.719	-0.067	-0.091
-562.544	209.417	-0.234	0.367
-561.529	-127.227	0.366	-0.054
-560.515	1.570	-0.321	-0.231
-559.500	284.444	-0.153	0.276
-558.485	-200.000	-0.028	-0.325
-557.471	-148.042	-0.251	-0.021
-556.456	34.077	0.218	0.190
-555.442	-95.145	0.331	-0.089
-554.427	-57.174	-0.421	0.186
-553.412	86.520	-0.083	0.092
-552.398	43.978	-0.150	-0.137
-551.383	-200.000	0.047	0.258
-550.369	800.000	-0.062	0.252
-549.354	-72.487	0.199	-0.074
-548.339	-200.000	0.021	0.296
-547.325	369.548	-0.092	0.186
-546.310	-200.000	0.006	-0.041
-545.296	-200.000	-0.002	0.122
-544.281	58.226	0.109	-0.107
-543.266	57.140	0.229	-0.223
-542.252	-200.000	0.038	-0.250
-541.237	-0.103	-0.208	-0.148
-540.223	-115.758	-0.377	-0.071
-539.208	-106.157	-0.159	-0.036
-538.193	-200.000	-0.018	-0.208
-537.179	-111.072	-0.253	0.052
-536.164	79.292	0.094	0.101
-535.150	-112.296	0.485	0.097
-534.135	33.415	-0.119	-0.103
-533.121	798.551	-0.080	-0.221
-532.106	566.634	0.105	-0.254
-531.091	113.690	0.067	-0.082
-530.077	351.841	0.072	-0.143
-529.062	-25.829	-0.259	0.153
-528.048	192.377	0.050	-0.076
-527.033	102.989	-0.119	0.140
-526.018	-11.965	-0.214	0.140
-525.004	-136.022	0.091	0.011
-523.989	-140.410	0.032	-0.003
-522.975	-200.000	0.033	0.150
-521.960	800.000	0.035	0.101
-520.945	159.674	-0.117	0.162
-519.931	-94.207	-0.535	0.146
-518.916	98.456	0.026	-0.030
-517.902	210.908	0.151	0.238
-516.887	436.156	0.083	-0.180
-515.872	800.000	-0.075	0.312
-514.858	-135.484	-0.213	-0.025
-513.843	272.395	-0.140	-0.247
-512.829	42.298	0.127	-0.115
-511.814	800.000	0.012	0.037
-510.799	248.707	0.077	-0.131
-509.785	800.000	0.051	-0.161
-508.770	-150.389	-0.284	0.022
-507.756	-138.734	0.122	0.013
-506.741	-127.324	0.338	-0.049
-505.726	-97.375	-0.169	0.044
-504.712	-13.952	0.205	-0.133
-503.697	-111.372	0.235	-0.048
-502.683	13.941	0.323	-0.251
-501.668	77.129	0.110	-0.117
-500.653	-200.000	-0.024	-0.243
-499.639	-200.000	0.020	-0.313
-498.624	6.904	-0.448	-0.334
-497.610	8.009	0.186	0.139
-496.595	800.000	-0.081	0.274
-495.581	-125.681	0.340	-0.052
-494.566	-200.000	0.023	-0.555
-493.551	42.532	-0.194	-0.177
-492.537	-45.008	0.041	0.020
-491.522	59.521	-0.237	0.234
-490.508	333.002	0.020	-0.038
-489.493	-39.104	0.136	-0.072
-488.478	-29.424	0.102	0.058
-487.464	69.150	-0.024	-0.024
-486.449	-14.542	-0.269	-0.173
-485.435	224.327	-0.226	-0.365
-484.420	-12.594	-0.273	-0.178
-483.405	-200.000	-0.049	0.260
-482.391	48.064	0.072	0.067
-481.376	-200.000	-0.042	-0.200
-480.362	-200.000	-0.134	0.000
-479.347	-108.500	0.084	-0.018
-478.332	17.786	-0.056	0.044
-477.318	-59.773	-0.128	0.055
-476.303	-200.000	-0.048	0.213
-475.289	-28.470	0.357	0.205
-474.274	-200.000	0.009	0.384
-473.259	-200.000	0.026	-0.269
-472.245	800.000	0.013	0.041
-471.230	84.612	-0.139	0.152
-470.216	-200.000	-0.048	-0.274
-469.201	86.579	-0.080	0.088
-468.186	1.080	-0.198	-0.142
-467.172	279.129	0.154	-0.274
-466.157	-87.466	0.191	0.058
-465.143	-200.000	-0.073	0.352
-464.128	800.000	-0.055	0.156
-463.113	800.000	-0.094	0.281
-462.099	-200.000	0.010	0.094
-461.084	-81.861	0.198	0.065
-460.070	113.955	-0.111	0.135
-459.055	130.720	-0.028	-0.036
-458.040	800.000	-0.074	-0.271
-457.026	-73.751	0.038	0.014
-456.011	-200.000	-0.016	0.086
-454.997	276.155	-0.113	0.201
-453.982	-68.840	-0.098	0.038
-452.968	-108.036	-0.253	-0.055
-451.953	755.631	-0.034	0.091
-450.938	-106.001	0.257	-0.058
-449.924	-82.655	-0.350	0.113
-448.909	-200.000	-0.017	0.157
-447.895	377.274	0.046	-0.093
-446.880	207.673	-0.045	-0.070
-445.865	-83.916	-0.226	0.072
-444.851	393.294	0.099	-0.205
-443.836	17.852	-0.284	0.226
-442.822	29.066	-0.018	-0.015
-441.807	467.126	-0.065	0.145
-440.792	-119.149	-0.191	-0.033
-439.778	36.891	0.252	-0.222
-438.763	200.916	-0.104	0.160
-437.749	3.112	0.118	-0.085
-436.734	1.725	0.166	-0.119
-435.719	81.018	0.090	0.096
-434.705	-113.273	0.115	0.022
-433.690	-91.075	-0.152	0.043
-432.676	50.591	-0.206	0.194
-431.661	-200.000	-0.033	-0.178
-430.646	800.000	0.052	-0.184
-429.632	800.000	-0.045	-0.161
-428.617	800.000	0.037	-0.143
-427.603	-200.000	0.008	-0.310
-426.588	132.712	0.114	-0.146
-425.573	703.667	-0.091	0.238
-424.559	34.057	-0.116	-0.100
-423.544	-75.690	0.309	-0.109
-422.530	141.481	0.217	0.286
-421.515	-70.160	-0.080	0.030
-420.500	-87.732	-0.058	-0.018
-419.486	-47.533	0.034	-0.017
-418.471	313.059	-0.222	-0.417
-417.457	-92.368	0.306	0.086
-416.442	-154.757	-0.154	-0.010
-415.428	-151.467	0.296	-0.022
-414.413	40.276	0.065	0.058
-413.398	41.764	0.358	-0.323
-412.384	-31.171	0.280	-0.157
-411.369	100.689	-0.233	0.270
-410.355	800.000	-0.006	0.026
-409.340	-107.186	-0.162	-0.036
-408.325	-200.000	-0.000	0.002
-407.311	-89.375	0.145	-0.043
-406.296	-77.227	0.184	0.064
-405.282	562.410	0.043	-0.104
-404.267	368.051	0.157	-0.315
-403.252	-200.000	0.016	0.231
-402.238	713.792	0.127	0.335
-401.223	800.000	0.061	0.218
-400.209	-200.000	-0.038	-0.368
-399.194	-114.387	0.172	-0.033
-398.179	-87.762	0.140	-0.042
-397.165	-115.129	-0.209	-0.040
-396.150	-38.353	0.375	0.198
-395.136	-200.000	0.048	-0.243
-394.121	-200.000	0.013	-0.208
-393.106	110.807	0.021	-0.025
-392.092	-116.798	0.325	0.059
-391.077	-169.468	-0.275	0.010
-390.063	55.574	0.179	-0.173
-389.048	-130.958	0.162	0.022
-388.033	-200.000	0.003	0.312
-387.019	105.867	0.285	0.335
-386.004	-122.882	0.350	-0.056
-384.990	-8.252	0.044	-0.029
-383.975	-97.041	0.103	0.027
-382.960	378.602	-0.049	0.101
-381.946	3.013	0.170	0.123
-380.931	-12.004	-0.178	-0.116
-379.917	-124.632	-0.153	-0.024
-378.902	58.765	0.158	0.155
-377.888	622.485	-0.038	-0.095
-376.873	167.285	0.099	-0.140
-375.858	-166.932	0.202	-0.008
-374.844	800.000	0.062	0.184
-373.829	58.973	0.100	-0.098
-372.815	30.960	-0.204	-0.174
-371.800	-16.783	-0.185	-0.117
-370.785	400.357	-0.045	0.094
-369.771	-187.908	-0.143	-0.002
-368.756	-200.000	0.011	-0.381
-367.742	181.467	-0.069	-0.100
-366.727	379.919	-0.082	-0.167
-365.712	-79.527	0.160	-0.054
-364.698	286.707	-0.165	0.296
-363.683	-20.261	-0.270	-0.166
-362.669	88.538	0.089	0.099
-361.654	616.530	-0.079	0.196
-360.639	198.973	0.326	0.496
-359.625	393.217	-0.018	-0.037
-358.610	-200.000	-0.010	-0.049
-357.596	-85.185	-0.137	0.043
-356.581	-103.677	-0.255	0.060
-355.566	-149.403	0.179	0.014
-354.552	6.680	0.151	-0.112
-353.537	50.949	0.217	-0.204
-352.523	157.959	0.108	-0.149
-351.508	237.852	0.064	-0.105
-350.493	-55.438	-0.206	0.092
-349.479	800.000	0.086	-0.256
-348.464	395.258	0.104	-0.215
-347.450	-200.000	-0.017	0.472
-346.435	-157.226	0.146	0.009
-345.420	97.579	0.054	-0.061
-344.406	50.251	0.089	-0.084
-343.391	585.878	-0.075	0.183
-342.377	-53.800	-0.182	0.083
-341.362	-137.769	-0.356	-0.040
-340.348	-64.013	-0.472	0.192
-339.333	-200.000	0.004	-0.043
-338.318	800.000	0.085	-0.285
-337.304	12.720	0.107	0.082
-336.289	165.291	-0.041	0.057
-335.275	172.650	-0.150	0.215
-334.260	55.000	0.076	0.073
-333.245	-92.278	-0.064	-0.018
-332.231	-148.310	-0.255	0.021
-331.216	-200.000	0.014	-0.104
-330.202	-0.719	-0.212	-0.149
-329.187	-79.835	0.253	0.085
-328.172	-200.000	-0.057	0.287
-327.158	-200.000	-0.004	-0.184
-326.143	354.117	0.120	0.236
-325.129	57.030	0.215	0.208
-324.114	-200.000	0.026	0.215
-323.099	-200.000	0.031	0.258
-322.085	-200.000	0.027	0.242
-321.070	-200.000	-0.042	-0.375
-320.056	-0.822	0.435	-0.306
-319.041	-142.379	-0.375	-0.037
-318.026	0.821	0.293	0.209
-317.012	800.000	0.102	0.319
-315.997	-200.000	-0.049	-0.237
-314.983	800.000	0.022	0.075
-313.968	-7.335	0.051	-0.034
-312.953	-41.154	0.178	0.091
-311.939	-200.000	-0.026	-0.136
-310.924	54.766	-0.253	0.242
-309.910	800.000	-0.108	0.428
-308.895	38.244	-0.114	0.101
-307.880	-154.999	0.288	-0.019
-306.866	-200.000	-0.265	0.001
-305.851	14.837	-0.125	-0.097
-304.837	-200.000	-0.013	0.236
-303.822	-94.762	-0.113	-0.030
-302.807	800.000	0.044	0.135
-301.793	-200.000	0.055	-0.275
-300.778	-13.381	-0.316	0.204
-299.764	32.083	0.338	-0.289
-298.749	-58.972	-0.203	0.087
-297.735	-91.165	0.227	0.065
-296.720	800.000	-0.051	-0.208
-295.705	800.000	-0.069	0.205
-294.691	800.000	-0.056	0.233
-293.676	100.174	0.127	0.146
-292.662	-90.888	-0.107	0.030
-291.647	-125.029	-0.250	0.038
-290.632	655.457	0.035	-0.090
-289.618	94.448	-0.078	0.088
-288.603	-79.249	0.013	0.005
-287.589	462.175	0.047	0.105
-286.574	-126.921	0.090	0.013
-285.559	279.084	-0.072	0.128
-284.545	-32.491	-0.127	0.070
-283.530	-86.724	0.076	0.023
-282.516	800.000	0.011	0.038
-281.501	-9.027	0.227	0.151
-280.486	283.230	0.101	-0.180
-279.472	-122.196	0.219	-0.036
-278.457	-71.014	-0.140	-0.052
-277.443	174.028	0.098	0.140
-276.428	273.784	0.084	-0.147
-275.413	-200.000	-0.005	-0.102
-274.399	15.858	0.162	0.126
-273.384	800.000	0.053	-0.185
-272.370	-138.190	0.094	-0.010
-271.355	198.725	0.101	-0.154
-270.340	298.718	-0.086	0.157
-269.326	-162.634	-0.288	0.014
-268.311	-107.745	0.140	0.030
-267.297	-200.000	0.030	-0.244
-266.282	413.434	0.109	0.230
-265.267	-200.000	0.026	-0.164
-264.253	-200.000	-0.051	0.371
-263.238	-92.569	0.189	0.052
-262.224	25.239	-0.193	0.159
-261.209	-200.000	-0.013	0.177
-260.195	-200.000	-0.012	-0.171
-259.180	-200.000	0.009	0.133
-258.165	72.101	0.103	-0.106
-257.151	633.279	-0.089	-0.223
-256.136	-200.000	-0.009	0.253
-255.122	-200.000	-0.017	-0.149
-254.107	-13.188	-0.136	0.087
-253.092	79.489	-0.117	-0.124
-252.078	-34.262	0.227	-0.123
-251.063	-200.000	-0.002	0.149
-250.049	35.286	0.084	0.073
-249.034	-142.530	-0.277	-0.027
-248.019	-41.966	-0.198	-0.100
-247.005	121.295	0.079	0.098
-245.990	277.319	0.093	-0.163
-244.976	-110.869	0.228	-0.046
-243.961	-200.000	-0.061	-0.296
-242.946	800.000	0.072	-0.206
-241.932	-92.650	-0.093	-0.026
-240.917	-37.893	0.215	-0.113
-239.903	-200.000	0.028	0.499
-238.888	8.679	-0.121	-0.090
-237.873	-2.580	0.150	-0.104
-236.859	-148.751	-0.075	-0.006
-235.844	311.994	0.160	0.297
-234.830	800.000	0.103	0.284
-233.815	-42.750	-0.242	0.122
-232.800	145.282	-0.087	-0.115
-231.786	675.035	-0.057	-0.146
-230.771	364.209	0.150	0.298
-229.757	-54.564	0.446	-0.200
-228.742	-200.000	0.044	-0.486
-227.727	62.854	-0.079	0.078
-226.713	22.440	0.072	-0.058
-225.698	-8.614	-0.216	0.143
-224.684	-200.000	0.061	0.000
-223.669	-109.084	-0.138	-0.029
-222.655	-117.194	0.243	-0.044
-221.640	607.755	0.053	0.131
-220.625	-50.298	-0.191	-0.089
-219.611	1.187	0.135	0.096
-218.596	-86.453	0.241	-0.073
-217.582	70.860	0.108	-0.111
-216.567	284.757	0.078	0.139
-215.552	7.975	-0.063	-0.047
-214.538	7.970	0.165	0.122
-213.523	-80.069	0.128	-0.042
-212.509	-1.217	-0.196	-0.137
-211.494	20.415	-0.037	0.030
-210.479	-164.919	0.015	0.001
-209.465	766.105	-0.024	-0.066
-208.450	-84.571	-0.092	0.029
-207.436	-88.785	0.448	-0.131
-206.421	-111.704	0.200	0.040
-205.406	-91.803	-0.092	0.026
-204.392	-154.504	-0.145	0.010
-203.377	-200.000	-0.021	-0.173
-202.363	388.801	-0.088	-0.180
-201.348	-34.218	-0.141	-0.076
-200.333	247.842	0.108	-0.180
-199.319	-55.742	0.351	0.155
-198.304	-200.000	-0.016	0.132
-197.290	367.131	-0.118	0.236
-196.275	96.688	0.120	-0.135
-195.260	21.570	0.087	0.070
-194.246	-62.768	-0.260	0.107
-193.231	71.453	0.043	-0.045
-192.217	-0.498	0.132	0.093
-191.202	4.649	-0.161	-0.117
-190.187	-10.145	0.190	0.125
-189.173	-40.635	0.042	-0.022
-188.158	-200.000	0.001	-0.114
-187.144	-53.377	-0.092	0.042
-186.129	-69.632	0.415	-0.157
-185.114	23.620	-0.007	-0.006
-184.100	-200.000	0.008	-0.277
-183.085	77.985	-0.080	0.084
-182.071	729.564	-0.073	0.192
-181.056	-102.762	0.166	0.039
-180.042	188.597	-0.090	0.133
-179.027	-200.000	0.010	0.214
-178.012	800.000	-0.012	-0.036
-176.998	101.563	-0.123	0.141
-175.983	-200.000	-0.017	0.131
-174.969	-92.967	-0.210	-0.058
-173.954	378.353	-0.186	0.375
-172.939	-96.039	0.058	-0.015
-171.925	24.517	0.233	0.191
-170.910	-17.226	0.015	-0.009
-169.896	5.667	0.209	0.153
-168.881	-200.000	0.005	0.136
-167.866	-49.121	-0.454	-0.214
-166.852	-135.467	0.221	-0.026
-165.837	-35.141	0.414	0.223
-164.823	18.197	0.217	-0.170
-163.808	-81.022	-0.306	-0.100
-162.793	18.630	0.071	-0.056
-161.779	-64.151	-0.212	0.085
-160.764	457.900	0.078	-0.171
-159.750	178.480	0.161	-0.232
-158.735	-43.111	-0.178	-0.089
-157.720	718.969	0.068	-0.177
-156.706	800.000	-0.192	-0.589
-155.691	-50.841	-0.157	0.073
-154.677	13.422	-0.254	-0.194
-153.662	-200.000	0.071	0.518
-152.647	93.708	0.138	-0.155
-151.633	-200.000	-0.000	0.096
-150.618	-200.000	0.007	0.079
-149.604	-16.722	0.454	-0.283
-148.589	-79.451	0.228	-0.076
-147.574	509.384	-0.046	0.106
-146.560	10.319	0.247	0.185
-145.545	86.026	0.307	-0.333
-144.531	-200.000	0.035	-0.161
-143.516	727.930	0.124	-0.326
-142.502	115.735	0.134	-0.162
-141.487	614.353	-0.066	0.164
-140.472	800.000	-0.105	0.309
-139.458	800.000	0.060	-0.245
-138.443	35.920	-0.059	0.051
-137.429	800.000	0.102	0.362
-136.414	-200.000	0.062	-0.361
-135.399	71.289	0.047	0.048
-134.385	73.066	-0.239	-0.246
-133.370	800.000	-0.054	-0.171
-132.356	-28.392	0.028	0.016
-131.341	11.104	0.063	-0.048
-130.326	789.790	-0.073	0.197
-129.312	223.417	0.074	0.117
-128.297	327.827	-0.078	0.148
-127.283	156.168	-0.125	-0.170
-126.268	124.217	0.094	0.116
-125.253	-200.000	-0.004	-0.036
-124.239	-22.526	0.276	0.164
-123.224	-124.164	-0.185	0.029
-122.210	-20.741	0.230	0.139
-121.195	-10.065	-0.207	0.136
-120.180	13.044	-0.206	-0.157
-119.166	-38.021	-0.072	0.038
-118.151	-122.409	0.485	0.078
-117.137	15.866	-0.216	-0.167
-116.122	374.870	-0.080	0.160
-115.107	-200.000	0.031	-0.179
-114.093	-200.000	-0.021	-0.096
-113.078	-200.000	0.026	0.166
-112.064	153.811	0.103	0.139
-111.049	132.625	-0.148	-0.188
-110.034	-47.619	0.191	0.091
-109.020	-200.000	0.244	0.001
-108.005	-15.904	-0.242	0.152
-106.991	37.377	-0.193	-0.169
-105.976	800.000	0.025	-0.079
-104.962	800.000	-0.026	-0.086
-103.947	-200.000	0.009	-0.256
-102.932	40.341	-0.137	-0.121
-101.918	-101.884	-0.437	-0.104
-100.903	157.655	0.150	0.204
-99.889	-121.770	-0.124	-0.020
-98.874	-200.000	0.027	-0.297
-97.859	-200.000	0.037	-0.165
-96.845	288.627	-0.195	-0.348
-95.830	800.000	-0.019	-0.052
-94.816	-67.253	0.203	0.079
-93.801	-30.800	0.255	-0.142
-92.786	-200.000	0.014	-0.180
-91.772	38.295	-0.402	0.352
-90.757	21.852	0.118	0.095
-89.743	-200.000	0.018	0.235
-88.728	39.829	-0.091	-0.081
-87.713	579.021	0.070	0.168
-86.699	-94.984	0.249	0.066
-85.684	169.726	-0.057	-0.080
-84.670	-9.770	-0.156	0.102
-83.655	-81.510	-0.190	-0.062
-82.640	-65.843	-0.085	-0.033
-81.626	-78.959	0.245	0.082
-80.611	127.637	-0.079	0.099
-79.597	70.610	0.091	0.092
-78.582	-200.000	-0.027	-0.138
-77.567	240.705	0.074	0.121
-76.553	534.724	0.203	0.474
-75.538	667.799	-0.066	0.168
-74.524	-25.864	-0.126	-0.073
-73.509	-61.725	0.381	-0.157
-72.494	286.397	-0.122	0.217
-71.480	-71.366	0.070	0.026
-70.465	-84.951	0.252	0.078
-69.451	800.000	-0.011	-0.046
-68.436	106.016	0.133	-0.155
-67.422	64.958	-0.234	-0.232
-66.407	13.361	-0.080	0.061
-65.392	212.399	-0.057	0.088
-64.378	800.000	-0.059	0.205
-63.363	-200.000	0.005	0.030
-62.349	-200.000	0.345	-0.000
-61.334	62.706	-1.152	-1.132
-60.319	98.775	0.470	0.534
-59.305	800.000	-0.406	-1.118
-58.290	695.789	0.463	1.195
-57.276	800.000	0.440	1.787
-56.261	-200.000	102.677	592.214
-55.246	554.482	1435.528	3393.029
-54.232	187.182	2623.442	3842.965
-53.217	116.019	2167.139	2606.507
-52.203	41.288	1695.785	1506.315
-51.188	33.767	1505.371	1286.405
-50.173	31.397	1477.692	1246.910
-49.159	52.019	1531.836	1433.257
-48.144	52.955	1549.297	1455.900
-47.130	33.872	1506.754	1288.090
-46.115	30.837	1491.283	1254.407
-45.100	30.665	1488.009	1250.452
-44.086	30.691	1486.148	1249.009
-43.071	30.635	1483.842	1246.649
-42.057	30.470	1482.871	1244.675
-41.042	30.517	1481.341	1243.661
-40.027	30.526	1479.548	1242.165
-39.013	30.542	1478.049	1240.961
-37.998	30.512	1476.843	1239.698
-36.984	30.493	1475.268	1238.201
-35.969	30.493	1474.132	1237.197
-34.954	30.519	1473.044	1236.410
-33.940	30.471	1472.107	1235.255
-32.925	30.638	1469.902	1234.469
-31.911	30.680	1468.399	1233.430
-30.896	30.614	1467.524	1232.213
-29.881	30.746	1466.210	1231.933
-28.867	30.614	1464.803	1229.827
-27.852	30.613	1463.823	1228.954
-26.838	30.619	1462.498	1227.827
-25.823	30.619	1460.797	1226.350
-24.809	30.600	1459.278	1224.902
-23.794	30.724	1457.501	1224.178
-22.779	30.657	1456.786	1223.091
-21.765	30.587	1455.725	1221.694
-20.750	30.596	1454.523	1220.694
-19.736	30.600	1453.436	1219.755
-18.721	30.657	1452.049	1218.922
-17.706	30.531	1451.285	1217.405
-16.692	30.486	1450.526	1216.423
-15.677	30.528	1449.318	1215.637
-14.663	30.611	1448.103	1215.111
-13.648	30.545	1447.099	1213.790
-12.633	30.562	1446.394	1213.265
-11.619	30.392	1445.732	1211.549
-10.604	30.583	1444.534	1211.743
-9.590	30.477	1444.141	1210.677
-8.575	30.507	1443.016	1209.876
-7.560	30.514	1442.052	1209.065
-6.546	30.559	1441.052	1208.471
-5.531	30.464	1440.586	1207.418
-4.517	30.546	1439.185	1206.727
-3.502	30.459	1438.564	1205.597
-2.487	30.510	1437.567	1205.045
-1.473	30.516	1436.355	1204.015
-0.458	30.498	1434.951	1202.674
0.556	29.400	1425.964	1192.249
1.571	26.569	1401.055	1153.312
2.586	23.322	1343.126	1085.666
3.600	21.722	1262.637	1011.286
4.615	20.461	1217.555	968.072
5.629	18.116	1161.929	911.277
6.644	10.923	1080.812	811.801
7.659	5.754	1042.015	757.658
8.673	4.792	1037.999	750.038
9.688	4.850	1034.260	747.551
10.702	4.749	1032.819	745.956
11.717	4.640	1031.097	744.125
12.731	6.793	1032.556	755.420
13.746	13.344	1041.852	793.683
14.761	18.348	1047.308	821.841
15.775	18.395	1046.632	821.465
16.790	17.353	1044.593	814.801
17.804	16.369	1042.564	808.440
18.819	15.561	1040.223	802.696
19.834	15.020	1039.355	799.368
20.848	14.782	1037.919	797.062
21.863	14.487	1037.484	795.246
22.877	14.245	1036.862	793.549
23.892	14.178	1035.638	792.223
24.907	14.132	1034.911	791.378
25.921	14.017	1034.377	790.354
26.936	14.096	1033.726	790.161
27.950	14.147	1032.589	789.464
28.965	14.201	1031.435	788.768
29.980	14.124	1030.594	787.691
30.994	14.245	1029.546	787.392
32.009	14.344	1028.322	786.851
33.023	14.440	1027.467	786.582
34.038	14.397	1026.849	785.835
35.053	14.331	1025.651	784.539
36.067	14.315	1024.602	783.591
37.082	14.243	1024.331	782.975
38.096	14.191	1023.554	782.071
39.111	14.254	1022.538	781.517
40.126	14.337	1021.288	780.883
41.140	14.211	1020.274	779.452
42.155	14.033	1019.460	777.928
43.169	14.052	1018.411	777.145
44.184	14.039	1016.930	775.887
45.199	13.905	1016.451	774.828
46.213	13.955	1015.272	774.093
47.228	14.029	1014.448	773.739
48.242	14.029	1013.963	773.299
49.257	14.160	1012.487	772.718
50.271	14.308	1011.227	772.372
51.286	14.145	1010.577	771.051
52.301	14.329	1009.431	770.962
53.315	14.139	1009.331	769.935
54.330	14.085	1008.540	769.016
55.344	14.109	1007.391	768.182
56.359	14.130	1006.421	767.470
57.374	14.149	1005.593	766.859
58.388	13.955	1004.847	765.328
59.403	14.032	1003.933	764.920
60.417	14.022	1003.216	764.259
61.432	14.026	1003.052	764.089
62.447	13.987	1001.865	762.935
63.461	13.939	1000.768	761.811
64.476	13.948	1000.118	761.290
65.490	13.970	999.013	760.485
66.505	13.880	998.142	759.344
67.520	13.894	997.427	758.794
68.534	14.032	996.475	758.631
69.549	13.909	995.907	757.572
70.563	13.960	995.115	757.137
71.578	13.912	994.809	756.618
72.593	13.946	993.062	755.375
73.607	13.808	992.391	754.173
74.622	13.704	991.796	753.181
75.636	13.834	990.593	752.790
76.651	13.795	989.746	751.905
77.666	13.926	989.486	752.233
78.680	13.813	988.750	751.094
79.695	13.870	988.041	750.749
80.709	13.801	987.857	750.231
81.724	13.770	986.923	749.314
82.739	13.989	985.915	749.469
83.753	13.900	985.414	748.622
84.768	14.090	984.790	748.938
85.782	14.332	983.840	749.240
86.797	14.270	983.614	748.719
87.812	14.338	982.185	747.872
88.826	14.302	981.459	747.091
89.841	14.410	980.855	747.050
90.855	14.167	980.052	745.284
91.870	14.316	979.193	745.233
92.884	14.348	978.454	744.745
93.899	14.316	978.219	744.357
94.914	14.197	977.222	743.000
95.928	14.399	976.135	743.012
96.943	14.445	975.431	742.616
97.957	14.366	974.655	741.606
98.972	14.340	973.927	740.873
99.987	14.324	973.160	740.152
101.001	14.349	972.809	739.930
102.016	14.190	972.268	738.746
103.030	14.395	970.826	738.494
104.045	14.278	970.048	737.318
105.060	14.256	969.195	736.509
106.074	14.254	968.380	735.814
107.089	14.118	967.625	734.577
108.103	14.084	966.621	733.598
109.118	13.975	965.826	732.451
110.133	14.025	965.120	732.067
111.147	13.938	963.950	730.735
112.162	14.050	963.010	730.449
113.176	14.047	962.008	729.609
114.191	14.091	961.584	729.417
115.206	14.090	960.555	728.569
116.220	14.165	960.227	728.585
117.235	14.036	958.849	726.909
118.249	13.973	958.469	726.283
119.264	14.028	957.319	725.588
120.279	14.038	956.939	725.280
121.293	14.074	955.598	724.355
122.308	14.086	955.007	723.895
123.322	13.997	954.110	722.762
124.337	13.803	953.475	721.374
125.352	13.871	952.400	720.793
126.366	13.932	951.461	720.282
127.381	13.859	950.478	719.157
128.395	13.909	949.481	718.559
129.410	13.875	948.172	717.356
130.424	14.055	947.206	717.339
131.439	14.024	946.563	716.655
132.454	13.944	946.172	715.950
133.468	14.098	945.142	715.770
134.483	14.084	944.881	715.452
135.497	14.070	943.825	714.525
136.512	14.015	943.352	713.870
137.527	14.221	942.059	713.710
138.541	14.118	941.791	713.004
139.556	13.989	940.846	711.673
140.570	14.106	940.238	711.652
141.585	14.190	939.171	711.139
142.600	14.243	938.812	711.030
143.614	14.296	938.015	710.591
144.629	14.424	937.189	710.449
145.643	14.357	936.499	709.574
146.658	14.373	935.505	708.827
147.673	14.204	934.878	707.570
148.687	14.313	933.828	707.176
149.702	14.285	933.530	706.770
150.716	14.147	932.448	705.302
151.731	14.114	931.478	704.366
152.746	14.212	930.684	704.119
153.760	14.230	929.966	703.590
154.775	14.330	929.083	703.282
155.789	14.181	929.063	702.576
156.804	14.177	928.585	702.135
157.819	14.370	927.215	701.848
158.833	14.263	926.927	701.121
159.848	14.381	926.078	700.911
160.862	14.421	925.438	700.533
161.877	14.521	924.581	700.241
162.892	14.450	923.577	699.122
163.906	14.254	922.748	697.612
164.921	14.168	921.979	696.609
165.935	14.210	921.170	696.110
166.950	14.256	920.054	695.399
167.964	14.301	919.075	694.786
168.979	14.324	918.404	694.314
169.994	14.300	917.302	693.319
171.008	14.326	916.165	692.504
172.023	14.318	915.655	692.027
173.037	14.457	915.016	692.058
174.052	14.514	914.010	691.473
175.067	14.497	913.298	690.801
176.081	14.385	912.415	689.610
177.096	14.266	911.749	688.555
178.110	14.322	911.013	688.168
179.125	14.358	910.104	687.568
180.140	14.402	909.190	686.997
181.154	14.437	908.884	686.853
182.169	14.443	908.238	686.325
183.183	14.526	907.929	686.375
184.198	14.649	906.855	686.009
185.213	14.576	906.349	685.265
186.227	14.734	905.465	685.182
187.242	14.700	905.333	684.883
188.256	14.692	904.750	684.348
189.271	14.718	903.901	683.751
190.286	14.739	903.202	683.248
191.300	14.712	901.927	682.112
192.315	14.422	901.484	680.534
193.329	14.247	900.725	679.186
194.344	14.355	900.205	679.177
195.359	14.413	899.297	678.667
196.373	14.514	898.893	678.714
197.388	14.571	898.881	678.875
198.402	14.831	898.245	679.393
199.417	14.779	897.773	678.765
200.432	14.965	897.159	678.995
201.446	14.828	897.323	678.500
202.461	15.013	896.195	678.338
203.475	15.054	896.117	678.388
204.490	14.993	895.093	677.305
205.504	14.914	894.397	676.398
206.519	15.018	893.200	675.852
207.534	14.776	892.798	674.514
208.548	14.787	891.952	673.856
209.563	14.663	891.625	673.052
210.577	14.788	890.828	672.892
211.592	14.748	890.545	672.460
212.607	14.791	889.508	671.791
213.621	14.996	889.512	672.558
214.636	14.886	888.657	671.408
215.650	14.871	888.350	671.058
216.665	14.985	887.082	670.496
217.680	14.974	886.971	670.311
218.694	15.031	886.345	670.005
219.709	15.064	886.112	669.904
220.723	15.160	885.142	669.494
221.738	15.189	884.661	669.187
222.753	15.164	883.901	668.453
223.767	15.134	883.390	667.888
224.782	15.081	882.723	667.113
225.796	15.153	881.748	666.604
226.811	15.252	881.006	666.376
227.826	15.227	880.433	665.786
228.840	14.982	879.997	664.423
229.855	15.022	879.309	664.003
230.869	15.241	878.271	664.031
231.884	15.099	877.719	662.990
232.899	15.172	876.811	662.537
233.913	15.110	876.834	662.250
234.928	15.012	875.839	661.050
235.942	15.060	875.329	660.798
236.957	15.040	874.611	660.119
237.972	14.996	874.177	659.560
238.986	15.167	872.732	659.083
240.001	15.114	872.387	658.555
241.015	15.095	872.054	658.172
242.030	15.141	871.449	657.838
243.045	15.097	870.696	657.038
244.059	15.105	870.597	656.937
245.074	15.347	869.278	656.830
246.088	15.456	868.739	656.794
247.103	15.289	868.532	655.925
248.117	15.419	868.025	655.993
249.132	15.410	867.321	655.369
250.147	15.549	866.803	655.459
251.161	15.729	865.809	655.354
252.176	15.827	865.368	655.341
253.190	15.764	865.100	654.837
254.205	15.726	864.091	653.867
255.220	15.843	863.811	654.050
256.234	15.759	863.155	653.169
257.249	15.695	862.734	652.547
258.263	15.729	862.055	652.105
259.278	15.752	861.532	651.742
260.293	15.780	860.993	651.384
261.307	15.791	860.429	650.942
262.322	15.921	859.985	651.053
263.336	15.799	859.297	650.004
264.351	15.953	858.444	649.893
265.366	16.016	857.865	649.641
266.380	16.009	857.553	649.320
267.395	15.984	856.632	648.469
268.409	15.941	856.271	647.974
269.424	16.016	855.413	647.556
270.439	15.804	854.773	646.198
271.453	15.853	853.940	645.701
272.468	15.835	852.915	644.798
273.482	15.723	852.820	644.240
274.497	15.881	852.191	644.314
275.512	15.851	851.425	643.563
276.526	15.815	850.661	642.789
277.541	15.942	849.877	642.626
278.555	15.873	849.634	642.123
279.570	15.887	849.184	641.780
280.585	16.010	848.547	641.709
281.599	16.028	848.148	641.417
282.614	16.031	847.187	640.648
283.628	15.987	846.610	639.986
284.643	16.031	846.311	639.872
285.657	16.028	845.610	639.271
286.672	16.075	845.208	639.090
287.687	16.062	844.354	638.338
288.701	16.124	844.251	638.440
289.716	16.015	843.938	637.733
290.730	16.114	843.301	637.572
291.745	16.196	842.272	637.046
292.760	16.112	841.856	636.357
293.774	16.185	841.569	636.360
294.789	16.265	840.841	636.055
295.803	16.281	840.076	635.480
296.818	16.162	839.675	634.674
297.833	16.301	838.560	634.297
298.847	16.242	838.275	633.803
299.862	16.328	837.280	633.316
300.876	16.253	836.935	632.717
301.891	16.465	835.595	632.444
302.906	16.426	835.305	632.020
303.920	16.341	834.502	631.041
304.935	16.588	833.747	631.336
305.949	16.520	833.446	630.797
306.964	16.614	832.841	630.633
307.979	16.501	832.213	629.682
308.993	16.443	831.918	629.189
310.008	16.601	831.550	629.442
311.022	16.540	831.020	628.758
312.037	16.601	830.368	628.435
313.052	16.525	829.812	627.677
314.066	16.427	829.311	626.878
315.081	16.445	828.521	626.293
316.095	16.429	827.952	625.747
317.110	16.471	827.634	625.608
318.125	16.356	826.920	624.588
319.139	16.326	826.674	624.237
320.154	16.436	825.617	623.789
321.168	16.484	825.672	623.950
322.183	16.349	825.519	623.282
323.197	16.535	824.150	622.880
324.212	16.526	824.022	622.694
325.227	16.575	823.306	622.277
326.241	16.689	822.482	622.021
327.256	16.708	821.935	621.622
328.270	16.547	821.715	620.808
329.285	16.512	821.110	620.167
330.300	16.496	820.615	619.682
331.314	16.557	820.012	619.395
332.329	16.799	818.781	619.292
333.343	16.632	818.997	618.790
334.358	16.604	818.506	618.265
335.373	16.822	817.766	618.447
336.387	16.808	817.134	617.863
337.402	16.869	816.470	617.527
338.416	16.861	816.430	617.412
339.431	16.770	815.882	616.612
340.446	16.858	815.335	616.465
341.460	16.871	814.714	615.986
342.475	16.955	814.590	616.145
343.489	17.164	813.538	616.052
344.504	17.037	812.912	615.064
345.519	17.069	812.590	614.882
346.533	17.097	812.147	614.594
347.548	17.117	811.774	614.330
348.562	16.957	811.070	613.166
349.577	17.145	810.163	613.101
350.592	16.945	809.851	612.091
351.606	16.840	809.552	611.431
352.621	16.756	809.010	610.665
353.635	16.831	808.711	610.657
354.650	16.884	808.667	610.758
355.665	16.922	807.789	610.181
356.679	17.000	807.807	610.421
357.694	17.016	806.582	609.498
358.708	17.332	805.878	610.046
359.723	17.175	805.666	609.267
360.738	17.062	805.152	608.421
361.752	17.211	804.568	608.459
362.767	17.113	804.204	607.777
363.781	17.166	803.854	607.650
364.796	17.130	803.917	607.515
365.810	17.363	802.910	607.535
366.825	17.384	802.715	607.406
367.840	17.483	802.360	607.436
368.854	17.481	801.828	606.976
369.869	17.469	801.649	606.743
370.883	17.403	800.760	605.779
371.898	17.390	800.415	605.420
372.913	17.384	799.824	604.899
373.927	17.703	799.176	605.487
374.942	17.492	798.686	604.315
375.956	17.464	797.833	603.516
376.971	17.455	797.512	603.187
377.986	17.498	796.995	602.895
379.000	17.810	796.219	603.358
380.015	17.585	796.127	602.439
381.029	17.476	795.788	601.744
382.044	17.806	794.567	601.932
383.059	17.534	794.191	600.634
384.073	17.757	793.972	601.202
385.088	17.524	793.496	599.969
386.102	17.610	792.719	599.629
387.117	17.562	791.703	598.640
388.132	17.480	791.872	598.426
389.146	17.545	791.586	598.386
390.161	17.495	791.262	597.912
391.175	17.574	790.646	597.671
392.190	17.588	790.295	597.403
393.205	17.630	790.035	597.300
394.219	17.620	789.542	596.841
395.234	17.713	788.735	596.501
396.248	17.609	788.409	595.839
397.263	17.561	787.875	595.216
398.278	17.434	787.492	594.427
399.292	17.560	786.925	594.387
400.307	17.617	786.479	594.198
401.321	17.645	785.953	593.845
402.336	17.572	785.795	593.419
403.350	17.600	785.212	593.023
404.365	17.651	784.920	592.927
405.380	17.797	784.518	593.078
406.394	17.711	784.177	592.469
407.409	18.049	783.329	592.951
408.423	17.910	783.370	592.447
409.438	17.911	782.885	592.029
410.453	18.079	782.292	592.112
411.467	18.136	781.811	591.894
412.482	18.040	781.308	591.129
413.496	18.081	781.173	591.116
414.511	18.259	780.826	591.416
415.526	18.352	780.450	591.398
416.540	18.189	779.757	590.259
417.555	18.077	779.414	589.562
418.569	18.078	779.213	589.360
419.584	18.066	778.771	588.932
420.599	18.212	777.879	588.707
421.613	157.292	1368.755	1795.817
422.628	135.700	1454.883	1795.919
