DTS Sentinel unit serial number:	SN413079Multiplexer serial number:	ORYXHardware model number:	OX4-SRSoftware version number:	ORYX F/W v4.00 Oryx Data Collector v3.7.2.0data status	okinstallation	princeton_trtdifferential loss correction	single-endedforward channel	channel 3reverse channel	N/Adate	2019/09/14time	16:24:34forward acquisition time	60.00reverse acquisition time	0.00gamma	496.2192k internal	0.2295k external	0.2295temperature offset calibration	1.0048default loss term (dB/km)	0.3790temperature slope calibration	1.0000multiplexer offset coefficient	1.0000multiplexer slope coefficient	1.0000fibre end	0.00T internal ref (°C)	38.05T ext. ref 1 (°C)	5.08T ext. ref 2 (°C)	33.08length (m)	temperature (°C)	Stokes	anti-Stokes-747.200	222.177	0.110	-0.180
-746.185	269.839	-0.134	-0.240
-745.171	-200.000	-0.043	0.214
-744.156	165.246	-0.297	0.428
-743.142	518.194	0.075	0.179
-742.127	-200.000	-0.007	0.365
-741.112	124.319	-0.205	0.264
-740.098	-130.520	0.250	-0.034
-739.083	-30.515	0.072	-0.042
-738.069	-200.000	-0.011	-0.297
-737.054	37.788	0.053	0.048
-736.039	-79.616	-0.451	0.155
-735.025	65.397	-0.216	-0.223
-734.010	-45.530	0.141	-0.072
-732.996	273.816	0.063	0.113
-731.981	248.778	0.219	-0.379
-730.966	268.109	-0.036	-0.065
-729.952	8.028	-0.282	-0.216
-728.937	44.540	-0.307	-0.288
-727.923	-96.099	0.105	0.029
-726.908	-3.048	0.154	0.110
-725.894	-200.000	-0.033	0.201
-724.879	63.625	0.106	-0.109
-723.864	-200.000	-0.014	0.391
-722.850	-128.617	0.095	0.014
-721.835	-5.007	-0.338	-0.237
-720.821	-74.692	-0.306	-0.112
-719.806	-6.856	-0.240	-0.166
-718.791	800.000	-0.055	-0.217
-717.777	722.027	-0.147	-0.399
-716.762	12.034	-0.316	-0.248
-715.748	151.947	-0.148	-0.205
-714.733	109.554	0.144	0.176
-713.718	-137.563	-0.115	0.013
-712.704	-180.865	-0.356	-0.007
-711.689	-200.000	-0.070	0.346
-710.675	-103.093	0.385	-0.093
-709.660	21.159	0.231	-0.191
-708.645	-169.524	-0.073	0.003
-707.631	-200.000	0.001	-0.324
-706.616	-200.000	-0.013	-0.136
-705.602	-26.010	-0.337	-0.203
-704.587	292.169	-0.077	-0.143
-703.572	-74.965	-0.101	0.037
-702.558	-200.000	0.009	-0.208
-701.543	213.315	0.135	-0.217
-700.529	56.136	0.220	-0.218
-699.514	-135.403	-0.415	0.051
-698.499	402.744	0.054	0.117
-697.485	-125.146	0.359	-0.056
-696.470	108.064	0.097	-0.119
-695.456	264.794	0.210	0.374
-694.441	-90.449	0.268	-0.079
-693.426	-76.041	-0.301	-0.108
-692.412	435.898	0.081	-0.179
-691.397	-111.584	-0.226	-0.047
-690.383	238.880	-0.215	-0.365
-689.368	800.000	0.078	-0.244
-688.354	-83.146	0.175	-0.057
-687.339	-29.329	0.105	0.061
-686.324	-73.643	-0.438	0.163
-685.310	228.425	-0.040	0.067
-684.295	16.362	0.121	0.097
-683.281	-200.000	-0.041	0.190
-682.266	-83.399	0.104	-0.034
-681.251	-111.414	0.085	-0.018
-680.237	800.000	-0.038	-0.141
-679.222	303.577	-0.204	0.386
-678.208	333.700	0.130	0.256
-677.193	-117.817	-0.251	-0.046
-676.178	-69.944	0.373	-0.145
-675.164	-59.692	-0.182	-0.080
-674.149	114.022	-0.127	0.158
-673.135	294.448	-0.256	-0.476
-672.120	524.558	0.103	0.247
-671.105	-200.000	0.074	0.374
-670.091	-136.541	-0.392	-0.046
-669.076	-158.434	0.325	0.019
-668.062	-39.534	-0.197	-0.105
-667.047	-64.850	-0.136	-0.056
-666.032	125.310	0.192	-0.247
-665.018	495.403	-0.077	-0.181
-664.003	10.411	-0.140	0.109
-662.989	-85.891	-0.260	0.082
-661.974	-66.276	0.205	-0.083
-660.959	-51.293	-0.203	0.097
-659.945	-86.051	-0.150	0.047
-658.930	480.003	0.055	-0.126
-657.916	311.091	-0.068	-0.129
-656.901	-200.000	-0.018	0.420
-655.886	-50.154	-0.107	0.052
-654.872	-29.122	-0.212	-0.124
-653.857	-200.000	0.192	-0.001
-652.843	-104.406	-0.288	-0.068
-651.828	-89.415	-0.108	-0.032
-650.814	-180.866	0.170	-0.004
-649.799	-200.000	0.001	-0.110
-648.784	-137.299	0.232	-0.027
-647.770	37.726	-0.135	-0.122
-646.755	-52.135	-0.349	0.165
-645.741	-35.850	0.310	0.171
-644.726	29.486	0.119	-0.103
-643.711	53.364	-0.198	0.193
-642.697	-169.121	0.162	0.006
-641.682	172.773	-0.088	-0.129
-640.668	800.000	0.100	0.307
-639.653	-200.000	0.055	-0.248
-638.638	77.622	-0.116	-0.125
-637.624	-200.000	0.178	0.000
-636.609	186.102	0.154	0.233
-635.595	299.264	-0.068	0.127
-634.580	334.133	-0.123	0.243
-633.565	453.088	0.050	-0.112
-632.551	-74.952	-0.280	-0.102
-631.536	-198.939	-0.330	0.002
-630.522	253.023	-0.034	0.059
-629.507	-200.000	-0.018	-0.130
-628.492	122.426	-0.171	-0.217
-627.478	-145.401	0.279	0.026
-626.463	-128.295	-0.347	0.050
-625.449	-30.019	-0.222	-0.129
-624.434	69.707	-0.193	0.202
-623.419	-56.530	-0.103	0.046
-622.405	-200.000	-0.037	0.354
-621.390	58.916	-0.084	-0.084
-620.376	69.494	-0.076	-0.080
-619.361	-151.096	-0.129	-0.010
-618.346	425.138	-0.069	-0.151
-617.332	-87.566	-0.190	0.058
-616.317	800.000	0.154	0.523
-615.303	-200.000	0.019	0.147
-614.288	498.518	-0.045	0.104
-613.273	279.114	-0.126	-0.228
-612.259	-200.000	-0.014	-0.121
-611.244	800.000	-0.096	-0.381
-610.230	-200.000	0.007	0.085
-609.215	-114.287	-0.353	-0.069
-608.201	800.000	-0.046	-0.192
-607.186	-145.304	0.062	-0.006
-606.171	265.039	-0.061	-0.108
-605.157	-173.210	0.199	-0.006
-604.142	154.465	0.151	-0.210
-603.128	-39.811	-0.179	0.095
-602.113	-41.180	0.168	-0.088
-601.098	106.004	-0.131	-0.157
-600.084	0.247	0.350	0.254
-599.069	-7.168	-0.045	-0.031
-598.055	-82.708	-0.182	-0.060
-597.040	800.000	0.136	0.457
-596.025	-84.910	0.323	-0.103
-595.011	89.017	-0.226	0.255
-593.996	282.796	0.061	0.111
-592.982	34.610	-0.077	0.068
-591.967	-200.000	-0.023	0.185
-590.952	-125.226	-0.257	0.040
-589.938	299.650	-0.061	-0.115
-588.923	-200.000	-0.045	-0.255
-587.909	-146.452	0.282	-0.025
-586.894	-200.000	0.005	0.416
-585.879	418.307	0.060	0.129
-584.865	72.610	-0.033	-0.034
-583.850	575.575	0.046	-0.115
-582.836	-103.051	0.410	0.099
-581.821	698.270	-0.180	-0.480
-580.806	138.364	0.180	-0.240
-579.792	-200.000	0.017	0.116
-578.777	599.277	-0.061	0.154
-577.763	-119.774	0.093	0.016
-576.748	-200.000	0.122	-0.634
-575.733	224.948	-0.045	-0.074
-574.719	-200.000	0.001	-0.159
-573.704	-72.061	0.305	-0.115
-572.690	-200.000	0.002	0.038
-571.675	-32.054	-0.215	-0.122
-570.661	90.409	-0.210	-0.239
-569.646	28.036	-0.322	0.276
-568.631	-118.493	-0.225	-0.040
-567.617	55.626	0.134	-0.131
-566.602	-124.026	0.201	-0.032
-565.588	-100.071	-0.092	-0.023
-564.573	-91.851	-0.086	-0.025
-563.558	277.718	0.011	0.019
-562.544	208.418	-0.123	0.195
-561.529	475.785	0.074	0.169
-560.515	-13.024	0.103	0.068
-559.500	-16.379	0.333	0.214
-558.485	-26.540	0.055	-0.033
-557.471	-98.995	-0.188	-0.048
-556.456	111.722	0.120	-0.146
-555.442	-200.000	0.011	0.147
-554.427	800.000	0.095	0.420
-553.412	-59.999	-0.101	0.044
-552.398	-200.000	0.017	0.134
-551.383	58.498	-0.055	-0.055
-550.369	121.414	-0.080	-0.102
-549.354	-20.540	0.206	0.128
-548.339	-108.730	0.186	-0.040
-547.325	800.000	0.048	-0.156
-546.310	17.822	0.139	0.112
-545.296	166.735	0.123	0.177
-544.281	27.132	0.092	-0.078
-543.266	-131.296	-0.135	0.018
-542.252	783.927	0.148	-0.411
-541.237	3.087	0.267	-0.197
-540.223	-200.000	0.007	-0.184
-539.208	-165.442	0.282	0.013
-538.193	-35.558	0.184	-0.101
-537.179	-200.000	0.023	-0.169
-536.164	-53.755	-0.254	0.118
-535.150	143.448	0.102	0.138
-534.135	800.000	0.006	0.018
-533.121	19.181	-0.096	0.078
-532.106	218.813	-0.116	0.188
-531.091	76.112	-0.062	-0.066
-530.077	57.235	0.231	0.229
-529.062	-200.000	0.025	0.116
-528.048	-31.670	-0.271	0.154
-527.033	-70.002	-0.313	-0.121
-526.018	-103.723	-0.106	-0.025
-525.004	-21.196	0.203	0.126
-523.989	-108.550	0.118	-0.026
-522.975	167.613	0.122	0.176
-521.960	-85.310	0.320	0.101
-520.945	-32.843	0.191	-0.108
-519.931	169.135	-0.112	0.162
-518.916	-125.845	0.179	-0.027
-517.902	49.697	-0.228	-0.217
-516.887	92.843	-0.107	-0.123
-515.872	-200.000	0.006	0.621
-514.858	-75.384	0.140	-0.050
-513.843	-200.000	-0.002	-0.306
-512.829	-200.000	0.026	-0.116
-511.814	146.346	0.087	0.118
-510.799	-173.330	0.262	0.008
-509.785	-136.839	-0.120	-0.014
-508.770	-96.602	0.174	-0.047
-507.756	-200.000	-0.065	0.381
-506.741	-10.782	0.190	0.127
-505.726	90.452	-0.172	0.195
-504.712	431.981	-0.126	-0.275
-503.697	-51.280	-0.179	0.085
-502.683	-173.679	0.204	-0.006
-501.668	116.303	0.123	-0.152
-500.653	-200.000	0.059	-0.282
-499.639	-69.854	0.175	-0.068
-498.624	490.532	0.049	0.113
-497.610	-50.807	-0.181	-0.086
-496.595	-147.133	-0.258	0.022
-495.581	800.000	0.092	0.294
-494.566	177.190	-0.144	-0.213
-493.551	-200.000	-0.013	-0.067
-492.537	-103.014	-0.251	0.060
-491.522	-200.000	-0.012	-0.242
-490.508	132.942	-0.083	0.109
-489.493	192.028	0.011	-0.017
-488.478	800.000	-0.073	-0.205
-487.464	-200.000	-0.020	0.178
-486.449	-97.500	0.303	0.080
-485.435	110.517	-0.079	0.097
-484.420	3.048	-0.334	0.245
-483.405	-200.000	-0.015	-0.202
-482.391	-131.446	0.067	-0.009
-481.376	-91.145	0.309	-0.090
-480.362	415.781	0.138	0.297
-479.347	-200.000	-0.009	0.109
-478.332	25.848	0.240	0.203
-477.318	185.296	0.018	0.027
-476.303	-88.847	-0.369	0.111
-475.289	800.000	-0.115	0.323
-474.274	84.505	0.171	-0.189
-473.259	-97.168	-0.224	-0.059
-472.245	84.258	0.073	0.080
-471.230	207.272	0.038	0.060
-470.216	-83.436	0.347	0.112
-469.201	-78.431	0.299	0.104
-468.186	258.016	0.126	0.219
-467.172	-39.274	-0.204	-0.108
-466.157	50.058	0.199	0.190
-465.143	403.095	0.118	-0.251
-464.128	70.979	0.134	-0.140
-463.113	-47.762	0.184	0.090
-462.099	-6.928	-0.153	-0.105
-461.084	800.000	0.124	0.381
-460.070	-108.013	-0.082	-0.018
-459.055	560.263	0.228	-0.557
-458.040	-200.000	0.013	-0.122
-457.026	454.504	-0.087	0.195
-456.011	211.906	-0.117	0.186
-454.997	-37.812	0.201	0.108
-453.982	755.472	0.037	0.100
-452.968	340.116	0.065	0.128
-451.953	-118.848	0.249	0.044
-450.938	-200.000	-0.021	-0.189
-449.924	-200.000	-0.001	-0.106
-448.909	-132.229	-0.276	-0.036
-447.895	-200.000	0.022	0.124
-446.880	-134.956	-0.188	0.023
-445.865	655.504	-0.096	0.250
-444.851	-110.968	-0.558	0.116
-443.836	166.987	-0.059	0.085
-442.822	-76.720	0.263	0.093
-441.807	245.754	-0.102	-0.173
-440.792	-86.753	0.104	0.032
-439.778	-110.970	-0.148	-0.031
-438.763	-102.800	-0.212	0.051
-437.749	13.626	-0.335	-0.263
-436.734	-200.000	-0.009	0.159
-435.719	-200.000	0.031	-0.247
-434.705	-31.453	-0.158	0.089
-433.690	89.719	-0.083	0.093
-432.676	139.267	0.066	0.088
-431.661	-200.000	-0.056	-0.364
-430.646	-200.000	0.040	-0.354
-429.632	-80.203	-0.081	-0.027
-428.617	-55.327	-0.139	0.063
-427.603	164.166	-0.144	0.205
-426.588	25.955	0.271	-0.228
-425.573	15.686	0.204	0.162
-424.559	354.439	-0.182	0.365
-423.544	124.678	-0.213	0.271
-422.530	-10.490	-0.051	0.034
-421.515	-32.915	0.199	-0.112
-420.500	30.852	0.123	-0.107
-419.486	128.061	0.053	0.068
-418.471	-200.000	-0.021	-0.132
-417.457	-150.679	0.323	-0.025
-416.442	-154.294	0.014	-0.001
-415.428	-200.000	-0.031	0.385
-414.413	-200.000	0.001	-0.119
-413.398	-200.000	-0.027	-0.142
-412.384	111.280	-0.109	0.133
-411.369	-69.188	-0.228	0.088
-410.355	-62.906	0.142	0.059
-409.340	-200.000	0.026	0.162
-408.325	-158.047	-0.246	0.015
-407.311	-35.319	-0.226	0.124
-406.296	38.284	-0.118	-0.106
-405.282	-66.949	0.082	0.033
-404.267	719.750	0.125	0.334
-403.252	-93.098	-0.247	0.069
-402.238	114.557	-0.072	-0.088
-401.223	-46.136	0.293	-0.146
-400.209	-61.320	-0.222	0.094
-399.194	188.112	0.240	-0.361
-398.179	800.000	-0.016	-0.072
-397.165	108.135	0.083	0.099
-396.150	-14.845	0.330	-0.213
-395.136	161.465	0.148	-0.209
-394.121	18.279	0.161	-0.130
-393.106	-200.000	0.001	-0.197
-392.092	354.523	0.059	0.119
-391.077	-109.217	0.307	-0.066
-390.063	-200.000	0.040	0.206
-389.048	800.000	0.107	0.305
-388.033	55.107	0.069	0.067
-387.019	-200.000	0.019	-0.236
-386.004	-200.000	0.028	0.297
-384.990	-65.830	-0.085	0.034
-383.975	-118.567	-0.145	0.026
-382.960	-183.162	-0.170	0.003
-381.946	149.325	0.122	0.167
-380.931	800.000	0.058	0.163
-379.917	229.667	0.132	0.218
-378.902	27.574	0.156	0.132
-377.888	-41.388	-0.260	0.135
-376.873	7.946	0.076	-0.058
-375.858	-0.621	0.068	0.049
-374.844	-120.060	0.205	0.035
-373.829	22.306	0.095	-0.079
-372.815	212.777	0.144	-0.229
-371.800	243.339	0.147	0.249
-370.785	-98.082	-0.503	0.130
-369.771	76.699	-0.095	-0.102
-368.756	800.000	0.064	-0.231
-367.742	160.589	-0.138	-0.194
-366.727	-97.233	0.181	0.048
-365.712	800.000	0.048	-0.207
-364.698	-48.021	0.028	0.014
-363.683	-141.969	-0.094	-0.009
-362.669	163.315	0.028	0.040
-361.654	25.644	0.392	-0.329
-360.639	-12.845	-0.338	-0.221
-359.625	138.852	0.065	0.086
-358.610	155.580	-0.251	0.348
-357.596	-162.766	-0.396	0.019
-356.581	800.000	0.071	-0.280
-355.566	53.656	-0.300	0.290
-354.552	-145.495	0.273	0.025
-353.537	800.000	-0.112	-0.322
-352.523	-38.533	-0.220	-0.117
-351.508	-200.000	0.097	-0.437
-350.493	-137.584	-0.227	0.026
-349.479	-9.101	0.178	0.120
-348.464	800.000	0.038	0.143
-347.450	-162.647	-0.190	0.009
-346.435	-2.130	0.134	-0.095
-345.420	-82.281	0.287	-0.094
-344.406	61.410	-0.112	-0.112
-343.391	-11.548	0.413	-0.273
-342.377	57.576	-0.026	0.025
-341.362	800.000	0.176	0.504
-340.348	-52.491	-0.345	-0.161
-339.333	-198.246	0.212	0.001
-338.318	-76.621	-0.164	0.058
-337.304	103.001	0.099	0.116
-336.289	15.080	-0.322	0.253
-335.275	11.402	0.301	-0.232
-334.260	798.815	0.058	0.160
-333.245	-200.000	-0.045	0.441
-332.231	279.319	-0.069	0.124
-331.216	209.886	0.119	-0.188
-330.202	-200.000	-0.009	0.127
-329.187	-28.838	0.190	0.110
-328.172	-156.016	0.154	0.010
-327.158	-45.450	-0.108	-0.054
-326.143	-71.952	0.100	0.037
-325.129	759.273	0.037	0.101
-324.114	26.202	0.061	0.052
-323.099	360.518	-0.017	-0.035
-322.085	-147.194	0.030	0.003
-321.070	-31.105	-0.286	0.162
-320.056	-93.948	0.288	-0.079
-319.041	-83.567	-0.277	0.089
-318.026	88.968	0.158	0.177
-317.012	-137.736	0.162	0.018
-315.997	-93.804	-0.086	0.024
-314.983	-200.000	-0.019	-0.241
-313.968	-35.469	0.493	0.269
-312.953	283.583	-0.125	-0.226
-311.939	-79.529	-0.128	0.044
-310.924	-54.892	-0.139	-0.063
-309.910	725.834	0.137	-0.366
-308.895	-123.625	-0.241	-0.038
-307.880	-135.223	-0.244	-0.029
-306.866	-89.812	0.046	0.013
-305.851	-39.248	0.252	0.133
-304.837	44.356	-0.373	0.344
-303.822	55.970	0.242	0.236
-302.807	364.499	0.088	-0.177
-301.793	800.000	0.042	-0.154
-300.778	189.892	-0.047	-0.071
-299.764	32.556	-0.088	0.076
-298.749	179.580	0.195	0.286
-297.735	274.770	0.021	0.037
-296.720	116.092	0.328	-0.404
-295.705	-200.000	-0.010	0.115
-294.691	309.357	-0.216	0.405
-293.676	-108.924	-0.211	0.045
-292.662	-73.868	-0.067	-0.024
-291.647	64.849	-0.255	-0.259
-290.632	-141.805	-0.294	0.030
-289.618	195.604	-0.163	0.248
-288.603	-200.000	-0.019	-0.171
-287.589	81.001	0.102	0.111
-286.574	800.000	0.081	0.342
-285.559	-47.863	-0.072	0.035
-284.545	-175.442	-0.327	0.009
-283.530	-200.000	-0.060	-0.287
-282.516	118.047	0.183	-0.227
-281.501	800.000	-0.065	-0.282
-280.486	429.817	-0.073	0.159
-279.472	-173.749	0.459	0.014
-278.457	800.000	-0.028	0.116
-277.443	-200.000	-0.023	0.196
-276.428	-87.619	-0.091	0.027
-275.413	-66.092	-0.134	0.053
-274.399	800.000	0.057	-0.238
-273.384	-200.000	0.010	0.051
-272.370	301.782	0.129	-0.239
-271.355	634.701	-0.145	0.369
-270.340	-186.813	-0.258	0.004
-269.326	-90.360	-0.312	-0.091
-268.311	-121.178	-0.086	-0.014
-267.297	-38.602	-0.052	-0.028
-266.282	-200.000	-0.011	0.124
-265.267	586.824	0.053	0.132
-264.253	49.400	0.177	0.167
-263.238	-200.000	0.008	-0.083
-262.224	30.792	0.157	-0.135
-261.209	-176.670	-0.262	0.007
-260.195	-78.538	0.299	0.103
-259.180	-95.609	0.201	0.054
-258.165	-57.081	-0.336	-0.148
-257.151	0.297	0.230	-0.165
-256.136	-162.607	-0.092	-0.005
-255.122	-8.428	0.117	0.079
-254.107	-57.111	-0.169	-0.075
-253.092	-41.585	-0.106	-0.055
-252.078	800.000	-0.018	-0.072
-251.063	-57.450	0.250	-0.110
-250.049	55.378	0.212	-0.205
-249.034	-42.031	0.093	-0.048
-248.019	-41.335	0.040	-0.020
-247.005	77.733	-0.326	-0.349
-245.990	800.000	0.000	0.000
-244.976	-200.000	0.010	0.263
-243.961	47.429	0.142	0.133
-242.946	800.000	-0.019	0.062
-241.932	-166.380	0.255	0.011
-240.917	-8.103	-0.198	0.134
-239.903	209.645	-0.136	0.213
-238.888	-115.312	0.157	-0.030
-237.873	800.000	0.071	-0.235
-236.859	-200.000	0.017	0.102
-235.844	-124.595	0.306	-0.048
-234.830	-17.041	-0.151	0.095
-233.815	-91.596	-0.319	-0.091
-232.800	-200.000	0.021	0.094
-231.786	-129.898	-0.160	-0.022
-230.771	-103.687	0.027	0.006
-229.757	140.616	0.181	-0.240
-228.742	-119.463	-0.127	0.022
-227.727	-114.137	-0.330	-0.064
-226.713	-200.000	-0.017	-0.221
-225.698	-32.845	0.162	0.090
-224.684	40.336	0.188	0.170
-223.669	137.744	0.125	-0.164
-222.655	-148.374	0.048	-0.004
-221.640	62.422	0.198	-0.198
-220.625	-97.495	-0.319	-0.083
-219.611	206.371	-0.146	-0.227
-218.596	86.231	-0.244	-0.269
-217.582	-10.162	0.132	0.088
-216.567	612.344	0.032	0.081
-215.552	-53.423	0.405	0.186
-214.538	73.401	-0.038	-0.040
-213.523	-200.000	0.038	-0.201
-212.509	-115.338	0.151	0.029
-211.494	52.701	0.154	0.147
-210.479	89.990	-0.188	-0.211
-209.465	312.962	-0.116	-0.219
-208.450	800.000	-0.098	-0.271
-207.436	-84.671	0.135	0.042
-206.421	-162.620	0.186	-0.009
-205.406	-200.000	-0.043	0.243
-204.392	-86.128	-0.301	-0.093
-203.377	134.183	-0.221	0.286
-202.363	-200.000	0.038	-0.389
-201.348	-162.198	0.529	-0.026
-200.333	21.933	-0.340	-0.278
-199.319	65.620	0.069	-0.070
-198.304	800.000	0.093	0.408
-197.290	-200.000	-0.005	0.121
-196.275	-126.680	0.238	-0.035
-195.260	-45.405	0.099	-0.049
-194.246	-200.000	0.047	-0.609
-193.231	8.271	0.117	-0.088
-192.217	14.313	-0.148	-0.115
-191.202	-64.047	0.429	0.175
-190.187	344.266	-0.031	-0.061
-189.173	-200.000	0.020	-0.284
-188.158	9.045	-0.302	-0.228
-187.144	-72.905	0.398	0.146
-186.129	-200.000	-0.073	-0.364
-185.114	339.928	-0.125	0.243
-184.100	-200.000	0.004	-0.185
-183.085	-53.179	-0.098	-0.045
-182.071	-152.378	-0.192	0.014
-181.056	800.000	-0.143	-0.441
-180.042	239.476	0.046	0.076
-179.027	68.665	0.103	0.106
-178.012	566.444	0.065	-0.158
-176.998	66.749	-0.118	0.120
-175.983	-48.436	-0.362	-0.174
-174.969	-113.989	0.219	-0.042
-173.954	433.790	-0.144	0.313
-172.939	-106.905	-0.264	0.058
-171.925	423.449	0.096	-0.207
-170.910	-113.720	-0.291	0.057
-169.896	278.975	-0.146	0.260
-168.881	548.478	-0.130	0.310
-167.866	207.425	0.088	-0.137
-166.852	-200.000	-0.087	-0.556
-165.837	102.030	-0.249	-0.290
-164.823	-200.000	-0.009	-0.119
-163.808	31.252	0.087	-0.074
-162.793	-200.000	-0.003	-0.041
-161.779	-57.616	0.255	0.112
-160.764	376.288	-0.155	-0.316
-159.750	-112.142	-0.146	-0.029
-158.735	-61.010	-0.161	0.068
-157.720	147.418	-0.117	-0.157
-156.706	12.956	-0.133	0.103
-155.691	-107.071	0.335	-0.074
-154.677	-22.996	0.200	-0.120
-153.662	265.077	0.160	0.279
-152.647	-37.575	0.023	0.013
-151.633	560.108	-0.121	0.293
-150.618	-176.918	0.480	-0.012
-149.604	-200.000	0.005	0.262
-148.589	-148.861	0.086	-0.007
-147.574	36.113	-0.090	0.079
-146.560	157.229	0.222	-0.307
-145.545	1.866	-0.244	0.176
-144.531	28.992	0.099	-0.084
-143.516	135.988	0.027	0.035
-142.502	800.000	0.044	-0.138
-141.487	-70.067	-0.214	0.081
-140.472	50.335	-0.212	-0.200
-139.458	104.069	-0.161	-0.189
-138.443	-104.787	-0.485	0.111
-137.429	-33.133	0.058	-0.032
-136.414	800.000	0.059	0.242
-135.399	327.067	0.070	0.134
-134.385	-45.878	-0.316	-0.156
-133.370	-200.000	-0.003	-0.426
-132.356	-200.000	-0.034	0.189
-131.341	-132.915	0.165	-0.021
-130.326	-180.914	0.196	-0.004
-129.312	-91.417	0.181	-0.052
-128.297	-200.000	-0.017	0.213
-127.283	-181.989	-0.546	-0.010
-126.268	-200.000	-0.056	-0.355
-125.253	800.000	0.025	0.076
-124.239	190.854	0.124	0.186
-123.224	-41.617	0.267	-0.137
-122.210	-124.528	0.064	0.010
-121.195	-147.109	0.075	0.006
-120.180	335.358	-0.119	-0.231
-119.166	130.090	-0.110	0.140
-118.151	-154.735	-0.100	-0.007
-117.137	60.919	0.394	-0.390
-116.122	800.000	-0.013	0.038
-115.107	32.956	-0.070	0.060
-114.093	-92.194	0.188	0.053
-113.078	-129.622	-0.311	0.043
-112.064	46.515	-0.079	-0.073
-111.049	-170.988	-0.277	0.009
-110.034	0.798	-0.223	0.159
-109.020	-109.697	-0.023	0.005
-108.005	-35.840	0.049	0.026
-106.991	-105.726	-0.186	0.042
-105.976	25.019	0.248	0.205
-104.962	-97.472	0.436	0.113
-103.947	-193.437	0.062	-0.001
-102.932	36.926	0.057	0.050
-101.918	145.796	0.091	-0.122
-100.903	-200.000	0.055	-0.290
-99.889	-90.767	-0.295	-0.085
-98.874	146.222	-0.225	0.302
-97.859	800.000	-0.078	0.279
-96.845	-122.086	-0.259	0.042
-95.830	-67.705	-0.170	-0.066
-94.816	274.761	-0.207	-0.365
-93.801	159.762	-0.005	0.006
-92.786	97.561	-0.153	-0.175
-91.772	-30.104	0.037	0.021
-90.757	62.261	0.087	0.087
-89.743	137.539	0.027	-0.035
-88.728	-58.882	0.382	-0.164
-87.713	800.000	0.042	-0.142
-86.699	-147.920	-0.290	0.024
-85.684	66.865	-0.103	0.104
-84.670	800.000	0.064	-0.194
-83.655	-65.852	0.168	0.067
-82.640	-30.792	-0.069	-0.039
-81.626	774.872	-0.076	-0.206
-80.611	-167.885	0.131	-0.005
-79.597	-200.000	-0.026	0.180
-78.582	69.705	0.083	0.085
-77.567	-152.953	0.104	0.007
-76.553	94.210	-0.048	0.054
-75.538	188.720	-0.143	-0.213
-74.524	-200.000	0.027	-0.120
-73.509	-38.471	0.309	-0.163
-72.494	-47.649	0.147	-0.071
-71.480	25.374	-0.212	0.175
-70.465	800.000	0.091	0.263
-69.451	494.740	-0.128	0.293
-68.436	800.000	-0.069	0.212
-67.422	-68.861	-0.284	-0.109
-66.407	-200.000	-0.039	-0.185
-65.392	-27.062	0.184	0.107
-64.378	-200.000	-0.003	-0.130
-63.363	123.239	-0.079	0.098
-62.349	-121.783	0.048	0.008
-61.334	72.489	-0.608	-0.630
-60.319	800.000	0.073	0.259
-59.305	-200.000	-0.063	-0.889
-58.290	800.000	0.343	0.994
-57.276	800.000	0.367	1.432
-56.261	-200.000	86.106	499.755
-55.246	535.573	1382.053	3261.942
-54.232	183.786	2598.204	3823.423
-53.217	118.554	2238.178	2748.619
-52.203	47.774	1766.350	1640.352
-51.188	40.970	1572.926	1412.555
-50.173	38.605	1544.838	1370.751
-49.159	54.702	1589.543	1525.002
-48.144	58.879	1609.616	1573.884
-47.130	41.635	1567.892	1412.517
-46.115	38.315	1552.848	1375.601
-45.100	38.167	1549.492	1371.537
-44.086	38.101	1546.824	1368.655
-43.071	38.042	1544.990	1366.569
-42.057	37.967	1543.488	1364.658
-41.042	37.981	1542.466	1363.796
-40.027	38.001	1540.261	1361.935
-39.013	37.895	1539.163	1360.173
-37.998	38.024	1537.464	1359.511
-36.984	37.972	1536.290	1358.061
-35.969	38.043	1534.760	1357.146
-34.954	37.999	1533.663	1355.819
-33.940	38.111	1531.821	1354.913
-32.925	38.162	1530.578	1354.115
-31.911	38.112	1529.475	1352.737
-30.896	38.107	1528.181	1351.508
-29.881	38.079	1526.778	1350.018
-28.867	38.146	1524.997	1348.854
-27.852	38.130	1523.310	1347.194
-26.838	38.084	1521.876	1345.559
-25.823	38.055	1521.087	1344.608
-24.809	38.160	1518.251	1342.767
-23.794	38.187	1517.451	1342.189
-22.779	38.162	1516.094	1340.764
-21.765	38.083	1515.308	1339.478
-20.750	38.131	1514.423	1338.969
-19.736	38.099	1513.228	1337.638
-18.721	38.069	1511.547	1335.897
-17.706	38.090	1510.351	1334.933
-16.692	37.968	1509.489	1333.283
-15.677	37.963	1508.453	1332.278
-14.663	38.090	1506.729	1331.572
-13.648	38.039	1506.292	1330.786
-12.633	38.074	1505.016	1329.838
-11.619	38.023	1504.224	1328.739
-10.604	37.995	1503.389	1327.759
-9.590	37.915	1502.804	1326.644
-8.575	37.971	1501.389	1325.729
-7.560	38.034	1500.488	1325.307
-6.546	37.932	1500.178	1324.289
-5.531	37.929	1499.575	1323.682
-4.517	38.014	1497.721	1322.568
-3.502	37.988	1496.901	1321.613
-2.487	37.981	1495.878	1320.615
-1.473	38.002	1494.597	1319.572
-0.458	38.022	1493.465	1318.656
0.556	38.229	1483.911	1307.353
1.571	35.158	1455.601	1262.105
2.586	31.014	1391.308	1180.089
3.600	28.890	1305.661	1094.713
4.615	26.805	1256.342	1041.309
5.629	22.786	1197.859	970.694
6.644	13.638	1110.530	852.981
7.659	6.221	1066.721	782.480
8.673	5.023	1061.182	772.412
9.688	5.076	1058.084	770.354
10.702	5.048	1056.768	769.187
11.717	5.174	1055.028	768.473
12.731	7.688	1057.734	782.773
13.746	16.025	1069.294	832.607
14.761	21.207	1075.646	863.166
15.775	20.341	1072.647	856.413
16.790	19.000	1070.220	847.791
17.804	17.825	1068.720	840.742
18.819	16.972	1066.218	834.508
19.834	16.538	1064.971	831.326
20.848	16.197	1064.006	828.822
21.863	15.956	1063.370	827.070
22.877	15.807	1062.691	825.736
23.892	15.647	1061.448	823.915
24.907	15.484	1061.056	822.741
25.921	15.641	1059.797	822.455
26.936	15.608	1059.466	821.966
27.950	15.517	1058.553	820.741
28.965	15.619	1056.983	819.948
29.980	15.675	1056.151	819.506
30.994	15.866	1054.967	819.440
32.009	15.726	1054.487	818.316
33.023	15.851	1053.489	818.076
34.038	15.839	1052.525	817.198
35.053	15.908	1051.304	816.512
36.067	15.801	1050.231	815.087
37.082	15.684	1049.780	814.099
38.096	15.682	1048.901	813.335
39.111	15.751	1048.272	813.109
40.126	15.832	1047.291	812.669
41.140	15.723	1046.496	811.451
42.155	15.549	1045.204	809.540
43.169	15.399	1044.121	807.908
44.184	15.461	1043.256	807.468
45.199	15.457	1042.186	806.548
46.213	15.459	1041.399	805.876
47.228	15.424	1040.543	804.975
48.242	15.628	1039.256	804.885
49.257	15.644	1038.515	804.316
50.271	15.669	1037.577	803.636
51.286	15.674	1036.217	802.537
52.301	15.697	1035.672	802.155
53.315	15.649	1035.273	801.544
54.330	15.607	1034.002	800.289
55.344	15.431	1033.339	798.869
56.359	15.648	1031.891	798.711
57.374	15.428	1031.420	797.231
58.388	15.469	1030.291	796.481
59.403	15.422	1029.934	795.909
60.417	15.369	1028.688	794.625
61.432	15.401	1028.320	794.423
62.447	15.413	1027.093	793.464
63.461	15.411	1026.104	792.617
64.476	15.339	1025.142	791.467
65.490	15.264	1024.591	790.616
66.505	15.306	1023.553	789.944
67.520	15.396	1022.718	789.652
68.534	15.327	1022.199	788.860
69.549	15.373	1020.947	788.038
70.563	15.407	1020.318	787.641
71.578	15.284	1019.569	786.418
72.593	15.261	1018.650	785.530
73.607	15.281	1017.604	784.750
74.622	15.207	1016.477	783.467
75.636	15.215	1016.074	783.124
76.651	15.191	1014.919	782.053
77.666	15.261	1014.133	781.701
78.680	15.281	1013.423	781.179
79.695	15.228	1012.810	780.390
80.709	15.292	1012.669	780.513
81.724	15.388	1011.645	780.100
82.739	15.450	1011.155	779.941
83.753	15.593	1010.024	779.662
84.768	15.620	1009.696	779.468
85.782	15.674	1009.072	779.165
86.797	15.861	1008.246	779.324
87.812	15.696	1007.427	777.858
88.826	15.613	1006.708	776.853
89.841	15.659	1005.714	776.226
90.855	15.704	1004.834	775.686
91.870	15.765	1004.318	775.501
92.884	15.778	1003.485	774.849
93.899	15.760	1002.774	774.150
94.914	15.749	1001.784	773.266
95.928	15.878	1001.310	773.424
96.943	15.940	1000.312	772.869
97.957	15.844	999.714	771.900
98.972	15.854	998.527	770.962
99.987	15.713	998.105	769.919
101.001	15.826	997.270	769.724
102.016	15.768	996.677	768.933
103.030	15.814	995.258	767.981
104.045	15.798	994.712	767.417
105.060	15.779	993.784	766.550
106.074	15.705	992.655	765.272
107.089	15.471	992.134	763.740
108.103	15.392	990.864	762.337
109.118	15.451	989.489	761.476
110.133	15.340	988.807	760.382
111.147	15.218	988.682	759.665
112.162	15.392	987.387	759.390
113.176	15.339	986.227	758.192
114.191	15.420	985.454	757.899
115.206	15.542	984.659	757.771
116.220	15.405	983.872	756.481
117.235	15.470	983.020	756.049
118.249	15.508	982.388	755.668
119.264	15.393	981.552	754.441
120.279	15.512	980.780	754.316
121.293	15.395	979.955	753.088
122.308	15.371	979.258	752.380
123.322	15.393	978.169	751.572
124.337	15.231	977.279	750.101
125.352	15.242	976.293	749.323
126.366	15.199	975.177	748.210
127.381	15.201	974.155	747.367
128.395	15.298	973.205	747.005
129.410	15.258	972.319	746.080
130.424	15.338	971.343	745.623
131.439	15.484	970.387	745.471
132.454	15.540	969.017	744.602
133.468	15.534	969.139	744.600
134.483	15.485	968.602	743.907
135.497	15.541	967.737	743.424
136.512	15.663	966.678	743.086
137.527	15.520	966.160	741.990
138.541	15.560	965.572	741.646
139.556	15.615	964.493	740.997
140.570	15.472	964.080	739.983
141.585	15.547	963.943	740.144
142.600	15.729	963.095	740.228
143.614	15.808	962.217	739.836
144.629	15.826	961.062	738.959
145.643	15.893	960.947	739.099
146.658	15.816	959.759	737.785
147.673	15.809	958.376	736.623
148.687	15.724	957.695	735.664
149.702	15.624	957.121	734.719
150.716	15.518	956.304	733.567
151.731	15.557	955.073	732.726
152.746	15.568	954.507	732.275
153.760	15.632	953.560	731.763
154.775	15.621	952.995	731.215
155.789	15.618	952.246	730.562
156.804	15.802	951.265	730.547
157.819	15.736	950.703	729.765
158.833	15.771	949.642	729.035
159.848	15.804	949.182	728.760
160.862	15.791	948.706	728.274
161.877	15.844	948.064	727.946
162.892	15.765	946.700	726.494
163.906	15.682	945.769	725.356
164.921	15.621	945.020	724.458
165.935	15.644	943.980	723.694
166.950	15.709	942.738	722.957
167.964	15.717	942.332	722.616
168.979	15.774	941.362	722.053
169.994	15.702	940.344	720.899
171.008	15.702	939.410	720.119
172.023	15.671	938.608	719.309
173.037	15.770	938.048	719.238
174.052	15.913	937.361	719.260
175.067	15.901	936.610	718.569
176.081	15.717	936.121	717.343
177.096	15.623	934.842	715.899
178.110	15.671	933.849	715.280
179.125	15.627	933.344	714.643
180.140	15.798	931.977	714.262
181.154	15.804	931.618	713.946
182.169	15.885	931.220	713.924
183.183	15.934	931.012	713.908
184.198	15.797	930.517	712.883
185.213	16.035	929.211	712.829
186.227	15.902	928.627	711.752
187.242	15.822	928.405	711.184
188.256	15.883	928.049	711.104
189.271	16.081	926.819	710.933
190.286	16.137	926.230	710.657
191.300	16.077	925.178	709.536
192.315	15.735	924.242	707.316
193.329	15.534	923.401	705.765
194.344	15.538	922.890	705.329
195.359	15.789	922.367	705.918
196.373	15.822	921.981	705.700
197.388	15.729	921.779	705.092
198.402	16.104	920.975	705.988
199.417	16.201	920.774	706.174
200.432	16.067	920.431	705.287
201.446	16.289	919.548	705.480
202.461	16.318	919.518	705.514
203.475	16.387	918.833	705.212
204.490	16.380	917.767	704.302
205.504	16.214	917.216	703.126
206.519	16.263	916.302	702.568
207.534	16.217	915.261	701.515
208.548	16.134	914.646	700.638
209.563	16.129	914.016	700.075
210.577	16.219	913.363	699.883
211.592	16.084	912.794	698.825
212.607	16.312	912.132	699.203
213.621	16.531	911.534	699.590
214.636	16.396	911.137	698.665
215.650	16.361	910.201	697.741
216.665	16.276	909.605	696.872
217.680	16.372	909.438	697.075
218.694	16.387	908.824	696.606
219.709	16.555	908.064	696.654
220.723	16.534	907.474	696.053
221.738	16.503	906.958	695.466
222.753	16.401	906.453	694.601
223.767	16.451	905.729	694.187
224.782	16.543	904.568	693.613
225.796	16.456	904.261	692.962
226.811	16.726	902.840	692.918
227.826	16.691	902.373	692.355
228.840	16.502	901.848	691.116
229.855	16.495	901.015	690.388
230.869	16.405	901.017	689.962
231.884	16.355	900.068	688.970
232.899	16.521	898.784	688.603
233.913	16.453	898.255	687.861
234.928	16.489	897.478	687.348
235.942	16.305	897.019	686.192
236.957	16.374	896.326	685.880
237.972	16.321	895.966	685.329
238.986	16.463	895.383	685.397
240.001	16.370	894.465	684.255
241.015	16.480	893.830	684.155
242.030	16.418	893.335	683.467
243.045	16.443	892.673	683.000
244.059	16.493	891.979	682.611
245.074	16.618	891.688	682.833
246.088	16.527	890.992	681.873
247.103	16.749	890.104	682.026
248.117	16.618	890.160	681.480
249.132	16.641	889.529	681.030
250.147	16.891	888.646	681.298
251.161	17.151	887.929	681.732
252.176	17.148	887.233	681.124
253.190	17.033	886.915	680.362
254.205	17.134	886.332	680.256
255.220	17.123	885.570	679.567
256.234	17.238	884.877	679.437
257.249	17.188	884.379	678.794
258.263	17.272	883.578	678.454
259.278	17.161	883.232	677.687
260.293	17.244	882.781	677.610
261.307	17.247	882.136	677.066
262.322	17.233	881.715	676.630
263.336	17.368	880.904	676.482
264.351	17.451	879.814	675.914
265.366	17.336	879.536	675.186
266.380	17.298	879.047	674.599
267.395	17.364	878.057	674.042
268.409	17.387	877.078	673.324
269.424	17.329	876.563	672.640
270.439	17.161	875.937	671.434
271.453	17.313	874.932	671.206
272.468	17.252	874.342	670.451
273.482	17.251	873.750	669.934
274.497	17.144	873.488	669.252
275.512	17.316	872.124	668.827
276.526	17.298	871.865	668.496
277.541	17.169	871.484	667.637
278.555	17.229	870.526	667.080
279.570	17.301	870.381	667.193
280.585	17.367	869.758	666.918
281.599	17.524	869.222	667.062
282.614	17.267	869.087	665.892
283.628	17.395	867.795	665.344
284.643	17.258	867.542	664.556
285.657	17.327	867.110	664.435
286.672	17.260	866.615	663.735
287.687	17.325	865.618	663.165
288.701	17.409	865.100	663.039
289.716	17.462	864.655	662.846
290.730	17.455	864.069	662.309
291.745	17.595	863.596	662.433
292.760	17.450	862.677	661.104
293.774	17.614	862.090	661.235
294.789	17.712	861.281	660.937
295.803	17.747	860.887	660.709
296.818	17.542	860.444	659.516
297.833	17.569	859.584	658.905
298.847	17.573	859.270	658.620
299.862	17.556	858.145	657.637
300.876	17.605	857.594	657.342
301.891	17.654	856.935	656.970
302.906	17.724	856.480	656.831
303.920	17.862	855.686	656.696
304.935	17.825	855.469	656.329
305.949	17.893	854.890	656.088
306.964	17.937	854.022	655.534
307.979	17.768	853.461	654.397
308.993	17.762	853.195	654.111
310.008	17.945	852.689	654.366
311.022	17.923	852.211	653.857
312.037	17.931	851.882	653.578
313.052	17.882	851.045	652.692
314.066	17.778	850.057	651.479
315.081	17.760	849.459	650.894
316.095	17.706	849.063	650.328
317.110	17.662	848.422	649.611
318.125	17.784	847.933	649.644
319.139	17.692	847.434	648.852
320.154	17.815	846.651	648.665
321.168	17.721	846.436	648.086
322.183	17.762	845.655	647.585
323.197	17.855	845.246	647.568
324.212	17.922	844.533	647.219
325.227	17.855	844.242	646.685
326.241	17.844	843.862	646.293
327.256	17.780	843.198	645.486
328.270	17.834	842.395	645.018
329.285	17.905	841.921	644.864
330.300	17.725	841.398	643.730
331.314	17.812	840.978	643.680
332.329	17.864	840.025	643.088
333.343	18.071	839.103	643.106
334.358	18.039	838.564	642.513
335.373	17.955	838.735	642.272
336.387	18.006	837.983	641.831
337.402	18.068	837.448	641.598
338.416	18.142	836.941	641.428
339.431	18.334	836.130	641.472
340.446	18.363	835.865	641.321
341.460	18.396	835.303	640.956
342.475	18.386	834.849	640.512
343.489	18.464	834.153	640.212
344.504	18.501	833.576	639.850
345.519	18.454	833.265	639.383
346.533	18.505	832.800	639.158
347.548	18.472	832.262	638.565
348.562	18.541	831.332	638.053
349.577	18.432	830.947	637.294
350.592	18.349	830.535	636.614
351.606	18.171	829.865	635.383
352.621	18.103	829.341	634.672
353.635	18.265	828.877	634.863
354.650	18.343	828.907	635.117
355.665	18.343	828.429	634.697
356.679	18.383	827.842	634.338
357.694	18.415	827.266	633.962
358.708	18.358	826.548	633.144
359.723	18.477	825.933	633.054
360.738	18.465	825.492	632.617
361.752	18.532	824.991	632.425
362.767	18.500	824.568	631.926
363.781	18.541	824.411	631.899
364.796	18.524	824.017	631.481
365.810	18.706	823.319	631.559
366.825	18.725	823.229	631.503
367.840	18.713	822.872	631.129
368.854	18.692	822.652	630.829
369.869	18.702	821.899	630.231
370.883	18.710	820.911	629.448
371.898	18.668	820.300	628.770
372.913	18.710	819.997	628.634
373.927	18.892	819.199	628.632
374.942	19.053	817.985	628.236
375.956	18.934	817.985	627.746
376.971	18.856	817.329	626.901
377.986	18.920	817.217	626.994
379.000	18.872	816.374	626.116
380.015	18.953	816.227	626.243
381.029	18.944	815.556	625.640
382.044	19.055	815.080	625.624
383.059	18.957	814.553	624.806
384.073	19.144	813.525	624.641
385.088	19.067	813.090	623.972
386.102	18.925	812.645	623.063
387.117	18.818	812.182	622.266
388.132	18.907	811.545	622.043
389.146	18.829	811.215	621.454
390.161	18.840	811.084	621.338
391.175	18.987	810.685	621.507
392.190	19.126	810.259	621.630
393.205	19.063	809.506	620.770
394.219	18.923	809.167	619.947
395.234	18.967	808.466	619.516
396.248	18.881	808.165	618.922
397.263	18.888	807.436	618.333
398.278	18.739	807.124	617.502
399.292	18.825	806.593	617.351
400.307	18.788	806.215	616.876
401.321	18.820	805.592	616.457
402.336	18.897	805.434	616.557
403.350	18.909	805.094	616.288
404.365	18.865	804.609	615.705
405.380	19.160	804.003	616.240
406.394	19.158	803.853	616.065
407.409	19.235	803.209	615.791
408.423	19.217	802.526	615.148
409.438	19.407	802.088	615.435
410.453	19.260	802.352	615.061
411.467	19.478	801.523	615.147
412.482	19.412	801.365	614.738
413.496	19.529	800.631	614.536
414.511	19.569	800.308	614.377
415.526	19.398	800.158	613.599
416.540	19.482	799.419	613.275
417.555	19.574	798.865	613.122
418.569	19.508	798.618	612.646
419.584	19.586	797.960	612.362
420.599	19.492	797.819	611.866
421.613	151.895	1365.755	1776.158
422.628	131.553	1448.513	1776.269
