DTS Sentinel unit serial number:	SN413079Multiplexer serial number:	ORYXHardware model number:	OX4-SRSoftware version number:	ORYX F/W v4.00 Oryx Data Collector v3.7.2.0data status	okinstallation	princeton_trtdifferential loss correction	single-endedforward channel	channel 3reverse channel	N/Adate	2019/09/13time	11:28:35forward acquisition time	60.00reverse acquisition time	0.00gamma	496.2192k internal	0.2314k external	0.2314temperature offset calibration	1.0131default loss term (dB/km)	0.3790temperature slope calibration	1.0000multiplexer offset coefficient	1.0000multiplexer slope coefficient	1.0000fibre end	0.00T internal ref (°C)	32.69T ext. ref 1 (°C)	4.36T ext. ref 2 (°C)	30.12length (m)	temperature (°C)	Stokes	anti-Stokes-747.200	309.422	-0.080	-0.152
-746.185	-58.354	-0.266	0.117
-745.171	161.207	-0.027	0.039
-744.156	38.943	-0.302	0.273
-743.142	-114.377	0.356	-0.069
-742.127	363.326	-0.073	0.148
-741.112	66.889	0.324	-0.335
-740.098	-200.000	0.066	0.339
-739.083	-98.092	0.302	0.079
-738.069	6.872	-0.352	0.266
-737.054	680.596	0.080	0.211
-736.039	67.693	-0.111	0.115
-735.025	-74.922	-0.055	-0.020
-734.010	35.745	-0.103	-0.092
-732.996	-200.000	0.009	-0.396
-731.981	800.000	0.144	-0.485
-730.966	2.459	-0.129	-0.095
-729.952	115.092	0.291	-0.360
-728.937	-84.223	-0.197	-0.063
-727.923	8.540	0.323	-0.247
-726.908	-70.911	-0.176	-0.067
-725.894	-14.925	-0.211	0.137
-724.879	397.878	-0.046	-0.097
-723.864	800.000	0.075	-0.222
-722.850	-200.000	-0.010	0.103
-721.835	-107.795	-0.080	0.018
-720.821	125.202	-0.174	0.222
-719.806	-200.000	0.029	-0.235
-718.791	-42.537	-0.306	-0.158
-717.777	160.292	-0.179	-0.253
-716.762	-137.688	0.243	-0.028
-715.748	-123.714	0.107	-0.017
-714.733	27.402	-0.159	0.135
-713.718	-101.419	0.056	0.014
-712.704	800.000	0.093	-0.276
-711.689	-80.024	0.428	-0.145
-710.675	-200.000	-0.032	0.263
-709.660	-84.892	-0.258	-0.082
-708.645	-58.469	0.095	0.042
-707.631	-200.000	-0.036	0.167
-706.616	171.973	0.157	-0.228
-705.602	800.000	0.067	0.229
-704.587	-74.550	0.245	-0.089
-703.572	-37.135	0.135	-0.073
-702.558	202.701	0.074	0.115
-701.543	-4.860	-0.273	0.190
-700.529	-200.000	0.006	0.123
-699.514	-70.018	-0.579	-0.223
-698.499	82.796	0.203	-0.223
-697.485	-41.572	0.130	0.067
-696.470	-32.831	0.186	-0.105
-695.456	800.000	0.013	-0.056
-694.441	32.840	0.299	-0.262
-693.426	240.507	0.008	-0.013
-692.412	-200.000	0.048	-0.339
-691.397	-200.000	0.066	0.329
-690.383	-96.789	-0.358	-0.095
-689.368	382.059	-0.101	-0.210
-688.354	17.771	-0.211	-0.170
-687.339	502.319	-0.044	0.102
-686.324	440.373	-0.164	-0.362
-685.310	800.000	-0.092	-0.367
-684.295	-167.813	0.055	0.002
-683.281	116.263	0.197	0.244
-682.266	80.355	0.260	-0.283
-681.251	-163.144	0.389	-0.019
-680.237	119.577	0.035	-0.044
-679.222	11.123	0.197	-0.153
-678.208	500.157	-0.039	0.091
-677.193	-172.625	0.221	0.007
-676.178	183.462	0.182	-0.271
-675.164	-200.000	0.029	0.155
-674.149	-89.777	-0.215	-0.064
-673.135	601.567	-0.127	0.319
-672.120	-186.400	0.192	0.003
-671.105	-43.257	-0.422	0.216
-670.091	332.375	0.025	-0.049
-669.076	-200.000	-0.019	-0.234
-668.062	32.962	0.222	0.194
-667.047	-116.100	-0.155	0.029
-666.032	14.081	-0.156	0.122
-665.018	800.000	-0.085	-0.303
-664.003	148.866	0.039	0.053
-662.989	-200.000	-0.013	0.203
-661.974	163.376	0.145	-0.206
-660.959	-43.203	0.047	0.024
-659.945	87.704	-0.099	0.111
-658.930	800.000	0.123	-0.389
-657.916	40.962	-0.329	-0.300
-656.901	-200.000	0.008	-0.222
-655.886	-200.000	-0.040	-0.289
-654.872	144.384	-0.129	-0.174
-653.857	323.490	0.088	-0.169
-652.843	-200.000	0.106	0.000
-651.828	-200.000	-0.065	-0.289
-650.814	-75.642	0.184	0.066
-649.799	-200.000	0.006	-0.236
-648.784	-84.144	0.240	-0.077
-647.770	354.379	-0.161	-0.323
-646.755	800.000	0.066	-0.236
-645.741	201.620	-0.112	0.175
-644.726	126.826	0.087	0.111
-643.711	-1.397	-0.056	-0.040
-642.697	-29.141	-0.215	0.125
-641.682	-200.000	0.006	0.196
-640.668	-52.648	-0.338	-0.157
-639.653	768.942	-0.181	-0.498
-638.638	16.712	-0.185	0.148
-637.624	-148.508	0.463	0.038
-636.609	461.198	0.086	-0.193
-635.595	-32.656	0.198	0.111
-634.580	-200.000	-0.048	0.255
-633.565	240.727	0.077	0.130
-632.551	-78.597	-0.361	-0.125
-631.536	-63.586	-0.270	-0.112
-630.522	-26.023	-0.099	-0.059
-629.507	-200.000	-0.011	0.058
-628.492	-100.508	0.193	-0.048
-627.478	-61.426	-0.294	0.125
-626.463	-58.977	-0.349	0.152
-625.449	26.756	0.310	0.262
-624.434	-57.853	0.247	0.109
-623.419	800.000	-0.092	0.346
-622.405	-153.355	-0.149	0.010
-621.390	-173.860	-0.143	0.004
-620.376	-94.385	0.095	0.026
-619.361	341.599	-0.110	0.218
-618.346	278.132	0.077	-0.139
-617.332	734.386	0.099	-0.268
-616.317	232.676	0.010	-0.016
-615.303	-120.509	0.219	-0.038
-614.288	19.225	0.238	0.192
-613.273	-42.841	0.147	-0.075
-612.259	158.139	-0.168	-0.235
-611.244	-161.417	0.264	0.014
-610.230	-35.268	0.309	0.170
-609.215	12.626	-0.223	0.173
-608.201	-83.684	0.159	-0.051
-607.186	-180.782	-0.204	-0.004
-606.171	-136.040	0.103	0.012
-605.157	800.000	-0.111	0.382
-604.142	481.515	0.044	-0.101
-603.128	195.562	0.263	-0.403
-602.113	458.402	0.121	0.270
-601.098	99.808	0.147	0.172
-600.084	-34.542	-0.131	0.072
-599.069	192.528	0.029	0.045
-598.055	800.000	-0.051	-0.208
-597.040	800.000	0.026	-0.086
-596.025	3.150	-0.221	-0.162
-595.011	800.000	0.054	-0.172
-593.996	432.349	0.109	-0.237
-592.982	-167.878	0.439	-0.017
-591.967	148.415	-0.057	0.077
-590.952	-122.784	0.277	0.045
-589.938	-15.728	0.166	0.107
-588.923	-200.000	0.034	-0.384
-587.909	800.000	0.099	-0.292
-586.894	-182.224	-0.196	0.004
-585.879	-200.000	0.018	0.213
-584.865	-200.000	-0.043	-0.282
-583.850	-200.000	0.015	-0.177
-582.836	-61.626	-0.118	-0.050
-581.821	161.570	0.063	0.088
-580.806	-200.000	0.011	-0.212
-579.792	-9.699	0.482	-0.323
-578.777	800.000	-0.026	-0.075
-577.763	129.086	-0.014	-0.018
-576.748	6.810	0.188	0.141
-575.733	0.184	0.348	0.250
-574.719	800.000	-0.060	-0.213
-573.704	22.220	-0.209	-0.172
-572.690	-74.914	0.223	-0.080
-571.675	-173.952	0.117	0.003
-570.661	72.245	-0.115	-0.121
-569.646	-200.000	-0.091	-0.427
-568.631	77.002	-0.060	-0.064
-567.617	-38.156	-0.237	-0.127
-566.602	-29.391	-0.096	-0.055
-565.588	-200.000	-0.001	-0.166
-564.573	-130.968	0.233	-0.031
-563.558	62.272	0.158	0.159
-562.544	-146.135	0.228	-0.020
-561.529	62.902	0.060	0.061
-560.515	-200.000	0.010	0.087
-559.500	-67.718	0.144	-0.057
-558.485	44.398	-0.136	0.126
-557.471	800.000	-0.076	-0.276
-556.456	47.930	-0.142	-0.133
-555.442	590.619	0.095	-0.237
-554.427	-29.365	0.160	0.092
-553.412	25.086	0.112	-0.094
-552.398	196.117	-0.124	0.190
-551.383	-170.531	-0.126	-0.004
-550.369	34.566	0.131	0.115
-549.354	241.228	0.171	0.288
-548.339	800.000	0.063	0.254
-547.325	-105.339	0.243	0.056
-546.310	90.194	-0.059	0.066
-545.296	800.000	-0.060	0.224
-544.281	-82.433	-0.104	-0.034
-543.266	-25.207	0.464	-0.277
-542.252	10.851	0.145	0.111
-541.237	96.946	-0.044	0.051
-540.223	800.000	-0.044	-0.180
-539.208	-85.639	0.039	0.012
-538.193	73.769	-0.219	-0.231
-537.179	35.709	0.205	-0.181
-536.164	-33.390	-0.440	0.245
-535.150	565.886	0.073	0.178
-534.135	-45.684	0.391	-0.194
-533.121	-165.888	-0.142	0.006
-532.106	37.864	0.079	0.071
-531.091	425.463	-0.059	-0.127
-530.077	88.212	-0.325	-0.363
-529.062	-41.542	0.380	-0.196
-528.048	357.363	0.083	-0.166
-527.033	-183.282	-0.239	0.004
-526.018	-110.777	0.357	-0.074
-525.004	-140.666	0.367	-0.038
-523.989	90.937	-0.169	0.190
-522.975	-122.171	-0.261	-0.043
-521.960	-141.624	0.199	0.020
-520.945	-105.092	-0.093	0.021
-519.931	-127.054	-0.122	0.018
-518.916	-130.386	-0.055	0.007
-517.902	12.902	0.154	-0.120
-516.887	-50.028	-0.082	-0.039
-515.872	800.000	-0.008	-0.028
-514.858	-105.289	-0.412	0.094
-513.843	89.993	-0.080	0.090
-512.829	-52.811	0.112	0.052
-511.814	800.000	-0.025	0.077
-510.799	222.401	-0.131	0.212
-509.785	800.000	0.028	0.109
-508.770	-111.038	-0.128	-0.026
-507.756	1.574	0.171	0.124
-506.741	83.154	0.159	0.174
-505.726	-66.326	0.095	-0.038
-504.712	32.303	-0.101	0.087
-503.697	-135.329	0.016	0.002
-502.683	-63.190	0.203	0.084
-501.668	81.753	0.356	0.387
-500.653	35.072	0.067	0.058
-499.639	-22.065	0.097	-0.059
-498.624	7.477	0.131	-0.098
-497.610	34.637	0.202	-0.177
-496.595	-0.493	-0.143	0.102
-495.581	747.629	0.029	0.079
-494.566	171.812	-0.159	-0.229
-493.551	-177.032	-0.146	0.004
-492.537	110.261	0.061	0.073
-491.522	-110.344	-0.209	-0.044
-490.508	-78.699	-0.264	0.091
-489.493	18.825	0.233	-0.188
-488.478	-132.615	0.290	-0.037
-487.464	-84.578	-0.305	-0.097
-486.449	-31.432	-0.055	0.031
-485.435	-74.384	0.188	0.068
-484.420	-17.554	0.182	0.115
-483.405	59.311	-0.212	0.209
-482.391	-200.000	0.056	-0.281
-481.376	-200.000	-0.037	-0.177
-480.362	-14.789	0.386	0.248
-479.347	-59.811	0.099	-0.043
-478.332	-45.790	-0.154	0.076
-477.318	800.000	0.062	-0.240
-476.303	-18.932	-0.194	0.121
-475.289	32.031	0.229	0.198
-474.274	-112.406	-0.155	0.031
-473.259	-46.268	-0.063	0.031
-472.245	-117.344	0.454	-0.083
-471.230	-200.000	-0.043	-0.314
-470.216	-200.000	0.000	-0.136
-469.201	497.070	0.153	-0.353
-468.186	-200.000	-0.055	-0.432
-467.172	193.166	-0.167	-0.254
-466.157	-60.108	0.137	0.059
-465.143	64.945	-0.316	-0.320
-464.128	-200.000	-0.059	-0.334
-463.113	800.000	0.072	-0.225
-462.099	-94.866	0.418	0.114
-461.084	800.000	0.101	0.441
-460.070	-200.000	-0.008	-0.355
-459.055	104.526	-0.158	-0.187
-458.040	-200.000	0.000	0.027
-457.026	-200.000	-0.025	-0.124
-456.011	-51.607	0.119	-0.056
-454.997	-110.833	-0.139	-0.029
-453.982	-121.689	0.388	0.064
-452.968	-200.000	-0.022	-0.104
-451.953	114.818	-0.141	0.173
-450.938	-200.000	-0.005	0.026
-449.924	3.477	-0.165	-0.121
-448.909	800.000	0.074	0.235
-447.895	8.124	0.203	-0.153
-446.880	800.000	-0.035	0.100
-445.865	11.201	0.132	0.101
-444.851	24.110	-0.152	0.126
-443.836	-79.482	0.016	0.005
-442.822	-67.146	0.275	-0.109
-441.807	269.770	0.170	0.300
-440.792	160.378	-0.258	0.361
-439.778	143.712	0.147	0.196
-438.763	-60.899	0.071	0.030
-437.749	-142.078	-0.294	-0.029
-436.734	762.872	-0.059	-0.160
-435.719	445.734	-0.123	-0.271
-434.705	17.909	-0.184	-0.146
-433.690	-94.994	-0.240	0.065
-432.676	707.521	-0.146	-0.387
-431.661	-122.752	0.400	0.065
-430.646	800.000	0.060	0.232
-429.632	-91.593	-0.085	-0.024
-428.617	128.925	0.078	0.099
-427.603	-200.000	-0.038	-0.198
-426.588	101.180	0.196	0.228
-425.573	-77.363	0.101	0.035
-424.559	-200.000	-0.015	0.162
-423.544	-110.409	0.189	0.039
-422.530	800.000	-0.090	0.291
-421.515	-58.731	0.223	-0.097
-420.500	119.071	-0.124	-0.154
-419.486	-200.000	-0.001	0.149
-418.471	800.000	0.027	0.084
-417.457	-48.205	-0.223	0.108
-416.442	-127.739	-0.125	-0.018
-415.428	387.677	0.083	-0.172
-414.413	800.000	-0.035	-0.131
-413.398	-32.613	-0.143	-0.080
-412.384	183.767	-0.248	0.366
-411.369	212.858	-0.056	-0.089
-410.355	-38.713	0.148	0.078
-409.340	163.628	-0.244	0.344
-408.325	-137.594	0.282	-0.032
-407.311	-200.000	-0.032	-0.243
-406.296	-200.000	-0.042	-0.225
-405.282	33.202	-0.240	-0.208
-404.267	-136.754	0.306	0.035
-403.252	312.716	0.071	-0.134
-402.238	-95.517	-0.136	0.036
-401.223	56.838	-0.111	0.108
-400.209	-200.000	0.018	-0.108
-399.194	20.027	0.451	0.364
-398.179	-95.240	0.089	0.024
-397.165	-99.470	0.351	0.088
-396.150	-200.000	-0.065	-0.383
-395.136	270.710	0.159	-0.280
-394.121	132.613	0.073	-0.094
-393.106	-200.000	-0.009	-0.042
-392.092	-200.000	0.073	0.383
-391.077	105.587	-0.253	0.298
-390.063	-200.000	0.001	0.149
-389.048	-68.187	0.130	-0.051
-388.033	-60.922	0.269	-0.114
-387.019	91.488	-0.033	0.037
-386.004	-28.058	-0.128	-0.074
-384.990	-31.805	0.276	0.155
-383.975	753.758	-0.044	0.118
-382.960	-1.955	0.157	0.110
-381.946	237.009	-0.069	0.114
-380.931	226.241	0.084	-0.136
-379.917	-200.000	-0.006	-0.308
-378.902	-29.484	-0.249	0.142
-377.888	-200.000	-0.047	0.327
-376.873	84.413	-0.082	0.090
-375.858	-73.510	0.300	-0.109
-374.844	34.628	0.189	-0.165
-373.829	-170.823	-0.195	-0.007
-372.815	18.560	-0.163	0.130
-371.800	800.000	-0.132	-0.438
-370.785	6.425	-0.123	0.091
-369.771	-121.694	0.416	-0.069
-368.756	-81.062	0.294	0.097
-367.742	246.680	-0.080	-0.135
-366.727	6.684	0.105	-0.078
-365.712	-109.048	-0.164	0.035
-364.698	460.761	0.100	0.222
-363.683	-140.192	0.289	-0.030
-362.669	40.822	0.303	0.273
-361.654	154.254	-0.069	0.095
-360.639	800.000	0.045	-0.156
-359.625	800.000	-0.080	-0.306
-358.610	800.000	0.095	0.325
-357.596	-200.000	-0.004	-0.145
-356.581	-200.000	0.030	0.285
-355.566	164.172	-0.141	0.198
-354.552	452.261	-0.102	0.226
-353.537	-120.965	-0.207	-0.035
-352.523	143.669	0.102	-0.135
-351.508	-113.827	-0.305	-0.059
-350.493	8.222	0.456	-0.342
-349.479	48.055	0.161	-0.150
-348.464	-30.644	-0.147	0.083
-347.450	48.215	-0.173	-0.161
-346.435	-70.473	-0.166	-0.063
-345.420	118.844	0.078	0.096
-344.406	800.000	0.048	-0.147
-343.391	-200.000	-0.026	0.171
-342.377	800.000	-0.018	0.060
-341.362	-85.987	0.102	-0.031
-340.348	-77.933	-0.352	-0.121
-339.333	133.106	-0.051	0.066
-338.318	-125.251	0.102	0.016
-337.304	-85.795	0.285	0.088
-336.289	-120.751	-0.071	-0.012
-335.275	-121.647	-0.237	0.039
-334.260	-200.000	0.034	0.269
-333.245	18.085	0.177	-0.140
-332.231	65.221	0.225	0.227
-331.216	-200.000	0.015	0.116
-330.202	97.926	0.337	-0.387
-329.187	-200.000	0.066	-0.290
-328.172	-147.611	-0.117	0.010
-327.158	-200.000	0.021	0.155
-326.143	-95.584	-0.183	0.049
-325.129	57.523	0.167	0.163
-324.114	-93.568	-0.156	-0.043
-323.099	2.232	0.056	0.040
-322.085	10.789	-0.136	-0.103
-321.070	800.000	0.053	0.169
-320.056	-144.005	0.028	-0.003
-319.041	-132.221	-0.498	0.064
-318.026	33.339	-0.182	-0.157
-317.012	-200.000	0.042	-0.233
-315.997	212.499	-0.094	0.148
-314.983	-28.770	-0.167	0.096
-313.968	170.394	-0.051	-0.073
-312.953	328.308	-0.044	-0.084
-311.939	-60.823	0.204	0.086
-310.924	-14.153	-0.304	0.196
-309.910	111.254	0.345	-0.415
-308.895	-29.387	-0.163	0.093
-307.880	-109.231	-0.090	0.019
-306.866	130.123	0.095	-0.122
-305.851	-200.000	-0.024	0.289
-304.837	86.558	0.189	0.208
-303.822	800.000	-0.057	-0.185
-302.807	531.307	0.052	-0.122
-301.793	253.884	-0.045	0.076
-300.778	800.000	0.042	-0.179
-299.764	58.083	-0.051	0.050
-298.749	800.000	-0.095	0.271
-297.735	6.115	-0.245	-0.181
-296.720	-49.488	0.300	0.142
-295.705	-200.000	0.014	-0.106
-294.691	-32.272	0.097	-0.054
-293.676	-31.846	-0.264	-0.148
-292.662	-129.739	0.358	-0.049
-291.647	71.141	-0.168	-0.173
-290.632	-200.000	-0.025	0.166
-289.618	-200.000	-0.040	-0.230
-288.603	-186.566	-0.030	0.000
-287.589	74.040	0.238	-0.249
-286.574	800.000	-0.066	-0.182
-285.559	-200.000	-0.006	0.182
-284.545	-25.677	0.170	-0.100
-283.530	177.595	-0.174	0.253
-282.516	-129.502	-0.271	0.037
-281.501	-67.404	-0.127	-0.050
-280.486	-186.354	0.329	0.005
-279.472	-101.061	-0.379	0.092
-278.457	188.908	-0.216	0.323
-277.443	-79.623	0.112	-0.037
-276.428	-7.236	-0.096	0.064
-275.413	29.731	-0.165	0.139
-274.399	800.000	-0.087	0.336
-273.384	-200.000	-0.036	0.212
-272.370	548.764	0.124	-0.295
-271.355	-51.838	0.137	-0.064
-270.340	-53.145	-0.093	0.042
-269.326	38.526	0.200	-0.177
-268.311	-106.463	-0.206	-0.046
-267.297	-160.647	0.152	0.008
-266.282	-91.075	0.048	-0.014
-265.267	-10.387	-0.325	0.214
-264.253	46.332	0.023	0.021
-263.238	-200.000	0.011	0.189
-262.224	497.556	0.098	-0.224
-261.209	-200.000	-0.026	-0.326
-260.195	-200.000	0.049	0.309
-259.180	25.434	-0.094	-0.077
-258.165	800.000	-0.052	-0.182
-257.151	-114.316	0.180	0.034
-256.136	-122.724	-0.153	0.025
-255.122	391.878	-0.078	0.162
-254.107	358.336	-0.200	0.398
-253.092	30.279	0.074	0.063
-252.078	-61.295	-0.090	-0.038
-251.063	-200.000	-0.023	-0.112
-250.049	14.655	-0.095	-0.073
-249.034	-91.072	-0.444	-0.127
-248.019	224.088	0.121	0.195
-247.005	-200.000	-0.003	-0.128
-245.990	135.044	0.106	-0.137
-244.976	-48.006	-0.525	-0.253
-243.961	-103.569	0.149	0.035
-242.946	-102.516	-0.116	0.027
-241.932	345.442	0.077	0.151
-240.917	-33.543	-0.169	-0.093
-239.903	530.808	-0.062	0.146
-238.888	393.402	0.142	-0.295
-237.873	-2.752	-0.244	0.170
-236.859	-153.875	-0.121	0.008
-235.844	74.881	0.061	0.064
-234.830	-110.855	0.110	0.023
-233.815	186.914	-0.095	-0.141
-232.800	800.000	0.044	0.142
-231.786	800.000	0.078	-0.307
-230.771	800.000	0.106	-0.301
-229.757	155.930	0.065	0.089
-228.742	488.734	-0.090	-0.204
-227.727	-93.414	0.105	0.029
-226.713	-18.485	-0.336	-0.208
-225.698	-109.366	0.261	0.055
-224.684	25.487	-0.177	-0.146
-223.669	66.063	0.140	-0.141
-222.655	231.570	0.090	0.146
-221.640	441.243	-0.220	0.477
-220.625	-200.000	-0.007	0.138
-219.611	647.902	0.091	-0.230
-218.596	-114.824	-0.098	0.019
-217.582	98.563	0.153	-0.175
-216.567	119.299	0.102	-0.125
-215.552	800.000	0.049	0.150
-214.538	-200.000	0.033	0.151
-213.523	-73.162	-0.141	0.051
-212.509	-21.516	0.157	-0.095
-211.494	201.270	-0.076	-0.117
-210.479	75.127	-0.216	0.226
-209.465	407.692	-0.132	0.278
-208.450	13.978	0.072	-0.055
-207.436	104.507	0.024	-0.028
-206.421	-200.000	0.043	0.473
-205.406	-143.905	0.017	0.002
-204.392	-14.008	-0.241	0.154
-203.377	97.254	-0.183	0.208
-202.363	-200.000	-0.035	0.385
-201.348	120.863	-0.023	-0.029
-200.333	-141.310	-0.339	-0.034
-199.319	800.000	-0.044	0.122
-198.304	28.938	-0.290	0.244
-197.290	-200.000	0.017	-0.293
-196.275	-32.062	-0.170	-0.095
-195.260	-26.654	-0.126	0.073
-194.246	-36.095	-0.207	-0.111
-193.231	-114.758	0.316	-0.060
-192.217	-148.739	0.038	-0.003
-191.202	800.000	0.016	0.061
-190.187	774.754	0.123	0.334
-189.173	-61.276	-0.285	0.119
-188.158	-200.000	-0.019	0.257
-187.144	-156.162	0.232	0.015
-186.129	-34.322	-0.471	-0.256
-185.114	-41.668	-0.094	-0.048
-184.100	28.299	-0.332	0.278
-183.085	-81.244	-0.207	-0.068
-182.071	-9.087	-0.036	0.024
-181.056	-55.252	-0.219	0.098
-180.042	154.317	-0.183	0.249
-179.027	-142.602	0.229	-0.022
-178.012	472.147	0.106	-0.236
-176.998	-8.275	-0.216	-0.144
-175.983	-67.510	0.475	0.185
-174.969	-200.000	0.002	-0.181
-173.954	192.490	-0.099	-0.148
-172.939	142.910	-0.051	-0.067
-171.925	-88.805	0.300	0.088
-170.910	-200.000	-0.002	-0.353
-169.896	-33.020	-0.361	-0.199
-168.881	-112.249	0.120	-0.024
-167.866	-200.000	-0.019	0.000
-166.852	60.412	0.101	0.099
-165.837	-88.211	-0.226	-0.067
-164.823	351.129	-0.191	0.374
-163.808	-200.000	0.045	0.275
-162.793	-12.999	-0.411	0.265
-161.779	1.603	0.149	-0.107
-160.764	-200.000	-0.042	0.241
-159.750	-200.000	0.043	0.204
-158.735	-187.383	-0.247	-0.003
-157.720	270.516	0.107	0.187
-156.706	-200.000	0.013	0.063
-155.691	-82.612	-0.132	-0.042
-154.677	-94.752	0.249	-0.067
-153.662	42.327	0.083	0.075
-152.647	-133.315	-0.220	0.027
-151.633	427.942	-0.156	0.334
-150.618	-200.000	0.050	-0.234
-149.604	218.678	0.169	-0.268
-148.589	-200.000	-0.015	-0.185
-147.574	-79.600	0.153	0.051
-146.560	-40.569	-0.401	-0.206
-145.545	-38.249	0.255	0.134
-144.531	-40.984	-0.094	-0.048
-143.516	84.054	0.182	0.197
-142.502	-200.000	-0.001	0.034
-141.487	-167.943	-0.433	0.017
-140.472	-200.000	-0.072	0.506
-139.458	800.000	0.046	-0.152
-138.443	412.906	-0.027	0.057
-137.429	246.393	-0.035	-0.058
-136.414	-200.000	-0.047	-0.256
-135.399	-200.000	0.026	0.206
-134.385	800.000	0.021	-0.068
-133.370	179.790	-0.235	-0.340
-132.356	-200.000	-0.020	-0.264
-131.341	800.000	-0.111	0.307
-130.326	-21.845	0.277	-0.167
-129.312	-77.496	-0.388	-0.133
-128.297	144.017	0.129	0.171
-127.283	-200.000	0.029	0.154
-126.268	109.961	0.215	0.256
-125.253	146.529	-0.220	-0.292
-124.239	-200.000	-0.002	-0.038
-123.224	-108.273	0.171	0.037
-122.210	800.000	0.017	-0.049
-121.195	-105.813	-0.189	0.042
-120.180	-200.000	0.063	-0.315
-119.166	-21.111	-0.175	0.106
-118.151	-17.872	-0.017	-0.011
-117.137	362.578	-0.059	-0.117
-116.122	800.000	-0.040	0.121
-115.107	-167.972	0.063	0.002
-114.093	-200.000	0.017	-0.110
-113.078	-126.477	0.041	0.006
-112.064	-55.733	0.128	0.057
-111.049	-200.000	0.005	-0.142
-110.034	-200.000	-0.001	-0.087
-109.020	159.228	0.153	0.210
-108.005	-91.303	0.089	0.025
-106.991	520.291	-0.071	-0.164
-105.976	800.000	0.052	-0.175
-104.962	65.870	0.079	-0.079
-103.947	-58.394	0.219	-0.094
-102.932	-200.000	0.001	0.023
-101.918	-90.358	-0.092	0.027
-100.903	272.117	0.108	-0.189
-99.889	-37.615	-0.169	0.089
-98.874	-113.726	0.394	-0.076
-97.859	-200.000	0.040	0.611
-96.845	27.837	-0.135	-0.112
-95.830	174.084	0.134	0.192
-94.816	800.000	0.078	-0.229
-93.801	800.000	0.044	0.134
-92.786	778.375	0.056	-0.151
-91.772	-200.000	-0.011	0.222
-90.757	-23.053	-0.162	0.096
-89.743	77.480	-0.036	0.038
-88.728	-26.934	-0.102	0.059
-87.713	-4.382	0.351	0.240
-86.699	47.035	0.104	0.096
-85.684	-168.473	-0.067	-0.003
-84.670	-22.871	0.352	0.210
-83.655	37.584	0.120	-0.105
-82.640	11.058	0.194	0.146
-81.626	-200.000	0.078	-0.421
-80.611	109.593	-0.138	-0.163
-79.597	-200.000	-0.011	0.154
-78.582	800.000	0.084	0.303
-77.567	-98.610	0.082	0.021
-76.553	-200.000	-0.001	0.204
-75.538	-133.888	-0.079	-0.010
-74.524	800.000	-0.119	0.390
-73.509	-76.896	0.299	0.103
-72.494	278.321	0.093	0.164
-71.480	99.292	-0.128	-0.146
-70.465	-55.914	0.267	0.118
-69.451	56.342	-0.042	0.040
-68.436	800.000	0.116	0.364
-67.422	18.103	-0.045	-0.036
-66.407	-94.025	-0.102	0.028
-65.392	800.000	-0.109	-0.298
-64.378	3.565	0.194	-0.139
-63.363	-56.752	-0.267	0.116
-62.349	-177.481	0.014	0.000
-61.334	44.977	-0.820	-0.746
-60.319	104.791	0.414	0.481
-59.305	800.000	-0.226	-0.890
-58.290	800.000	0.331	1.107
-57.276	404.263	0.798	1.660
-56.261	-200.000	97.443	595.485
-55.246	615.774	1426.368	3529.219
-54.232	184.608	2625.184	3839.188
-53.217	118.336	2206.352	2685.596
-52.203	43.227	1738.239	1565.935
-51.188	35.902	1549.717	1345.098
-50.173	33.445	1523.500	1305.385
-49.159	52.713	1571.872	1482.033
-48.144	54.851	1590.126	1514.137
-47.130	36.031	1549.152	1345.292
-46.115	32.858	1534.112	1310.194
-45.100	32.745	1530.690	1306.436
-44.086	32.715	1528.492	1304.302
-43.071	32.687	1526.587	1302.427
-42.057	32.637	1525.173	1300.829
-41.042	32.737	1523.375	1299.929
-40.027	32.715	1522.137	1298.671
-39.013	32.718	1520.558	1297.295
-37.998	32.719	1519.385	1296.247
-36.984	32.680	1518.563	1295.231
-35.969	32.612	1517.420	1293.737
-34.954	32.740	1515.616	1293.025
-33.940	32.761	1513.915	1291.668
-32.925	32.745	1512.943	1290.671
-31.911	32.734	1511.174	1289.036
-30.896	32.783	1509.886	1288.221
-29.881	32.698	1508.744	1286.619
-28.867	32.808	1507.047	1285.868
-27.852	32.788	1505.413	1284.289
-26.838	32.745	1504.447	1283.118
-25.823	32.789	1502.914	1282.059
-24.809	32.718	1501.127	1280.008
-23.794	32.727	1500.044	1279.088
-22.779	32.668	1498.641	1277.442
-21.765	32.743	1497.211	1276.680
-20.750	32.639	1496.349	1275.195
-19.736	32.732	1495.062	1274.677
-18.721	32.654	1494.012	1273.204
-17.706	32.689	1493.016	1272.540
-16.692	32.666	1492.089	1271.540
-15.677	32.657	1491.294	1270.752
-14.663	32.542	1490.449	1269.206
-13.648	32.645	1489.380	1268.944
-12.633	32.621	1488.569	1268.036
-11.619	32.688	1487.540	1267.560
-10.604	32.711	1486.416	1266.709
-9.590	32.646	1485.975	1265.843
-8.575	32.640	1484.804	1264.756
-7.560	32.702	1484.129	1264.545
-6.546	32.669	1483.310	1263.580
-5.531	32.527	1482.724	1262.076
-4.517	32.616	1481.374	1261.477
-3.502	32.586	1480.496	1260.479
-2.487	32.662	1479.358	1259.968
-1.473	32.613	1478.126	1258.540
-0.458	32.698	1476.522	1257.694
0.556	34.554	1467.621	1247.979
1.571	31.752	1441.738	1207.831
2.586	28.217	1379.497	1133.733
3.600	26.429	1296.531	1055.035
4.615	24.230	1249.717	1004.471
5.629	20.309	1191.939	936.825
6.644	11.948	1106.574	827.583
7.659	5.505	1065.557	765.405
8.673	4.692	1059.409	756.966
9.688	4.301	1056.758	753.107
10.702	4.180	1054.748	751.022
11.717	4.247	1053.941	750.704
12.731	7.460	1056.493	768.023
13.746	15.857	1068.554	817.676
14.761	21.701	1075.550	851.442
15.775	22.046	1074.827	852.471
16.790	21.400	1073.525	848.232
17.804	20.437	1070.919	841.435
18.819	19.558	1069.626	836.088
19.834	19.098	1068.246	832.712
20.848	18.943	1067.305	831.153
21.863	18.742	1067.367	830.159
22.877	18.767	1066.152	829.258
23.892	18.530	1065.331	827.403
24.907	18.484	1064.558	826.508
25.921	18.256	1063.841	824.780
26.936	18.376	1063.122	824.726
27.950	18.458	1061.425	823.731
28.965	18.363	1060.730	822.666
29.980	18.587	1059.430	822.658
30.994	18.605	1058.723	822.124
32.009	18.799	1057.688	822.175
33.023	18.794	1057.563	821.981
34.038	18.815	1056.545	821.217
35.053	18.712	1055.901	820.150
36.067	18.624	1054.588	818.641
37.082	18.509	1053.445	817.131
38.096	18.517	1052.890	816.668
39.111	18.689	1052.205	816.880
40.126	18.601	1051.552	815.885
41.140	18.589	1050.345	814.819
42.155	18.323	1049.226	812.616
43.169	18.168	1047.933	810.808
44.184	18.160	1046.373	809.492
45.199	18.179	1045.249	808.638
46.213	18.138	1044.701	807.953
47.228	18.180	1044.001	807.537
48.242	18.429	1043.675	808.386
49.257	18.523	1042.600	807.927
50.271	18.462	1041.498	806.714
51.286	18.546	1040.805	806.503
52.301	18.557	1040.275	806.072
53.315	18.585	1039.800	805.761
54.330	18.573	1038.249	804.434
55.344	18.240	1037.792	802.447
56.359	18.327	1035.982	801.383
57.374	18.298	1035.232	800.595
58.388	18.180	1034.849	799.679
59.403	18.211	1033.812	798.951
60.417	18.121	1033.093	797.905
61.432	17.963	1032.685	796.781
62.447	18.168	1031.458	796.718
63.461	18.065	1030.592	795.500
64.476	17.955	1029.846	794.344
65.490	17.936	1029.012	793.541
66.505	17.928	1027.918	792.591
67.520	17.929	1027.214	791.982
68.534	17.969	1026.211	791.325
69.549	18.069	1025.338	791.044
70.563	17.950	1024.784	789.998
71.578	17.866	1024.413	789.250
72.593	17.773	1023.308	787.900
73.607	17.768	1021.978	786.786
74.622	17.644	1021.216	785.557
75.636	17.679	1020.466	785.070
76.651	17.749	1020.078	785.023
77.666	17.747	1019.125	784.213
78.680	17.735	1018.408	783.536
79.695	17.965	1017.650	783.940
80.709	17.847	1017.292	783.054
81.724	17.984	1016.701	783.158
82.739	18.163	1015.697	783.134
83.753	18.219	1014.945	782.743
84.768	18.343	1014.588	782.962
85.782	18.676	1014.120	784.054
86.797	18.855	1013.544	784.360
87.812	18.769	1012.701	783.243
88.826	18.716	1011.557	782.046
89.841	18.544	1010.769	780.588
90.855	18.716	1009.900	780.628
91.870	18.717	1009.029	779.890
92.884	18.886	1008.368	780.077
93.899	18.754	1007.752	778.932
94.914	18.672	1007.571	778.355
95.928	18.800	1007.098	778.497
96.943	18.825	1005.641	777.416
97.957	18.921	1004.204	776.671
98.972	18.719	1003.888	775.445
99.987	18.799	1002.759	774.866
101.001	18.791	1001.966	774.149
102.016	18.676	1001.623	773.298
103.030	18.698	1000.059	772.119
104.045	18.684	999.732	771.735
105.060	18.784	998.108	770.862
106.074	18.632	997.526	769.665
107.089	18.346	996.737	767.706
108.103	18.198	995.712	766.183
109.118	18.041	994.569	764.532
110.133	18.005	993.896	763.791
111.147	18.023	992.588	762.798
112.162	17.981	992.156	762.208
113.176	18.022	990.435	761.005
114.191	18.231	990.198	761.682
115.206	18.289	989.501	761.338
116.220	18.340	988.578	760.785
117.235	18.154	987.620	759.157
118.249	18.122	986.754	758.285
119.264	18.129	985.768	757.487
120.279	18.005	984.985	756.271
121.293	18.032	984.145	755.681
122.308	18.009	983.647	755.128
123.322	17.891	982.663	753.783
124.337	17.792	981.664	752.515
125.352	17.629	980.715	751.001
126.366	17.742	979.308	750.354
127.381	17.851	977.980	749.750
128.395	17.739	977.253	748.637
129.410	17.730	976.550	747.993
130.424	18.052	975.159	748.271
131.439	17.967	974.988	747.702
132.454	18.027	974.337	747.396
133.468	18.229	973.631	747.674
134.483	18.096	973.267	746.744
135.497	18.236	972.060	746.364
136.512	18.202	971.588	745.786
137.527	18.225	970.704	745.143
138.541	18.158	970.268	744.451
139.556	18.234	969.719	744.295
140.570	18.085	968.809	742.885
141.585	18.398	967.885	743.467
142.600	18.669	967.248	744.086
143.614	18.710	966.433	743.574
144.629	18.655	965.995	742.930
145.643	18.871	965.434	743.371
146.658	18.847	964.297	742.323
147.673	18.495	963.733	740.306
148.687	18.535	962.302	739.314
149.702	18.337	961.707	737.935
150.716	18.283	960.869	736.995
151.731	18.058	960.245	735.482
152.746	18.225	958.964	735.156
153.760	18.153	958.171	734.171
154.775	18.378	957.247	734.363
155.789	18.437	956.620	734.072
156.804	18.443	956.195	733.705
157.819	18.335	955.587	732.714
158.833	18.513	954.894	732.875
159.848	18.685	954.196	733.009
160.862	18.821	953.558	733.037
161.877	18.809	953.066	732.542
162.892	18.504	951.965	730.334
163.906	18.364	950.726	728.720
164.921	18.155	950.029	727.231
165.935	18.129	949.115	726.360
166.950	18.349	947.608	726.074
167.964	18.415	946.673	725.572
168.979	18.518	945.786	725.266
169.994	18.435	944.662	723.989
171.008	18.280	944.042	722.795
172.023	18.366	943.223	722.467
173.037	18.602	942.432	722.792
174.052	18.696	941.926	722.735
175.067	18.666	941.637	722.325
176.081	18.559	939.990	720.548
177.096	18.218	939.183	718.434
178.110	18.195	938.498	717.749
179.125	18.364	937.578	717.690
180.140	18.392	936.898	717.221
181.154	18.301	936.592	716.545
182.169	18.575	935.848	717.058
183.183	18.730	935.057	717.034
184.198	18.739	934.580	716.642
185.213	18.651	934.263	715.970
186.227	18.582	933.617	715.123
187.242	18.672	933.343	715.224
188.256	18.913	932.555	715.562
189.271	18.985	931.459	714.958
190.286	18.982	930.835	714.403
191.300	18.689	930.182	712.623
192.315	18.245	928.943	709.766
193.329	18.122	928.128	708.572
194.344	18.043	927.268	707.527
195.359	18.254	927.179	708.271
196.373	18.435	926.919	708.756
197.388	18.459	926.142	708.200
198.402	18.692	925.906	708.920
199.417	18.882	925.601	709.405
200.432	19.163	925.165	710.169
201.446	19.200	924.450	709.712
202.461	19.234	924.577	709.882
203.475	19.417	923.746	709.936
204.490	19.113	923.731	708.609
205.504	19.078	921.965	707.048
206.519	19.046	920.976	706.096
207.534	18.774	920.396	704.475
208.548	18.752	919.689	703.779
209.563	18.845	918.876	703.478
210.577	18.848	918.294	702.982
211.592	18.982	917.576	702.919
212.607	18.988	917.507	702.826
213.621	19.209	916.850	703.163
214.636	19.199	916.104	702.490
215.650	19.028	915.469	701.242
216.665	19.081	914.902	700.961
217.680	19.087	914.476	700.599
218.694	19.158	914.262	700.663
219.709	19.348	913.395	700.706
220.723	19.318	913.028	700.242
221.738	19.064	912.345	698.624
222.753	19.191	911.383	698.344
223.767	19.091	910.569	697.250
224.782	19.247	909.940	697.339
225.796	19.234	909.641	696.994
226.811	19.555	908.352	697.244
227.826	19.311	908.029	695.948
228.840	19.154	907.096	694.537
229.855	19.241	906.439	694.326
230.869	19.167	905.989	693.620
231.884	19.099	905.031	692.550
232.899	19.122	904.268	692.000
233.913	19.004	903.702	691.029
234.928	18.920	902.653	689.831
235.942	18.962	902.046	689.475
236.957	18.808	901.253	688.189
237.972	18.903	900.696	688.085
238.986	19.092	900.108	688.331
240.001	18.937	899.693	687.333
241.015	18.823	898.894	686.204
242.030	19.087	897.946	686.472
243.045	19.124	897.656	686.339
244.059	19.068	897.485	685.924
245.074	19.075	896.736	685.320
246.088	19.285	895.849	685.416
247.103	19.322	895.866	685.514
248.117	19.496	894.982	685.469
249.132	19.466	894.834	685.176
250.147	19.728	894.331	685.768
251.161	19.963	893.848	686.269
252.176	20.023	893.261	685.995
253.190	19.975	892.491	685.154
254.205	20.105	892.305	685.468
255.220	20.154	891.309	684.833
256.234	20.195	890.872	684.600
257.249	20.025	890.155	683.317
258.263	19.999	889.898	682.956
259.278	20.039	888.821	682.227
260.293	20.061	888.301	681.856
261.307	20.167	888.067	682.031
262.322	20.169	887.053	681.202
263.336	20.165	886.704	680.857
264.351	20.262	885.985	680.624
265.366	20.349	885.442	680.489
266.380	20.290	884.795	679.700
267.395	20.301	883.952	679.033
268.409	20.129	883.355	677.842
269.424	20.094	882.354	676.877
270.439	20.063	882.167	676.555
271.453	20.049	881.427	675.871
272.468	19.953	880.327	674.596
273.482	19.863	879.802	673.781
274.497	19.885	879.426	673.522
275.512	19.875	878.480	672.697
276.526	19.842	877.634	671.863
277.541	19.917	877.152	671.725
278.555	19.996	876.756	671.668
279.570	20.067	876.123	671.400
280.585	20.349	875.794	672.178
281.599	20.475	875.050	672.037
282.614	20.361	874.420	671.053
283.628	20.264	873.466	669.888
284.643	20.195	872.779	669.036
285.657	20.145	872.618	668.660
286.672	19.988	872.155	667.640
287.687	20.185	871.418	667.774
288.701	20.207	870.781	667.315
289.716	20.144	870.667	666.922
290.730	20.268	869.672	666.580
291.745	20.185	869.182	665.827
292.760	20.321	868.406	665.696
293.774	20.269	868.091	665.194
294.789	20.420	867.491	665.255
295.803	20.531	866.882	665.153
296.818	20.360	866.072	663.819
297.833	20.218	865.518	662.791
298.847	20.030	864.942	661.575
299.862	20.229	864.005	661.560
300.876	20.328	863.390	661.407
301.891	20.364	863.177	661.323
302.906	20.489	862.506	661.224
303.920	20.670	861.595	661.155
304.935	20.737	860.884	660.805
305.949	20.931	860.644	661.302
306.964	20.762	860.288	660.329
307.979	20.566	859.460	658.893
308.993	20.504	858.943	658.201
310.008	20.607	858.413	658.127
311.022	20.715	857.901	658.086
312.037	20.622	857.563	657.415
313.052	20.380	856.825	655.878
314.066	20.250	855.861	654.590
315.081	20.203	855.172	653.831
316.095	20.301	854.339	653.503
317.110	20.318	853.832	653.122
318.125	20.260	853.610	652.677
319.139	20.209	853.355	652.230
320.154	20.330	852.503	651.975
321.168	20.198	851.764	650.858
322.183	20.358	851.182	650.956
323.197	20.459	851.014	651.151
324.212	20.358	850.787	650.539
325.227	20.517	849.683	650.231
326.241	20.493	849.469	649.922
327.256	20.300	848.817	648.643
328.270	20.410	847.906	648.301
329.285	20.340	847.611	647.758
330.300	20.286	847.031	647.056
331.314	20.244	846.829	646.686
332.329	20.414	845.958	646.596
333.343	20.397	845.461	646.099
334.358	20.636	844.875	646.482
335.373	20.716	844.418	646.370
336.387	20.622	843.851	645.532
337.402	20.705	843.736	645.694
338.416	20.801	842.908	645.358
339.431	20.853	842.485	645.169
340.446	21.114	841.774	645.533
341.460	21.253	841.346	645.664
342.475	21.131	841.039	644.919
343.489	21.197	840.357	644.582
344.504	21.144	840.077	644.117
345.519	21.305	839.203	643.981
346.533	21.383	838.942	644.013
347.548	21.473	838.392	643.865
348.562	21.149	837.725	642.104
349.577	21.062	836.846	641.052
350.592	20.863	836.260	639.814
351.606	20.683	835.760	638.714
352.621	20.754	835.142	638.448
353.635	20.810	834.577	638.165
354.650	20.863	834.209	638.021
355.665	20.864	834.220	637.976
356.679	21.033	833.526	638.009
357.694	21.058	833.319	637.883
358.708	21.056	832.475	637.175
359.723	21.118	831.752	636.791
360.738	21.096	831.346	636.344
361.752	21.086	830.724	635.773
362.767	21.151	830.541	635.816
363.781	21.188	830.393	635.781
364.796	21.273	830.006	635.738
365.810	21.459	829.789	636.190
366.825	21.593	829.387	636.315
367.840	21.715	828.814	636.261
368.854	21.763	828.208	635.915
369.869	21.460	827.933	634.547
370.883	21.497	827.246	634.098
371.898	21.507	826.404	633.433
372.913	21.487	825.987	632.983
373.927	21.480	825.634	632.633
374.942	21.505	824.346	631.681
375.956	21.532	824.069	631.509
376.971	21.477	823.800	631.051
377.986	21.745	823.210	631.509
379.000	21.807	823.025	631.535
380.015	21.937	822.455	631.509
381.029	21.759	821.887	630.374
382.044	21.691	821.031	629.417
383.059	21.804	820.573	629.419
384.073	21.726	819.987	628.632
385.088	21.799	819.209	628.242
386.102	21.568	818.446	626.774
387.117	21.347	818.062	625.633
388.132	21.506	816.810	625.189
389.146	21.467	816.936	625.092
390.161	21.361	816.733	624.502
391.175	21.530	816.673	625.005
392.190	21.764	815.958	625.238
393.205	21.691	815.468	624.547
394.219	21.576	814.895	623.642
395.234	21.444	814.327	622.681
396.248	21.341	813.877	621.917
397.263	21.290	813.232	621.188
398.278	21.261	812.812	620.709
399.292	21.248	812.241	620.171
400.307	21.309	811.519	619.781
401.321	21.433	811.108	619.853
402.336	21.327	811.000	619.339
403.350	21.405	810.759	619.379
404.365	21.510	810.695	619.644
405.380	21.682	810.119	619.759
406.394	21.710	809.667	619.457
407.409	21.918	809.300	619.857
408.423	21.913	808.740	619.356
409.438	21.984	808.319	619.230
410.453	22.029	808.074	619.145
411.467	22.252	807.276	619.265
412.482	22.246	806.982	618.961
413.496	22.245	806.332	618.404
414.511	22.399	806.390	618.935
415.526	22.408	806.085	618.679
416.540	22.291	805.396	617.686
417.555	22.152	805.272	617.046
418.569	22.141	804.512	616.371
419.584	22.229	803.630	615.949
420.599	22.325	803.106	615.829
421.613	160.438	1368.871	1791.988
422.628	139.416	1451.311	1792.129
