DTS Sentinel unit serial number:	SN413079Multiplexer serial number:	ORYXHardware model number:	OX4-SRSoftware version number:	ORYX F/W v4.00 Oryx Data Collector v3.7.2.0data status	okinstallation	princeton_trtdifferential loss correction	single-endedforward channel	channel 3reverse channel	N/Adate	2019/09/12time	18:42:04forward acquisition time	15.00reverse acquisition time	0.00gamma	496.2192k internal	0.2318k external	0.2318temperature offset calibration	1.0090default loss term (dB/km)	0.3790temperature slope calibration	1.0000multiplexer offset coefficient	1.0000multiplexer slope coefficient	1.0000fibre end	0.00T internal ref (°C)	33.06T ext. ref 1 (°C)	2.95T ext. ref 2 (°C)	27.64length (m)	temperature (°C)	Stokes	anti-Stokes-747.200	459.517	0.195	0.440
-746.185	671.915	0.088	0.231
-745.171	-200.000	-0.063	-0.398
-744.156	77.538	0.239	0.257
-743.142	-58.384	-0.727	0.320
-742.127	-200.000	-0.012	0.442
-741.112	-170.494	-0.346	-0.012
-740.098	-200.000	0.049	-0.264
-739.083	104.170	-0.138	-0.164
-738.069	347.915	0.083	-0.165
-737.054	231.318	0.087	0.144
-736.039	-119.935	-0.749	-0.130
-735.025	797.239	0.177	-0.493
-734.010	2.308	-0.274	-0.200
-732.996	-102.688	-0.123	-0.030
-731.981	-42.566	-0.218	-0.112
-730.966	-149.114	-0.586	0.048
-729.952	-200.000	-0.255	-1.165
-728.937	282.900	0.219	-0.398
-727.923	-99.119	-0.611	-0.156
-726.908	78.457	0.528	-0.570
-725.894	-200.000	0.030	0.208
-724.879	-112.858	-0.747	-0.150
-723.864	-73.050	0.427	0.159
-722.850	-148.639	-0.180	-0.015
-721.835	-163.749	-0.166	-0.008
-720.821	550.901	-0.335	0.813
-719.806	-40.529	-0.448	0.235
-718.791	-200.000	-0.002	0.076
-717.777	-200.000	0.002	-0.418
-716.762	448.999	0.113	0.252
-715.748	800.000	-0.067	-0.224
-714.733	503.888	0.217	-0.507
-713.718	28.343	-0.406	-0.347
-712.704	89.998	0.185	0.209
-711.689	-200.000	-0.035	-1.075
-710.675	800.000	-0.088	0.372
-709.660	800.000	-0.045	-0.193
-708.645	19.078	0.475	0.385
-707.631	-146.269	-0.005	-0.000
-706.616	-115.207	-0.573	-0.110
-705.602	-131.328	0.293	0.039
-704.587	-80.790	-0.428	-0.144
-703.572	-69.557	-1.011	0.391
-702.558	-66.162	-1.229	0.495
-701.543	-77.273	-0.668	0.235
-700.529	-146.109	-1.040	-0.093
-699.514	-200.000	0.021	-0.206
-698.499	-200.000	0.010	-0.123
-697.485	680.930	0.229	-0.604
-696.470	-200.000	0.070	-0.732
-695.456	-125.695	0.486	0.074
-694.441	-28.398	-0.879	0.512
-693.426	166.005	-0.442	-0.633
-692.412	-200.000	0.021	0.443
-691.397	-127.991	0.512	0.074
-690.383	-200.000	-0.100	0.697
-689.368	172.912	-0.069	0.101
-688.354	-20.557	-0.103	0.064
-687.339	-125.309	0.482	0.074
-686.324	110.059	-0.180	-0.218
-685.310	-44.261	-0.581	0.294
-684.295	177.588	-0.375	-0.552
-683.281	-200.000	0.012	0.345
-682.266	800.000	-0.253	0.962
-681.251	-95.716	-0.572	-0.154
-680.237	116.984	0.103	0.128
-679.222	128.797	-0.224	-0.288
-678.208	-143.269	0.606	-0.059
-677.193	734.123	0.234	-0.632
-676.178	49.463	0.551	-0.524
-675.164	-200.000	0.074	-0.418
-674.149	54.055	0.392	-0.381
-673.135	327.760	0.290	-0.561
-672.120	-200.000	-0.105	-0.545
-671.105	-72.010	-1.092	0.410
-670.091	176.475	-0.535	0.784
-669.076	-67.552	0.583	-0.231
-668.062	-200.000	0.068	0.611
-667.047	-200.000	-0.005	0.417
-666.032	-32.883	-0.244	0.137
-665.018	-26.338	-0.572	-0.338
-664.003	25.201	0.579	0.485
-662.989	270.160	-0.148	-0.263
-661.974	-200.000	-0.107	-0.594
-660.959	346.122	-0.258	-0.512
-659.945	-200.000	-0.125	-0.836
-658.930	-51.268	-0.398	-0.188
-657.916	-30.891	0.465	-0.265
-656.901	-57.451	0.283	0.125
-655.886	-18.582	0.717	0.451
-654.872	-1.112	0.344	-0.245
-653.857	-108.719	1.084	0.234
-652.843	92.568	-0.567	-0.645
-651.828	-6.333	0.513	0.353
-650.814	319.021	-0.240	0.458
-649.799	-125.486	-0.252	-0.039
-648.784	-55.416	0.475	-0.215
-647.770	800.000	-0.088	-0.309
-646.755	27.083	-0.224	0.190
-645.741	-95.920	-0.288	0.077
-644.726	-200.000	0.083	-0.592
-643.711	-117.361	-1.508	-0.276
-642.697	-79.762	-0.250	0.085
-641.682	104.821	-0.284	0.338
-640.668	42.522	0.396	0.363
-639.653	-137.258	0.627	0.072
-638.638	800.000	0.124	0.376
-637.624	-45.222	0.356	0.178
-636.609	-86.472	0.505	-0.156
-635.595	274.508	-0.199	-0.356
-634.580	-200.000	0.051	0.235
-633.565	84.328	0.353	-0.389
-632.551	55.915	-0.411	-0.401
-631.536	67.965	-0.350	-0.360
-630.522	26.989	0.488	-0.412
-629.507	36.163	-0.489	0.434
-628.492	800.000	-0.336	-1.094
-627.478	181.948	-0.420	-0.623
-626.463	17.387	0.239	-0.191
-625.449	28.543	0.908	-0.774
-624.434	-200.000	0.064	0.474
-623.419	0.862	1.124	0.811
-622.405	-83.987	0.467	0.149
-621.390	-200.000	-0.019	-0.245
-620.376	-99.025	-0.388	-0.099
-619.361	-200.000	-0.135	-0.806
-618.346	-200.000	0.174	1.251
-617.332	-10.774	0.453	-0.301
-616.317	35.245	0.281	0.248
-615.303	-155.850	-0.099	-0.006
-614.288	800.000	0.140	0.463
-613.273	-56.043	-0.190	0.085
-612.259	134.941	-0.305	-0.399
-611.244	227.653	-0.189	0.309
-610.230	238.210	-0.592	0.989
-609.215	-200.000	-0.041	-0.329
-608.201	-19.003	0.693	-0.434
-607.186	-95.265	0.428	-0.116
-606.171	181.839	0.186	-0.276
-605.157	157.067	-0.220	-0.307
-604.142	214.755	0.364	0.580
-603.128	-154.698	-0.339	-0.023
-602.113	-101.556	0.487	-0.119
-601.098	-109.426	0.303	-0.065
-600.084	-63.046	-0.550	0.229
-599.069	-123.913	-0.552	-0.088
-598.055	91.199	-0.768	-0.868
-597.040	-200.000	-0.022	-0.421
-596.025	-114.479	-0.754	-0.146
-595.011	382.615	-0.030	-0.062
-593.996	-145.768	0.261	-0.023
-592.982	-81.310	0.655	0.217
-591.967	141.489	0.592	0.789
-590.952	-19.497	0.345	-0.215
-589.938	248.987	-0.526	0.897
-588.923	-200.000	-0.028	0.243
-587.909	-92.153	0.650	-0.185
-586.894	-19.944	-0.867	-0.538
-585.879	800.000	-0.250	0.858
-584.865	114.751	0.429	-0.526
-583.850	-32.161	0.377	-0.212
-582.836	-137.827	0.557	-0.063
-581.821	-200.000	-0.125	0.829
-580.806	-136.430	0.662	-0.077
-579.792	-90.425	-0.383	0.112
-578.777	-100.850	-1.012	0.250
-577.763	-200.000	0.013	0.754
-576.748	-200.000	0.070	-0.445
-575.733	16.379	0.777	-0.616
-574.719	127.755	-0.735	0.939
-573.704	-27.433	-0.861	-0.503
-572.690	13.766	-0.199	0.156
-571.675	-108.270	0.457	0.099
-570.661	-180.871	0.970	-0.020
-569.646	-49.443	-0.646	0.310
-568.631	359.577	-0.464	0.933
-567.617	-163.220	0.191	0.009
-566.602	-113.176	-0.402	-0.080
-565.588	219.424	0.398	0.641
-564.573	-200.000	-0.011	-0.442
-563.558	-200.000	0.063	-0.453
-562.544	-200.000	0.069	0.335
-561.529	-24.709	0.528	-0.315
-560.515	19.957	-0.199	0.161
-559.500	-114.062	-0.692	0.135
-558.485	148.375	-0.371	-0.504
-557.471	-33.472	-0.374	-0.208
-556.456	-24.069	0.266	0.160
-555.442	417.976	-0.285	0.612
-554.427	37.997	-0.271	-0.242
-553.412	-81.158	0.095	-0.032
-552.398	-124.884	-0.812	0.126
-551.383	320.386	-0.191	0.365
-550.369	800.000	-0.259	-0.794
-549.354	15.406	0.207	0.163
-548.339	271.259	-0.219	-0.388
-547.325	-134.894	0.433	0.053
-546.310	-174.685	-0.916	0.026
-545.296	800.000	-0.056	0.222
-544.281	90.159	0.316	0.354
-543.266	-113.644	-0.609	0.119
-542.252	-164.614	0.650	0.030
-541.237	800.000	-0.118	-0.396
-540.223	-60.434	0.790	0.337
-539.208	-69.439	0.280	-0.108
-538.193	-100.415	-0.447	-0.111
-537.179	800.000	-0.047	-0.156
-536.164	296.065	-0.368	-0.676
-535.150	-200.000	0.045	-0.418
-534.135	51.750	0.653	0.624
-533.121	7.429	-0.538	-0.404
-532.106	-135.049	-0.551	0.067
-531.091	-200.000	0.025	0.178
-530.077	75.611	0.359	0.381
-529.062	621.496	0.113	-0.285
-528.048	-200.000	-0.042	0.315
-527.033	800.000	0.137	-0.419
-526.018	800.000	-0.177	0.693
-525.004	31.321	0.312	0.269
-523.989	-200.000	0.005	0.105
-522.975	557.542	0.123	0.297
-521.960	91.211	-0.698	-0.786
-520.945	41.111	0.604	-0.547
-519.931	-94.415	0.340	-0.093
-518.916	-87.312	-0.793	0.241
-517.902	-200.000	0.033	-0.528
-516.887	-107.430	1.008	0.222
-515.872	800.000	-0.094	-0.263
-514.858	591.081	-0.259	-0.640
-513.843	70.971	0.485	0.504
-512.829	-126.768	-0.158	0.023
-511.814	-175.711	0.706	-0.019
-510.799	177.362	0.530	-0.774
-509.785	-112.005	0.608	0.123
-508.770	43.547	-0.284	0.261
-507.756	-3.291	0.362	-0.253
-506.741	-58.505	0.652	-0.284
-505.726	-145.161	0.106	-0.010
-504.712	-84.116	0.516	-0.164
-503.697	-200.000	0.002	0.457
-502.683	247.270	0.435	-0.736
-501.668	-59.257	-0.660	-0.285
-500.653	195.638	-0.374	0.570
-499.639	-15.412	0.255	0.164
-498.624	-52.022	-0.141	-0.066
-497.610	144.936	-0.335	-0.449
-496.595	169.568	0.260	-0.372
-495.581	-65.946	0.482	0.193
-494.566	27.440	0.389	0.328
-493.551	137.930	0.341	-0.448
-492.537	-46.226	-0.562	-0.277
-491.522	-176.453	-0.926	-0.024
-490.508	800.000	0.181	-0.515
-489.493	482.041	0.223	-0.507
-488.478	-200.000	0.044	0.268
-487.464	-200.000	0.037	-0.493
-486.449	-41.278	0.648	-0.334
-485.435	96.823	0.242	-0.278
-484.420	-130.464	-0.828	0.112
-483.405	800.000	0.018	0.056
-482.391	-76.554	-0.372	0.131
-481.376	-8.456	-0.191	-0.129
-480.362	-111.884	0.604	-0.122
-479.347	-90.547	0.441	0.128
-478.332	367.458	0.448	-0.906
-477.318	-119.208	-1.282	0.224
-476.303	178.595	0.220	-0.321
-475.289	-121.840	0.971	0.160
-474.274	-200.000	0.026	-0.688
-473.259	308.778	-0.320	-0.598
-472.245	86.615	-0.463	-0.512
-471.230	-49.745	0.749	-0.357
-470.216	757.663	-0.241	-0.653
-469.201	277.599	-0.532	-0.947
-468.186	686.259	-0.089	0.232
-467.172	-200.000	0.115	-0.814
-466.157	-200.000	0.049	-0.396
-465.143	396.116	-0.254	-0.530
-464.128	-92.913	-0.697	0.195
-463.113	-200.000	-0.047	-0.329
-462.099	156.891	0.650	-0.899
-461.084	3.021	0.113	0.083
-460.070	154.120	-0.532	0.730
-459.055	-50.543	0.323	-0.152
-458.040	-80.316	-0.929	0.311
-457.026	129.767	0.140	0.179
-456.011	-84.031	-0.582	-0.185
-454.997	75.585	0.488	-0.515
-453.982	-200.000	0.103	-0.636
-452.968	-40.529	-0.605	-0.314
-451.953	-117.396	-0.386	0.070
-450.938	-9.097	0.680	0.455
-449.924	63.100	-0.309	0.310
-448.909	-200.000	-0.032	-0.795
-447.895	-200.000	-0.051	0.605
-446.880	-55.194	-0.665	-0.299
-445.865	65.082	0.012	0.012
-444.851	444.996	-0.175	-0.384
-443.836	-97.283	-0.297	-0.077
-442.822	118.960	-0.252	0.311
-441.807	-60.987	0.874	0.369
-440.792	-2.784	-0.631	0.441
-439.778	-2.308	-0.348	-0.244
-438.763	-17.062	-0.499	0.315
-437.749	-200.000	0.101	0.698
-436.734	-163.476	0.683	-0.032
-435.719	61.855	0.336	0.335
-434.705	99.651	-0.434	-0.503
-433.690	145.187	-0.446	0.597
-432.676	-10.416	-0.431	0.286
-431.661	-87.706	0.498	-0.150
-430.646	800.000	0.271	0.971
-429.632	-200.000	-0.032	0.308
-428.617	-200.000	0.095	0.505
-427.603	295.583	0.506	0.926
-426.588	800.000	0.244	-0.817
-425.573	-28.694	-0.731	-0.421
-424.559	-138.816	-0.864	0.094
-423.544	111.881	0.243	0.293
-422.530	4.786	-0.045	-0.033
-421.515	510.260	0.297	-0.691
-420.500	800.000	-0.055	0.163
-419.486	46.699	0.347	-0.322
-418.471	-197.435	-0.751	-0.005
-417.457	-10.522	-0.521	0.345
-416.442	-168.386	-0.519	0.020
-415.428	-5.907	-0.668	0.456
-414.413	-200.000	-0.118	0.554
-413.398	214.013	-0.292	-0.461
-412.384	-120.867	-0.825	0.139
-411.369	467.977	-0.292	-0.655
-410.355	-116.701	0.321	-0.059
-409.340	122.996	0.367	-0.459
-408.325	77.372	-0.507	-0.538
-407.311	-76.351	-0.310	-0.109
-406.296	415.822	-0.162	0.345
-405.282	26.254	0.515	0.430
-404.267	212.222	0.216	0.341
-403.252	-89.260	-1.227	0.361
-402.238	179.504	-0.189	0.276
-401.223	89.980	0.173	0.193
-400.209	233.154	-0.432	0.710
-399.194	297.472	-0.298	-0.546
-398.179	-200.000	-0.013	0.371
-397.165	-51.881	0.361	-0.168
-396.150	296.230	-0.452	0.826
-395.136	-52.360	0.597	0.276
-394.121	-81.695	0.546	0.179
-393.106	-57.585	0.624	-0.273
-392.092	-60.350	0.426	0.181
-391.077	-60.172	-0.883	-0.376
-390.063	47.191	0.140	-0.130
-389.048	800.000	-0.179	0.514
-388.033	120.576	-0.209	0.260
-387.019	-136.645	0.319	-0.037
-386.004	-14.629	-0.463	0.297
-384.990	-90.778	-0.324	-0.093
-383.975	2.270	-1.454	-1.049
-382.960	67.276	0.218	-0.222
-381.946	-95.556	0.558	-0.149
-380.931	-132.549	0.357	0.046
-379.917	176.920	-0.394	0.572
-378.902	30.352	-0.070	-0.060
-377.888	-80.774	0.287	0.095
-376.873	-68.665	0.174	-0.067
-375.858	108.980	-0.182	0.217
-374.844	129.867	-0.403	0.514
-373.829	-3.044	0.365	-0.254
-372.815	-44.954	0.239	0.119
-371.800	800.000	0.127	-0.497
-370.785	-39.720	0.100	-0.052
-369.771	329.984	0.220	-0.422
-368.756	569.480	-0.165	-0.400
-367.742	-32.749	-0.209	0.116
-366.727	-153.149	-0.943	0.066
-365.712	-65.323	1.321	0.530
-364.698	-117.860	0.560	-0.100
-363.683	155.745	-0.350	0.481
-362.669	-200.000	-0.113	0.612
-361.654	-7.887	-0.449	0.302
-360.639	-200.000	-0.007	-0.561
-359.625	-41.761	0.663	-0.339
-358.610	-200.000	0.035	-1.044
-357.596	330.018	0.331	0.635
-356.581	-89.149	-0.175	-0.052
-355.566	-49.846	1.397	-0.661
-354.552	-30.779	0.469	0.265
-353.537	-142.256	-0.300	0.030
-352.523	-200.000	-0.141	0.736
-351.508	45.301	0.588	-0.541
-350.493	437.519	0.432	0.938
-349.479	-200.000	0.049	0.484
-348.464	-200.000	0.779	0.004
-347.450	84.606	0.629	0.686
-346.435	-30.332	0.176	0.100
-345.420	139.818	-0.395	0.518
-344.406	-20.580	0.715	-0.438
-343.391	75.981	0.127	-0.134
-342.377	19.722	-0.738	0.592
-341.362	-76.760	0.332	-0.116
-340.348	-130.227	0.233	-0.032
-339.333	800.000	0.057	-0.166
-338.318	17.890	-0.575	-0.456
-337.304	-101.478	-0.555	0.135
-336.289	-88.726	0.675	-0.200
-335.275	124.499	-0.626	0.785
-334.260	85.939	0.509	-0.557
-333.245	-67.870	0.614	-0.239
-332.231	303.444	-0.240	-0.442
-331.216	-200.000	-0.039	-0.404
-330.202	800.000	-0.046	0.162
-329.187	5.948	0.618	0.456
-328.172	495.160	-0.261	0.597
-327.158	72.501	0.235	0.243
-326.143	3.202	-0.436	0.316
-325.129	-70.077	-0.321	0.121
-324.114	-103.531	0.482	-0.113
-323.099	-200.000	-0.013	-0.309
-322.085	-93.211	-0.702	0.194
-321.070	-103.262	0.185	0.043
-320.056	-125.991	0.423	0.063
-319.041	347.203	0.192	-0.376
-318.026	-24.551	0.550	0.326
-317.012	-26.748	0.200	-0.116
-315.997	107.614	0.315	0.374
-314.983	-103.001	0.546	-0.129
-313.968	127.763	-0.562	0.711
-312.953	145.100	-0.321	-0.427
-311.939	-156.674	-0.754	0.046
-310.924	19.212	0.488	-0.390
-309.910	-124.014	-0.299	0.047
-308.895	-200.000	0.174	1.053
-307.880	-75.900	-0.545	-0.192
-306.866	-63.683	-0.672	-0.274
-305.851	17.683	-0.522	-0.413
-304.837	-44.010	0.426	0.213
-303.822	604.654	-0.257	0.637
-302.807	-200.000	-0.078	-0.385
-301.793	-154.688	0.568	0.038
-300.778	6.557	-0.755	0.558
-299.764	9.538	-0.096	0.072
-298.749	800.000	-0.087	-0.316
-297.735	40.539	-0.262	0.235
-296.720	-94.217	0.842	-0.229
-295.705	-79.824	0.645	0.216
-294.691	-40.433	-0.703	0.363
-293.676	107.841	-0.536	-0.635
-292.662	-200.000	0.000	-0.490
-291.647	158.210	0.093	0.129
-290.632	-200.000	-0.004	0.650
-289.618	-161.103	0.575	0.030
-288.603	255.193	0.329	0.561
-287.589	32.171	0.511	-0.438
-286.574	-80.913	0.299	0.099
-285.559	-200.000	-0.011	0.549
-284.545	-200.000	-0.072	0.410
-283.530	-89.835	0.666	-0.194
-282.516	-80.684	0.645	-0.213
-281.501	38.106	0.495	-0.437
-280.486	-154.996	-0.749	0.049
-279.472	-200.000	-0.064	0.594
-278.457	26.014	0.530	0.439
-277.443	208.124	0.281	-0.437
-276.428	-200.000	-0.094	0.666
-275.413	168.261	-0.056	-0.079
-274.399	1.050	0.786	-0.560
-273.384	-72.132	0.257	-0.095
-272.370	-43.792	-0.490	-0.245
-271.355	41.089	-0.516	-0.463
-270.340	180.097	0.316	-0.460
-269.326	800.000	-0.166	-0.716
-268.311	-147.857	-0.487	-0.040
-267.297	-77.745	0.397	0.136
-266.282	704.223	-0.073	0.190
-265.267	-31.210	0.420	0.235
-264.253	78.090	0.312	-0.330
-263.238	124.613	-0.333	0.416
-262.224	91.398	0.148	-0.165
-261.209	-34.737	-0.652	0.354
-260.195	-30.899	0.429	0.241
-259.180	52.360	0.211	0.200
-258.165	-151.655	-1.059	-0.078
-257.151	92.670	0.342	0.383
-256.136	-119.395	0.855	0.147
-255.122	-13.529	1.063	-0.684
-254.107	291.677	-0.119	0.215
-253.092	-122.092	-1.209	0.197
-252.078	-48.417	0.277	0.132
-251.063	-178.899	-1.270	-0.029
-250.049	61.111	-0.627	-0.618
-249.034	-125.774	0.498	-0.075
-248.019	800.000	0.042	-0.142
-247.005	800.000	-0.175	-0.534
-245.990	21.176	0.401	0.323
-244.976	-200.000	0.036	-0.243
-243.961	648.025	0.305	0.773
-242.946	-50.051	-0.469	0.221
-241.932	-7.122	0.429	-0.289
-240.917	-40.215	-0.349	0.180
-239.903	-200.000	0.949	-0.003
-238.888	-190.650	-0.539	0.006
-237.873	-90.555	0.476	0.137
-236.859	307.910	-0.291	0.538
-235.844	389.717	0.170	-0.350
-234.830	-127.466	-0.860	-0.124
-233.815	-200.000	-0.100	0.548
-232.800	-96.977	-0.063	-0.016
-231.786	-152.121	0.146	-0.011
-230.771	12.670	0.401	-0.307
-229.757	-176.708	-0.220	-0.006
-228.742	800.000	0.036	0.122
-227.727	64.092	-1.026	1.024
-226.713	-200.000	-0.040	0.424
-225.698	-1.739	0.119	0.083
-224.684	-124.511	-0.787	0.121
-223.669	285.668	-0.567	-1.014
-222.655	281.097	0.399	-0.707
-221.640	-13.060	-0.967	0.623
-220.625	-76.664	-0.072	0.025
-219.611	-34.253	-0.357	-0.194
-218.596	-44.457	0.665	-0.330
-217.582	-87.196	-0.834	-0.251
-216.567	-200.000	-0.088	-0.527
-215.552	-175.338	-0.712	0.019
-214.538	16.304	0.345	-0.270
-213.523	-66.371	-0.618	0.244
-212.509	15.765	0.290	0.226
-211.494	-115.063	1.081	-0.203
-210.479	800.000	0.106	0.400
-209.465	-200.000	-0.029	0.486
-208.450	303.497	-0.114	0.210
-207.436	169.615	0.250	0.354
-206.421	800.000	-0.178	-0.686
-205.406	323.207	0.235	0.445
-204.392	-177.000	-0.952	-0.024
-203.377	8.318	0.414	-0.308
-202.363	6.649	0.721	0.532
-201.348	-154.580	0.876	0.058
-200.333	125.975	0.766	-0.958
-199.319	-200.000	0.105	-0.618
-198.304	141.218	0.639	0.838
-197.290	-77.043	0.793	0.274
-196.275	800.000	-0.206	-0.813
-195.260	-200.000	0.060	-0.446
-194.246	-200.000	0.070	-0.803
-193.231	-100.281	0.534	0.131
-192.217	215.084	-0.095	-0.148
-191.202	-36.003	0.700	0.375
-190.187	-101.138	-0.443	-0.107
-189.173	-111.031	-1.190	-0.242
-188.158	680.193	0.201	-0.518
-187.144	291.065	0.537	0.967
-186.129	-12.188	0.517	0.335
-185.114	-152.641	-0.382	0.027
-184.100	626.953	-0.287	0.717
-183.085	243.141	0.289	-0.479
-182.071	54.692	0.459	0.439
-181.056	-34.931	-0.100	0.054
-180.042	800.000	-0.117	0.402
-179.027	405.625	-0.068	0.141
-178.012	-50.964	0.207	-0.096
-176.998	151.207	0.554	-0.746
-175.983	-120.694	0.438	0.073
-174.969	-26.883	-0.532	-0.308
-173.954	-133.295	-0.473	0.059
-172.939	-117.050	-0.749	-0.135
-171.925	-124.793	-0.375	-0.057
-170.910	294.589	0.181	0.327
-169.896	138.061	-0.277	0.359
-168.881	-127.730	0.692	0.099
-167.866	-200.000	-0.045	0.440
-166.852	-107.683	-0.774	0.167
-165.837	-129.840	0.710	-0.097
-164.823	450.355	0.163	0.356
-163.808	58.152	-0.634	-0.614
-162.793	32.563	-0.356	0.304
-161.779	800.000	0.158	0.665
-160.764	-200.000	-0.002	0.394
-159.750	137.651	0.439	0.569
-158.735	-122.795	0.945	0.151
-157.720	800.000	-0.117	-0.430
-156.706	800.000	-0.160	0.580
-155.691	-43.360	-0.382	-0.191
-154.677	21.095	-0.344	-0.276
-153.662	566.301	0.022	-0.052
-152.647	-200.000	0.006	-0.089
-151.633	345.556	-0.189	0.368
-150.618	10.886	0.373	-0.282
-149.604	-75.483	0.092	-0.032
-148.589	453.431	0.205	0.448
-147.574	-11.485	-0.193	0.126
-146.560	800.000	0.112	-0.397
-145.545	-59.481	0.672	0.285
-144.531	46.108	-0.383	-0.351
-143.516	188.345	0.160	-0.236
-142.502	800.000	-0.163	-0.494
-141.487	-77.854	-0.612	0.209
-140.472	119.235	0.113	0.138
-139.458	-200.000	0.165	0.860
-138.443	-200.000	0.126	-0.755
-137.429	-200.000	0.069	-1.118
-136.414	-86.578	0.600	-0.182
-135.399	-200.000	-0.049	-0.644
-134.385	-92.162	-0.601	-0.168
-133.370	-95.616	-0.212	-0.056
-132.356	-168.202	0.398	-0.015
-131.341	-136.923	-0.644	-0.073
-130.326	245.632	-0.025	0.041
-129.312	800.000	0.096	-0.321
-128.297	-200.000	-0.027	0.318
-127.283	-125.191	-0.242	0.037
-126.268	732.040	-0.241	-0.637
-125.253	-105.831	-0.411	-0.092
-124.239	92.030	0.236	0.263
-123.224	-32.994	-0.515	0.282
-122.210	800.000	0.213	0.832
-121.195	529.675	0.277	0.647
-120.180	169.972	-0.113	0.160
-119.166	-121.131	-0.412	-0.068
-118.151	162.604	0.227	0.315
-117.137	-95.176	0.546	0.145
-116.122	41.965	0.148	0.133
-115.107	800.000	0.084	-0.325
-114.093	-200.000	-0.085	0.427
-113.078	800.000	0.159	0.569
-112.064	-81.202	0.475	0.155
-111.049	793.928	-0.300	0.815
-110.034	586.617	-0.176	0.428
-109.020	67.379	0.159	-0.160
-108.005	383.250	0.128	-0.260
-106.991	-33.073	0.509	0.279
-105.976	23.516	-0.762	0.619
-104.962	-34.466	-0.146	-0.079
-103.947	-155.213	0.536	0.035
-102.932	-52.633	0.353	-0.161
-101.918	-65.840	0.095	0.037
-100.903	-120.267	-0.376	0.063
-99.889	128.983	-0.391	0.492
-98.874	-200.000	0.049	-0.928
-97.859	800.000	0.082	0.284
-96.845	219.761	0.474	-0.749
-95.830	274.223	0.494	0.863
-94.816	26.652	0.525	0.433
-93.801	116.494	-0.384	0.464
-92.786	519.399	-0.409	0.945
-91.772	-200.000	-0.095	1.360
-90.757	697.229	0.292	0.757
-89.743	53.466	-0.209	-0.198
-88.728	-140.515	-0.691	0.071
-87.713	112.129	-0.373	-0.445
-86.699	-200.000	0.473	-0.000
-85.684	-143.073	0.442	-0.042
-84.670	43.853	0.134	-0.121
-83.655	194.024	-0.136	0.203
-82.640	633.042	-0.115	0.288
-81.626	145.516	0.575	-0.759
-80.611	50.644	0.252	0.235
-79.597	230.149	0.320	0.515
-78.582	800.000	0.089	-0.267
-77.567	180.244	-0.072	0.104
-76.553	482.162	-0.172	-0.384
-75.538	800.000	-0.107	-0.301
-74.524	49.974	0.274	0.255
-73.509	65.842	0.319	-0.318
-72.494	-139.844	-0.081	-0.008
-71.480	135.924	0.321	0.412
-70.465	349.038	-0.180	0.350
-69.451	-200.000	0.010	-0.658
-68.436	32.091	0.649	-0.551
-67.422	-200.000	0.019	0.381
-66.407	-12.723	-0.202	-0.130
-65.392	40.712	0.606	0.538
-64.378	800.000	-0.037	-0.154
-63.363	279.279	0.151	-0.266
-62.349	454.370	0.277	0.604
-61.334	-158.211	-1.036	-0.060
-60.319	-75.018	0.768	0.271
-59.305	-200.000	0.041	-0.621
-58.290	757.002	0.463	1.235
-57.276	800.000	0.696	2.514
-56.261	-200.000	94.521	570.670
-55.246	644.846	1364.198	3429.379
-54.232	201.388	2530.360	3838.154
-53.217	116.854	2146.972	2596.054
-52.203	43.358	1697.224	1527.207
-51.188	36.066	1511.159	1310.369
-50.173	34.087	1484.782	1274.211
-49.159	54.361	1536.138	1456.840
-48.144	54.920	1554.222	1477.742
-47.130	36.272	1513.078	1313.228
-46.115	33.252	1497.621	1279.381
-45.100	33.206	1494.425	1276.290
-44.086	33.287	1492.286	1274.957
-43.071	32.999	1490.664	1271.580
-42.057	32.886	1488.859	1269.228
-41.042	33.099	1487.524	1269.476
-40.027	33.158	1486.873	1269.266
-39.013	33.340	1483.978	1267.963
-37.998	33.111	1483.487	1265.961
-36.984	33.013	1482.833	1264.692
-35.969	32.927	1481.491	1262.925
-34.954	33.188	1479.801	1263.173
-33.940	33.204	1478.578	1262.190
-32.925	33.112	1476.852	1260.050
-31.911	33.005	1475.942	1258.510
-30.896	33.090	1474.684	1257.954
-29.881	33.274	1473.436	1258.069
-28.867	33.082	1471.702	1255.260
-27.852	33.019	1470.486	1253.757
-26.838	33.121	1469.003	1253.119
-25.823	33.146	1468.054	1252.423
-24.809	33.008	1466.661	1250.269
-23.794	33.194	1464.281	1249.423
-22.779	33.163	1462.986	1248.064
-21.765	32.937	1462.139	1245.798
-20.750	33.147	1461.454	1246.554
-19.736	33.030	1460.100	1244.578
-18.721	32.860	1460.484	1243.734
-17.706	33.124	1457.543	1242.914
-16.692	33.276	1455.361	1242.002
-15.677	33.079	1455.277	1240.592
-14.663	33.027	1455.136	1240.080
-13.648	32.998	1453.553	1238.493
-12.633	32.946	1453.150	1237.758
-11.619	32.954	1452.700	1237.378
-10.604	32.918	1451.273	1235.875
-9.590	33.053	1450.128	1235.735
-8.575	33.013	1450.187	1235.477
-7.560	32.944	1448.177	1233.266
-6.546	32.944	1449.233	1234.114
-5.531	33.101	1446.954	1233.151
-4.517	32.953	1445.610	1230.987
-3.502	33.065	1444.785	1230.970
-2.487	33.183	1443.427	1230.533
-1.473	32.959	1443.091	1228.735
-0.458	33.037	1441.239	1227.616
0.556	34.069	1432.196	1217.402
1.571	30.892	1406.133	1175.139
2.586	27.292	1347.131	1103.931
3.600	25.200	1267.560	1026.672
4.615	23.811	1221.392	981.523
5.629	20.567	1164.374	918.513
6.644	11.484	1078.195	805.819
7.659	4.403	1037.057	741.291
8.673	3.485	1032.007	733.254
9.688	2.917	1029.427	728.661
10.702	2.557	1027.498	725.528
11.717	2.843	1025.324	725.279
12.731	6.160	1029.334	743.762
13.746	15.427	1042.072	797.102
14.761	22.731	1051.758	839.321
15.775	24.695	1053.375	849.883
16.790	24.807	1052.376	849.536
17.804	24.779	1050.739	848.006
18.819	24.481	1050.631	846.430
19.834	24.844	1049.806	847.411
20.848	24.704	1050.881	847.539
21.863	24.414	1050.662	845.915
22.877	24.671	1050.136	846.635
23.892	24.670	1048.966	845.610
24.907	24.593	1048.557	844.843
25.921	24.542	1046.794	843.106
26.936	24.577	1046.505	842.963
27.950	24.738	1044.717	842.207
28.965	24.380	1044.166	840.003
29.980	24.485	1042.920	839.421
30.994	24.793	1041.795	839.887
32.009	24.868	1040.869	839.418
33.023	24.643	1041.092	838.466
34.038	24.512	1039.651	836.617
35.053	24.597	1038.438	835.965
36.067	24.553	1039.098	836.215
37.082	24.756	1037.138	835.515
38.096	24.684	1036.694	834.746
39.111	24.637	1035.959	833.860
40.126	24.786	1034.695	833.466
41.140	24.602	1033.261	831.378
42.155	24.536	1032.040	830.018
43.169	24.149	1031.857	827.996
44.184	24.399	1030.302	827.836
45.199	24.368	1029.525	826.997
46.213	24.207	1028.853	825.639
47.228	24.284	1027.435	824.781
48.242	24.445	1026.960	825.073
49.257	24.470	1026.851	825.026
50.271	24.787	1025.157	825.056
51.286	24.713	1024.911	824.445
52.301	24.879	1024.102	824.486
53.315	24.977	1023.648	824.499
54.330	24.670	1023.325	822.752
55.344	24.740	1021.951	821.897
56.359	24.618	1021.061	820.548
57.374	24.452	1021.310	819.912
58.388	24.357	1018.719	817.324
59.403	24.395	1019.463	818.024
60.417	24.524	1018.156	817.494
61.432	24.458	1017.467	816.563
62.447	24.218	1017.899	815.742
63.461	24.642	1015.711	815.852
64.476	24.413	1015.320	814.421
65.490	24.444	1014.698	813.992
66.505	24.298	1014.205	812.858
67.520	24.408	1012.708	812.085
68.534	24.391	1012.865	812.062
69.549	24.454	1010.668	810.518
70.563	24.123	1011.299	809.447
71.578	24.056	1009.948	807.987
72.593	24.016	1009.011	806.988
73.607	24.097	1007.144	805.791
74.622	23.989	1006.642	804.828
75.636	23.911	1006.592	804.361
76.651	24.046	1006.845	805.103
77.666	24.346	1004.153	804.236
78.680	24.490	1002.600	803.568
79.695	24.176	1003.413	802.735
80.709	24.239	1003.337	802.886
81.724	24.364	1001.874	802.204
82.739	24.128	1001.076	800.436
83.753	24.377	999.999	800.622
84.768	24.644	1000.994	802.544
85.782	25.153	998.975	803.134
86.797	24.868	998.914	801.739
87.812	25.393	997.492	802.875
88.826	24.954	996.957	800.412
89.841	25.063	996.029	800.084
90.855	24.885	995.348	798.669
91.870	24.806	995.613	798.461
92.884	25.039	994.089	798.207
93.899	25.044	993.312	797.532
94.914	24.957	992.136	796.132
95.928	25.100	991.472	796.165
96.943	25.157	990.513	795.574
97.957	24.613	989.576	792.340
98.972	24.553	988.650	791.265
99.987	24.705	988.559	791.793
101.001	24.452	987.948	790.115
102.016	24.703	987.198	790.554
103.030	25.203	985.160	791.059
104.045	24.765	985.111	789.016
105.060	24.641	983.960	787.482
106.074	25.013	981.353	786.959
107.089	24.672	982.302	786.149
108.103	24.677	981.739	785.653
109.118	24.520	980.069	783.555
110.133	24.776	978.368	783.247
111.147	24.686	978.212	782.662
112.162	24.517	977.577	781.345
113.176	24.261	976.978	779.678
114.191	24.211	975.838	778.480
115.206	24.346	975.006	778.336
116.220	24.170	974.839	777.364
117.235	24.141	973.503	776.105
118.249	24.481	971.673	776.056
119.264	24.436	971.017	775.269
120.279	24.289	970.350	774.027
121.293	24.554	969.363	774.324
122.308	24.043	970.038	772.574
123.322	24.408	968.075	772.523
124.337	24.354	967.347	771.640
125.352	24.227	966.226	770.128
126.366	24.133	964.491	768.273
127.381	24.138	963.870	767.735
128.395	24.305	963.800	768.330
129.410	24.443	963.422	768.554
130.424	24.363	963.045	767.840
131.439	24.530	962.710	768.225
132.454	24.392	960.412	765.730
133.468	24.672	959.228	765.917
134.483	24.788	958.420	765.701
135.497	24.655	958.581	765.194
136.512	24.799	958.381	765.581
137.527	24.883	956.815	764.625
138.541	25.141	955.647	764.723
139.556	24.856	956.443	764.076
140.570	24.927	954.012	762.369
141.585	25.077	954.105	763.012
142.600	24.974	952.914	761.557
143.614	25.112	952.106	761.427
144.629	25.152	951.289	760.879
145.643	25.182	951.591	761.180
146.658	25.095	949.973	759.447
147.673	24.762	948.699	756.955
148.687	24.870	947.956	756.749
149.702	24.775	947.592	755.991
150.716	24.887	945.964	755.097
151.731	24.953	944.926	754.482
152.746	24.648	944.167	752.524
153.760	25.148	944.148	754.547
154.775	25.070	942.851	753.114
155.789	25.092	942.175	752.601
156.804	25.111	941.213	751.846
157.819	24.858	941.136	750.658
158.833	25.036	939.954	750.396
159.848	24.944	938.810	749.030
160.862	25.072	938.377	749.153
161.877	24.927	938.247	748.376
162.892	25.139	936.340	747.674
163.906	25.108	935.989	747.197
164.921	24.785	935.935	745.740
165.935	24.911	934.177	744.798
166.950	24.997	933.265	744.362
167.964	25.140	932.054	743.924
168.979	24.877	931.196	742.084
169.994	24.846	930.085	741.006
171.008	24.733	929.678	740.150
172.023	24.909	929.617	740.763
173.037	25.103	927.042	739.444
174.052	24.673	927.828	738.232
175.067	24.902	926.305	737.900
176.081	25.143	924.568	737.440
177.096	24.937	923.726	735.856
178.110	24.940	922.834	735.093
179.125	24.621	922.737	733.642
180.140	24.642	921.175	732.422
181.154	24.336	921.163	731.094
182.169	24.723	920.775	732.306
183.183	24.799	920.371	732.232
184.198	24.890	920.515	732.653
185.213	24.840	918.894	731.093
186.227	24.582	919.339	730.328
187.242	24.877	918.355	730.685
188.256	25.397	916.485	731.251
189.271	25.191	916.540	730.393
190.286	25.469	915.360	730.517
191.300	25.167	915.196	729.093
192.315	24.811	913.967	726.606
193.329	23.916	912.542	721.778
194.344	23.535	911.632	719.448
195.359	24.254	912.463	722.957
196.373	24.641	912.477	724.474
197.388	25.076	911.632	725.500
198.402	25.384	910.071	725.439
199.417	25.411	910.152	725.546
200.432	25.280	910.200	724.992
201.446	25.283	909.172	724.122
202.461	24.886	909.590	722.789
203.475	25.413	908.477	723.963
204.490	24.505	907.665	719.595
205.504	24.099	905.779	716.403
206.519	24.567	905.044	717.639
207.534	24.969	905.414	719.486
208.548	25.198	904.540	719.646
209.563	24.952	903.973	718.143
210.577	25.408	903.052	719.176
211.592	24.776	903.179	716.683
212.607	25.407	902.076	718.266
213.621	25.312	902.526	718.183
214.636	25.139	902.234	717.192
215.650	25.443	900.049	716.606
216.665	25.357	899.647	715.878
217.680	24.795	900.893	714.565
218.694	25.516	899.059	715.916
219.709	25.186	898.557	714.140
220.723	24.940	897.612	712.351
221.738	25.150	896.475	712.220
222.753	24.932	897.136	711.814
223.767	24.921	896.175	710.943
224.782	25.101	895.251	710.863
225.796	25.700	893.779	712.001
226.811	25.836	893.964	712.624
227.826	25.275	892.423	709.117
228.840	24.514	892.037	705.739
229.855	24.560	891.287	705.267
230.869	25.091	890.717	706.847
231.884	24.246	890.304	703.126
232.899	24.485	890.432	704.108
233.913	24.905	889.893	705.274
234.928	25.115	888.531	704.958
235.942	25.244	887.918	704.913
236.957	24.902	887.321	703.035
237.972	24.634	887.215	701.838
238.986	24.713	886.787	701.746
240.001	24.569	885.446	700.059
241.015	24.426	885.622	699.574
242.030	24.586	884.631	699.356
243.045	25.148	883.669	700.730
244.059	25.090	883.461	700.277
245.074	25.079	883.395	700.122
246.088	25.152	881.812	699.088
247.103	24.954	881.822	698.264
248.117	25.265	880.478	698.347
249.132	25.530	880.108	699.023
250.147	25.837	880.589	700.536
251.161	26.147	879.571	700.870
252.176	25.905	880.471	700.582
253.190	25.771	878.893	698.747
254.205	26.031	877.911	698.912
255.220	26.105	877.711	698.979
256.234	26.253	876.516	698.534
257.249	25.953	876.260	697.111
258.263	25.859	875.977	696.461
259.278	25.857	875.618	696.104
260.293	25.624	874.883	694.560
261.307	25.656	874.756	694.520
262.322	25.985	874.723	695.702
263.336	25.879	873.732	694.443
264.351	26.045	872.290	693.875
265.366	25.103	870.532	688.799
266.380	25.070	870.604	688.666
267.395	25.225	870.664	689.249
268.409	25.637	870.083	690.311
269.424	25.641	869.877	690.099
270.439	25.637	868.858	689.216
271.453	25.779	868.136	689.127
272.468	25.834	866.619	688.072
273.482	25.979	866.322	688.327
274.497	25.769	866.311	687.456
275.512	25.856	865.740	687.275
276.526	25.553	864.121	684.775
277.541	25.485	864.089	684.429
278.555	25.910	862.899	685.042
279.570	25.780	863.318	684.821
280.585	25.752	862.988	684.393
281.599	25.767	862.965	684.370
282.614	25.240	863.030	682.357
283.628	25.515	861.104	681.815
284.643	24.992	859.721	678.681
285.657	25.628	859.444	680.808
286.672	25.813	858.512	680.710
287.687	25.442	859.137	679.744
288.701	25.119	859.229	678.534
289.716	25.662	858.236	679.742
290.730	25.385	857.458	678.017
291.745	25.386	856.695	677.357
292.760	25.520	855.780	677.082
293.774	25.526	854.529	676.054
294.789	25.873	854.622	677.370
295.803	26.306	854.491	678.836
296.818	26.358	854.447	678.935
297.833	25.705	855.146	676.973
298.847	25.691	853.138	675.273
299.862	25.829	851.811	674.680
300.876	25.544	851.884	673.610
301.891	26.130	850.661	674.775
302.906	26.296	850.038	674.842
303.920	25.853	850.603	673.573
304.935	26.065	849.515	673.444
305.949	26.262	848.871	673.611
306.964	26.261	848.177	672.994
307.979	26.021	847.193	671.263
308.993	25.718	847.042	669.953
310.008	26.008	846.815	670.796
311.022	26.153	846.472	671.005
312.037	25.960	845.288	669.288
313.052	25.731	845.410	668.475
314.066	25.986	844.221	668.420
315.081	25.600	843.256	666.168
316.095	24.617	843.518	662.673
317.110	25.667	842.290	665.534
318.125	25.986	842.712	666.991
319.139	25.366	841.784	663.908
320.154	24.842	840.392	660.814
321.168	24.558	838.936	658.564
322.183	24.742	840.049	660.059
323.197	25.257	839.919	661.799
324.212	25.506	839.102	662.015
325.227	25.654	838.373	661.923
326.241	25.577	837.772	661.110
327.256	25.361	838.363	660.721
328.270	25.378	837.053	659.694
329.285	25.312	836.760	659.162
330.300	25.503	835.158	658.540
331.314	25.071	834.552	656.423
332.329	25.014	834.144	655.837
333.343	25.504	833.501	657.062
334.358	25.967	833.890	659.004
335.373	25.984	833.046	658.341
336.387	25.768	832.335	656.935
337.402	26.211	830.979	657.418
338.416	26.474	830.559	657.986
339.431	26.079	830.748	656.638
340.446	26.512	830.709	658.123
341.460	26.620	829.931	657.844
342.475	26.758	829.430	657.889
343.489	26.382	829.695	656.676
344.504	26.482	828.674	656.169
345.519	26.462	828.375	655.805
346.533	26.251	828.857	655.361
347.548	26.641	827.099	655.324
348.562	26.580	826.699	654.728
349.577	26.369	825.886	653.266
350.592	26.453	825.858	653.488
351.606	26.462	825.168	652.918
352.621	26.311	824.948	652.142
353.635	25.890	823.918	649.752
354.650	26.471	823.076	651.123
355.665	26.088	822.543	649.266
356.679	25.869	821.570	647.654
357.694	25.822	820.675	646.723
358.708	26.001	821.156	647.686
359.723	26.051	820.043	646.929
360.738	25.948	819.782	646.296
361.752	25.879	819.993	646.160
362.767	25.545	820.574	645.363
363.781	26.351	819.480	647.331
364.796	26.376	818.256	646.395
365.810	26.441	818.281	646.593
366.825	26.555	818.046	646.757
367.840	26.736	817.527	646.934
368.854	26.614	816.909	645.952
369.869	26.299	816.253	644.254
370.883	25.850	816.394	642.706
371.898	26.271	815.459	643.413
372.913	26.431	814.224	642.950
373.927	26.470	814.224	643.034
374.942	26.225	813.237	641.328
375.956	25.972	812.803	640.030
376.971	26.679	811.788	641.680
377.986	26.679	811.050	641.039
379.000	26.517	811.125	640.469
380.015	26.580	811.347	640.809
381.029	26.637	810.228	640.072
382.044	26.436	809.492	638.723
383.059	26.670	809.098	639.183
384.073	26.497	808.803	638.281
385.088	26.620	808.381	638.327
386.102	26.220	807.293	636.002
387.117	26.287	806.449	635.515
388.132	26.162	806.506	635.067
389.146	25.819	805.798	633.246
390.161	26.164	805.062	633.825
391.175	26.194	806.022	634.628
392.190	26.446	804.898	634.573
393.205	26.725	804.806	635.420
394.219	26.040	803.430	631.882
395.234	24.993	801.996	627.035
396.248	24.476	801.624	624.876
397.263	25.268	800.934	627.054
398.278	26.154	800.795	629.984
399.292	26.020	800.525	629.247
400.307	25.775	800.180	628.065
401.321	25.816	799.649	627.737
402.336	25.540	798.833	626.080
403.350	25.914	798.619	627.159
404.365	26.472	798.685	629.094
405.380	26.664	798.467	629.534
406.394	26.672	798.819	629.785
407.409	26.819	798.125	629.692
408.423	26.693	797.009	628.319
409.438	26.824	796.911	628.640
410.453	26.731	796.395	627.857
411.467	26.666	795.640	626.981
412.482	26.833	795.734	627.577
413.496	26.441	795.461	625.948
414.511	26.500	795.233	625.920
415.526	26.998	794.719	627.180
416.540	26.599	794.322	625.433
417.555	26.519	794.190	624.997
418.569	26.717	793.224	624.866
419.584	26.759	792.990	624.769
420.599	27.182	792.174	625.529
421.613	159.449	1369.799	1792.409
422.628	138.112	1453.968	1792.465
