DTS Sentinel unit serial number:	SN413079Multiplexer serial number:	ORYXHardware model number:	OX4-SRSoftware version number:	ORYX F/W v4.00 Oryx Data Collector v3.7.2.0data status	okinstallation	princeton_trtdifferential loss correction	single-endedforward channel	channel 3reverse channel	N/Adate	2019/09/17time	08:40:34forward acquisition time	60.00reverse acquisition time	0.00gamma	496.2192k internal	0.2331k external	0.2331temperature offset calibration	0.9942default loss term (dB/km)	0.3790temperature slope calibration	1.0000multiplexer offset coefficient	1.0000multiplexer slope coefficient	1.0000fibre end	0.00T internal ref (°C)	27.69T ext. ref 1 (°C)	0.13T ext. ref 2 (°C)	23.25length (m)	temperature (°C)	Stokes	anti-Stokes-747.200	-200.000	0.030	0.202
-746.185	-72.730	-0.274	0.102
-745.171	-2.082	-0.172	0.121
-744.156	74.664	-0.127	0.135
-743.142	-110.426	-0.193	-0.040
-742.127	-200.000	-0.004	0.117
-741.112	503.586	0.093	-0.217
-740.098	61.049	-0.196	-0.196
-739.083	-200.000	-0.021	0.213
-738.069	-200.000	-0.279	0.001
-737.054	-63.415	-0.265	-0.110
-736.039	-149.728	-0.042	-0.003
-735.025	129.680	-0.091	0.117
-734.010	-200.000	0.018	-0.247
-732.996	-68.096	0.130	-0.051
-731.981	-200.000	-0.016	0.289
-730.966	27.972	-0.161	-0.137
-729.952	51.066	-0.198	0.189
-728.937	-200.000	0.030	0.184
-727.923	-28.833	-0.118	0.068
-726.908	800.000	-0.056	-0.160
-725.894	-66.820	-0.072	0.029
-724.879	-171.417	-0.452	0.015
-723.864	-107.260	-0.326	0.072
-722.850	-63.168	0.197	-0.082
-721.835	-100.147	-0.042	-0.011
-720.821	-104.228	-0.146	0.034
-719.806	-200.000	0.051	-0.342
-718.791	-200.000	-0.003	0.159
-717.777	-200.000	0.009	0.068
-716.762	-200.000	0.048	0.256
-715.748	-73.381	0.229	0.084
-714.733	214.927	0.193	-0.307
-713.718	216.973	-0.047	0.075
-712.704	-200.000	0.026	-0.145
-711.689	593.695	-0.114	0.284
-710.675	-122.993	-0.218	-0.035
-709.660	100.105	-0.063	0.074
-708.645	-58.981	0.114	0.049
-707.631	-200.000	-0.060	-0.332
-706.616	-200.000	0.048	-0.422
-705.602	-140.468	-0.188	-0.020
-704.587	479.243	0.030	-0.068
-703.572	-95.635	0.144	0.039
-702.558	703.911	-0.046	-0.123
-701.543	179.070	0.038	0.056
-700.529	413.407	0.142	-0.304
-699.514	-65.445	-0.172	-0.069
-698.499	26.017	-0.021	-0.017
-697.485	-103.815	0.190	-0.045
-696.470	16.962	-0.180	0.144
-695.456	-6.575	0.144	-0.098
-694.441	-90.040	0.482	-0.141
-693.426	-8.677	-0.341	-0.230
-692.412	800.000	0.111	-0.406
-691.397	-76.012	-0.248	0.088
-690.383	37.766	0.152	-0.136
-689.368	-122.012	-0.180	-0.030
-688.354	800.000	0.051	0.172
-687.339	-62.192	0.196	-0.082
-686.324	178.256	0.147	-0.216
-685.310	-152.287	0.091	0.007
-684.295	218.295	-0.199	0.319
-683.281	-200.000	0.000	0.206
-682.266	-14.994	0.274	0.176
-681.251	123.932	-0.288	-0.363
-680.237	496.496	-0.102	-0.235
-679.222	8.423	-0.113	-0.086
-678.208	-144.972	-0.485	-0.044
-677.193	21.867	-0.331	0.271
-676.178	175.934	-0.183	-0.266
-675.164	50.259	0.036	-0.034
-674.149	-133.624	-0.180	0.023
-673.135	-200.000	-0.020	0.404
-672.120	-78.174	0.159	-0.055
-671.105	139.327	-0.045	-0.060
-670.091	184.283	-0.082	0.122
-669.076	78.711	-0.129	-0.138
-668.062	800.000	-0.067	-0.199
-667.047	-200.000	0.055	-0.372
-666.032	274.004	0.205	-0.365
-665.018	-114.627	-0.036	0.007
-664.003	-200.000	0.004	0.249
-662.989	57.734	-0.082	-0.080
-661.974	49.038	-0.030	-0.028
-660.959	800.000	0.055	0.198
-659.945	195.136	0.142	0.216
-658.930	119.623	0.182	-0.227
-657.916	-200.000	0.006	-0.046
-656.901	-200.000	-0.005	-0.063
-655.886	79.325	-0.182	0.196
-654.872	-65.330	0.081	0.033
-653.857	613.614	-0.071	-0.177
-652.843	99.699	0.181	-0.210
-651.828	-200.000	-0.020	-0.091
-650.814	162.846	-0.043	0.061
-649.799	24.197	-0.216	-0.179
-648.784	226.582	-0.072	0.118
-647.770	-137.497	0.199	0.023
-646.755	221.585	-0.103	-0.167
-645.741	-123.339	0.078	-0.012
-644.726	97.415	-0.334	-0.384
-643.711	22.315	-0.109	0.090
-642.697	-136.610	-0.410	0.048
-641.682	113.399	-0.042	-0.051
-640.668	-96.093	0.074	0.020
-639.653	370.587	-0.133	-0.270
-638.638	800.000	-0.049	0.184
-637.624	-200.000	0.023	-0.134
-636.609	-200.000	-0.055	0.389
-635.595	4.719	-0.149	0.109
-634.580	-108.039	-0.169	-0.037
-633.565	-106.262	-0.318	0.072
-632.551	237.063	0.155	0.257
-631.536	639.792	-0.117	0.299
-630.522	6.263	0.152	0.113
-629.507	-32.345	-0.194	-0.109
-628.492	140.819	0.142	0.189
-627.478	-152.378	-0.066	0.005
-626.463	51.582	0.140	0.133
-625.449	-186.336	-0.197	0.003
-624.434	19.583	0.055	-0.044
-623.419	78.195	0.163	-0.175
-622.405	179.515	-0.106	0.155
-621.390	-48.667	0.127	0.061
-620.376	597.743	0.064	-0.159
-619.361	-200.000	-0.047	0.266
-618.346	-200.000	-0.007	-0.250
-617.332	231.045	-0.167	-0.274
-616.317	-194.636	-0.028	0.000
-615.303	250.181	-0.010	0.018
-614.288	272.706	-0.153	-0.271
-613.273	-28.923	0.423	-0.243
-612.259	192.554	0.216	-0.327
-611.244	-200.000	-0.026	-0.255
-610.230	-100.088	0.288	0.072
-609.215	20.329	-0.247	-0.199
-608.201	-200.000	-0.069	-0.000
-607.186	-16.044	0.103	0.066
-606.171	-200.000	0.024	0.137
-605.157	800.000	-0.096	0.292
-604.142	71.664	0.152	0.158
-603.128	170.219	-0.280	-0.402
-602.113	-200.000	0.017	-0.220
-601.098	-117.398	-0.141	-0.025
-600.084	-45.450	-0.324	0.161
-599.069	-115.666	0.333	-0.063
-598.055	-76.101	0.048	-0.017
-597.040	281.207	-0.066	0.118
-596.025	800.000	0.054	-0.203
-595.011	-138.424	-0.089	0.010
-593.996	-200.000	0.017	-0.076
-592.982	-72.024	-0.420	-0.156
-591.967	343.714	0.134	0.263
-590.952	-200.000	0.007	0.181
-589.938	-200.000	-0.032	-0.175
-588.923	726.847	-0.152	-0.406
-587.909	-149.475	0.061	-0.005
-586.894	-94.854	0.303	-0.082
-585.879	285.097	0.212	0.382
-584.865	800.000	0.067	-0.188
-583.850	249.696	0.036	-0.060
-582.836	-3.040	-0.043	0.030
-581.821	275.781	0.178	-0.315
-580.806	-200.000	0.020	-0.195
-579.792	128.786	0.127	-0.162
-578.777	-6.771	0.435	-0.296
-577.763	-36.063	0.200	-0.108
-576.748	-200.000	0.008	0.116
-575.733	7.001	0.223	0.166
-574.719	149.050	-0.101	-0.136
-573.704	800.000	-0.035	0.126
-572.690	21.869	-0.149	0.122
-571.675	-200.000	-0.001	-0.136
-570.661	-41.498	-0.274	-0.141
-569.646	-58.470	-0.227	-0.099
-568.631	0.262	0.110	-0.078
-567.617	-200.000	0.038	-0.234
-566.602	-200.000	0.073	-0.355
-565.588	12.370	-0.032	0.025
-564.573	800.000	-0.052	0.189
-563.558	-200.000	0.042	-0.239
-562.544	202.541	0.015	0.024
-561.529	800.000	0.080	-0.344
-560.515	-11.421	0.073	0.048
-559.500	-200.000	0.041	-0.198
-558.485	-200.000	-0.048	-0.304
-557.471	97.820	-0.202	-0.232
-556.456	693.780	0.067	0.175
-555.442	-79.208	-0.317	-0.107
-554.427	-85.170	0.109	0.034
-553.412	410.911	-0.021	-0.045
-552.398	23.242	-0.388	-0.319
-551.383	-55.763	-0.356	-0.159
-550.369	-105.585	0.284	0.064
-549.354	532.045	-0.156	0.368
-548.339	-48.697	-0.154	0.074
-547.325	10.901	0.277	0.211
-546.310	-145.183	0.283	-0.026
-545.296	-200.000	0.002	0.027
-544.281	-137.892	-0.230	0.026
-543.266	72.555	-0.238	0.248
-542.252	35.934	-0.086	0.076
-541.237	-118.324	0.275	-0.049
-540.223	325.171	0.055	0.105
-539.208	315.642	-0.070	0.132
-538.193	-87.027	-0.261	0.079
-537.179	-17.756	0.108	0.068
-536.164	800.000	-0.005	0.018
-535.150	396.035	-0.084	0.176
-534.135	45.622	0.104	0.096
-533.121	365.651	-0.126	0.253
-532.106	-200.000	0.033	-0.316
-531.091	-146.340	0.013	-0.001
-530.077	-200.000	-0.021	-0.137
-529.062	-31.553	0.335	0.188
-528.048	-2.965	0.181	0.126
-527.033	800.000	-0.053	-0.209
-526.018	-200.000	-0.010	-0.132
-525.004	-104.653	0.195	-0.045
-523.989	9.983	-0.478	-0.362
-522.975	39.033	-0.043	-0.038
-521.960	-22.086	0.222	0.135
-520.945	223.704	-0.144	0.232
-519.931	-200.000	-0.006	0.283
-518.916	-200.000	-0.044	0.428
-517.902	-108.939	0.306	0.065
-516.887	167.705	0.115	-0.163
-515.872	755.580	0.048	0.129
-514.858	-93.317	-0.278	0.077
-513.843	-126.235	-0.275	0.041
-512.829	800.000	-0.048	0.139
-511.814	800.000	-0.052	-0.217
-510.799	148.510	-0.075	0.102
-509.785	20.250	0.166	-0.134
-508.770	284.511	0.020	0.036
-507.756	800.000	0.076	0.262
-506.741	-53.223	-0.044	0.020
-505.726	35.095	0.235	-0.206
-504.712	-149.781	0.431	0.034
-503.697	-105.118	-0.172	-0.039
-502.683	194.084	0.121	0.183
-501.668	-170.134	0.180	-0.006
-500.653	-59.824	-0.179	-0.076
-499.639	-200.000	0.024	-0.165
-498.624	25.963	0.213	0.177
-497.610	168.254	-0.059	0.084
-496.595	6.141	0.367	-0.271
-495.581	-75.642	-0.054	-0.019
-494.566	-133.173	0.308	-0.039
-493.551	-200.000	-0.021	0.119
-492.537	800.000	0.057	0.236
-491.522	186.087	0.037	-0.055
-490.508	-58.458	-0.166	0.072
-489.493	-39.481	-0.309	0.162
-488.478	344.973	0.065	0.127
-487.464	-34.985	0.269	-0.146
-486.449	366.961	0.001	0.002
-485.435	-131.586	0.223	-0.029
-484.420	-70.503	-0.428	-0.161
-483.405	150.102	-0.157	0.212
-482.391	225.252	0.138	0.223
-481.376	170.159	0.098	0.140
-480.362	-183.924	-0.384	0.006
-479.347	-200.000	0.022	-0.167
-478.332	36.723	0.098	-0.087
-477.318	-84.775	-0.368	-0.115
-476.303	-200.000	0.008	-0.078
-475.289	82.234	-0.137	-0.148
-474.274	508.975	-0.072	0.167
-473.259	91.850	0.130	0.146
-472.245	-200.000	0.001	0.028
-471.230	2.364	0.061	0.044
-470.216	123.381	-0.138	-0.172
-469.201	280.238	0.096	0.171
-468.186	-154.972	0.332	-0.022
-467.172	88.443	0.242	-0.268
-466.157	800.000	0.066	0.197
-465.143	-200.000	0.058	-0.335
-464.128	-64.983	0.043	-0.017
-463.113	107.171	-0.160	-0.189
-462.099	-107.693	0.099	0.022
-461.084	-200.000	0.008	-0.288
-460.070	-200.000	0.010	0.096
-459.055	800.000	-0.066	0.248
-458.040	-200.000	-0.011	-0.586
-457.026	-120.600	0.237	0.040
-456.011	800.000	-0.064	0.228
-454.997	130.478	-0.219	0.279
-453.982	62.922	-0.163	-0.163
-452.968	800.000	0.109	-0.385
-451.953	14.624	0.054	0.042
-450.938	45.194	-0.270	0.248
-449.924	-200.000	-0.005	0.022
-448.909	800.000	-0.058	0.204
-447.895	-19.938	0.244	0.150
-446.880	44.011	0.228	-0.208
-445.865	-118.659	0.174	0.030
-444.851	611.532	0.085	0.210
-443.836	-200.000	0.029	-0.199
-442.822	800.000	-0.014	-0.052
-441.807	-84.656	-0.219	0.069
-440.792	219.180	-0.042	0.067
-439.778	-53.551	0.106	0.048
-438.763	105.551	-0.159	-0.187
-437.749	7.297	-0.365	-0.271
-436.734	-200.000	-0.007	-0.301
-435.719	-99.627	0.314	-0.078
-434.705	800.000	-0.058	-0.168
-433.690	-49.256	0.169	-0.080
-432.676	169.128	-0.128	-0.181
-431.661	-158.910	0.090	-0.005
-430.646	-179.079	0.438	-0.010
-429.632	-200.000	0.030	-0.403
-428.617	240.642	-0.030	0.050
-427.603	-139.339	0.120	-0.013
-426.588	-200.000	-0.013	-0.104
-425.573	-73.245	-0.158	-0.057
-424.559	-140.373	0.228	0.024
-423.544	-200.000	0.009	0.393
-422.530	-7.242	-0.201	-0.136
-421.515	99.247	0.101	-0.116
-420.500	144.348	0.229	0.304
-419.486	179.435	0.047	0.068
-418.471	313.772	0.174	0.325
-417.457	-14.074	0.289	0.186
-416.442	38.655	-0.092	0.082
-415.428	-45.444	-0.419	0.206
-414.413	211.373	0.351	0.549
-413.398	-200.000	0.019	0.229
-412.384	-51.935	-0.074	-0.034
-411.369	-200.000	-0.052	0.378
-410.355	4.528	-0.024	0.018
-409.340	-200.000	0.018	-0.287
-408.325	124.303	-0.130	-0.162
-407.311	-200.000	-0.007	-0.368
-406.296	206.623	-0.184	-0.284
-405.282	320.934	-0.131	-0.247
-404.267	-52.231	0.180	-0.083
-403.252	-114.195	0.038	-0.007
-402.238	-200.000	-0.008	-0.267
-401.223	-200.000	0.056	0.281
-400.209	255.782	-0.065	0.111
-399.194	-99.948	-0.103	-0.026
-398.179	212.940	-0.116	0.182
-397.165	-200.000	-0.005	0.221
-396.150	800.000	0.017	0.063
-395.136	453.626	-0.094	-0.206
-394.121	85.268	0.297	0.324
-393.106	43.790	0.143	0.130
-392.092	800.000	0.005	-0.017
-391.077	137.601	0.099	-0.128
-390.063	-160.928	-0.074	0.004
-389.048	282.799	0.160	-0.285
-388.033	428.927	0.169	-0.363
-387.019	-200.000	-0.020	-0.194
-386.004	-200.000	-0.020	-0.129
-384.990	-31.091	0.205	-0.115
-383.975	800.000	-0.102	-0.443
-382.960	-61.920	0.259	-0.107
-381.946	-144.655	0.528	-0.048
-380.931	229.806	-0.087	0.140
-379.917	-200.000	0.045	0.342
-378.902	349.687	0.092	-0.181
-377.888	-61.046	-0.204	0.086
-376.873	37.174	0.081	-0.072
-375.858	-200.000	-0.020	0.107
-374.844	361.513	0.121	0.242
-373.829	509.813	-0.052	-0.120
-372.815	-74.017	0.130	0.047
-371.800	-49.935	0.225	0.106
-370.785	-96.972	0.186	-0.048
-369.771	-69.348	0.201	-0.076
-368.756	3.245	0.344	-0.248
-367.742	-83.266	-0.315	-0.100
-366.727	-24.191	0.155	-0.092
-365.712	153.161	-0.133	0.181
-364.698	-18.499	0.142	0.088
-363.683	-108.905	-0.373	-0.079
-362.669	-48.871	-0.048	-0.023
-361.654	-146.373	0.277	0.024
-360.639	102.848	0.141	0.164
-359.625	800.000	0.089	0.365
-358.610	-200.000	0.032	0.270
-357.596	45.427	-0.197	-0.180
-356.581	800.000	0.040	0.153
-355.566	-124.110	-0.301	0.047
-354.552	171.679	0.158	0.225
-353.537	-200.000	0.065	0.389
-352.523	-200.000	-0.013	-0.138
-351.508	-144.117	-0.156	-0.015
-350.493	-29.471	-0.141	0.080
-349.479	285.802	0.135	0.242
-348.464	-28.332	0.387	-0.222
-347.450	-105.358	-0.086	0.019
-346.435	-32.730	-0.261	0.144
-345.420	-33.293	-0.214	-0.117
-344.406	-19.494	-0.289	-0.177
-343.391	109.813	-0.222	-0.264
-342.377	34.023	0.154	-0.133
-341.362	800.000	0.066	0.217
-340.348	-60.597	-0.223	0.094
-339.333	800.000	-0.015	0.055
-338.318	-135.649	-0.171	-0.020
-337.304	677.265	-0.126	0.324
-336.289	127.843	-0.255	-0.322
-335.275	208.803	-0.260	-0.403
-334.260	106.223	0.223	0.262
-333.245	-200.000	0.006	0.251
-332.231	4.756	-0.115	0.083
-331.216	171.032	0.068	-0.096
-330.202	154.832	-0.032	0.044
-329.187	-66.040	0.050	-0.020
-328.172	-65.296	0.201	0.080
-327.158	-123.939	-0.163	0.025
-326.143	35.707	0.084	0.073
-325.129	28.481	-0.340	-0.285
-324.114	-200.000	-0.047	-0.275
-323.099	800.000	0.108	-0.369
-322.085	270.694	-0.013	0.022
-321.070	800.000	-0.031	0.118
-320.056	800.000	-0.045	0.188
-319.041	-67.156	0.217	-0.085
-318.026	-10.328	-0.132	-0.087
-317.012	42.505	0.180	-0.162
-315.997	-27.249	-0.336	0.194
-314.983	185.360	-0.173	0.255
-313.968	-96.791	-0.062	0.016
-312.953	300.976	0.081	0.149
-311.939	-79.441	-0.140	-0.047
-310.924	-200.000	-0.093	-0.515
-309.910	207.934	0.107	0.166
-308.895	81.782	0.207	-0.221
-307.880	301.835	0.042	-0.078
-306.866	-57.136	0.363	-0.158
-305.851	725.349	-0.114	-0.300
-304.837	103.416	-0.056	0.065
-303.822	-10.534	-0.177	-0.116
-302.807	138.008	0.050	0.065
-301.793	-30.147	-0.270	-0.152
-300.778	-151.231	-0.162	-0.012
-299.764	104.730	0.137	0.160
-298.749	353.837	0.038	-0.075
-297.735	89.269	-0.123	-0.135
-296.720	-190.774	-0.096	-0.001
-295.705	121.482	-0.216	0.266
-294.691	-200.000	0.002	-0.137
-293.676	-184.969	0.081	-0.001
-292.662	-190.101	0.164	0.002
-291.647	-154.897	-0.087	0.006
-290.632	800.000	0.089	0.250
-289.618	-46.498	-0.185	0.090
-288.603	-94.431	-0.058	-0.016
-287.589	50.572	-0.401	0.375
-286.574	255.640	0.048	0.081
-285.559	216.072	-0.200	0.314
-284.545	48.756	0.035	0.033
-283.530	165.101	-0.094	0.131
-282.516	-200.000	0.001	-0.082
-281.501	-200.000	0.020	0.185
-280.486	-200.000	-0.003	-0.029
-279.472	-200.000	-0.057	-0.310
-278.457	-19.167	-0.320	0.196
-277.443	-200.000	0.041	0.237
-276.428	36.376	-0.131	-0.114
-275.413	-200.000	-0.036	-0.167
-274.399	-200.000	0.016	-0.074
-273.384	-84.311	0.076	-0.024
-272.370	-200.000	0.017	0.493
-271.355	115.652	0.111	0.134
-270.340	710.477	-0.071	0.186
-269.326	-99.493	-0.127	0.032
-268.311	-54.083	-0.098	0.044
-267.297	800.000	0.031	-0.115
-266.282	-173.849	-0.070	-0.002
-265.267	-141.423	-0.096	-0.010
-264.253	800.000	0.055	-0.187
-263.238	143.861	-0.098	-0.129
-262.224	-99.240	-0.213	0.053
-261.209	-112.291	-0.321	-0.064
-260.195	239.889	0.248	0.408
-259.180	-171.348	0.168	-0.006
-258.165	82.256	0.279	0.298
-257.151	-6.049	0.270	-0.182
-256.136	800.000	0.100	0.322
-255.122	-52.963	-0.208	-0.094
-254.107	695.522	-0.065	-0.169
-253.092	-200.000	-0.011	-0.243
-252.078	800.000	0.111	-0.378
-251.063	-9.354	-0.109	-0.072
-250.049	-8.595	0.235	-0.156
-249.034	800.000	-0.070	0.234
-248.019	-200.000	-0.014	-0.095
-247.005	-91.220	-0.050	-0.014
-245.990	-40.204	-0.448	-0.230
-244.976	-200.000	-0.058	-0.351
-243.961	159.729	-0.118	0.163
-242.946	55.156	0.070	-0.067
-241.932	-46.999	-0.107	0.052
-240.917	-168.428	0.401	0.015
-239.903	-200.000	-0.006	-0.126
-238.888	-46.927	0.168	-0.081
-237.873	-112.538	0.060	0.012
-236.859	386.375	-0.150	-0.305
-235.844	-195.838	-0.101	-0.001
-234.830	725.439	-0.087	-0.229
-233.815	-74.541	-0.269	0.096
-232.800	-58.804	-0.048	-0.021
-231.786	-133.239	0.218	0.027
-230.771	24.950	-0.035	0.028
-229.757	-77.093	0.084	0.029
-228.742	27.180	0.284	0.235
-227.727	-200.000	-0.031	0.186
-226.713	800.000	0.063	0.263
-225.698	517.730	0.067	0.155
-224.684	-136.213	0.155	-0.018
-223.669	113.339	0.178	0.213
-222.655	121.343	-0.101	-0.124
-221.640	-87.465	0.351	0.105
-220.625	74.730	-0.348	-0.361
-219.611	378.016	-0.144	0.291
-218.596	-19.540	0.086	-0.053
-217.582	-35.906	0.281	-0.150
-216.567	369.108	0.059	0.118
-215.552	-200.000	0.038	0.365
-214.538	-16.852	0.129	0.080
-213.523	-194.086	0.186	0.002
-212.509	-138.138	-0.305	0.033
-211.494	-121.033	0.129	0.021
-210.479	-70.589	0.217	-0.081
-209.465	-24.980	0.126	-0.074
-208.450	-200.000	-0.009	0.103
-207.436	800.000	0.040	-0.125
-206.421	-79.544	-0.241	0.080
-205.406	-64.844	0.148	0.059
-204.392	141.666	-0.110	0.144
-203.377	-200.000	0.031	0.230
-202.363	-200.000	0.010	-0.200
-201.348	306.450	-0.028	-0.051
-200.333	251.675	0.063	-0.106
-199.319	-107.634	0.207	0.045
-198.304	-53.861	-0.236	-0.106
-197.290	-57.323	0.110	0.048
-196.275	-158.494	-0.290	0.017
-195.260	-200.000	0.016	0.095
-194.246	34.367	0.314	0.270
-193.231	422.970	0.115	-0.243
-192.217	547.079	0.017	-0.040
-191.202	800.000	0.064	-0.205
-190.187	374.488	-0.121	0.243
-189.173	-107.860	0.038	0.008
-188.158	-67.605	-0.214	-0.083
-187.144	-51.842	0.255	0.117
-186.129	303.502	-0.243	0.444
-185.114	-200.000	0.080	0.387
-184.100	-37.992	-0.229	-0.120
-183.085	-200.000	-0.039	0.298
-182.071	140.613	0.035	0.046
-181.056	-57.371	-0.287	0.124
-180.042	422.841	0.074	0.156
-179.027	110.118	-0.138	0.163
-178.012	800.000	-0.041	0.126
-176.998	242.881	0.089	0.147
-175.983	107.739	-0.119	0.140
-174.969	-200.000	-0.003	0.032
-173.954	800.000	0.052	0.218
-172.939	-63.596	-0.289	0.117
-171.925	152.793	0.151	0.204
-170.910	-15.671	-0.148	-0.093
-169.896	800.000	-0.038	-0.131
-168.881	-133.078	-0.104	-0.013
-167.866	-145.371	-0.143	-0.013
-166.852	-33.568	0.119	0.065
-165.837	-158.289	0.288	-0.017
-164.823	30.174	0.103	0.086
-163.808	800.000	0.079	-0.246
-162.793	310.048	-0.068	0.125
-161.779	-144.948	0.092	0.008
-160.764	-200.000	0.004	-0.084
-159.750	-200.000	0.010	-0.249
-158.735	-118.262	0.278	-0.049
-157.720	99.043	0.084	-0.096
-156.706	-200.000	-0.024	0.330
-155.691	469.397	0.135	-0.298
-154.677	-6.447	0.085	0.057
-153.662	-163.412	0.182	-0.009
-152.647	-85.029	-0.132	-0.041
-151.633	93.543	-0.105	-0.117
-150.618	114.341	0.102	-0.123
-149.604	-156.358	-0.216	-0.013
-148.589	651.434	0.054	-0.137
-147.574	401.324	0.044	0.090
-146.560	27.545	-0.136	0.112
-145.545	215.528	0.198	-0.310
-144.531	-19.240	-0.458	-0.280
-143.516	7.253	-0.277	-0.204
-142.502	34.384	-0.219	-0.188
-141.487	-200.000	0.033	0.240
-140.472	-93.970	0.368	0.099
-139.458	-145.786	-0.219	-0.019
-138.443	800.000	0.044	0.177
-137.429	25.411	0.309	-0.252
-136.414	-102.374	0.371	0.087
-135.399	-200.000	0.027	-0.244
-134.385	800.000	-0.023	0.066
-133.370	-200.000	-0.003	0.043
-132.356	96.593	0.249	-0.280
-131.341	262.217	-0.093	-0.158
-130.326	27.632	-0.131	-0.108
-129.312	363.796	0.127	-0.251
-128.297	2.600	-0.207	-0.148
-127.283	800.000	-0.088	-0.323
-126.268	143.226	-0.110	-0.144
-125.253	3.466	-0.217	0.156
-124.239	-7.227	0.141	-0.094
-123.224	-58.239	0.185	0.079
-122.210	105.042	-0.253	0.294
-121.195	-200.000	0.010	-0.067
-120.180	777.013	0.091	-0.243
-119.166	800.000	-0.036	0.136
-118.151	-47.772	-0.083	-0.040
-117.137	304.793	0.103	-0.187
-116.122	-5.175	0.217	0.146
-115.107	76.800	-0.150	-0.156
-114.093	15.776	-0.073	-0.057
-113.078	11.756	-0.182	0.137
-112.064	758.369	0.044	0.116
-111.049	453.874	-0.262	0.570
-110.034	-200.000	0.048	0.229
-109.020	396.354	-0.044	0.090
-108.005	-120.124	0.440	-0.074
-106.991	-200.000	-0.013	0.067
-105.976	800.000	0.064	-0.195
-104.962	10.179	-0.037	0.028
-103.947	383.325	0.128	0.260
-102.932	115.515	-0.244	0.293
-101.918	740.262	0.040	0.107
-100.903	-186.650	-0.144	0.002
-99.889	800.000	0.096	0.346
-98.874	-188.807	0.216	0.003
-97.859	555.336	0.129	0.305
-96.845	57.384	0.056	0.054
-95.830	800.000	0.103	-0.286
-94.816	-144.145	-0.035	0.003
-93.801	-50.054	0.176	-0.082
-92.786	65.824	0.131	0.130
-91.772	-47.594	0.138	-0.066
-90.757	40.201	0.127	0.112
-89.743	-34.908	0.536	0.287
-88.728	154.775	0.272	0.367
-87.713	213.183	-0.058	-0.090
-86.699	-200.000	-0.005	-0.233
-85.684	784.741	-0.120	-0.323
-84.670	-168.486	-0.018	-0.001
-83.655	-13.366	-0.096	-0.061
-82.640	-56.361	0.163	0.071
-81.626	216.322	-0.153	0.239
-80.611	-91.274	0.209	0.059
-79.597	-162.722	0.130	0.006
-78.582	-200.000	0.019	0.228
-77.567	-200.000	0.010	0.050
-76.553	2.194	0.162	0.115
-75.538	-149.379	-0.138	-0.011
-74.524	-117.806	0.065	-0.011
-73.509	-200.000	-0.013	-0.134
-72.494	800.000	-0.056	-0.161
-71.480	-200.000	0.017	0.091
-70.465	489.950	0.063	-0.142
-69.451	231.239	-0.038	0.062
-68.436	-101.436	-0.029	0.007
-67.422	-90.685	-0.222	0.063
-66.407	103.031	-0.103	0.118
-65.392	44.177	-0.117	-0.105
-64.378	-6.766	0.261	-0.174
-63.363	370.329	-0.138	0.273
-62.349	175.739	0.145	0.206
-61.334	152.059	-0.834	-1.114
-60.319	-86.025	0.586	0.178
-59.305	325.219	-0.557	-1.043
-58.290	297.614	0.873	1.572
-57.276	800.000	0.492	1.716
-56.261	-200.000	111.867	634.790
-55.246	470.667	1504.140	3313.916
-54.232	147.923	2667.557	3524.340
-53.217	104.104	2175.827	2506.826
-52.203	38.120	1706.530	1487.657
-51.188	30.848	1524.775	1279.425
-50.173	28.530	1500.819	1243.582
-49.159	51.460	1557.115	1449.135
-48.144	50.826	1573.099	1459.580
-47.130	31.003	1529.927	1284.612
-46.115	27.900	1515.587	1251.300
-45.100	27.722	1512.156	1247.200
-44.086	27.805	1510.035	1245.971
-43.071	27.751	1507.737	1243.654
-42.057	27.681	1506.465	1242.081
-41.042	27.722	1504.810	1240.948
-40.027	27.750	1503.386	1239.912
-39.013	27.628	1501.884	1237.800
-37.998	27.680	1500.225	1236.736
-36.984	27.614	1499.879	1235.951
-35.969	27.649	1498.381	1234.905
-34.954	27.597	1496.995	1233.361
-33.940	27.645	1495.718	1232.588
-32.925	27.614	1494.125	1231.015
-31.911	27.714	1492.699	1230.462
-30.896	27.685	1491.727	1229.421
-29.881	27.741	1490.167	1228.463
-28.867	27.723	1488.380	1226.822
-27.852	27.740	1487.268	1225.968
-26.838	27.674	1486.501	1224.844
-25.823	27.761	1484.284	1223.550
-24.809	27.691	1483.107	1222.063
-23.794	27.686	1481.847	1220.947
-22.779	27.722	1480.476	1220.004
-21.765	27.743	1479.685	1219.449
-20.750	27.849	1478.013	1218.731
-19.736	27.726	1477.237	1217.222
-18.721	27.707	1476.391	1216.350
-17.706	27.603	1475.133	1214.571
-16.692	27.698	1473.714	1213.986
-15.677	27.720	1472.666	1213.222
-14.663	27.697	1472.085	1212.541
-13.648	27.731	1470.961	1211.794
-12.633	27.722	1469.894	1210.806
-11.619	27.671	1469.508	1210.101
-10.604	27.661	1468.517	1209.173
-9.590	27.678	1467.768	1208.619
-8.575	27.693	1466.859	1207.921
-7.560	27.669	1466.016	1207.019
-6.546	27.753	1464.914	1206.624
-5.531	27.713	1463.959	1205.522
-4.517	27.615	1463.189	1204.193
-3.502	27.653	1462.391	1203.739
-2.487	27.637	1460.967	1202.412
-1.473	27.701	1459.775	1201.806
-0.458	27.639	1459.084	1200.779
0.556	25.958	1449.178	1190.357
1.571	23.124	1424.074	1151.223
2.586	19.859	1361.920	1080.522
3.600	18.201	1277.825	1003.994
4.615	17.142	1233.290	962.910
5.629	14.845	1177.559	906.871
6.644	7.507	1092.584	804.291
7.659	1.251	1053.433	744.770
8.673	0.355	1048.050	736.519
9.688	0.185	1044.899	733.415
10.702	0.044	1043.549	731.717
11.717	-0.074	1041.808	729.857
12.731	2.508	1043.721	743.683
13.746	10.310	1053.413	788.645
14.761	16.345	1060.904	823.700
15.775	17.255	1061.749	828.722
16.790	16.520	1059.934	823.656
17.804	15.488	1057.497	816.670
18.819	14.587	1055.912	810.996
19.834	14.207	1054.212	807.777
20.848	13.974	1053.168	805.771
21.863	13.680	1053.006	804.153
22.877	13.384	1051.769	801.702
23.892	13.203	1051.206	800.326
24.907	13.068	1050.754	799.259
25.921	13.166	1049.162	798.448
26.936	13.142	1049.037	798.170
27.950	13.315	1048.059	798.187
28.965	13.287	1047.217	797.343
29.980	13.307	1046.573	796.878
30.994	13.356	1045.549	796.262
32.009	13.373	1044.891	795.775
33.023	13.358	1044.576	795.390
34.038	13.350	1043.291	794.301
35.053	13.321	1042.295	793.336
36.067	13.343	1041.399	792.687
37.082	13.300	1040.863	792.005
38.096	13.308	1040.072	791.370
39.111	13.270	1039.316	790.543
40.126	13.358	1038.383	790.182
41.140	13.231	1037.456	788.803
42.155	13.159	1036.346	787.546
43.169	13.205	1035.482	787.039
44.184	13.043	1034.499	785.449
45.199	13.127	1033.218	784.808
46.213	13.110	1032.474	784.093
47.228	13.211	1031.225	783.555
48.242	13.263	1030.190	782.943
49.257	13.226	1029.737	782.354
50.271	13.308	1028.320	781.598
51.286	13.202	1027.713	780.567
52.301	13.264	1026.698	780.021
53.315	13.315	1025.936	779.613
54.330	13.086	1025.537	778.159
55.344	13.199	1024.364	777.731
56.359	13.220	1023.173	776.858
57.374	13.192	1022.560	776.193
58.388	13.183	1021.735	775.458
59.403	13.154	1021.216	774.856
60.417	13.148	1020.231	774.014
61.432	13.079	1019.817	773.307
62.447	13.071	1018.720	772.373
63.461	13.019	1018.001	771.514
64.476	13.040	1017.044	770.816
65.490	13.127	1016.018	770.379
66.505	13.043	1015.469	769.504
67.520	13.066	1014.643	768.916
68.534	13.019	1014.211	768.301
69.549	13.059	1013.075	767.558
70.563	13.118	1012.331	767.203
71.578	12.983	1011.825	766.124
72.593	13.021	1010.771	765.433
73.607	13.066	1009.339	764.487
74.622	13.079	1008.607	763.926
75.636	13.011	1007.994	763.083
76.651	13.096	1007.009	762.663
77.666	13.038	1006.422	761.881
78.680	12.965	1005.442	760.736
79.695	12.924	1005.348	760.408
80.709	13.105	1004.484	760.523
81.724	13.120	1003.710	759.936
82.739	13.187	1002.729	759.436
83.753	13.157	1002.270	758.882
84.768	13.185	1001.370	758.263
85.782	13.156	1000.668	757.529
86.797	13.333	1000.076	757.825
87.812	13.265	999.427	756.955
88.826	13.179	998.535	755.821
89.841	13.223	997.417	755.109
90.855	13.246	996.826	754.699
91.870	13.232	995.599	753.641
92.884	13.374	995.106	753.845
93.899	13.380	994.061	753.013
94.914	13.496	993.171	752.801
95.928	13.297	993.281	751.914
96.943	13.420	991.787	751.272
97.957	13.456	991.056	750.818
98.972	13.387	990.801	750.246
99.987	13.333	989.959	749.295
101.001	13.453	989.038	749.075
102.016	13.315	988.688	748.119
103.030	13.375	987.642	747.532
104.045	13.207	986.537	745.876
105.060	13.333	985.751	745.780
106.074	13.279	985.076	744.961
107.089	13.307	983.818	744.070
108.103	13.276	983.111	743.330
109.118	13.374	981.842	742.744
110.133	13.110	981.527	741.258
111.147	13.172	980.606	740.771
112.162	13.316	979.703	740.669
113.176	13.151	978.631	739.057
114.191	13.264	977.628	738.737
115.206	13.174	976.993	737.790
116.220	13.279	976.303	737.675
117.235	13.331	975.437	737.186
118.249	13.093	975.158	735.847
119.264	13.198	973.546	735.033
120.279	13.147	972.964	734.305
121.293	13.197	971.999	733.734
122.308	13.222	971.557	733.443
123.322	13.098	970.636	732.134
124.337	13.171	969.173	731.290
125.352	13.189	968.353	730.684
126.366	13.236	967.210	729.967
127.381	13.068	966.268	728.451
128.395	12.910	965.662	727.233
129.410	13.152	964.161	727.101
130.424	13.190	963.706	726.863
131.439	13.250	962.153	725.889
132.454	13.163	961.435	724.901
133.468	13.281	960.868	724.930
134.483	13.283	960.167	724.343
135.497	13.363	959.262	723.948
136.512	13.219	958.950	723.019
137.527	13.390	957.402	722.534
138.541	13.187	957.265	721.478
139.556	13.189	956.651	720.960
140.570	13.402	955.518	720.972
141.585	13.205	955.046	719.695
142.600	13.441	953.946	719.829
143.614	13.450	953.466	719.440
144.629	13.425	952.935	718.867
145.643	13.499	951.810	718.276
146.658	13.437	950.945	717.294
147.673	13.466	949.798	716.491
148.687	13.205	949.848	715.332
149.702	13.311	948.441	714.667
150.716	13.148	948.084	713.630
151.731	13.226	946.790	712.933
152.746	13.351	945.870	712.716
153.760	13.464	945.212	712.644
154.775	13.472	944.538	712.106
155.789	13.365	943.882	711.088
156.804	13.425	943.010	710.625
157.819	13.472	942.227	710.175
158.833	13.433	941.591	709.468
159.848	13.502	941.147	709.362
160.862	13.377	940.636	708.378
161.877	13.525	939.469	708.071
162.892	13.583	938.647	707.636
163.906	13.446	937.916	706.438
164.921	13.409	937.222	705.695
165.935	13.503	935.873	705.017
166.950	13.405	935.246	704.064
167.964	13.484	934.220	703.566
168.979	13.474	933.396	702.841
169.994	13.411	932.364	701.735
171.008	13.490	931.573	701.412
172.023	13.521	930.467	700.650
173.037	13.610	929.896	700.534
174.052	13.642	929.050	699.969
175.067	13.621	928.987	699.770
176.081	13.508	927.992	698.482
177.096	13.526	927.341	698.007
178.110	13.684	926.375	697.882
179.125	13.462	925.984	696.594
180.140	13.507	925.423	696.301
181.154	13.575	924.364	695.724
182.169	13.663	923.389	695.298
183.183	13.652	923.170	695.027
184.198	13.735	922.326	694.676
185.213	13.625	921.968	693.884
186.227	13.702	920.916	693.354
187.242	13.767	920.940	693.583
188.256	13.730	920.280	692.872
189.271	13.772	919.318	692.260
190.286	13.874	918.610	692.092
191.300	13.752	917.514	690.698
192.315	13.611	916.808	689.516
193.329	13.616	916.311	689.101
194.344	13.636	915.726	688.686
195.359	13.649	914.388	687.673
196.373	13.676	914.558	687.853
197.388	13.891	913.871	688.164
198.402	13.915	913.285	687.760
199.417	13.977	912.699	687.516
200.432	14.052	912.648	687.727
201.446	13.952	912.148	686.876
202.461	13.989	911.967	686.831
203.475	14.081	911.372	686.705
204.490	14.097	910.678	686.185
205.504	13.973	909.208	684.505
206.519	13.984	908.909	684.265
207.534	14.024	908.193	683.831
208.548	13.978	907.319	682.923
209.563	14.002	906.815	682.582
210.577	14.051	906.041	682.141
211.592	14.025	905.487	681.555
212.607	14.049	905.117	681.317
213.621	14.189	904.440	681.320
214.636	14.124	903.374	680.191
215.650	14.037	903.273	679.698
216.665	14.055	902.974	679.485
217.680	14.197	902.029	679.296
218.694	14.289	901.427	679.155
219.709	14.264	900.755	678.487
220.723	14.363	900.077	678.319
221.738	14.322	899.463	677.630
222.753	14.298	898.600	676.824
223.767	14.081	898.335	675.684
224.782	14.299	897.240	675.683
225.796	14.259	896.602	674.981
226.811	14.311	896.094	674.748
227.826	14.319	895.089	673.967
228.840	14.429	894.459	673.878
229.855	14.311	894.008	672.999
230.869	14.270	893.417	672.330
231.884	14.250	893.075	671.935
232.899	14.345	891.992	671.440
233.913	14.292	891.227	670.591
234.928	14.303	890.371	669.933
235.942	14.285	889.791	669.364
236.957	14.254	889.041	668.619
237.972	14.194	888.605	667.990
238.986	14.200	887.871	667.403
240.001	14.286	887.397	667.334
241.015	14.278	886.932	666.891
242.030	14.332	885.867	666.247
243.045	14.240	885.509	665.550
244.059	14.501	884.701	665.928
245.074	14.515	884.078	665.455
246.088	14.517	883.306	664.823
247.103	14.570	883.035	664.773
248.117	14.491	882.361	663.890
249.132	14.618	881.500	663.691
250.147	14.493	881.468	663.108
251.161	14.789	880.232	663.296
252.176	14.832	879.539	662.888
253.190	14.871	878.494	662.195
254.205	14.775	878.163	661.509
255.220	14.897	877.802	661.659
256.234	14.772	877.124	660.594
257.249	14.839	876.719	660.496
258.263	14.963	876.024	660.406
259.278	14.933	875.269	659.660
260.293	14.889	875.055	659.263
261.307	14.864	874.365	658.590
262.322	14.866	873.695	658.034
263.336	14.945	873.246	657.948
264.351	15.007	872.754	657.764
265.366	14.962	872.149	657.071
266.380	15.019	871.699	656.899
267.395	15.007	870.787	656.105
268.409	15.003	870.102	655.517
269.424	14.956	869.026	654.463
270.439	15.120	868.395	654.571
271.453	14.954	867.949	653.528
272.468	15.032	866.922	653.001
273.482	14.942	866.737	652.454
274.497	15.133	865.840	652.467
275.512	14.976	865.334	651.414
276.526	15.131	864.411	651.266
277.541	15.062	863.845	650.513
278.555	15.142	863.060	650.175
279.570	15.113	862.747	649.768
280.585	15.155	862.377	649.594
281.599	15.194	862.048	649.442
282.614	15.140	860.921	648.326
283.628	15.314	860.228	648.420
284.643	15.244	860.030	647.943
285.657	15.165	859.441	647.135
286.672	15.266	858.953	647.101
287.687	15.254	858.112	646.366
288.701	15.286	857.580	646.028
289.716	15.130	857.259	645.130
290.730	15.370	856.517	645.436
291.745	15.438	855.748	645.064
292.760	15.348	855.168	644.223
293.774	15.346	854.578	643.715
294.789	15.461	854.044	643.696
295.803	15.523	853.193	643.233
296.818	15.433	852.698	642.460
297.833	15.329	852.440	641.808
298.847	15.331	851.513	641.063
299.862	15.507	850.659	641.034
300.876	15.413	849.895	640.044
301.891	15.556	849.396	640.156
302.906	15.524	848.882	639.594
303.920	15.528	848.139	638.992
304.935	15.631	847.503	638.846
305.949	15.703	846.744	638.492
306.964	15.709	846.150	638.008
307.979	15.592	845.968	637.371
308.993	15.763	845.270	637.439
310.008	15.694	844.648	636.651
311.022	15.895	843.990	636.857
312.037	15.802	843.566	636.129
313.052	15.746	843.172	635.567
314.066	15.756	842.363	634.938
315.081	15.633	841.921	634.083
316.095	15.567	841.488	633.453
317.110	15.688	840.955	633.452
318.125	15.601	840.487	632.717
319.139	15.664	839.804	632.382
320.154	15.772	839.407	632.434
321.168	15.662	838.780	631.494
322.183	15.743	838.091	631.221
323.197	15.675	837.967	630.816
324.212	15.791	837.287	630.686
325.227	15.780	836.436	629.945
326.241	15.918	836.094	630.149
327.256	15.884	835.163	629.263
328.270	15.844	834.776	628.769
329.285	15.940	834.119	628.575
330.300	15.792	833.956	627.846
331.314	15.686	833.507	627.057
332.329	15.749	832.580	626.537
333.343	15.938	831.714	626.536
334.358	15.998	831.194	626.309
335.373	15.835	830.751	625.317
336.387	16.005	830.222	625.493
337.402	16.094	829.655	625.342
338.416	15.892	829.016	624.055
339.431	16.137	828.483	624.506
340.446	16.031	828.182	623.830
341.460	16.156	827.216	623.509
342.475	16.231	826.696	623.342
343.489	16.238	826.204	622.942
344.504	16.175	825.966	622.475
345.519	16.394	825.569	622.926
346.533	16.203	824.682	621.500
347.548	16.326	824.122	621.474
348.562	16.421	823.414	621.236
349.577	16.183	823.005	619.996
350.592	16.164	822.463	619.464
351.606	16.161	822.247	619.234
352.621	16.242	821.516	618.927
353.635	16.201	821.205	618.486
354.650	16.250	820.743	618.265
355.665	16.225	820.354	617.823
356.679	16.281	820.463	618.057
357.694	16.285	819.707	617.448
358.708	16.386	818.739	617.034
359.723	16.415	818.243	616.710
360.738	16.417	817.438	616.058
361.752	16.302	817.611	615.713
362.767	16.383	816.899	615.419
363.781	16.473	816.505	615.393
364.796	16.388	816.245	614.833
365.810	16.349	815.777	614.286
366.825	16.704	814.766	614.760
367.840	16.643	814.634	614.383
368.854	16.767	814.463	614.650
369.869	16.506	813.997	613.297
370.883	16.479	813.881	613.058
371.898	16.406	812.734	611.874
372.913	16.636	812.113	612.186
373.927	16.615	811.689	611.735
374.942	16.655	811.044	611.340
375.956	16.655	810.293	610.721
376.971	16.698	809.743	610.408
377.986	16.765	809.172	610.165
379.000	16.776	808.853	609.907
380.015	16.842	808.528	609.849
381.029	16.818	807.817	609.172
382.044	16.903	807.096	608.877
383.059	16.878	806.781	608.496
384.073	16.766	806.042	607.485
385.088	17.059	805.431	608.021
386.102	16.809	805.234	606.923
387.117	16.694	804.963	606.251
388.132	16.694	804.201	605.625
389.146	16.777	803.993	605.710
390.161	16.772	803.809	605.501
391.175	16.825	802.882	604.938
392.190	17.041	802.505	605.371
393.205	16.945	802.036	604.620
394.219	16.796	801.612	603.717
395.234	16.815	801.399	603.573
396.248	16.825	800.805	603.108
397.263	16.885	799.914	602.595
398.278	16.774	799.940	602.168
399.292	16.771	799.512	601.782
400.307	16.901	799.019	601.817
401.321	16.927	798.198	601.237
402.336	16.971	798.245	601.377
403.350	17.021	797.553	600.980
404.365	16.976	797.255	600.542
405.380	17.033	796.845	600.383
406.394	17.045	796.376	600.019
407.409	17.070	796.031	599.792
408.423	17.231	795.207	599.687
409.438	17.113	795.071	599.115
410.453	17.262	794.691	599.301
411.467	17.147	794.249	598.510
412.482	17.319	793.441	598.454
413.496	17.291	793.300	598.194
414.511	17.353	792.785	597.972
415.526	17.370	792.583	597.826
416.540	17.213	792.557	597.202
417.555	17.265	791.757	596.730
418.569	17.406	790.849	596.488
419.584	17.422	790.664	596.351
420.599	17.380	790.302	595.878
421.613	110.627	1293.264	1476.525
422.628	94.978	1366.530	1476.602
