DTS Sentinel unit serial number:	SN413079Multiplexer serial number:	ORYXHardware model number:	OX4-SRSoftware version number:	ORYX F/W v4.00 Oryx Data Collector v3.7.2.0data status	okinstallation	princeton_trtdifferential loss correction	single-endedforward channel	channel 3reverse channel	N/Adate	2019/09/18time	03:44:35forward acquisition time	60.00reverse acquisition time	0.00gamma	496.2192k internal	0.2343k external	0.2343temperature offset calibration	0.9947default loss term (dB/km)	0.3790temperature slope calibration	1.0000multiplexer offset coefficient	1.0000multiplexer slope coefficient	1.0000fibre end	0.00T internal ref (°C)	22.94T ext. ref 1 (°C)	0.17T ext. ref 2 (°C)	18.05length (m)	temperature (°C)	Stokes	anti-Stokes-747.200	-89.132	-0.259	0.076
-746.185	800.000	0.046	-0.131
-745.171	85.059	-0.157	-0.172
-744.156	-31.967	-0.073	-0.041
-743.142	173.194	0.156	0.226
-742.127	800.000	-0.064	0.219
-741.112	84.176	-0.226	-0.248
-740.098	11.955	-0.195	-0.150
-739.083	-200.000	0.014	-0.092
-738.069	-200.000	-0.008	-0.066
-737.054	-200.000	-0.007	-0.351
-736.039	-130.589	-0.649	0.088
-735.025	157.525	0.244	0.338
-734.010	533.773	0.040	-0.094
-732.996	-96.773	0.073	-0.019
-731.981	-57.400	0.243	-0.107
-730.966	162.521	-0.099	-0.140
-729.952	-144.188	0.109	0.010
-728.937	-200.000	-0.150	0.000
-727.923	-0.167	-0.056	-0.040
-726.908	-200.000	-0.068	-0.369
-725.894	796.911	-0.052	-0.143
-724.879	800.000	-0.125	-0.481
-723.864	-200.000	-0.019	-0.260
-722.850	-123.599	0.261	-0.041
-721.835	800.000	0.069	0.206
-720.821	647.044	-0.027	-0.069
-719.806	-47.127	0.046	0.023
-718.791	-141.514	0.221	0.022
-717.777	301.832	-0.164	-0.303
-716.762	800.000	0.021	-0.064
-715.748	64.690	-0.179	0.181
-714.733	29.452	-0.166	0.141
-713.718	66.136	-0.218	-0.221
-712.704	-56.707	-0.409	0.181
-711.689	-53.222	0.350	0.161
-710.675	58.432	-0.033	-0.032
-709.660	800.000	-0.038	0.145
-708.645	-27.054	-0.074	-0.043
-707.631	-31.874	0.293	0.164
-706.616	-12.661	-0.088	0.057
-705.602	-200.000	-0.001	-0.162
-704.587	-200.000	-0.006	-0.063
-703.572	161.969	-0.178	-0.250
-702.558	-94.131	0.187	-0.051
-701.543	-48.902	-0.315	0.151
-700.529	77.579	-0.039	-0.041
-699.514	239.748	-0.130	0.216
-698.499	-140.350	0.073	-0.008
-697.485	32.188	0.180	-0.155
-696.470	-200.000	-0.037	-0.421
-695.456	800.000	-0.022	-0.080
-694.441	290.780	0.143	0.259
-693.426	-88.408	-0.212	0.063
-692.412	-200.000	-0.058	-0.384
-691.397	800.000	-0.006	0.023
-690.383	178.962	0.222	-0.324
-689.368	-200.000	-0.027	-0.334
-688.354	47.211	-0.141	0.131
-687.339	-200.000	0.030	0.149
-686.324	-200.000	0.005	0.187
-685.310	291.639	-0.143	0.260
-684.295	-200.000	-0.018	-0.235
-683.281	450.837	0.136	-0.299
-682.266	-120.364	0.048	0.008
-681.251	674.685	0.200	-0.518
-680.237	698.230	-0.079	0.207
-679.222	-71.872	-0.120	0.044
-678.208	-28.026	0.177	-0.102
-677.193	-87.999	0.200	0.060
-676.178	800.000	-0.071	0.271
-675.164	-25.786	0.260	0.153
-674.149	136.705	0.113	-0.147
-673.135	-55.267	0.228	0.102
-672.120	26.677	-0.078	0.065
-671.105	181.014	0.139	0.204
-670.091	800.000	0.077	-0.319
-669.076	27.424	-0.165	0.139
-668.062	-200.000	-0.036	-0.178
-667.047	407.529	-0.146	0.309
-666.032	318.009	0.089	0.169
-665.018	-200.000	0.004	0.040
-664.003	-200.000	0.007	0.136
-662.989	-123.473	0.072	0.011
-661.974	-2.608	0.143	0.100
-660.959	211.103	0.137	-0.215
-659.945	-110.921	0.172	0.035
-658.930	137.444	-0.148	-0.193
-657.916	-2.430	-0.060	0.042
-656.901	-174.138	0.340	0.010
-655.886	-200.000	0.041	-0.300
-654.872	-119.072	-0.285	0.050
-653.857	485.826	-0.167	0.381
-652.843	64.958	0.043	-0.043
-651.828	37.774	-0.097	-0.086
-650.814	-200.000	0.060	-0.300
-649.799	800.000	0.104	-0.289
-648.784	-93.785	-0.128	0.035
-647.770	-119.414	0.253	-0.044
-646.755	251.182	0.109	0.185
-645.741	-32.750	-0.306	-0.170
-644.726	189.651	0.154	-0.230
-643.711	212.585	0.119	-0.188
-642.697	800.000	-0.115	0.369
-641.682	106.492	-0.018	-0.021
-640.668	106.412	-0.183	-0.216
-639.653	490.979	0.139	0.318
-638.638	800.000	-0.041	0.120
-637.624	-200.000	0.012	0.057
-636.609	-110.231	-0.239	0.050
-635.595	-74.591	-0.232	0.083
-634.580	-117.231	-0.152	0.028
-633.565	800.000	0.060	-0.221
-632.551	153.213	0.126	0.173
-631.536	81.404	-0.087	-0.094
-630.522	-200.000	-0.045	0.320
-629.507	168.428	0.147	0.209
-628.492	800.000	-0.116	0.396
-627.478	26.847	0.112	-0.094
-626.463	800.000	0.024	-0.074
-625.449	800.000	0.026	-0.072
-624.434	-121.786	-0.221	0.036
-623.419	-83.301	0.317	0.101
-622.405	-200.000	0.010	-0.120
-621.390	-200.000	0.002	-0.077
-620.376	-200.000	-0.037	0.252
-619.361	-6.279	0.129	-0.088
-618.346	800.000	0.087	0.291
-617.332	-200.000	0.033	0.219
-616.317	-105.647	0.302	-0.068
-615.303	25.594	-0.303	0.251
-614.288	471.431	0.070	0.156
-613.273	-200.000	-0.037	-0.173
-612.259	-200.000	0.030	-0.186
-611.244	190.335	-0.094	-0.141
-610.230	-200.000	0.042	-0.337
-609.215	254.218	-0.070	-0.119
-608.201	-8.017	-0.154	0.103
-607.186	146.643	0.140	0.187
-606.171	-104.204	0.354	0.082
-605.157	-195.002	-0.348	0.003
-604.142	700.377	-0.038	-0.099
-603.128	48.789	-0.134	0.125
-602.113	164.523	0.169	-0.238
-601.098	29.272	-0.428	0.362
-600.084	193.900	0.126	-0.190
-599.069	-155.025	0.118	0.008
-598.055	62.280	-0.206	-0.205
-597.040	-200.000	0.041	-0.292
-596.025	-158.832	-0.108	-0.006
-595.011	-86.009	-0.251	-0.077
-593.996	129.652	-0.073	0.093
-592.982	-109.356	0.388	-0.082
-591.967	-81.777	0.215	0.070
-590.952	546.205	-0.100	0.237
-589.938	-200.000	0.005	-0.169
-588.923	163.187	0.113	0.158
-587.909	-24.296	0.127	-0.075
-586.894	283.225	-0.095	0.171
-585.879	-181.173	-0.125	0.002
-584.865	-60.356	-0.407	0.172
-583.850	136.521	0.083	-0.108
-582.836	-52.920	-0.044	-0.020
-581.821	482.531	-0.049	0.110
-580.806	38.840	0.135	-0.120
-579.792	-152.112	-0.134	-0.010
-578.777	-79.572	-0.203	0.068
-577.763	-81.258	-0.250	-0.082
-576.748	-200.000	-0.013	0.244
-575.733	-60.778	-0.423	0.178
-574.719	106.977	-0.191	-0.226
-573.704	54.130	0.175	-0.167
-572.690	-200.000	0.011	-0.130
-571.675	-200.000	0.004	-0.124
-570.661	800.000	-0.064	-0.208
-569.646	-21.792	0.180	0.109
-568.631	-71.780	0.070	-0.026
-567.617	800.000	-0.120	0.427
-566.602	694.828	-0.059	0.154
-565.588	-200.000	-0.040	0.196
-564.573	800.000	0.053	0.163
-563.558	-200.000	-0.019	0.220
-562.544	800.000	-0.083	0.237
-561.529	-200.000	0.008	-0.184
-560.515	126.820	-0.324	0.409
-559.500	312.572	0.060	-0.112
-558.485	119.951	0.135	-0.166
-557.471	19.333	-0.192	0.153
-556.456	-200.000	-0.058	0.261
-555.442	759.171	0.073	-0.198
-554.427	-35.243	0.122	-0.066
-553.412	89.143	-0.053	-0.059
-552.398	61.779	-0.035	0.035
-551.383	-200.000	0.009	-0.194
-550.369	91.694	0.129	0.144
-549.354	800.000	0.052	-0.190
-548.339	-200.000	0.015	0.441
-547.325	-200.000	0.028	0.361
-546.310	622.613	-0.079	0.197
-545.296	40.226	-0.136	0.121
-544.281	-91.066	0.125	-0.036
-543.266	-50.670	0.094	0.044
-542.252	-91.255	0.273	0.078
-541.237	-40.473	0.361	-0.186
-540.223	-200.000	0.035	0.156
-539.208	22.617	-0.335	-0.273
-538.193	564.831	0.066	-0.158
-537.179	544.079	-0.115	0.273
-536.164	-124.803	0.289	0.044
-535.150	209.596	-0.097	-0.151
-534.135	-175.329	0.180	-0.005
-533.121	442.990	0.107	0.234
-532.106	-140.561	0.168	0.017
-531.091	8.278	-0.106	-0.079
-530.077	-64.534	0.238	0.096
-529.062	-200.000	-0.009	-0.042
-528.048	800.000	-0.066	-0.238
-527.033	800.000	-0.020	-0.086
-526.018	-51.072	-0.094	0.044
-525.004	-40.020	0.320	0.165
-523.989	103.907	-0.031	0.036
-522.975	-200.000	-0.008	-0.183
-521.960	-200.000	0.010	-0.092
-520.945	55.246	-0.054	-0.052
-519.931	-200.000	0.011	-0.332
-518.916	-32.943	-0.272	-0.150
-517.902	47.055	0.104	0.096
-516.887	-143.750	0.168	0.016
-515.872	800.000	0.072	0.205
-514.858	15.353	0.373	0.291
-513.843	603.047	-0.240	-0.593
-512.829	70.153	0.122	-0.125
-511.814	-200.000	0.013	-0.180
-510.799	116.376	0.097	-0.118
-509.785	-111.522	0.178	0.036
-508.770	-84.937	-0.093	-0.029
-507.756	-4.171	0.052	0.035
-506.741	-159.661	-0.230	-0.013
-505.726	-49.671	-0.168	0.079
-504.712	-22.609	0.206	0.124
-503.697	800.000	-0.065	-0.192
-502.683	800.000	-0.050	0.189
-501.668	-55.624	-0.317	-0.141
-500.653	-99.100	0.226	0.057
-499.639	-200.000	-0.039	-0.432
-498.624	374.594	-0.091	-0.185
-497.610	-144.938	0.198	-0.018
-496.595	-200.000	0.008	-0.126
-495.581	-200.000	-0.023	0.285
-494.566	-70.010	0.303	0.115
-493.551	-121.886	0.136	-0.022
-492.537	-127.312	0.320	-0.046
-491.522	141.839	0.217	-0.285
-490.508	-26.468	0.265	0.154
-489.493	-39.847	-0.324	-0.168
-488.478	85.505	0.047	-0.051
-487.464	55.184	-0.246	-0.236
-486.449	-154.790	-0.258	-0.017
-485.435	800.000	0.064	-0.179
-484.420	152.212	0.259	0.350
-483.405	-86.098	0.201	0.061
-482.391	800.000	-0.063	-0.229
-481.376	415.844	-0.135	-0.286
-480.362	-20.919	-0.106	0.064
-479.347	57.636	0.218	0.211
-478.332	-200.000	-0.058	0.332
-477.318	56.899	0.063	-0.060
-476.303	-200.000	-0.002	-0.185
-475.289	800.000	-0.077	-0.276
-474.274	8.905	-0.216	-0.162
-473.259	-200.000	0.010	-0.093
-472.245	-200.000	-0.080	0.359
-471.230	-84.574	-0.355	-0.111
-470.216	-200.000	-0.029	-0.128
-469.201	-108.109	-0.261	-0.056
-468.186	-100.445	0.182	0.045
-467.172	8.833	-0.042	-0.032
-466.157	-36.444	0.192	0.102
-465.143	446.069	-0.139	0.303
-464.128	800.000	0.039	-0.139
-463.113	221.706	0.186	-0.296
-462.099	680.239	-0.049	-0.126
-461.084	800.000	-0.037	-0.150
-460.070	-74.457	-0.080	0.028
-459.055	99.714	-0.065	0.075
-458.040	209.971	0.089	-0.139
-457.026	-200.000	0.012	-0.086
-456.011	-200.000	0.069	-0.438
-454.997	401.575	0.059	-0.124
-453.982	-200.000	-0.053	-0.424
-452.968	557.940	0.055	0.130
-451.953	-71.449	0.291	0.108
-450.938	-18.267	-0.074	0.046
-449.924	-82.605	-0.141	0.045
-448.909	-75.426	0.462	0.163
-447.895	-81.742	-0.438	0.142
-446.880	800.000	-0.012	-0.034
-445.865	-9.714	-0.217	-0.143
-444.851	63.881	0.136	0.135
-443.836	369.989	-0.154	0.308
-442.822	-173.155	-0.221	-0.007
-441.807	22.634	0.287	-0.233
-440.792	-47.303	-0.379	-0.183
-439.778	-71.550	0.237	0.088
-438.763	1.472	0.054	-0.038
-437.749	35.933	0.068	0.059
-436.734	256.997	0.096	0.164
-435.719	-66.920	-0.109	-0.043
-434.705	-200.000	0.027	0.226
-433.690	-200.000	-0.013	0.204
-432.676	-35.281	0.148	0.079
-431.661	-84.847	-0.059	0.018
-430.646	-103.712	0.332	-0.077
-429.632	-143.085	-0.179	-0.017
-428.617	-131.098	-0.257	-0.034
-427.603	510.466	-0.095	-0.218
-426.588	56.949	0.175	0.169
-425.573	75.797	-0.311	0.325
-424.559	-135.318	0.044	0.005
-423.544	800.000	0.091	0.263
-422.530	42.741	0.213	-0.192
-421.515	-200.000	0.009	0.069
-420.500	69.069	-0.171	-0.174
-419.486	-200.000	-0.036	0.271
-418.471	-1.990	-0.220	-0.153
-417.457	-150.498	0.054	0.004
-416.442	-81.461	0.158	-0.051
-415.428	-200.000	0.014	-0.196
-414.413	-33.692	0.179	-0.098
-413.398	-17.601	0.021	-0.013
-412.384	34.995	0.052	0.045
-411.369	47.073	0.036	0.033
-410.355	262.336	0.235	0.404
-409.340	-115.156	-0.219	-0.041
-408.325	113.618	-0.339	-0.407
-407.311	-107.932	0.323	0.069
-406.296	-27.930	-0.089	0.051
-405.282	34.685	-0.155	0.134
-404.267	-53.083	-0.011	-0.005
-403.252	800.000	0.039	0.106
-402.238	1.587	-0.246	0.175
-401.223	-123.239	-0.090	-0.014
-400.209	-66.651	0.259	0.101
-399.194	688.694	-0.056	-0.145
-398.179	-65.633	-0.040	0.016
-397.165	-133.636	0.062	-0.008
-396.150	-4.992	0.187	0.127
-395.136	165.460	-0.200	-0.280
-394.121	-38.746	-0.277	-0.145
-393.106	-48.109	0.368	-0.176
-392.092	-112.486	0.151	0.030
-391.077	190.734	-0.197	0.292
-390.063	47.026	0.142	0.130
-389.048	125.049	0.164	0.204
-388.033	-102.116	-0.090	0.021
-387.019	46.379	0.240	-0.220
-386.004	161.866	-0.199	-0.275
-384.990	-63.472	0.123	-0.050
-383.975	800.000	0.124	-0.340
-382.960	383.682	0.060	-0.123
-381.946	-146.349	0.112	-0.010
-380.931	-200.000	0.049	0.290
-379.917	800.000	-0.029	-0.120
-378.902	675.173	-0.044	-0.114
-377.888	252.338	-0.135	-0.227
-376.873	29.035	-0.177	0.148
-375.858	-33.636	-0.111	-0.060
-374.844	-57.872	-0.268	-0.115
-373.829	-38.589	0.220	-0.115
-372.815	20.256	-0.150	-0.120
-371.800	14.594	0.049	-0.038
-370.785	252.313	0.039	0.066
-369.771	135.469	0.041	0.052
-368.756	-47.000	-0.157	0.076
-367.742	800.000	0.065	0.279
-366.727	303.820	0.094	-0.171
-365.712	-29.676	0.027	0.015
-364.698	-200.000	-0.063	0.523
-363.683	184.551	0.145	0.211
-362.669	-200.000	-0.045	-0.262
-361.654	-112.158	-0.263	0.052
-360.639	-23.363	-0.277	-0.164
-359.625	175.576	-0.216	0.309
-358.610	-4.390	-0.165	0.112
-357.596	595.304	0.104	-0.254
-356.581	-3.363	0.034	-0.023
-355.566	-42.125	-0.191	0.097
-354.552	-120.184	0.202	-0.034
-353.537	800.000	0.140	0.409
-352.523	-89.938	0.267	0.077
-351.508	-167.600	-0.381	0.015
-350.493	625.567	-0.160	-0.399
-349.479	24.788	0.273	-0.223
-348.464	-108.961	0.237	0.050
-347.450	-174.698	0.170	-0.005
-346.435	-200.000	-0.028	0.189
-345.420	21.732	0.072	-0.058
-344.406	800.000	-0.038	-0.140
-343.391	800.000	0.036	-0.128
-342.377	-85.071	0.364	-0.112
-341.362	-11.704	0.060	0.039
-340.348	-34.303	0.128	-0.069
-339.333	800.000	0.024	-0.084
-338.318	86.231	0.034	0.037
-337.304	360.351	-0.043	0.084
-336.289	-53.520	0.251	0.113
-335.275	-94.721	0.377	0.101
-334.260	63.741	-0.156	-0.155
-333.245	111.777	0.110	0.130
-332.231	-27.139	0.089	-0.051
-331.216	-200.000	-0.005	-0.151
-330.202	-169.253	-0.109	0.004
-329.187	-17.294	0.178	0.111
-328.172	22.597	-0.201	-0.162
-327.158	-200.000	-0.013	-0.279
-326.143	-56.198	0.167	-0.073
-325.129	47.125	-0.216	-0.198
-324.114	-200.000	0.012	-0.225
-323.099	-200.000	-0.004	-0.490
-322.085	-30.654	-0.125	0.070
-321.070	-200.000	-0.035	0.196
-320.056	-52.919	-0.058	-0.026
-319.041	15.027	-0.184	-0.142
-318.026	721.143	-0.139	-0.363
-317.012	116.744	0.186	0.225
-315.997	-34.001	0.180	0.098
-314.983	6.950	0.245	-0.180
-313.968	165.413	-0.065	-0.091
-312.953	-200.000	-0.036	0.200
-311.939	-200.000	-0.005	-0.111
-310.924	-129.492	-0.242	0.033
-309.910	-21.504	-0.059	0.035
-308.895	-69.788	-0.179	0.067
-307.880	-200.000	0.002	-0.119
-306.866	-200.000	0.061	0.305
-305.851	-45.509	0.219	-0.107
-304.837	3.488	-0.072	0.052
-303.822	800.000	0.038	0.148
-302.807	566.310	0.048	0.115
-301.793	-31.814	-0.260	0.144
-300.778	-200.000	0.013	0.076
-299.764	40.329	-0.303	-0.268
-298.749	245.322	-0.073	0.120
-297.735	-0.879	-0.254	-0.177
-296.720	800.000	0.049	-0.206
-295.705	394.583	-0.071	-0.147
-294.691	1.632	0.088	0.062
-293.676	800.000	-0.006	0.023
-292.662	-200.000	0.008	0.236
-291.647	-178.411	-0.183	-0.004
-290.632	-2.458	0.186	0.129
-289.618	139.296	0.067	0.087
-288.603	-36.489	-0.331	-0.175
-287.589	-200.000	0.001	0.052
-286.574	-127.746	0.147	-0.021
-285.559	487.435	0.062	0.140
-284.545	-200.000	-0.014	-0.233
-283.530	225.932	-0.097	-0.155
-282.516	358.767	0.015	0.029
-281.501	476.657	0.131	0.292
-280.486	-67.998	-0.170	-0.065
-279.472	-78.641	0.259	0.087
-278.457	21.902	0.095	-0.076
-277.443	-200.000	-0.041	-0.181
-276.428	314.366	-0.084	0.155
-275.413	-55.426	0.081	-0.036
-274.399	-85.613	0.377	0.115
-273.384	634.875	0.021	-0.053
-272.370	187.636	0.162	0.237
-271.355	800.000	-0.038	-0.162
-270.340	793.524	0.016	-0.042
-269.326	-155.946	-0.271	-0.017
-268.311	124.097	0.125	0.154
-267.297	62.745	0.151	0.148
-266.282	-129.430	0.133	-0.018
-265.267	-200.000	-0.019	0.352
-264.253	97.370	-0.133	-0.150
-263.238	82.344	0.151	-0.160
-262.224	457.563	0.065	-0.143
-261.209	-149.493	0.176	-0.014
-260.195	-200.000	-0.006	-0.048
-259.180	-13.326	0.321	0.205
-258.165	-200.000	0.036	-0.163
-257.151	-26.653	0.210	-0.121
-256.136	371.196	0.093	0.185
-255.122	-200.000	-0.028	-0.203
-254.107	-137.683	-0.033	0.004
-253.092	117.116	-0.165	-0.199
-252.078	203.966	-0.167	0.254
-251.063	-36.298	0.324	0.172
-250.049	41.223	-0.118	0.105
-249.034	-109.407	-0.120	0.025
-248.019	-110.945	-0.358	-0.072
-247.005	-71.542	-0.151	0.055
-245.990	-200.000	-0.008	-0.109
-244.976	-136.709	0.227	-0.026
-243.961	62.551	0.109	0.107
-242.946	-11.365	-0.237	-0.153
-241.932	0.833	-0.084	0.059
-240.917	409.955	0.139	0.289
-239.903	-132.791	-0.407	-0.051
-238.888	-200.000	0.014	0.070
-237.873	-36.505	0.265	-0.140
-236.859	-28.965	-0.370	0.208
-235.844	-61.312	-0.184	0.076
-234.830	2.270	-0.168	-0.120
-233.815	-189.307	-0.127	0.001
-232.800	93.597	-0.184	-0.204
-231.786	-161.341	-0.218	0.011
-230.771	106.161	-0.163	-0.189
-229.757	-200.000	-0.002	0.054
-228.742	-198.049	-0.121	0.001
-227.727	77.789	0.170	0.177
-226.713	-169.107	0.241	-0.009
-225.698	213.058	0.099	0.153
-224.684	-65.277	-0.182	0.072
-223.669	-108.077	-0.140	-0.030
-222.655	-127.273	-0.125	0.018
-221.640	-102.259	-0.064	-0.015
-220.625	-200.000	-0.029	-0.138
-219.611	8.227	0.143	0.105
-218.596	-82.040	0.198	0.063
-217.582	259.617	-0.228	-0.386
-216.567	800.000	0.079	0.247
-215.552	221.317	0.140	0.221
-214.538	-6.116	0.178	-0.119
-213.523	-148.584	0.320	0.026
-212.509	78.701	-0.296	-0.310
-211.494	-139.504	0.102	-0.011
-210.479	-124.116	0.119	-0.018
-209.465	-200.000	0.022	0.205
-208.450	103.998	0.150	0.173
-207.436	40.151	-0.154	-0.136
-206.421	177.421	0.104	-0.148
-205.406	6.596	0.145	0.106
-204.392	376.979	-0.080	-0.160
-203.377	-102.876	-0.316	0.074
-202.363	11.884	0.214	-0.161
-201.348	-49.487	0.108	0.051
-200.333	39.197	-0.246	-0.215
-199.319	-200.000	0.032	-0.199
-198.304	-200.000	0.003	-0.088
-197.290	25.480	-0.199	0.162
-196.275	319.462	0.101	0.188
-195.260	-50.220	0.035	0.016
-194.246	-167.414	0.352	-0.014
-193.231	113.550	0.283	0.336
-192.217	32.644	-0.241	0.204
-191.202	7.622	-0.345	-0.253
-190.187	-109.160	0.221	0.046
-189.173	-109.329	0.058	-0.012
-188.158	76.691	-0.124	0.128
-187.144	-131.511	-0.184	-0.024
-186.129	-53.503	-0.358	-0.160
-185.114	73.159	0.160	0.164
-184.100	132.489	-0.088	0.112
-183.085	800.000	0.064	0.223
-182.071	-200.000	-0.043	0.358
-181.056	-15.273	0.173	-0.108
-180.042	126.412	0.122	0.152
-179.027	-200.000	0.025	-0.112
-178.012	-27.844	0.104	-0.059
-176.998	-62.708	-0.399	0.162
-175.983	-200.000	0.005	-0.058
-174.969	-58.988	-0.324	-0.137
-173.954	-134.775	0.088	0.010
-172.939	-55.147	0.163	-0.072
-171.925	800.000	-0.087	-0.255
-170.910	-7.270	-0.214	0.142
-169.896	446.496	0.041	0.089
-168.881	-96.124	-0.196	-0.051
-167.866	-142.770	0.327	-0.031
-166.852	270.507	0.056	0.096
-165.837	437.846	0.028	-0.059
-164.823	-200.000	0.002	0.059
-163.808	73.330	-0.045	-0.046
-162.793	-70.683	0.391	-0.145
-161.779	186.751	0.077	0.112
-160.764	126.416	0.154	0.190
-159.750	108.475	-0.353	0.412
-158.735	-85.237	0.376	-0.115
-157.720	5.899	0.242	-0.175
-156.706	-139.352	-0.110	-0.012
-155.691	12.679	0.066	0.050
-154.677	800.000	-0.095	-0.327
-153.662	230.229	0.124	0.198
-152.647	-200.000	-0.017	-0.116
-151.633	-65.453	-0.308	0.121
-150.618	-127.915	-0.405	0.057
-149.604	64.968	0.220	-0.217
-148.589	-193.318	-0.037	-0.000
-147.574	-23.144	0.254	0.149
-146.560	800.000	0.015	-0.054
-145.545	-74.262	0.417	-0.147
-144.531	-89.873	-0.144	-0.041
-143.516	-200.000	0.054	0.279
-142.502	193.616	0.167	-0.248
-141.487	141.447	0.071	-0.092
-140.472	-200.000	-0.056	0.394
-139.458	30.782	-0.172	0.144
-138.443	-200.000	-0.007	-0.121
-137.429	583.528	-0.068	-0.164
-136.414	-48.120	0.186	-0.088
-135.399	800.000	-0.043	-0.122
-134.385	-48.038	0.290	0.137
-133.370	-53.801	0.311	-0.139
-132.356	-89.591	-0.400	-0.115
-131.341	43.288	0.263	0.235
-130.326	223.282	-0.185	-0.292
-129.312	-130.750	-0.313	-0.041
-128.297	-200.000	-0.071	-0.427
-127.283	-140.438	0.157	0.016
-126.268	-139.653	0.124	0.013
-125.253	-200.000	0.011	-0.102
-124.239	-87.719	0.074	-0.022
-123.224	142.261	-0.184	-0.239
-122.210	-88.114	0.197	-0.058
-121.195	800.000	-0.034	0.105
-120.180	800.000	-0.073	0.235
-119.166	800.000	-0.010	-0.030
-118.151	-22.494	-0.132	0.078
-117.137	-200.000	0.005	0.319
-116.122	-77.260	-0.286	0.097
-115.107	102.226	-0.049	0.056
-114.093	41.574	-0.046	0.040
-113.078	-128.657	0.268	0.037
-112.064	-64.886	0.194	0.076
-111.049	-95.894	0.341	-0.089
-110.034	-110.543	-0.392	-0.079
-109.020	420.504	-0.056	0.116
-108.005	240.867	-0.056	-0.090
-106.991	343.591	-0.107	0.205
-105.976	13.769	-0.059	-0.045
-104.962	-181.827	0.165	0.003
-103.947	65.899	0.221	-0.218
-102.932	-24.617	0.290	0.169
-101.918	-112.987	0.164	-0.032
-100.903	-23.164	0.195	0.115
-99.889	25.193	-0.197	0.160
-98.874	-52.409	0.289	0.130
-97.859	292.317	-0.138	-0.245
-96.845	-78.758	0.199	0.066
-95.830	57.276	0.134	0.128
-94.816	-200.000	0.006	0.375
-93.801	-68.995	0.275	-0.104
-92.786	-200.000	0.028	-0.509
-91.772	590.574	0.077	-0.186
-90.757	103.468	-0.106	-0.122
-89.743	112.790	-0.180	-0.212
-88.728	-200.000	-0.061	0.277
-87.713	-98.577	-0.138	-0.034
-86.699	-157.935	0.237	-0.014
-85.684	-200.000	-0.027	-0.193
-84.670	800.000	0.034	0.120
-83.655	-200.000	0.026	0.196
-82.640	-29.371	-0.241	0.134
-81.626	-200.000	-0.045	-0.535
-80.611	-3.451	0.112	0.076
-79.597	-149.243	-0.411	-0.032
-78.582	-200.000	0.037	-0.211
-77.567	5.935	0.238	0.172
-76.553	800.000	-0.027	0.114
-75.538	-200.000	-0.002	0.140
-74.524	327.318	-0.071	-0.132
-73.509	232.291	0.025	0.040
-72.494	-158.341	0.273	-0.015
-71.480	800.000	-0.084	0.272
-70.465	-129.862	0.187	-0.025
-69.451	-200.000	-0.022	-0.121
-68.436	-29.824	-0.239	-0.133
-67.422	-106.909	0.048	-0.010
-66.407	-200.000	0.002	-0.074
-65.392	800.000	0.113	0.422
-64.378	800.000	-0.127	0.383
-63.363	-168.083	0.137	-0.005
-62.349	65.717	0.406	0.401
-61.334	191.046	-0.819	-1.201
-60.319	-13.462	1.026	0.649
-59.305	231.752	-0.634	-1.013
-58.290	369.688	0.793	1.565
-57.276	657.481	0.596	1.493
-56.261	-200.000	125.890	656.918
-55.246	411.344	1584.126	3276.960
-54.232	141.202	2741.355	3534.814
-53.217	94.675	2185.634	2421.995
-52.203	33.412	1701.368	1439.770
-51.188	25.871	1520.015	1234.799
-50.173	23.983	1496.456	1202.860
-49.159	48.848	1568.030	1433.824
-48.144	45.530	1580.804	1422.443
-47.130	26.060	1529.301	1243.450
-46.115	23.146	1513.263	1210.452
-45.100	22.994	1509.799	1206.596
-44.086	22.978	1508.039	1205.036
-43.071	22.883	1506.126	1202.813
-42.057	22.911	1504.542	1201.690
-41.042	22.922	1502.725	1200.267
-40.027	22.776	1501.783	1198.469
-39.013	22.872	1499.920	1197.587
-37.998	22.798	1498.901	1196.229
-36.984	22.852	1497.594	1195.500
-35.969	22.969	1495.840	1194.843
-34.954	22.883	1494.508	1193.153
-33.940	22.978	1493.005	1192.545
-32.925	22.954	1492.041	1191.568
-31.911	22.888	1490.914	1190.173
-30.896	23.045	1489.187	1189.809
-29.881	23.000	1488.034	1188.538
-28.867	22.973	1487.053	1187.524
-27.852	23.048	1484.988	1186.328
-26.838	22.921	1484.006	1184.648
-25.823	23.040	1482.287	1184.022
-24.809	23.018	1480.652	1182.525
-23.794	22.976	1478.946	1180.836
-22.779	22.981	1478.122	1180.162
-21.765	23.001	1476.809	1179.204
-20.750	22.981	1475.934	1178.323
-19.736	22.909	1475.052	1177.094
-18.721	22.860	1473.979	1175.863
-17.706	23.045	1472.398	1175.789
-16.692	22.965	1471.932	1174.838
-15.677	22.947	1470.699	1173.685
-14.663	22.893	1470.010	1172.726
-13.648	22.899	1468.905	1171.843
-12.633	22.824	1468.680	1171.116
-11.619	22.902	1467.615	1170.737
-10.604	22.990	1466.086	1170.058
-9.590	22.940	1465.348	1169.091
-8.575	22.996	1464.513	1168.745
-7.560	22.896	1463.822	1167.486
-6.546	22.955	1462.942	1167.128
-5.531	22.893	1461.966	1165.899
-4.517	22.930	1460.975	1165.306
-3.502	22.929	1459.685	1164.225
-2.487	22.950	1458.941	1163.723
-1.473	22.885	1458.152	1162.613
-0.458	22.921	1456.787	1161.719
0.556	21.438	1446.387	1151.567
1.571	18.606	1423.858	1115.145
2.586	15.606	1363.109	1048.778
3.600	14.439	1279.321	977.386
4.615	13.513	1235.417	938.513
5.629	11.635	1179.616	885.871
6.644	5.664	1097.635	794.041
7.659	0.897	1061.771	744.617
8.673	0.256	1056.144	737.468
9.688	0.117	1053.062	734.574
10.702	0.118	1051.437	733.378
11.717	0.209	1049.527	732.427
12.731	1.928	1050.682	741.532
13.746	8.418	1059.524	779.447
14.761	14.497	1067.036	814.689
15.775	16.607	1069.041	826.464
16.790	16.441	1067.174	824.142
17.804	15.533	1065.212	818.131
18.819	14.610	1063.624	812.347
19.834	14.143	1062.600	809.225
20.848	13.875	1061.422	806.953
21.863	13.689	1060.501	805.275
22.877	13.566	1059.375	803.754
23.892	13.317	1058.853	802.079
24.907	13.251	1057.927	800.985
25.921	13.284	1057.269	800.579
26.936	13.245	1056.908	800.045
27.950	13.294	1056.072	799.578
28.965	13.329	1055.539	799.271
29.980	13.355	1054.557	798.585
30.994	13.354	1053.374	797.610
32.009	13.471	1052.515	797.456
33.023	13.366	1052.157	796.608
34.038	13.327	1051.434	795.803
35.053	13.388	1050.283	795.154
36.067	13.431	1049.061	794.366
37.082	13.229	1048.365	792.798
38.096	13.333	1048.152	793.068
39.111	13.262	1047.057	791.826
40.126	13.398	1045.904	791.539
41.140	13.330	1045.001	790.459
42.155	13.239	1044.007	789.202
43.169	13.148	1043.563	788.361
44.184	13.199	1042.193	787.501
45.199	13.141	1041.258	786.448
46.213	13.120	1040.365	785.604
47.228	13.180	1039.104	784.867
48.242	13.191	1037.976	783.997
49.257	13.165	1037.348	783.329
50.271	13.255	1036.327	782.915
51.286	13.273	1035.251	782.118
52.301	13.301	1034.804	781.845
53.315	13.263	1033.604	780.691
54.330	13.246	1032.850	779.972
55.344	13.154	1032.071	778.883
56.359	13.232	1030.579	778.051
57.374	13.236	1029.929	777.514
58.388	13.189	1029.126	776.619
59.403	13.242	1028.015	775.956
60.417	13.110	1027.376	774.786
61.432	13.083	1026.848	774.196
62.447	13.270	1025.639	774.090
63.461	13.185	1025.005	773.144
64.476	13.027	1024.174	771.710
65.490	13.090	1023.239	771.233
66.505	13.130	1022.585	770.857
67.520	13.143	1021.621	770.124
68.534	13.137	1020.760	769.381
69.549	13.129	1020.302	768.930
70.563	13.128	1019.430	768.201
71.578	13.223	1018.546	767.908
72.593	13.114	1017.917	766.856
73.607	13.059	1017.036	765.870
74.622	13.170	1015.328	765.030
75.636	13.055	1014.873	764.089
76.651	12.938	1014.577	763.257
77.666	13.002	1013.544	762.708
78.680	13.205	1012.404	762.721
79.695	13.115	1012.099	762.008
80.709	13.118	1011.545	761.538
81.724	13.106	1010.963	760.977
82.739	13.194	1010.174	760.718
83.753	13.250	1009.283	760.238
84.768	13.300	1008.228	759.608
85.782	13.311	1007.488	759.032
86.797	13.413	1006.783	758.900
87.812	13.460	1005.928	758.404
88.826	13.252	1005.581	757.125
89.841	13.373	1004.466	756.773
90.855	13.364	1003.758	756.129
91.870	13.431	1002.901	755.722
92.884	13.490	1001.962	755.216
93.899	13.331	1001.723	754.247
94.914	13.374	1000.976	753.811
95.928	13.461	1000.204	753.561
96.943	13.543	999.261	753.157
97.957	13.457	998.942	752.458
98.972	13.300	997.993	750.964
99.987	13.397	996.935	750.540
101.001	13.454	996.374	750.311
102.016	13.480	995.113	749.411
103.030	13.309	994.710	748.268
104.045	13.366	993.852	747.813
105.060	13.394	993.201	747.385
106.074	13.331	991.920	746.072
107.089	13.275	991.185	745.199
108.103	13.345	989.923	744.501
109.118	13.293	988.723	743.298
110.133	13.187	988.517	742.601
111.147	13.250	987.599	742.131
112.162	13.272	986.587	741.400
113.176	13.260	985.479	740.450
114.191	13.347	984.869	740.315
115.206	13.426	983.501	739.575
116.220	13.433	982.794	739.009
117.235	13.384	981.925	738.073
118.249	13.385	981.048	737.350
119.264	13.299	980.513	736.499
120.279	13.303	979.936	736.021
121.293	13.343	978.867	735.331
122.308	13.361	978.046	734.727
123.322	13.298	977.250	733.787
124.337	13.187	976.388	732.581
125.352	13.238	974.919	731.638
126.366	13.261	973.953	730.953
127.381	13.362	972.424	730.184
128.395	13.218	971.948	729.129
129.410	13.172	971.235	728.328
130.424	13.219	970.377	727.826
131.439	13.254	969.377	727.165
132.454	13.230	968.393	726.255
133.468	13.353	967.801	726.288
134.483	13.407	967.131	725.960
135.497	13.282	966.148	724.608
136.512	13.295	965.507	724.122
137.527	13.299	965.061	723.738
138.541	13.324	964.305	723.219
139.556	13.318	963.427	722.467
140.570	13.306	962.812	721.892
141.585	13.384	961.964	721.532
142.600	13.371	961.359	720.959
143.614	13.454	960.170	720.363
144.629	13.576	959.399	720.252
145.643	13.519	958.786	719.482
146.658	13.485	958.201	718.829
147.673	13.486	956.977	717.854
148.687	13.568	955.781	717.245
149.702	13.439	955.392	716.332
150.716	13.435	954.446	715.541
151.731	13.421	953.845	714.969
152.746	13.477	952.834	714.392
153.760	13.467	952.366	713.933
154.775	13.573	951.377	713.584
155.789	13.548	950.687	712.897
156.804	13.596	949.960	712.496
157.819	13.627	949.341	712.101
158.833	13.591	948.194	711.024
159.848	13.617	948.112	711.008
160.862	13.702	947.349	710.739
161.877	13.772	946.112	710.049
162.892	13.556	946.012	708.985
163.906	13.511	945.087	708.037
164.921	13.525	944.218	707.383
165.935	13.641	943.292	707.123
166.950	13.700	942.111	706.425
167.964	13.700	941.133	705.630
168.979	13.747	940.102	704.992
169.994	13.474	939.987	703.683
171.008	13.634	938.744	703.372
172.023	13.657	937.710	702.630
173.037	13.745	937.432	702.734
174.052	13.841	936.424	702.324
175.067	13.805	935.337	701.293
176.081	13.708	934.820	700.435
177.096	13.759	933.971	699.950
178.110	13.730	933.440	699.369
179.125	13.615	932.668	698.244
180.140	13.683	932.099	698.041
181.154	13.692	931.367	697.470
182.169	13.846	930.181	697.168
183.183	13.794	930.053	696.791
184.198	13.818	929.113	696.124
185.213	13.933	928.421	696.027
186.227	13.845	927.765	695.106
187.242	13.849	927.515	694.874
188.256	13.870	926.610	694.222
189.271	13.971	925.985	694.113
190.286	13.960	925.139	693.372
191.300	14.002	924.035	692.661
192.315	13.740	923.846	691.364
193.329	13.670	923.099	690.454
194.344	13.780	922.695	690.547
195.359	13.832	921.590	689.876
196.373	13.868	921.173	689.650
197.388	13.937	920.796	689.593
198.402	13.829	920.641	688.970
199.417	14.012	919.782	689.025
200.432	14.074	919.516	689.022
201.446	14.092	919.141	688.756
202.461	14.142	918.480	688.407
203.475	14.201	918.264	688.425
204.490	14.302	916.920	687.774
205.504	14.256	915.821	686.701
206.519	14.308	915.469	686.591
207.534	14.129	915.397	685.739
208.548	14.051	914.387	684.600
209.563	14.120	913.489	684.149
210.577	14.238	912.532	683.856
211.592	14.185	911.802	683.031
212.607	14.201	911.638	682.912
213.621	14.182	910.964	682.270
214.636	14.243	910.058	681.782
215.650	14.077	910.016	681.009
216.665	14.347	909.082	681.354
217.680	14.436	908.262	681.046
218.694	14.410	908.109	680.765
219.709	14.414	907.644	680.370
220.723	14.342	906.850	679.419
221.738	14.510	906.119	679.497
222.753	14.432	905.264	678.479
223.767	14.381	904.603	677.717
224.782	14.416	903.906	677.275
225.796	14.436	903.069	676.671
226.811	14.560	902.543	676.720
227.826	14.400	902.332	675.854
228.840	14.544	901.319	675.618
229.855	14.446	900.891	674.842
230.869	14.442	900.067	674.146
231.884	14.379	899.458	673.375
232.899	14.505	898.723	673.275
233.913	14.304	898.107	671.944
234.928	14.436	897.301	671.815
235.942	14.353	896.921	671.136
236.957	14.390	895.667	670.285
237.972	14.343	895.280	669.747
238.986	14.475	894.539	669.663
240.001	14.558	893.936	669.487
241.015	14.605	892.944	668.873
242.030	14.654	892.282	668.515
243.045	14.635	892.198	668.316
244.059	14.598	891.717	667.749
245.074	14.672	890.599	667.149
246.088	14.605	890.053	666.412
247.103	14.684	889.589	666.322
248.117	14.838	888.724	666.227
249.132	14.855	887.920	665.636
250.147	14.850	887.603	665.319
251.161	14.894	887.271	665.187
252.176	14.857	886.733	664.578
253.190	14.913	885.880	664.099
254.205	14.945	885.303	663.737
255.220	15.061	884.504	663.539
256.234	15.034	883.675	662.752
257.249	14.942	883.118	661.909
258.263	15.047	882.935	662.132
259.278	15.020	882.047	661.301
260.293	15.092	881.880	661.399
261.307	14.985	881.253	660.450
262.322	15.110	880.516	660.332
263.336	15.136	879.909	659.919
264.351	15.020	879.462	659.070
265.366	15.284	878.350	659.215
266.380	15.061	878.364	658.293
267.395	15.224	877.282	658.061
268.409	15.150	876.501	657.128
269.424	15.160	876.011	656.740
270.439	15.153	875.262	656.095
271.453	15.234	874.169	655.533
272.468	15.149	873.653	654.757
273.482	15.255	873.292	654.843
274.497	15.177	872.658	654.004
275.512	15.193	871.642	653.248
276.526	15.293	870.962	653.071
277.541	15.329	870.050	652.467
278.555	15.324	869.817	652.215
279.570	15.217	869.448	651.464
280.585	15.436	868.752	651.739
281.599	15.471	867.937	651.204
282.614	15.359	867.520	650.401
283.628	15.284	867.200	649.810
284.643	15.353	866.395	649.419
285.657	15.500	865.600	649.334
286.672	15.419	865.354	648.776
287.687	15.441	864.844	648.422
288.701	15.417	864.560	648.059
289.716	15.435	863.987	647.644
290.730	15.337	863.635	646.943
291.745	15.523	862.597	646.824
292.760	15.648	861.817	646.663
293.774	15.597	861.221	645.965
294.789	15.610	860.666	645.539
295.803	15.573	860.269	645.044
296.818	15.623	859.813	644.838
297.833	15.520	859.196	643.922
298.847	15.629	858.414	643.694
299.862	15.582	857.331	642.646
300.876	15.649	856.615	642.307
301.891	15.665	856.033	641.876
302.906	15.707	855.291	641.425
303.920	15.816	854.688	641.331
304.935	15.906	854.081	641.160
305.949	15.884	853.891	640.877
306.964	15.809	853.079	639.926
307.979	15.822	852.202	639.263
308.993	15.700	852.311	638.825
310.008	15.878	851.545	638.869
311.022	15.873	850.971	638.362
312.037	15.834	850.472	637.784
313.052	15.894	849.878	637.507
314.066	15.865	849.201	636.835
315.081	15.945	848.256	636.373
316.095	15.868	848.252	636.020
317.110	15.897	847.469	635.489
318.125	15.879	846.930	634.960
319.139	15.893	846.580	634.695
320.154	15.857	846.268	634.268
321.168	15.952	845.274	633.823
322.183	15.914	845.134	633.519
323.197	15.908	844.653	633.082
324.212	16.005	843.605	632.605
325.227	15.952	843.207	632.052
326.241	15.891	842.902	631.539
327.256	16.002	842.213	631.382
328.270	15.968	841.856	630.929
329.285	15.928	841.232	630.259
330.300	16.027	840.644	630.131
331.314	15.973	839.865	629.288
332.329	15.917	839.001	628.380
333.343	16.049	838.537	628.469
334.358	16.141	837.952	628.316
335.373	16.102	837.614	627.863
336.387	16.057	837.064	627.227
337.402	16.174	836.452	627.149
338.416	16.242	835.906	626.936
339.431	16.146	835.375	626.123
340.446	16.316	835.053	626.459
341.460	16.314	834.179	625.740
342.475	16.342	833.496	625.276
343.489	16.381	833.131	625.090
344.504	16.449	832.571	624.867
345.519	16.382	832.291	624.353
346.533	16.424	831.658	623.981
347.548	16.359	831.409	623.497
348.562	16.460	830.411	623.067
349.577	16.463	829.973	622.693
350.592	16.294	829.878	621.946
351.606	16.519	828.846	621.944
352.621	16.285	828.615	620.854
353.635	16.329	828.255	620.691
354.650	16.554	827.837	621.152
355.665	16.545	827.232	620.607
356.679	16.403	826.599	619.557
357.694	16.465	826.508	619.661
358.708	16.615	825.422	619.342
359.723	16.486	825.353	618.765
360.738	16.516	824.766	618.377
361.752	16.692	823.899	618.316
362.767	16.707	823.842	618.274
363.781	16.559	823.506	617.426
364.796	16.561	823.089	617.066
365.810	16.709	822.403	617.038
366.825	16.789	822.108	617.052
367.840	16.798	821.668	616.700
368.854	16.900	820.782	616.352
369.869	16.843	820.491	615.870
370.883	16.673	820.395	615.127
371.898	16.723	819.441	614.537
372.913	16.837	818.638	614.295
373.927	16.952	818.406	614.484
374.942	16.889	817.723	613.687
375.956	16.842	817.240	613.102
376.971	16.800	816.499	612.340
377.986	16.895	816.407	612.559
379.000	16.967	815.546	612.119
380.015	16.946	815.098	611.652
381.029	16.945	814.659	611.266
382.044	17.064	813.989	611.139
383.059	17.094	813.139	610.551
384.073	17.062	812.723	610.071
385.088	17.129	812.208	609.871
386.102	16.955	812.049	609.075
387.117	17.127	811.136	608.951
388.132	17.119	810.883	608.679
389.146	16.908	810.309	607.438
390.161	16.923	810.420	607.521
391.175	17.169	809.641	607.764
392.190	17.133	809.152	607.214
393.205	17.083	808.661	606.616
394.219	17.072	808.522	606.416
395.234	16.994	808.370	605.971
396.248	17.204	807.500	606.016
397.263	17.002	807.137	604.969
398.278	17.150	806.390	604.881
399.292	17.057	805.994	604.200
400.307	17.053	805.425	603.707
401.321	17.140	804.995	603.637
402.336	17.174	805.091	603.778
403.350	17.252	804.600	603.635
404.365	17.242	803.667	602.847
405.380	17.346	803.643	603.143
406.394	17.390	802.773	602.592
407.409	17.375	802.732	602.456
408.423	17.369	802.444	602.165
409.438	17.324	801.640	601.348
410.453	17.429	801.205	601.342
411.467	17.364	800.887	600.819
412.482	17.411	800.381	600.550
413.496	17.537	799.318	600.144
414.511	17.410	799.292	599.625
415.526	17.454	798.959	599.477
416.540	17.516	798.965	599.648
417.555	17.475	798.626	599.197
418.569	17.605	797.583	598.816
419.584	17.502	797.194	598.111
420.599	17.546	796.830	597.937
421.613	113.461	1298.155	1487.648
422.628	97.693	1371.165	1487.727
