DTS Sentinel unit serial number:	SN413079Multiplexer serial number:	ORYXHardware model number:	OX4-SRSoftware version number:	ORYX F/W v4.00 Oryx Data Collector v3.7.2.0data status	okinstallation	princeton_trtdifferential loss correction	single-endedforward channel	channel 3reverse channel	N/Adate	2019/09/16time	07:16:34forward acquisition time	60.00reverse acquisition time	0.00gamma	496.2192k internal	0.2334k external	0.2334temperature offset calibration	0.9959default loss term (dB/km)	0.3790temperature slope calibration	1.0000multiplexer offset coefficient	1.0000multiplexer slope coefficient	1.0000fibre end	0.00T internal ref (°C)	27.39T ext. ref 1 (°C)	11.56T ext. ref 2 (°C)	22.34length (m)	temperature (°C)	Stokes	anti-Stokes-747.200	-117.074	0.217	-0.040
-746.185	-145.619	-0.119	-0.011
-745.171	464.192	0.064	0.144
-744.156	458.750	-0.090	0.201
-743.142	-92.353	0.203	0.058
-742.127	-200.000	-0.041	0.203
-741.112	-72.336	0.413	0.154
-740.098	95.228	-0.236	-0.270
-739.083	53.900	-0.196	-0.189
-738.069	359.699	0.156	0.314
-737.054	-200.000	-0.034	0.156
-736.039	-102.261	0.116	-0.028
-735.025	-141.086	0.065	0.007
-734.010	-141.564	-0.463	0.047
-732.996	-200.000	-0.008	-0.145
-731.981	800.000	0.046	-0.154
-730.966	-35.870	-0.240	0.131
-729.952	-19.966	0.042	0.026
-728.937	-141.183	-0.212	0.022
-727.923	-116.509	-0.187	0.035
-726.908	-27.401	-0.224	-0.131
-725.894	407.338	0.101	-0.213
-724.879	237.970	0.072	0.120
-723.864	350.833	-0.106	-0.211
-722.850	-61.442	-0.205	-0.086
-721.835	-85.140	-0.206	0.065
-720.821	250.135	-0.049	-0.084
-719.806	-55.873	0.041	-0.018
-718.791	117.420	-0.163	-0.202
-717.777	800.000	-0.060	0.177
-716.762	800.000	0.074	0.305
-715.748	800.000	-0.058	-0.192
-714.733	-89.992	-0.270	-0.079
-713.718	23.437	0.249	-0.205
-712.704	-29.101	-0.115	-0.066
-711.689	800.000	-0.094	-0.298
-710.675	800.000	-0.063	-0.220
-709.660	-7.205	-0.122	0.083
-708.645	-80.501	0.225	0.075
-707.631	-200.000	-0.001	-0.087
-706.616	90.718	0.039	-0.044
-705.602	-182.799	0.064	0.001
-704.587	-96.840	-0.179	0.047
-703.572	-60.980	0.341	-0.145
-702.558	89.206	-0.104	-0.116
-701.543	-200.000	0.001	0.030
-700.529	-190.729	-0.074	0.001
-699.514	-45.219	-0.161	-0.080
-698.499	216.908	-0.027	0.043
-697.485	250.033	-0.177	-0.302
-696.470	-51.453	0.158	-0.074
-695.456	-32.735	0.268	0.149
-694.441	240.502	0.075	-0.125
-693.426	-130.264	-0.145	0.020
-692.412	27.912	0.103	0.087
-691.397	96.805	0.213	0.245
-690.383	-200.000	-0.041	-0.285
-689.368	-200.000	-0.016	0.216
-688.354	-21.614	0.071	0.043
-687.339	560.251	0.182	-0.441
-686.324	135.951	0.293	0.383
-685.310	800.000	-0.073	-0.235
-684.295	-7.939	-0.333	0.225
-683.281	285.048	-0.074	-0.133
-682.266	-200.000	0.006	-0.106
-681.251	-113.258	-0.275	-0.054
-680.237	49.177	-0.097	0.091
-679.222	266.847	0.081	0.142
-678.208	-148.612	-0.169	0.014
-677.193	95.310	-0.313	0.358
-676.178	800.000	-0.057	-0.165
-675.164	-200.000	0.021	-0.107
-674.149	800.000	0.058	0.202
-673.135	143.974	-0.273	0.364
-672.120	-74.694	0.148	0.053
-671.105	800.000	0.024	0.068
-670.091	-61.109	-0.412	-0.174
-669.076	72.033	-0.212	-0.221
-668.062	800.000	0.061	0.244
-667.047	261.824	-0.067	-0.117
-666.032	-200.000	-0.022	0.147
-665.018	225.340	0.092	-0.148
-664.003	210.443	0.286	0.449
-662.989	577.126	-0.086	0.210
-661.974	-114.327	-0.116	0.022
-660.959	48.239	0.055	0.052
-659.945	-15.698	0.297	0.190
-658.930	-82.841	-0.028	0.009
-657.916	-200.000	-0.002	0.136
-656.901	-169.837	-0.193	0.007
-655.886	-93.518	-0.047	-0.013
-654.872	159.149	-0.028	-0.040
-653.857	-147.527	-0.243	0.021
-652.843	800.000	-0.045	0.177
-651.828	-200.000	0.013	-0.154
-650.814	-123.314	-0.101	-0.016
-649.799	796.502	-0.030	-0.082
-648.784	-136.524	0.240	-0.028
-647.770	800.000	0.077	-0.241
-646.755	-103.569	-0.164	0.039
-645.741	250.048	-0.113	0.193
-644.726	-21.548	-0.046	0.028
-643.711	327.555	0.054	-0.105
-642.697	-200.000	0.055	0.264
-641.682	-94.444	-0.258	0.070
-640.668	-200.000	0.083	-0.456
-639.653	105.561	0.258	-0.305
-638.638	-119.873	-0.274	-0.047
-637.624	-28.396	0.093	0.053
-636.609	-200.000	-0.011	0.123
-635.595	-200.000	-0.067	0.377
-634.580	-7.322	0.260	0.177
-633.565	-28.604	0.175	-0.101
-632.551	-62.324	0.223	-0.093
-631.536	-85.639	-0.205	-0.064
-630.522	38.263	0.095	-0.085
-629.507	77.021	-0.065	-0.069
-628.492	-200.000	-0.011	-0.206
-627.478	336.132	-0.139	0.270
-626.463	224.587	-0.115	-0.185
-625.449	-200.000	-0.035	0.226
-624.434	-143.125	0.115	0.011
-623.419	108.575	-0.064	0.077
-622.405	11.387	-0.238	0.182
-621.390	-157.264	0.118	0.007
-620.376	-135.133	-0.154	-0.019
-619.361	107.124	0.254	0.301
-618.346	129.684	-0.106	0.135
-617.332	-161.780	0.256	-0.013
-616.317	-200.000	-0.013	0.085
-615.303	130.016	0.185	0.237
-614.288	314.827	0.162	0.305
-613.273	-19.927	-0.168	-0.103
-612.259	-5.840	-0.311	0.213
-611.244	-192.874	-0.159	-0.001
-610.230	510.550	0.125	-0.291
-609.215	-24.272	-0.270	0.161
-608.201	-200.000	-0.117	0.000
-607.186	784.186	-0.042	-0.115
-606.171	-137.811	0.282	-0.032
-605.157	278.252	0.025	-0.045
-604.142	447.305	-0.049	-0.107
-603.128	-188.503	-0.123	0.002
-602.113	-9.267	0.461	0.308
-601.098	348.755	0.008	0.017
-600.084	800.000	-0.085	-0.263
-599.069	800.000	0.018	0.070
-598.055	-164.672	0.502	0.023
-597.040	-117.678	0.368	0.066
-596.025	6.179	-0.118	-0.088
-595.011	-35.057	-0.270	0.147
-593.996	320.067	0.118	0.224
-592.982	87.217	0.030	0.033
-591.967	12.182	0.157	-0.120
-590.952	-60.179	0.286	0.122
-589.938	76.244	0.130	0.137
-588.923	-200.000	0.003	-0.183
-587.909	800.000	0.048	-0.178
-586.894	392.630	-0.034	-0.070
-585.879	-73.099	-0.218	-0.080
-584.865	-200.000	-0.036	-0.197
-583.850	454.477	-0.145	-0.320
-582.836	-178.064	-0.104	-0.002
-581.821	-200.000	-0.002	0.156
-580.806	-129.637	0.132	-0.018
-579.792	-105.719	0.322	-0.073
-578.777	-94.159	0.341	-0.093
-577.763	-200.000	-0.047	0.247
-576.748	128.290	-0.048	-0.062
-575.733	-200.000	0.010	0.085
-574.719	339.261	-0.034	-0.066
-573.704	-200.000	0.018	-0.126
-572.690	-200.000	0.004	-0.043
-571.675	136.948	0.027	-0.035
-570.661	-200.000	0.024	0.146
-569.646	169.336	-0.034	0.048
-568.631	800.000	0.054	-0.161
-567.617	-48.599	0.293	-0.141
-566.602	-66.652	-0.103	0.041
-565.588	-200.000	0.046	0.332
-564.573	52.412	0.147	-0.140
-563.558	300.045	-0.039	-0.073
-562.544	7.148	-0.242	-0.180
-561.529	-65.447	0.259	-0.104
-560.515	-200.000	0.002	0.114
-559.500	310.518	-0.161	0.301
-558.485	158.176	-0.023	-0.032
-557.471	-200.000	0.001	-0.272
-556.456	21.117	0.383	-0.310
-555.442	-50.795	0.071	0.033
-554.427	61.965	0.269	-0.268
-553.412	800.000	0.064	-0.269
-552.398	800.000	0.049	0.194
-551.383	632.646	-0.063	-0.158
-550.369	-34.131	-0.304	-0.166
-549.354	174.263	0.225	-0.324
-548.339	344.659	-0.134	-0.262
-547.325	-200.000	0.006	-0.284
-546.310	-116.187	-0.351	-0.065
-545.296	800.000	0.100	0.316
-544.281	-58.842	-0.444	-0.191
-543.266	-50.817	-0.312	-0.146
-542.252	800.000	0.022	0.068
-541.237	-84.501	0.174	-0.055
-540.223	581.261	0.020	0.049
-539.208	280.651	0.140	-0.249
-538.193	-26.905	0.400	-0.233
-537.179	36.663	0.092	-0.081
-536.164	15.397	-0.148	0.116
-535.150	-200.000	-0.015	-0.083
-534.135	-32.761	0.323	-0.179
-533.121	-43.409	0.009	0.004
-532.106	494.004	-0.111	-0.253
-531.091	-146.817	-0.135	-0.012
-530.077	-134.140	0.032	0.004
-529.062	352.756	-0.107	0.211
-528.048	-158.698	0.240	-0.014
-527.033	-106.202	-0.208	-0.047
-526.018	95.234	-0.244	-0.277
-525.004	-27.255	-0.173	-0.100
-523.989	800.000	0.060	-0.258
-522.975	-200.000	-0.002	0.146
-521.960	800.000	-0.057	0.245
-520.945	-145.968	-0.142	0.013
-519.931	-183.494	-0.175	0.003
-518.916	-84.068	-0.123	-0.039
-517.902	-1.906	-0.371	-0.260
-516.887	-84.916	-0.269	-0.084
-515.872	-129.554	0.067	-0.009
-514.858	790.025	0.073	0.200
-513.843	160.494	-0.148	0.205
-512.829	-120.961	-0.182	0.031
-511.814	63.705	0.177	0.177
-510.799	11.540	0.337	0.257
-509.785	800.000	0.122	0.392
-508.770	97.120	-0.117	-0.134
-507.756	102.559	-0.106	0.124
-506.741	58.870	-0.173	-0.170
-505.726	-200.000	-0.051	-0.244
-504.712	92.121	-0.062	0.070
-503.697	592.285	0.126	0.311
-502.683	-32.834	0.041	0.023
-501.668	634.232	0.108	0.271
-500.653	-159.671	-0.281	-0.015
-499.639	79.020	0.143	-0.153
-498.624	-143.603	-0.157	-0.015
-497.610	99.941	-0.061	-0.070
-496.595	-129.841	-0.268	0.037
-495.581	-200.000	-0.025	-0.407
-494.566	192.413	-0.062	-0.093
-493.551	596.888	-0.085	-0.210
-492.537	-120.570	0.380	0.064
-491.522	-185.583	-0.066	-0.001
-490.508	97.860	0.081	-0.093
-489.493	-200.000	-0.006	0.144
-488.478	-102.747	-0.208	0.049
-487.464	704.016	0.056	0.147
-486.449	-128.966	-0.299	-0.042
-485.435	-188.361	-0.044	-0.001
-484.420	-66.891	-0.126	0.049
-483.405	580.644	0.082	-0.199
-482.391	800.000	0.099	-0.390
-481.376	-200.000	-0.059	-0.366
-480.362	374.177	0.110	0.223
-479.347	-134.441	0.125	0.015
-478.332	132.464	-0.218	-0.280
-477.318	173.835	-0.101	0.146
-476.303	-116.405	-0.253	0.047
-475.289	-103.714	0.154	0.036
-474.274	800.000	0.109	0.312
-473.259	-200.000	-0.037	0.338
-472.245	-91.400	-0.267	-0.076
-471.230	69.873	-0.062	-0.063
-470.216	-50.646	0.276	0.129
-469.201	299.556	-0.116	-0.212
-468.186	-140.499	-0.274	0.028
-467.172	800.000	0.104	0.372
-466.157	372.479	-0.130	-0.263
-465.143	-200.000	0.019	-0.099
-464.128	-24.829	-0.130	-0.077
-463.113	295.020	-0.146	0.266
-462.099	197.478	-0.304	-0.461
-461.084	-200.000	0.022	0.221
-460.070	-61.177	-0.263	-0.110
-459.055	-200.000	0.014	-0.137
-458.040	46.731	0.315	0.291
-457.026	-129.991	0.233	-0.032
-456.011	153.131	-0.260	0.353
-454.997	100.855	0.104	0.121
-453.982	-55.538	0.262	0.117
-452.968	-135.992	0.347	-0.041
-451.953	-32.608	-0.062	0.034
-450.938	-121.361	0.487	-0.081
-449.924	211.220	0.083	-0.129
-448.909	151.432	-0.119	-0.161
-447.895	517.713	0.135	0.313
-446.880	-200.000	-0.009	-0.103
-445.865	-102.932	-0.257	0.061
-444.851	-28.319	-0.237	0.136
-443.836	299.709	-0.029	-0.054
-442.822	186.419	0.203	0.300
-441.807	-200.000	-0.049	0.218
-440.792	-45.551	-0.133	-0.066
-439.778	800.000	-0.045	-0.188
-438.763	448.864	-0.073	0.159
-437.749	-102.588	0.090	0.021
-436.734	340.806	0.106	0.206
-435.719	-130.779	-0.237	0.032
-434.705	800.000	0.043	-0.129
-433.690	-90.605	-0.087	0.025
-432.676	-59.611	0.273	-0.116
-431.661	175.013	-0.155	-0.223
-430.646	800.000	0.052	-0.213
-429.632	-200.000	0.042	-0.221
-428.617	440.022	-0.094	-0.205
-427.603	247.367	-0.046	-0.077
-426.588	42.540	0.330	0.298
-425.573	116.322	0.103	0.126
-424.559	71.580	-0.199	-0.205
-423.544	175.975	0.291	-0.419
-422.530	-71.854	0.213	-0.079
-421.515	-142.862	0.091	-0.009
-420.500	-1.713	0.217	0.151
-419.486	-83.694	0.332	0.105
-418.471	-93.233	-0.226	-0.062
-417.457	-87.442	-0.183	0.055
-416.442	800.000	-0.035	-0.128
-415.428	-40.033	-0.088	-0.045
-414.413	507.509	-0.114	0.262
-413.398	-53.938	0.200	-0.090
-412.384	-67.423	-0.070	0.027
-411.369	-79.363	-0.247	0.083
-410.355	596.536	-0.063	0.154
-409.340	800.000	0.062	-0.201
-408.325	-106.814	0.264	-0.058
-407.311	175.667	-0.212	0.304
-406.296	-200.000	0.058	0.331
-405.282	222.260	0.115	0.184
-404.267	-200.000	-0.020	0.106
-403.252	-99.179	0.094	0.024
-402.238	132.253	-0.046	0.058
-401.223	-12.846	-0.190	-0.123
-400.209	-48.372	0.179	-0.086
-399.194	98.219	0.213	0.243
-398.179	800.000	0.050	0.174
-397.165	-200.000	-0.008	0.143
-396.150	-20.322	-0.140	0.085
-395.136	-50.646	0.229	-0.107
-394.121	800.000	-0.086	-0.329
-393.106	800.000	0.039	-0.134
-392.092	9.185	-0.186	-0.140
-391.077	-115.572	0.401	-0.075
-390.063	-108.480	0.163	-0.035
-389.048	-200.000	0.002	0.103
-388.033	800.000	-0.047	0.130
-387.019	53.657	-0.432	-0.411
-386.004	449.175	-0.035	0.076
-384.990	25.444	-0.148	-0.122
-383.975	47.864	-0.062	-0.058
-382.960	-200.000	-0.030	-0.629
-381.946	800.000	0.011	-0.034
-380.931	424.674	-0.203	-0.434
-379.917	-60.045	-0.105	-0.044
-378.902	-200.000	0.072	-0.477
-377.888	517.978	0.043	0.099
-376.873	51.449	-0.191	-0.180
-375.858	-104.167	0.307	-0.071
-374.844	-200.000	0.338	-0.001
-373.829	139.272	-0.050	0.065
-372.815	480.383	-0.231	0.519
-371.800	15.643	0.183	-0.142
-370.785	-26.525	-0.212	-0.123
-369.771	782.515	-0.063	-0.170
-368.756	164.509	0.125	-0.174
-367.742	-71.407	-0.254	-0.094
-366.727	75.463	0.321	-0.336
-365.712	-1.088	0.367	0.257
-364.698	800.000	0.065	-0.220
-363.683	123.253	0.022	0.028
-362.669	-53.672	0.298	-0.135
-361.654	-200.000	0.097	-0.510
-360.639	139.018	0.148	0.192
-359.625	-72.461	0.118	-0.043
-358.610	-29.699	0.072	-0.041
-357.596	239.591	-0.128	0.211
-356.581	27.835	0.175	-0.146
-355.566	-97.544	0.130	-0.033
-354.552	-200.000	0.007	-0.086
-353.537	99.688	-0.273	-0.313
-352.523	316.656	0.119	0.222
-351.508	105.579	0.203	-0.238
-350.493	-74.686	0.360	0.128
-349.479	-32.124	-0.070	0.039
-348.464	41.479	0.073	0.065
-347.450	-200.000	0.007	0.071
-346.435	-61.970	0.133	-0.055
-345.420	-111.395	0.045	0.009
-344.406	800.000	0.039	0.113
-343.391	800.000	-0.106	-0.445
-342.377	8.673	-0.085	-0.063
-341.362	-200.000	0.006	-0.306
-340.348	-111.758	-0.319	-0.064
-339.333	27.205	0.311	0.258
-338.318	-123.090	0.372	0.059
-337.304	800.000	-0.089	-0.256
-336.289	-200.000	-0.020	0.206
-335.275	-200.000	0.004	0.415
-334.260	-140.409	-0.097	-0.010
-333.245	486.133	-0.037	-0.084
-332.231	54.796	0.129	-0.124
-331.216	25.283	0.108	0.089
-330.202	182.597	0.136	0.198
-329.187	138.253	0.082	0.106
-328.172	-146.431	0.152	-0.013
-327.158	-161.583	0.142	-0.007
-326.143	389.798	-0.088	-0.181
-325.129	-78.241	0.273	0.093
-324.114	16.085	-0.131	-0.102
-323.099	800.000	0.066	-0.205
-322.085	16.047	-0.306	0.238
-321.070	139.067	-0.124	0.161
-320.056	-123.482	0.290	-0.046
-319.041	-153.581	0.146	0.010
-318.026	-200.000	0.035	0.465
-317.012	27.619	-0.363	0.302
-315.997	190.534	-0.126	0.187
-314.983	-200.000	-0.017	-0.097
-313.968	429.568	0.166	0.355
-312.953	-78.469	0.212	-0.072
-311.939	-115.427	0.286	0.053
-310.924	-200.000	-0.017	0.000
-309.910	-170.448	-0.197	0.007
-308.895	800.000	0.069	-0.215
-307.880	-112.510	-0.314	-0.062
-306.866	468.405	0.040	0.088
-305.851	-200.000	-0.026	-0.153
-304.837	-200.000	-0.055	-0.269
-303.822	109.400	-0.030	-0.036
-302.807	-200.000	-0.034	0.301
-301.793	233.555	-0.100	-0.162
-300.778	-50.663	0.444	0.207
-299.764	227.434	0.104	-0.166
-298.749	75.867	0.112	0.117
-297.735	659.755	0.121	-0.307
-296.720	487.259	-0.021	0.048
-295.705	-136.820	-0.093	-0.011
-294.691	-185.555	0.072	0.001
-293.676	304.861	0.031	0.056
-292.662	-200.000	-0.018	-0.309
-291.647	318.105	-0.114	-0.213
-290.632	-45.257	-0.248	0.122
-289.618	742.541	0.113	0.300
-288.603	566.745	-0.129	0.309
-287.589	-200.000	-0.026	-0.128
-286.574	-200.000	0.008	0.242
-285.559	-200.000	0.008	0.099
-284.545	-200.000	0.018	0.109
-283.530	-169.891	0.225	0.008
-282.516	800.000	-0.106	0.445
-281.501	-25.729	0.014	0.008
-280.486	-90.265	0.210	-0.060
-279.472	460.891	-0.082	0.181
-278.457	-139.251	-0.221	-0.024
-277.443	-200.000	0.006	-0.083
-276.428	800.000	0.041	-0.166
-275.413	800.000	-0.108	-0.442
-274.399	69.600	-0.033	-0.033
-273.384	-200.000	-0.027	0.244
-272.370	800.000	0.063	0.213
-271.355	22.840	-0.085	-0.069
-270.340	-24.894	0.319	0.187
-269.326	112.009	0.072	0.086
-268.311	-200.000	-0.096	0.430
-267.297	-95.650	-0.402	-0.106
-266.282	97.887	0.190	-0.216
-265.267	-200.000	-0.002	0.064
-264.253	-200.000	0.002	-0.047
-263.238	151.053	0.101	0.135
-262.224	-200.000	0.005	0.074
-261.209	800.000	-0.076	0.301
-260.195	800.000	-0.087	0.266
-259.180	-200.000	0.045	0.227
-258.165	73.146	0.109	-0.112
-257.151	800.000	0.105	0.372
-256.136	-138.052	-0.155	-0.017
-255.122	85.069	-0.067	0.073
-254.107	-144.571	0.270	-0.025
-253.092	-200.000	0.010	-0.202
-252.078	16.761	0.088	0.069
-251.063	5.003	-0.180	0.131
-250.049	800.000	0.076	0.232
-249.034	592.019	0.026	0.063
-248.019	-200.000	-0.017	0.145
-247.005	-75.443	-0.079	0.028
-245.990	-71.045	-0.303	-0.112
-244.976	-50.867	-0.090	0.041
-243.961	72.456	-0.115	0.118
-242.946	-200.000	-0.011	-0.107
-241.932	-23.464	-0.260	-0.154
-240.917	-200.000	-0.001	0.196
-239.903	188.230	0.100	-0.147
-238.888	93.716	0.177	-0.198
-237.873	-38.606	-0.229	-0.119
-236.859	-31.987	-0.238	0.131
-235.844	401.280	-0.144	-0.298
-234.830	800.000	-0.086	-0.273
-233.815	47.800	-0.194	0.178
-232.800	-4.234	-0.024	0.017
-231.786	-168.855	0.163	-0.006
-230.771	-85.355	0.068	0.021
-229.757	-200.000	-0.062	-0.312
-228.742	35.712	0.162	-0.140
-227.727	-200.000	0.030	0.147
-226.713	397.615	-0.022	0.046
-225.698	800.000	-0.058	0.184
-224.684	-109.496	0.199	-0.041
-223.669	449.432	-0.075	0.162
-222.655	-200.000	0.067	0.288
-221.640	-92.860	-0.145	0.040
-220.625	-200.000	0.018	0.089
-219.611	800.000	-0.057	-0.239
-218.596	-27.346	-0.147	-0.084
-217.582	-200.000	0.000	-0.388
-216.567	-69.858	0.335	0.126
-215.552	-200.000	-0.008	0.209
-214.538	-105.954	-0.172	-0.038
-213.523	-124.822	-0.319	0.049
-212.509	-145.080	-0.342	0.031
-211.494	-71.129	-0.074	-0.028
-210.479	-6.324	0.162	0.109
-209.465	-99.674	0.269	0.066
-208.450	124.483	0.064	-0.080
-207.436	-115.883	0.098	-0.018
-206.421	-151.897	0.093	-0.007
-205.406	-99.997	-0.400	-0.098
-204.392	18.220	-0.078	0.061
-203.377	-200.000	0.008	-0.067
-202.363	774.921	0.070	0.188
-201.348	800.000	0.101	-0.434
-200.333	800.000	-0.057	0.195
-199.319	34.213	-0.169	0.145
-198.304	247.030	0.121	-0.201
-197.290	-200.000	-0.025	0.213
-196.275	800.000	-0.136	0.405
-195.260	-200.000	-0.025	0.237
-194.246	-101.286	0.204	0.049
-193.231	-38.641	-0.235	0.122
-192.217	485.984	-0.071	0.160
-191.202	234.615	0.112	0.182
-190.187	-6.491	0.111	0.075
-189.173	-45.246	-0.197	-0.096
-188.158	146.703	0.243	-0.321
-187.144	-2.138	0.106	0.073
-186.129	90.323	0.129	-0.142
-185.114	-116.584	-0.231	0.042
-184.100	578.963	-0.067	0.162
-183.085	-22.282	-0.123	0.073
-182.071	-177.929	0.109	-0.003
-181.056	-200.000	0.002	0.549
-180.042	-83.563	-0.168	-0.053
-179.027	-39.265	-0.180	-0.093
-178.012	800.000	0.161	0.526
-176.998	-108.335	0.467	-0.099
-175.983	118.028	-0.106	0.128
-174.969	-99.678	-0.227	-0.056
-173.954	-107.327	-0.037	0.008
-172.939	-106.367	0.309	-0.068
-171.925	-119.701	-0.193	0.033
-170.910	312.648	0.143	-0.263
-169.896	-84.184	0.214	0.067
-168.881	800.000	-0.037	0.146
-167.866	-42.030	-0.357	0.180
-166.852	-200.000	0.012	-0.077
-165.837	237.942	0.036	0.059
-164.823	126.714	-0.252	-0.314
-163.808	-200.000	0.012	0.125
-162.793	42.648	-0.234	0.209
-161.779	-68.784	-0.274	0.104
-160.764	34.894	-0.181	-0.156
-159.750	402.935	-0.075	-0.155
-158.735	61.458	-0.227	-0.221
-157.720	800.000	0.086	0.357
-156.706	-29.634	-0.330	-0.185
-155.691	-200.000	0.025	-0.136
-154.677	-74.805	0.110	-0.039
-153.662	341.849	0.040	0.077
-152.647	-31.861	-0.292	0.161
-151.633	225.706	0.007	0.011
-150.618	137.939	0.060	-0.078
-149.604	-200.000	-0.000	0.303
-148.589	-200.000	-0.006	0.217
-147.574	-200.000	-0.019	0.211
-146.560	-178.945	-0.243	0.005
-145.545	525.803	-0.055	0.126
-144.531	-120.936	-0.067	0.011
-143.516	800.000	0.075	0.228
-142.502	787.285	0.051	-0.139
-141.487	800.000	0.131	-0.357
-140.472	-14.327	0.057	-0.036
-139.458	800.000	0.083	0.267
-138.443	-112.372	-0.078	0.015
-137.429	-42.402	-0.270	-0.135
-136.414	-137.645	-0.169	-0.019
-135.399	-200.000	0.020	0.120
-134.385	-161.239	-0.200	-0.010
-133.370	-43.085	-0.331	-0.165
-132.356	-200.000	-0.002	0.107
-131.341	-200.000	0.024	-0.271
-130.326	-89.790	-0.159	-0.046
-129.312	-200.000	-0.002	0.102
-128.297	-93.295	-0.023	-0.006
-127.283	-130.831	-0.368	0.048
-126.268	333.060	0.133	0.253
-125.253	800.000	-0.102	0.408
-124.239	231.899	0.068	0.109
-123.224	24.718	0.238	-0.193
-122.210	-146.133	-0.284	0.025
-121.195	-149.592	-0.150	-0.012
-120.180	-200.000	0.046	-0.277
-119.166	233.255	0.085	-0.137
-118.151	-182.244	0.322	-0.006
-117.137	63.293	-0.081	0.079
-116.122	186.557	-0.053	-0.078
-115.107	40.414	0.146	0.129
-114.093	-33.305	-0.114	0.062
-113.078	230.702	0.228	0.365
-112.064	-76.573	-0.214	-0.074
-111.049	537.813	-0.014	0.032
-110.034	-59.325	0.114	-0.048
-109.020	-63.728	0.144	0.058
-108.005	209.817	-0.198	-0.305
-106.991	-130.666	-0.127	-0.017
-105.976	-147.891	-0.135	0.011
-104.962	120.400	0.136	0.166
-103.947	318.432	0.063	0.116
-102.932	-33.565	0.134	0.072
-101.918	-59.519	-0.226	-0.095
-100.903	291.312	0.112	-0.200
-99.889	-200.000	0.005	0.056
-98.874	-137.963	0.325	0.036
-97.859	237.923	0.091	-0.149
-96.845	-154.053	-0.170	-0.011
-95.830	-84.335	-0.225	0.070
-94.816	-200.000	-0.017	-0.106
-93.801	800.000	0.105	-0.302
-92.786	800.000	-0.035	-0.119
-91.772	-200.000	-0.002	-0.130
-90.757	-200.000	-0.006	0.187
-89.743	-24.773	-0.209	0.122
-88.728	-200.000	-0.007	0.327
-87.713	-14.145	0.148	-0.093
-86.699	285.551	-0.032	-0.057
-85.684	-40.833	0.206	-0.104
-84.670	-183.765	0.144	-0.002
-83.655	-0.807	0.067	0.047
-82.640	0.301	-0.285	0.199
-81.626	341.863	-0.212	-0.406
-80.611	7.897	-0.060	0.044
-79.597	-200.000	-0.035	-0.183
-78.582	-164.105	0.196	0.009
-77.567	-77.340	-0.063	-0.022
-76.553	-200.000	-0.003	-0.235
-75.538	-72.375	-0.203	0.073
-74.524	-76.287	0.147	-0.051
-73.509	-94.723	-0.017	0.004
-72.494	-18.445	-0.203	0.124
-71.480	154.960	0.122	0.165
-70.465	-200.000	0.018	-0.101
-69.451	800.000	-0.067	-0.187
-68.436	208.011	0.062	0.094
-67.422	166.536	0.048	-0.066
-66.407	-129.410	-0.204	0.028
-65.392	-200.000	0.021	-0.154
-64.378	-54.904	0.137	-0.061
-63.363	-200.000	-0.002	0.107
-62.349	800.000	0.073	-0.212
-61.334	47.400	-1.143	-1.042
-60.319	307.943	0.380	0.694
-59.305	800.000	-0.289	-1.109
-58.290	553.794	0.419	0.987
-57.276	249.732	0.800	1.327
-56.261	-200.000	113.578	644.145
-55.246	464.310	1513.001	3309.320
-54.232	146.893	2679.965	3525.184
-53.217	102.663	2179.947	2495.169
-52.203	37.897	1706.617	1483.789
-51.188	30.441	1524.585	1274.541
-50.173	28.329	1499.923	1239.598
-49.159	52.342	1557.536	1453.344
-48.144	50.991	1572.720	1458.160
-47.130	30.735	1529.065	1280.110
-46.115	27.706	1514.264	1246.993
-45.100	27.505	1510.900	1242.803
-44.086	27.500	1508.740	1240.948
-43.071	27.393	1506.603	1238.413
-42.057	27.337	1505.466	1237.048
-41.042	27.359	1504.580	1236.419
-40.027	27.364	1502.643	1234.813
-39.013	27.259	1501.459	1233.078
-37.998	27.382	1499.870	1232.558
-36.984	27.399	1498.355	1231.376
-35.969	27.305	1497.557	1230.036
-34.954	27.352	1495.912	1228.956
-33.940	27.324	1494.568	1227.613
-32.925	27.333	1493.095	1226.418
-31.911	27.425	1491.455	1225.637
-30.896	27.530	1490.381	1225.414
-29.881	27.384	1489.409	1223.582
-28.867	27.444	1487.959	1222.747
-27.852	27.433	1486.701	1221.592
-26.838	27.432	1485.366	1220.438
-25.823	27.382	1483.964	1218.904
-24.809	27.400	1481.990	1217.355
-23.794	27.511	1480.666	1216.962
-22.779	27.321	1479.971	1215.073
-21.765	27.422	1478.772	1214.713
-20.750	27.487	1477.033	1213.670
-19.736	27.433	1476.602	1212.905
-18.721	27.380	1475.445	1211.557
-17.706	27.315	1474.476	1210.281
-16.692	27.409	1473.289	1209.884
-15.677	27.431	1472.071	1208.983
-14.663	27.426	1470.947	1207.976
-13.648	27.411	1470.118	1207.146
-12.633	27.305	1469.608	1205.977
-11.619	27.421	1468.691	1205.947
-10.604	27.458	1467.885	1205.484
-9.590	27.419	1466.902	1204.371
-8.575	27.397	1466.077	1203.496
-7.560	27.405	1464.816	1202.470
-6.546	27.358	1464.415	1201.781
-5.531	27.427	1463.192	1201.183
-4.517	27.342	1462.594	1200.088
-3.502	27.390	1461.117	1199.140
-2.487	27.462	1459.835	1198.514
-1.473	27.380	1459.146	1197.365
-0.458	27.316	1458.107	1196.040
0.556	25.964	1447.950	1185.557
1.571	23.049	1423.969	1146.939
2.586	19.909	1364.176	1079.134
3.600	18.456	1281.655	1005.249
4.615	17.298	1237.615	964.059
5.629	16.713	1184.346	919.306
6.644	14.299	1108.066	847.744
7.659	11.907	1074.604	810.251
8.673	11.749	1069.263	805.370
9.688	11.459	1066.204	801.575
10.702	11.503	1064.841	800.696
11.717	11.529	1062.704	799.144
12.731	12.501	1062.335	803.546
13.746	15.124	1065.315	818.566
14.761	17.353	1068.107	831.549
15.775	17.922	1067.505	833.785
16.790	17.079	1065.636	828.142
17.804	15.962	1063.699	821.124
18.819	15.136	1061.905	815.645
19.834	14.512	1060.400	811.381
20.848	14.285	1058.935	809.084
21.863	14.010	1058.338	807.221
22.877	13.880	1057.463	805.852
23.892	13.656	1056.602	804.040
24.907	13.459	1055.996	802.548
25.921	13.582	1054.938	802.270
26.936	13.527	1054.499	801.601
27.950	13.604	1053.089	800.829
28.965	13.632	1052.203	800.221
29.980	13.815	1050.972	800.094
30.994	13.836	1049.740	799.189
32.009	13.873	1048.741	798.537
33.023	13.892	1048.655	798.490
34.038	13.892	1047.131	797.259
35.053	13.794	1046.518	796.252
36.067	13.766	1045.166	795.017
37.082	13.808	1044.697	794.792
38.096	13.824	1043.398	793.811
39.111	13.828	1042.795	793.298
40.126	13.761	1042.310	792.538
41.140	13.634	1041.354	791.138
42.155	13.546	1040.097	789.695
43.169	13.459	1039.384	788.667
44.184	13.430	1038.443	787.744
45.199	13.544	1036.866	787.023
46.213	13.568	1036.215	786.570
47.228	13.543	1034.992	785.453
48.242	13.673	1034.609	785.714
49.257	13.643	1033.298	784.505
50.271	13.637	1032.380	783.710
51.286	13.669	1031.843	783.385
52.301	13.711	1030.357	782.382
53.315	13.824	1029.480	782.181
54.330	13.567	1029.378	780.823
55.344	13.448	1027.987	779.138
56.359	13.582	1027.024	778.971
57.374	13.554	1026.286	778.208
58.388	13.650	1025.154	777.734
59.403	13.599	1024.171	776.679
60.417	13.561	1023.562	775.972
61.432	13.505	1022.684	774.976
62.447	13.424	1022.321	774.252
63.461	13.530	1021.009	773.684
64.476	13.247	1020.866	772.187
65.490	13.400	1019.297	771.644
66.505	13.421	1018.659	771.194
67.520	13.488	1017.944	770.896
68.534	13.561	1016.940	770.406
69.549	13.461	1016.749	769.730
70.563	13.568	1015.119	768.923
71.578	13.559	1014.981	768.707
72.593	13.501	1013.737	767.430
73.607	13.389	1013.006	766.287
74.622	13.292	1012.478	765.371
75.636	13.398	1011.163	764.801
76.651	13.518	1009.980	764.394
77.666	13.427	1009.624	763.634
78.680	13.437	1008.955	763.109
79.695	13.428	1008.502	762.659
80.709	13.561	1007.835	762.695
81.724	13.483	1007.393	761.934
82.739	13.431	1006.181	760.715
83.753	13.516	1005.221	760.311
84.768	13.787	1003.935	760.514
85.782	13.737	1003.930	760.212
86.797	13.737	1003.210	759.599
87.812	13.851	1002.502	759.518
88.826	13.888	1001.142	758.588
89.841	13.786	1000.406	757.501
90.855	13.747	999.554	756.609
91.870	13.820	999.100	756.534
92.884	13.749	998.289	755.526
93.899	13.813	997.212	754.934
94.914	13.737	996.761	754.183
95.928	13.865	996.191	754.266
96.943	13.811	995.503	753.434
97.957	13.745	994.824	752.554
98.972	13.815	993.485	751.790
99.987	13.900	992.774	751.570
101.001	13.865	991.890	750.679
102.016	13.753	991.462	749.778
103.030	13.805	990.248	749.032
104.045	13.669	989.504	747.787
105.060	13.699	988.427	747.043
106.074	13.677	987.751	746.369
107.089	13.634	986.585	745.229
108.103	13.632	985.630	744.429
109.118	13.533	984.870	743.347
110.133	13.511	984.084	742.589
111.147	13.676	983.221	742.612
112.162	13.516	982.652	741.400
113.176	13.546	981.417	740.534
114.191	13.644	980.526	740.238
115.206	13.538	979.673	739.054
116.220	13.634	979.006	738.914
117.235	13.594	977.932	737.858
118.249	13.615	977.279	737.396
119.264	13.565	976.436	736.471
120.279	13.622	975.432	735.902
121.293	13.608	974.692	735.215
122.308	13.625	974.085	734.770
123.322	13.531	973.535	733.873
124.337	13.565	972.224	732.969
125.352	13.428	970.933	731.328
126.366	13.543	969.622	730.779
127.381	13.536	968.151	729.579
128.395	13.611	967.693	729.499
129.410	13.483	967.071	728.400
130.424	13.583	965.783	727.807
131.439	13.568	964.778	726.920
132.454	13.707	963.987	726.865
133.468	13.610	963.575	726.066
134.483	13.753	963.002	726.197
135.497	13.667	962.679	725.514
136.512	13.731	961.465	724.814
137.527	13.603	960.858	723.733
138.541	13.685	959.847	723.263
139.556	13.659	959.107	722.530
140.570	13.712	958.834	722.491
141.585	13.819	957.461	721.859
142.600	13.802	957.348	721.637
143.614	13.796	956.474	720.885
144.629	13.822	955.724	720.371
145.643	13.942	954.914	720.218
146.658	13.915	954.232	719.520
147.673	13.938	953.206	718.784
148.687	13.708	952.615	717.281
149.702	13.804	951.406	716.719
150.716	13.768	950.413	715.754
151.731	13.840	949.454	715.278
152.746	13.695	949.426	714.570
153.760	13.741	948.331	713.879
154.775	13.835	947.416	713.533
155.789	13.841	946.854	713.071
156.804	13.983	945.956	712.944
157.819	13.906	945.149	711.942
158.833	13.887	944.830	711.558
159.848	13.964	943.928	711.145
160.862	14.050	943.462	711.097
161.877	13.914	942.591	709.798
162.892	13.948	941.658	709.176
163.906	13.816	940.666	707.802
164.921	13.876	939.869	707.399
165.935	13.784	938.854	706.179
166.950	13.827	937.850	705.545
167.964	13.934	936.885	705.211
168.979	13.940	936.140	704.614
169.994	13.872	935.036	703.432
171.008	13.951	934.206	703.080
172.023	14.030	933.500	702.820
173.037	14.019	932.731	702.131
174.052	14.083	932.175	701.923
175.067	13.912	932.091	701.073
176.081	14.078	930.584	700.578
177.096	13.953	929.935	699.499
178.110	14.001	929.145	699.048
179.125	13.997	928.458	698.451
180.140	14.098	927.109	697.798
181.154	14.077	926.822	697.434
182.169	14.154	926.300	697.301
183.183	14.038	925.829	696.399
184.198	14.125	925.014	696.087
185.213	14.264	923.899	695.769
186.227	14.209	923.363	695.075
187.242	14.243	923.376	695.164
188.256	14.207	922.866	694.567
189.271	14.350	921.959	694.422
190.286	14.346	920.972	693.601
191.300	14.231	919.797	692.174
192.315	13.985	919.453	690.832
193.329	13.975	919.049	690.426
194.344	13.911	918.321	689.553
195.359	14.006	917.493	689.265
196.373	14.064	917.301	689.298
197.388	14.228	916.551	689.354
198.402	14.315	916.375	689.521
199.417	14.349	915.540	688.971
200.432	14.419	914.804	688.647
201.446	14.396	914.739	688.438
202.461	14.616	914.143	688.838
203.475	14.490	913.723	687.942
204.490	14.245	913.332	686.578
205.504	14.423	911.847	686.132
206.519	14.451	911.165	685.675
207.534	14.378	910.306	684.666
208.548	14.392	909.696	684.203
209.563	14.442	909.305	684.054
210.577	14.372	908.262	682.922
211.592	14.489	907.604	682.846
212.607	14.492	907.461	682.693
213.621	14.676	906.871	682.939
214.636	14.672	905.727	682.003
215.650	14.703	904.920	681.459
216.665	14.747	904.306	681.118
217.680	14.685	904.471	680.930
218.694	14.647	903.690	680.124
219.709	14.699	903.224	679.926
220.723	14.664	902.524	679.198
221.738	14.725	901.596	678.684
222.753	14.602	900.834	677.554
223.767	14.564	900.598	677.160
224.782	14.741	899.419	676.933
225.796	14.774	898.951	676.655
226.811	14.847	898.240	676.355
227.826	14.747	897.546	675.368
228.840	14.848	896.561	674.976
229.855	14.806	896.227	674.495
230.869	14.677	895.824	673.609
231.884	14.653	894.921	672.776
232.899	14.600	894.376	672.093
233.913	14.725	893.538	671.906
234.928	14.707	892.916	671.306
235.942	14.769	892.139	670.910
236.957	14.661	891.185	669.702
237.972	14.626	890.899	669.288
238.986	14.791	889.853	669.102
240.001	14.764	889.235	668.472
241.015	14.673	888.690	667.638
242.030	14.757	887.969	667.374
243.045	14.787	887.473	667.062
244.059	14.916	886.634	666.885
245.074	14.874	886.214	666.344
246.088	14.788	885.854	665.669
247.103	15.047	884.741	665.806
248.117	14.961	884.172	664.976
249.132	15.008	883.725	664.771
250.147	15.146	883.068	664.762
251.161	15.089	882.711	664.211
252.176	15.238	881.479	663.817
253.190	15.215	881.236	663.482
254.205	15.279	880.361	663.019
255.220	15.292	879.958	662.708
256.234	15.385	879.219	662.458
257.249	15.270	878.572	661.461
258.263	15.304	878.195	661.251
259.278	15.381	877.424	660.916
260.293	15.216	877.451	660.227
261.307	15.383	876.310	659.967
262.322	15.352	875.923	659.497
263.336	15.461	875.408	659.476
264.351	15.384	874.749	658.621
265.366	15.499	874.054	658.491
266.380	15.542	873.438	658.137
267.395	15.521	872.983	657.651
268.409	15.555	871.754	656.800
269.424	15.432	871.477	656.052
270.439	15.539	870.755	655.869
271.453	15.426	869.947	654.763
272.468	15.401	869.247	654.082
273.482	15.486	868.112	653.498
274.497	15.435	867.898	653.080
275.512	15.611	867.201	653.184
276.526	15.508	866.194	651.967
277.541	15.471	865.647	651.356
278.555	15.545	865.220	651.264
279.570	15.594	865.013	651.239
280.585	15.651	864.465	650.989
281.599	15.557	863.824	650.087
282.614	15.528	863.214	649.457
283.628	15.588	862.528	649.117
284.643	15.616	861.952	648.731
285.657	15.585	861.540	648.246
286.672	15.624	860.966	647.908
287.687	15.761	860.249	647.836
288.701	15.717	859.788	647.264
289.716	15.708	859.280	646.789
290.730	15.737	858.748	646.444
291.745	15.677	858.130	645.690
292.760	15.796	857.556	645.658
293.774	15.819	856.752	645.085
294.789	15.732	856.274	644.332
295.803	15.837	855.711	644.254
296.818	15.785	854.942	643.419
297.833	15.881	854.124	643.112
298.847	15.832	853.853	642.667
299.862	15.807	853.097	641.946
300.876	15.752	852.413	641.163
301.891	15.818	851.653	640.787
302.906	15.954	851.127	640.852
303.920	15.994	850.464	640.446
304.935	16.122	849.631	640.248
305.949	16.048	849.553	639.854
306.964	16.185	848.399	639.449
307.979	16.260	847.803	639.224
308.993	16.038	847.501	638.100
310.008	16.116	846.657	637.703
311.022	16.226	846.592	638.012
312.037	16.140	845.720	636.977
313.052	16.140	845.425	636.696
314.066	16.091	844.514	635.768
315.081	16.122	844.192	635.588
316.095	16.101	843.657	635.051
317.110	15.988	843.415	634.384
318.125	16.172	842.453	634.299
319.139	16.091	842.372	633.877
320.154	16.061	841.255	632.867
321.168	16.004	841.524	632.800
322.183	16.140	840.748	632.669
323.197	16.199	840.000	632.273
324.212	16.230	839.195	631.726
325.227	16.289	838.453	631.332
326.241	16.177	838.351	630.783
327.256	16.413	837.550	631.006
328.270	16.265	836.985	629.970
329.285	16.116	836.826	629.238
330.300	16.071	836.338	628.649
331.314	16.099	835.704	628.221
332.329	16.300	834.907	628.315
333.343	16.397	834.247	628.122
334.358	16.437	833.758	627.848
335.373	16.485	833.200	627.551
336.387	16.397	832.745	626.827
337.402	16.524	831.674	626.433
338.416	16.598	831.558	626.565
339.431	16.561	831.147	626.063
340.446	16.505	830.648	625.426
341.460	16.539	830.211	625.166
342.475	16.675	829.360	624.974
343.489	16.748	828.764	624.738
344.504	16.668	828.561	624.233
345.519	16.714	827.884	623.837
346.533	16.631	827.651	623.300
347.548	16.758	826.806	623.079
348.562	16.729	826.366	622.583
349.577	16.572	826.224	621.844
350.592	16.500	825.429	620.925
351.606	16.520	825.054	620.665
352.621	16.546	824.640	620.392
353.635	16.620	823.786	619.966
354.650	16.589	823.790	619.802
355.665	16.691	823.132	619.623
356.679	16.749	822.430	619.252
357.694	16.825	822.304	619.382
358.708	16.683	821.736	618.379
359.723	16.677	821.358	618.019
360.738	16.873	820.375	617.939
361.752	16.782	820.153	617.384
362.767	16.738	819.825	616.925
363.781	16.860	819.102	616.771
364.796	16.995	818.567	616.804
365.810	17.012	818.217	616.545
366.825	17.156	817.662	616.598
367.840	17.076	817.756	616.323
368.854	17.002	817.225	615.599
369.869	17.030	816.816	615.339
370.883	17.144	816.265	615.281
371.898	17.003	815.591	614.209
372.913	17.207	814.687	614.210
373.927	17.148	814.400	613.727
374.942	17.042	813.884	612.900
375.956	17.184	812.972	612.672
376.971	17.225	812.301	612.259
377.986	17.284	811.962	612.162
379.000	17.209	811.765	611.689
380.015	17.252	811.016	611.225
381.029	17.212	810.583	610.702
382.044	17.217	809.993	610.220
383.059	17.219	809.475	609.785
384.073	17.344	808.690	609.586
385.088	17.290	808.398	609.119
386.102	17.168	807.799	608.177
387.117	17.215	807.157	607.806
388.132	17.224	806.923	607.609
389.146	17.276	806.205	607.202
390.161	17.248	805.938	606.845
391.175	17.427	805.428	607.047
392.190	17.486	805.251	607.071
393.205	17.379	804.776	606.278
394.219	17.255	804.262	605.395
395.234	17.216	803.846	604.891
396.248	17.371	803.097	604.824
397.263	17.357	802.678	604.406
398.278	17.268	802.313	603.760
399.292	17.345	801.593	603.437
400.307	17.284	801.531	603.124
401.321	17.258	801.243	602.760
402.336	17.263	800.759	602.362
403.350	17.327	800.260	602.158
404.365	17.321	800.171	602.018
405.380	17.337	799.436	601.468
406.394	17.568	798.679	601.661
407.409	17.651	798.163	601.513
408.423	17.579	798.017	601.093
409.438	17.678	797.712	601.159
410.453	17.490	797.239	600.087
411.467	17.664	796.768	600.291
412.482	17.625	796.111	599.609
413.496	17.838	795.588	599.909
414.511	17.851	795.720	600.003
415.526	17.881	794.590	599.204
416.540	17.839	794.622	599.026
417.555	17.801	794.335	598.624
418.569	17.646	793.970	597.753
419.584	17.787	793.433	597.788
420.599	17.768	792.944	597.302
421.613	111.786	1293.182	1477.413
422.628	96.131	1366.066	1477.547
