DTS Sentinel unit serial number:	SN413079Multiplexer serial number:	ORYXHardware model number:	OX4-SRSoftware version number:	ORYX F/W v4.00 Oryx Data Collector v3.7.2.0data status	okinstallation	princeton_trtdifferential loss correction	single-endedforward channel	channel 3reverse channel	N/Adate	2019/09/17time	12:24:35forward acquisition time	60.00reverse acquisition time	0.00gamma	496.2192k internal	0.2319k external	0.2319temperature offset calibration	0.9963default loss term (dB/km)	0.3790temperature slope calibration	1.0000multiplexer offset coefficient	1.0000multiplexer slope coefficient	1.0000fibre end	0.00T internal ref (°C)	31.73T ext. ref 1 (°C)	0.43T ext. ref 2 (°C)	28.82length (m)	temperature (°C)	Stokes	anti-Stokes-747.200	77.480	0.364	0.392
-746.185	-200.000	-0.041	0.289
-745.171	32.345	0.137	-0.119
-744.156	-49.713	-0.295	0.142
-743.142	-19.728	0.125	-0.078
-742.127	11.246	0.316	0.245
-741.112	800.000	0.092	-0.261
-740.098	-91.589	-0.202	0.058
-739.083	198.687	-0.185	-0.286
-738.069	243.180	0.070	0.119
-737.054	153.213	-0.165	-0.228
-736.039	-96.504	-0.508	-0.136
-735.025	254.396	0.083	0.144
-734.010	-48.934	-0.305	-0.148
-732.996	516.719	-0.127	-0.301
-731.981	328.158	0.117	-0.228
-730.966	800.000	-0.059	-0.207
-729.952	800.000	0.047	0.181
-728.937	-200.000	-0.042	0.220
-727.923	69.272	0.241	-0.251
-726.908	153.573	-0.181	-0.251
-725.894	178.623	-0.055	-0.081
-724.879	699.902	0.194	-0.517
-723.864	-200.000	0.023	-0.176
-722.850	-140.359	-0.122	0.013
-721.835	-100.286	0.165	0.041
-720.821	-138.293	-0.224	-0.025
-719.806	-49.927	0.072	-0.034
-718.791	-153.934	0.076	-0.005
-717.777	304.400	0.011	-0.021
-716.762	-120.625	-0.157	0.027
-715.748	-164.484	0.232	-0.011
-714.733	5.173	0.139	0.103
-713.718	7.247	-0.261	0.197
-712.704	80.915	-0.126	0.137
-711.689	-200.000	0.076	0.000
-710.675	348.439	-0.139	-0.276
-709.660	9.304	0.178	-0.136
-708.645	-28.029	0.253	0.148
-707.631	-200.000	0.019	-0.244
-706.616	-29.733	-0.334	-0.192
-705.602	-58.300	0.197	0.087
-704.587	-9.184	-0.185	-0.125
-703.572	-76.770	-0.169	0.060
-702.558	-160.361	0.187	-0.010
-701.543	-174.666	0.264	-0.008
-700.529	124.623	0.049	0.062
-699.514	549.097	-0.089	0.215
-698.499	-91.402	0.145	-0.042
-697.485	-126.463	-0.211	-0.032
-696.470	-93.112	-0.232	-0.065
-695.456	44.419	0.171	0.159
-694.441	-21.035	0.245	-0.151
-693.426	-200.000	0.106	-0.504
-692.412	120.365	-0.061	-0.076
-691.397	-200.000	0.041	0.278
-690.383	-81.848	-0.123	-0.041
-689.368	-124.138	-0.375	-0.059
-688.354	-63.327	-0.231	0.096
-687.339	455.213	0.041	-0.093
-686.324	80.245	0.056	-0.061
-685.310	-72.424	0.047	-0.018
-684.295	-88.818	0.235	0.070
-683.281	800.000	-0.055	0.204
-682.266	-200.000	-0.060	-0.371
-681.251	-72.384	-0.049	-0.018
-680.237	29.955	-0.158	-0.136
-679.222	552.709	-0.027	0.066
-678.208	42.824	0.213	-0.196
-677.193	133.160	-0.015	-0.020
-676.178	506.367	-0.118	-0.276
-675.164	-105.673	0.145	0.033
-674.149	-2.911	-0.097	-0.069
-673.135	45.303	0.322	-0.300
-672.120	281.636	-0.174	-0.314
-671.105	49.987	-0.216	0.206
-670.091	-38.980	0.067	0.036
-669.076	-150.633	0.160	-0.012
-668.062	-23.986	0.084	0.051
-667.047	-200.000	-0.056	0.299
-666.032	200.905	-0.150	-0.233
-665.018	-200.000	0.044	-0.315
-664.003	-167.164	0.346	-0.014
-662.989	800.000	-0.070	-0.235
-661.974	239.894	-0.119	-0.200
-660.959	-30.644	-0.117	-0.067
-659.945	-70.150	0.238	0.091
-658.930	-103.637	-0.147	-0.035
-657.916	-200.000	-0.018	0.200
-656.901	-44.225	-0.206	-0.104
-655.886	90.725	0.149	-0.169
-654.872	800.000	-0.052	0.213
-653.857	-200.000	0.012	-0.094
-652.843	-69.623	0.305	-0.118
-651.828	-165.332	0.183	0.008
-650.814	-200.000	-0.002	-0.042
-649.799	800.000	0.068	-0.200
-648.784	-55.263	0.097	-0.044
-647.770	-86.797	-0.275	0.085
-646.755	45.110	0.076	-0.071
-645.741	-34.318	-0.246	0.136
-644.726	97.136	0.063	0.073
-643.711	-107.535	0.264	-0.058
-642.697	232.432	-0.110	-0.182
-641.682	52.689	0.146	-0.140
-640.668	37.476	0.111	-0.099
-639.653	-38.210	0.081	0.043
-638.638	-87.912	0.166	0.050
-637.624	-112.544	0.188	0.038
-636.609	-200.000	0.047	-0.262
-635.595	239.801	-0.111	0.187
-634.580	800.000	-0.055	-0.206
-633.565	-76.305	-0.191	-0.068
-632.551	282.400	-0.063	0.115
-631.536	-200.000	0.032	0.301
-630.522	18.408	0.095	-0.077
-629.507	-200.000	-0.047	-0.259
-628.492	712.270	0.049	0.130
-627.478	-63.491	-0.263	0.109
-626.463	-61.740	0.136	0.057
-625.449	-127.118	-0.063	-0.009
-624.434	224.488	-0.077	-0.126
-623.419	-103.971	-0.312	-0.073
-622.405	111.621	0.095	-0.115
-621.390	-45.975	0.319	0.159
-620.376	-72.287	0.407	0.152
-619.361	-82.476	0.352	0.115
-618.346	560.246	0.072	-0.174
-617.332	-89.143	0.277	-0.083
-616.317	225.591	-0.118	-0.193
-615.303	-200.000	-0.079	-0.457
-614.288	-85.721	-0.279	0.087
-613.273	-200.000	-0.026	-0.178
-612.259	544.700	0.039	-0.094
-611.244	-190.409	-0.209	-0.002
-610.230	71.026	-0.158	-0.164
-609.215	127.975	0.115	-0.147
-608.201	800.000	-0.011	-0.041
-607.186	-200.000	-0.046	0.262
-606.171	-200.000	0.031	0.268
-605.157	800.000	-0.072	-0.237
-604.142	330.713	0.049	-0.095
-603.128	153.522	0.025	-0.035
-602.113	-121.129	0.151	0.026
-601.098	144.206	-0.119	0.160
-600.084	125.515	-0.242	0.308
-599.069	322.328	-0.059	0.114
-598.055	-161.479	0.040	0.002
-597.040	15.827	-0.242	-0.192
-596.025	256.702	0.015	-0.026
-595.011	800.000	-0.050	0.170
-593.996	64.519	-0.148	0.150
-592.982	98.129	-0.126	-0.146
-591.967	-103.660	0.295	0.070
-590.952	49.803	0.258	-0.245
-589.938	800.000	0.099	-0.291
-588.923	-200.000	-0.034	0.238
-587.909	389.552	-0.121	0.252
-586.894	62.966	-0.032	0.032
-585.879	90.234	-0.058	0.065
-584.865	58.273	-0.422	0.416
-583.850	130.796	0.069	0.089
-582.836	-200.000	-0.001	-0.141
-581.821	-8.536	0.105	-0.071
-580.806	-120.466	-0.099	-0.017
-579.792	800.000	-0.109	-0.305
-578.777	-5.299	0.192	-0.133
-577.763	-85.476	-0.425	-0.133
-576.748	-122.712	-0.041	-0.007
-575.733	587.478	-0.047	0.117
-574.719	160.337	-0.169	-0.237
-573.704	166.187	0.083	0.118
-572.690	-25.568	0.155	-0.092
-571.675	241.066	-0.066	0.111
-570.661	-1.682	0.128	-0.091
-569.646	-200.000	0.014	0.262
-568.631	-119.290	0.121	-0.021
-567.617	-52.362	0.231	0.108
-566.602	-41.113	-0.102	-0.053
-565.588	800.000	-0.019	0.057
-564.573	-200.000	0.025	0.259
-563.558	-23.539	-0.346	0.208
-562.544	-59.762	-0.238	-0.103
-561.529	52.629	-0.166	-0.160
-560.515	104.246	0.017	0.020
-559.500	411.073	0.088	-0.187
-558.485	-200.000	-0.004	-0.098
-557.471	564.878	-0.115	0.279
-556.456	800.000	0.025	-0.084
-555.442	131.719	-0.167	0.216
-554.427	800.000	-0.112	0.319
-553.412	494.454	-0.062	-0.143
-552.398	598.438	-0.071	0.176
-551.383	-80.638	0.186	-0.062
-550.369	156.811	0.249	-0.345
-549.354	609.187	0.090	-0.225
-548.339	148.733	-0.090	0.123
-547.325	-200.000	-0.007	-0.152
-546.310	-25.331	0.043	0.025
-545.296	800.000	-0.090	-0.350
-544.281	-99.655	0.176	-0.044
-543.266	22.651	0.164	-0.135
-542.252	800.000	-0.086	0.251
-541.237	800.000	-0.024	-0.106
-540.223	101.576	0.064	0.075
-539.208	77.093	-0.167	0.178
-538.193	49.087	0.253	-0.238
-537.179	-134.574	-0.162	0.020
-536.164	-200.000	-0.009	-0.275
-535.150	-200.000	-0.002	-0.036
-534.135	-131.961	0.224	0.029
-533.121	21.158	-0.063	0.052
-532.106	-4.726	-0.127	0.088
-531.091	-123.871	0.088	-0.014
-530.077	192.629	-0.092	-0.139
-529.062	14.631	0.322	0.252
-528.048	188.447	-0.131	-0.197
-527.033	20.934	0.155	0.126
-526.018	100.475	0.293	0.342
-525.004	-149.351	-0.294	0.023
-523.989	-200.000	-0.062	-0.297
-522.975	-0.929	-0.058	-0.042
-521.960	-75.006	-0.095	0.034
-520.945	-36.140	0.331	-0.179
-519.931	76.462	-0.360	0.382
-518.916	-177.538	-0.364	0.009
-517.902	130.989	-0.177	0.228
-516.887	-18.006	-0.356	-0.224
-515.872	-100.910	0.037	0.009
-514.858	50.037	0.076	0.072
-513.843	10.582	0.244	-0.187
-512.829	-138.943	-0.376	-0.041
-511.814	-81.929	-0.363	-0.119
-510.799	800.000	0.030	0.117
-509.785	-200.000	0.015	-0.195
-508.770	13.854	-0.309	-0.241
-507.756	-200.000	0.001	-0.232
-506.741	-119.749	0.163	-0.028
-505.726	397.889	-0.092	-0.194
-504.712	-200.000	0.027	-0.204
-503.697	-95.691	-0.021	0.006
-502.683	-54.885	0.384	0.173
-501.668	-41.533	-0.355	-0.183
-500.653	-185.277	-0.326	0.005
-499.639	9.874	-0.082	-0.063
-498.624	800.000	-0.058	0.246
-497.610	2.483	-0.100	0.073
-496.595	-82.187	-0.134	-0.044
-495.581	-93.828	-0.310	-0.086
-494.566	-10.495	0.139	0.092
-493.551	800.000	0.082	-0.297
-492.537	203.188	-0.070	-0.108
-491.522	-82.038	0.277	-0.091
-490.508	-136.656	-0.193	-0.022
-489.493	-200.000	0.027	0.183
-488.478	-15.552	0.162	0.104
-487.464	753.177	-0.049	-0.133
-486.449	41.094	0.241	-0.218
-485.435	166.387	-0.137	-0.195
-484.420	640.701	-0.016	0.040
-483.405	132.475	0.028	-0.037
-482.391	-119.835	0.058	0.010
-481.376	-200.000	0.013	0.384
-480.362	26.944	0.240	-0.202
-479.347	-109.002	0.175	-0.037
-478.332	11.774	0.149	-0.115
-477.318	144.260	-0.184	-0.245
-476.303	-80.132	-0.111	0.037
-475.289	-73.689	0.332	-0.121
-474.274	-65.202	0.291	0.117
-473.259	800.000	-0.031	-0.109
-472.245	169.414	0.131	-0.188
-471.230	-200.000	0.031	0.213
-470.216	-144.635	-0.326	-0.030
-469.201	-200.000	0.003	0.177
-468.186	-106.856	0.166	-0.037
-467.172	742.298	0.067	0.180
-466.157	-90.964	-0.422	0.121
-465.143	46.507	-0.130	-0.121
-464.128	371.188	0.132	0.268
-463.113	316.167	-0.176	0.333
-462.099	240.831	0.191	0.320
-461.084	-8.623	-0.185	-0.124
-460.070	231.347	0.106	0.174
-459.055	-143.524	-0.111	-0.011
-458.040	104.982	-0.250	0.295
-457.026	-172.118	0.255	-0.008
-456.011	-74.050	0.315	0.114
-454.997	-119.153	0.263	-0.046
-453.982	-106.716	-0.134	0.030
-452.968	-200.000	-0.040	0.262
-451.953	328.355	-0.059	0.113
-450.938	-200.000	0.003	0.154
-449.924	200.439	0.229	-0.351
-448.909	-49.761	0.165	-0.079
-447.895	31.512	0.286	-0.246
-446.880	348.088	-0.071	0.140
-445.865	800.000	-0.101	-0.384
-444.851	102.698	0.289	-0.338
-443.836	-23.044	-0.253	0.152
-442.822	-96.539	0.309	0.082
-441.807	-200.000	-0.027	-0.175
-440.792	252.533	-0.205	0.350
-439.778	-200.000	-0.009	-0.093
-438.763	299.241	0.145	0.266
-437.749	-36.043	0.113	-0.061
-436.734	-200.000	-0.058	0.324
-435.719	285.483	0.078	-0.141
-434.705	-200.000	0.043	0.206
-433.690	213.684	-0.214	-0.338
-432.676	-51.535	-0.187	0.087
-431.661	-74.373	-0.137	0.049
-430.646	760.918	0.056	-0.153
-429.632	26.011	-0.171	-0.142
-428.617	-129.896	-0.272	0.037
-427.603	786.668	0.133	0.365
-426.588	-200.000	0.005	-0.110
-425.573	223.375	-0.029	-0.047
-424.559	1.042	-0.208	0.149
-423.544	561.183	0.022	-0.054
-422.530	18.862	0.256	0.205
-421.515	-46.890	-0.404	0.197
-420.500	147.374	-0.186	0.251
-419.486	40.959	-0.162	0.146
-418.471	-200.000	0.010	-0.277
-417.457	-200.000	-0.016	-0.195
-416.442	-23.437	-0.207	-0.124
-415.428	-200.000	0.001	-0.415
-414.413	-60.621	0.183	0.077
-413.398	775.739	0.160	0.435
-412.384	-176.690	-0.456	-0.012
-411.369	800.000	0.085	0.240
-410.355	-164.605	-0.189	0.009
-409.340	11.791	-0.401	-0.307
-408.325	-26.270	-0.241	0.141
-407.311	-200.000	0.129	0.000
-406.296	527.155	-0.040	-0.095
-405.282	-200.000	-0.024	0.271
-404.267	-43.131	-0.190	0.096
-403.252	-1.166	0.130	0.092
-402.238	-200.000	0.039	0.254
-401.223	-95.364	-0.252	0.068
-400.209	-179.868	0.038	-0.001
-399.194	-200.000	0.032	-0.160
-398.179	-101.056	-0.253	-0.062
-397.165	-42.655	0.264	0.134
-396.150	728.677	0.044	-0.118
-395.136	-42.033	0.261	0.133
-394.121	800.000	-0.018	-0.075
-393.106	-178.851	-0.183	0.004
-392.092	18.334	0.031	-0.025
-391.077	-61.960	0.245	-0.102
-390.063	-179.819	-0.349	-0.007
-389.048	7.542	-0.178	0.133
-388.033	-125.399	0.072	-0.011
-387.019	-132.179	-0.238	-0.031
-386.004	800.000	0.034	0.093
-384.990	277.529	0.188	0.334
-383.975	-15.224	0.274	0.175
-382.960	-188.682	0.133	-0.002
-381.946	-162.026	0.450	-0.023
-380.931	-126.145	-0.146	-0.022
-379.917	-91.200	-0.331	0.095
-378.902	-116.300	0.361	0.067
-377.888	-160.908	0.095	0.005
-376.873	-0.700	0.304	0.215
-375.858	800.000	0.021	-0.091
-374.844	540.568	0.159	-0.379
-373.829	-45.227	-0.175	0.087
-372.815	-200.000	-0.016	-0.312
-371.800	-8.978	0.231	0.154
-370.785	800.000	-0.040	0.151
-369.771	-200.000	0.015	-0.345
-368.756	616.294	-0.075	0.186
-367.742	-200.000	-0.005	0.022
-366.727	24.503	-0.273	-0.225
-365.712	19.204	0.251	-0.201
-364.698	-50.616	0.073	0.034
-363.683	-25.807	-0.272	-0.160
-362.669	137.984	0.335	-0.437
-361.654	530.700	0.119	0.280
-360.639	132.848	-0.014	0.018
-359.625	-78.842	-0.020	0.007
-358.610	-68.135	0.311	-0.121
-357.596	-54.255	-0.105	-0.048
-356.581	159.917	0.132	-0.184
-355.566	296.545	0.127	-0.233
-354.552	-200.000	0.055	0.292
-353.537	263.745	0.107	-0.185
-352.523	360.754	0.149	0.298
-351.508	-200.000	-0.003	-0.046
-350.493	-135.719	0.270	-0.032
-349.479	20.344	0.157	-0.126
-348.464	7.887	0.036	-0.027
-347.450	-200.000	-0.097	0.464
-346.435	699.274	-0.081	0.213
-345.420	-200.000	-0.035	-0.294
-344.406	-123.800	0.085	-0.013
-343.391	-20.074	-0.109	0.067
-342.377	-44.180	-0.283	0.141
-341.362	-139.477	-0.062	0.007
-340.348	-74.283	0.096	0.034
-339.333	-7.734	0.344	-0.232
-338.318	-87.141	0.300	-0.091
-337.304	389.470	0.042	-0.086
-336.289	86.291	-0.275	0.301
-335.275	800.000	0.028	0.123
-334.260	165.529	0.087	0.122
-333.245	72.640	-0.193	-0.200
-332.231	800.000	0.011	0.030
-331.216	132.957	-0.078	0.100
-330.202	91.995	0.156	-0.175
-329.187	160.228	0.067	0.093
-328.172	189.630	-0.131	-0.195
-327.158	290.253	-0.092	0.165
-326.143	93.379	0.043	0.048
-325.129	-44.243	0.153	-0.076
-324.114	36.019	0.178	-0.156
-323.099	173.040	0.021	-0.030
-322.085	800.000	-0.007	0.032
-321.070	-200.000	0.003	-0.251
-320.056	111.608	-0.067	0.081
-319.041	157.917	0.240	0.331
-318.026	800.000	0.075	-0.210
-317.012	-115.517	-0.232	-0.043
-315.997	340.511	0.111	-0.216
-314.983	3.214	0.166	0.120
-313.968	-81.632	-0.398	-0.130
-312.953	-6.696	-0.174	0.118
-311.939	-162.178	-0.155	0.008
-310.924	800.000	0.101	-0.424
-309.910	-33.349	0.288	-0.158
-308.895	692.333	0.108	0.282
-307.880	337.007	0.038	-0.074
-306.866	65.477	-0.234	0.235
-305.851	31.478	0.029	-0.025
-304.837	800.000	0.074	0.208
-303.822	98.135	-0.179	0.205
-302.807	-200.000	-0.000	-0.108
-301.793	101.660	-0.278	-0.322
-300.778	510.791	-0.201	-0.465
-299.764	109.994	-0.125	-0.149
-298.749	-119.918	-0.224	0.038
-297.735	-200.000	-0.033	0.156
-296.720	800.000	0.035	0.115
-295.705	464.681	0.137	0.304
-294.691	-32.550	-0.150	-0.083
-293.676	-44.658	0.244	0.121
-292.662	13.352	-0.198	0.152
-291.647	-200.000	0.082	0.360
-290.632	-45.843	-0.194	0.095
-289.618	266.209	-0.031	-0.054
-288.603	-200.000	-0.012	0.230
-287.589	-26.709	0.283	-0.164
-286.574	199.741	0.124	0.189
-285.559	-34.780	-0.232	0.126
-284.545	-200.000	0.047	-0.510
-283.530	583.844	-0.013	0.032
-282.516	109.272	-0.162	-0.192
-281.501	17.523	-0.081	0.064
-280.486	247.248	0.141	0.236
-279.472	-200.000	0.023	0.235
-278.457	-200.000	0.044	-0.193
-277.443	206.129	0.250	-0.386
-276.428	-195.068	-0.165	-0.001
-275.413	-57.832	0.102	0.045
-274.399	242.592	-0.071	-0.118
-273.384	-136.362	-0.186	-0.022
-272.370	125.061	-0.131	-0.164
-271.355	800.000	0.085	0.241
-270.340	-129.476	0.080	-0.011
-269.326	683.358	0.004	-0.009
-268.311	-200.000	0.033	-0.207
-267.297	-200.000	-0.018	0.093
-266.282	252.402	0.218	-0.369
-265.267	31.695	-0.113	-0.097
-264.253	520.261	0.065	0.150
-263.238	-175.278	-0.250	-0.007
-262.224	-200.000	0.003	0.043
-261.209	800.000	0.128	-0.364
-260.195	800.000	0.076	0.214
-259.180	82.001	-0.247	0.265
-258.165	495.630	0.111	-0.254
-257.151	64.085	0.072	0.071
-256.136	449.230	-0.069	-0.150
-255.122	-192.745	0.326	-0.003
-254.107	391.466	0.075	0.154
-253.092	79.148	-0.030	-0.032
-252.078	-200.000	0.013	-0.249
-251.063	13.876	-0.092	-0.071
-250.049	44.021	-0.198	-0.180
-249.034	129.537	0.184	0.234
-248.019	20.238	-0.191	-0.153
-247.005	299.907	-0.109	-0.199
-245.990	-23.925	-0.188	-0.112
-244.976	44.305	0.028	0.025
-243.961	-116.452	0.406	0.074
-242.946	3.421	0.023	-0.017
-241.932	-200.000	-0.040	-0.231
-240.917	-106.900	0.080	0.018
-239.903	-107.104	0.257	0.056
-238.888	413.781	0.061	0.129
-237.873	800.000	0.137	0.404
-236.859	-200.000	-0.006	-0.093
-235.844	5.160	-0.093	-0.068
-234.830	-60.223	-0.317	-0.134
-233.815	-200.000	-0.127	-0.000
-232.800	166.797	-0.135	0.190
-231.786	121.019	-0.281	0.347
-230.771	-59.173	0.090	0.038
-229.757	-117.646	0.486	0.087
-228.742	-129.941	0.238	0.032
-227.727	-17.661	0.212	-0.132
-226.713	-200.000	-0.019	-0.172
-225.698	142.306	0.179	0.236
-224.684	104.315	-0.142	0.166
-223.669	68.477	-0.049	0.050
-222.655	-107.243	-0.290	0.063
-221.640	-78.296	0.404	0.138
-220.625	143.750	-0.136	0.180
-219.611	-117.804	0.082	-0.015
-218.596	683.012	-0.054	-0.139
-217.582	-104.193	-0.351	0.081
-216.567	51.436	-0.269	0.253
-215.552	800.000	0.079	0.319
-214.538	296.884	-0.227	-0.412
-213.523	800.000	0.062	0.213
-212.509	235.263	-0.128	0.210
-211.494	352.830	-0.089	-0.174
-210.479	-150.383	0.193	0.015
-209.465	685.810	-0.099	-0.257
-208.450	6.566	0.453	-0.334
-207.436	-157.984	0.446	0.026
-206.421	50.973	-0.242	0.227
-205.406	-29.807	0.170	0.096
-204.392	29.729	0.077	-0.065
-203.377	-200.000	0.056	0.443
-202.363	12.106	-0.267	0.204
-201.348	-200.000	0.005	0.086
-200.333	-128.210	0.073	-0.010
-199.319	316.882	0.159	-0.297
-198.304	247.069	-0.189	-0.316
-197.290	-117.960	-0.156	0.028
-196.275	-124.475	-0.148	0.023
-195.260	-46.905	0.167	-0.081
-194.246	-182.919	0.510	0.009
-193.231	221.018	0.044	-0.070
-192.217	-29.221	0.119	-0.068
-191.202	179.852	0.028	-0.041
-190.187	403.450	0.104	0.217
-189.173	229.574	0.253	-0.409
-188.158	78.039	-0.073	-0.078
-187.144	-140.255	-0.071	0.007
-186.129	735.861	-0.029	-0.078
-185.114	-143.300	0.330	0.031
-184.100	-104.819	0.230	-0.052
-183.085	-16.373	0.205	-0.129
-182.071	800.000	-0.097	0.270
-181.056	-200.000	-0.386	0.001
-180.042	179.779	-0.093	0.135
-179.027	185.336	0.146	-0.214
-178.012	314.268	-0.052	0.096
-176.998	-55.648	-0.097	0.043
-175.983	156.806	-0.102	0.140
-174.969	110.785	0.198	0.235
-173.954	637.479	0.151	-0.380
-172.939	800.000	0.157	0.454
-171.925	800.000	-0.083	0.302
-170.910	-142.754	-0.187	-0.018
-169.896	502.121	0.081	0.186
-168.881	-102.006	0.087	0.021
-167.866	208.538	0.036	0.056
-166.852	39.789	0.067	-0.059
-165.837	-21.354	-0.277	-0.167
-164.823	26.569	0.120	-0.099
-163.808	194.213	-0.117	-0.175
-162.793	-93.953	0.019	0.005
-161.779	123.974	-0.064	-0.079
-160.764	800.000	-0.068	0.221
-159.750	-84.108	0.147	-0.046
-158.735	-200.000	-0.012	0.119
-157.720	-160.750	-0.136	0.007
-156.706	-112.175	0.205	-0.041
-155.691	38.888	-0.092	-0.081
-154.677	-49.227	-0.237	-0.112
-153.662	-51.337	0.221	-0.102
-152.647	161.305	0.207	0.286
-151.633	294.078	-0.176	0.318
-150.618	-144.517	0.153	0.014
-149.604	252.871	0.039	0.066
-148.589	-75.933	0.452	0.158
-147.574	185.019	-0.213	0.312
-146.560	337.145	-0.138	0.264
-145.545	-38.929	0.265	-0.138
-144.531	92.971	-0.185	-0.206
-143.516	-200.000	-0.036	-0.179
-142.502	-155.795	0.274	-0.017
-141.487	-28.697	-0.148	0.084
-140.472	800.000	-0.058	0.189
-139.458	60.005	-0.271	-0.264
-138.443	161.707	0.078	-0.108
-137.429	-178.520	0.623	-0.014
-136.414	-97.676	0.033	0.009
-135.399	70.104	-0.117	-0.120
-134.385	6.105	0.313	0.229
-133.370	-200.000	0.010	0.059
-132.356	6.383	0.198	0.145
-131.341	800.000	-0.062	0.249
-130.326	378.099	-0.017	0.034
-129.312	-131.274	-0.221	-0.029
-128.297	-200.000	-0.090	0.476
-127.283	-33.778	0.283	0.154
-126.268	572.014	-0.093	-0.224
-125.253	-200.000	0.005	0.049
-124.239	26.435	0.291	-0.240
-123.224	-5.460	0.278	-0.188
-122.210	-200.000	0.004	-0.104
-121.195	800.000	-0.018	0.078
-120.180	60.421	-0.208	-0.203
-119.166	800.000	-0.072	-0.222
-118.151	4.230	0.284	-0.205
-117.137	109.832	0.113	0.134
-116.122	-200.000	0.048	0.413
-115.107	199.707	0.281	0.426
-114.093	25.117	0.081	-0.066
-113.078	-100.867	-0.150	-0.036
-112.064	180.433	0.146	-0.211
-111.049	-145.096	-0.360	0.032
-110.034	66.029	-0.166	0.166
-109.020	292.268	-0.125	-0.225
-108.005	7.749	-0.193	-0.142
-106.991	-136.792	-0.247	-0.028
-105.976	-111.788	0.335	-0.067
-104.962	226.989	0.177	-0.284
-103.947	-60.332	-0.286	0.120
-102.932	32.412	-0.229	0.195
-101.918	-172.228	0.264	-0.008
-100.903	-3.043	0.352	-0.242
-99.889	-200.000	-0.008	-0.298
-98.874	-5.743	-0.072	-0.049
-97.859	-134.835	-0.060	0.007
-96.845	-200.000	0.012	0.097
-95.830	151.665	-0.140	0.188
-94.816	-37.246	-0.162	0.085
-93.801	-33.984	0.118	0.064
-92.786	-25.655	-0.133	0.077
-91.772	-82.529	-0.105	0.034
-90.757	81.579	-0.066	-0.070
-89.743	-200.000	-0.020	0.209
-88.728	-113.366	-0.103	-0.020
-87.713	-200.000	0.058	-0.250
-86.699	78.861	0.184	-0.194
-85.684	-200.000	0.235	-0.001
-84.670	692.707	-0.036	-0.094
-83.655	104.730	-0.170	0.197
-82.640	-200.000	0.035	0.288
-81.626	442.204	0.173	0.373
-80.611	145.674	0.087	0.114
-79.597	800.000	-0.077	-0.230
-78.582	-97.381	0.449	0.115
-77.567	-200.000	-0.051	0.559
-76.553	-37.065	-0.138	0.073
-75.538	-22.643	-0.374	0.223
-74.524	63.967	0.275	-0.272
-73.509	-72.279	-0.218	-0.080
-72.494	-176.455	0.268	0.007
-71.480	222.160	0.080	0.127
-70.465	800.000	-0.109	-0.338
-69.451	-102.983	-0.144	0.034
-68.436	-200.000	-0.023	-0.119
-67.422	-25.993	0.394	0.229
-66.407	524.023	-0.110	-0.254
-65.392	80.306	-0.168	-0.178
-64.378	184.599	0.187	0.274
-63.363	-43.850	0.281	-0.139
-62.349	-48.963	-0.141	0.066
-61.334	102.220	-0.871	-1.002
-60.319	20.847	0.372	0.297
-59.305	-200.000	-0.001	-0.877
-58.290	532.577	0.532	1.240
-57.276	494.807	0.748	1.693
-56.261	-200.000	95.592	591.572
-55.246	543.037	1406.343	3304.068
-54.232	156.017	2584.046	3508.584
-53.217	112.141	2190.549	2607.256
-52.203	42.694	1725.361	1547.071
-51.188	34.878	1535.363	1322.850
-50.173	32.603	1508.113	1283.838
-49.159	52.293	1556.117	1461.318
-48.144	53.720	1572.913	1486.899
-47.130	35.220	1534.295	1324.085
-46.115	31.971	1520.439	1289.780
-45.100	31.846	1516.364	1285.417
-44.086	31.949	1514.160	1284.204
-43.071	31.746	1512.710	1281.536
-42.057	31.799	1511.037	1280.428
-41.042	31.808	1509.416	1279.064
-40.027	31.711	1508.056	1277.202
-39.013	31.729	1506.136	1275.646
-37.998	31.603	1505.615	1274.299
-36.984	31.790	1503.849	1274.023
-35.969	31.706	1502.631	1272.370
-34.954	31.763	1501.717	1271.931
-33.940	31.800	1499.793	1270.501
-32.925	31.743	1498.286	1268.788
-31.911	31.858	1496.781	1268.242
-30.896	31.790	1495.361	1266.530
-29.881	31.872	1494.099	1265.960
-28.867	31.812	1492.965	1264.545
-27.852	31.913	1491.181	1263.670
-26.838	31.845	1490.064	1262.212
-25.823	31.747	1488.651	1260.309
-24.809	31.811	1486.539	1258.898
-23.794	31.747	1485.480	1257.519
-22.779	31.799	1484.153	1256.699
-21.765	31.775	1483.209	1255.689
-20.750	31.702	1482.049	1254.163
-19.736	31.817	1480.875	1253.894
-18.721	31.717	1479.917	1252.365
-17.706	31.719	1478.887	1251.454
-16.692	31.735	1477.639	1250.459
-15.677	31.678	1476.750	1249.271
-14.663	31.625	1475.912	1248.160
-13.648	31.652	1474.548	1247.138
-12.633	31.629	1473.679	1246.201
-11.619	31.670	1473.137	1245.969
-10.604	31.706	1472.100	1245.278
-9.590	31.703	1470.957	1244.246
-8.575	31.795	1470.073	1244.056
-7.560	31.625	1469.265	1242.194
-6.546	31.669	1468.524	1241.810
-5.531	31.660	1467.705	1241.008
-4.517	31.538	1466.244	1238.918
-3.502	31.662	1465.441	1239.012
-2.487	31.645	1464.328	1237.907
-1.473	31.632	1463.381	1236.970
-0.458	31.719	1461.938	1236.280
0.556	30.491	1453.262	1227.213
1.571	28.163	1427.420	1190.162
2.586	24.997	1365.005	1118.294
3.600	23.074	1282.032	1038.938
4.615	21.433	1236.786	992.873
5.629	18.407	1179.603	930.474
6.644	9.274	1093.123	816.010
7.659	1.875	1050.508	747.928
8.673	0.627	1045.091	737.912
9.688	0.410	1042.112	734.685
10.702	0.335	1040.672	733.240
11.717	0.348	1038.514	731.717
12.731	3.125	1041.320	747.134
13.746	11.607	1053.227	797.133
14.761	17.539	1060.358	831.510
15.775	17.678	1059.054	831.090
16.790	16.738	1057.164	824.957
17.804	15.764	1055.132	818.561
18.819	14.943	1053.038	812.878
19.834	14.517	1051.483	809.535
20.848	14.142	1050.626	806.989
21.863	13.862	1050.313	805.318
22.877	13.639	1049.424	803.480
23.892	13.376	1048.043	801.081
24.907	13.383	1047.672	800.758
25.921	13.403	1047.010	800.280
26.936	13.440	1046.203	799.771
27.950	13.401	1045.263	798.792
28.965	13.511	1044.654	798.790
29.980	13.518	1043.752	798.062
30.994	13.616	1042.651	797.619
32.009	13.641	1042.256	797.368
33.023	13.704	1041.525	797.042
34.038	13.712	1040.482	796.212
35.053	13.689	1039.420	795.215
36.067	13.575	1038.760	794.094
37.082	13.444	1038.256	793.011
38.096	13.561	1037.410	792.858
39.111	13.601	1036.656	792.403
40.126	13.573	1035.907	791.623
41.140	13.558	1034.536	790.436
42.155	13.498	1033.608	789.369
43.169	13.319	1033.185	788.124
44.184	13.441	1031.684	787.493
45.199	13.292	1030.993	786.186
46.213	13.338	1029.788	785.416
47.228	13.387	1028.460	784.565
48.242	13.389	1027.509	783.779
49.257	13.400	1027.036	783.400
50.271	13.497	1026.052	783.041
51.286	13.434	1025.476	782.234
52.301	13.428	1024.278	781.225
53.315	13.354	1023.686	780.355
54.330	13.503	1022.731	780.259
55.344	13.443	1021.735	779.145
56.359	13.327	1021.041	778.003
57.374	13.352	1020.339	777.518
58.388	13.470	1019.201	777.135
59.403	13.438	1018.353	776.267
60.417	13.371	1017.894	775.538
61.432	13.456	1017.016	775.197
62.447	13.338	1016.732	774.360
63.461	13.489	1015.031	773.701
64.476	13.317	1014.358	772.315
65.490	13.228	1013.832	771.435
66.505	13.467	1012.459	771.433
67.520	13.274	1012.502	770.499
68.534	13.393	1011.399	770.147
69.549	13.401	1010.355	769.320
70.563	13.377	1009.990	768.862
71.578	13.391	1008.995	768.099
72.593	13.275	1008.376	767.026
73.607	13.210	1007.478	765.970
74.622	13.116	1006.635	764.829
75.636	13.275	1006.068	765.066
76.651	13.212	1004.709	763.673
77.666	13.329	1003.755	763.419
78.680	13.342	1003.057	762.880
79.695	13.235	1003.097	762.352
80.709	13.297	1002.435	762.067
81.724	13.304	1001.332	761.190
82.739	13.279	1000.443	760.334
83.753	13.372	1000.004	760.358
84.768	13.455	998.852	759.796
85.782	13.468	998.692	759.671
86.797	13.567	997.381	759.060
87.812	13.592	996.992	758.810
88.826	13.511	996.015	757.628
89.841	13.344	995.410	756.339
90.855	13.399	994.447	755.789
91.870	13.516	993.528	755.558
92.884	13.538	992.797	755.036
93.899	13.547	991.922	754.347
94.914	13.497	991.690	753.872
95.928	13.597	990.544	753.390
96.943	13.614	990.260	753.184
97.957	13.674	989.045	752.469
98.972	13.495	988.106	750.873
99.987	13.536	987.674	750.664
101.001	13.637	986.597	750.238
102.016	13.635	985.988	749.700
103.030	13.605	985.149	748.858
104.045	13.635	983.961	748.026
105.060	13.677	983.406	747.729
106.074	13.512	982.406	746.159
107.089	13.551	981.118	745.290
108.103	13.366	980.818	744.161
109.118	13.396	979.731	743.405
110.133	13.485	978.929	743.131
111.147	13.472	978.383	742.591
112.162	13.344	977.344	741.165
113.176	13.447	976.308	740.776
114.191	13.309	975.713	739.643
115.206	13.416	974.889	739.431
116.220	13.517	974.030	739.164
117.235	13.567	972.677	738.292
118.249	13.491	972.383	737.667
119.264	13.529	971.160	736.844
120.279	13.445	970.791	736.123
121.293	13.448	970.179	735.608
122.308	13.507	969.360	735.184
123.322	13.382	968.275	733.743
124.337	13.313	967.567	732.834
125.352	13.457	966.246	732.407
126.366	13.373	965.079	731.088
127.381	13.529	964.287	731.110
128.395	13.357	963.412	729.622
129.410	13.438	962.475	729.206
130.424	13.321	961.609	727.969
131.439	13.314	960.877	727.322
132.454	13.393	960.069	726.993
133.468	13.460	959.259	726.608
134.483	13.479	958.785	726.269
135.497	13.508	958.239	725.918
136.512	13.705	956.651	725.512
137.527	13.525	956.349	724.433
138.541	13.449	955.385	723.305
139.556	13.593	954.643	723.309
140.570	13.542	953.949	722.496
141.585	13.629	953.065	722.143
142.600	13.669	952.374	721.731
143.614	13.585	952.086	721.082
144.629	13.734	950.923	720.782
145.643	13.654	950.377	719.958
146.658	13.537	949.825	718.969
147.673	13.670	948.439	718.431
148.687	13.648	947.992	717.934
149.702	13.501	946.890	716.401
150.716	13.576	945.813	715.846
151.731	13.545	945.164	715.159
152.746	13.533	944.486	714.532
153.760	13.526	943.861	713.963
154.775	13.538	943.131	713.400
155.789	13.521	942.265	712.610
156.804	13.696	941.118	712.431
157.819	13.758	940.456	712.135
158.833	13.628	940.058	711.209
159.848	13.614	939.506	710.671
160.862	13.749	938.662	710.547
161.877	13.685	938.002	709.711
162.892	13.701	937.316	709.198
163.906	13.805	936.150	708.695
164.921	13.631	935.656	707.519
165.935	13.683	934.361	706.699
166.950	13.738	933.628	706.317
167.964	13.787	932.652	705.724
168.979	13.739	931.745	704.770
169.994	13.701	930.889	703.899
171.008	13.695	929.921	703.079
172.023	13.681	929.208	702.420
173.037	13.745	928.189	701.856
174.052	13.810	927.547	701.585
175.067	13.859	926.606	701.017
176.081	13.796	926.111	700.316
177.096	13.700	925.082	699.071
178.110	13.727	924.850	698.947
179.125	13.839	924.062	698.761
180.140	13.737	922.995	697.464
181.154	13.755	922.369	697.003
182.169	13.667	921.921	696.235
183.183	13.784	921.220	696.134
184.198	13.969	920.215	696.087
185.213	14.025	919.257	695.536
186.227	13.949	919.080	695.025
187.242	13.958	918.518	694.573
188.256	13.965	917.990	694.142
189.271	13.988	917.280	693.641
190.286	14.065	915.995	692.929
191.300	13.929	915.281	691.760
192.315	13.921	914.764	691.276
193.329	13.919	914.093	690.700
194.344	13.857	913.135	689.656
195.359	13.963	912.729	689.731
196.373	13.882	912.618	689.249
197.388	14.065	911.454	689.066
198.402	14.045	911.369	688.858
199.417	14.137	910.547	688.556
200.432	14.165	910.392	688.495
201.446	14.239	909.931	688.392
202.461	14.290	909.500	688.214
203.475	14.111	909.446	687.374
204.490	14.241	908.560	687.178
205.504	14.244	907.180	686.086
206.519	14.243	906.652	685.624
207.534	14.284	905.979	685.221
208.548	14.198	905.533	684.470
209.563	14.239	904.759	683.991
210.577	14.226	903.937	683.258
211.592	14.255	903.139	682.713
212.607	14.349	902.679	682.692
213.621	14.325	902.319	682.258
214.636	14.372	901.392	681.689
215.650	14.310	900.758	680.896
216.665	14.283	900.642	680.638
217.680	14.361	899.987	680.403
218.694	14.413	899.365	680.086
219.709	14.481	898.806	679.877
220.723	14.503	898.251	679.490
221.738	14.449	897.589	678.706
222.753	14.492	896.645	678.108
223.767	14.378	896.231	677.274
224.782	14.544	895.233	677.133
225.796	14.440	894.853	676.364
226.811	14.401	894.136	675.602
227.826	14.530	893.382	675.494
228.840	14.554	892.693	675.011
229.855	14.536	892.158	674.474
230.869	14.550	891.447	673.934
231.884	14.566	890.480	673.207
232.899	14.509	889.980	672.541
233.913	14.498	889.230	671.871
234.928	14.422	888.645	671.063
235.942	14.455	887.989	670.641
236.957	14.519	886.753	669.905
237.972	14.536	886.386	669.636
238.986	14.526	885.830	669.115
240.001	14.714	885.151	669.298
241.015	14.517	884.787	668.175
242.030	14.543	884.007	667.629
243.045	14.629	883.206	667.312
244.059	14.732	882.464	667.104
245.074	14.662	881.858	666.306
246.088	14.700	881.179	665.886
247.103	14.743	880.705	665.642
248.117	14.702	880.515	665.275
249.132	14.693	880.084	664.852
250.147	14.937	879.159	665.065
251.161	14.963	878.151	664.349
252.176	14.919	878.020	664.016
253.190	14.943	877.428	663.604
254.205	15.051	876.465	663.245
255.220	15.008	876.039	662.694
256.234	15.156	875.013	662.443
257.249	15.136	874.441	661.876
258.263	15.040	874.072	661.158
259.278	15.096	873.826	661.135
260.293	15.121	873.153	660.663
261.307	15.201	872.335	660.301
262.322	15.153	872.083	659.864
263.336	15.139	871.480	659.293
264.351	15.226	870.878	659.123
265.366	15.287	870.354	658.907
266.380	15.302	869.477	658.243
267.395	15.265	868.886	657.595
268.409	15.282	867.988	656.921
269.424	15.437	867.090	656.791
270.439	15.229	866.757	655.669
271.453	15.206	866.164	655.071
272.468	15.325	865.093	654.669
273.482	15.233	864.727	653.971
274.497	15.258	864.125	653.558
275.512	15.231	863.495	652.917
276.526	15.226	862.625	652.182
277.541	15.342	861.819	651.966
278.555	15.373	861.214	651.572
279.570	15.278	861.006	650.989
280.585	15.372	860.407	650.841
281.599	15.452	859.889	650.701
282.614	15.535	858.879	650.205
283.628	15.330	858.578	649.123
284.643	15.555	857.795	649.346
285.657	15.432	857.259	648.407
286.672	15.577	856.716	648.498
287.687	15.484	856.339	647.798
288.701	15.518	855.729	647.406
289.716	15.480	855.365	646.929
290.730	15.543	854.853	646.727
291.745	15.436	854.542	646.025
292.760	15.465	853.399	645.212
293.774	15.560	853.139	645.324
294.789	15.835	852.258	645.658
295.803	15.759	851.676	644.868
296.818	15.713	851.072	644.175
297.833	15.580	850.807	643.409
298.847	15.740	849.389	642.890
299.862	15.549	849.352	642.077
300.876	15.686	848.553	641.939
301.891	15.653	848.035	641.363
302.906	15.590	847.336	640.540
303.920	15.802	846.446	640.616
304.935	15.754	846.203	640.193
305.949	15.801	845.531	639.808
306.964	15.887	844.603	639.375
307.979	15.781	844.017	638.472
308.993	15.900	843.766	638.676
310.008	15.860	842.968	637.866
311.022	15.977	842.568	637.951
312.037	15.998	841.943	637.500
313.052	15.921	841.755	637.008
314.066	15.930	841.001	636.417
315.081	15.943	840.389	635.945
316.095	15.842	840.147	635.327
317.110	15.923	839.264	634.908
318.125	16.079	838.758	635.056
319.139	16.048	838.021	634.324
320.154	15.964	837.511	633.566
321.168	15.981	837.269	633.390
322.183	15.953	836.817	632.889
323.197	15.972	836.335	632.538
324.212	15.859	835.709	631.584
325.227	15.937	835.251	631.474
326.241	16.104	834.148	631.212
327.256	15.975	834.020	630.577
328.270	15.998	833.594	630.284
329.285	15.942	832.818	629.430
330.300	15.991	831.960	628.910
331.314	15.960	831.596	628.464
332.329	16.052	830.882	628.213
333.343	16.045	830.325	627.709
334.358	16.089	829.760	627.391
335.373	16.018	829.246	626.682
336.387	16.178	828.785	626.873
337.402	16.172	828.269	626.403
338.416	16.290	827.223	625.995
339.431	16.204	827.022	625.471
340.446	16.405	826.789	625.984
341.460	16.299	826.353	625.204
342.475	16.478	825.253	624.980
343.489	16.562	824.800	624.891
344.504	16.345	824.195	623.577
345.519	16.541	823.811	623.952
346.533	16.520	823.294	623.430
347.548	16.456	822.976	622.899
348.562	16.386	822.467	622.201
349.577	16.493	821.899	622.108
350.592	16.285	821.275	620.816
351.606	16.254	820.946	620.401
352.621	16.232	820.854	620.194
353.635	16.355	819.703	619.719
354.650	16.441	819.432	619.776
355.665	16.446	819.283	619.628
356.679	16.376	818.941	619.055
357.694	16.459	818.470	618.951
358.708	16.593	817.570	618.704
359.723	16.484	817.348	618.083
360.738	16.504	816.403	617.388
361.752	16.630	815.980	617.474
362.767	16.630	815.765	617.254
363.781	16.509	815.517	616.573
364.796	16.598	815.121	616.542
365.810	16.772	814.176	616.405
366.825	16.781	813.581	615.933
367.840	16.828	813.386	615.903
368.854	16.905	813.173	615.967
369.869	16.654	812.647	614.604
370.883	16.721	811.971	614.280
371.898	16.932	811.166	614.381
372.913	16.839	811.027	613.886
373.927	16.855	810.538	613.517
374.942	16.817	809.909	612.850
375.956	16.872	809.325	612.553
376.971	16.921	808.383	611.962
377.986	17.044	807.855	611.952
379.000	16.980	807.868	611.677
380.015	17.063	807.173	611.395
381.029	17.141	806.737	611.292
382.044	16.918	806.245	610.064
383.059	17.005	805.461	609.729
384.073	17.041	804.806	609.310
385.088	17.186	804.544	609.575
386.102	17.049	804.015	608.631
387.117	16.961	803.382	607.781
388.132	17.077	802.990	607.846
389.146	16.929	802.632	606.992
390.161	17.174	801.933	607.287
391.175	16.970	801.846	606.437
392.190	17.071	801.461	606.452
393.205	17.092	801.041	606.156
394.219	17.195	800.671	606.189
395.234	17.145	799.946	605.409
396.248	17.158	799.427	605.011
397.263	17.148	798.800	604.447
398.278	17.068	798.593	603.951
399.292	17.030	798.000	603.313
400.307	17.106	797.617	603.243
401.321	17.273	797.175	603.448
402.336	17.068	796.512	602.162
403.350	17.259	795.997	602.399
404.365	17.285	795.722	602.228
405.380	17.321	795.272	601.962
406.394	17.352	795.113	601.897
407.409	17.243	794.779	601.206
408.423	17.402	794.524	601.522
409.438	17.336	793.885	600.754
410.453	17.368	793.296	600.367
411.467	17.525	792.621	600.357
412.482	17.414	792.311	599.679
413.496	17.534	791.625	599.529
414.511	17.503	791.828	599.519
415.526	17.473	791.348	598.996
416.540	17.612	790.541	598.823
417.555	17.556	790.136	598.264
418.569	17.616	789.577	598.001
419.584	17.625	789.322	597.784
420.599	17.604	788.653	597.151
421.613	108.205	1286.071	1460.550
422.628	92.839	1358.516	1460.670
