DTS Sentinel unit serial number:	SN413079Multiplexer serial number:	ORYXHardware model number:	OX4-SRSoftware version number:	ORYX F/W v4.00 Oryx Data Collector v3.7.2.0data status	okinstallation	princeton_trtdifferential loss correction	single-endedforward channel	channel 3reverse channel	N/Adate	2019/09/12time	13:22:11forward acquisition time	60.00reverse acquisition time	0.00gamma	496.2192k internal	0.2292k external	0.2292temperature offset calibration	1.0044default loss term (dB/km)	0.3790temperature slope calibration	1.0000multiplexer offset coefficient	1.0000multiplexer slope coefficient	1.0000fibre end	0.00T internal ref (°C)	41.06T ext. ref 1 (°C)	2.13T ext. ref 2 (°C)	37.84length (m)	temperature (°C)	Stokes	anti-Stokes-747.200	-101.587	-0.157	-0.039
-746.185	118.339	0.103	-0.129
-745.171	164.706	-0.237	-0.342
-744.156	3.839	-0.060	0.045
-743.142	48.487	0.032	-0.030
-742.127	369.967	0.061	0.127
-741.112	-145.489	0.344	0.032
-740.098	800.000	-0.023	0.090
-739.083	-200.000	-0.000	0.027
-738.069	-8.857	0.203	0.139
-737.054	5.635	0.170	-0.128
-736.039	-92.068	-0.300	-0.087
-735.025	2.830	0.224	-0.166
-734.010	276.828	0.094	0.171
-732.996	800.000	0.035	-0.115
-731.981	78.658	-0.113	0.123
-730.966	512.645	-0.020	-0.049
-729.952	-14.396	-0.143	-0.094
-728.937	800.000	0.066	-0.244
-727.923	149.343	-0.249	0.345
-726.908	-200.000	-0.011	-0.316
-725.894	47.382	-0.213	-0.203
-724.879	-109.586	0.063	0.014
-723.864	-104.731	0.160	0.038
-722.850	219.349	0.137	0.224
-721.835	-100.076	-0.325	0.083
-720.821	-200.000	0.048	-0.352
-719.806	-75.006	-0.215	-0.079
-718.791	137.008	-0.214	-0.286
-717.777	89.900	0.163	0.186
-716.762	313.592	0.128	-0.246
-715.748	-200.000	-0.036	-0.162
-714.733	170.667	0.116	0.169
-713.718	-19.876	0.134	-0.085
-712.704	47.310	-0.040	-0.038
-711.689	-66.780	0.399	-0.162
-710.675	-104.632	-0.326	0.077
-709.660	-25.642	-0.379	0.229
-708.645	-200.000	-0.096	-0.464
-707.631	113.578	-0.213	-0.265
-706.616	800.000	0.113	-0.325
-705.602	29.864	-0.024	-0.021
-704.587	183.854	-0.192	-0.290
-703.572	83.376	0.259	-0.288
-702.558	-102.963	0.191	-0.046
-701.543	261.274	-0.086	-0.152
-700.529	288.552	0.099	0.184
-699.514	-105.245	0.302	-0.070
-698.499	-200.000	-0.006	0.178
-697.485	-200.000	0.006	-0.169
-696.470	-101.372	-0.273	-0.068
-695.456	123.496	-0.034	-0.044
-694.441	-132.998	0.395	0.051
-693.426	-45.929	-0.061	-0.031
-692.412	126.501	-0.240	0.310
-691.397	-31.001	-0.282	-0.163
-690.383	415.613	-0.059	-0.129
-689.368	475.206	-0.158	0.365
-688.354	-78.682	0.238	-0.083
-687.339	-200.000	-0.049	-0.246
-686.324	503.881	-0.135	-0.319
-685.310	-112.428	-0.077	0.016
-684.295	-88.171	-0.368	-0.113
-683.281	-101.735	-0.142	0.035
-682.266	-89.825	0.205	0.061
-681.251	-63.024	-0.127	0.054
-680.237	800.000	-0.194	0.563
-679.222	730.283	0.010	0.028
-678.208	110.436	0.056	-0.068
-677.193	77.159	-0.156	0.169
-676.178	-66.566	-0.166	-0.067
-675.164	-200.000	-0.031	-0.225
-674.149	87.659	-0.167	-0.189
-673.135	-79.538	-0.217	0.075
-672.120	147.849	0.070	-0.096
-671.105	428.168	0.132	-0.291
-670.091	123.845	-0.088	0.113
-669.076	-3.919	0.216	-0.153
-668.062	-200.000	0.006	0.094
-667.047	156.588	-0.139	-0.196
-666.032	172.415	-0.187	-0.274
-665.018	-31.031	0.298	0.171
-664.003	-129.270	-0.338	0.048
-662.989	-21.973	-0.051	-0.032
-661.974	82.511	0.081	0.090
-660.959	-0.896	-0.142	-0.102
-659.945	-128.822	-0.199	0.029
-658.930	-103.442	0.020	-0.005
-657.916	-200.000	0.004	-0.130
-656.901	197.041	-0.067	-0.104
-655.886	13.142	0.141	-0.111
-654.872	-94.520	0.247	-0.069
-653.857	800.000	0.014	-0.041
-652.843	0.730	-0.214	0.156
-651.828	800.000	-0.016	0.063
-650.814	-113.895	-0.166	0.033
-649.799	-82.715	-0.227	-0.075
-648.784	-0.304	0.133	0.097
-647.770	134.047	-0.059	-0.078
-646.755	-200.000	0.002	-0.150
-645.741	-151.138	-0.340	0.026
-644.726	800.000	-0.017	-0.052
-643.711	-50.972	-0.185	-0.089
-642.697	48.462	-0.143	-0.136
-641.682	-200.000	0.008	0.036
-640.668	800.000	-0.020	0.082
-639.653	43.213	-0.176	0.164
-638.638	-128.539	-0.115	-0.017
-637.624	-155.431	-0.281	-0.019
-636.609	-200.000	0.024	0.232
-635.595	-165.918	0.317	0.014
-634.580	-23.458	0.392	-0.240
-633.565	16.995	0.264	0.213
-632.551	-200.000	-0.024	-0.183
-631.536	321.388	-0.285	0.553
-630.522	-200.000	0.020	0.353
-629.507	-200.000	-0.045	-0.320
-628.492	-166.318	0.312	0.013
-627.478	94.212	-0.177	0.205
-626.463	56.672	0.138	0.137
-625.449	-155.814	-0.140	0.009
-624.434	-79.735	0.245	-0.084
-623.419	-16.326	-0.176	0.114
-622.405	-61.972	0.044	0.019
-621.390	221.353	-0.229	-0.376
-620.376	-50.221	-0.315	-0.152
-619.361	46.283	0.118	0.111
-618.346	550.798	-0.097	0.237
-617.332	46.151	-0.125	-0.118
-616.317	200.904	0.115	0.180
-615.303	-124.393	-0.324	-0.051
-614.288	109.905	0.085	-0.104
-613.273	-191.495	0.235	0.002
-612.259	-57.787	0.133	-0.059
-611.244	-200.000	-0.020	-0.398
-610.230	23.032	-0.096	-0.080
-609.215	-17.320	-0.062	-0.040
-608.201	-200.000	-0.016	-0.129
-607.186	378.006	0.245	-0.511
-606.171	49.063	0.130	-0.125
-605.157	-156.362	0.107	-0.007
-604.142	-122.542	-0.233	0.038
-603.128	766.773	-0.014	0.038
-602.113	460.834	-0.152	0.345
-601.098	106.586	0.115	-0.139
-600.084	-200.000	-0.003	-0.141
-599.069	161.909	0.111	-0.158
-598.055	131.862	0.257	-0.337
-597.040	-27.061	0.126	-0.075
-596.025	24.561	0.246	-0.207
-595.011	-54.070	0.219	-0.101
-593.996	378.989	0.038	-0.080
-592.982	91.441	0.190	0.218
-591.967	-200.000	0.002	-0.140
-590.952	-51.190	-0.313	0.149
-589.938	306.632	-0.115	0.217
-588.923	454.602	0.071	-0.160
-587.909	-58.887	0.138	-0.061
-586.894	140.577	0.045	-0.061
-585.879	-200.000	-0.014	-0.140
-584.865	173.681	0.140	0.206
-583.850	52.778	0.058	0.056
-582.836	264.327	0.028	0.049
-581.821	-46.025	0.016	-0.008
-580.806	434.598	0.103	-0.228
-579.792	-200.000	-0.009	-0.144
-578.777	156.839	0.073	-0.103
-577.763	-107.881	0.019	0.004
-576.748	-52.506	-0.201	0.095
-575.733	181.441	0.060	0.090
-574.719	296.254	0.095	-0.177
-573.704	-42.839	0.144	-0.074
-572.690	-71.996	-0.204	0.077
-571.675	94.243	0.155	0.179
-570.661	800.000	0.026	0.100
-569.646	-40.269	0.262	-0.139
-568.631	-200.000	-0.032	-0.141
-567.617	800.000	-0.005	0.020
-566.602	355.796	0.030	-0.060
-565.588	247.892	-0.090	-0.154
-564.573	800.000	0.032	-0.125
-563.558	-200.000	-0.009	-0.214
-562.544	-18.187	-0.073	0.046
-561.529	-24.107	0.216	0.131
-560.515	150.969	-0.169	-0.233
-559.500	800.000	-0.062	-0.246
-558.485	-159.412	-0.401	0.023
-557.471	-108.946	0.240	0.052
-556.456	-74.536	-0.070	0.026
-555.442	-104.988	0.362	-0.084
-554.427	800.000	-0.068	0.192
-553.412	-200.000	0.060	-0.271
-552.398	-14.495	0.155	-0.101
-551.383	-200.000	0.009	0.093
-550.369	-50.091	-0.103	-0.049
-549.354	487.439	-0.045	-0.105
-548.339	140.490	-0.129	-0.173
-547.325	79.462	0.219	0.239
-546.310	-114.189	-0.128	0.025
-545.296	12.264	-0.111	0.087
-544.281	26.252	-0.149	0.126
-543.266	64.320	0.011	-0.011
-542.252	17.056	0.179	-0.144
-541.237	15.967	-0.187	-0.150
-540.223	-24.057	0.129	-0.078
-539.208	-77.106	-0.519	0.184
-538.193	-171.354	-0.132	0.004
-537.179	-200.000	-0.083	0.533
-536.164	299.704	-0.092	-0.173
-535.150	-161.660	0.247	0.013
-534.135	-112.293	-0.245	0.050
-533.121	24.859	0.066	0.056
-532.106	-200.000	0.002	-0.062
-531.091	-35.669	0.158	0.087
-530.077	-40.854	-0.132	0.069
-529.062	161.964	-0.013	-0.018
-528.048	-10.153	-0.076	-0.051
-527.033	340.583	-0.037	0.073
-526.018	624.426	-0.171	0.438
-525.004	-17.212	-0.092	-0.059
-523.989	681.699	-0.073	-0.193
-522.975	-31.706	-0.093	0.053
-521.960	-43.873	0.070	0.035
-520.945	-200.000	0.032	0.242
-519.931	800.000	-0.027	-0.108
-518.916	800.000	0.032	0.121
-517.902	-73.296	-0.173	-0.064
-516.887	185.644	-0.189	0.285
-515.872	312.666	0.092	-0.175
-514.858	800.000	-0.031	-0.116
-513.843	-161.192	-0.336	-0.018
-512.829	91.138	0.064	-0.073
-511.814	44.861	0.268	-0.250
-510.799	372.756	-0.115	-0.237
-509.785	800.000	0.056	-0.173
-508.770	389.894	-0.146	-0.306
-507.756	65.772	-0.095	0.097
-506.741	800.000	0.009	0.033
-505.726	-160.451	-0.279	0.015
-504.712	-33.059	0.175	0.099
-503.697	-169.481	-0.145	0.005
-502.683	-27.078	-0.212	0.126
-501.668	-95.140	-0.132	-0.036
-500.653	-138.374	0.331	0.037
-499.639	-35.705	0.057	0.031
-498.624	800.000	0.060	-0.210
-497.610	-77.627	-0.069	-0.024
-496.595	-200.000	0.026	-0.258
-495.581	6.314	0.193	0.145
-494.566	272.264	0.042	0.075
-493.551	800.000	0.068	0.207
-492.537	-95.921	0.100	0.027
-491.522	-51.781	-0.204	-0.096
-490.508	-200.000	0.028	0.379
-489.493	-200.000	-0.034	0.288
-488.478	-200.000	-0.081	-0.433
-487.464	397.175	-0.225	-0.476
-486.449	53.925	-0.072	0.070
-485.435	800.000	-0.157	0.449
-484.420	-200.000	-0.007	-0.047
-483.405	-112.634	-0.229	-0.046
-482.391	-200.000	0.027	-0.269
-481.376	-46.318	0.305	0.152
-480.362	178.949	0.156	0.231
-479.347	146.498	-0.072	0.098
-478.332	176.094	-0.202	0.297
-477.318	-200.000	-0.025	-0.151
-476.303	-137.778	0.220	-0.025
-475.289	800.000	0.023	0.091
-474.274	143.459	0.148	-0.199
-473.259	51.436	-0.079	0.076
-472.245	800.000	0.037	-0.106
-471.230	-168.117	-0.293	-0.012
-470.216	-30.246	0.095	-0.055
-469.201	-27.849	0.189	0.111
-468.186	28.947	-0.138	-0.118
-467.172	35.450	0.016	-0.014
-466.157	323.994	0.098	-0.189
-465.143	-46.530	0.112	-0.056
-464.128	415.461	0.085	-0.184
-463.113	-101.654	0.307	0.075
-462.099	146.057	0.242	0.328
-461.084	-200.000	0.004	-0.096
-460.070	193.162	-0.159	-0.244
-459.055	-83.040	0.095	0.031
-458.040	-103.604	0.378	-0.090
-457.026	-92.937	-0.176	0.050
-456.011	800.000	-0.057	0.220
-454.997	112.533	-0.058	-0.071
-453.982	-200.000	0.011	-0.075
-452.968	-200.000	0.035	0.159
-451.953	-200.000	-0.005	-0.405
-450.938	-200.000	-0.007	-0.313
-449.924	-124.603	-0.172	0.027
-448.909	43.443	-0.309	0.285
-447.895	-200.000	-0.055	0.270
-446.880	-200.000	0.023	0.163
-445.865	-96.631	-0.142	0.038
-444.851	-10.772	0.081	0.054
-443.836	-153.612	-0.467	-0.033
-442.822	155.732	0.088	0.123
-441.807	-172.254	0.377	0.012
-440.792	428.259	-0.028	0.060
-439.778	24.681	0.214	0.179
-438.763	708.750	0.052	0.140
-437.749	-164.336	-0.313	-0.014
-436.734	71.626	-0.240	-0.253
-435.719	263.793	0.073	0.128
-434.705	-183.282	0.241	-0.004
-433.690	-200.000	-0.054	0.423
-432.676	-92.733	-0.210	0.059
-431.661	-98.024	-0.254	0.066
-430.646	229.524	-0.291	-0.480
-429.632	238.395	-0.132	-0.222
-428.617	-170.770	-0.035	0.001
-427.603	35.956	0.145	0.129
-426.588	-66.244	-0.094	0.038
-425.573	-83.735	0.216	0.070
-424.559	274.340	0.152	-0.273
-423.544	-200.000	0.019	0.224
-422.530	-172.698	0.343	0.011
-421.515	-67.369	0.126	-0.050
-420.500	-200.000	0.002	-0.088
-419.486	21.019	0.115	0.094
-418.471	396.509	0.045	-0.095
-417.457	-13.208	0.232	0.152
-416.442	31.252	0.107	-0.093
-415.428	-200.000	-0.014	-0.254
-414.413	-121.498	0.387	0.065
-413.398	-131.498	-0.233	-0.031
-412.384	-92.941	-0.083	0.023
-411.369	800.000	-0.059	-0.217
-410.355	-81.136	0.083	0.028
-409.340	-89.697	-0.447	0.132
-408.325	77.803	-0.203	0.219
-407.311	-86.321	0.198	0.062
-406.296	-95.683	0.054	0.015
-405.282	102.030	-0.110	-0.129
-404.267	-200.000	0.017	0.206
-403.252	35.518	-0.408	-0.362
-402.238	-130.486	0.105	-0.014
-401.223	570.288	-0.153	0.377
-400.209	-200.000	-0.039	0.245
-399.194	612.539	0.012	0.032
-398.179	-94.081	-0.280	0.077
-397.165	-65.881	-0.240	0.097
-396.150	22.379	0.159	-0.131
-395.136	-46.575	0.178	-0.088
-394.121	224.374	-0.169	-0.276
-393.106	-103.507	0.266	-0.063
-392.092	-2.647	0.216	-0.153
-391.077	-75.259	0.320	-0.115
-390.063	-23.319	-0.092	0.056
-389.048	-200.000	0.058	0.319
-388.033	-37.117	0.362	0.195
-387.019	-134.303	0.027	0.003
-386.004	-107.306	-0.056	0.012
-384.990	-50.346	-0.224	-0.107
-383.975	89.321	0.139	-0.157
-382.960	-90.899	0.072	0.021
-381.946	521.581	-0.217	-0.513
-380.931	-33.341	0.057	0.032
-379.917	154.981	-0.036	0.050
-378.902	4.276	0.174	-0.128
-377.888	-200.000	0.001	-0.009
-376.873	65.139	-0.153	0.156
-375.858	-61.042	-0.154	0.065
-374.844	45.288	-0.031	0.029
-373.829	-123.574	0.123	0.020
-372.815	129.932	0.099	-0.128
-371.800	-141.852	-0.199	0.020
-370.785	-78.003	-0.277	0.096
-369.771	-22.975	-0.363	0.221
-368.756	-105.432	-0.178	-0.041
-367.742	-145.776	0.342	0.031
-366.727	42.599	-0.129	-0.119
-365.712	800.000	0.086	0.284
-364.698	-142.645	-0.137	0.014
-363.683	58.035	-0.268	0.265
-362.669	56.721	0.092	-0.091
-361.654	-13.997	-0.094	0.061
-360.639	-55.082	0.175	0.079
-359.625	-143.482	-0.274	-0.026
-358.610	-165.691	0.243	0.011
-357.596	164.889	-0.107	-0.152
-356.581	271.394	0.099	-0.176
-355.566	-200.000	-0.004	0.356
-354.552	-119.179	-0.236	-0.042
-353.537	-22.042	0.245	-0.150
-352.523	10.937	-0.230	0.177
-351.508	-73.947	-0.169	0.062
-350.493	149.403	0.248	-0.338
-349.479	369.545	-0.045	0.091
-348.464	-75.001	0.256	0.092
-347.450	-40.384	-0.336	-0.176
-346.435	-200.000	-0.022	0.144
-345.420	-200.000	0.013	0.144
-344.406	-200.000	0.004	-0.159
-343.391	-27.315	0.119	-0.070
-342.377	-57.990	-0.091	0.040
-341.362	-200.000	-0.065	-0.312
-340.348	-12.147	0.070	-0.046
-339.333	-200.000	0.002	-0.025
-338.318	265.234	-0.073	0.128
-337.304	210.377	0.167	0.265
-336.289	800.000	-0.005	0.022
-335.275	-63.711	0.243	-0.100
-334.260	142.792	-0.146	-0.195
-333.245	-130.463	-0.329	0.045
-332.231	294.994	0.177	-0.326
-331.216	-41.132	-0.265	-0.138
-330.202	-96.568	0.337	0.090
-329.187	-200.000	-0.051	0.272
-328.172	-200.000	-0.012	0.259
-327.158	97.253	0.082	-0.095
-326.143	-200.000	-0.023	0.260
-325.129	595.227	0.100	0.249
-324.114	334.191	-0.138	-0.268
-323.099	394.245	0.155	0.326
-322.085	76.793	-0.213	0.228
-321.070	99.556	-0.160	-0.187
-320.056	800.000	-0.093	0.294
-319.041	-110.935	0.402	-0.083
-318.026	-125.433	0.150	0.023
-317.012	25.459	0.113	0.095
-315.997	173.481	0.049	0.071
-314.983	71.170	0.202	0.211
-313.968	-21.569	0.169	-0.104
-312.953	379.654	0.132	0.271
-311.939	306.891	0.133	0.250
-310.924	-200.000	-0.047	0.274
-309.910	33.003	-0.129	0.113
-308.895	-79.879	0.156	-0.053
-307.880	48.516	-0.237	-0.223
-306.866	-177.512	0.222	-0.005
-305.851	-200.000	0.019	-0.226
-304.837	-2.874	0.194	0.136
-303.822	-118.354	0.107	-0.019
-302.807	9.598	0.113	-0.086
-301.793	253.011	-0.093	0.160
-300.778	-39.859	-0.424	-0.223
-299.764	-163.938	0.162	0.008
-298.749	-33.768	-0.178	-0.099
-297.735	610.635	-0.089	0.224
-296.720	-121.181	0.137	-0.023
-295.705	-200.000	-0.023	-0.372
-294.691	-200.000	0.095	0.437
-293.676	176.947	-0.075	0.110
-292.662	460.679	0.151	-0.339
-291.647	-162.509	-0.276	0.014
-290.632	15.886	-0.224	0.178
-289.618	6.031	0.107	-0.079
-288.603	-79.206	0.075	-0.026
-287.589	386.204	-0.042	0.087
-286.574	-30.497	0.113	0.065
-285.559	-102.459	0.286	0.069
-284.545	800.000	0.030	0.116
-283.530	55.689	-0.130	0.126
-282.516	-23.171	0.038	0.023
-281.501	-3.298	0.222	-0.155
-280.486	-200.000	0.009	-0.286
-279.472	-161.727	0.351	0.018
-278.457	451.011	0.041	-0.091
-277.443	-67.964	0.129	-0.051
-276.428	800.000	-0.094	0.289
-275.413	455.841	0.135	-0.301
-274.399	-75.459	0.099	0.035
-273.384	800.000	0.035	0.125
-272.370	19.580	0.100	0.081
-271.355	48.804	-0.056	0.053
-270.340	-200.000	-0.010	-0.081
-269.326	13.484	0.088	-0.069
-268.311	-167.047	0.218	0.009
-267.297	675.506	-0.089	0.233
-266.282	170.440	0.066	0.095
-265.267	-200.000	-0.034	-0.207
-264.253	-173.200	0.308	-0.009
-263.238	-54.308	0.232	-0.106
-262.224	-105.191	-0.483	0.111
-261.209	-200.000	-0.007	0.163
-260.195	-78.376	-0.250	0.086
-259.180	-157.401	-0.239	0.014
-258.165	-199.069	0.131	-0.001
-257.151	278.671	0.131	-0.235
-256.136	-200.000	-0.005	-0.044
-255.122	78.231	-0.143	0.153
-254.107	-96.422	0.090	0.024
-253.092	214.141	-0.068	-0.108
-252.078	69.212	0.119	-0.123
-251.063	381.989	-0.091	-0.189
-250.049	-54.721	0.164	0.074
-249.034	-102.077	0.176	-0.043
-248.019	20.827	-0.236	0.192
-247.005	-42.975	-0.223	-0.114
-245.990	123.882	-0.038	-0.048
-244.976	800.000	-0.040	-0.173
-243.961	261.534	0.282	-0.491
-242.946	23.985	0.156	-0.129
-241.932	45.711	0.309	-0.287
-240.917	176.576	-0.161	0.236
-239.903	-98.872	0.114	-0.029
-238.888	-175.314	-0.120	0.003
-237.873	800.000	0.136	0.499
-236.859	239.937	0.137	-0.228
-235.844	800.000	-0.121	-0.341
-234.830	-200.000	0.012	-0.060
-233.815	56.189	0.048	0.047
-232.800	-200.000	0.023	-0.104
-231.786	16.649	-0.106	0.084
-230.771	457.449	-0.141	-0.315
-229.757	-200.000	0.060	-0.307
-228.742	232.579	-0.144	0.237
-227.727	-200.000	-0.008	-0.323
-226.713	-153.058	-0.454	-0.032
-225.698	-197.084	0.281	0.002
-224.684	-8.940	0.198	0.133
-223.669	-177.028	0.476	-0.012
-222.655	61.994	-0.215	-0.215
-221.640	32.692	0.225	0.196
-220.625	-127.596	0.049	-0.007
-219.611	-200.000	-0.004	0.100
-218.596	-37.944	0.089	0.048
-217.582	-200.000	-0.009	-0.209
-216.567	57.884	-0.034	-0.034
-215.552	-157.551	0.406	0.024
-214.538	800.000	-0.042	-0.117
-213.523	-76.835	-0.164	-0.058
-212.509	214.055	-0.097	0.153
-211.494	-168.735	-0.173	0.007
-210.479	198.869	-0.077	0.119
-209.465	726.997	0.061	0.163
-208.450	-200.000	0.169	-0.000
-207.436	257.148	0.020	-0.034
-206.421	101.579	-0.123	0.144
-205.406	-95.475	0.382	0.103
-204.392	4.525	0.148	-0.109
-203.377	133.309	0.081	-0.104
-202.363	-25.904	-0.089	-0.053
-201.348	-102.617	0.485	0.116
-200.333	-73.057	-0.342	0.126
-199.319	-200.000	-0.005	0.156
-198.304	551.795	-0.053	-0.128
-197.290	-68.443	-0.034	0.013
-196.275	-86.369	-0.178	0.055
-195.260	-200.000	-0.044	0.317
-194.246	250.593	-0.020	0.034
-193.231	-124.567	-0.156	-0.024
-192.217	-3.520	0.156	0.108
-191.202	256.602	-0.059	-0.101
-190.187	-99.928	0.314	-0.079
-189.173	40.919	0.114	-0.103
-188.158	21.054	-0.266	-0.216
-187.144	-75.440	-0.129	0.046
-186.129	78.846	-0.276	0.296
-185.114	-200.000	-0.036	-0.222
-184.100	-43.973	-0.333	-0.168
-183.085	540.004	-0.101	-0.241
-182.071	-200.000	-0.003	0.181
-181.056	-200.000	0.042	0.447
-180.042	418.621	0.233	0.500
-179.027	-200.000	0.032	0.332
-178.012	800.000	-0.050	-0.162
-176.998	-134.855	-0.132	-0.016
-175.983	111.308	-0.350	0.422
-174.969	800.000	0.096	-0.323
-173.954	-200.000	0.015	-0.181
-172.939	322.874	0.239	0.456
-171.925	557.397	0.038	-0.092
-170.910	-52.668	0.125	0.058
-169.896	-20.311	-0.146	-0.090
-168.881	-200.000	-0.024	-0.137
-167.866	-200.000	0.030	-0.279
-166.852	-145.283	-0.159	0.014
-165.837	-155.692	0.071	-0.005
-164.823	-200.000	-0.005	0.076
-163.808	2.363	-0.243	0.176
-162.793	-26.472	-0.234	0.137
-161.779	-90.598	-0.184	0.053
-160.764	-200.000	0.016	-0.326
-159.750	106.041	0.141	-0.167
-158.735	-141.331	0.331	-0.034
-157.720	126.516	-0.318	0.402
-156.706	800.000	-0.027	0.100
-155.691	-200.000	0.005	-0.048
-154.677	141.851	0.209	-0.277
-153.662	410.311	-0.199	0.421
-152.647	-62.584	0.140	-0.058
-151.633	800.000	0.038	0.128
-150.618	640.988	-0.035	0.089
-149.604	800.000	0.058	0.195
-148.589	-137.565	-0.390	-0.044
-147.574	800.000	-0.064	0.275
-146.560	8.926	-0.171	-0.129
-145.545	44.451	0.120	0.110
-144.531	-54.922	-0.240	-0.108
-143.516	176.142	-0.032	-0.046
-142.502	119.463	0.191	0.237
-141.487	38.118	-0.162	0.144
-140.472	349.079	-0.068	-0.134
-139.458	-163.080	0.164	0.008
-138.443	800.000	-0.084	0.317
-137.429	-41.740	0.279	-0.143
-136.414	43.743	-0.226	-0.207
-135.399	391.429	0.068	-0.141
-134.385	-167.962	0.355	-0.014
-133.370	800.000	-0.087	0.347
-132.356	35.329	0.219	-0.192
-131.341	86.572	-0.013	-0.014
-130.326	-106.753	0.180	-0.040
-129.312	-200.000	-0.002	0.072
-128.297	-34.440	0.328	0.180
-127.283	-135.176	0.347	0.042
-126.268	-90.472	0.337	0.098
-125.253	800.000	-0.038	-0.116
-124.239	-200.000	0.029	-0.294
-123.224	369.115	-0.060	-0.121
-122.210	800.000	0.165	0.611
-121.195	694.551	0.050	-0.132
-120.180	-40.486	-0.063	0.033
-119.166	163.362	0.206	-0.289
-118.151	-200.000	0.002	-0.331
-117.137	-200.000	-0.016	0.182
-116.122	800.000	0.109	-0.406
-115.107	800.000	0.033	-0.124
-114.093	-200.000	0.016	-0.162
-113.078	-200.000	-0.254	-0.001
-112.064	-200.000	-0.002	0.341
-111.049	-21.725	-0.232	-0.141
-110.034	-128.706	0.035	-0.005
-109.020	800.000	-0.125	-0.361
-108.005	800.000	0.066	-0.184
-106.991	181.916	0.034	-0.050
-105.976	373.474	0.141	0.286
-104.962	-105.416	-0.079	0.018
-103.947	62.263	0.052	0.052
-102.932	-68.242	-0.026	0.010
-101.918	-200.000	0.012	0.106
-100.903	295.696	-0.133	0.243
-99.889	800.000	0.029	0.109
-98.874	518.711	0.064	0.148
-97.859	86.880	-0.059	-0.065
-96.845	-41.975	0.294	-0.150
-95.830	-16.979	0.343	0.216
-94.816	-88.100	0.176	0.053
-93.801	226.269	0.081	-0.131
-92.786	277.553	-0.039	-0.069
-91.772	-200.000	-0.037	-0.176
-90.757	-195.081	0.319	0.002
-89.743	-100.143	-0.212	0.053
-88.728	-184.870	-0.447	-0.007
-87.713	-200.000	-0.020	0.135
-86.699	-24.856	0.070	-0.042
-85.684	43.538	0.315	0.287
-84.670	147.459	0.088	-0.118
-83.655	33.282	-0.186	0.161
-82.640	-14.195	0.099	-0.064
-81.626	294.435	-0.127	0.232
-80.611	148.588	0.077	0.103
-79.597	-187.316	-0.152	-0.002
-78.582	7.985	0.122	-0.091
-77.567	275.826	-0.042	0.075
-76.553	218.722	0.114	0.182
-75.538	154.134	-0.179	-0.245
-74.524	61.134	0.203	-0.201
-73.509	-70.767	0.136	-0.051
-72.494	-145.910	0.135	-0.012
-71.480	800.000	-0.068	0.229
-70.465	-4.811	-0.064	0.044
-69.451	163.321	-0.117	0.164
-68.436	368.266	-0.114	-0.230
-67.422	-122.480	-0.528	-0.086
-66.407	800.000	0.015	0.052
-65.392	-81.965	0.065	0.021
-64.378	-200.000	0.033	-0.239
-63.363	143.272	0.063	-0.084
-62.349	800.000	0.060	0.206
-61.334	-23.142	-0.695	-0.417
-60.319	-52.205	0.242	0.112
-59.305	123.927	-0.617	-0.773
-58.290	131.758	0.387	0.496
-57.276	475.328	0.725	1.632
-56.261	-200.000	76.240	511.136
-55.246	523.212	1327.044	3107.123
-54.232	146.061	2558.349	3419.435
-53.217	117.356	2243.619	2748.768
-52.203	51.951	1764.505	1674.054
-51.188	44.437	1562.852	1430.085
-50.173	41.813	1532.429	1384.063
-49.159	57.932	1569.596	1530.585
-48.144	63.764	1589.303	1590.475
-47.130	44.982	1553.127	1424.770
-46.115	41.313	1538.815	1386.130
-45.100	41.202	1535.153	1382.010
-44.086	41.119	1533.413	1379.811
-43.071	40.997	1531.272	1376.985
-42.057	41.047	1528.972	1375.206
-41.042	41.031	1528.297	1374.434
-40.027	40.955	1526.407	1372.158
-39.013	40.959	1525.189	1371.036
-37.998	40.962	1523.750	1369.710
-36.984	41.130	1521.999	1369.232
-35.969	41.122	1520.593	1367.860
-34.954	41.130	1519.173	1366.583
-33.940	40.994	1518.115	1364.643
-32.925	40.981	1516.397	1362.957
-31.911	41.148	1515.108	1362.885
-30.896	41.269	1512.929	1361.699
-29.881	41.157	1512.678	1360.653
-28.867	41.146	1511.055	1359.066
-27.852	41.086	1510.166	1357.807
-26.838	41.020	1508.618	1355.911
-25.823	41.236	1506.238	1355.189
-24.809	40.997	1505.199	1352.574
-23.794	41.040	1504.103	1351.823
-22.779	41.098	1502.412	1350.647
-21.765	41.023	1501.837	1349.565
-20.750	41.160	1500.387	1349.139
-19.736	41.052	1499.590	1347.639
-18.721	41.133	1498.210	1346.889
-17.706	41.137	1496.853	1345.647
-16.692	41.117	1495.884	1344.588
-15.677	41.033	1494.531	1342.747
-14.663	40.875	1494.007	1341.157
-13.648	40.939	1493.012	1340.642
-12.633	41.060	1491.544	1340.085
-11.619	40.981	1491.044	1339.053
-10.604	41.116	1490.043	1339.008
-9.590	41.161	1488.892	1338.227
-8.575	41.084	1488.347	1337.161
-7.560	41.072	1487.205	1336.005
-6.546	41.087	1486.358	1335.289
-5.531	40.862	1486.153	1333.545
-4.517	40.925	1484.803	1332.701
-3.502	40.989	1483.929	1332.292
-2.487	41.023	1482.684	1331.352
-1.473	41.023	1481.181	1329.945
-0.458	41.021	1480.352	1329.137
0.556	41.398	1471.299	1319.661
1.571	38.822	1443.834	1278.152
2.586	35.140	1382.574	1200.784
3.600	33.117	1299.625	1116.708
4.615	30.934	1250.770	1062.208
5.629	25.443	1190.857	981.341
6.644	13.272	1098.148	843.165
7.659	3.849	1051.688	761.211
8.673	2.459	1045.374	749.770
9.688	2.156	1042.609	746.240
10.702	1.952	1040.577	743.725
11.717	1.954	1039.061	742.588
12.731	5.517	1043.392	763.011
13.746	16.397	1059.410	828.261
14.761	24.543	1069.437	876.165
15.775	25.571	1069.930	881.535
16.790	25.620	1069.449	881.299
17.804	25.578	1068.486	880.222
18.819	25.284	1067.480	877.878
19.834	25.417	1067.135	878.166
20.848	25.484	1066.798	878.141
21.863	25.625	1066.066	878.148
22.877	25.501	1066.220	877.591
23.892	25.511	1065.389	876.879
24.907	25.497	1064.639	876.118
25.921	25.470	1063.652	875.096
26.936	25.439	1063.248	874.535
27.950	25.446	1061.837	873.329
28.965	25.451	1060.254	871.975
29.980	25.355	1059.296	870.645
30.994	25.242	1057.873	868.852
32.009	25.487	1057.307	869.495
33.023	25.582	1056.648	869.338
34.038	25.349	1055.908	867.526
35.053	25.325	1055.494	866.990
36.067	25.449	1054.348	866.572
37.082	25.489	1053.437	865.941
38.096	25.459	1052.634	865.060
39.111	25.747	1052.125	865.947
40.126	25.770	1051.011	865.065
41.140	25.677	1050.179	863.856
42.155	25.422	1048.558	861.227
43.169	25.031	1047.518	858.421
44.184	25.072	1046.630	857.818
45.199	25.161	1045.686	857.392
46.213	24.994	1045.063	856.007
47.228	25.192	1043.506	855.602
48.242	25.219	1043.102	855.323
49.257	25.381	1042.562	855.573
50.271	25.335	1041.722	854.593
51.286	25.530	1041.353	855.142
52.301	25.477	1040.528	854.137
53.315	25.629	1039.473	853.915
54.330	25.611	1038.989	853.356
55.344	25.424	1038.115	851.676
56.359	25.526	1037.195	851.330
57.374	25.468	1036.718	850.589
58.388	25.327	1035.937	849.204
59.403	25.072	1035.180	847.306
60.417	25.193	1034.448	847.202
61.432	25.106	1033.343	845.812
62.447	25.059	1032.610	844.917
63.461	25.234	1032.244	845.367
64.476	25.188	1031.142	844.173
65.490	25.078	1030.695	843.213
66.505	25.059	1029.796	842.313
67.520	25.177	1028.596	841.814
68.534	25.166	1028.273	841.421
69.549	25.197	1027.360	840.744
70.563	24.892	1026.006	838.133
71.578	24.705	1025.170	836.503
72.593	24.746	1024.424	836.011
73.607	24.573	1023.473	834.355
74.622	24.673	1022.092	833.624
75.636	24.846	1021.699	834.035
76.651	25.085	1021.046	834.538
77.666	24.897	1020.335	833.012
78.680	24.820	1019.356	831.777
79.695	24.839	1018.971	831.480
80.709	24.975	1018.297	831.488
81.724	25.122	1017.411	831.371
82.739	25.067	1016.250	830.094
83.753	25.037	1015.779	829.499
84.768	25.292	1015.656	830.506
85.782	25.583	1015.096	831.320
86.797	25.733	1014.331	831.310
87.812	25.829	1013.509	831.004
88.826	25.644	1012.193	829.002
89.841	25.776	1011.005	828.563
90.855	25.757	1010.473	827.964
91.870	25.745	1009.740	827.238
92.884	25.759	1009.230	826.812
93.899	25.605	1008.428	825.372
94.914	25.515	1007.069	823.776
95.928	25.581	1006.524	823.561
96.943	25.552	1005.678	822.661
97.957	25.340	1004.674	820.797
98.972	25.157	1003.751	819.135
99.987	25.018	1002.577	817.470
101.001	25.060	1002.082	817.186
102.016	25.327	1001.942	818.219
103.030	25.404	1000.701	817.483
104.045	25.335	999.506	816.121
105.060	25.269	998.674	815.067
106.074	25.083	997.545	813.233
107.089	24.992	996.989	812.295
108.103	25.455	996.592	813.997
109.118	25.575	995.638	813.688
110.133	25.269	994.132	811.004
111.147	25.065	993.358	809.378
112.162	24.977	992.463	808.180
113.176	24.812	991.069	806.230
114.191	25.097	990.487	806.970
115.206	25.106	990.070	806.599
116.220	24.828	988.715	804.173
117.235	24.723	987.522	802.660
118.249	24.716	987.327	802.400
119.264	24.925	986.193	802.344
120.279	24.878	985.148	801.211
121.293	24.774	984.672	800.291
122.308	24.827	984.281	800.139
123.322	24.903	983.341	799.644
124.337	24.827	982.291	798.377
125.352	24.733	980.876	796.738
126.366	24.275	979.997	793.914
127.381	23.916	978.145	790.749
128.395	24.460	977.782	792.804
129.410	25.175	977.600	795.759
130.424	25.412	977.133	796.360
131.439	25.368	976.136	795.279
132.454	25.369	975.157	794.417
133.468	25.352	974.535	793.767
134.483	25.242	973.890	792.685
135.497	25.295	973.042	792.158
136.512	25.564	972.521	792.847
137.527	25.670	972.008	792.826
138.541	25.602	971.023	791.657
139.556	25.694	970.245	791.355
140.570	25.570	969.357	790.018
141.585	25.656	968.614	789.719
142.600	25.776	968.189	789.829
143.614	25.604	967.200	788.197
144.629	25.700	966.626	788.081
145.643	25.945	965.974	788.552
146.658	25.838	964.833	787.081
147.673	25.636	963.730	785.233
148.687	25.511	962.367	783.508
149.702	25.418	961.501	782.326
150.716	25.363	960.593	781.279
151.731	25.274	959.725	780.117
152.746	25.364	958.739	779.638
153.760	25.557	958.315	780.062
154.775	25.700	957.509	779.959
155.789	25.742	956.758	779.459
156.804	25.789	955.767	778.784
157.819	25.598	955.011	777.274
158.833	25.740	954.144	777.112
159.848	25.814	953.663	776.972
160.862	25.979	952.478	776.647
161.877	25.826	951.729	775.310
162.892	25.680	950.776	773.836
163.906	25.828	949.615	773.461
164.921	25.726	948.940	772.405
165.935	25.528	947.946	770.679
166.950	25.675	947.053	770.515
167.964	25.786	946.113	770.155
168.979	25.672	945.051	768.735
169.994	25.609	944.252	767.748
171.008	25.454	942.963	765.972
172.023	25.510	942.520	765.784
173.037	25.788	941.942	766.427
174.052	25.606	940.687	764.567
175.067	25.402	939.890	762.985
176.081	25.394	939.151	762.285
177.096	25.458	938.234	761.742
178.110	25.643	936.844	761.331
179.125	25.480	936.126	759.990
180.140	25.013	935.345	757.315
181.154	25.061	934.909	757.099
182.169	25.176	934.302	757.026
183.183	25.330	934.154	757.489
184.198	25.683	933.672	758.520
185.213	25.646	932.811	757.595
186.227	25.587	932.199	756.782
187.242	25.598	931.766	756.413
188.256	25.783	931.063	756.551
189.271	25.675	930.134	755.277
190.286	25.930	929.063	755.407
191.300	25.662	928.631	753.866
192.315	25.134	927.409	750.599
193.329	24.384	925.459	745.820
194.344	23.853	924.733	742.951
195.359	24.512	924.906	745.779
196.373	25.272	925.257	749.169
197.388	25.609	925.019	750.316
198.402	25.506	924.664	749.531
199.417	25.408	924.081	748.582
200.432	25.601	923.461	748.819
201.446	25.556	922.598	747.864
202.461	25.287	921.847	746.072
203.475	25.139	921.722	745.291
204.490	24.895	920.104	742.904
205.504	23.664	918.040	736.071
206.519	23.965	917.629	736.923
207.534	24.974	918.417	741.672
208.548	25.085	917.797	741.564
209.563	25.457	917.537	742.829
210.577	25.633	916.816	742.905
211.592	25.294	916.042	740.815
212.607	25.652	915.771	742.004
213.621	25.802	915.576	742.399
214.636	25.716	914.622	741.207
215.650	25.806	913.929	740.948
216.665	25.721	913.252	739.987
217.680	25.760	912.929	739.817
218.694	25.808	912.842	739.880
219.709	25.573	911.482	737.747
220.723	25.211	910.290	735.233
221.738	25.329	910.241	735.615
222.753	25.539	909.591	735.881
223.767	25.398	909.285	734.995
224.782	25.580	908.292	734.870
225.796	25.725	907.703	734.919
226.811	25.871	907.365	735.179
227.826	25.585	905.961	732.809
228.840	24.794	904.909	728.675
229.855	24.543	904.198	727.015
230.869	24.902	903.265	727.658
231.884	24.591	902.252	725.516
232.899	24.526	902.101	725.066
233.913	25.199	902.539	728.088
234.928	25.523	901.946	728.859
235.942	25.432	901.263	727.872
236.957	25.399	900.463	727.029
237.972	25.127	899.831	725.354
238.986	25.059	898.792	724.176
240.001	25.192	898.258	724.222
241.015	25.197	897.479	723.549
242.030	25.289	897.153	723.593
243.045	25.494	896.487	723.816
244.059	25.567	895.779	723.473
245.074	25.661	895.876	723.866
246.088	25.589	894.843	722.679
247.103	25.231	894.064	720.548
248.117	25.215	893.790	720.201
249.132	25.926	893.123	722.451
250.147	26.125	893.685	723.641
251.161	26.230	893.095	723.517
252.176	26.483	892.476	723.965
253.190	26.511	891.622	723.319
254.205	26.450	891.317	722.764
255.220	26.662	891.016	723.303
256.234	26.671	890.333	722.720
257.249	26.390	889.892	721.178
258.263	26.328	889.248	720.343
259.278	26.508	888.281	720.213
260.293	26.501	888.055	719.938
261.307	26.493	887.674	719.536
262.322	26.660	886.359	719.069
263.336	26.447	885.855	717.752
264.351	25.886	884.740	714.560
265.366	24.867	882.799	708.897
266.380	24.460	881.617	706.273
267.395	25.164	882.403	709.629
268.409	26.034	882.518	713.099
269.424	26.097	881.726	712.644
270.439	26.240	881.407	712.889
271.453	26.267	880.555	712.244
272.468	26.286	879.619	711.499
273.482	26.311	879.793	711.674
274.497	26.577	879.377	712.320
275.512	26.374	878.526	710.771
276.526	25.719	876.852	706.782
277.541	25.953	876.693	707.511
278.555	26.382	876.239	708.762
279.570	26.029	875.900	707.043
280.585	25.934	875.169	706.017
281.599	26.026	874.472	705.755
282.614	26.162	874.222	706.020
283.628	25.715	872.871	703.122
284.643	25.363	872.212	701.152
285.657	25.739	872.156	702.516
286.672	25.714	871.382	701.730
287.687	25.066	870.601	698.515
288.701	25.470	870.204	699.711
289.716	26.097	869.900	701.842
290.730	25.704	868.792	699.359
291.745	25.408	868.529	697.937
292.760	25.375	867.446	696.875
293.774	25.291	866.529	695.751
294.789	26.041	867.437	699.330
295.803	26.793	867.677	702.375
296.818	26.783	866.970	701.702
297.833	26.942	866.756	702.082
298.847	26.629	865.404	699.714
299.862	26.232	864.744	697.587
300.876	26.528	863.891	697.976
301.891	26.721	863.950	698.707
302.906	26.789	863.286	698.370
303.920	26.421	862.448	696.216
304.935	26.363	861.419	695.099
305.949	26.605	861.487	696.026
306.964	26.766	861.140	696.301
307.979	26.472	860.232	694.375
308.993	26.463	859.579	693.754
310.008	26.748	859.474	694.700
311.022	27.097	859.010	695.598
312.037	26.763	858.806	694.095
313.052	26.659	857.823	692.840
314.066	26.429	856.846	691.111
315.081	25.914	855.211	687.767
316.095	25.053	854.127	683.552
317.110	25.571	854.512	685.776
318.125	26.159	855.118	688.443
319.139	26.124	853.572	687.007
320.154	24.832	851.916	680.700
321.168	24.356	850.868	677.995
322.183	25.011	851.117	680.622
323.197	26.000	851.570	684.679
324.212	26.307	851.221	685.503
325.227	26.564	850.605	685.919
326.241	26.613	850.514	685.973
327.256	26.584	849.636	685.093
328.270	26.325	849.172	683.681
329.285	26.238	848.488	682.741
330.300	26.086	848.066	681.767
331.314	25.804	847.315	680.037
332.329	25.843	846.755	679.676
333.343	26.425	846.164	681.334
334.358	26.658	846.191	682.171
335.373	26.650	845.528	681.548
336.387	26.754	844.825	681.312
337.402	26.835	844.610	681.381
338.416	27.089	844.351	682.068
339.431	27.100	843.655	681.484
340.446	27.102	843.070	680.960
341.460	27.350	842.501	681.369
342.475	27.297	842.302	680.949
343.489	26.991	841.709	679.265
344.504	27.089	840.539	678.626
345.519	27.323	840.472	679.387
346.533	27.516	840.063	679.715
347.548	27.625	839.601	679.690
348.562	27.566	839.032	678.948
349.577	27.578	838.561	678.552
350.592	27.357	838.063	677.265
351.606	27.334	837.682	676.813
352.621	27.319	837.195	676.305
353.635	27.286	836.605	675.646
354.650	27.239	836.270	675.141
355.665	26.935	834.934	672.875
356.679	26.016	833.130	667.959
357.694	25.752	832.890	666.732
358.708	26.383	833.019	669.109
359.723	26.284	832.315	668.120
360.738	26.636	831.828	668.972
361.752	27.022	831.987	670.463
362.767	27.152	831.743	670.686
363.781	27.435	831.454	671.439
364.796	27.588	831.422	671.920
365.810	27.787	830.807	672.095
366.825	27.883	830.355	672.025
367.840	27.902	830.024	671.766
368.854	27.846	829.539	671.109
369.869	27.469	828.175	668.561
370.883	27.045	827.898	666.723
371.898	27.326	827.480	667.356
372.913	27.157	826.799	666.131
373.927	27.049	826.337	665.304
374.942	27.285	825.841	665.708
375.956	27.317	824.919	665.024
376.971	27.491	824.511	665.270
377.986	27.431	824.171	664.718
379.000	27.658	824.356	665.637
380.015	27.819	823.282	665.299
381.029	27.456	822.960	663.657
382.044	27.526	822.161	663.207
383.059	27.642	821.742	663.235
384.073	27.735	821.330	663.180
385.088	27.793	820.579	662.726
386.102	27.829	819.868	662.225
387.117	27.592	819.139	660.719
388.132	27.520	818.665	660.016
389.146	27.315	817.686	658.425
390.161	26.726	816.877	655.589
391.175	26.705	816.816	655.403
392.190	27.325	816.529	657.356
393.205	27.632	815.741	657.770
394.219	26.500	814.370	652.529
395.234	24.742	811.988	644.236
396.248	23.968	811.122	640.705
397.263	24.887	812.029	644.678
398.278	26.881	812.918	652.507
399.292	27.278	813.278	654.164
400.307	27.015	812.560	652.585
401.321	26.762	812.461	651.540
402.336	27.053	811.906	652.080
403.350	27.194	811.758	652.409
404.365	27.825	811.335	654.274
405.380	28.140	811.051	655.116
406.394	28.366	811.183	655.975
407.409	28.616	811.212	656.833
408.423	28.574	810.029	655.667
409.438	28.430	809.578	654.730
410.453	28.403	809.464	654.484
411.467	28.513	808.961	654.411
412.482	28.423	808.495	653.655
413.496	28.331	807.977	652.850
414.511	28.546	807.585	653.241
415.526	28.467	807.338	652.703
416.540	28.504	806.818	652.356
417.555	28.347	806.118	651.175
418.569	28.104	805.571	649.814
419.584	27.929	805.114	648.765
420.599	28.141	804.395	648.879
421.613	94.775	1261.670	1371.336
422.628	81.298	1328.313	1371.477
