DTS Sentinel unit serial number:	SN413079Multiplexer serial number:	ORYXHardware model number:	OX4-SRSoftware version number:	ORYX F/W v4.00 Oryx Data Collector v3.7.2.0data status	okinstallation	princeton_trtdifferential loss correction	single-endedforward channel	channel 3reverse channel	N/Adate	2019/09/14time	10:36:35forward acquisition time	60.00reverse acquisition time	0.00gamma	496.2192k internal	0.2302k external	0.2302temperature offset calibration	1.0060default loss term (dB/km)	0.3790temperature slope calibration	1.0000multiplexer offset coefficient	1.0000multiplexer slope coefficient	1.0000fibre end	0.00T internal ref (°C)	35.06T ext. ref 1 (°C)	4.22T ext. ref 2 (°C)	32.99length (m)	temperature (°C)	Stokes	anti-Stokes-747.200	73.436	-0.134	0.143
-746.185	-145.839	0.249	-0.023
-745.171	-41.753	-0.215	-0.112
-744.156	442.564	-0.099	-0.220
-743.142	793.167	0.144	-0.403
-742.127	800.000	-0.028	0.105
-741.112	-42.033	-0.207	0.108
-740.098	-197.635	0.162	0.001
-739.083	-200.000	-0.071	0.396
-738.069	748.463	-0.094	0.257
-737.054	-122.615	0.451	-0.075
-736.039	-179.704	-0.089	-0.002
-735.025	-136.916	0.296	0.035
-734.010	-200.000	-0.004	0.335
-732.996	800.000	0.045	0.145
-731.981	294.100	-0.143	-0.265
-730.966	-80.834	-0.364	-0.123
-729.952	426.317	-0.083	-0.183
-728.937	471.942	-0.122	-0.280
-727.923	81.645	-0.108	-0.119
-726.908	-22.913	-0.013	-0.008
-725.894	449.195	0.108	0.242
-724.879	347.433	-0.155	-0.310
-723.864	-79.542	-0.134	0.046
-722.850	-61.612	-0.259	0.111
-721.835	507.039	0.027	0.064
-720.821	144.934	0.198	-0.270
-719.806	-84.150	0.093	0.030
-718.791	-134.662	-0.157	0.019
-717.777	-113.658	-0.132	0.026
-716.762	-200.000	-0.046	-0.265
-715.748	-200.000	0.002	-0.062
-714.733	-200.000	-0.077	-0.397
-713.718	-147.326	-0.294	0.025
-712.704	-185.777	-0.157	-0.002
-711.689	-21.280	-0.253	0.157
-710.675	-200.000	-0.008	-0.172
-709.660	69.443	0.244	-0.256
-708.645	199.463	-0.249	0.389
-707.631	9.178	-0.101	0.078
-706.616	-200.000	-0.024	0.348
-705.602	-91.286	-0.302	0.088
-704.587	7.337	0.056	-0.042
-703.572	69.070	0.186	-0.195
-702.558	-135.156	0.322	-0.039
-701.543	800.000	0.075	0.316
-700.529	-152.059	0.421	0.031
-699.514	180.332	0.110	-0.164
-698.499	-113.804	-0.190	-0.038
-697.485	-90.399	-0.242	-0.071
-696.470	125.530	0.109	0.140
-695.456	800.000	-0.078	-0.292
-694.441	117.757	-0.186	0.232
-693.426	35.340	-0.101	-0.090
-692.412	-107.460	0.051	0.011
-691.397	-200.000	0.051	0.411
-690.383	615.751	-0.068	-0.174
-689.368	800.000	-0.019	-0.055
-688.354	-48.874	-0.145	-0.071
-687.339	-171.118	0.172	0.006
-686.324	-84.915	-0.123	-0.039
-685.310	-136.997	-0.359	0.042
-684.295	43.172	0.202	0.188
-683.281	496.363	-0.033	0.076
-682.266	273.798	-0.171	-0.308
-681.251	-146.794	-0.072	0.006
-680.237	-45.336	0.155	-0.078
-679.222	-200.000	-0.018	0.080
-678.208	321.636	-0.030	-0.058
-677.193	148.230	0.128	-0.175
-676.178	79.799	0.189	0.207
-675.164	-134.412	0.219	0.027
-674.149	201.278	0.182	0.285
-673.135	32.639	-0.099	0.087
-672.120	-200.000	-0.057	0.263
-671.105	-200.000	-0.039	0.247
-670.091	54.046	-0.186	0.182
-669.076	-131.997	-0.276	-0.037
-668.062	-13.650	-0.354	-0.233
-667.047	-200.000	0.030	0.401
-666.032	-15.822	0.207	0.134
-665.018	163.252	-0.204	0.292
-664.003	-166.925	0.285	0.012
-662.989	34.199	-0.098	0.086
-661.974	57.107	-0.150	-0.149
-660.959	-82.088	-0.539	-0.179
-659.945	186.945	-0.138	-0.209
-658.930	-29.282	-0.145	0.084
-657.916	-69.697	-0.073	-0.028
-656.901	16.250	0.149	0.119
-655.886	284.924	-0.092	0.167
-654.872	-108.972	-0.229	-0.050
-653.857	-170.810	0.184	-0.006
-652.843	-180.185	0.140	-0.003
-651.828	-49.308	-0.088	0.042
-650.814	-200.000	-0.035	0.311
-649.799	8.539	0.100	-0.076
-648.784	-116.122	0.194	0.037
-647.770	-26.040	0.055	0.033
-646.755	299.068	0.077	0.144
-645.741	-13.079	0.211	0.139
-644.726	8.523	-0.111	0.085
-643.711	-63.785	0.338	-0.140
-642.697	-69.779	0.082	-0.032
-641.682	-200.000	0.077	-0.356
-640.668	-102.716	-0.113	0.027
-639.653	-200.000	-0.027	0.299
-638.638	-91.000	-0.169	-0.049
-637.624	-101.439	0.112	-0.028
-636.609	81.258	-0.287	-0.315
-635.595	313.552	-0.045	0.086
-634.580	-91.455	0.226	0.065
-633.565	-46.274	0.238	0.119
-632.551	-200.000	-0.080	0.367
-631.536	127.266	-0.054	-0.070
-630.522	239.755	0.036	-0.061
-629.507	-40.779	-0.148	-0.078
-628.492	344.163	0.123	-0.245
-627.478	373.060	-0.070	0.144
-626.463	800.000	-0.105	-0.384
-625.449	-128.671	0.143	0.020
-624.434	-14.156	0.219	-0.143
-623.419	800.000	-0.132	0.420
-622.405	-200.000	-0.018	0.145
-621.390	800.000	0.071	-0.284
-620.376	-200.000	-0.026	-0.166
-619.361	-200.000	0.055	0.336
-618.346	800.000	0.054	0.152
-617.332	-14.500	0.065	-0.043
-616.317	-200.000	0.014	0.069
-615.303	-51.941	0.238	-0.112
-614.288	-183.972	-0.208	0.004
-613.273	-128.912	-0.215	0.031
-612.259	-27.847	0.167	-0.098
-611.244	9.366	-0.176	0.135
-610.230	800.000	-0.062	-0.174
-609.215	-137.831	-0.268	-0.030
-608.201	-89.622	0.394	0.117
-607.186	800.000	0.094	-0.323
-606.171	673.085	-0.026	-0.069
-605.157	-200.000	0.007	-0.083
-604.142	157.952	-0.114	0.161
-603.128	-200.000	-0.068	-0.310
-602.113	283.855	0.229	-0.417
-601.098	-154.789	0.135	0.009
-600.084	-31.612	-0.203	0.115
-599.069	-78.364	0.144	-0.050
-598.055	-116.257	0.029	0.005
-597.040	32.981	0.131	-0.115
-596.025	-176.375	0.309	0.008
-595.011	-146.960	0.061	0.005
-593.996	-34.926	0.186	0.103
-592.982	41.589	-0.367	-0.337
-591.967	-104.739	-0.354	-0.083
-590.952	-79.937	-0.234	-0.079
-589.938	481.432	-0.044	0.101
-588.923	-78.189	0.392	-0.136
-587.909	26.042	0.072	0.061
-586.894	194.528	0.187	0.288
-585.879	584.303	0.028	-0.069
-584.865	-86.774	0.472	0.146
-583.850	149.944	0.084	0.115
-582.836	109.228	-0.210	0.254
-581.821	6.578	0.294	0.221
-580.806	-141.626	0.092	-0.009
-579.792	50.047	-0.026	-0.025
-578.777	4.037	-0.322	-0.238
-577.763	-200.000	-0.001	0.137
-576.748	26.314	0.059	-0.050
-575.733	-114.585	0.262	0.051
-574.719	318.338	-0.080	0.153
-573.704	-105.225	-0.452	0.104
-572.690	800.000	-0.123	-0.421
-571.675	96.042	-0.126	0.146
-570.661	-200.000	0.010	-0.063
-569.646	85.568	-0.106	-0.118
-568.631	50.437	-0.078	-0.074
-567.617	-74.968	0.472	-0.171
-566.602	-100.790	-0.182	-0.045
-565.588	800.000	-0.055	-0.206
-564.573	6.565	0.172	0.129
-563.558	115.974	0.328	0.406
-562.544	77.819	0.133	-0.143
-561.529	-83.930	0.102	0.033
-560.515	-89.535	-0.025	0.007
-559.500	-91.223	0.186	0.054
-558.485	-89.162	0.302	-0.090
-557.471	-147.157	-0.259	0.022
-556.456	-200.000	0.008	0.148
-555.442	90.649	0.057	-0.065
-554.427	-47.790	-0.413	0.202
-553.412	170.748	0.075	-0.109
-552.398	-200.000	-0.076	0.422
-551.383	-105.950	0.308	-0.070
-550.369	-200.000	-0.021	0.106
-549.354	-48.993	-0.120	0.058
-548.339	363.745	-0.148	-0.300
-547.325	-200.000	-0.008	-0.170
-546.310	800.000	-0.041	0.162
-545.296	-71.870	0.132	0.050
-544.281	344.253	0.119	0.236
-543.266	16.388	0.080	-0.064
-542.252	-15.208	-0.096	-0.062
-541.237	-4.324	0.108	0.076
-540.223	385.880	0.149	0.311
-539.208	145.009	-0.141	-0.190
-538.193	-126.470	-0.151	0.023
-537.179	265.044	-0.068	-0.120
-536.164	-63.579	0.283	0.117
-535.150	208.803	-0.175	-0.277
-534.135	-168.286	0.106	0.004
-533.121	38.739	-0.075	0.067
-532.106	11.468	-0.049	0.038
-531.091	18.242	-0.147	0.119
-530.077	800.000	0.078	0.293
-529.062	17.050	0.262	-0.210
-528.048	401.890	-0.070	-0.148
-527.033	-77.617	0.372	0.130
-526.018	-200.000	0.041	0.216
-525.004	-200.000	0.021	-0.226
-523.989	120.331	-0.094	0.118
-522.975	-111.569	0.142	0.029
-521.960	-161.572	0.015	-0.001
-520.945	-167.254	-0.348	0.014
-519.931	-128.026	-0.276	0.040
-518.916	800.000	0.035	0.141
-517.902	-10.472	-0.060	0.040
-516.887	-87.293	0.117	0.036
-515.872	-29.591	0.223	0.128
-514.858	-143.194	-0.280	-0.027
-513.843	-83.036	-0.064	-0.021
-512.829	800.000	-0.084	0.268
-511.814	-66.075	-0.081	0.033
-510.799	24.605	-0.149	-0.124
-509.785	247.116	0.023	-0.039
-508.770	-63.782	0.313	0.129
-507.756	327.977	-0.047	0.091
-506.741	130.327	0.264	0.341
-505.726	-200.000	-0.035	-0.312
-504.712	-200.000	-0.014	-0.454
-503.697	-200.000	0.009	0.111
-502.683	95.464	0.189	0.217
-501.668	1.434	0.158	0.115
-500.653	577.345	-0.077	-0.189
-499.639	-200.000	0.019	0.462
-498.624	274.189	0.013	-0.023
-497.610	-62.341	-0.071	0.030
-496.595	779.314	-0.148	0.409
-495.581	698.874	-0.175	-0.463
-494.566	-200.000	0.045	0.263
-493.551	75.312	0.115	-0.123
-492.537	-89.124	-0.272	0.081
-491.522	658.465	0.056	-0.144
-490.508	-200.000	-0.010	-0.079
-489.493	595.595	0.042	-0.104
-488.478	-15.081	-0.284	0.184
-487.464	-146.541	0.200	-0.018
-486.449	-64.275	-0.140	0.058
-485.435	-200.000	-0.005	0.041
-484.420	-140.034	0.097	-0.010
-483.405	322.477	0.029	0.056
-482.391	69.347	0.107	-0.111
-481.376	38.435	-0.257	0.231
-480.362	558.736	-0.105	-0.254
-479.347	494.053	0.077	-0.179
-478.332	-123.673	-0.284	-0.045
-477.318	-45.091	0.344	-0.173
-476.303	497.969	-0.051	-0.119
-475.289	-200.000	0.017	0.135
-474.274	131.259	0.231	-0.299
-473.259	282.724	-0.018	-0.033
-472.245	-200.000	-0.026	0.238
-471.230	-200.000	-0.000	0.059
-470.216	26.106	-0.034	-0.029
-469.201	-39.383	-0.057	0.030
-468.186	33.555	-0.351	-0.308
-467.172	-200.000	0.002	-0.094
-466.157	372.443	-0.137	0.280
-465.143	800.000	-0.013	-0.042
-464.128	-33.373	-0.080	0.044
-463.113	325.548	-0.065	0.126
-462.099	-134.442	-0.319	-0.039
-461.084	80.162	0.198	-0.215
-460.070	367.634	-0.043	-0.087
-459.055	-29.822	-0.284	0.163
-458.040	-200.000	-0.035	-0.248
-457.026	-135.266	0.185	-0.022
-456.011	-100.852	-0.181	0.045
-454.997	-144.474	-0.181	0.017
-453.982	800.000	-0.051	0.199
-452.968	-50.378	-0.174	-0.083
-451.953	-200.000	-0.067	0.332
-450.938	-179.615	-0.121	0.003
-449.924	24.907	-0.156	-0.130
-448.909	4.858	0.174	-0.129
-447.895	-94.919	0.355	-0.097
-446.880	-200.000	-0.009	-0.075
-445.865	423.830	-0.158	0.342
-444.851	-200.000	-0.021	0.151
-443.836	233.966	0.166	-0.276
-442.822	-60.482	0.050	-0.022
-441.807	193.093	-0.257	-0.392
-440.792	200.968	-0.085	0.132
-439.778	800.000	-0.075	0.287
-438.763	-200.000	0.008	-0.324
-437.749	-200.000	0.021	-0.136
-436.734	169.860	0.157	-0.225
-435.719	343.843	-0.106	-0.208
-434.705	-200.000	0.022	-0.200
-433.690	493.071	-0.057	-0.133
-432.676	432.768	-0.131	-0.287
-431.661	-119.505	-0.135	0.024
-430.646	-36.451	0.147	-0.080
-429.632	-91.388	-0.173	-0.050
-428.617	163.847	-0.101	0.143
-427.603	60.622	0.144	-0.144
-426.588	212.406	0.127	-0.202
-425.573	-116.082	-0.155	0.029
-424.559	538.401	0.077	0.185
-423.544	368.913	0.122	-0.248
-422.530	-21.197	-0.053	0.032
-421.515	-200.000	0.014	0.112
-420.500	-200.000	0.047	-0.216
-419.486	-103.461	-0.181	0.043
-418.471	38.968	0.102	-0.091
-417.457	41.362	-0.283	-0.258
-416.442	-200.000	-0.011	0.205
-415.428	82.659	-0.112	-0.123
-414.413	-200.000	-0.078	0.411
-413.398	44.063	-0.160	-0.147
-412.384	-58.137	-0.118	0.052
-411.369	271.638	0.097	0.171
-410.355	35.504	0.244	0.215
-409.340	280.187	0.067	0.120
-408.325	17.453	-0.442	-0.353
-407.311	-200.000	-0.009	0.095
-406.296	-171.654	0.363	-0.012
-405.282	-95.114	-0.030	0.008
-404.267	800.000	-0.039	-0.112
-403.252	486.348	-0.124	-0.285
-402.238	37.289	-0.227	-0.202
-401.223	-200.000	0.018	0.143
-400.209	-102.730	-0.211	0.050
-399.194	-49.335	0.094	-0.045
-398.179	-200.000	0.025	0.348
-397.165	-100.239	-0.119	0.030
-396.150	520.730	0.087	0.205
-395.136	260.357	-0.105	0.183
-394.121	72.999	0.132	0.139
-393.106	-84.154	-0.084	0.027
-392.092	-200.000	-0.008	0.041
-391.077	100.546	-0.061	0.071
-390.063	83.956	-0.202	-0.222
-389.048	35.240	-0.077	-0.068
-388.033	-86.637	-0.262	-0.081
-387.019	99.100	0.132	-0.153
-386.004	-97.577	-0.396	-0.103
-384.990	-92.527	0.225	0.064
-383.975	-165.020	-0.203	-0.009
-382.960	120.005	0.030	-0.038
-381.946	260.021	0.225	-0.391
-380.931	-200.000	-0.056	0.256
-379.917	-151.410	-0.124	-0.009
-378.902	37.648	0.092	0.082
-377.888	-49.276	0.495	0.237
-376.873	787.676	-0.219	0.602
-375.858	800.000	0.118	0.391
-374.844	-155.506	-0.052	0.003
-373.829	-80.069	-0.212	0.072
-372.815	20.613	0.104	0.084
-371.800	-82.391	0.354	-0.116
-370.785	-26.370	-0.014	-0.008
-369.771	38.376	0.101	0.090
-368.756	28.258	0.187	0.158
-367.742	16.855	0.262	0.208
-366.727	-12.279	0.091	0.060
-365.712	-79.075	0.242	-0.083
-364.698	267.139	0.085	0.150
-363.683	-200.000	0.034	0.198
-362.669	-54.898	0.359	0.163
-361.654	37.455	-0.205	0.183
-360.639	200.949	-0.203	0.313
-359.625	36.213	0.122	-0.108
-358.610	-77.892	0.321	-0.111
-357.596	-100.536	0.053	-0.013
-356.581	800.000	-0.086	0.309
-355.566	-200.000	-0.016	0.347
-354.552	-72.977	-0.234	0.086
-353.537	-111.464	0.228	0.047
-352.523	-112.647	0.118	-0.023
-351.508	-3.363	0.094	-0.066
-350.493	-200.000	-0.013	-0.292
-349.479	104.441	0.100	0.118
-348.464	-51.436	0.254	-0.119
-347.450	537.225	0.085	-0.202
-346.435	392.553	0.130	-0.271
-345.420	97.181	-0.171	0.197
-344.406	-200.000	-0.022	-0.132
-343.391	-200.000	0.074	-0.338
-342.377	-200.000	-0.023	-0.179
-341.362	-134.965	-0.245	-0.030
-340.348	-94.984	-0.063	0.017
-339.333	1.927	-0.209	-0.151
-338.318	800.000	0.039	-0.138
-337.304	-148.829	-0.309	-0.025
-336.289	-200.000	-0.063	0.282
-335.275	-20.819	-0.110	0.068
-334.260	-200.000	0.021	-0.313
-333.245	-200.000	-0.031	-0.221
-332.231	-62.818	-0.202	0.084
-331.216	433.088	0.093	0.203
-330.202	-54.268	0.413	-0.188
-329.187	176.482	-0.296	0.431
-328.172	800.000	0.056	-0.196
-327.158	-34.018	-0.065	0.036
-326.143	27.628	0.239	-0.202
-325.129	-33.971	0.169	0.093
-324.114	316.399	0.052	0.098
-323.099	83.278	-0.262	-0.286
-322.085	197.977	0.132	-0.202
-321.070	-60.166	0.079	-0.034
-320.056	733.103	0.080	0.215
-319.041	-200.000	-0.025	-0.288
-318.026	-200.000	-0.006	-0.170
-317.012	-146.902	0.237	0.020
-315.997	94.682	-0.231	0.263
-314.983	-7.691	-0.171	0.115
-313.968	11.724	0.130	-0.100
-312.953	-39.278	-0.137	0.072
-311.939	800.000	-0.085	-0.256
-310.924	110.713	-0.106	-0.128
-309.910	-200.000	-0.019	-0.269
-308.895	98.745	0.216	0.250
-307.880	800.000	0.076	-0.270
-306.866	-200.000	0.012	0.261
-305.851	-128.280	-0.132	0.019
-304.837	140.239	-0.039	0.052
-303.822	-55.342	-0.358	-0.161
-302.807	-98.596	-0.155	0.040
-301.793	-200.000	0.049	0.267
-300.778	-200.000	0.020	0.174
-299.764	711.370	0.051	0.135
-298.749	-200.000	0.008	0.117
-297.735	-200.000	-0.000	0.280
-296.720	-15.693	-0.214	0.137
-295.705	-200.000	0.001	0.134
-294.691	170.030	-0.148	0.211
-293.676	13.473	0.223	0.173
-292.662	-200.000	-0.069	0.000
-291.647	164.058	-0.205	0.290
-290.632	-200.000	0.007	0.120
-289.618	-200.000	0.039	0.203
-288.603	-200.000	0.016	-0.114
-287.589	185.988	0.061	-0.090
-286.574	-44.032	0.145	0.073
-285.559	-200.000	0.026	-0.205
-284.545	43.885	-0.219	-0.200
-283.530	143.730	0.099	0.132
-282.516	-28.082	0.355	-0.206
-281.501	33.066	-0.260	0.225
-280.486	92.323	-0.251	-0.283
-279.472	238.336	0.154	-0.256
-278.457	-99.064	-0.103	0.026
-277.443	800.000	0.103	0.314
-276.428	-64.338	0.105	-0.043
-275.413	800.000	-0.023	-0.066
-274.399	72.867	0.093	-0.097
-273.384	-69.718	0.118	-0.045
-272.370	-200.000	0.060	0.291
-271.355	-30.413	0.247	0.140
-270.340	-153.684	-0.412	-0.028
-269.326	-200.000	0.008	-0.170
-268.311	91.486	0.106	0.120
-267.297	800.000	-0.028	-0.112
-266.282	96.755	-0.134	0.153
-265.267	-200.000	-0.026	0.268
-264.253	-123.774	-0.170	-0.027
-263.238	-200.000	0.017	-0.134
-262.224	115.877	-0.168	-0.205
-261.209	45.552	-0.377	-0.349
-260.195	800.000	-0.069	-0.263
-259.180	-8.850	0.321	0.215
-258.165	157.975	0.266	-0.369
-257.151	-12.039	-0.287	-0.188
-256.136	29.922	0.050	-0.043
-255.122	800.000	0.124	-0.396
-254.107	-200.000	0.037	-0.199
-253.092	226.639	0.046	0.074
-252.078	-97.490	0.138	0.036
-251.063	128.093	0.065	-0.083
-250.049	-200.000	-0.035	-0.304
-249.034	-41.804	-0.127	0.065
-248.019	-140.850	-0.306	0.031
-247.005	10.005	-0.304	-0.231
-245.990	-7.097	0.117	-0.079
-244.976	-200.000	-0.058	-0.317
-243.961	-200.000	0.004	0.035
-242.946	-53.551	0.232	-0.106
-241.932	747.030	-0.005	0.012
-240.917	439.457	0.083	0.181
-239.903	-133.890	-0.275	-0.034
-238.888	800.000	-0.080	0.244
-237.873	-97.288	0.161	-0.042
-236.859	800.000	-0.073	0.205
-235.844	-169.855	-0.071	-0.003
-234.830	-200.000	0.023	-0.158
-233.815	-200.000	-0.023	0.122
-232.800	421.828	0.117	-0.250
-231.786	243.145	-0.047	0.079
-230.771	-19.142	-0.241	0.149
-229.757	-120.559	-0.177	-0.030
-228.742	410.923	-0.139	0.295
-227.727	49.873	-0.091	0.086
-226.713	207.356	-0.228	-0.355
-225.698	-200.000	0.009	0.221
-224.684	-200.000	-0.007	-0.046
-223.669	711.399	-0.061	0.162
-222.655	-168.952	-0.110	0.004
-221.640	-120.023	-0.251	-0.043
-220.625	-62.150	0.065	0.027
-219.611	4.556	0.122	0.089
-218.596	140.361	0.094	-0.124
-217.582	-81.131	0.116	-0.038
-216.567	496.099	-0.060	-0.138
-215.552	409.161	-0.162	0.342
-214.538	-130.214	0.317	-0.043
-213.523	-64.893	0.497	-0.200
-212.509	800.000	-0.069	0.251
-211.494	182.087	-0.102	-0.150
-210.479	-55.705	-0.149	-0.066
-209.465	118.935	-0.227	-0.280
-208.450	-63.465	0.255	-0.105
-207.436	-145.095	-0.241	-0.022
-206.421	-5.554	0.197	-0.135
-205.406	-90.666	-0.279	0.080
-204.392	5.381	-0.218	-0.161
-203.377	-19.877	-0.114	0.070
-202.363	-56.860	0.122	-0.054
-201.348	-104.659	0.271	-0.062
-200.333	800.000	-0.173	0.582
-199.319	-200.000	0.079	0.423
-198.304	-127.065	-0.090	0.013
-197.290	-95.111	0.217	-0.059
-196.275	-60.002	-0.442	-0.188
-195.260	282.782	0.059	-0.105
-194.246	-160.315	-0.252	-0.014
-193.231	-21.215	-0.069	-0.042
-192.217	-68.452	0.182	-0.070
-191.202	-114.478	0.096	-0.018
-190.187	538.712	0.072	0.170
-189.173	-200.000	-0.057	0.328
-188.158	-111.145	0.295	-0.060
-187.144	800.000	0.091	-0.257
-186.129	-74.496	0.144	0.052
-185.114	273.945	0.077	0.136
-184.100	128.716	-0.074	-0.094
-183.085	-200.000	0.048	0.238
-182.071	15.293	0.289	0.226
-181.056	-200.000	-0.026	-0.291
-180.042	109.163	0.270	0.322
-179.027	-30.454	0.057	0.032
-178.012	-75.684	0.105	0.037
-176.998	-200.000	-0.036	-0.389
-175.983	-87.002	0.235	0.071
-174.969	0.561	0.117	-0.083
-173.954	-103.318	0.079	0.019
-172.939	-119.349	0.173	-0.030
-171.925	-123.083	0.302	-0.048
-170.910	800.000	0.055	-0.234
-169.896	-69.666	0.116	0.044
-168.881	134.054	-0.092	-0.119
-167.866	-6.767	-0.138	0.093
-166.852	110.925	-0.183	0.220
-165.837	-200.000	-0.001	0.013
-164.823	-170.605	0.055	0.002
-163.808	-111.744	-0.261	0.053
-162.793	-200.000	0.050	-0.258
-161.779	189.889	-0.163	0.244
-160.764	800.000	0.082	-0.303
-159.750	-142.271	-0.518	0.051
-158.735	354.840	0.078	0.155
-157.720	543.826	-0.110	-0.260
-156.706	-200.000	-0.000	0.058
-155.691	154.601	0.263	0.360
-154.677	-117.277	0.264	0.048
-153.662	-55.432	0.171	0.077
-152.647	-18.021	0.289	-0.180
-151.633	68.874	-0.134	-0.137
-150.618	-83.133	0.215	0.069
-149.604	407.897	-0.124	0.262
-148.589	22.742	-0.149	0.122
-147.574	418.790	-0.108	-0.231
-146.560	-125.758	-0.103	0.016
-145.545	291.111	0.128	0.231
-144.531	-200.000	-0.020	0.265
-143.516	138.865	0.069	-0.090
-142.502	-200.000	0.017	0.310
-141.487	800.000	0.122	0.334
-140.472	270.644	-0.048	0.084
-139.458	-200.000	-0.023	-0.333
-138.443	-200.000	-0.019	0.299
-137.429	-200.000	0.003	-0.202
-136.414	-135.164	-0.339	0.041
-135.399	-84.848	-0.116	-0.036
-134.385	-110.378	0.436	0.090
-133.370	-200.000	0.011	0.067
-132.356	-97.377	-0.402	0.104
-131.341	395.500	-0.061	0.126
-130.326	-33.970	-0.094	0.051
-129.312	26.756	-0.203	0.169
-128.297	67.718	0.222	0.226
-127.283	2.111	-0.166	-0.119
-126.268	-12.425	0.437	0.284
-125.253	-49.106	-0.109	-0.052
-124.239	-42.063	0.179	0.091
-123.224	44.007	-0.087	-0.079
-122.210	-200.000	0.001	-0.038
-121.195	-200.000	0.017	-0.095
-120.180	7.504	0.283	0.210
-119.166	144.579	-0.043	0.058
-118.151	735.102	0.030	0.081
-117.137	-79.947	0.124	-0.041
-116.122	-53.318	-0.050	-0.023
-115.107	169.751	0.162	-0.230
-114.093	-200.000	0.024	-0.249
-113.078	22.812	0.041	-0.033
-112.064	800.000	-0.042	0.158
-111.049	-177.391	-0.266	0.007
-110.034	188.850	0.191	-0.283
-109.020	-92.278	0.254	-0.071
-108.005	-124.824	-0.354	0.054
-106.991	800.000	0.076	0.313
-105.976	800.000	-0.070	0.268
-104.962	-112.452	-0.225	-0.045
-103.947	-200.000	0.013	0.162
-102.932	107.064	-0.168	0.198
-101.918	89.832	0.090	0.100
-100.903	59.258	-0.132	0.129
-99.889	324.471	-0.085	0.162
-98.874	204.958	0.166	0.256
-97.859	765.028	0.020	0.053
-96.845	-16.757	-0.199	0.125
-95.830	139.765	-0.031	0.041
-94.816	-35.763	-0.132	0.071
-93.801	6.250	0.173	0.128
-92.786	43.721	0.111	-0.101
-91.772	727.566	-0.021	0.055
-90.757	800.000	-0.011	0.033
-89.743	-146.226	0.441	-0.038
-88.728	1.512	0.233	0.167
-87.713	38.812	-0.055	-0.048
-86.699	-138.197	0.283	0.031
-85.684	168.068	0.312	0.440
-84.670	-48.153	-0.013	-0.006
-83.655	-200.000	0.022	-0.172
-82.640	-7.027	0.169	0.114
-81.626	94.314	0.039	0.044
-80.611	-200.000	0.009	-0.099
-79.597	-69.052	0.320	-0.122
-78.582	-200.000	-0.032	0.326
-77.567	-126.254	0.210	-0.031
-76.553	-200.000	0.048	0.309
-75.538	-3.168	0.259	0.179
-74.524	-200.000	0.012	0.322
-73.509	-166.232	-0.233	0.010
-72.494	-200.000	-0.004	0.291
-71.480	88.221	0.079	-0.087
-70.465	-118.987	0.221	-0.038
-69.451	45.736	0.167	-0.153
-68.436	181.952	-0.083	0.122
-67.422	489.643	-0.111	-0.252
-66.407	779.952	0.052	0.140
-65.392	516.688	0.107	0.248
-64.378	-5.974	-0.267	0.181
-63.363	101.222	-0.084	-0.097
-62.349	177.710	0.239	0.345
-61.334	89.060	-0.676	-0.747
-60.319	-8.920	0.492	0.327
-59.305	-200.000	-0.174	-0.951
-58.290	-200.000	0.069	0.826
-57.276	787.761	0.579	1.577
-56.261	-200.000	91.619	528.486
-55.246	578.592	1384.954	3361.145
-54.232	182.656	2620.766	3834.242
-53.217	116.888	2245.267	2733.875
-52.203	45.203	1769.501	1617.822
-51.188	38.131	1575.730	1390.479
-50.173	35.668	1547.700	1348.435
-49.159	52.774	1596.732	1513.507
-48.144	56.277	1615.349	1556.079
-47.130	38.530	1571.852	1389.668
-46.115	35.397	1556.015	1353.551
-45.100	35.147	1552.898	1349.024
-44.086	35.215	1550.640	1347.489
-43.071	35.012	1549.373	1344.911
-42.057	35.024	1547.608	1343.409
-41.042	35.038	1546.179	1342.213
-40.027	35.034	1544.948	1341.062
-39.013	35.110	1543.187	1340.015
-37.998	35.054	1541.870	1338.426
-36.984	35.075	1540.666	1337.472
-35.969	35.101	1539.536	1336.620
-34.954	35.066	1537.901	1334.906
-33.940	35.057	1536.057	1333.187
-32.925	35.063	1534.627	1331.935
-31.911	34.967	1533.870	1330.556
-30.896	35.145	1532.044	1330.157
-29.881	35.203	1530.420	1329.099
-28.867	35.061	1529.431	1327.201
-27.852	35.074	1528.313	1326.267
-26.838	35.076	1526.535	1324.685
-25.823	35.184	1524.510	1323.623
-24.809	35.081	1523.135	1321.663
-23.794	35.068	1522.206	1320.716
-22.779	35.089	1521.112	1319.861
-21.765	35.130	1519.475	1318.672
-20.750	35.099	1518.639	1317.676
-19.736	35.134	1517.423	1316.815
-18.721	35.112	1516.140	1315.497
-17.706	35.098	1515.069	1314.418
-16.692	35.003	1514.097	1312.871
-15.677	35.050	1513.039	1312.224
-14.663	35.001	1512.120	1311.035
-13.648	35.013	1510.792	1309.920
-12.633	35.060	1509.751	1309.284
-11.619	35.031	1509.108	1308.474
-10.604	34.976	1508.687	1307.681
-9.590	34.991	1507.620	1306.807
-8.575	35.009	1506.539	1305.942
-7.560	35.077	1505.960	1305.853
-6.546	35.071	1504.876	1304.820
-5.531	35.030	1504.350	1304.036
-4.517	34.916	1503.747	1302.684
-3.502	34.989	1502.052	1301.661
-2.487	35.011	1500.990	1300.834
-1.473	35.028	1499.637	1299.727
-0.458	35.049	1498.392	1298.739
0.556	35.759	1489.763	1290.288
1.571	33.439	1463.724	1252.307
2.586	30.190	1400.097	1177.180
3.600	28.449	1314.534	1094.757
4.615	26.100	1266.132	1040.824
5.629	21.772	1206.881	968.180
6.644	12.544	1117.916	849.297
7.659	5.277	1074.779	780.265
8.673	4.288	1068.898	771.015
9.688	4.166	1066.354	768.507
10.702	4.138	1064.709	767.114
11.717	4.308	1062.930	766.602
12.731	6.784	1065.814	780.873
13.746	15.385	1078.392	832.884
14.761	20.801	1084.483	864.476
15.775	20.244	1082.516	860.074
16.790	19.192	1080.551	853.225
17.804	18.107	1078.214	845.939
18.819	17.254	1076.221	840.086
19.834	16.856	1074.832	836.964
20.848	16.601	1073.738	834.779
21.863	16.395	1072.989	833.106
22.877	16.190	1072.018	831.269
23.892	16.098	1071.448	830.299
24.907	15.897	1070.750	828.696
25.921	15.922	1070.045	828.201
26.936	15.862	1069.515	827.424
27.950	15.948	1068.146	826.716
28.965	16.081	1066.647	826.130
29.980	16.031	1066.155	825.434
30.994	16.220	1064.717	825.173
32.009	16.035	1064.445	823.984
33.023	16.247	1063.544	824.245
34.038	16.225	1062.494	823.252
35.053	16.224	1061.470	822.382
36.067	16.076	1060.444	820.795
37.082	16.041	1059.196	819.586
38.096	16.017	1058.767	819.062
39.111	16.119	1058.449	819.241
40.126	16.275	1056.982	818.791
41.140	16.023	1056.057	816.781
42.155	15.980	1054.762	815.496
43.169	15.810	1054.489	814.391
44.184	15.648	1053.321	812.634
45.199	15.767	1051.722	811.902
46.213	15.726	1050.726	810.867
47.228	15.810	1049.760	810.451
48.242	15.936	1048.820	810.260
49.257	16.015	1047.927	809.879
50.271	15.939	1046.594	808.411
51.286	15.961	1045.967	807.963
52.301	16.049	1045.041	807.598
53.315	16.045	1044.115	806.792
54.330	15.970	1043.460	805.853
55.344	15.891	1042.355	804.555
56.359	15.752	1041.310	803.011
57.374	15.897	1040.430	802.954
58.388	15.874	1039.534	802.080
59.403	15.848	1038.674	801.224
60.417	15.713	1037.822	799.854
61.432	15.793	1036.857	799.418
62.447	15.784	1036.566	799.080
63.461	15.685	1036.011	798.114
64.476	15.538	1035.012	796.573
65.490	15.594	1033.703	795.764
66.505	15.699	1032.799	795.491
67.520	15.732	1032.068	795.014
68.534	15.676	1031.325	794.108
69.549	15.596	1030.209	792.799
70.563	15.659	1029.824	792.729
71.578	15.496	1029.319	791.504
72.593	15.586	1028.044	790.879
73.607	15.566	1027.072	789.965
74.622	15.463	1026.120	788.682
75.636	15.431	1025.367	787.880
76.651	15.481	1024.116	787.085
77.666	15.489	1023.960	786.934
78.680	15.613	1022.800	786.551
79.695	15.475	1022.908	785.920
80.709	15.453	1022.267	785.253
81.724	15.697	1021.122	785.448
82.739	15.719	1020.532	785.025
83.753	15.828	1019.538	784.698
84.768	16.021	1018.721	784.899
85.782	15.993	1018.178	784.281
86.797	16.154	1017.818	784.682
87.812	16.110	1016.832	783.652
88.826	16.126	1015.647	782.743
89.841	16.031	1014.840	781.611
90.855	16.163	1013.798	781.349
91.870	16.101	1013.533	780.791
92.884	16.117	1012.869	780.281
93.899	16.142	1011.796	779.504
94.914	16.172	1011.429	779.289
95.928	16.135	1010.700	778.490
96.943	16.193	1009.806	777.997
97.957	16.108	1008.888	776.833
98.972	16.143	1007.821	776.103
99.987	16.122	1007.152	775.419
101.001	16.161	1006.403	774.953
102.016	16.032	1006.124	774.081
103.030	16.067	1004.611	773.004
104.045	16.190	1003.557	772.692
105.060	16.210	1002.435	771.851
106.074	15.998	1001.484	770.081
107.089	15.924	1000.288	768.756
108.103	15.620	999.920	767.019
109.118	15.753	998.597	766.542
110.133	15.692	997.831	765.605
111.147	15.748	997.333	765.411
112.162	15.618	996.467	764.089
113.176	15.716	995.325	763.591
114.191	15.729	994.478	762.932
115.206	15.873	993.503	762.770
116.220	15.739	993.125	761.802
117.235	15.691	992.251	760.849
118.249	15.776	991.171	760.338
119.264	15.843	989.692	759.440
120.279	15.614	989.619	758.284
121.293	15.694	988.696	757.869
122.308	15.693	987.777	757.094
123.322	15.568	987.165	755.992
124.337	15.586	985.768	754.939
125.352	15.637	984.536	754.157
126.366	15.634	983.835	753.538
127.381	15.515	982.663	752.044
128.395	15.537	981.729	751.361
129.410	15.621	980.649	750.841
130.424	15.539	979.748	749.720
131.439	15.641	979.003	749.539
132.454	15.676	978.123	748.953
133.468	15.848	977.342	749.055
134.483	15.787	976.569	748.127
135.497	15.746	976.317	747.684
136.512	15.719	975.915	747.190
137.527	15.788	974.484	746.335
138.541	15.856	973.535	745.843
139.556	15.721	973.165	744.894
140.570	15.710	972.749	744.462
141.585	15.964	971.376	744.467
142.600	16.067	970.896	744.489
143.614	16.097	970.314	744.109
144.629	16.128	969.390	743.470
145.643	16.120	968.733	742.865
146.658	16.192	967.504	742.173
147.673	15.997	966.746	740.670
148.687	16.043	965.739	740.036
149.702	15.883	965.309	738.937
150.716	15.926	963.724	737.848
151.731	15.719	963.400	736.629
152.746	15.810	962.368	736.172
153.760	15.822	961.742	735.683
154.775	15.898	960.939	735.333
155.789	15.939	960.335	734.985
156.804	16.046	959.341	734.627
157.819	16.028	958.286	733.675
158.833	16.007	957.983	733.286
159.848	16.076	957.557	733.194
160.862	16.162	956.742	732.880
161.877	16.266	955.877	732.603
162.892	15.979	955.031	730.646
163.906	15.984	954.196	729.965
164.921	15.943	953.227	728.982
165.935	15.943	952.549	728.399
166.950	15.942	951.032	727.168
167.964	15.896	950.360	726.393
168.979	16.006	949.204	725.917
169.994	16.007	948.350	725.206
171.008	15.965	947.476	724.294
172.023	16.057	947.030	724.283
173.037	16.086	946.194	723.706
174.052	16.194	945.396	723.492
175.067	16.268	944.638	723.168
176.081	16.005	944.199	721.641
177.096	15.981	942.780	720.391
178.110	15.939	942.198	719.699
179.125	15.977	941.513	719.278
180.140	16.126	940.592	719.142
181.154	16.053	939.836	718.193
182.169	16.250	939.517	718.723
183.183	16.232	938.944	718.147
184.198	16.297	938.233	717.814
185.213	16.192	937.514	716.754
186.227	16.205	937.241	716.536
187.242	16.326	936.468	716.397
188.256	16.329	935.797	715.834
189.271	16.581	934.609	715.929
190.286	16.473	934.005	714.944
191.300	16.211	933.441	713.342
192.315	16.151	932.185	712.066
193.329	15.878	931.484	710.314
194.344	15.834	931.082	709.760
195.359	16.003	930.429	709.913
196.373	16.095	930.117	710.000
197.388	16.362	929.189	710.350
198.402	16.382	929.311	710.464
199.417	16.352	928.844	709.919
200.432	16.560	928.145	710.194
201.446	16.516	928.017	709.848
202.461	16.640	927.358	709.805
203.475	16.746	926.824	709.774
204.490	16.667	926.321	708.996
205.504	16.475	925.201	707.273
206.519	16.460	924.331	706.482
207.534	16.469	923.634	705.925
208.548	16.334	922.719	704.600
209.563	16.361	922.119	704.191
210.577	16.412	921.242	703.673
211.592	16.531	920.556	703.580
212.607	16.577	920.463	703.638
213.621	16.767	919.676	703.764
214.636	16.779	918.748	703.044
215.650	16.589	918.189	701.766
216.665	16.682	917.828	701.811
217.680	16.716	917.225	701.430
218.694	16.800	916.816	701.404
219.709	16.820	916.421	701.122
220.723	16.799	915.792	700.492
221.738	16.751	915.095	699.698
222.753	16.685	914.236	698.707
223.767	16.700	913.434	698.095
224.782	16.790	912.671	697.820
225.796	16.902	912.078	697.767
226.811	16.894	911.335	697.102
227.826	16.882	910.669	696.484
228.840	16.900	909.700	695.753
229.855	16.790	908.988	694.696
230.869	16.815	908.578	694.425
231.884	16.692	907.980	693.403
232.899	16.717	907.296	692.922
233.913	16.488	906.954	691.660
234.928	16.762	905.747	691.799
235.942	16.761	904.831	691.034
236.957	16.604	904.440	690.032
237.972	16.591	904.047	689.619
238.986	16.728	903.058	689.360
240.001	16.662	902.546	688.644
241.015	16.647	901.978	688.085
242.030	16.788	901.228	688.026
243.045	16.834	900.912	687.911
244.059	16.820	899.791	686.936
245.074	16.933	899.296	686.956
246.088	16.954	898.956	686.719
247.103	16.996	898.141	686.206
248.117	17.055	897.584	685.960
249.132	17.094	897.392	685.911
250.147	17.275	897.108	686.361
251.161	17.315	896.173	685.749
252.176	17.367	895.618	685.471
253.190	17.559	894.127	685.043
254.205	17.448	894.506	684.826
255.220	17.536	893.951	684.693
256.234	17.610	892.688	683.962
257.249	17.553	892.108	683.230
258.263	17.524	891.595	682.660
259.278	17.579	891.033	682.391
260.293	17.538	890.422	681.697
261.307	17.500	890.174	681.295
262.322	17.575	889.544	681.052
263.336	17.638	889.149	680.940
264.351	17.740	888.414	680.724
265.366	17.680	887.908	680.036
266.380	17.728	886.811	679.328
267.395	17.665	886.306	678.632
268.409	17.553	885.932	677.837
269.424	17.588	884.775	677.033
270.439	17.558	884.178	676.397
271.453	17.573	883.512	675.890
272.468	17.546	882.238	674.745
273.482	17.570	881.922	674.539
274.497	17.522	881.583	674.030
275.512	17.425	880.983	673.128
276.526	17.482	880.245	672.732
277.541	17.493	879.422	672.084
278.555	17.538	879.031	671.905
279.570	17.781	878.208	672.175
280.585	17.716	877.932	671.649
281.599	17.811	877.344	671.513
282.614	17.763	876.619	670.708
283.628	17.861	875.569	670.231
284.643	17.766	875.431	669.693
285.657	17.695	874.749	668.834
286.672	17.708	874.333	668.509
287.687	17.713	873.726	668.003
288.701	17.667	873.525	667.609
289.716	17.771	872.442	667.130
290.730	17.880	872.206	667.316
291.745	17.830	871.516	666.534
292.760	17.902	870.684	666.119
293.774	17.919	870.162	665.728
294.789	18.053	869.433	665.635
295.803	18.044	868.781	665.041
296.818	17.808	868.209	663.626
297.833	17.735	867.799	662.970
298.847	17.846	867.147	662.847
299.862	17.970	866.378	662.680
300.876	17.867	865.785	661.767
301.891	17.897	865.084	661.289
302.906	18.089	864.299	661.375
303.920	17.996	864.368	661.007
304.935	18.182	863.343	660.884
305.949	18.342	862.679	660.937
306.964	18.266	861.693	659.829
307.979	18.077	861.208	658.671
308.993	18.148	860.742	658.529
310.008	18.169	860.177	658.122
311.022	18.287	859.508	658.005
312.037	18.301	859.242	657.795
313.052	18.052	859.013	656.607
314.066	18.191	857.635	656.028
315.081	17.932	857.394	654.793
316.095	17.898	857.012	654.314
317.110	18.129	856.084	654.431
318.125	18.023	855.791	653.742
319.139	18.149	855.352	653.829
320.154	18.077	855.038	653.258
321.168	18.069	854.249	652.566
322.183	18.110	853.462	652.063
323.197	18.043	853.010	651.404
324.212	18.183	852.531	651.514
325.227	18.093	852.164	650.835
326.241	18.097	851.684	650.425
327.256	18.163	851.100	650.173
328.270	18.234	850.231	649.723
329.285	18.106	849.619	648.712
330.300	18.123	848.938	648.197
331.314	18.134	848.652	647.964
332.329	18.207	847.767	647.508
333.343	18.386	846.955	647.507
334.358	18.399	846.491	647.143
335.373	18.427	846.273	647.026
336.387	18.232	845.861	645.918
337.402	18.370	845.299	645.951
338.416	18.524	844.409	645.793
339.431	18.619	844.160	645.904
340.446	18.508	843.677	645.059
341.460	18.614	843.181	645.020
342.475	18.794	842.428	645.064
343.489	18.685	842.054	644.313
344.504	18.588	841.709	643.626
345.519	18.796	841.458	644.157
346.533	18.926	840.649	643.970
347.548	18.750	840.220	642.924
348.562	18.781	839.469	642.408
349.577	18.487	838.838	640.772
350.592	18.625	838.100	640.664
351.606	18.657	837.672	640.402
352.621	18.602	837.068	639.677
353.635	18.618	836.811	639.485
354.650	18.644	836.441	639.242
355.665	18.600	835.975	638.666
356.679	18.737	835.310	638.610
357.694	18.854	834.821	638.616
358.708	18.777	834.235	637.824
359.723	18.775	833.692	637.344
360.738	18.663	833.146	636.454
361.752	18.636	832.846	636.068
362.767	18.765	832.274	636.055
363.781	18.653	832.435	635.707
364.796	18.798	831.715	635.639
365.810	19.052	830.917	635.910
366.825	19.061	830.813	635.809
367.840	19.077	830.678	635.708
368.854	19.090	829.746	634.985
369.869	19.102	829.159	634.524
370.883	19.023	828.646	633.785
371.898	18.996	828.083	633.199
372.913	19.048	827.873	633.173
373.927	19.129	827.064	632.798
374.942	19.103	826.157	631.950
375.956	18.898	825.879	630.931
376.971	19.178	824.977	631.213
377.986	19.314	824.368	631.187
379.000	19.246	824.607	631.064
380.015	19.322	823.999	630.821
381.029	19.387	822.948	630.201
382.044	19.341	822.605	629.713
383.059	19.261	822.430	629.233
384.073	19.352	821.552	628.835
385.088	19.370	820.705	628.197
386.102	19.262	820.349	627.476
387.117	19.185	819.879	626.781
388.132	19.077	819.391	625.959
389.146	19.146	818.781	625.689
390.161	19.309	818.117	625.718
391.175	19.491	817.620	625.942
392.190	19.505	817.498	625.846
393.205	19.382	817.277	625.172
394.219	19.553	816.357	625.036
395.234	19.319	816.057	623.902
396.248	19.186	815.542	622.973
397.263	19.196	814.870	622.438
398.278	19.109	814.955	622.134
399.292	19.052	814.267	621.348
400.307	18.952	814.079	620.790
401.321	19.119	813.371	620.798
402.336	19.255	812.633	620.668
403.350	19.247	812.781	620.698
404.365	19.336	812.164	620.492
405.380	19.448	811.559	620.380
406.394	19.463	811.452	620.294
407.409	19.606	810.985	620.397
408.423	19.678	810.382	620.138
409.438	19.440	810.171	619.070
410.453	19.624	809.540	619.191
411.467	19.741	808.983	619.130
412.482	19.853	808.722	619.278
413.496	19.815	808.033	618.557
414.511	19.928	807.817	618.741
415.526	19.926	807.564	618.485
416.540	19.807	807.103	617.654
417.555	19.687	806.649	616.823
418.569	19.708	806.056	616.389
419.584	19.851	805.786	616.638
420.599	19.863	805.218	616.192
421.613	154.651	1369.575	1786.814
422.628	134.228	1451.804	1786.932
