DTS Sentinel unit serial number:	SN413079Multiplexer serial number:	ORYXHardware model number:	OX4-SRSoftware version number:	ORYX F/W v4.00 Oryx Data Collector v3.7.2.0data status	okinstallation	princeton_trtdifferential loss correction	single-endedforward channel	channel 3reverse channel	N/Adate	2019/09/16time	21:56:34forward acquisition time	60.00reverse acquisition time	0.00gamma	496.2192k internal	0.2325k external	0.2325temperature offset calibration	0.9938default loss term (dB/km)	0.3790temperature slope calibration	1.0000multiplexer offset coefficient	1.0000multiplexer slope coefficient	1.0000fibre end	0.00T internal ref (°C)	31.19T ext. ref 1 (°C)	0.06T ext. ref 2 (°C)	25.51length (m)	temperature (°C)	Stokes	anti-Stokes-747.200	800.000	-0.120	0.378
-746.185	11.551	0.476	0.368
-745.171	800.000	0.068	0.257
-744.156	-36.237	-0.149	-0.081
-743.142	800.000	-0.025	-0.104
-742.127	-149.670	0.171	-0.014
-741.112	-200.000	0.056	-0.341
-740.098	-21.095	-0.215	0.133
-739.083	-92.895	-0.176	0.050
-738.069	-200.000	0.023	-0.286
-737.054	164.130	0.126	0.179
-736.039	-200.000	-0.020	-0.197
-735.025	-82.727	0.283	0.092
-734.010	560.408	0.039	0.094
-732.996	337.059	-0.150	-0.293
-731.981	390.829	-0.022	0.045
-730.966	331.458	0.104	-0.202
-729.952	800.000	-0.059	0.175
-728.937	800.000	-0.133	-0.383
-727.923	496.803	0.101	-0.235
-726.908	-124.894	-0.153	-0.024
-725.894	338.133	0.081	-0.159
-724.879	-4.254	0.271	-0.189
-723.864	-200.000	0.072	-0.355
-722.850	233.594	-0.140	-0.232
-721.835	-200.000	-0.014	-0.338
-720.821	-200.000	0.003	0.142
-719.806	800.000	-0.077	-0.315
-718.791	-27.629	0.064	0.037
-717.777	-155.248	-0.368	0.024
-716.762	219.067	-0.190	-0.306
-715.748	20.924	0.193	0.158
-714.733	800.000	-0.024	-0.066
-713.718	666.376	0.077	0.200
-712.704	517.120	-0.069	-0.163
-711.689	-147.589	0.119	0.010
-710.675	5.141	-0.239	-0.177
-709.660	-138.459	0.146	0.016
-708.645	-200.000	-0.006	0.207
-707.631	-165.241	-0.077	0.003
-706.616	248.813	0.137	0.233
-705.602	-155.894	0.377	-0.024
-704.587	13.194	0.093	-0.073
-703.572	91.309	0.150	-0.170
-702.558	-77.012	-0.142	0.050
-701.543	66.146	0.140	0.143
-700.529	117.667	0.134	0.167
-699.514	800.000	-0.105	0.375
-698.499	316.610	-0.016	0.031
-697.485	307.156	-0.107	-0.200
-696.470	-35.888	-0.197	0.107
-695.456	800.000	0.050	0.158
-694.441	-200.000	-0.020	-0.145
-693.426	-126.518	0.181	0.027
-692.412	108.322	0.186	-0.223
-691.397	397.847	-0.126	-0.265
-690.383	-49.737	-0.478	0.229
-689.368	242.528	0.257	-0.432
-688.354	-44.997	-0.143	-0.071
-687.339	341.727	0.102	-0.202
-686.324	772.519	-0.070	-0.192
-685.310	3.067	-0.137	0.100
-684.295	-4.663	-0.245	-0.170
-683.281	4.399	0.084	0.062
-682.266	-104.508	-0.075	0.017
-681.251	96.592	0.106	-0.122
-680.237	-25.079	-0.161	-0.096
-679.222	88.732	0.113	-0.127
-678.208	-38.445	-0.087	0.046
-677.193	-148.200	-0.166	-0.014
-676.178	115.111	0.243	-0.298
-675.164	500.868	-0.067	0.156
-674.149	227.664	-0.066	-0.108
-673.135	14.525	-0.046	0.036
-672.120	-135.688	-0.367	-0.044
-671.105	-45.336	0.059	0.029
-670.091	-21.422	0.125	0.077
-669.076	-7.674	0.225	-0.153
-668.062	32.894	0.040	0.035
-667.047	-123.597	-0.202	-0.032
-666.032	-62.388	-0.153	-0.064
-665.018	800.000	-0.125	-0.387
-664.003	360.314	0.112	-0.225
-662.989	-108.721	0.245	-0.053
-661.974	-200.000	-0.005	0.235
-660.959	-67.332	0.014	-0.006
-659.945	-200.000	0.006	-0.099
-658.930	9.803	0.259	0.198
-657.916	562.004	0.081	0.198
-656.901	800.000	-0.157	0.456
-655.886	-86.399	-0.211	-0.065
-654.872	28.160	0.094	-0.080
-653.857	112.808	-0.065	0.080
-652.843	82.807	0.066	-0.072
-651.828	350.302	0.140	-0.278
-650.814	-172.195	0.276	0.009
-649.799	-129.782	0.165	-0.023
-648.784	46.516	-0.262	-0.244
-647.770	3.790	-0.067	-0.049
-646.755	63.706	0.291	-0.294
-645.741	-8.465	-0.104	-0.070
-644.726	83.127	0.103	0.113
-643.711	-167.283	-0.219	0.009
-642.697	-49.940	-0.430	0.205
-641.682	44.629	0.202	0.187
-640.668	-39.515	-0.038	-0.020
-639.653	89.315	-0.259	0.290
-638.638	-53.825	-0.236	-0.108
-637.624	148.514	0.177	-0.240
-636.609	246.031	0.076	0.128
-635.595	-85.571	-0.082	-0.026
-634.580	-4.589	0.236	-0.164
-633.565	-91.886	0.228	-0.065
-632.551	-18.736	-0.278	0.174
-631.536	-31.556	-0.157	-0.089
-630.522	-200.000	0.001	0.007
-629.507	605.826	-0.132	-0.330
-628.492	-32.684	-0.097	-0.054
-627.478	-95.008	-0.158	0.043
-626.463	-109.116	0.121	0.026
-625.449	-186.413	0.217	-0.003
-624.434	-94.584	0.115	-0.032
-623.419	459.532	0.037	-0.082
-622.405	-118.126	-0.406	0.073
-621.390	-52.612	0.418	-0.194
-620.376	126.492	0.072	0.092
-619.361	-139.303	-0.226	0.024
-618.346	474.895	0.101	-0.230
-617.332	80.477	-0.326	-0.353
-616.317	-71.180	0.140	-0.053
-615.303	-29.172	-0.295	0.170
-614.288	443.604	0.077	0.169
-613.273	-100.231	-0.170	0.043
-612.259	-82.990	-0.136	-0.044
-611.244	-100.344	0.301	-0.075
-610.230	-93.885	-0.405	0.112
-609.215	22.474	-0.083	0.068
-608.201	800.000	-0.062	0.198
-607.186	23.677	0.200	0.166
-606.171	-91.952	0.075	0.021
-605.157	-7.323	0.084	-0.057
-604.142	129.388	-0.028	-0.036
-603.128	-43.187	0.224	-0.114
-602.113	148.750	0.308	0.418
-601.098	-49.470	0.262	0.125
-600.084	800.000	-0.125	0.478
-599.069	-3.501	-0.063	-0.044
-598.055	-109.771	-0.117	-0.025
-597.040	800.000	0.071	-0.257
-596.025	-200.000	-0.073	0.467
-595.011	220.449	-0.040	-0.065
-593.996	58.647	0.198	0.195
-592.982	95.638	-0.059	-0.067
-591.967	-200.000	0.006	-0.063
-590.952	-117.856	0.151	-0.027
-589.938	52.050	-0.108	-0.103
-588.923	227.166	-0.102	-0.166
-587.909	-68.639	0.127	-0.050
-586.894	-70.213	0.067	-0.026
-585.879	-106.056	0.056	-0.013
-584.865	-200.000	0.023	0.126
-583.850	5.918	-0.089	0.066
-582.836	-67.787	-0.285	0.112
-581.821	-85.532	-0.271	-0.085
-580.806	-200.000	0.084	-0.000
-579.792	-200.000	-0.079	0.530
-578.777	308.907	0.081	-0.152
-577.763	-200.000	-0.021	-0.404
-576.748	-27.515	0.141	0.082
-575.733	-144.062	0.107	-0.010
-574.719	28.349	0.256	0.216
-573.704	166.822	-0.105	0.149
-572.690	366.704	0.043	-0.087
-571.675	566.541	0.071	0.172
-570.661	800.000	-0.057	-0.199
-569.646	800.000	-0.072	-0.270
-568.631	-63.063	0.100	0.042
-567.617	-200.000	-0.034	0.263
-566.602	-162.326	-0.074	0.004
-565.588	-29.753	0.358	0.205
-564.573	523.276	-0.063	0.149
-563.558	437.572	0.017	-0.038
-562.544	-115.478	0.259	-0.049
-561.529	800.000	0.063	-0.228
-560.515	156.181	-0.029	0.040
-559.500	-200.000	0.056	0.380
-558.485	231.056	-0.021	0.034
-557.471	6.125	0.110	-0.082
-556.456	117.383	-0.113	-0.140
-555.442	90.706	0.132	-0.148
-554.427	16.137	0.146	0.115
-553.412	800.000	0.063	-0.181
-552.398	-29.094	0.294	-0.169
-551.383	123.682	-0.219	-0.275
-550.369	-47.890	0.245	-0.119
-549.354	100.482	-0.164	-0.191
-548.339	-200.000	0.009	0.178
-547.325	-73.268	-0.087	-0.032
-546.310	-108.493	0.127	0.027
-545.296	-68.054	-0.064	0.025
-544.281	174.758	-0.142	0.205
-543.266	-1.765	0.339	-0.239
-542.252	-200.000	0.016	-0.232
-541.237	-60.956	-0.046	-0.019
-540.223	-200.000	0.102	0.722
-539.208	303.972	-0.078	-0.145
-538.193	800.000	-0.107	-0.424
-537.179	800.000	-0.073	-0.291
-536.164	252.147	-0.107	-0.182
-535.150	-62.296	0.214	-0.089
-534.135	800.000	-0.033	-0.099
-533.121	681.553	0.069	-0.179
-532.106	-133.589	-0.092	0.012
-531.091	800.000	0.006	-0.022
-530.077	800.000	-0.097	-0.277
-529.062	389.946	-0.124	0.258
-528.048	259.044	-0.099	-0.171
-527.033	-55.943	-0.224	0.100
-526.018	-137.653	-0.128	-0.014
-525.004	-127.627	0.098	-0.014
-523.989	-200.000	0.005	0.051
-522.975	40.449	0.169	-0.152
-521.960	-94.560	0.203	-0.055
-520.945	-67.229	-0.144	-0.057
-519.931	766.847	-0.099	-0.268
-518.916	84.872	-0.160	-0.175
-517.902	90.330	-0.109	0.121
-516.887	-53.365	0.329	0.151
-515.872	-76.173	-0.134	0.047
-514.858	800.000	-0.112	-0.370
-513.843	-107.932	0.456	-0.099
-512.829	-200.000	-0.011	-0.102
-511.814	-200.000	0.000	0.020
-510.799	-200.000	-0.079	-0.428
-509.785	-79.705	0.096	-0.032
-508.770	-88.281	0.423	0.127
-507.756	-200.000	-0.008	-0.043
-506.741	-44.867	-0.342	-0.170
-505.726	-193.057	-0.048	0.000
-504.712	69.109	-0.084	-0.086
-503.697	-125.223	0.527	-0.081
-502.683	423.924	-0.105	0.225
-501.668	-154.743	-0.118	0.008
-500.653	-107.775	-0.113	0.025
-499.639	-107.346	-0.328	-0.072
-498.624	800.000	0.099	0.290
-497.610	499.964	0.039	0.090
-496.595	42.293	-0.064	-0.058
-495.581	800.000	0.040	-0.159
-494.566	251.357	0.086	0.147
-493.551	-143.313	-0.494	-0.047
-492.537	366.137	0.196	0.395
-491.522	-22.968	-0.148	0.089
-490.508	44.311	0.207	0.190
-489.493	123.856	-0.123	-0.155
-488.478	-20.683	0.123	0.076
-487.464	-101.600	-0.112	0.027
-486.449	800.000	-0.050	0.162
-485.435	161.953	0.162	0.227
-484.420	-136.778	-0.282	-0.032
-483.405	-80.213	0.162	0.054
-482.391	-200.000	0.011	-0.235
-481.376	394.190	-0.030	0.063
-480.362	-9.065	0.186	0.125
-479.347	89.987	-0.040	-0.045
-478.332	-200.000	-0.008	0.221
-477.318	0.145	0.196	0.140
-476.303	-49.644	0.387	0.184
-475.289	-85.919	-0.340	0.105
-474.274	-96.102	0.016	0.004
-473.259	-51.800	-0.370	0.172
-472.245	-30.658	0.208	0.118
-471.230	110.209	0.162	0.194
-470.216	244.182	0.089	0.149
-469.201	-200.000	0.015	0.106
-468.186	-24.883	0.316	-0.187
-467.172	-117.983	0.155	-0.028
-466.157	-3.939	0.205	-0.142
-465.143	-200.000	-0.030	-0.173
-464.128	800.000	0.027	-0.083
-463.113	-200.000	-0.039	-0.281
-462.099	-83.566	0.354	-0.113
-461.084	-44.220	-0.204	-0.102
-460.070	321.483	-0.082	0.156
-459.055	-24.296	0.136	-0.081
-458.040	-174.225	0.057	0.002
-457.026	-0.834	-0.328	0.232
-456.011	44.629	-0.200	-0.183
-454.997	800.000	0.058	-0.203
-453.982	-101.667	0.137	-0.033
-452.968	88.068	-0.160	-0.177
-451.953	580.988	0.112	0.274
-450.938	-200.000	-0.022	-0.115
-449.924	367.686	-0.179	-0.360
-448.909	-200.000	0.001	-0.137
-447.895	800.000	-0.073	0.213
-446.880	-200.000	-0.031	0.260
-445.865	800.000	-0.036	-0.106
-444.851	-114.198	-0.195	0.038
-443.836	-143.192	-0.244	0.023
-442.822	-200.000	-0.022	0.309
-441.807	-160.551	-0.242	0.013
-440.792	293.701	-0.119	-0.218
-439.778	103.399	0.174	0.204
-438.763	-45.361	0.225	-0.111
-437.749	-84.327	0.224	0.071
-436.734	96.771	-0.234	-0.267
-435.719	-126.780	0.253	-0.037
-434.705	-170.540	-0.123	0.004
-433.690	-20.351	-0.098	-0.060
-432.676	-159.725	0.416	-0.023
-431.661	-59.688	0.340	0.145
-430.646	289.253	-0.168	-0.304
-429.632	767.461	-0.010	-0.026
-428.617	40.476	0.138	0.124
-427.603	169.895	0.093	-0.132
-426.588	219.219	-0.117	-0.187
-425.573	-174.644	0.267	0.008
-424.559	390.459	-0.056	-0.117
-423.544	-124.593	-0.211	-0.033
-422.530	-200.000	-0.071	0.000
-421.515	800.000	0.048	0.196
-420.500	800.000	-0.059	0.191
-419.486	3.695	-0.339	-0.246
-418.471	68.413	-0.198	-0.202
-417.457	100.448	-0.092	0.106
-416.442	-81.388	0.009	-0.003
-415.428	-174.438	-0.165	-0.005
-414.413	61.887	-0.092	-0.092
-413.398	-173.940	-0.430	0.013
-412.384	800.000	0.069	0.206
-411.369	-118.229	-0.194	-0.034
-410.355	496.857	0.167	0.383
-409.340	-103.828	-0.101	0.024
-408.325	-200.000	0.014	-0.221
-407.311	-148.241	0.471	0.039
-406.296	268.361	-0.053	-0.093
-405.282	-13.798	0.256	0.165
-404.267	21.050	0.444	-0.359
-403.252	-128.431	0.198	0.028
-402.238	200.407	-0.198	0.304
-401.223	-46.147	0.305	-0.150
-400.209	284.140	-0.120	-0.215
-399.194	-2.308	-0.044	-0.031
-398.179	-200.000	0.001	-0.180
-397.165	-200.000	0.024	0.155
-396.150	-155.946	0.333	-0.021
-395.136	-10.922	0.178	0.117
-394.121	-5.922	0.228	-0.156
-393.106	-200.000	-0.060	-0.329
-392.092	265.490	0.123	0.213
-391.077	800.000	-0.053	-0.157
-390.063	-200.000	-0.014	-0.140
-389.048	-60.771	-0.268	0.113
-388.033	-181.099	0.307	-0.006
-387.019	-67.423	0.201	0.078
-386.004	800.000	0.027	0.079
-384.990	385.177	-0.073	-0.149
-383.975	194.941	0.077	0.117
-382.960	800.000	0.032	0.091
-381.946	-80.324	-0.147	-0.049
-380.931	-200.000	-0.008	-0.037
-379.917	-200.000	0.002	-0.069
-378.902	800.000	0.018	-0.060
-377.888	246.101	-0.060	-0.101
-376.873	-68.496	0.085	0.033
-375.858	-4.574	0.116	-0.080
-374.844	188.553	0.080	0.119
-373.829	-42.179	0.227	-0.115
-372.815	271.663	-0.127	0.223
-371.800	-97.305	-0.119	-0.031
-370.785	4.643	-0.392	-0.286
-369.771	618.950	-0.091	0.229
-368.756	-159.466	0.171	-0.009
-367.742	358.341	-0.027	0.053
-366.727	-173.595	0.080	0.002
-365.712	778.606	0.085	0.230
-364.698	137.012	-0.205	0.266
-363.683	800.000	-0.076	-0.236
-362.669	-176.277	0.370	-0.010
-361.654	76.151	0.172	-0.181
-360.639	444.169	-0.166	0.362
-359.625	-200.000	-0.004	0.121
-358.610	419.593	0.110	-0.235
-357.596	-200.000	-0.003	0.047
-356.581	800.000	0.081	0.294
-355.566	218.407	-0.207	0.329
-354.552	111.143	0.335	-0.401
-353.537	712.335	-0.123	0.324
-352.523	-121.689	-0.102	-0.017
-351.508	-147.798	0.464	0.039
-350.493	376.025	-0.111	0.226
-349.479	-26.375	0.458	-0.267
-348.464	27.169	-0.213	-0.178
-347.450	50.317	0.147	0.138
-346.435	-99.332	-0.134	0.034
-345.420	-127.984	0.224	0.032
-344.406	124.251	0.184	0.229
-343.391	5.925	0.075	-0.055
-342.377	-5.860	0.199	0.135
-341.362	-45.407	0.216	0.106
-340.348	800.000	-0.086	0.316
-339.333	-55.516	0.041	0.018
-338.318	38.295	0.349	0.309
-337.304	-101.832	-0.257	-0.062
-336.289	-139.076	-0.123	0.013
-335.275	-61.880	-0.154	0.064
-334.260	-70.539	0.168	-0.063
-333.245	181.285	-0.144	0.210
-332.231	157.302	0.200	-0.275
-331.216	-200.000	-0.010	-0.202
-330.202	356.451	-0.120	-0.238
-329.187	800.000	-0.046	0.151
-328.172	22.747	0.037	0.030
-327.158	-31.652	0.077	-0.043
-326.143	800.000	0.062	0.216
-325.129	188.352	0.034	0.050
-324.114	15.553	-0.318	-0.248
-323.099	180.718	-0.114	-0.166
-322.085	140.775	0.126	-0.165
-321.070	800.000	0.091	0.295
-320.056	-200.000	0.035	-0.201
-319.041	-1.045	0.225	0.158
-318.026	-90.599	0.310	-0.089
-317.012	205.614	-0.172	0.265
-315.997	-36.025	0.191	-0.103
-314.983	-45.735	-0.208	-0.102
-313.968	-46.246	-0.037	0.018
-312.953	800.000	0.044	-0.140
-311.939	-119.247	-0.229	0.040
-310.924	-200.000	0.015	0.340
-309.910	-127.455	-0.244	-0.035
-308.895	-27.980	0.456	0.262
-307.880	-200.000	-0.012	-0.060
-306.866	-87.743	0.203	0.061
-305.851	-200.000	0.005	-0.223
-304.837	-200.000	-0.002	0.203
-303.822	-200.000	-0.038	0.281
-302.807	-179.018	-0.220	-0.005
-301.793	63.737	-0.085	0.085
-300.778	-46.237	0.332	-0.162
-299.764	39.180	-0.195	0.173
-298.749	-200.000	-0.014	0.189
-297.735	635.893	-0.174	0.439
-296.720	220.347	0.014	-0.022
-295.705	800.000	-0.070	0.286
-294.691	68.219	-0.135	0.138
-293.676	-200.000	0.023	0.119
-292.662	-120.900	0.251	-0.042
-291.647	-25.906	0.124	0.073
-290.632	5.698	-0.117	0.085
-289.618	800.000	0.106	-0.294
-288.603	121.222	-0.177	0.219
-287.589	32.332	0.159	0.136
-286.574	-200.000	-0.070	0.316
-285.559	800.000	-0.061	-0.177
-284.545	-58.962	0.099	0.042
-283.530	145.535	-0.167	-0.222
-282.516	266.548	0.135	-0.233
-281.501	-101.748	-0.292	-0.070
-280.486	-19.942	-0.207	-0.126
-279.472	-114.076	-0.137	0.026
-278.457	89.064	-0.174	0.192
-277.443	-200.000	-0.001	-0.010
-276.428	225.867	-0.108	0.173
-275.413	689.224	0.192	-0.499
-274.399	-200.000	-0.042	-0.408
-273.384	-200.000	0.008	0.082
-272.370	173.586	-0.058	-0.083
-271.355	531.359	-0.106	-0.248
-270.340	260.193	0.131	0.225
-269.326	-118.802	-0.244	0.043
-268.311	-77.262	-0.257	0.089
-267.297	701.873	-0.066	-0.173
-266.282	-127.513	0.304	-0.044
-265.267	-175.901	-0.237	0.006
-264.253	239.573	-0.115	0.190
-263.238	-103.196	0.075	-0.018
-262.224	800.000	-0.096	0.321
-261.209	-200.000	-0.025	0.211
-260.195	302.155	0.024	0.045
-259.180	800.000	-0.103	-0.305
-258.165	-17.257	-0.103	0.064
-257.151	-96.205	-0.287	0.076
-256.136	557.899	0.214	-0.512
-255.122	-200.000	0.035	0.194
-254.107	-200.000	-0.042	0.431
-253.092	-79.184	-0.194	0.065
-252.078	-121.762	0.096	0.016
-251.063	-200.000	0.009	0.184
-250.049	-200.000	-0.017	0.191
-249.034	50.187	0.370	-0.346
-248.019	449.620	0.105	0.229
-247.005	-200.000	-0.033	-0.198
-245.990	800.000	0.087	-0.280
-244.976	-137.661	0.191	0.021
-243.961	183.589	-0.085	0.125
-242.946	-200.000	0.016	0.374
-241.932	100.565	0.094	-0.108
-240.917	-72.427	0.253	0.092
-239.903	-51.077	-0.546	-0.254
-238.888	31.251	-0.198	-0.168
-237.873	800.000	-0.084	-0.344
-236.859	-77.534	-0.348	0.119
-235.844	-121.827	0.007	0.001
-234.830	32.014	-0.161	-0.138
-233.815	-200.000	-0.024	-0.189
-232.800	-119.086	0.278	-0.048
-231.786	-200.000	-0.004	-0.035
-230.771	-20.946	-0.130	0.079
-229.757	-117.171	-0.411	0.074
-228.742	-87.595	-0.333	-0.100
-227.727	608.573	0.020	0.050
-226.713	-52.514	0.225	-0.103
-225.698	714.671	0.070	-0.183
-224.684	800.000	0.045	0.144
-223.669	-200.000	-0.023	-0.117
-222.655	-200.000	-0.020	-0.203
-221.640	308.632	-0.075	0.138
-220.625	-200.000	-0.023	0.147
-219.611	97.021	-0.081	-0.092
-218.596	-81.875	0.265	-0.086
-217.582	397.875	0.082	0.169
-216.567	-200.000	-0.011	0.109
-215.552	15.308	-0.071	0.055
-214.538	64.416	-0.184	0.183
-213.523	-170.080	0.401	-0.014
-212.509	-83.925	-0.220	-0.069
-211.494	49.806	-0.171	-0.159
-210.479	23.316	-0.263	0.214
-209.465	-60.055	-0.087	-0.037
-208.450	-90.639	0.105	0.030
-207.436	172.168	-0.218	0.309
-206.421	-200.000	0.001	0.174
-205.406	-200.000	-0.054	-0.318
-204.392	-200.000	-0.022	-0.368
-203.377	377.939	0.055	-0.111
-202.363	-116.315	0.393	0.072
-201.348	-88.027	0.337	-0.100
-200.333	560.988	0.203	-0.485
-199.319	-67.751	-0.048	-0.019
-198.304	800.000	-0.067	0.278
-197.290	-200.000	0.013	-0.459
-196.275	-200.000	-0.054	-0.248
-195.260	-57.342	-0.320	0.139
-194.246	335.703	0.075	0.143
-193.231	397.088	-0.075	0.155
-192.217	250.945	-0.126	-0.212
-191.202	259.001	-0.104	-0.177
-190.187	227.557	0.073	-0.117
-189.173	324.729	0.159	-0.300
-188.158	308.360	0.085	-0.156
-187.144	800.000	-0.095	0.343
-186.129	59.219	0.169	0.164
-185.114	114.244	-0.119	0.143
-184.100	202.323	-0.085	-0.130
-183.085	55.026	-0.201	0.192
-182.071	-54.824	-0.168	0.075
-181.056	-64.666	-0.224	-0.090
-180.042	-51.113	0.139	0.064
-179.027	-56.438	-0.348	-0.152
-178.012	-93.866	0.048	0.013
-176.998	757.351	0.231	0.617
-175.983	-46.065	-0.109	0.053
-174.969	-200.000	0.028	-0.135
-173.954	150.366	-0.148	-0.198
-172.939	515.813	-0.077	0.177
-171.925	18.288	0.224	-0.176
-170.910	-200.000	0.004	-0.127
-169.896	-105.705	-0.230	0.051
-168.881	-200.000	-0.020	0.107
-167.866	119.195	0.112	-0.137
-166.852	-200.000	-0.017	0.175
-165.837	-200.000	0.004	-0.220
-164.823	730.418	0.037	0.098
-163.808	-100.859	-0.230	0.056
-162.793	-128.400	-0.138	-0.019
-161.779	-200.000	-0.012	0.190
-160.764	495.186	0.117	0.266
-159.750	800.000	-0.027	-0.077
-158.735	-200.000	0.036	-0.173
-157.720	800.000	0.050	-0.180
-156.706	2.779	0.146	-0.104
-155.691	99.358	-0.170	0.194
-154.677	800.000	-0.108	0.297
-153.662	-39.951	-0.104	-0.054
-152.647	-97.912	0.164	-0.042
-151.633	-200.000	0.029	-0.126
-150.618	-113.472	-0.036	0.007
-149.604	800.000	-0.067	-0.197
-148.589	800.000	0.034	-0.110
-147.574	-154.636	-0.106	-0.007
-146.560	-140.666	0.151	-0.015
-145.545	381.674	0.093	-0.187
-144.531	-35.334	-0.041	0.022
-143.516	399.583	-0.053	-0.109
-142.502	-112.745	0.069	-0.014
-141.487	660.104	0.049	-0.124
-140.472	800.000	0.049	0.153
-139.458	-10.336	0.277	-0.181
-138.443	-97.150	0.330	-0.085
-137.429	-200.000	-0.058	0.290
-136.414	800.000	-0.033	-0.132
-135.399	42.507	0.255	-0.229
-134.385	-97.642	-0.411	-0.105
-133.370	334.583	-0.072	0.137
-132.356	105.153	-0.330	0.383
-131.341	-100.967	0.156	0.038
-130.326	-62.181	-0.334	-0.137
-129.312	-109.292	0.129	0.027
-128.297	-145.621	-0.319	0.028
-127.283	51.964	0.249	-0.234
-126.268	800.000	-0.050	-0.200
-125.253	32.153	-0.167	-0.142
-124.239	-66.952	0.164	-0.064
-123.224	766.096	-0.067	0.180
-122.210	-200.000	-0.025	-0.363
-121.195	235.326	0.171	-0.277
-120.180	-56.231	0.232	-0.102
-119.166	-200.000	-0.001	0.221
-118.151	524.321	-0.010	0.022
-117.137	-183.272	0.300	-0.005
-116.122	-200.000	0.068	0.339
-115.107	-68.139	0.212	0.081
-114.093	800.000	-0.041	-0.132
-113.078	81.177	-0.215	0.229
-112.064	-7.803	-0.164	-0.109
-111.049	28.169	0.227	-0.189
-110.034	-21.280	-0.246	0.148
-109.020	-200.000	-0.025	0.369
-108.005	184.232	-0.159	-0.232
-106.991	-32.425	-0.356	0.195
-105.976	473.052	0.058	0.129
-104.962	800.000	0.030	-0.103
-103.947	-75.956	0.415	-0.144
-102.932	0.007	0.195	-0.137
-101.918	-90.009	0.260	0.075
-100.903	-21.614	0.376	-0.226
-99.889	-200.000	-0.005	-0.163
-98.874	-65.911	-0.155	0.061
-97.859	-127.714	-0.216	-0.031
-96.845	-46.799	0.232	-0.111
-95.830	800.000	0.081	-0.295
-94.816	-62.323	0.304	-0.125
-93.801	22.758	0.248	0.200
-92.786	188.615	0.116	0.170
-91.772	201.149	-0.056	0.084
-90.757	-200.000	-0.012	0.070
-89.743	4.264	0.043	0.031
-88.728	-13.000	0.105	-0.067
-87.713	-200.000	-0.000	0.100
-86.699	582.458	0.050	-0.122
-85.684	-181.795	-0.227	0.004
-84.670	-13.977	0.248	-0.157
-83.655	-34.892	0.105	0.057
-82.640	-200.000	0.008	0.163
-81.626	-199.373	-0.255	0.001
-80.611	-26.193	-0.268	-0.155
-79.597	-200.000	0.009	0.070
-78.582	-159.080	0.094	0.005
-77.567	800.000	-0.034	-0.131
-76.553	-45.942	-0.072	-0.035
-75.538	4.726	0.293	0.212
-74.524	800.000	-0.106	-0.399
-73.509	271.540	0.053	-0.092
-72.494	19.100	0.304	-0.239
-71.480	705.657	0.047	-0.122
-70.465	-62.805	0.012	-0.005
-69.451	71.493	-0.068	-0.069
-68.436	-13.045	0.093	-0.060
-67.422	-119.569	-0.408	-0.069
-66.407	82.658	0.233	0.249
-65.392	34.905	-0.209	-0.180
-64.378	-200.000	-0.059	0.269
-63.363	5.029	0.126	0.091
-62.349	-200.000	0.010	0.094
-61.334	36.504	-0.959	-0.832
-60.319	13.268	0.687	0.523
-59.305	687.923	-0.399	-1.025
-58.290	112.178	0.921	1.094
-57.276	800.000	0.487	1.393
-56.261	-200.000	99.318	583.324
-55.246	513.118	1403.936	3214.914
-54.232	158.844	2573.477	3511.958
-53.217	110.581	2157.248	2547.824
-52.203	41.786	1693.184	1507.570
-51.188	34.276	1503.649	1288.214
-50.173	31.967	1476.267	1249.351
-49.159	51.546	1527.312	1425.667
-48.144	53.264	1545.458	1454.203
-47.130	34.543	1504.269	1290.343
-46.115	31.432	1489.250	1256.539
-45.100	31.279	1485.915	1252.651
-44.086	31.237	1484.205	1250.876
-43.071	31.142	1482.251	1248.545
-42.057	31.201	1480.652	1247.543
-41.042	31.155	1479.356	1246.093
-40.027	31.264	1477.464	1245.180
-39.013	31.189	1476.063	1243.447
-37.998	31.093	1475.046	1241.902
-36.984	31.140	1473.519	1240.882
-35.969	31.136	1472.134	1239.640
-34.954	31.143	1471.089	1238.754
-33.940	31.216	1469.868	1238.164
-32.925	31.182	1468.566	1236.791
-31.911	31.212	1467.332	1235.902
-30.896	31.317	1465.988	1235.416
-29.881	31.236	1465.047	1234.039
-28.867	31.303	1463.752	1233.344
-27.852	31.250	1461.808	1231.307
-26.838	31.251	1460.530	1230.187
-25.823	31.228	1459.281	1228.936
-24.809	31.247	1457.297	1227.338
-23.794	31.279	1455.660	1226.120
-22.779	31.261	1454.793	1225.223
-21.765	31.246	1454.050	1224.456
-20.750	31.267	1452.523	1223.257
-19.736	31.180	1451.590	1221.849
-18.721	31.214	1450.477	1221.090
-17.706	31.163	1449.429	1219.824
-16.692	31.200	1448.213	1218.995
-15.677	31.219	1447.428	1218.407
-14.663	31.147	1446.553	1217.152
-13.648	31.103	1445.785	1216.171
-12.633	31.169	1444.472	1215.449
-11.619	31.094	1444.504	1214.941
-10.604	31.178	1442.874	1214.069
-9.590	31.218	1441.771	1213.351
-8.575	31.141	1441.002	1212.159
-7.560	31.137	1440.250	1211.451
-6.546	31.143	1439.814	1211.073
-5.531	31.102	1438.706	1209.827
-4.517	31.158	1437.626	1209.237
-3.502	31.195	1436.357	1208.362
-2.487	31.190	1435.478	1207.542
-1.473	31.244	1434.216	1206.778
-0.458	31.137	1432.809	1204.857
0.556	29.195	1424.010	1194.115
1.571	26.243	1398.732	1153.992
2.586	22.866	1339.581	1084.393
3.600	21.182	1258.688	1009.097
4.615	19.948	1214.446	966.654
5.629	17.252	1158.217	907.443
6.644	8.678	1073.272	798.222
7.659	1.407	1032.238	732.665
8.673	0.256	1026.626	723.093
9.688	0.051	1023.802	720.057
10.702	0.006	1022.529	718.885
11.717	-0.053	1020.211	716.911
12.731	2.679	1022.750	731.682
13.746	11.268	1034.445	781.296
14.761	17.442	1041.453	816.220
15.775	17.534	1040.751	816.039
16.790	16.409	1039.087	809.274
17.804	15.339	1036.744	802.264
18.819	14.503	1035.130	796.950
19.834	14.169	1033.376	793.938
20.848	13.813	1032.537	791.524
21.863	13.523	1032.097	789.732
22.877	13.182	1031.276	787.410
23.892	13.109	1029.837	785.894
24.907	13.015	1029.529	785.143
25.921	13.045	1028.731	784.609
26.936	13.166	1027.876	784.461
27.950	13.303	1026.997	784.369
28.965	13.161	1026.869	783.530
29.980	13.112	1025.911	782.499
30.994	13.297	1024.575	782.284
32.009	13.345	1023.755	781.817
33.023	13.310	1023.348	781.272
34.038	13.275	1022.728	780.563
35.053	13.276	1021.986	779.931
36.067	13.201	1020.814	778.614
37.082	13.239	1020.437	778.437
38.096	13.212	1019.066	777.195
39.111	13.307	1018.718	777.308
40.126	13.335	1017.665	776.570
41.140	13.182	1016.661	775.014
42.155	13.142	1015.775	774.084
43.169	13.103	1015.087	773.307
44.184	12.986	1014.151	771.982
45.199	13.024	1012.859	771.104
46.213	13.058	1011.861	770.438
47.228	13.156	1010.844	770.053
48.242	13.137	1010.015	769.263
49.257	13.378	1008.708	769.320
50.271	13.147	1008.207	767.796
51.286	13.061	1007.505	766.792
52.301	13.178	1006.935	766.837
53.315	13.298	1005.494	766.226
54.330	13.086	1004.982	764.787
55.344	13.137	1004.360	764.483
56.359	13.098	1003.841	763.839
57.374	13.168	1002.114	762.779
58.388	13.190	1001.699	762.497
59.403	13.173	1000.682	761.581
60.417	12.999	1000.628	760.669
61.432	13.008	999.970	760.139
62.447	12.948	999.075	759.116
63.461	13.024	997.921	758.525
64.476	13.124	997.036	758.243
65.490	12.973	996.369	756.973
66.505	12.885	995.590	755.911
67.520	12.914	994.864	755.429
68.534	13.069	993.947	755.375
69.549	13.021	993.496	754.744
70.563	13.080	992.570	754.244
71.578	13.035	991.901	753.463
72.593	13.065	990.737	752.648
73.607	12.969	989.745	751.392
74.622	12.900	989.097	750.518
75.636	13.014	988.226	750.312
76.651	12.930	987.545	749.347
77.666	12.863	987.059	748.605
78.680	12.968	985.967	748.188
79.695	12.953	985.349	747.585
80.709	13.010	984.901	747.436
81.724	12.967	984.057	746.537
82.739	13.097	983.391	746.550
83.753	12.993	982.937	745.671
84.768	13.064	981.875	745.122
85.782	13.213	981.083	745.124
86.797	13.242	980.443	744.705
87.812	13.199	979.872	744.012
88.826	13.303	978.607	743.452
89.841	13.203	978.139	742.580
90.855	13.252	977.379	742.161
91.870	13.198	976.349	741.069
92.884	13.311	975.863	741.140
93.899	13.271	974.660	739.985
94.914	13.195	974.720	739.623
95.928	13.252	973.859	739.159
96.943	13.457	973.159	739.478
97.957	13.438	971.853	738.335
98.972	13.175	971.181	736.588
99.987	13.285	970.772	736.701
101.001	13.287	969.689	735.825
102.016	13.184	969.177	734.912
103.030	13.165	968.505	734.254
104.045	13.297	967.078	733.691
105.060	13.261	966.123	732.742
106.074	13.166	965.650	731.897
107.089	13.273	964.496	731.434
108.103	13.155	963.763	730.288
109.118	13.048	962.802	729.025
110.133	13.111	961.925	728.576
111.147	13.147	960.917	727.904
112.162	13.116	960.635	727.492
113.176	13.071	959.634	726.469
114.191	13.252	958.369	726.242
115.206	13.228	957.911	725.728
116.220	13.127	957.463	724.879
117.235	13.086	956.197	723.678
118.249	13.182	955.651	723.619
119.264	13.108	954.771	722.568
120.279	13.176	953.573	721.891
121.293	13.042	952.861	720.704
122.308	13.153	952.357	720.744
123.322	13.222	951.361	720.227
124.337	13.213	950.344	719.354
125.352	13.092	949.364	718.023
126.366	13.159	948.230	717.394
127.381	13.055	947.573	716.383
128.395	13.058	946.391	715.436
129.410	13.154	945.332	714.991
130.424	13.139	944.548	714.268
131.439	13.066	943.822	713.342
132.454	13.211	942.928	713.229
133.468	13.203	942.235	712.605
134.483	13.282	941.604	712.405
135.497	13.275	941.011	711.863
136.512	13.045	940.337	710.300
137.527	13.178	939.143	709.910
138.541	13.115	938.915	709.401
139.556	13.203	938.307	709.260
140.570	13.184	937.099	708.202
141.585	13.164	936.645	707.708
142.600	13.349	935.714	707.733
143.614	13.330	935.215	707.215
144.629	13.381	933.975	706.431
145.643	13.349	933.740	706.056
146.658	13.306	932.694	705.018
147.673	13.320	931.600	704.190
148.687	13.252	930.824	703.250
149.702	13.214	929.949	702.365
150.716	13.271	929.165	701.952
151.731	13.285	928.514	701.456
152.746	13.230	927.890	700.692
153.760	13.261	927.188	700.232
154.775	13.332	926.282	699.783
155.789	13.348	925.613	699.284
156.804	13.319	924.745	698.444
157.819	13.330	923.902	697.794
158.833	13.425	923.620	697.921
159.848	13.368	922.983	697.134
160.862	13.373	922.275	696.560
161.877	13.487	921.353	696.283
162.892	13.406	920.267	695.058
163.906	13.343	919.902	694.456
164.921	13.295	919.445	693.850
165.935	13.235	917.954	692.413
166.950	13.312	917.223	692.123
167.964	13.495	916.200	692.053
168.979	13.318	915.202	690.498
169.994	13.471	914.370	690.449
171.008	13.223	913.985	689.062
172.023	13.510	912.389	688.994
173.037	13.618	911.894	689.009
174.052	13.510	911.209	687.980
175.067	13.529	910.619	687.554
176.081	13.425	910.206	686.751
177.096	13.528	909.034	686.232
178.110	13.378	908.209	684.928
179.125	13.511	907.485	684.869
180.140	13.525	906.610	684.207
181.154	13.526	906.230	683.864
182.169	13.536	905.926	683.614
183.183	13.656	904.796	683.194
184.198	13.589	904.009	682.267
185.213	13.619	903.366	681.845
186.227	13.604	902.932	681.394
187.242	13.672	902.140	681.017
188.256	13.674	901.810	680.712
189.271	13.923	900.572	680.741
190.286	13.707	899.970	679.338
191.300	13.609	899.420	678.463
192.315	13.551	898.677	677.606
193.329	13.600	897.904	677.165
194.344	13.510	897.042	676.086
195.359	13.629	896.730	676.278
196.373	13.663	896.503	676.185
197.388	13.635	896.187	675.772
198.402	13.741	895.244	675.433
199.417	13.839	895.002	675.588
200.432	13.898	894.855	675.657
201.446	13.875	894.121	674.950
202.461	13.887	893.568	674.522
203.475	13.940	892.852	674.136
204.490	13.933	892.413	673.717
205.504	14.017	891.463	673.280
206.519	13.863	890.942	672.205
207.534	13.969	890.005	671.869
208.548	13.918	889.191	670.988
209.563	13.909	888.366	670.268
210.577	13.836	887.976	669.620
211.592	13.997	887.495	669.848
212.607	14.057	886.846	669.539
213.621	14.156	886.355	669.508
214.636	14.180	885.679	669.035
215.650	13.939	885.135	667.597
216.665	14.095	884.583	667.746
217.680	14.197	883.684	667.418
218.694	14.224	883.060	666.997
219.709	14.142	883.173	666.694
220.723	14.099	882.646	666.066
221.738	14.210	881.483	665.573
222.753	14.127	880.921	664.757
223.767	14.189	880.086	664.319
224.782	14.299	879.317	664.117
225.796	14.316	878.773	663.714
226.811	14.166	878.054	662.518
227.826	14.205	877.549	662.231
228.840	14.306	876.704	661.937
229.855	14.255	875.786	660.982
230.869	14.252	875.351	660.583
231.884	14.380	874.400	660.315
232.899	14.394	873.949	659.973
233.913	14.207	873.659	658.952
234.928	14.190	873.228	658.504
235.942	14.112	872.464	657.561
236.957	14.241	871.613	657.368
237.972	14.191	870.779	656.486
238.986	14.345	870.395	656.746
240.001	14.221	869.621	655.615
241.015	14.240	868.839	655.043
242.030	14.320	868.370	654.946
243.045	14.275	867.986	654.422
244.059	14.463	867.100	654.433
245.074	14.378	866.607	653.669
246.088	14.429	865.985	653.341
247.103	14.487	864.997	652.766
248.117	14.555	864.837	652.855
249.132	14.566	864.240	652.388
250.147	14.631	863.611	652.110
251.161	14.660	862.816	651.564
252.176	14.697	862.345	651.294
253.190	14.706	861.920	650.952
254.205	14.778	861.205	650.633
255.220	14.759	860.913	650.283
256.234	14.796	859.635	649.404
257.249	14.751	859.331	648.942
258.263	14.776	858.904	648.659
259.278	14.772	858.530	648.303
260.293	14.896	857.457	647.916
261.307	14.707	857.342	647.040
262.322	14.819	856.798	647.006
263.336	14.894	855.903	646.563
264.351	14.768	855.753	645.906
265.366	14.856	855.018	645.635
266.380	15.046	854.016	645.554
267.395	15.063	853.319	645.033
268.409	14.836	853.099	643.937
269.424	14.901	851.917	643.236
270.439	15.079	851.417	643.486
271.453	15.088	850.392	642.689
272.468	14.969	850.204	642.035
273.482	14.854	849.573	641.058
274.497	15.001	848.824	640.999
275.512	14.927	847.901	639.964
276.526	15.047	847.088	639.753
277.541	15.098	846.742	639.631
278.555	15.103	845.703	638.809
279.570	15.004	845.470	638.197
280.585	15.159	844.862	638.273
281.599	15.135	844.433	637.802
282.614	15.135	844.067	637.469
283.628	15.025	843.534	636.590
284.643	15.160	842.614	636.354
285.657	15.210	842.047	636.059
286.672	15.212	841.764	635.794
287.687	15.236	841.315	635.492
288.701	15.228	840.849	635.051
289.716	15.122	840.444	634.290
290.730	15.109	839.641	633.578
291.745	15.084	839.345	633.203
292.760	15.294	838.283	633.139
293.774	15.361	837.794	632.967
294.789	15.364	837.411	632.633
295.803	15.333	836.612	631.856
296.818	15.424	836.014	631.692
297.833	15.331	835.323	630.763
298.847	15.305	834.716	630.152
299.862	15.397	833.904	629.827
300.876	15.312	833.629	629.247
301.891	15.458	832.817	629.126
302.906	15.425	832.556	628.747
303.920	15.474	831.730	628.253
304.935	15.645	830.871	628.186
305.949	15.664	830.194	627.688
306.964	15.598	829.914	627.177
307.979	15.586	829.289	626.604
308.993	15.452	828.970	625.809
310.008	15.633	828.407	626.004
311.022	15.641	827.642	625.399
312.037	15.621	827.161	624.904
313.052	15.710	826.682	624.817
314.066	15.627	825.766	623.764
315.081	15.514	825.495	623.083
316.095	15.455	824.955	622.401
317.110	15.458	824.722	622.182
318.125	15.557	824.133	622.048
319.139	15.526	823.457	621.369
320.154	15.683	822.727	621.342
321.168	15.674	822.373	620.988
322.183	15.504	822.167	620.149
323.197	15.704	821.336	620.206
324.212	15.573	820.832	619.290
325.227	15.807	820.089	619.535
326.241	15.612	819.707	618.472
327.256	15.632	819.286	618.173
328.270	15.713	818.180	617.581
329.285	15.749	818.048	617.559
330.300	15.725	817.460	616.974
331.314	15.740	816.954	616.593
332.329	15.814	815.762	615.911
333.343	15.728	815.707	615.498
334.358	16.000	814.968	615.880
335.373	15.803	814.783	614.967
336.387	15.861	814.002	614.534
337.402	15.781	813.846	614.070
338.416	15.888	813.122	613.860
339.431	15.963	812.427	613.553
340.446	16.144	811.598	613.531
341.460	16.108	811.546	613.307
342.475	16.034	810.787	612.410
343.489	16.177	810.280	612.492
344.504	16.218	809.372	611.900
345.519	16.349	808.921	611.981
346.533	16.167	808.877	611.233
347.548	16.173	808.262	610.739
348.562	16.140	807.912	610.297
349.577	16.128	807.348	609.777
350.592	16.096	806.977	609.325
351.606	16.108	806.379	608.865
352.621	15.981	805.769	607.891
353.635	16.083	805.213	607.786
354.650	16.208	805.078	608.082
355.665	16.077	804.797	607.342
356.679	16.279	803.962	607.384
357.694	16.240	803.563	606.891
358.708	16.311	803.236	606.843
359.723	16.286	802.427	606.089
360.738	16.062	802.469	605.262
361.752	16.330	801.392	605.358
362.767	16.341	801.341	605.305
363.781	16.483	800.503	605.128
364.796	16.511	800.475	605.154
365.810	16.418	799.965	604.380
366.825	16.367	799.550	603.832
367.840	16.618	799.072	604.315
368.854	16.676	798.491	604.030
369.869	16.522	797.817	602.915
370.883	16.393	798.009	602.547
371.898	16.439	797.332	602.148
372.913	16.686	796.446	602.304
373.927	16.592	795.752	601.392
374.942	16.452	795.509	600.657
375.956	16.584	794.856	600.580
376.971	16.666	794.221	600.337
377.986	16.560	793.964	599.715
379.000	16.689	793.088	599.457
380.015	16.721	792.754	599.263
381.029	16.710	792.336	598.855
382.044	16.703	791.807	598.380
383.059	16.729	791.338	598.063
384.073	16.787	790.444	597.538
385.088	16.861	789.985	597.401
386.102	16.774	789.467	596.648
387.117	16.734	788.980	596.086
388.132	16.755	788.445	595.705
389.146	16.654	788.143	595.069
390.161	16.717	787.765	594.950
391.175	16.899	787.381	595.248
392.190	16.705	787.186	594.368
393.205	16.726	786.754	594.061
394.219	16.792	786.223	593.841
395.234	16.892	785.533	593.615
396.248	16.861	785.276	593.260
397.263	16.717	784.960	592.464
398.278	16.657	784.465	591.829
399.292	16.755	784.014	591.780
400.307	16.743	783.588	591.365
401.321	16.803	782.992	591.070
402.336	16.859	782.827	591.089
403.350	16.849	782.195	590.526
404.365	16.741	782.106	590.028
405.380	16.947	781.620	590.329
406.394	17.099	780.715	590.119
407.409	17.043	780.375	589.615
408.423	17.150	780.061	589.700
409.438	17.094	779.530	589.052
410.453	17.022	779.166	588.474
411.467	17.144	778.716	588.505
412.482	17.268	778.077	588.400
413.496	17.274	777.800	588.158
414.511	17.335	777.352	587.978
415.526	17.173	777.453	587.443
416.540	17.249	776.784	587.148
417.555	17.313	776.225	586.893
418.569	17.263	775.793	586.343
419.584	17.339	775.102	586.031
420.599	17.163	775.463	585.644
421.613	108.516	1287.704	1463.954
422.628	92.714	1362.314	1464.074
