DTS Sentinel unit serial number:	SN413079Multiplexer serial number:	ORYXHardware model number:	OX4-SRSoftware version number:	ORYX F/W v4.00 Oryx Data Collector v3.7.2.0data status	okinstallation	princeton_trtdifferential loss correction	single-endedforward channel	channel 3reverse channel	N/Adate	2019/09/11time	03:50:11forward acquisition time	60.00reverse acquisition time	0.00gamma	496.2192k internal	0.2331k external	0.2331temperature offset calibration	0.9906default loss term (dB/km)	0.3790temperature slope calibration	1.0000multiplexer offset coefficient	1.0000multiplexer slope coefficient	1.0000fibre end	0.00T internal ref (°C)	29.56T ext. ref 1 (°C)	-0.29T ext. ref 2 (°C)	23.74length (m)	temperature (°C)	Stokes	anti-Stokes-747.200	143.619	-0.128	-0.172
-746.185	-200.000	0.007	0.188
-745.171	13.241	0.128	0.099
-744.156	233.994	-0.104	-0.173
-743.142	-52.458	-0.195	-0.091
-742.127	60.140	0.179	0.178
-741.112	-88.156	-0.082	0.025
-740.098	-184.837	0.166	-0.003
-739.083	457.254	0.159	0.355
-738.069	-48.172	-0.357	-0.174
-737.054	-5.357	0.237	-0.164
-736.039	197.386	0.163	-0.250
-735.025	-200.000	0.003	-0.240
-734.010	221.141	-0.059	0.095
-732.996	107.164	0.077	0.092
-731.981	-103.958	-0.346	-0.081
-730.966	-7.652	-0.150	-0.102
-729.952	-72.707	-0.196	0.073
-728.937	436.660	0.131	0.287
-727.923	-51.010	0.434	0.205
-726.908	-58.842	0.269	0.117
-725.894	-200.000	0.017	-0.433
-724.879	608.060	-0.051	0.128
-723.864	-199.241	0.192	-0.001
-722.850	-200.000	0.002	-0.029
-721.835	-200.000	0.003	-0.098
-720.821	38.523	-0.139	0.125
-719.806	-84.255	0.304	0.097
-718.791	800.000	-0.061	-0.196
-717.777	-34.459	0.097	-0.054
-716.762	488.245	0.112	-0.256
-715.748	-200.000	-0.040	-0.416
-714.733	276.383	-0.140	-0.249
-713.718	62.266	0.085	-0.085
-712.704	387.763	-0.125	-0.259
-711.689	-171.324	0.202	-0.007
-710.675	238.665	0.144	-0.240
-709.660	-135.333	-0.062	-0.007
-708.645	56.435	0.133	0.130
-707.631	-14.339	0.307	-0.199
-706.616	167.988	-0.231	0.330
-705.602	79.644	-0.161	-0.174
-704.587	-119.181	-0.155	-0.027
-703.572	274.674	-0.078	-0.139
-702.558	290.796	0.063	0.115
-701.543	-200.000	0.059	-0.297
-700.529	800.000	-0.095	-0.280
-699.514	274.892	-0.068	-0.120
-698.499	131.830	0.135	0.175
-697.485	-57.869	-0.304	0.133
-696.470	-200.000	0.017	0.096
-695.456	-95.653	-0.210	-0.056
-694.441	-200.000	-0.016	0.200
-693.426	11.177	-0.184	0.141
-692.412	-98.760	0.111	0.028
-691.397	-124.410	-0.146	-0.023
-690.383	-183.869	-0.159	-0.003
-689.368	-36.020	-0.250	0.136
-688.354	800.000	-0.002	-0.009
-687.339	157.426	-0.137	0.190
-686.324	273.215	0.150	0.266
-685.310	59.461	-0.119	-0.118
-684.295	-200.000	0.046	-0.265
-683.281	43.915	0.128	-0.118
-682.266	-99.634	0.317	-0.080
-681.251	-40.652	-0.223	0.116
-680.237	83.350	0.186	0.204
-679.222	-69.099	0.380	0.147
-678.208	574.114	-0.153	-0.375
-677.193	5.154	-0.157	0.116
-676.178	87.093	-0.121	-0.134
-675.164	-35.998	0.210	0.114
-674.149	-3.838	0.125	-0.087
-673.135	52.649	-0.072	0.069
-672.120	383.110	-0.072	-0.149
-671.105	-24.935	0.059	0.035
-670.091	800.000	0.039	-0.112
-669.076	236.243	-0.179	-0.298
-668.062	536.246	-0.072	0.171
-667.047	-200.000	-0.005	0.072
-666.032	-200.000	-0.038	0.381
-665.018	103.973	-0.031	-0.037
-664.003	111.670	-0.104	0.126
-662.989	-10.192	0.016	-0.011
-661.974	-160.700	0.308	0.016
-660.959	23.592	-0.185	-0.153
-659.945	73.657	-0.026	0.028
-658.930	-74.168	-0.254	0.092
-657.916	-142.692	0.203	0.020
-656.901	138.260	-0.116	0.152
-655.886	-200.000	-0.061	0.571
-654.872	6.243	0.248	-0.185
-653.857	800.000	0.073	-0.259
-652.843	30.637	0.079	0.068
-651.828	-8.189	0.018	0.012
-650.814	-193.992	-0.052	-0.000
-649.799	271.863	0.097	0.171
-648.784	-99.036	0.260	0.066
-647.770	-103.134	0.286	0.068
-646.755	800.000	-0.094	-0.288
-645.741	169.139	0.076	-0.109
-644.726	682.331	-0.043	-0.114
-643.711	0.092	-0.166	-0.118
-642.697	139.099	-0.238	-0.314
-641.682	-65.106	-0.073	-0.030
-640.668	58.603	0.086	-0.084
-639.653	235.238	-0.071	-0.118
-638.638	-154.984	-0.160	-0.011
-637.624	8.081	-0.224	0.168
-636.609	180.904	0.069	0.102
-635.595	800.000	-0.097	0.309
-634.580	-115.422	0.015	0.003
-633.565	-11.694	0.104	0.069
-632.551	-200.000	-0.024	0.135
-631.536	-200.000	-0.044	-0.258
-630.522	-200.000	0.000	-0.315
-629.507	800.000	0.063	-0.260
-628.492	-57.892	0.210	0.092
-627.478	-135.394	-0.058	-0.007
-626.463	107.036	-0.155	-0.184
-625.449	8.803	-0.256	0.193
-624.434	109.758	-0.229	0.275
-623.419	-21.367	-0.051	-0.031
-622.405	-168.790	-0.282	-0.011
-621.390	800.000	0.105	-0.290
-620.376	3.752	-0.208	-0.152
-619.361	-25.140	0.302	-0.179
-618.346	-23.913	-0.034	0.021
-617.332	750.551	-0.079	-0.214
-616.317	8.389	0.099	0.075
-615.303	800.000	-0.126	0.441
-614.288	-45.651	0.100	-0.050
-613.273	-6.766	0.085	-0.058
-612.259	162.245	0.154	0.216
-611.244	-200.000	0.061	0.276
-610.230	-200.000	-0.056	-0.488
-609.215	-186.917	-0.137	0.002
-608.201	-26.751	-0.098	0.057
-607.186	800.000	0.086	0.242
-606.171	-116.557	0.194	-0.036
-605.157	800.000	0.028	-0.083
-604.142	-61.547	0.323	-0.136
-603.128	73.702	0.084	0.088
-602.113	-26.894	-0.086	-0.051
-601.098	-39.245	-0.296	-0.155
-600.084	-42.067	-0.302	-0.155
-599.069	-200.000	0.156	-0.000
-598.055	124.386	0.241	0.303
-597.040	157.798	-0.132	-0.183
-596.025	-111.009	-0.341	-0.070
-595.011	-93.691	-0.262	-0.072
-593.996	182.016	-0.183	-0.270
-592.982	-200.000	-0.008	-0.074
-591.967	72.634	-0.122	0.127
-590.952	800.000	0.080	0.332
-589.938	-200.000	0.020	0.109
-588.923	52.615	0.144	-0.138
-587.909	-95.913	-0.126	-0.034
-586.894	-107.276	-0.418	0.092
-585.879	-185.988	-0.059	-0.001
-584.865	-193.344	-0.138	-0.001
-583.850	-200.000	0.001	-0.159
-582.836	800.000	-0.081	0.284
-581.821	15.534	-0.258	0.203
-580.806	-38.058	-0.333	0.177
-579.792	800.000	0.022	-0.071
-578.777	62.758	-0.160	-0.160
-577.763	-130.255	0.178	-0.024
-576.748	127.888	-0.080	-0.102
-575.733	47.893	0.144	0.134
-574.719	129.901	-0.167	-0.214
-573.704	177.036	-0.037	-0.054
-572.690	-65.089	0.353	-0.143
-571.675	-137.105	-0.274	0.031
-570.661	800.000	0.116	-0.357
-569.646	-200.000	-0.034	0.321
-568.631	-137.107	0.164	-0.019
-567.617	-22.941	-0.277	-0.167
-566.602	-107.824	-0.118	0.026
-565.588	-75.162	0.177	-0.063
-564.573	-200.000	-0.045	-0.234
-563.558	-156.889	0.119	0.007
-562.544	-78.772	-0.250	-0.085
-561.529	28.837	0.293	-0.248
-560.515	-62.804	-0.103	-0.043
-559.500	73.563	0.121	0.127
-558.485	-114.311	-0.100	-0.019
-557.471	437.027	0.090	0.195
-556.456	-82.362	0.168	0.055
-555.442	-46.177	0.019	-0.009
-554.427	-200.000	-0.025	-0.159
-553.412	800.000	0.118	-0.439
-552.398	16.833	-0.330	0.261
-551.383	53.531	0.146	0.140
-550.369	259.939	0.150	-0.260
-549.354	-88.965	0.303	-0.090
-548.339	-200.000	0.037	0.316
-547.325	-70.809	-0.057	0.022
-546.310	76.310	0.127	0.134
-545.296	-37.150	0.333	-0.178
-544.281	97.924	0.172	-0.198
-543.266	-89.195	-0.147	0.043
-542.252	-23.782	-0.220	0.132
-541.237	-200.000	-0.031	0.143
-540.223	95.699	-0.096	-0.109
-539.208	-17.767	-0.182	-0.114
-538.193	-24.246	0.198	0.118
-537.179	-2.862	0.487	-0.340
-536.164	800.000	-0.078	-0.216
-535.150	800.000	0.041	0.156
-534.135	-200.000	0.018	-0.153
-533.121	-85.288	0.193	-0.060
-532.106	-150.792	0.397	-0.030
-531.091	172.030	-0.116	0.166
-530.077	46.964	-0.076	0.071
-529.062	-151.088	0.364	0.027
-528.048	63.007	-0.241	0.241
-527.033	-5.358	0.124	0.085
-526.018	-48.770	-0.345	-0.165
-525.004	-104.830	-0.261	0.060
-523.989	800.000	0.032	-0.092
-522.975	-126.343	0.108	-0.016
-521.960	87.069	-0.210	-0.231
-520.945	-41.017	-0.260	-0.134
-519.931	208.112	-0.038	0.059
-518.916	89.206	0.105	0.117
-517.902	-74.227	0.328	0.118
-516.887	-125.855	-0.356	-0.054
-515.872	760.526	0.053	-0.143
-514.858	-200.000	0.032	-0.000
-513.843	-118.831	-0.266	0.047
-512.829	800.000	0.042	0.177
-511.814	24.447	0.158	0.130
-510.799	-9.757	-0.245	0.163
-509.785	-43.138	0.306	-0.155
-508.770	-200.000	0.038	0.233
-507.756	535.488	0.096	-0.227
-506.741	15.429	0.084	0.066
-505.726	-158.471	0.326	0.019
-504.712	-111.380	-0.224	0.046
-503.697	-38.015	-0.020	0.011
-502.683	57.407	0.248	0.242
-501.668	-114.380	-0.139	-0.027
-500.653	-37.615	-0.173	0.092
-499.639	36.778	-0.215	-0.190
-498.624	172.107	-0.096	0.137
-497.610	-100.048	-0.281	-0.070
-496.595	-114.646	0.284	0.054
-495.581	-200.000	0.012	0.241
-494.566	90.265	0.165	-0.184
-493.551	-38.127	0.102	0.054
-492.537	258.415	0.139	0.239
-491.522	-79.606	-0.328	0.110
-490.508	-20.053	-0.193	0.119
-489.493	-20.663	0.137	0.084
-488.478	202.909	-0.170	0.261
-487.464	-200.000	0.030	0.212
-486.449	92.903	-0.149	-0.167
-485.435	-200.000	-0.024	0.154
-484.420	800.000	-0.065	-0.184
-483.405	308.613	0.234	-0.436
-482.391	-69.025	0.175	0.067
-481.376	800.000	-0.014	-0.052
-480.362	673.296	0.028	0.074
-479.347	720.302	-0.036	-0.097
-478.332	39.109	0.243	0.217
-477.318	126.443	0.149	0.188
-476.303	642.308	0.149	-0.378
-475.289	800.000	-0.096	0.273
-474.274	308.917	-0.114	0.212
-473.259	-21.362	0.212	-0.129
-472.245	-200.000	0.017	0.147
-471.230	13.909	-0.162	-0.126
-470.216	32.652	-0.177	0.153
-469.201	-127.099	-0.198	-0.029
-468.186	-166.642	-0.158	0.007
-467.172	586.670	0.075	-0.184
-466.157	-59.231	-0.028	0.012
-465.143	596.144	-0.041	0.102
-464.128	373.340	-0.083	-0.167
-463.113	-200.000	0.003	-0.145
-462.099	656.529	-0.057	-0.146
-461.084	-200.000	0.025	0.231
-460.070	800.000	0.091	0.254
-459.055	-200.000	0.032	0.313
-458.040	-59.636	-0.397	0.170
-457.026	-69.356	-0.059	-0.023
-456.011	52.329	-0.191	-0.182
-454.997	-39.909	-0.119	-0.062
-453.982	-8.610	-0.336	-0.225
-452.968	800.000	0.058	-0.178
-451.953	-200.000	-0.020	-0.155
-450.938	606.824	-0.143	-0.355
-449.924	-200.000	-0.009	-0.052
-448.909	-200.000	-0.003	0.019
-447.895	-54.390	-0.108	-0.049
-446.880	26.711	0.282	-0.235
-445.865	-18.129	-0.024	-0.015
-444.851	10.628	-0.125	0.095
-443.836	-33.996	-0.166	0.091
-442.822	-156.541	0.379	-0.023
-441.807	-0.007	0.194	0.137
-440.792	800.000	-0.098	-0.323
-439.778	246.795	0.053	0.089
-438.763	-61.621	0.279	-0.116
-437.749	-93.308	0.216	-0.060
-436.734	-27.527	0.225	-0.130
-435.719	233.505	0.188	-0.308
-434.705	-171.186	-0.181	0.006
-433.690	-109.367	0.481	-0.101
-432.676	-49.494	-0.131	0.062
-431.661	800.000	0.065	-0.198
-430.646	800.000	-0.087	-0.347
-429.632	-174.850	0.169	-0.005
-428.617	-5.717	0.133	0.090
-427.603	-200.000	0.026	-0.116
-426.588	116.494	0.075	0.091
-425.573	69.305	0.157	0.160
-424.559	-200.000	-0.001	0.048
-423.544	-94.987	0.231	0.062
-422.530	-12.879	-0.290	-0.188
-421.515	-200.000	-0.012	0.107
-420.500	57.294	0.189	-0.183
-419.486	35.551	-0.177	0.155
-418.471	32.545	0.326	-0.280
-417.457	-98.608	0.159	-0.040
-416.442	-45.271	0.315	-0.156
-415.428	800.000	-0.026	0.107
-414.413	97.467	-0.233	0.266
-413.398	-6.555	0.299	-0.202
-412.384	-116.356	-0.207	-0.038
-411.369	-55.798	-0.062	-0.028
-410.355	800.000	0.083	0.314
-409.340	54.893	-0.308	0.296
-408.325	6.126	-0.197	0.145
-407.311	1.361	-0.055	0.040
-406.296	-113.641	0.272	-0.053
-405.282	11.844	-0.349	0.267
-404.267	-200.000	0.017	-0.127
-403.252	-145.411	-0.123	0.011
-402.238	800.000	-0.133	0.458
-401.223	157.591	-0.123	0.169
-400.209	-72.108	0.197	0.073
-399.194	-200.000	-0.018	-0.208
-398.179	260.592	0.150	-0.257
-397.165	-24.810	0.066	-0.039
-396.150	800.000	0.135	-0.430
-395.136	-146.354	0.157	-0.014
-394.121	-45.025	0.031	0.016
-393.106	-200.000	0.089	-0.561
-392.092	-165.377	0.212	-0.009
-391.077	800.000	0.084	0.237
-390.063	800.000	0.051	0.167
-389.048	301.970	-0.104	0.190
-388.033	-30.153	0.093	0.052
-387.019	-200.000	-0.068	0.319
-386.004	-200.000	-0.004	-0.136
-384.990	-82.205	-0.278	0.090
-383.975	-90.080	-0.063	0.018
-382.960	-28.980	-0.250	0.142
-381.946	-67.192	-0.110	-0.043
-380.931	-112.991	-0.382	0.075
-379.917	37.317	-0.158	-0.139
-378.902	-153.649	0.097	-0.007
-377.888	-138.866	-0.305	-0.033
-376.873	-1.403	0.177	-0.124
-375.858	-106.415	0.404	-0.090
-374.844	21.204	0.105	-0.085
-373.829	87.972	0.261	-0.287
-372.815	-95.834	0.206	-0.054
-371.800	-15.197	-0.228	-0.145
-370.785	-90.404	-0.092	0.026
-369.771	-200.000	-0.005	-0.107
-368.756	-34.117	0.155	0.084
-367.742	-200.000	-0.047	0.283
-366.727	-66.092	0.119	0.047
-365.712	800.000	0.054	-0.217
-364.698	270.329	0.131	0.228
-363.683	28.221	-0.145	0.121
-362.669	282.399	0.021	0.038
-361.654	-200.000	0.075	-0.346
-360.639	4.832	-0.301	-0.219
-359.625	-23.557	-0.108	0.064
-358.610	110.006	-0.014	0.017
-357.596	-200.000	0.043	0.481
-356.581	-200.000	-0.079	-0.403
-355.566	-200.000	-0.008	0.190
-354.552	19.921	-0.141	0.113
-353.537	157.421	0.043	-0.059
-352.523	140.502	-0.194	-0.254
-351.508	800.000	-0.062	0.181
-350.493	718.894	-0.063	0.166
-349.479	-101.224	-0.275	-0.067
-348.464	5.940	-0.162	-0.119
-347.450	-200.000	0.089	0.553
-346.435	-6.446	-0.199	0.135
-345.420	-121.024	-0.343	-0.057
-344.406	-200.000	0.008	-0.197
-343.391	-27.739	0.163	-0.093
-342.377	-177.352	-0.231	0.006
-341.362	-200.000	-0.028	0.131
-340.348	-12.510	-0.073	-0.047
-339.333	-110.013	0.207	0.043
-338.318	144.598	0.298	-0.394
-337.304	55.084	0.167	-0.160
-336.289	800.000	0.146	0.432
-335.275	800.000	0.111	-0.426
-334.260	-52.570	0.264	0.121
-333.245	75.289	0.221	0.231
-332.231	-169.704	0.314	-0.011
-331.216	-132.922	0.114	0.014
-330.202	81.887	0.274	0.293
-329.187	-89.598	0.230	-0.067
-328.172	-82.175	0.203	-0.066
-327.158	800.000	-0.071	0.280
-326.143	-112.320	0.299	0.059
-325.129	158.877	0.086	0.118
-324.114	-25.834	0.169	-0.098
-323.099	61.761	-0.201	0.198
-322.085	-118.562	-0.233	0.041
-321.070	66.994	0.268	0.271
-320.056	407.201	-0.152	0.317
-319.041	-172.511	0.266	-0.008
-318.026	154.148	-0.098	0.133
-317.012	-12.628	0.172	0.111
-315.997	-21.065	0.336	-0.203
-314.983	-200.000	0.012	0.309
-313.968	27.053	-0.084	0.070
-312.953	-0.834	0.227	0.159
-311.939	29.178	-0.165	0.139
-310.924	601.299	-0.038	0.094
-309.910	-184.779	-0.412	-0.007
-308.895	231.500	0.231	0.375
-307.880	-112.679	0.182	-0.036
-306.866	-111.937	0.344	0.069
-305.851	18.867	-0.112	0.088
-304.837	-200.000	-0.009	-0.208
-303.822	-129.360	0.250	0.034
-302.807	-75.523	-0.179	-0.063
-301.793	-200.000	0.021	-0.118
-300.778	-200.000	-0.045	0.366
-299.764	79.989	-0.250	-0.266
-298.749	-110.350	0.283	0.058
-297.735	170.206	-0.119	-0.169
-296.720	-72.322	-0.348	0.127
-295.705	53.520	0.136	-0.129
-294.691	25.366	0.094	0.078
-293.676	800.000	-0.059	0.164
-292.662	-69.442	-0.296	-0.112
-291.647	311.879	0.162	0.300
-290.632	40.969	-0.274	0.244
-289.618	13.750	0.236	0.181
-288.603	-37.258	-0.445	0.235
-287.589	17.792	0.010	-0.008
-286.574	-200.000	0.069	-0.363
-285.559	-71.676	0.353	-0.130
-284.545	217.244	0.229	-0.360
-283.530	131.243	-0.191	-0.243
-282.516	271.053	0.073	-0.127
-281.501	-200.000	0.011	0.122
-280.486	800.000	-0.030	0.085
-279.472	-200.000	0.011	0.296
-278.457	333.853	-0.174	0.332
-277.443	-15.351	-0.189	-0.120
-276.428	405.984	0.107	0.222
-275.413	85.114	0.207	0.224
-274.399	-118.371	0.140	-0.024
-273.384	-127.297	-0.213	-0.031
-272.370	279.847	0.135	0.238
-271.355	155.196	0.031	0.042
-270.340	9.487	0.177	-0.133
-269.326	340.682	0.081	0.157
-268.311	-147.205	-0.141	-0.012
-267.297	190.475	0.094	0.140
-266.282	-115.248	-0.207	0.039
-265.267	6.878	0.117	0.086
-264.253	-19.386	0.185	-0.113
-263.238	-200.000	-0.020	-0.187
-262.224	800.000	0.069	-0.222
-261.209	-6.993	-0.128	-0.086
-260.195	56.487	-0.168	-0.161
-259.180	-24.421	0.251	-0.148
-258.165	-101.245	0.375	0.091
-257.151	800.000	-0.031	0.093
-256.136	250.681	0.124	-0.207
-255.122	-200.000	0.020	-0.091
-254.107	-54.923	-0.087	0.039
-253.092	397.827	0.100	-0.206
-252.078	-117.315	0.091	0.016
-251.063	-90.059	-0.280	0.081
-250.049	588.034	0.072	-0.175
-249.034	182.699	-0.142	0.206
-248.019	-138.680	-0.077	-0.008
-247.005	218.358	-0.135	-0.213
-245.990	-175.119	-0.194	0.005
-244.976	-200.000	0.087	-0.392
-243.961	113.271	0.097	0.116
-242.946	142.263	0.185	-0.243
-241.932	-135.169	-0.170	-0.020
-240.917	-110.478	0.241	0.049
-239.903	415.328	0.121	0.255
-238.888	800.000	0.048	-0.193
-237.873	-59.805	-0.617	-0.261
-236.859	42.210	0.148	-0.132
-235.844	133.230	0.100	-0.127
-234.830	-83.955	0.043	0.013
-233.815	-46.883	-0.278	0.134
-232.800	800.000	-0.071	-0.193
-231.786	230.701	0.112	-0.180
-230.771	-200.000	0.022	-0.327
-229.757	278.140	0.152	0.268
-228.742	-87.877	-0.293	-0.087
-227.727	-101.143	-0.275	0.066
-226.713	-171.102	-0.142	0.005
-225.698	261.111	-0.161	-0.275
-224.684	16.677	-0.062	0.048
-223.669	-153.717	0.261	-0.018
-222.655	-97.969	-0.261	-0.066
-221.640	800.000	-0.027	0.083
-220.625	-5.846	0.224	0.151
-219.611	235.542	-0.124	0.202
-218.596	-81.848	-0.143	-0.046
-217.582	249.304	-0.099	-0.166
-216.567	-141.624	-0.301	-0.030
-215.552	24.798	0.321	-0.262
-214.538	-89.555	0.225	0.065
-213.523	-200.000	0.008	-0.168
-212.509	-99.616	-0.190	0.047
-211.494	-85.113	-0.149	-0.046
-210.479	-136.311	-0.190	-0.022
-209.465	-45.528	0.155	0.075
-208.450	-200.000	0.002	-0.157
-207.436	-117.096	-0.163	0.029
-206.421	-18.564	-0.125	0.077
-205.406	-126.790	0.245	0.036
-204.392	672.594	0.065	0.165
-203.377	800.000	-0.084	-0.234
-202.363	370.260	0.096	-0.191
-201.348	-115.061	-0.051	-0.010
-200.333	17.966	0.291	-0.229
-199.319	173.020	0.167	-0.237
-198.304	11.913	-0.233	-0.177
-197.290	-58.134	-0.131	-0.056
-196.275	282.162	0.084	0.149
-195.260	-163.772	0.407	0.019
-194.246	-200.000	-0.003	0.071
-193.231	353.724	-0.067	0.130
-192.217	104.979	0.117	-0.136
-191.202	397.856	-0.111	0.229
-190.187	-190.516	0.530	0.006
-189.173	41.752	-0.272	0.243
-188.158	-200.000	0.062	0.303
-187.144	126.927	-0.157	-0.195
-186.129	-90.867	-0.107	0.030
-185.114	-89.155	0.280	0.082
-184.100	2.456	0.131	0.093
-183.085	-103.664	-0.137	0.032
-182.071	-138.656	0.242	-0.026
-181.056	-200.000	0.003	-0.247
-180.042	-93.113	-0.273	0.075
-179.027	99.331	0.114	0.130
-178.012	-193.535	-0.121	-0.001
-176.998	-80.497	0.163	0.053
-175.983	-100.608	-0.312	0.076
-174.969	461.504	-0.085	0.187
-173.954	113.479	0.111	-0.133
-172.939	-102.150	-0.134	0.032
-171.925	-84.282	-0.167	-0.052
-170.910	800.000	0.023	-0.095
-169.896	-200.000	-0.016	-0.247
-168.881	800.000	0.134	0.386
-167.866	113.734	-0.027	0.033
-166.852	115.963	-0.073	0.088
-165.837	53.192	-0.119	0.112
-164.823	-200.000	-0.054	0.249
-163.808	800.000	-0.080	0.270
-162.793	21.521	-0.089	0.071
-161.779	145.755	0.094	0.123
-160.764	48.774	-0.059	-0.054
-159.750	-22.902	-0.052	-0.031
-158.735	-13.005	0.083	0.053
-157.720	9.274	0.226	0.168
-156.706	-53.465	-0.320	0.144
-155.691	-95.098	0.273	0.072
-154.677	120.214	-0.138	0.168
-153.662	-143.083	-0.176	-0.017
-152.647	-200.000	0.031	-0.234
-151.633	-51.714	-0.083	0.038
-150.618	-65.009	0.204	0.081
-149.604	-191.534	-0.104	-0.001
-148.589	333.511	-0.224	0.427
-147.574	-200.000	0.000	-0.180
-146.560	800.000	-0.017	-0.069
-145.545	322.215	0.021	-0.039
-144.531	-200.000	0.035	0.290
-143.516	-169.591	-0.158	0.006
-142.502	377.456	0.156	-0.314
-141.487	-166.666	-0.022	0.001
-140.472	50.783	-0.118	0.110
-139.458	-200.000	0.015	0.249
-138.443	800.000	0.075	0.309
-137.429	-188.471	-0.134	0.002
-136.414	179.719	0.140	-0.201
-135.399	490.728	0.050	-0.112
-134.385	74.767	0.235	0.243
-133.370	-200.000	-0.059	0.358
-132.356	-98.528	0.106	-0.027
-131.341	800.000	0.039	0.135
-130.326	-200.000	-0.026	0.193
-129.312	245.515	-0.041	-0.067
-128.297	-200.000	0.017	0.143
-127.283	444.773	0.117	0.253
-126.268	-141.728	0.443	0.044
-125.253	-200.000	0.025	-0.277
-124.239	212.110	0.052	0.081
-123.224	152.891	-0.215	-0.289
-122.210	54.903	0.271	-0.257
-121.195	-200.000	-0.056	-0.384
-120.180	800.000	-0.031	0.113
-119.166	800.000	-0.038	-0.159
-118.151	86.781	0.258	0.280
-117.137	-140.531	-0.279	0.028
-116.122	-137.384	0.529	-0.059
-115.107	99.988	0.057	0.065
-114.093	76.536	-0.245	0.255
-113.078	474.617	-0.091	0.201
-112.064	-150.313	0.068	0.005
-111.049	61.548	-0.264	-0.258
-110.034	43.148	0.171	-0.154
-109.020	113.037	0.102	-0.121
-108.005	-93.684	-0.180	-0.049
-106.991	800.000	-0.053	0.218
-105.976	-42.455	0.549	0.275
-104.962	49.034	0.040	0.037
-103.947	-66.779	-0.261	0.101
-102.932	-24.701	-0.282	0.164
-101.918	-200.000	-0.044	0.204
-100.903	800.000	-0.074	-0.224
-99.889	-200.000	-0.185	0.000
-98.874	-200.000	0.016	-0.478
-97.859	-200.000	0.085	-0.409
-96.845	-200.000	0.008	-0.448
-95.830	59.990	0.133	0.129
-94.816	-107.248	0.406	0.088
-93.801	800.000	0.053	0.195
-92.786	-200.000	-0.018	-0.191
-91.772	-111.812	-0.330	-0.065
-90.757	675.458	-0.067	-0.172
-89.743	-71.520	0.192	0.070
-88.728	554.943	-0.085	-0.200
-87.713	-200.000	-0.150	0.000
-86.699	394.459	-0.081	0.165
-85.684	161.184	0.308	0.423
-84.670	-6.540	0.326	-0.218
-83.655	-200.000	-0.009	0.039
-82.640	-200.000	0.016	-0.118
-81.626	317.269	-0.135	-0.250
-80.611	157.723	0.296	-0.402
-79.597	769.000	0.052	-0.138
-78.582	-200.000	0.039	0.479
-77.567	-18.248	-0.133	0.081
-76.553	-200.000	0.015	-0.221
-75.538	-90.855	-0.265	-0.075
-74.524	68.079	-0.119	-0.119
-73.509	259.046	-0.242	0.409
-72.494	402.011	-0.017	-0.035
-71.480	-33.782	0.174	-0.094
-70.465	-57.476	-0.324	-0.139
-69.451	40.740	0.190	0.168
-68.436	800.000	0.081	0.294
-67.422	-93.534	-0.017	0.005
-66.407	-78.241	0.134	0.045
-65.392	28.144	0.249	-0.206
-64.378	-42.787	-0.474	-0.236
-63.363	623.375	0.046	0.114
-62.349	-158.267	0.137	-0.008
-61.334	2.847	-1.457	-1.037
-60.319	-2.977	0.689	0.471
-59.305	800.000	-0.201	-0.637
-58.290	219.687	0.843	1.322
-57.276	800.000	0.402	1.557
-56.261	-200.000	105.729	611.463
-55.246	501.981	1508.405	3414.190
-54.232	176.333	2701.677	3845.558
-53.217	110.380	2185.866	2573.262
-52.203	40.214	1703.206	1500.698
-51.188	32.781	1512.683	1282.472
-50.173	30.333	1486.691	1244.008
-49.159	51.400	1542.189	1434.883
-48.144	51.658	1558.749	1451.996
-47.130	32.882	1514.771	1284.727
-46.115	29.827	1499.913	1251.449
-45.100	29.697	1496.411	1247.598
-44.086	29.657	1494.155	1245.400
-43.071	29.562	1492.205	1243.085
-42.057	29.525	1490.675	1241.510
-41.042	29.514	1489.616	1240.509
-40.027	29.601	1487.583	1239.351
-39.013	29.591	1485.989	1237.906
-37.998	29.473	1485.077	1236.303
-36.984	29.526	1483.602	1235.381
-35.969	29.557	1482.440	1234.575
-34.954	29.454	1480.905	1232.555
-33.940	29.525	1479.412	1231.739
-32.925	29.490	1477.990	1230.274
-31.911	29.649	1476.033	1229.654
-30.896	29.630	1475.103	1228.706
-29.881	29.616	1474.475	1228.036
-28.867	29.648	1472.676	1226.706
-27.852	29.651	1471.691	1225.854
-26.838	29.637	1470.402	1224.639
-25.823	29.527	1468.125	1221.968
-24.809	29.636	1466.920	1221.637
-23.794	29.619	1465.709	1220.467
-22.779	29.530	1464.919	1219.172
-21.765	29.647	1463.510	1218.725
-20.750	29.665	1461.977	1217.519
-19.736	29.585	1461.420	1216.476
-18.721	29.603	1460.037	1215.396
-17.706	29.514	1459.099	1213.985
-16.692	29.601	1457.753	1213.387
-15.677	29.657	1456.277	1212.475
-14.663	29.535	1455.773	1211.207
-13.648	29.484	1455.175	1210.333
-12.633	29.586	1454.100	1210.052
-11.619	29.510	1453.402	1208.932
-10.604	29.600	1452.032	1208.329
-9.590	29.452	1451.704	1207.038
-8.575	29.506	1451.201	1206.930
-7.560	29.615	1449.642	1206.294
-6.546	29.524	1448.873	1205.017
-5.531	29.509	1448.332	1204.420
-4.517	29.387	1447.701	1203.051
-3.502	29.460	1446.370	1202.370
-2.487	29.534	1445.050	1201.710
-1.473	29.430	1444.098	1200.193
-0.458	29.462	1443.164	1199.575
0.556	27.162	1433.375	1189.499
1.571	24.368	1408.095	1150.426
2.586	21.047	1350.205	1082.458
3.600	19.562	1269.908	1009.318
4.615	18.592	1224.918	968.004
5.629	16.260	1170.764	912.534
6.644	8.186	1086.756	806.309
7.659	0.938	1046.702	741.139
8.673	-0.065	1040.514	731.810
9.688	-0.286	1036.911	728.137
10.702	-0.569	1036.084	726.122
11.717	-0.259	1033.599	725.813
12.731	2.890	1037.728	743.921
13.746	11.848	1050.220	796.572
14.761	18.573	1058.508	835.662
15.775	20.300	1060.666	845.718
16.790	20.677	1059.876	846.849
17.804	20.375	1059.270	844.820
18.819	20.199	1058.642	843.391
19.834	20.436	1057.889	843.866
20.848	20.483	1057.362	843.599
21.863	20.488	1057.268	843.473
22.877	20.442	1056.822	842.819
23.892	20.448	1055.954	842.084
24.907	20.422	1055.081	841.184
25.921	20.341	1054.635	840.363
26.936	20.260	1054.012	839.401
27.950	20.399	1052.497	838.793
28.965	20.358	1051.374	837.625
29.980	20.321	1049.499	835.878
30.994	20.125	1048.379	833.971
32.009	20.495	1047.546	835.011
33.023	20.511	1046.949	834.539
34.038	20.220	1045.644	832.026
35.053	20.451	1044.390	832.061
36.067	20.411	1044.271	831.701
37.082	20.408	1043.187	830.752
38.096	20.412	1042.804	830.393
39.111	20.651	1041.914	830.753
40.126	20.689	1041.098	830.208
41.140	20.702	1039.556	828.969
42.155	20.328	1038.154	825.997
43.169	20.094	1036.952	823.856
44.184	20.065	1035.874	822.786
45.199	20.170	1034.719	822.296
46.213	19.999	1033.607	820.530
47.228	20.007	1032.839	819.886
48.242	20.169	1031.769	819.731
49.257	20.293	1031.273	819.847
50.271	20.439	1030.233	819.640
51.286	20.392	1030.072	819.216
52.301	20.411	1029.117	818.476
53.315	20.522	1028.014	818.045
54.330	20.472	1027.072	816.991
55.344	20.448	1026.278	816.172
56.359	20.352	1026.030	815.454
57.374	20.451	1025.157	815.149
58.388	20.298	1024.134	813.548
59.403	20.291	1022.867	812.435
60.417	20.244	1022.013	811.466
61.432	20.123	1021.053	810.066
62.447	19.997	1020.900	809.287
63.461	20.260	1020.346	810.003
64.476	20.237	1019.713	809.321
65.490	20.227	1018.410	808.170
66.505	20.200	1017.527	807.273
67.520	20.239	1016.351	806.451
68.534	20.269	1015.693	805.996
69.549	20.085	1014.748	804.320
70.563	19.823	1013.484	802.034
71.578	19.845	1012.603	801.365
72.593	19.833	1011.771	800.580
73.607	19.705	1010.560	798.959
74.622	19.636	1009.646	797.847
75.636	20.017	1009.187	799.172
76.651	20.151	1008.623	799.272
77.666	20.063	1007.446	797.865
78.680	20.027	1006.327	796.744
79.695	19.890	1006.192	795.936
80.709	20.065	1005.431	796.068
81.724	20.040	1004.948	795.500
82.739	20.045	1003.516	794.316
83.753	20.152	1002.553	793.977
84.768	20.359	1001.957	794.379
85.782	20.627	1001.049	794.814
86.797	20.715	1000.623	794.806
87.812	20.783	999.655	794.278
88.826	20.471	999.104	792.348
89.841	20.531	998.559	792.120
90.855	20.609	997.408	791.494
91.870	20.672	996.289	790.819
92.884	20.672	995.439	790.075
93.899	20.535	994.789	788.869
94.914	20.378	993.489	787.058
95.928	20.556	993.257	787.609
96.943	20.809	991.782	787.513
97.957	20.298	991.012	784.525
98.972	20.204	989.537	782.861
99.987	19.960	988.638	780.983
101.001	20.070	988.484	781.288
102.016	20.372	987.467	781.774
103.030	20.441	986.785	781.475
104.045	20.211	985.526	779.374
105.060	20.153	984.101	777.918
106.074	19.993	982.816	776.116
107.089	20.129	982.004	776.014
108.103	20.275	982.197	776.755
109.118	20.501	980.984	776.738
110.133	20.033	979.922	773.737
111.147	20.146	979.109	773.533
112.162	20.110	977.210	771.803
113.176	19.872	976.504	770.119
114.191	19.993	975.629	769.896
115.206	20.205	974.188	769.630
116.220	19.879	973.529	767.596
117.235	19.627	972.704	765.764
118.249	19.846	971.912	766.039
119.264	19.888	970.991	765.434
120.279	19.899	969.877	764.535
121.293	19.842	969.410	763.848
122.308	19.944	968.385	763.423
123.322	20.001	967.727	763.089
124.337	19.927	966.348	761.608
125.352	19.794	965.073	759.949
126.366	19.598	963.437	757.737
127.381	19.256	961.535	754.676
128.395	19.783	961.870	757.180
129.410	20.276	961.504	758.980
130.424	20.445	960.946	759.211
131.439	20.402	959.510	757.824
132.454	20.236	958.656	756.357
133.468	20.344	957.887	756.155
134.483	20.341	956.744	755.174
135.497	20.107	956.669	754.027
136.512	20.514	955.822	755.063
137.527	20.611	954.865	754.662
138.541	20.430	954.239	753.315
139.556	20.506	953.360	752.882
140.570	20.647	952.009	752.358
141.585	20.572	951.728	751.745
142.600	20.656	950.434	751.021
143.614	20.617	949.489	750.038
144.629	20.558	949.460	749.695
145.643	20.790	949.159	750.390
146.658	20.703	947.626	748.737
147.673	20.577	946.528	747.262
148.687	20.621	945.201	746.338
149.702	20.478	944.147	744.828
150.716	20.331	943.177	743.368
151.731	20.367	941.926	742.471
152.746	20.430	941.466	742.308
153.760	20.559	941.160	742.552
154.775	20.671	940.274	742.267
155.789	20.774	939.282	741.859
156.804	20.644	938.454	740.585
157.819	20.707	937.054	739.684
158.833	20.807	936.365	739.498
159.848	20.848	935.449	738.883
160.862	20.757	934.698	737.836
161.877	20.683	933.795	736.746
162.892	20.659	932.685	735.702
163.906	20.825	932.170	735.935
164.921	20.858	931.249	735.284
165.935	20.824	930.108	734.173
166.950	20.841	928.864	733.196
167.964	20.867	928.044	732.595
168.979	20.691	927.348	731.239
169.994	20.727	926.033	730.291
171.008	20.494	925.343	728.704
172.023	20.706	924.237	728.656
173.037	20.732	923.930	728.457
174.052	20.596	922.636	726.805
175.067	20.374	921.878	725.219
176.081	20.527	920.730	724.889
177.096	20.527	920.064	724.300
178.110	20.528	919.490	723.787
179.125	20.432	917.833	722.019
180.140	20.240	916.890	720.419
181.154	20.206	916.307	719.754
182.169	20.240	916.114	719.682
183.183	20.443	915.741	720.164
184.198	20.715	915.394	720.954
185.213	20.638	914.032	719.501
186.227	20.526	913.521	718.570
187.242	20.722	912.986	718.896
188.256	20.796	912.137	718.472
189.271	20.618	911.602	717.252
190.286	20.832	910.521	717.220
191.300	20.777	909.400	716.045
192.315	20.204	908.546	712.955
193.329	19.574	906.698	708.855
194.344	19.086	906.114	706.336
195.359	19.710	906.513	709.144
196.373	20.519	906.854	712.667
197.388	20.867	906.090	713.429
198.402	20.701	905.135	711.936
199.417	20.518	904.922	710.956
200.432	20.517	904.582	710.624
201.446	20.579	903.605	710.045
202.461	20.149	902.756	707.560
203.475	20.165	902.432	707.308
204.490	19.710	901.198	704.427
205.504	18.617	899.275	698.413
206.519	19.151	899.055	700.354
207.534	20.181	899.017	704.448
208.548	20.251	898.563	704.316
209.563	20.592	898.453	705.548
210.577	20.525	898.157	704.984
211.592	20.285	896.532	702.676
212.607	20.646	896.960	704.408
213.621	20.793	895.979	704.172
214.636	20.805	895.298	703.624
215.650	20.699	895.240	703.087
216.665	20.815	894.032	702.541
217.680	20.862	893.858	702.535
218.694	20.841	893.593	702.178
219.709	20.501	892.185	699.642
220.723	20.135	891.525	697.590
221.738	20.356	891.477	698.378
222.753	20.733	890.265	698.882
223.767	20.652	889.498	697.893
224.782	20.584	889.300	697.404
225.796	20.836	888.398	697.645
226.811	20.926	887.749	697.432
227.826	20.590	886.403	694.971
228.840	19.789	884.554	690.264
229.855	19.643	884.381	689.483
230.869	19.866	884.090	690.085
231.884	19.542	882.976	687.863
232.899	19.725	882.818	688.411
233.913	20.560	882.739	691.609
234.928	20.648	882.699	691.867
235.942	20.527	882.133	690.884
236.957	20.494	881.594	690.267
237.972	20.308	880.089	688.290
238.986	20.213	879.130	687.104
240.001	20.282	879.183	687.359
241.015	20.404	878.413	687.179
242.030	20.397	877.745	686.565
243.045	20.586	877.023	686.690
244.059	20.642	876.676	686.578
245.074	20.803	876.246	686.813
246.088	20.728	875.636	685.981
247.103	20.348	874.633	683.637
248.117	20.227	874.264	682.812
249.132	20.824	874.111	684.980
250.147	21.250	873.557	686.162
251.161	21.347	872.613	685.739
252.176	21.380	872.470	685.696
253.190	21.344	871.857	685.011
254.205	21.438	871.281	684.867
255.220	21.760	870.760	685.657
256.234	21.545	870.185	684.302
257.249	21.384	869.316	682.930
258.263	21.276	868.780	682.024
259.278	21.485	867.946	682.124
260.293	21.501	867.860	682.061
261.307	21.616	867.591	682.237
262.322	21.401	866.547	680.520
263.336	21.314	865.759	679.501
264.351	20.750	864.323	676.123
265.366	19.618	862.854	670.523
266.380	19.270	861.587	668.130
267.395	20.277	861.919	672.233
268.409	21.023	862.112	675.215
269.424	20.978	861.547	674.538
270.439	21.169	861.290	675.012
271.453	21.348	860.165	674.763
272.468	21.351	859.658	674.318
273.482	21.354	859.555	674.188
274.497	21.651	858.749	674.643
275.512	21.351	857.655	672.568
276.526	20.843	856.255	669.460
277.541	21.012	856.162	669.977
278.555	21.430	855.745	671.194
279.570	21.170	854.846	669.436
280.585	20.949	854.455	668.220
281.599	21.016	853.726	667.849
282.614	21.186	853.357	668.151
283.628	20.828	852.104	665.744
284.643	20.420	851.296	663.494
285.657	20.856	851.038	664.900
286.672	20.858	850.060	664.083
287.687	20.181	849.530	661.031
288.701	20.649	849.621	662.826
289.716	21.057	849.319	664.086
290.730	20.681	848.248	661.761
291.745	20.595	847.399	660.715
292.760	20.363	846.506	659.077
293.774	20.250	846.121	658.290
294.789	21.181	846.501	662.060
295.803	21.783	846.480	664.266
296.818	21.899	845.744	664.069
297.833	22.026	845.576	664.361
298.847	21.763	844.269	662.280
299.862	21.338	843.515	660.024
300.876	21.417	843.047	659.901
301.891	21.801	842.542	660.893
302.906	21.854	842.028	660.634
303.920	21.446	840.848	658.114
304.935	21.144	840.404	656.571
305.949	21.703	840.074	658.356
306.964	21.853	839.551	658.453
307.979	21.425	839.166	656.484
308.993	21.532	838.104	655.998
310.008	21.911	837.817	657.136
311.022	22.013	837.615	657.299
312.037	21.749	836.734	655.564
313.052	21.563	836.557	654.670
314.066	21.598	835.399	653.836
315.081	20.772	834.703	650.152
316.095	20.193	833.155	646.728
317.110	20.636	833.403	648.517
318.125	21.451	833.508	651.580
319.139	21.025	832.546	649.184
320.154	20.103	830.507	644.111
321.168	19.598	830.071	641.838
322.183	20.318	829.685	644.158
323.197	21.088	830.197	647.357
324.212	21.559	829.758	648.701
325.227	21.514	829.719	648.448
326.241	21.683	828.931	648.400
327.256	21.561	828.630	647.656
328.270	21.447	827.905	646.611
329.285	21.511	827.148	646.200
330.300	21.266	826.268	644.551
331.314	20.879	826.005	642.861
332.329	21.120	824.996	642.907
333.343	21.444	824.898	643.966
334.358	21.709	824.603	644.653
335.373	21.697	823.810	643.934
336.387	21.672	823.210	643.315
337.402	21.956	823.130	644.239
338.416	22.035	822.648	644.094
339.431	21.977	821.922	643.255
340.446	22.079	821.190	642.998
341.460	22.191	821.028	643.225
342.475	22.165	820.359	642.549
343.489	21.975	819.547	641.164
344.504	21.935	819.233	640.714
345.519	22.190	818.620	641.109
346.533	22.503	818.694	642.252
347.548	22.389	818.473	641.606
348.562	22.554	817.375	641.288
349.577	22.544	817.077	640.961
350.592	22.544	816.190	640.210
351.606	22.417	815.820	639.400
352.621	22.618	815.392	639.737
353.635	22.366	814.918	638.395
354.650	22.258	814.563	637.671
355.665	21.926	813.316	635.436
356.679	20.948	811.525	630.446
357.694	20.726	811.464	629.538
358.708	21.411	811.032	631.623
359.723	21.364	810.630	631.086
360.738	21.623	810.249	631.665
361.752	22.033	810.668	633.414
362.767	22.158	809.720	633.068
363.781	22.402	809.877	634.015
364.796	22.781	809.464	634.999
365.810	22.811	809.020	634.703
366.825	22.652	809.091	634.129
367.840	22.627	808.820	633.774
368.854	22.585	807.741	632.720
369.869	22.213	806.797	630.590
370.883	22.227	805.759	629.773
371.898	22.209	805.698	629.606
372.913	22.183	804.754	628.720
373.927	22.157	804.383	628.280
374.942	22.287	803.689	628.146
375.956	22.413	803.350	628.277
376.971	22.490	802.767	628.040
377.986	22.546	802.158	627.707
379.000	22.873	801.692	628.452
380.015	22.876	801.437	628.207
381.029	22.453	801.100	626.383
382.044	22.445	800.328	625.694
383.059	22.512	799.881	625.529
384.073	22.694	799.125	625.527
385.088	22.679	798.597	625.004
386.102	22.971	798.087	625.585
387.117	22.588	797.621	623.807
388.132	22.375	797.473	622.882
389.146	22.287	796.484	621.746
390.161	21.818	795.240	619.062
391.175	21.919	794.902	619.100
392.190	22.271	795.212	620.530
393.205	22.401	794.627	620.476
394.219	21.404	792.987	615.635
395.234	19.869	790.534	608.284
396.248	19.212	789.853	605.397
397.263	20.395	790.504	610.001
398.278	22.083	792.048	617.074
399.292	22.633	791.473	618.499
400.307	22.224	791.291	616.870
401.321	22.145	790.414	615.853
402.336	22.116	790.575	615.824
403.350	22.400	790.420	616.642
404.365	22.907	790.192	618.183
405.380	23.093	789.879	618.535
406.394	23.420	789.373	619.229
407.409	23.449	789.197	619.138
408.423	23.405	788.785	618.603
409.438	23.169	788.321	617.362
410.453	23.375	787.275	617.206
411.467	23.506	786.961	617.361
412.482	23.367	786.639	616.570
413.496	23.432	786.196	616.393
414.511	23.540	785.771	616.384
415.526	23.438	785.530	615.785
416.540	23.582	785.041	615.848
417.555	23.351	784.542	614.600
418.569	23.078	783.795	613.016
419.584	23.068	783.192	612.453
420.599	23.235	782.411	612.367
421.613	157.598	1363.798	1799.268
422.628	136.232	1448.506	1799.355
