DTS Sentinel unit serial number:	SN413079Multiplexer serial number:	ORYXHardware model number:	OX4-SRSoftware version number:	ORYX F/W v4.00 Oryx Data Collector v3.7.2.0data status	okinstallation	princeton_trtdifferential loss correction	single-endedforward channel	channel 3reverse channel	N/Adate	2019/09/18time	23:44:35forward acquisition time	60.00reverse acquisition time	0.00gamma	496.2192k internal	0.2346k external	0.2346temperature offset calibration	0.9993default loss term (dB/km)	0.3790temperature slope calibration	1.0000multiplexer offset coefficient	1.0000multiplexer slope coefficient	1.0000fibre end	0.00T internal ref (°C)	23.42T ext. ref 1 (°C)	0.77T ext. ref 2 (°C)	16.25length (m)	temperature (°C)	Stokes	anti-Stokes-747.200	-61.105	-0.289	0.122
-746.185	-89.329	0.282	0.083
-745.171	336.314	0.075	0.147
-744.156	800.000	-0.119	0.475
-743.142	-200.000	-0.045	0.286
-742.127	715.185	-0.163	0.431
-741.112	-112.308	0.295	-0.059
-740.098	407.006	0.044	0.093
-739.083	-53.506	0.108	-0.050
-738.069	-81.485	-0.035	0.012
-737.054	214.037	0.177	0.280
-736.039	292.871	-0.113	0.206
-735.025	15.104	-0.193	0.151
-734.010	22.331	0.040	-0.032
-732.996	36.988	-0.382	-0.338
-731.981	-200.000	0.006	-0.385
-730.966	-200.000	0.265	-0.000
-729.952	800.000	0.054	-0.170
-728.937	-200.000	0.017	0.320
-727.923	-200.000	-0.037	0.255
-726.908	48.873	-0.133	-0.125
-725.894	800.000	-0.064	-0.248
-724.879	55.979	-0.299	0.290
-723.864	-134.010	0.047	-0.006
-722.850	-200.000	0.033	0.214
-721.835	-113.672	-0.360	-0.070
-720.821	-200.000	0.005	-0.165
-719.806	-200.000	0.014	-0.150
-718.791	-134.822	-0.367	-0.044
-717.777	-161.530	-0.175	0.009
-716.762	-200.000	-0.016	-0.127
-715.748	-53.023	-0.129	-0.059
-714.733	-200.000	-0.035	0.224
-713.718	-70.078	0.091	0.034
-712.704	-200.000	0.008	-0.286
-711.689	-200.000	-0.015	-0.073
-710.675	800.000	0.067	-0.282
-709.660	-47.438	0.261	-0.127
-708.645	-17.501	0.223	-0.140
-707.631	-138.956	-0.299	-0.032
-706.616	0.782	-0.247	0.177
-705.602	-102.438	-0.237	-0.057
-704.587	-67.806	0.189	0.074
-703.572	64.603	0.240	-0.242
-702.558	-97.042	-0.142	-0.037
-701.543	-6.373	0.268	-0.182
-700.529	-50.282	0.122	0.058
-699.514	98.477	-0.249	0.286
-698.499	-200.000	-0.015	0.212
-697.485	-200.000	-0.039	-0.405
-696.470	800.000	0.089	-0.256
-695.456	800.000	-0.052	0.158
-694.441	-151.842	0.130	0.010
-693.426	-74.358	-0.368	0.132
-692.412	-200.000	-0.022	-0.159
-691.397	403.903	0.043	0.091
-690.383	-92.094	-0.278	-0.078
-689.368	-74.902	0.103	0.037
-688.354	-17.255	0.262	0.165
-687.339	-105.644	-0.360	0.081
-686.324	-200.000	0.002	0.014
-685.310	800.000	0.039	0.148
-684.295	-166.412	0.155	-0.006
-683.281	-93.751	-0.295	0.081
-682.266	800.000	0.040	-0.134
-681.251	194.678	0.041	0.062
-680.237	-44.328	0.349	-0.174
-679.222	82.060	0.086	0.093
-678.208	-85.022	-0.213	-0.067
-677.193	168.926	0.304	-0.433
-676.178	-155.314	-0.200	0.013
-675.164	-170.628	0.363	0.013
-674.149	335.136	-0.135	-0.262
-673.135	15.242	-0.180	-0.141
-672.120	-6.249	0.284	-0.194
-671.105	800.000	0.120	0.402
-670.091	-200.000	0.018	-0.085
-669.076	673.782	-0.046	-0.118
-668.062	496.593	0.064	0.147
-667.047	-200.000	0.001	0.043
-666.032	50.962	-0.306	0.289
-665.018	237.272	-0.150	0.248
-664.003	294.953	0.132	-0.242
-662.989	429.796	-0.103	0.222
-661.974	-200.000	0.000	-0.183
-660.959	166.322	0.181	0.256
-659.945	-200.000	-0.000	0.174
-658.930	-12.084	-0.187	0.122
-657.916	52.899	-0.039	0.037
-656.901	78.764	0.123	-0.132
-655.886	493.238	0.086	-0.197
-654.872	-154.992	-0.466	-0.031
-653.857	800.000	-0.043	0.120
-652.843	312.824	0.250	0.469
-651.828	75.452	-0.254	0.267
-650.814	-19.133	0.197	-0.122
-649.799	-23.396	0.082	-0.049
-648.784	95.982	-0.147	0.167
-647.770	-84.513	-0.218	0.068
-646.755	143.164	0.269	-0.356
-645.741	390.600	-0.056	0.115
-644.726	170.794	-0.166	0.237
-643.711	-200.000	-0.012	0.148
-642.697	-95.546	-0.190	0.051
-641.682	160.934	-0.135	-0.187
-640.668	-130.809	0.066	-0.009
-639.653	800.000	-0.028	-0.095
-638.638	-62.030	0.099	-0.041
-637.624	-83.949	0.339	-0.108
-636.609	-185.169	-0.148	0.002
-635.595	-76.101	0.132	-0.046
-634.580	800.000	-0.088	0.247
-633.565	-200.000	-0.080	0.000
-632.551	-200.000	-0.023	-0.309
-631.536	-143.969	0.305	-0.029
-630.522	-200.000	0.045	0.338
-629.507	-21.967	0.215	-0.130
-628.492	75.545	0.217	0.228
-627.478	-200.000	-0.037	-0.201
-626.463	204.090	-0.128	-0.197
-625.449	-36.972	-0.312	-0.166
-624.434	-107.936	0.045	0.010
-623.419	-118.201	-0.150	0.027
-622.405	143.493	0.129	-0.171
-621.390	-200.000	-0.081	-0.386
-620.376	-150.353	-0.247	-0.019
-619.361	-169.130	-0.069	0.003
-618.346	78.925	-0.166	-0.177
-617.332	-89.711	-0.147	0.043
-616.317	-181.883	0.278	-0.005
-615.303	141.444	-0.243	-0.321
-614.288	-100.169	-0.262	-0.065
-613.273	-49.574	0.218	0.103
-612.259	-200.000	-0.010	-0.136
-611.244	119.634	0.028	-0.035
-610.230	7.483	-0.183	-0.136
-609.215	156.853	0.071	0.098
-608.201	-73.220	0.199	0.073
-607.186	392.704	0.162	0.336
-606.171	-131.523	0.122	0.016
-605.157	-97.849	0.165	0.042
-604.142	-180.725	0.471	0.010
-603.128	98.585	0.238	-0.272
-602.113	800.000	-0.020	-0.084
-601.098	42.012	0.131	-0.118
-600.084	-200.000	0.006	-0.055
-599.069	-50.705	-0.340	-0.159
-598.055	80.766	0.220	0.236
-597.040	-200.000	0.060	0.365
-596.025	490.394	-0.107	0.244
-595.011	151.381	-0.254	0.344
-593.996	569.392	0.058	0.140
-592.982	24.303	0.233	0.191
-591.967	35.606	0.218	0.190
-590.952	-2.331	-0.410	0.286
-589.938	279.270	-0.088	-0.155
-588.923	-125.488	-0.246	-0.037
-587.909	396.438	-0.032	0.067
-586.894	-200.000	-0.028	-0.143
-585.879	172.929	0.147	-0.211
-584.865	-200.000	-0.016	0.117
-583.850	346.153	-0.144	0.282
-582.836	-77.815	-0.064	-0.022
-581.821	311.739	0.079	-0.148
-580.806	111.576	-0.256	-0.307
-579.792	38.385	0.175	0.155
-578.777	800.000	-0.045	-0.138
-577.763	657.322	0.169	-0.432
-576.748	9.749	0.114	-0.086
-575.733	-71.331	0.042	0.016
-574.719	-142.585	-0.181	-0.018
-573.704	800.000	-0.047	0.136
-572.690	129.226	0.097	-0.123
-571.675	62.661	0.153	0.152
-570.661	-152.396	-0.437	0.031
-569.646	-25.713	-0.272	-0.159
-568.631	384.818	-0.072	-0.147
-567.617	-128.962	0.408	-0.057
-566.602	-103.653	0.146	-0.034
-565.588	139.159	-0.131	-0.172
-564.573	780.504	-0.114	-0.310
-563.558	230.893	0.154	-0.250
-562.544	430.603	0.071	0.152
-561.529	-81.340	0.132	-0.043
-560.515	398.323	0.139	0.290
-559.500	-90.698	-0.182	0.052
-558.485	62.089	0.215	0.213
-557.471	-186.092	-0.118	-0.002
-556.456	-150.697	-0.316	-0.024
-555.442	16.512	0.070	0.055
-554.427	483.345	-0.083	0.188
-553.412	235.813	-0.293	-0.481
-552.398	800.000	0.044	0.190
-551.383	510.593	-0.076	0.175
-550.369	-200.000	-0.022	-0.245
-549.354	63.341	0.155	-0.155
-548.339	-45.975	-0.274	-0.134
-547.325	800.000	-0.071	0.246
-546.310	-75.614	0.174	0.061
-545.296	-200.000	-0.049	-0.281
-544.281	800.000	-0.052	0.184
-543.266	-128.339	-0.522	-0.074
-542.252	-174.183	0.278	0.008
-541.237	-18.884	0.219	0.135
-540.223	-200.000	0.009	0.260
-539.208	-69.618	0.350	-0.133
-538.193	375.534	-0.073	0.147
-537.179	158.547	-0.158	-0.217
-536.164	403.286	0.162	0.338
-535.150	-200.000	-0.020	-0.233
-534.135	245.484	0.122	0.204
-533.121	-12.523	0.107	0.070
-532.106	-200.000	0.001	-0.106
-531.091	-61.364	0.070	-0.029
-530.077	215.394	-0.156	0.245
-529.062	800.000	-0.075	-0.237
-528.048	308.957	-0.170	-0.316
-527.033	-96.281	0.473	-0.124
-526.018	-150.822	-0.365	0.027
-525.004	291.378	0.088	0.159
-523.989	-93.328	-0.171	-0.047
-522.975	208.483	0.093	-0.145
-521.960	800.000	0.087	-0.260
-520.945	176.785	0.054	0.078
-519.931	-71.966	0.141	0.052
-518.916	-200.000	-0.058	-0.398
-517.902	-95.041	-0.193	-0.052
-516.887	21.415	-0.265	-0.214
-515.872	91.474	0.289	0.322
-514.858	-35.895	-0.062	-0.033
-513.843	-200.000	0.061	-0.486
-512.829	-10.200	-0.235	-0.154
-511.814	-127.453	-0.105	-0.015
-510.799	-200.000	-0.004	-0.115
-509.785	-200.000	-0.005	0.298
-508.770	-79.051	0.115	-0.039
-507.756	800.000	-0.089	0.273
-506.741	21.244	0.204	0.165
-505.726	-162.896	-0.369	-0.018
-504.712	-36.257	0.283	-0.151
-503.697	-200.000	-0.011	0.272
-502.683	-200.000	0.043	0.392
-501.668	135.196	-0.171	0.220
-500.653	27.934	0.189	0.158
-499.639	-57.069	0.109	0.048
-498.624	-7.652	0.212	-0.142
-497.610	-86.668	-0.169	0.051
-496.595	-32.064	-0.030	-0.016
-495.581	-7.115	0.189	0.127
-494.566	-175.846	-0.395	0.010
-493.551	-200.000	-0.002	0.016
-492.537	229.389	-0.058	0.094
-491.522	-105.642	0.078	0.017
-490.508	585.474	-0.082	-0.199
-489.493	-117.771	0.235	0.042
-488.478	800.000	-0.191	-0.689
-487.464	-68.054	0.167	0.065
-486.449	79.576	-0.047	0.050
-485.435	-200.000	0.014	0.231
-484.420	509.139	0.077	0.177
-483.405	-200.000	-0.028	0.206
-482.391	-152.686	-0.243	-0.017
-481.376	800.000	0.022	0.069
-480.362	-128.407	-0.303	-0.043
-479.347	292.516	-0.141	-0.254
-478.332	124.195	-0.120	0.150
-477.318	34.648	-0.329	0.285
-476.303	800.000	0.044	-0.157
-475.289	-19.549	-0.307	-0.188
-474.274	800.000	-0.035	0.146
-473.259	300.493	0.150	-0.274
-472.245	-8.954	-0.170	-0.113
-471.230	100.733	0.053	-0.061
-470.216	-37.247	-0.185	0.098
-469.201	-9.585	0.161	-0.106
-468.186	-130.979	-0.051	-0.007
-467.172	-113.886	0.189	0.036
-466.157	-200.000	0.010	0.088
-465.143	-181.917	0.388	0.007
-464.128	243.703	-0.083	0.138
-463.113	-143.841	0.129	0.012
-462.099	144.365	0.130	0.171
-461.084	88.620	-0.065	0.072
-460.070	-10.548	0.352	-0.231
-459.055	732.747	-0.033	-0.086
-458.040	33.258	0.052	0.045
-457.026	-200.000	-0.007	-0.212
-456.011	-65.459	0.104	-0.041
-454.997	-200.000	-0.042	0.221
-453.982	-31.383	0.123	-0.068
-452.968	7.170	0.353	0.260
-451.953	133.946	0.074	0.094
-450.938	-55.724	0.283	-0.125
-449.924	78.022	-0.106	-0.112
-448.909	-10.278	0.371	0.243
-447.895	27.887	0.112	-0.093
-446.880	-44.507	0.174	0.086
-445.865	-4.872	-0.171	-0.117
-444.851	-139.754	0.082	0.009
-443.836	-88.732	-0.136	-0.040
-442.822	-140.883	0.242	-0.025
-441.807	482.181	0.158	0.354
-440.792	-200.000	0.007	-0.103
-439.778	27.373	0.270	-0.224
-438.763	-137.982	-0.168	-0.019
-437.749	-57.752	-0.263	0.114
-436.734	169.065	0.029	-0.040
-435.719	-200.000	-0.052	-0.264
-434.705	-31.113	0.074	-0.041
-433.690	621.346	0.167	0.415
-432.676	2.622	0.084	0.060
-431.661	-200.000	-0.005	-0.276
-430.646	-4.599	0.212	-0.145
-429.632	-34.032	-0.104	-0.056
-428.617	-200.000	0.007	0.044
-427.603	476.087	-0.148	-0.331
-426.588	-156.956	0.100	-0.006
-425.573	800.000	0.068	-0.204
-424.559	-116.511	0.187	-0.034
-423.544	579.825	0.117	0.284
-422.530	502.137	-0.102	-0.232
-421.515	800.000	0.068	-0.189
-420.500	484.182	0.075	0.168
-419.486	-200.000	-0.002	-0.047
-418.471	-198.779	0.184	-0.001
-417.457	800.000	0.111	0.476
-416.442	-10.753	-0.245	0.160
-415.428	800.000	-0.136	-0.470
-414.413	-200.000	0.011	-0.234
-413.398	642.140	0.190	-0.477
-412.384	-200.000	-0.002	0.024
-411.369	-86.200	-0.128	-0.039
-410.355	372.139	0.119	-0.239
-409.340	-47.264	-0.245	-0.118
-408.325	-46.616	0.279	-0.135
-407.311	800.000	-0.082	0.238
-406.296	-10.853	-0.107	0.070
-405.282	-59.663	0.247	0.104
-404.267	15.014	0.097	-0.075
-403.252	-63.202	0.283	0.115
-402.238	20.061	-0.162	-0.129
-401.223	-102.215	-0.152	-0.036
-400.209	25.151	0.178	0.145
-399.194	25.217	0.240	-0.197
-398.179	-129.886	0.227	-0.031
-397.165	27.811	0.076	-0.063
-396.150	-200.000	-0.003	-0.081
-395.136	32.237	-0.155	0.132
-394.121	41.013	0.140	-0.124
-393.106	-200.000	0.073	0.448
-392.092	-78.559	0.118	-0.040
-391.077	-109.913	-0.350	0.072
-390.063	-89.304	0.049	-0.014
-389.048	-113.759	-0.180	-0.035
-388.033	-200.000	-0.086	-0.454
-387.019	249.661	0.114	0.190
-386.004	-75.948	0.250	-0.087
-384.990	97.933	-0.281	0.319
-383.975	244.245	0.083	0.137
-382.960	273.805	0.157	-0.273
-381.946	23.232	-0.166	0.134
-380.931	-200.000	-0.021	-0.161
-379.917	400.784	0.143	0.295
-378.902	314.082	0.013	-0.024
-377.888	93.576	0.133	0.149
-376.873	42.512	-0.042	0.037
-375.858	42.887	0.106	0.095
-374.844	108.760	0.258	-0.304
-373.829	234.965	0.060	0.098
-372.815	-95.794	0.052	0.014
-371.800	98.807	-0.074	0.084
-370.785	455.045	-0.053	0.115
-369.771	-169.291	-0.156	0.006
-368.756	331.862	0.094	0.179
-367.742	266.904	-0.098	0.169
-366.727	-200.000	-0.076	0.464
-365.712	182.568	0.110	0.160
-364.698	32.361	-0.123	0.105
-363.683	-102.531	0.166	0.039
-362.669	194.481	0.269	0.402
-361.654	496.922	0.166	-0.377
-360.639	-139.397	-0.322	0.034
-359.625	89.701	0.092	0.101
-358.610	244.035	-0.064	-0.106
-357.596	65.381	-0.206	-0.206
-356.581	0.289	0.401	-0.282
-355.566	-109.328	-0.345	-0.072
-354.552	-200.000	0.013	-0.110
-353.537	300.073	-0.087	0.158
-352.523	60.502	-0.222	-0.216
-351.508	-103.710	-0.128	-0.030
-350.493	-144.875	-0.078	0.007
-349.479	800.000	-0.058	-0.221
-348.464	800.000	-0.063	-0.236
-347.450	800.000	-0.024	-0.075
-346.435	-56.234	-0.064	-0.028
-345.420	175.078	-0.110	-0.157
-344.406	487.163	0.103	-0.231
-343.391	800.000	-0.020	-0.079
-342.377	134.883	-0.128	-0.164
-341.362	242.258	0.066	-0.109
-340.348	-101.658	-0.331	-0.079
-339.333	412.354	0.073	0.153
-338.318	-162.304	-0.177	-0.009
-337.304	800.000	0.022	0.089
-336.289	213.159	-0.062	0.096
-335.275	-141.051	-0.181	-0.018
-334.260	-19.405	0.118	-0.072
-333.245	529.943	-0.050	0.117
-332.231	-200.000	0.029	0.170
-331.216	-26.776	0.410	-0.236
-330.202	-30.428	-0.221	-0.124
-329.187	-200.000	0.045	-0.237
-328.172	-38.718	-0.388	0.201
-327.158	366.165	0.164	0.325
-326.143	-200.000	0.068	0.366
-325.129	148.267	0.197	0.262
-324.114	-200.000	0.507	-0.001
-323.099	-153.869	-0.317	-0.021
-322.085	800.000	-0.029	0.102
-321.070	111.110	-0.137	0.162
-320.056	-200.000	0.003	-0.117
-319.041	122.476	-0.229	-0.282
-318.026	-42.882	0.226	-0.113
-317.012	-66.683	-0.403	0.157
-315.997	-161.699	0.291	-0.015
-314.983	689.926	0.082	-0.211
-313.968	-101.360	0.202	-0.048
-312.953	-200.000	-0.019	0.256
-311.939	56.951	-0.050	-0.048
-310.924	-102.060	0.095	-0.023
-309.910	-170.894	0.284	0.010
-308.895	-200.000	-0.007	-0.235
-307.880	530.104	0.098	0.228
-306.866	-6.420	-0.250	0.168
-305.851	-128.850	-0.282	-0.039
-304.837	85.248	-0.361	0.390
-303.822	-100.824	0.333	0.081
-302.807	-200.000	0.118	-0.570
-301.793	-200.000	-0.007	0.083
-300.778	-200.000	0.013	-0.180
-299.764	56.284	-0.142	0.135
-298.749	49.020	-0.090	-0.083
-297.735	-2.062	0.071	0.049
-296.720	-200.000	0.033	0.322
-295.705	800.000	0.056	0.160
-294.691	215.616	0.069	0.108
-293.676	-200.000	0.006	0.071
-292.662	32.717	0.184	-0.156
-291.647	-119.790	-0.197	0.033
-290.632	45.926	-0.042	-0.038
-289.618	-200.000	0.022	0.331
-288.603	-138.753	-0.121	-0.013
-287.589	48.769	-0.093	-0.085
-286.574	-200.000	-0.088	-0.389
-285.559	800.000	0.048	-0.157
-284.545	-200.000	-0.033	0.366
-283.530	-200.000	-0.015	0.200
-282.516	409.229	-0.098	-0.204
-281.501	35.710	0.184	0.159
-280.486	115.693	-0.240	0.289
-279.472	310.228	0.042	0.077
-278.457	-69.653	-0.143	-0.054
-277.443	287.149	-0.043	-0.077
-276.428	-63.225	-0.094	-0.038
-275.413	-108.575	-0.106	-0.022
-274.399	-148.400	0.049	-0.004
-273.384	-122.563	-0.384	-0.061
-272.370	-121.845	0.250	-0.040
-271.355	-25.719	-0.202	0.117
-270.340	70.444	0.202	-0.205
-269.326	7.123	0.125	0.092
-268.311	3.939	0.195	-0.140
-267.297	-14.300	0.147	0.093
-266.282	800.000	-0.025	0.104
-265.267	57.349	-0.142	-0.136
-264.253	196.674	-0.139	0.207
-263.238	-80.211	-0.175	0.058
-262.224	134.739	-0.092	0.117
-261.209	172.958	0.237	0.336
-260.195	235.166	0.132	0.214
-259.180	-200.000	-0.019	0.357
-258.165	800.000	0.047	-0.166
-257.151	284.216	0.208	-0.367
-256.136	139.008	-0.047	-0.061
-255.122	3.032	0.143	-0.102
-254.107	26.858	0.174	-0.143
-253.092	223.720	-0.096	0.153
-252.078	-188.211	0.259	-0.003
-251.063	-200.000	0.034	0.222
-250.049	117.609	-0.185	-0.223
-249.034	230.285	-0.184	-0.295
-248.019	-128.625	-0.189	-0.026
-247.005	-15.517	0.105	0.066
-245.990	18.915	-0.294	0.231
-244.976	32.240	-0.182	-0.154
-243.961	-200.000	-0.007	0.031
-242.946	-200.000	-0.068	0.428
-241.932	-184.222	-0.108	-0.002
-240.917	800.000	0.056	-0.181
-239.903	-120.317	-0.336	-0.056
-238.888	29.085	-0.165	0.137
-237.873	-78.117	0.258	0.087
-236.859	-124.616	0.239	-0.036
-235.844	120.652	-0.290	-0.353
-234.830	41.714	0.136	-0.120
-233.815	-99.550	0.089	0.022
-232.800	146.056	-0.090	0.119
-231.786	225.842	-0.093	0.148
-230.771	296.341	-0.070	0.125
-229.757	93.207	-0.031	0.034
-228.742	-200.000	-0.065	0.442
-227.727	-148.654	0.077	0.006
-226.713	159.153	-0.020	-0.027
-225.698	-200.000	-0.007	-0.082
-224.684	-49.514	0.196	-0.091
-223.669	800.000	-0.054	-0.199
-222.655	-70.736	-0.151	-0.056
-221.640	-200.000	-0.109	-0.470
-220.625	419.438	0.091	-0.191
-219.611	-61.758	-0.186	-0.077
-218.596	-200.000	0.020	0.238
-217.582	800.000	0.063	0.194
-216.567	189.597	-0.173	-0.254
-215.552	-49.303	0.328	-0.154
-214.538	-33.342	0.158	0.086
-213.523	409.900	-0.094	-0.195
-212.509	352.154	-0.230	0.446
-211.494	6.470	-0.255	0.186
-210.479	-157.314	0.106	0.006
-209.465	-200.000	-0.021	-0.111
-208.450	-95.337	-0.175	0.046
-207.436	-200.000	0.005	0.088
-206.421	-26.576	0.235	0.135
-205.406	-123.955	0.151	0.023
-204.392	-200.000	0.015	-0.119
-203.377	-76.041	-0.194	-0.067
-202.363	800.000	0.054	-0.178
-201.348	800.000	0.062	0.200
-200.333	51.545	-0.299	-0.278
-199.319	-200.000	-0.028	-0.317
-198.304	152.593	-0.081	0.108
-197.290	-82.289	0.306	-0.098
-196.275	63.431	0.050	0.049
-195.260	77.479	0.122	-0.127
-194.246	-68.274	0.095	-0.036
-193.231	66.461	0.268	0.267
-192.217	411.597	-0.142	0.296
-191.202	77.286	0.165	-0.172
-190.187	42.345	-0.074	0.066
-189.173	-98.237	-0.335	-0.084
-188.158	-200.000	-0.009	0.046
-187.144	-170.430	0.164	-0.006
-186.129	-33.004	-0.149	-0.081
-185.114	-124.148	-0.271	0.042
-184.100	491.723	-0.123	-0.276
-183.085	-149.834	0.311	-0.024
-182.071	-51.358	-0.037	-0.017
-181.056	800.000	-0.059	-0.173
-180.042	-200.000	0.003	0.351
-179.027	-133.400	0.121	0.015
-178.012	-19.105	-0.148	0.090
-176.998	800.000	-0.026	0.073
-175.983	800.000	0.074	0.242
-174.969	-139.351	-0.381	-0.040
-173.954	18.237	0.157	0.123
-172.939	-52.469	0.162	-0.073
-171.925	-138.997	0.047	0.005
-170.910	-26.781	0.094	-0.054
-169.896	101.289	0.163	-0.185
-168.881	137.992	-0.030	-0.039
-167.866	800.000	0.012	-0.049
-166.852	800.000	0.084	0.270
-165.837	-200.000	-0.021	-0.100
-164.823	16.000	-0.314	-0.241
-163.808	-200.000	-0.015	-0.135
-162.793	-200.000	0.053	0.263
-161.779	-120.591	-0.090	0.015
-160.764	-8.207	-0.055	0.036
-159.750	-80.949	-0.295	-0.096
-158.735	200.993	0.282	0.424
-157.720	-200.000	-0.032	0.345
-156.706	3.559	-0.223	0.159
-155.691	-91.646	0.231	0.064
-154.677	19.693	-0.100	0.078
-153.662	295.252	0.073	-0.130
-152.647	65.496	0.155	0.153
-151.633	-124.353	-0.060	-0.009
-150.618	132.162	-0.027	0.034
-149.604	-86.215	0.341	-0.103
-148.589	-176.512	0.164	-0.004
-147.574	506.981	0.150	-0.339
-146.560	-169.789	-0.296	0.010
-145.545	111.985	0.082	-0.096
-144.531	-200.000	-0.017	0.299
-143.516	-162.703	0.123	-0.006
-142.502	782.444	0.062	-0.166
-141.487	-84.435	-0.024	-0.007
-140.472	-48.032	-0.382	0.180
-139.458	502.827	-0.070	-0.158
-138.443	172.303	0.121	-0.170
-137.429	-77.864	0.115	0.039
-136.414	-167.130	-0.242	-0.010
-135.399	-112.109	0.444	-0.087
-134.385	-15.332	0.094	-0.059
-133.370	64.364	-0.081	-0.079
-132.356	81.753	-0.196	-0.207
-131.341	800.000	-0.059	0.203
-130.326	-118.328	-0.200	-0.035
-129.312	-20.769	-0.246	0.147
-128.297	-200.000	0.017	-0.141
-127.283	213.335	-0.319	0.492
-126.268	85.119	0.201	0.215
-125.253	137.970	-0.070	0.090
-124.239	800.000	0.038	-0.110
-123.224	-12.352	0.554	-0.354
-122.210	262.888	0.233	-0.395
-121.195	-200.000	-0.006	-0.203
-120.180	-150.651	0.303	0.023
-119.166	-200.000	-0.007	0.128
-118.151	-18.981	0.138	-0.084
-117.137	28.635	-0.211	-0.174
-116.122	-92.767	0.251	0.069
-115.107	442.754	-0.175	-0.374
-114.093	138.026	0.280	-0.358
-113.078	447.457	0.104	-0.224
-112.064	-43.595	-0.172	0.085
-111.049	115.301	-0.218	-0.259
-110.034	800.000	0.015	0.053
-109.020	5.937	-0.035	-0.025
-108.005	562.711	0.056	0.132
-106.991	177.012	0.113	-0.160
-105.976	800.000	0.118	0.356
-104.962	-200.000	0.020	0.103
-103.947	-200.000	-0.013	0.107
-102.932	-130.008	0.198	0.026
-101.918	-67.075	-0.143	-0.055
-100.903	196.567	-0.102	0.152
-99.889	20.524	-0.328	0.259
-98.874	62.435	0.148	0.145
-97.859	-40.566	0.113	-0.057
-96.845	-29.813	-0.054	-0.030
-95.830	-200.000	-0.009	0.094
-94.816	27.388	-0.257	-0.211
-93.801	-132.163	0.010	-0.001
-92.786	434.918	-0.102	0.217
-91.772	800.000	0.014	-0.058
-90.757	-121.470	-0.123	0.020
-89.743	-200.000	-0.050	0.248
-88.728	800.000	0.092	0.324
-87.713	73.427	-0.203	0.207
-86.699	-168.588	0.378	-0.014
-85.684	-200.000	-0.009	-0.121
-84.670	-148.198	-0.091	0.007
-83.655	800.000	-0.071	0.272
-82.640	-55.333	0.329	0.144
-81.626	-100.704	0.270	0.065
-80.611	101.662	-0.184	-0.209
-79.597	-71.280	0.208	0.076
-78.582	-123.095	-0.328	-0.051
-77.567	-91.155	-0.384	-0.107
-76.553	800.000	0.063	-0.213
-75.538	-200.000	-0.007	-0.123
-74.524	11.234	0.062	-0.047
-73.509	-200.000	-0.003	-0.049
-72.494	-120.864	0.152	0.025
-71.480	79.979	-0.042	-0.044
-70.465	52.759	0.302	0.281
-69.451	69.939	-0.176	0.177
-68.436	-200.000	0.027	0.233
-67.422	-14.234	0.240	-0.151
-66.407	-154.020	-0.084	0.006
-65.392	-50.029	0.037	-0.017
-64.378	88.989	0.171	-0.186
-63.363	-59.342	-0.183	-0.077
-62.349	428.566	0.171	0.360
-61.334	171.681	-0.912	-1.275
-60.319	8.534	1.160	0.850
-59.305	800.000	-0.530	-1.588
-58.290	381.988	0.838	1.676
-57.276	-200.000	0.307	1.732
-56.261	-200.000	126.121	682.981
-55.246	430.475	1587.667	3345.495
-54.232	141.864	2742.370	3538.476
-53.217	97.137	2174.675	2428.536
-52.203	34.124	1691.958	1435.395
-51.188	26.561	1509.370	1229.311
-50.173	24.598	1485.629	1196.793
-49.159	49.451	1558.417	1427.367
-48.144	46.404	1569.978	1416.965
-47.130	26.565	1518.581	1236.645
-46.115	23.702	1502.190	1203.875
-45.100	23.582	1498.743	1200.255
-44.086	23.509	1496.963	1198.282
-43.071	23.438	1495.580	1196.653
-42.057	23.415	1493.365	1194.678
-41.042	23.390	1491.868	1193.264
-40.027	23.376	1490.994	1192.424
-39.013	23.462	1489.406	1191.682
-37.998	23.374	1488.034	1189.945
-36.984	23.370	1487.155	1189.171
-35.969	23.416	1485.705	1188.275
-34.954	23.391	1484.290	1186.925
-33.940	23.324	1482.996	1185.397
-32.925	23.318	1481.880	1184.413
-31.911	23.392	1480.593	1183.835
-30.896	23.434	1479.521	1183.208
-29.881	23.515	1477.626	1182.189
-28.867	23.501	1475.911	1180.676
-27.852	23.530	1474.483	1179.679
-26.838	23.454	1473.931	1178.684
-25.823	23.534	1471.737	1177.414
-24.809	23.507	1470.416	1176.134
-23.794	23.451	1469.320	1174.837
-22.779	23.452	1467.446	1173.298
-21.765	23.461	1466.631	1172.664
-20.750	23.482	1465.637	1171.962
-19.736	23.479	1464.459	1170.948
-18.721	23.415	1463.298	1169.554
-17.706	23.419	1462.611	1168.983
-16.692	23.472	1461.305	1168.244
-15.677	23.409	1460.256	1166.942
-14.663	23.371	1459.808	1166.290
-13.648	23.373	1458.737	1165.401
-12.633	23.440	1457.342	1164.678
-11.619	23.451	1456.504	1164.039
-10.604	23.406	1456.288	1163.524
-9.590	23.421	1454.924	1162.487
-8.575	23.385	1454.355	1161.747
-7.560	23.425	1453.319	1161.139
-6.546	23.396	1452.429	1160.187
-5.531	23.336	1451.925	1159.346
-4.517	23.527	1450.567	1159.464
-3.502	23.475	1449.857	1158.515
-2.487	23.415	1448.515	1157.003
-1.473	23.481	1447.305	1156.419
-0.458	23.352	1446.497	1154.888
0.556	22.402	1436.189	1142.975
1.571	18.875	1411.569	1100.739
2.586	15.121	1350.105	1029.673
3.600	13.298	1266.335	955.182
4.615	12.194	1223.187	916.391
5.629	10.872	1167.540	867.572
6.644	5.921	1088.008	783.729
7.659	1.487	1052.792	736.836
8.673	0.909	1047.600	730.350
9.688	0.743	1044.888	727.597
10.702	0.807	1042.901	726.452
11.717	0.621	1041.653	724.627
12.731	2.381	1041.441	732.854
13.746	8.323	1049.476	767.055
14.761	14.453	1057.167	802.194
15.775	17.115	1060.342	817.360
16.790	17.095	1058.882	816.069
17.804	16.008	1057.573	809.767
18.819	15.282	1054.906	804.173
19.834	14.860	1053.694	801.157
20.848	14.553	1053.014	799.097
21.863	14.250	1052.709	797.344
22.877	14.117	1051.194	795.489
23.892	13.975	1050.267	794.037
24.907	13.711	1049.635	792.227
25.921	13.784	1048.699	791.802
26.936	13.742	1048.325	791.248
27.950	13.896	1047.450	791.251
28.965	13.964	1046.509	790.797
29.980	14.000	1045.683	790.271
30.994	13.965	1045.109	789.603
32.009	13.965	1044.130	788.794
33.023	14.103	1043.506	788.906
34.038	13.999	1042.989	787.949
35.053	14.054	1042.092	787.465
36.067	13.957	1041.276	786.320
37.082	13.993	1040.261	785.655
38.096	14.006	1039.399	784.993
39.111	14.013	1039.008	784.665
40.126	14.079	1037.429	783.713
41.140	13.941	1036.983	782.658
42.155	13.976	1035.530	781.655
43.169	13.785	1035.307	780.520
44.184	13.839	1034.248	779.904
45.199	13.708	1032.948	778.242
46.213	13.820	1032.209	778.139
47.228	13.777	1031.220	777.125
48.242	13.821	1030.019	776.357
49.257	13.861	1029.209	775.863
50.271	13.928	1028.304	775.426
51.286	13.888	1027.349	774.452
52.301	14.036	1026.370	774.334
53.315	13.940	1025.817	773.401
54.330	13.986	1024.955	772.896
55.344	13.932	1024.289	772.073
56.359	13.977	1022.981	771.232
57.374	13.907	1022.173	770.229
58.388	14.029	1021.147	769.950
59.403	13.719	1021.116	768.424
60.417	13.847	1019.850	767.994
61.432	13.735	1019.447	767.107
62.447	13.892	1018.246	766.858
63.461	13.848	1017.196	765.796
64.476	13.772	1016.920	765.171
65.490	13.858	1015.237	764.232
66.505	13.935	1014.636	764.068
67.520	13.758	1014.215	762.871
68.534	13.794	1013.786	762.643
69.549	13.846	1012.573	761.902
70.563	13.811	1012.073	761.301
71.578	13.869	1011.085	760.756
72.593	13.855	1010.419	760.122
73.607	13.760	1009.643	759.038
74.622	13.755	1008.718	758.250
75.636	13.627	1007.949	757.022
76.651	13.744	1006.776	756.608
77.666	13.751	1006.194	756.133
78.680	13.736	1005.423	755.422
79.695	13.884	1004.907	755.640
80.709	13.784	1004.372	754.717
81.724	13.889	1003.282	754.305
82.739	13.790	1002.844	753.463
83.753	13.820	1002.453	753.238
84.768	13.896	1001.338	752.674
85.782	13.849	1000.977	752.124
86.797	14.031	999.770	751.975
87.812	14.146	998.788	751.689
88.826	13.944	998.351	750.381
89.841	13.960	997.196	749.522
90.855	13.999	996.651	749.221
91.870	13.946	995.951	748.387
92.884	13.886	995.277	747.547
93.899	14.044	994.223	747.400
94.914	14.002	993.476	746.584
95.928	14.064	993.142	746.543
96.943	14.116	992.285	746.068
97.957	14.099	991.099	745.034
98.972	14.045	990.158	744.019
99.987	14.029	990.035	743.789
101.001	14.038	989.671	743.488
102.016	14.131	988.247	742.769
103.030	14.086	987.341	741.823
104.045	14.019	986.741	741.007
105.060	14.033	985.568	740.122
106.074	14.013	984.564	739.215
107.089	14.018	984.088	738.814
108.103	13.916	983.320	737.719
109.118	14.023	982.253	737.328
110.133	14.059	981.358	736.748
111.147	13.998	980.245	735.578
112.162	13.980	979.542	734.908
113.176	14.015	978.276	734.046
114.191	13.985	977.905	733.569
115.206	14.100	976.623	733.050
116.220	14.132	976.336	732.911
117.235	14.032	975.500	731.778
118.249	14.152	974.408	731.422
119.264	13.853	974.531	730.135
120.279	13.979	972.828	729.347
121.293	13.986	972.277	728.903
122.308	13.939	971.638	728.151
123.322	13.997	970.518	727.502
124.337	14.040	969.623	726.953
125.352	14.050	968.197	725.864
126.366	13.972	967.212	724.722
127.381	13.894	966.260	723.606
128.395	14.001	965.080	723.124
129.410	13.848	964.934	722.285
130.424	14.044	963.231	721.795
131.439	13.922	962.852	720.921
132.454	13.939	961.942	720.245
133.468	13.994	961.017	719.730
134.483	14.059	960.648	719.669
135.497	14.091	959.827	719.130
136.512	14.041	958.991	718.225
137.527	13.864	958.698	717.178
138.541	13.975	957.973	717.052
139.556	14.023	956.633	716.191
140.570	14.062	956.007	715.826
141.585	14.001	955.415	715.056
142.600	14.028	954.996	714.795
143.614	14.131	954.151	714.543
144.629	14.147	953.127	713.784
145.643	14.169	952.218	713.132
146.658	14.066	951.747	712.277
147.673	14.058	950.828	711.492
148.687	14.223	949.531	711.162
149.702	14.025	949.063	709.901
150.716	14.194	947.998	709.763
151.731	14.180	946.927	708.840
152.746	14.178	946.402	708.375
153.760	14.295	945.399	708.059
154.775	14.095	945.143	706.957
155.789	14.201	944.340	706.743
156.804	14.240	943.867	706.491
157.819	14.222	942.893	705.622
158.833	14.139	942.448	704.875
159.848	14.178	941.692	704.413
160.862	14.326	941.009	704.467
161.877	14.283	940.206	703.621
162.892	14.117	939.438	702.284
163.906	14.103	938.725	701.631
164.921	14.284	937.740	701.593
165.935	14.298	936.548	700.701
166.950	14.284	935.790	700.010
167.964	14.227	935.265	699.318
168.979	14.322	933.813	698.568
169.994	14.403	932.769	698.065
171.008	14.244	932.511	697.145
172.023	14.155	931.967	696.302
173.037	14.500	930.797	696.810
174.052	14.500	930.101	696.224
175.067	14.392	929.323	695.130
176.081	14.428	928.785	694.816
177.096	14.241	928.029	693.412
178.110	14.326	926.951	692.898
179.125	14.343	926.880	692.853
180.140	14.369	925.547	691.904
181.154	14.614	924.368	691.979
182.169	14.493	924.464	691.490
183.183	14.620	923.648	691.343
184.198	14.602	922.702	690.499
185.213	14.556	922.375	690.003
186.227	14.551	921.599	689.340
187.242	14.611	920.789	688.921
188.256	14.560	920.789	688.649
189.271	14.619	919.707	688.022
190.286	14.724	918.531	687.514
191.300	14.488	918.019	686.097
192.315	14.431	917.410	685.350
193.329	14.380	916.837	684.649
194.344	14.691	915.644	684.975
195.359	14.451	915.577	683.882
196.373	14.610	914.938	683.995
197.388	14.567	914.222	683.223
198.402	14.704	913.721	683.350
199.417	14.759	913.258	683.165
200.432	14.794	913.163	683.176
201.446	14.847	912.333	682.712
202.461	14.951	911.843	682.709
203.475	14.861	911.604	682.104
204.490	14.799	910.867	681.240
205.504	14.877	909.628	680.571
206.519	14.904	908.787	679.991
207.534	14.845	908.363	679.373
208.548	14.792	907.872	678.732
209.563	14.875	906.866	678.255
210.577	14.763	906.542	677.497
211.592	14.904	905.673	677.359
212.607	14.882	905.749	677.267
213.621	14.942	904.879	676.799
214.636	14.975	903.918	676.154
215.650	14.957	903.188	675.477
216.665	14.964	903.040	675.336
217.680	14.988	902.350	674.857
218.694	15.022	901.789	674.511
219.709	15.014	901.452	674.171
220.723	15.018	900.506	673.418
221.738	15.182	899.632	673.362
222.753	15.037	899.201	672.401
223.767	15.085	898.589	672.075
224.782	15.074	897.692	671.303
225.796	15.135	896.782	670.803
226.811	15.160	896.363	670.533
227.826	15.175	895.604	669.966
228.840	15.033	895.130	668.985
229.855	15.001	894.411	668.259
230.869	15.322	893.455	668.769
231.884	15.230	892.860	667.896
232.899	15.192	892.161	667.163
233.913	15.284	891.328	666.847
234.928	15.146	891.183	666.130
235.942	15.254	890.055	665.656
236.957	15.207	889.373	664.900
237.972	15.267	888.615	664.513
238.986	15.427	887.721	664.418
240.001	15.052	887.617	662.798
241.015	15.152	886.831	662.550
242.030	15.275	886.395	662.651
243.045	15.227	885.744	661.915
244.059	15.415	884.931	661.991
245.074	15.390	884.086	661.201
246.088	15.273	883.913	660.554
247.103	15.477	883.110	660.697
248.117	15.411	882.393	659.841
249.132	15.464	881.588	659.389
250.147	15.440	881.229	658.968
251.161	15.517	880.678	658.802
252.176	15.617	880.196	658.776
253.190	15.662	878.871	657.900
254.205	15.688	878.422	657.607
255.220	15.699	878.085	657.340
256.234	15.755	876.827	656.561
257.249	15.782	876.574	656.419
258.263	15.690	876.227	655.741
259.278	15.712	875.555	655.266
260.293	15.670	875.125	654.722
261.307	15.634	874.895	654.351
262.322	15.708	873.808	653.768
263.336	15.820	873.564	653.963
264.351	15.729	872.717	652.918
265.366	15.909	871.921	652.963
266.380	15.835	871.279	652.137
267.395	15.907	870.894	652.069
268.409	15.934	869.980	651.434
269.424	15.938	869.366	650.929
270.439	15.937	868.643	650.330
271.453	15.910	868.152	649.798
272.468	15.947	866.933	648.971
273.482	15.948	866.411	648.528
274.497	15.947	866.217	648.322
275.512	15.902	865.732	647.726
276.526	15.880	864.937	646.990
277.541	15.860	864.090	646.223
278.555	15.834	863.816	645.861
279.570	16.055	863.025	646.059
280.585	16.086	862.524	645.749
281.599	16.068	862.060	645.271
282.614	16.019	861.214	644.395
283.628	16.014	860.921	644.102
284.643	15.992	860.116	643.357
285.657	16.265	859.575	643.939
286.672	16.169	859.075	643.139
287.687	16.128	858.866	642.769
288.701	16.160	858.303	642.411
289.716	16.084	857.940	641.795
290.730	16.166	857.166	641.471
291.745	16.139	856.512	640.823
292.760	16.135	855.445	639.951
293.774	16.290	854.587	639.843
294.789	16.278	854.559	639.719
295.803	16.302	853.867	639.235
296.818	16.405	853.026	638.937
297.833	16.352	852.219	638.077
298.847	16.350	851.636	637.578
299.862	16.303	850.956	636.834
300.876	16.307	850.534	636.478
301.891	16.508	849.647	636.513
302.906	16.428	848.969	635.649
303.920	16.480	848.824	635.678
304.935	16.439	847.640	634.582
305.949	16.554	847.100	634.554
306.964	16.641	846.513	634.384
307.979	16.520	845.890	633.408
308.993	16.556	845.904	633.496
310.008	16.627	845.072	633.083
311.022	16.551	844.824	632.556
312.037	16.582	844.111	632.083
313.052	16.550	843.176	631.209
314.066	16.519	842.739	630.708
315.081	16.483	842.697	630.489
316.095	16.495	842.002	629.955
317.110	16.573	841.435	629.768
318.125	16.622	840.762	629.390
319.139	16.592	840.217	628.814
320.154	16.727	839.414	628.660
321.168	16.651	839.286	628.224
322.183	16.693	838.498	627.734
323.197	16.680	837.995	627.255
324.212	16.590	837.596	626.568
325.227	16.680	837.170	626.525
326.241	16.718	836.434	626.062
327.256	16.758	835.823	625.695
328.270	16.713	835.447	625.192
329.285	16.778	834.665	624.792
330.300	16.714	834.292	624.221
331.314	16.685	833.927	623.786
332.329	16.856	832.872	623.571
333.343	16.729	832.221	622.563
334.358	16.795	831.776	622.415
335.373	16.749	831.625	622.079
336.387	16.839	831.010	621.893
337.402	16.745	830.568	621.164
338.416	16.926	829.491	620.968
339.431	17.054	829.022	621.030
340.446	17.031	828.628	620.593
341.460	17.005	828.025	619.992
342.475	17.168	826.920	619.706
343.489	16.982	826.974	619.011
344.504	17.185	826.407	619.276
345.519	17.041	826.016	618.403
346.533	17.095	825.271	617.987
347.548	17.100	825.197	617.894
348.562	17.082	824.514	617.261
349.577	17.133	823.733	616.809
350.592	17.026	823.216	615.978
351.606	17.202	822.833	616.274
352.621	17.150	822.363	615.680
353.635	17.109	822.340	615.458
354.650	17.102	821.714	614.913
355.665	16.973	821.852	614.492
356.679	17.140	820.815	614.266
357.694	17.292	820.612	614.611
358.708	17.312	819.457	613.763
359.723	17.229	819.352	613.331
360.738	17.173	818.895	612.732
361.752	17.079	818.280	611.878
362.767	17.198	817.824	611.913
363.781	17.353	816.960	611.770
364.796	17.342	816.785	611.543
365.810	17.413	816.413	611.468
366.825	17.422	815.734	610.937
367.840	17.412	815.749	610.857
368.854	17.475	815.165	610.592
369.869	17.377	814.991	610.057
370.883	17.372	814.434	609.568
371.898	17.601	813.536	609.662
372.913	17.599	813.122	609.291
373.927	17.394	812.624	608.130
374.942	17.620	811.551	608.080
375.956	17.485	811.429	607.453
376.971	17.681	810.710	607.559
377.986	17.557	810.185	606.673
379.000	17.657	809.521	606.477
380.015	17.616	809.398	606.187
381.029	17.752	808.757	606.135
382.044	17.651	808.177	605.287
383.059	17.587	807.847	604.759
384.073	17.769	806.789	604.559
385.088	17.818	806.394	604.383
386.102	17.688	806.184	603.713
387.117	17.709	805.663	603.341
388.132	17.725	805.047	602.885
389.146	17.730	804.787	602.654
390.161	17.824	803.983	602.331
391.175	17.769	804.034	602.123
392.190	17.700	803.618	601.513
393.205	17.948	803.036	601.899
394.219	17.849	802.534	601.121
395.234	17.872	802.234	600.923
396.248	17.797	801.436	600.010
397.263	17.696	801.107	599.356
398.278	17.782	800.914	599.459
399.292	17.736	800.190	598.705
400.307	17.686	799.771	598.160
401.321	17.759	799.506	598.167
402.336	17.828	799.124	598.069
403.350	17.861	798.980	598.025
404.365	17.980	798.016	597.664
405.380	18.031	797.549	597.444
406.394	17.918	797.217	596.745
407.409	18.134	796.690	597.052
408.423	18.090	796.098	596.402
409.438	18.021	795.826	595.905
410.453	18.059	795.469	595.719
411.467	18.122	794.992	595.527
412.482	18.398	794.140	595.795
413.496	18.262	793.979	595.151
414.511	18.281	793.697	594.952
415.526	18.237	793.373	594.502
416.540	18.281	792.734	594.124
417.555	18.049	792.572	593.147
418.569	18.186	792.183	593.277
419.584	18.336	791.726	593.403
420.599	18.310	791.082	592.778
421.613	116.188	1297.139	1491.077
422.628	100.047	1370.836	1491.145
