DTS Sentinel unit serial number:	SN413079Multiplexer serial number:	ORYXHardware model number:	OX4-SRSoftware version number:	ORYX F/W v4.00 Oryx Data Collector v3.7.2.0data status	okinstallation	princeton_trtdifferential loss correction	single-endedforward channel	channel 3reverse channel	N/Adate	2019/09/13time	12:40:35forward acquisition time	60.00reverse acquisition time	0.00gamma	496.2192k internal	0.2303k external	0.2303temperature offset calibration	1.0151default loss term (dB/km)	0.3790temperature slope calibration	1.0000multiplexer offset coefficient	1.0000multiplexer slope coefficient	1.0000fibre end	0.00T internal ref (°C)	34.62T ext. ref 1 (°C)	4.61T ext. ref 2 (°C)	31.43length (m)	temperature (°C)	Stokes	anti-Stokes-747.200	39.626	0.052	0.048
-746.185	75.735	-0.232	0.250
-745.171	3.028	0.193	0.143
-744.156	111.584	-0.292	0.358
-743.142	800.000	-0.052	-0.196
-742.127	-200.000	-0.033	0.221
-741.112	98.660	0.140	0.164
-740.098	-200.000	-0.003	0.318
-739.083	156.186	-0.146	-0.205
-738.069	226.941	0.128	0.212
-737.054	16.888	-0.081	0.066
-736.039	435.155	0.124	-0.274
-735.025	-89.264	0.099	-0.030
-734.010	-33.575	-0.182	0.102
-732.996	3.428	-0.196	-0.145
-731.981	-148.909	0.388	-0.032
-730.966	-128.985	-0.169	0.024
-729.952	-200.000	-0.020	-0.243
-728.937	683.025	0.042	-0.112
-727.923	-112.583	-0.153	0.031
-726.908	800.000	-0.062	-0.235
-725.894	800.000	-0.033	-0.134
-724.879	24.383	-0.172	-0.145
-723.864	160.289	-0.202	-0.286
-722.850	-6.471	-0.352	-0.244
-721.835	-112.618	-0.211	-0.043
-720.821	57.259	0.126	-0.125
-719.806	56.457	0.090	-0.089
-718.791	-138.962	0.119	-0.013
-717.777	-200.000	-0.000	0.003
-716.762	-122.063	-0.127	0.021
-715.748	-106.638	-0.573	0.130
-714.733	36.606	-0.113	0.101
-713.718	-113.977	0.391	-0.077
-712.704	800.000	-0.034	-0.144
-711.689	12.923	0.089	-0.070
-710.675	-121.593	-0.159	-0.027
-709.660	-132.568	-0.158	-0.021
-708.645	-61.251	-0.068	-0.029
-707.631	51.887	-0.082	-0.079
-706.616	-68.344	0.162	-0.064
-705.602	74.809	-0.150	-0.161
-704.587	573.163	-0.017	0.043
-703.572	-200.000	-0.051	-0.238
-702.558	800.000	-0.087	0.319
-701.543	-200.000	-0.003	-0.019
-700.529	561.055	0.025	0.062
-699.514	5.729	0.149	0.112
-698.499	800.000	-0.059	-0.221
-697.485	256.258	-0.116	0.203
-696.470	800.000	0.066	-0.258
-695.456	17.056	-0.266	-0.214
-694.441	-169.941	-0.113	-0.004
-693.426	800.000	0.055	-0.193
-692.412	800.000	-0.080	-0.258
-691.397	287.362	-0.121	-0.223
-690.383	100.996	-0.307	-0.362
-689.368	332.199	0.108	0.212
-688.354	-69.820	-0.195	0.076
-687.339	759.750	0.167	-0.461
-686.324	-68.185	-0.464	0.183
-685.310	42.714	0.136	-0.126
-684.295	-19.669	-0.194	-0.122
-683.281	-36.305	0.141	-0.077
-682.266	273.606	-0.221	-0.398
-681.251	162.815	0.085	0.121
-680.237	-128.800	0.181	0.026
-679.222	16.418	-0.040	-0.032
-678.208	397.873	0.111	-0.236
-677.193	176.255	-0.112	-0.166
-676.178	-200.000	0.021	-0.138
-675.164	-118.155	0.081	0.015
-674.149	192.422	0.141	0.216
-673.135	-162.694	-0.269	0.013
-672.120	760.372	0.097	0.268
-671.105	-22.648	0.252	-0.155
-670.091	428.883	0.041	0.090
-669.076	-200.000	-0.001	0.128
-668.062	112.036	-0.175	-0.215
-667.047	800.000	-0.109	0.320
-666.032	-38.284	0.354	-0.190
-665.018	-76.747	0.186	0.066
-664.003	-155.782	0.217	-0.014
-662.989	116.852	-0.092	-0.115
-661.974	-135.827	0.508	0.061
-660.959	41.639	-0.038	0.035
-659.945	-24.140	-0.030	-0.018
-658.930	-36.939	-0.354	-0.193
-657.916	-49.585	-0.049	0.024
-656.901	232.286	0.018	-0.029
-655.886	-200.000	0.038	0.193
-654.872	800.000	-0.060	-0.168
-653.857	-200.000	-0.016	0.101
-652.843	-200.000	-0.081	0.451
-651.828	800.000	0.008	-0.023
-650.814	226.915	0.065	0.108
-649.799	800.000	0.065	-0.287
-648.784	304.367	-0.114	-0.214
-647.770	282.446	0.009	0.016
-646.755	176.267	-0.102	-0.150
-645.741	-18.948	0.131	-0.083
-644.726	-88.031	0.192	-0.058
-643.711	-23.361	-0.174	-0.106
-642.697	142.752	-0.119	-0.160
-641.682	-144.097	-0.072	-0.007
-640.668	-200.000	-0.010	-0.252
-639.653	33.754	-0.276	-0.244
-638.638	-8.325	-0.125	-0.085
-637.624	-122.572	-0.085	-0.014
-636.609	39.545	-0.163	0.148
-635.595	76.050	-0.196	0.211
-634.580	330.894	0.063	-0.123
-633.565	149.100	-0.125	0.171
-632.551	770.251	0.113	0.313
-631.536	674.135	0.067	-0.176
-630.522	100.502	0.072	-0.085
-629.507	-146.433	0.034	0.003
-628.492	-200.000	0.069	-0.342
-627.478	-200.000	0.017	-0.119
-626.463	30.767	-0.148	0.129
-625.449	-70.530	-0.307	-0.118
-624.434	-172.550	-0.072	-0.002
-623.419	-116.776	-0.193	0.036
-622.405	-118.147	0.138	-0.025
-621.390	-58.891	-0.485	-0.213
-620.376	-54.135	-0.411	-0.190
-619.361	-56.955	0.042	-0.019
-618.346	180.501	0.178	-0.264
-617.332	657.992	0.063	0.165
-616.317	40.574	-0.145	0.132
-615.303	-200.000	0.023	-0.160
-614.288	800.000	-0.034	-0.147
-613.273	800.000	0.059	-0.256
-612.259	129.784	-0.186	-0.240
-611.244	-168.525	0.408	0.016
-610.230	-149.407	0.243	-0.020
-609.215	-48.652	-0.356	-0.173
-608.201	171.462	-0.167	-0.243
-607.186	452.233	0.082	0.183
-606.171	-68.322	-0.180	0.071
-605.157	630.113	-0.097	-0.250
-604.142	121.922	0.088	-0.111
-603.128	-200.000	-0.014	0.106
-602.113	243.785	-0.144	0.245
-601.098	-91.627	-0.108	0.031
-600.084	-200.000	0.013	0.166
-599.069	-200.000	0.001	-0.289
-598.055	-200.000	0.016	-0.245
-597.040	-156.330	0.080	0.005
-596.025	337.398	0.079	0.155
-595.011	-151.695	-0.263	0.020
-593.996	-151.762	0.137	-0.010
-592.982	-13.076	-0.293	0.193
-591.967	-200.000	-0.029	0.206
-590.952	-53.142	0.183	0.085
-589.938	372.487	-0.080	-0.164
-588.923	800.000	-0.076	-0.275
-587.909	526.258	0.074	0.175
-586.894	259.425	-0.095	0.166
-585.879	-98.171	0.220	-0.057
-584.865	-37.794	-0.250	0.135
-583.850	800.000	0.123	0.425
-582.836	-132.930	-0.438	0.056
-581.821	-113.700	-0.147	-0.029
-580.806	-42.756	-0.330	0.170
-579.792	800.000	0.061	0.208
-578.777	-200.000	-0.015	-0.322
-577.763	-67.520	-0.151	0.060
-576.748	-29.654	-0.306	-0.177
-575.733	-76.181	-0.194	-0.069
-574.719	-111.636	0.248	0.051
-573.704	327.688	0.003	-0.007
-572.690	157.503	-0.183	0.256
-571.675	32.818	0.122	-0.107
-570.661	338.916	0.111	0.219
-569.646	237.501	0.083	0.139
-568.631	-200.000	-0.021	-0.286
-567.617	-111.038	0.284	0.059
-566.602	19.869	0.136	-0.110
-565.588	168.688	0.104	-0.150
-564.573	-152.764	-0.279	-0.020
-563.558	-16.802	0.203	-0.130
-562.544	-198.289	0.222	-0.001
-561.529	-74.354	0.367	-0.134
-560.515	-6.272	0.364	0.251
-559.500	-106.015	-0.289	-0.066
-558.485	-88.701	0.064	-0.019
-557.471	51.186	-0.068	0.066
-556.456	2.071	0.290	-0.212
-555.442	-127.936	0.159	0.023
-554.427	-111.984	0.289	-0.059
-553.412	285.695	0.017	-0.031
-552.398	118.575	-0.102	-0.127
-551.383	-142.671	0.366	-0.036
-550.369	204.006	-0.113	0.177
-549.354	528.078	0.101	0.241
-548.339	-200.000	-0.034	0.279
-547.325	584.134	0.068	-0.168
-546.310	-185.064	-0.274	0.004
-545.296	73.899	0.041	0.043
-544.281	387.855	0.036	0.076
-543.266	-200.000	-0.006	0.357
-542.252	-35.435	-0.044	0.024
-541.237	71.216	0.048	-0.051
-540.223	-127.227	0.162	-0.024
-539.208	4.788	0.190	0.141
-538.193	225.123	0.282	-0.461
-537.179	119.158	-0.078	0.098
-536.164	76.409	-0.193	0.207
-535.150	111.514	-0.086	0.105
-534.135	25.101	0.141	-0.119
-533.121	253.123	0.060	0.103
-532.106	-25.123	0.351	-0.210
-531.091	-54.233	-0.183	-0.084
-530.077	44.645	0.124	0.115
-529.062	-200.000	0.028	0.132
-528.048	-99.995	-0.216	-0.054
-527.033	-200.000	-0.023	0.264
-526.018	394.104	0.093	-0.195
-525.004	134.542	-0.276	0.362
-523.989	-15.828	-0.075	0.048
-522.975	800.000	-0.074	0.308
-521.960	-200.000	0.081	-0.542
-520.945	-200.000	0.001	-0.207
-519.931	-200.000	-0.026	0.200
-518.916	76.181	-0.137	0.146
-517.902	800.000	-0.040	0.164
-516.887	-200.000	-0.029	0.322
-515.872	170.407	0.081	-0.118
-514.858	800.000	0.055	0.167
-513.843	45.913	-0.104	0.097
-512.829	-200.000	-0.027	0.209
-511.814	91.204	0.160	-0.181
-510.799	-88.960	-0.079	0.024
-509.785	800.000	-0.074	0.261
-508.770	-126.100	-0.098	-0.015
-507.756	-200.000	-0.008	-0.119
-506.741	-200.000	0.002	-0.373
-505.726	72.996	0.028	-0.029
-504.712	-0.140	0.243	-0.175
-503.697	17.101	-0.172	-0.138
-502.683	-138.949	-0.136	0.015
-501.668	800.000	0.044	0.155
-500.653	543.178	-0.084	0.203
-499.639	-26.242	-0.267	-0.158
-498.624	696.793	-0.162	-0.428
-497.610	442.175	-0.027	0.060
-496.595	-200.000	-0.014	0.312
-495.581	-29.398	-0.135	-0.078
-494.566	54.484	-0.219	-0.213
-493.551	-99.606	0.219	0.055
-492.537	101.063	0.070	0.082
-491.522	24.826	0.065	0.054
-490.508	-200.000	-0.026	0.464
-489.493	-140.162	0.106	-0.011
-488.478	-35.196	0.111	-0.061
-487.464	-27.538	-0.369	0.216
-486.449	66.808	-0.166	-0.170
-485.435	-200.000	-0.035	-0.200
-484.420	57.424	0.140	-0.138
-483.405	-1.916	-0.108	0.077
-482.391	308.500	-0.103	-0.193
-481.376	487.782	-0.148	-0.341
-480.362	-12.527	-0.300	0.197
-479.347	-200.000	-0.002	-0.128
-478.332	800.000	0.017	-0.068
-477.318	-200.000	-0.010	-0.335
-476.303	110.719	0.062	-0.075
-475.289	42.730	0.083	-0.076
-474.274	-107.565	-0.098	0.022
-473.259	-80.151	0.020	-0.007
-472.245	-45.018	-0.306	0.153
-471.230	51.996	0.098	0.094
-470.216	-75.144	0.305	-0.110
-469.201	700.064	0.027	-0.072
-468.186	376.336	-0.077	0.158
-467.172	-180.564	0.202	0.004
-466.157	-200.000	0.018	-0.210
-465.143	254.856	-0.138	-0.238
-464.128	-200.000	-0.051	0.382
-463.113	222.745	-0.172	0.279
-462.099	-200.000	-0.001	0.036
-461.084	-10.030	0.111	0.074
-460.070	147.655	0.144	0.196
-459.055	213.665	0.100	-0.159
-458.040	-200.000	0.026	-0.313
-457.026	135.700	-0.198	-0.260
-456.011	-4.507	0.364	-0.253
-454.997	-13.131	-0.207	-0.135
-453.982	98.308	0.337	0.391
-452.968	111.028	-0.148	-0.179
-451.953	-18.819	0.281	-0.176
-450.938	-200.000	0.029	0.452
-449.924	-200.000	-0.010	0.216
-448.909	390.364	-0.148	0.309
-447.895	-166.812	0.255	0.011
-446.880	-116.406	0.283	0.053
-445.865	800.000	0.023	-0.085
-444.851	-200.000	-0.035	-0.182
-443.836	-69.797	-0.108	-0.042
-442.822	800.000	0.055	0.192
-441.807	-87.906	0.245	-0.074
-440.792	-200.000	-0.019	-0.264
-439.778	-143.404	-0.129	0.012
-438.763	-159.224	-0.195	0.011
-437.749	53.319	0.136	-0.131
-436.734	-100.592	0.071	0.018
-435.719	49.340	-0.085	-0.080
-434.705	-200.000	0.039	-0.291
-433.690	-5.313	-0.248	0.171
-432.676	400.918	-0.034	-0.073
-431.661	128.242	-0.049	0.063
-430.646	289.283	-0.208	-0.379
-429.632	-78.919	0.257	0.088
-428.617	-25.785	0.182	0.108
-427.603	66.947	0.070	-0.072
-426.588	-105.955	0.112	0.025
-425.573	-124.100	-0.070	0.011
-424.559	390.122	0.092	0.191
-423.544	-111.618	-0.098	0.020
-422.530	520.874	0.075	-0.177
-421.515	-70.966	-0.186	0.070
-420.500	227.785	0.170	0.278
-419.486	-98.325	-0.275	0.071
-418.471	-61.236	-0.186	0.079
-417.457	-153.856	0.433	-0.030
-416.442	-200.000	0.051	0.261
-415.428	-200.000	0.043	0.220
-414.413	-64.426	0.141	0.058
-413.398	-6.963	-0.154	-0.105
-412.384	-142.470	0.177	-0.017
-411.369	48.914	0.043	-0.041
-410.355	85.515	-0.127	-0.140
-409.340	58.361	0.217	-0.214
-408.325	11.423	-0.177	-0.136
-407.311	123.879	0.278	0.351
-406.296	-200.000	0.032	-0.261
-405.282	-24.706	-0.054	0.032
-404.267	800.000	-0.049	0.184
-403.252	-114.019	0.338	0.066
-402.238	395.267	0.167	0.350
-401.223	-100.272	0.235	-0.059
-400.209	399.127	0.091	0.191
-399.194	800.000	-0.088	0.281
-398.179	-200.000	-0.111	0.531
-397.165	800.000	-0.142	0.477
-396.150	800.000	0.109	0.458
-395.136	-91.290	0.212	-0.061
-394.121	-81.097	-0.410	-0.136
-393.106	-80.287	0.205	-0.069
-392.092	-86.979	-0.014	0.004
-391.077	-200.000	-0.005	0.075
-390.063	201.784	-0.155	-0.240
-389.048	800.000	0.099	0.312
-388.033	190.349	-0.110	-0.167
-387.019	-107.197	-0.314	-0.069
-386.004	106.246	-0.156	0.186
-384.990	-95.340	-0.197	0.053
-383.975	64.422	0.065	-0.066
-382.960	599.764	-0.033	0.082
-381.946	-175.071	-0.031	-0.001
-380.931	-85.213	0.100	-0.031
-379.917	-200.000	0.005	-0.319
-378.902	-200.000	0.052	-0.336
-377.888	-149.646	0.130	0.010
-376.873	5.947	0.134	0.099
-375.858	-200.000	-0.032	-0.242
-374.844	-176.569	-0.257	-0.007
-373.829	371.535	-0.025	0.051
-372.815	102.630	0.199	0.234
-371.800	36.275	-0.255	-0.226
-370.785	-116.569	-0.152	-0.028
-369.771	-137.187	0.098	-0.011
-368.756	-11.004	-0.324	-0.215
-367.742	261.764	0.104	-0.181
-366.727	-181.919	0.275	0.005
-365.712	59.144	0.156	-0.154
-364.698	-24.528	0.308	-0.184
-363.683	22.400	0.167	0.137
-362.669	190.220	-0.056	-0.084
-361.654	800.000	-0.065	0.232
-360.639	342.455	0.105	0.206
-359.625	756.060	0.086	0.232
-358.610	-9.566	-0.383	0.256
-357.596	-200.000	-0.011	0.067
-356.581	634.923	-0.040	0.103
-355.566	-53.320	-0.078	-0.036
-354.552	64.868	-0.019	-0.019
-353.537	57.551	0.131	0.128
-352.523	84.312	0.159	0.174
-351.508	-35.536	-0.122	-0.066
-350.493	567.269	0.097	-0.237
-349.479	-157.708	-0.064	-0.004
-348.464	131.089	0.322	-0.415
-347.450	800.000	0.080	-0.342
-346.435	-99.456	0.159	0.040
-345.420	800.000	-0.055	-0.195
-344.406	20.345	0.254	-0.206
-343.391	-139.691	0.128	0.014
-342.377	-48.814	-0.130	0.063
-341.362	44.670	-0.079	-0.073
-340.348	-49.491	0.175	0.084
-339.333	40.837	-0.276	0.249
-338.318	501.122	0.052	-0.121
-337.304	4.804	-0.248	-0.183
-336.289	453.503	0.149	-0.331
-335.275	-91.125	0.093	-0.027
-334.260	800.000	-0.019	-0.080
-333.245	551.646	-0.070	-0.170
-332.231	-200.000	0.004	-0.140
-331.216	-33.997	0.359	-0.198
-330.202	257.156	-0.144	-0.249
-329.187	-3.691	-0.101	0.071
-328.172	-200.000	0.004	0.258
-327.158	418.955	0.132	0.284
-326.143	23.316	-0.348	0.287
-325.129	91.838	-0.052	0.059
-324.114	101.772	0.259	-0.303
-323.099	800.000	-0.076	0.220
-322.085	-103.502	-0.045	-0.011
-321.070	680.859	-0.048	0.124
-320.056	-200.000	-0.065	-0.321
-319.041	-200.000	-0.037	0.188
-318.026	343.715	-0.093	0.182
-317.012	-200.000	0.041	0.240
-315.997	278.112	-0.080	0.142
-314.983	-200.000	-0.009	-0.060
-313.968	34.810	0.117	0.103
-312.953	-4.738	0.126	0.087
-311.939	-2.920	0.090	-0.063
-310.924	-78.132	-0.074	-0.026
-309.910	87.584	-0.171	-0.190
-308.895	-152.006	-0.191	-0.014
-307.880	-200.000	-0.029	0.372
-306.866	-86.610	-0.190	0.058
-305.851	-200.000	0.006	-0.071
-304.837	-150.207	0.108	0.008
-303.822	-200.000	0.027	-0.276
-302.807	36.303	0.106	-0.094
-301.793	95.426	0.388	0.443
-300.778	-114.671	-0.191	0.037
-299.764	-52.228	-0.430	-0.200
-298.749	-200.000	0.050	0.329
-297.735	150.155	0.024	0.033
-296.720	-77.564	0.280	-0.097
-295.705	71.431	-0.024	0.025
-294.691	439.404	0.135	0.294
-293.676	-10.729	-0.154	0.102
-292.662	-139.044	-0.178	0.019
-291.647	-200.000	-0.026	-0.310
-290.632	-124.370	0.200	0.031
-289.618	69.341	0.097	0.100
-288.603	22.251	-0.268	0.219
-287.589	-73.542	-0.261	-0.095
-286.574	324.506	0.200	-0.381
-285.559	-170.439	-0.104	0.004
-284.545	-128.743	0.110	-0.016
-283.530	16.195	-0.241	-0.190
-282.516	34.193	-0.133	-0.116
-281.501	385.702	-0.111	-0.228
-280.486	-55.411	-0.191	0.086
-279.472	51.128	-0.030	-0.029
-278.457	-73.386	0.271	0.099
-277.443	-145.538	0.312	-0.028
-276.428	23.679	0.079	0.065
-275.413	71.607	0.109	-0.113
-274.399	233.358	0.162	-0.267
-273.384	800.000	0.101	-0.385
-272.370	-200.000	-0.014	0.099
-271.355	-84.570	-0.257	-0.081
-270.340	-200.000	0.011	0.113
-269.326	366.110	-0.050	0.101
-268.311	-56.657	0.165	0.073
-267.297	-200.000	0.006	0.350
-266.282	-38.874	0.371	0.195
-265.267	-44.975	-0.076	0.038
-264.253	-9.682	0.250	-0.167
-263.238	-37.611	-0.115	0.061
-262.224	61.799	-0.257	-0.256
-261.209	-57.788	-0.244	0.107
-260.195	53.390	-0.097	0.093
-259.180	-200.000	-0.071	0.340
-258.165	-58.541	0.242	0.105
-257.151	-107.474	-0.313	-0.069
-256.136	54.092	0.187	-0.180
-255.122	36.860	-0.105	-0.093
-254.107	-165.373	0.148	-0.007
-253.092	800.000	0.032	-0.118
-252.078	88.627	0.110	0.122
-251.063	207.009	0.087	-0.135
-250.049	-104.050	-0.244	0.057
-249.034	4.208	-0.154	0.113
-248.019	-74.540	0.093	-0.033
-247.005	-28.607	-0.066	-0.038
-245.990	502.740	0.019	0.043
-244.976	-87.827	-0.256	-0.077
-243.961	331.372	-0.069	-0.132
-242.946	800.000	-0.051	0.188
-241.932	431.847	0.140	0.302
-240.917	-200.000	-0.248	-0.001
-239.903	-177.679	-0.075	0.002
-238.888	-193.089	0.344	-0.003
-237.873	369.439	-0.103	-0.207
-236.859	800.000	0.108	0.420
-235.844	-152.436	0.193	0.014
-234.830	-115.287	0.188	0.035
-233.815	-200.000	0.031	0.256
-232.800	82.337	0.097	0.105
-231.786	58.826	-0.248	0.243
-230.771	22.474	0.152	-0.124
-229.757	-72.344	-0.177	0.065
-228.742	-46.993	0.040	-0.020
-227.727	-90.814	-0.365	-0.105
-226.713	-23.050	-0.203	0.122
-225.698	-14.970	0.203	0.130
-224.684	272.677	-0.048	-0.084
-223.669	41.675	0.159	-0.144
-222.655	-200.000	0.013	-0.068
-221.640	-39.272	0.099	0.052
-220.625	-65.451	0.148	-0.060
-219.611	-16.409	0.069	-0.043
-218.596	-71.668	0.104	0.039
-217.582	-200.000	0.004	0.025
-216.567	-200.000	-0.044	-0.339
-215.552	-136.711	0.170	-0.020
-214.538	-86.076	-0.023	0.007
-213.523	800.000	0.032	-0.102
-212.509	541.350	-0.079	0.189
-211.494	-161.099	-0.083	0.004
-210.479	322.802	0.100	-0.189
-209.465	134.255	-0.100	-0.129
-208.450	165.021	-0.109	0.153
-207.436	98.397	0.096	0.110
-206.421	800.000	0.074	0.204
-205.406	800.000	0.063	-0.251
-204.392	-52.716	-0.207	0.095
-203.377	-114.540	-0.278	0.053
-202.363	2.696	-0.071	0.051
-201.348	-12.685	0.408	-0.266
-200.333	310.044	-0.141	0.264
-199.319	-37.963	0.294	0.156
-198.304	800.000	-0.107	-0.349
-197.290	800.000	0.039	-0.134
-196.275	132.970	0.099	0.127
-195.260	-83.110	0.139	0.044
-194.246	-200.000	-0.033	-0.326
-193.231	-56.550	0.343	-0.151
-192.217	656.960	-0.067	0.171
-191.202	-115.772	0.097	-0.018
-190.187	251.830	-0.199	-0.338
-189.173	-178.390	-0.424	0.010
-188.158	-38.053	0.188	0.100
-187.144	286.515	0.197	0.354
-186.129	9.074	-0.077	0.058
-185.114	131.929	-0.010	0.013
-184.100	-169.875	-0.272	0.010
-183.085	-116.392	0.193	0.036
-182.071	96.687	-0.034	0.039
-181.056	-200.000	-0.036	0.166
-180.042	800.000	0.069	-0.225
-179.027	643.623	-0.100	-0.255
-178.012	-20.073	-0.062	-0.038
-176.998	-144.735	0.279	0.026
-175.983	-40.724	0.231	-0.119
-174.969	-136.123	-0.371	0.043
-173.954	176.896	-0.106	0.153
-172.939	110.043	0.253	0.303
-171.925	-200.000	-0.042	-0.342
-170.910	441.569	-0.146	0.318
-169.896	69.660	0.087	0.089
-168.881	800.000	0.032	0.093
-167.866	352.617	0.224	-0.443
-166.852	117.569	-0.135	0.165
-165.837	526.727	0.041	-0.097
-164.823	-30.070	0.170	-0.096
-163.808	-200.000	-0.395	0.000
-162.793	15.085	0.104	0.081
-161.779	307.740	0.163	-0.303
-160.764	115.486	0.083	0.101
-159.750	-28.840	-0.032	-0.018
-158.735	-112.290	-0.164	-0.033
-157.720	91.972	0.165	0.185
-156.706	120.539	0.190	0.235
-155.691	-31.730	-0.081	0.045
-154.677	-168.180	0.461	-0.018
-153.662	-200.000	0.012	-0.146
-152.647	-200.000	0.043	0.324
-151.633	-139.527	0.099	-0.010
-150.618	309.144	-0.085	0.159
-149.604	31.225	-0.182	-0.155
-148.589	-78.262	0.077	0.026
-147.574	-142.833	-0.209	0.020
-146.560	-19.869	0.120	0.074
-145.545	-200.000	0.001	-0.104
-144.531	-200.000	0.002	0.091
-143.516	-129.323	0.078	0.011
-142.502	-6.393	-0.202	-0.137
-141.487	-17.992	-0.257	-0.160
-140.472	-165.754	-0.343	0.015
-139.458	190.566	-0.198	0.296
-138.443	104.300	-0.154	-0.180
-137.429	148.606	0.141	0.189
-136.414	77.378	0.038	0.040
-135.399	-81.684	0.278	0.091
-134.385	-200.000	-0.020	0.306
-133.370	-166.804	0.168	0.007
-132.356	22.753	0.360	-0.294
-131.341	-55.353	0.055	-0.025
-130.326	800.000	0.017	0.046
-129.312	800.000	-0.081	-0.240
-128.297	-76.247	0.503	-0.176
-127.283	-96.431	-0.172	0.045
-126.268	-200.000	0.031	-0.336
-125.253	-200.000	-0.045	-0.364
-124.239	-29.858	0.285	-0.162
-123.224	-1.307	0.182	0.128
-122.210	-10.103	0.106	0.070
-121.195	-19.926	0.058	0.036
-120.180	800.000	0.137	-0.384
-119.166	457.025	0.132	-0.292
-118.151	25.246	-0.199	-0.164
-117.137	8.479	-0.094	-0.070
-116.122	85.053	0.089	0.097
-115.107	96.862	0.208	0.237
-114.093	219.390	0.067	0.106
-113.078	189.369	0.158	-0.236
-112.064	-97.602	0.278	-0.072
-111.049	-200.000	-0.007	-0.209
-110.034	-147.376	0.141	0.012
-109.020	-97.833	-0.411	-0.106
-108.005	228.085	0.110	-0.177
-106.991	-182.671	0.112	-0.002
-105.976	332.152	0.023	0.045
-104.962	-3.416	0.267	0.184
-103.947	-32.273	0.390	0.217
-102.932	88.542	0.341	0.376
-101.918	-53.621	-0.302	-0.137
-100.903	172.396	0.129	0.184
-99.889	-25.304	0.009	-0.005
-98.874	191.628	0.205	0.307
-97.859	-200.000	0.022	-0.111
-96.845	197.359	0.119	-0.181
-95.830	-181.197	-0.043	-0.001
-94.816	496.797	-0.175	-0.401
-93.801	800.000	0.090	0.283
-92.786	393.244	-0.169	0.349
-91.772	-118.681	0.078	0.014
-90.757	-78.695	-0.378	-0.128
-89.743	-179.498	-0.487	0.011
-88.728	-200.000	-0.014	-0.154
-87.713	800.000	-0.077	0.217
-86.699	56.944	0.052	-0.050
-85.684	-140.441	0.201	-0.021
-84.670	134.752	-0.031	-0.040
-83.655	-200.000	0.000	-0.163
-82.640	11.932	-0.180	0.137
-81.626	330.932	-0.056	-0.108
-80.611	800.000	-0.020	-0.076
-79.597	-108.802	-0.407	-0.086
-78.582	-133.724	0.490	-0.061
-77.567	-73.830	0.210	-0.076
-76.553	-76.407	-0.302	0.105
-75.538	-200.000	-0.024	-0.182
-74.524	-200.000	0.010	0.214
-73.509	800.000	-0.116	0.388
-72.494	-137.085	-0.158	0.018
-71.480	222.638	0.152	-0.242
-70.465	60.129	-0.173	-0.170
-69.451	53.223	-0.164	-0.155
-68.436	-4.580	0.306	-0.210
-67.422	467.561	0.112	-0.248
-66.407	125.970	-0.155	0.195
-65.392	-126.266	-0.095	0.014
-64.378	800.000	-0.075	0.206
-63.363	498.050	-0.091	0.208
-62.349	-89.720	0.186	-0.054
-61.334	102.220	-0.377	-0.437
-60.319	120.940	0.253	0.312
-59.305	-200.000	-0.194	-1.006
-58.290	172.258	0.423	0.603
-57.276	371.379	0.844	1.699
-56.261	-200.000	95.130	553.579
-55.246	620.981	1385.934	3456.779
-54.232	184.507	2612.414	3837.844
-53.217	119.496	2221.770	2727.480
-52.203	44.959	1753.533	1600.869
-51.188	37.648	1563.374	1375.788
-50.173	35.178	1535.422	1333.963
-49.159	53.190	1584.901	1504.801
-48.144	56.611	1603.821	1546.914
-47.130	38.132	1559.050	1375.173
-46.115	34.860	1543.448	1338.501
-45.100	34.695	1540.406	1334.659
-44.086	34.593	1538.929	1332.610
-43.071	34.575	1536.906	1330.681
-42.057	34.611	1535.447	1329.617
-41.042	34.514	1534.221	1327.824
-40.027	34.531	1532.888	1326.735
-39.013	34.607	1530.808	1325.413
-37.998	34.606	1529.671	1324.368
-36.984	34.587	1528.653	1323.303
-35.969	34.533	1527.537	1321.912
-34.954	34.594	1525.429	1320.455
-33.940	34.699	1524.002	1319.890
-32.925	34.660	1522.745	1318.481
-31.911	34.578	1521.686	1316.946
-30.896	34.727	1520.058	1316.514
-29.881	34.733	1518.214	1314.905
-28.867	34.670	1517.064	1313.422
-27.852	34.792	1515.456	1312.818
-26.838	34.689	1514.134	1310.911
-25.823	34.744	1512.513	1309.836
-24.809	34.685	1510.863	1307.949
-23.794	34.692	1509.602	1306.851
-22.779	34.628	1508.947	1305.798
-21.765	34.651	1507.641	1304.776
-20.750	34.669	1506.251	1303.644
-19.736	34.727	1504.992	1302.893
-18.721	34.587	1504.415	1301.391
-17.706	34.616	1503.086	1300.384
-16.692	34.571	1502.311	1299.355
-15.677	34.626	1501.125	1298.652
-14.663	34.624	1499.943	1297.569
-13.648	34.616	1498.825	1296.493
-12.633	34.610	1497.931	1295.628
-11.619	34.514	1497.339	1294.412
-10.604	34.591	1496.171	1293.875
-9.590	34.574	1495.663	1293.265
-8.575	34.595	1494.360	1292.233
-7.560	34.581	1493.894	1291.683
-6.546	34.532	1493.237	1290.731
-5.531	34.592	1492.307	1290.285
-4.517	34.598	1491.226	1289.336
-3.502	34.631	1490.071	1288.512
-2.487	34.599	1489.101	1287.402
-1.473	34.606	1487.511	1286.029
-0.458	34.604	1486.250	1284.870
0.556	36.946	1477.629	1275.747
1.571	34.033	1450.807	1233.617
2.586	29.911	1386.691	1153.376
3.600	27.643	1301.798	1069.383
4.615	25.200	1253.558	1015.849
5.629	21.181	1195.267	946.781
6.644	12.673	1108.670	835.128
7.659	5.770	1066.442	769.466
8.673	4.840	1060.475	760.554
9.688	4.590	1057.346	757.022
10.702	4.380	1055.766	754.804
11.717	4.621	1054.255	754.827
12.731	7.750	1057.736	772.474
13.746	16.160	1069.419	822.085
14.761	21.971	1076.579	855.942
15.775	22.237	1076.461	857.067
16.790	21.755	1074.144	852.801
17.804	20.653	1072.081	845.733
18.819	19.624	1070.670	839.549
19.834	19.311	1069.310	836.889
20.848	19.153	1068.233	835.204
21.863	19.082	1067.968	834.579
22.877	18.807	1067.462	832.779
23.892	18.797	1066.091	831.588
24.907	18.589	1065.538	830.074
25.921	18.680	1064.340	829.509
26.936	18.661	1063.532	828.711
27.950	18.664	1062.492	827.842
28.965	18.595	1061.740	826.851
29.980	18.636	1060.638	826.118
30.994	18.861	1059.912	826.564
32.009	19.028	1058.700	826.344
33.023	19.052	1058.015	825.855
34.038	19.032	1057.090	824.960
35.053	18.816	1056.391	823.310
36.067	18.686	1055.252	821.728
37.082	18.711	1054.530	821.208
38.096	18.590	1053.537	819.785
39.111	18.783	1053.015	820.226
40.126	19.021	1051.979	820.484
41.140	18.786	1050.554	818.182
42.155	18.585	1049.152	816.060
43.169	18.378	1048.508	814.504
44.184	18.295	1047.511	813.261
45.199	18.269	1046.289	812.118
46.213	18.287	1045.397	811.442
47.228	18.305	1044.654	810.877
48.242	18.546	1043.756	811.251
49.257	18.864	1042.512	811.711
50.271	18.753	1042.039	810.750
51.286	18.790	1040.638	809.762
52.301	18.746	1040.032	809.012
53.315	18.727	1039.616	808.524
54.330	18.620	1038.680	807.221
55.344	18.549	1037.870	806.189
56.359	18.475	1036.426	804.647
57.374	18.499	1035.701	804.127
58.388	18.506	1034.917	803.481
59.403	18.409	1033.913	802.174
60.417	18.356	1032.342	800.638
61.432	18.262	1032.730	800.427
62.447	18.270	1031.696	799.591
63.461	18.258	1030.883	798.834
64.476	18.141	1029.886	797.448
65.490	17.995	1029.357	796.284
66.505	18.132	1027.796	795.647
67.520	18.267	1026.940	795.537
68.534	18.292	1026.329	795.110
69.549	18.152	1025.703	793.908
70.563	18.196	1025.155	793.614
71.578	18.008	1024.774	792.380
72.593	17.883	1023.825	790.997
73.607	17.965	1022.307	790.134
74.622	17.916	1021.805	789.449
75.636	17.887	1020.732	788.414
76.651	17.969	1019.856	788.046
77.666	17.996	1019.162	787.567
78.680	18.041	1018.312	787.047
79.695	17.989	1018.115	786.584
80.709	18.088	1017.481	786.482
81.724	18.247	1016.327	786.249
82.739	18.366	1015.987	786.465
83.753	18.396	1015.174	785.902
84.768	18.592	1014.187	785.968
85.782	18.899	1013.724	786.948
86.797	19.030	1013.535	787.328
87.812	18.982	1012.693	786.386
88.826	18.759	1012.163	784.887
89.841	18.797	1010.819	783.946
90.855	18.840	1009.749	783.245
91.870	18.834	1009.374	782.855
92.884	18.916	1008.930	782.817
93.899	18.920	1007.941	781.997
94.914	18.972	1006.670	781.177
95.928	18.902	1006.416	780.594
96.943	19.116	1005.467	780.760
97.957	18.788	1004.695	778.607
98.972	18.809	1003.478	777.688
99.987	18.851	1002.906	777.365
101.001	18.986	1001.915	777.139
102.016	18.834	1001.531	776.085
103.030	18.827	1000.540	775.217
104.045	18.851	999.571	774.509
105.060	18.887	998.766	773.976
106.074	18.912	997.614	773.129
107.089	18.565	996.686	770.781
108.103	18.244	995.844	768.619
109.118	18.213	994.787	767.596
110.133	18.283	993.573	766.908
111.147	18.133	993.007	765.729
112.162	18.125	991.547	764.501
113.176	18.241	990.819	764.388
114.191	18.409	990.310	764.679
115.206	18.416	989.427	763.960
116.220	18.379	988.361	762.908
117.235	18.245	987.597	761.652
118.249	18.191	986.905	760.812
119.264	18.108	986.208	759.838
120.279	18.219	984.843	759.210
121.293	18.096	984.414	758.270
122.308	18.082	983.711	757.596
123.322	17.936	982.515	755.964
124.337	17.946	981.354	755.047
125.352	17.985	979.991	754.102
126.366	17.773	979.651	752.841
127.381	17.806	978.636	752.136
128.395	17.876	977.510	751.516
129.410	17.969	976.763	751.284
130.424	18.165	975.165	750.847
131.439	18.189	974.759	750.576
132.454	18.300	974.164	750.536
133.468	18.333	973.476	750.086
134.483	18.413	972.644	749.728
135.497	18.310	972.244	748.900
136.512	18.346	971.280	748.249
137.527	18.369	970.375	747.587
138.541	18.463	969.533	747.281
139.556	18.317	969.205	746.325
140.570	18.478	967.986	746.025
141.585	18.557	967.211	745.705
142.600	18.753	966.976	746.309
143.614	18.838	966.284	746.079
144.629	18.811	965.737	745.471
145.643	18.893	965.135	745.297
146.658	18.826	963.947	744.024
147.673	18.580	963.072	742.219
148.687	18.511	961.624	740.738
149.702	18.499	960.964	740.113
150.716	18.249	960.241	738.413
151.731	18.208	959.558	737.643
152.746	18.286	958.451	737.065
153.760	18.409	957.769	737.001
154.775	18.505	956.788	736.596
155.789	18.428	956.468	735.952
156.804	18.658	955.412	736.062
157.819	18.536	954.684	734.915
158.833	18.745	953.752	735.024
159.848	18.843	953.297	735.029
160.862	18.947	952.655	734.915
161.877	18.891	951.987	734.096
162.892	18.556	950.670	731.585
163.906	18.447	949.621	730.250
164.921	18.309	949.262	729.322
165.935	18.298	947.876	728.144
166.950	18.553	946.619	728.199
167.964	18.531	946.031	727.588
168.979	18.502	945.294	726.832
169.994	18.469	943.960	725.602
171.008	18.406	943.258	724.734
172.023	18.535	942.561	724.679
173.037	18.652	941.495	724.287
174.052	18.886	940.918	724.766
175.067	18.917	940.360	724.403
176.081	18.656	939.388	722.494
177.096	18.319	938.413	720.260
178.110	18.409	937.458	719.842
179.125	18.404	936.915	719.340
180.140	18.460	935.858	718.700
181.154	18.523	935.377	718.531
182.169	18.611	934.841	718.423
183.183	18.732	934.243	718.409
184.198	18.764	934.053	718.332
185.213	18.773	933.105	717.577
186.227	18.896	932.565	717.613
187.242	18.948	932.327	717.580
188.256	18.927	931.501	716.795
189.271	19.030	930.617	716.480
190.286	19.162	930.129	716.591
191.300	18.957	929.099	714.882
192.315	18.385	927.981	711.581
193.329	18.167	926.967	709.835
194.344	18.281	926.370	709.789
195.359	18.270	925.831	709.271
196.373	18.581	925.698	710.395
197.388	18.702	925.220	710.465
198.402	18.823	924.694	710.498
199.417	19.067	924.130	711.009
200.432	19.221	923.611	711.183
201.446	19.218	923.389	710.936
202.461	19.437	922.918	711.414
203.475	19.550	922.476	711.476
204.490	19.435	921.869	710.472
205.504	19.331	920.448	708.889
206.519	19.045	919.761	707.121
207.534	18.871	919.105	705.836
208.548	19.010	918.197	705.646
209.563	18.993	917.594	705.052
210.577	19.030	916.833	704.557
211.592	19.030	916.262	704.057
212.607	19.155	916.056	704.345
213.621	19.324	915.459	704.514
214.636	19.246	914.724	703.571
215.650	19.173	914.159	702.775
216.665	19.281	912.993	702.256
217.680	19.348	912.887	702.388
218.694	19.369	912.749	702.301
219.709	19.367	912.166	701.786
220.723	19.321	911.295	700.863
221.738	19.441	910.743	700.868
222.753	19.207	910.279	699.497
223.767	19.138	909.488	698.546
224.782	19.439	908.181	698.702
225.796	19.430	908.045	698.498
226.811	19.546	907.154	698.221
227.826	19.554	906.206	697.463
228.840	19.443	905.789	696.630
229.855	19.156	905.808	695.423
230.869	19.185	904.733	694.654
231.884	19.151	903.993	693.887
232.899	19.204	903.208	693.439
233.913	19.162	902.471	692.642
234.928	19.091	901.326	691.414
235.942	19.034	900.421	690.430
236.957	19.052	900.032	690.145
237.972	19.027	899.545	689.610
238.986	19.012	898.726	688.859
240.001	19.166	897.989	688.852
241.015	19.098	897.611	688.228
242.030	19.114	896.798	687.607
243.045	19.156	896.423	687.426
244.059	19.399	895.625	687.723
245.074	19.343	894.972	686.936
246.088	19.325	894.655	686.563
247.103	19.518	894.114	686.854
248.117	19.489	893.796	686.433
249.132	19.674	893.269	686.705
250.147	19.909	892.992	687.363
251.161	20.194	892.156	687.789
252.176	20.286	891.822	687.836
253.190	20.303	890.865	687.104
254.205	20.390	890.540	687.138
255.220	20.289	890.363	686.540
256.234	20.379	889.186	685.926
257.249	20.312	888.894	685.375
258.263	20.188	888.359	684.415
259.278	20.219	887.369	683.712
260.293	20.349	886.670	683.628
261.307	20.381	886.660	683.684
262.322	20.314	886.193	682.998
263.336	20.316	885.814	682.654
264.351	20.361	884.860	682.038
265.366	20.411	884.522	681.911
266.380	20.441	883.467	681.158
267.395	20.424	882.954	680.631
268.409	20.327	882.213	679.621
269.424	20.247	881.455	678.663
270.439	20.231	880.634	677.909
271.453	20.117	879.825	676.781
272.468	20.175	878.849	676.198
273.482	20.199	877.925	675.519
274.497	20.174	877.836	675.294
275.512	20.129	877.178	674.556
276.526	20.151	876.313	673.913
277.541	20.101	875.634	673.139
278.555	20.149	874.978	672.762
279.570	20.349	874.241	672.911
280.585	20.256	874.682	672.829
281.599	20.534	873.783	673.154
282.614	20.542	872.773	672.347
283.628	20.186	872.201	670.471
284.643	20.141	871.959	670.052
285.657	20.390	871.091	670.286
286.672	20.202	870.687	669.191
287.687	20.288	870.061	668.984
288.701	20.314	869.820	668.839
289.716	20.225	869.318	668.050
290.730	20.243	868.561	667.479
291.745	20.158	867.816	666.522
292.760	20.496	867.041	667.164
293.774	20.458	866.441	666.499
294.789	20.610	866.159	666.807
295.803	20.666	865.459	666.421
296.818	20.418	864.768	664.883
297.833	20.214	864.223	663.624
298.847	20.420	863.275	663.625
299.862	20.465	862.371	663.043
300.876	20.531	861.900	662.875
301.891	20.519	861.673	662.595
302.906	20.463	861.458	662.157
303.920	20.769	860.244	662.328
304.935	20.868	859.578	662.136
305.949	20.972	859.335	662.282
306.964	20.931	858.534	661.453
307.979	20.858	857.687	660.463
308.993	20.746	857.311	659.690
310.008	20.702	857.130	659.326
311.022	20.829	856.789	659.488
312.037	20.781	856.210	658.801
313.052	20.522	855.847	657.483
314.066	20.610	854.504	656.727
315.081	20.405	854.061	655.554
316.095	20.364	853.540	654.942
317.110	20.481	852.960	654.880
318.125	20.379	852.181	653.840
319.139	20.330	851.751	653.266
320.154	20.450	851.228	653.262
321.168	20.417	850.783	652.736
322.183	20.557	850.060	652.650
323.197	20.557	849.961	652.516
324.212	20.720	849.240	652.516
325.227	20.720	848.362	651.783
326.241	20.546	848.226	650.970
327.256	20.547	847.197	650.129
328.270	20.475	847.169	649.777
329.285	20.546	845.997	649.086
330.300	20.627	845.426	648.893
331.314	20.424	845.267	647.958
332.329	20.536	844.458	647.698
333.343	20.735	843.844	647.911
334.358	20.912	843.465	648.220
335.373	20.844	842.380	647.077
336.387	20.920	842.325	647.260
337.402	20.909	842.010	646.918
338.416	20.912	841.439	646.433
339.431	21.101	840.862	646.633
340.446	21.214	840.495	646.714
341.460	21.376	840.020	646.891
342.475	21.289	839.709	646.272
343.489	21.319	839.137	645.887
344.504	21.312	838.451	645.274
345.519	21.475	838.041	645.504
346.533	21.526	837.609	645.302
347.548	21.458	837.137	644.629
348.562	21.408	836.446	643.857
349.577	21.137	835.540	642.104
350.592	21.017	834.835	641.064
351.606	21.009	834.136	640.443
352.621	20.834	833.821	639.502
353.635	20.878	833.421	639.299
354.650	20.976	833.312	639.518
355.665	21.035	832.750	639.247
356.679	21.113	832.237	639.082
357.694	21.145	831.589	638.646
358.708	21.201	831.433	638.673
359.723	21.234	830.588	638.087
360.738	21.061	830.162	637.072
361.752	21.197	829.636	637.112
362.767	21.227	829.139	636.782
363.781	21.462	828.717	637.256
364.796	21.496	828.580	637.218
365.810	21.675	828.222	637.538
366.825	21.768	827.810	637.503
367.840	21.802	827.791	637.555
368.854	21.718	827.075	636.643
369.869	21.660	826.346	635.814
370.883	21.619	825.654	635.079
371.898	21.569	825.163	634.463
372.913	21.625	824.616	634.189
373.927	21.925	823.877	634.649
374.942	21.628	823.589	633.297
375.956	21.651	822.915	632.807
376.971	21.737	822.226	632.529
377.986	21.924	821.806	632.825
379.000	21.910	821.349	632.368
380.015	21.946	821.059	632.218
381.029	21.944	820.170	631.472
382.044	21.874	819.557	630.692
383.059	21.871	819.061	630.244
384.073	22.036	818.641	630.456
385.088	21.858	818.037	629.298
386.102	21.631	817.245	627.819
387.117	21.506	816.850	627.009
388.132	21.696	816.177	627.118
389.146	21.622	815.611	626.366
390.161	21.520	815.636	625.964
391.175	21.864	815.060	626.695
392.190	21.904	814.478	626.334
393.205	21.950	814.024	626.096
394.219	21.806	813.499	625.120
395.234	21.782	813.079	624.657
396.248	21.699	812.345	623.744
397.263	21.539	811.788	622.693
398.278	21.342	811.554	621.758
399.292	21.482	810.791	621.613
400.307	21.347	810.658	620.978
401.321	21.469	810.417	621.173
402.336	21.408	809.816	620.438
403.350	21.601	809.406	620.753
404.365	21.619	808.975	620.433
405.380	21.873	808.657	621.034
406.394	21.913	808.328	620.868
407.409	22.070	807.771	620.939
408.423	22.101	807.456	620.751
409.438	22.138	807.262	620.680
410.453	22.215	806.694	620.459
411.467	22.362	806.415	620.707
412.482	22.344	805.844	620.151
413.496	22.358	805.198	619.647
414.511	22.526	805.146	620.145
415.526	22.548	804.604	619.750
416.540	22.332	804.148	618.583
417.555	22.189	803.914	617.847
418.569	22.311	803.169	617.648
419.584	22.202	802.939	617.035
420.599	22.433	801.957	617.033
421.613	159.145	1368.422	1790.236
422.628	138.211	1450.973	1790.367
