DTS Sentinel unit serial number:	SN413079Multiplexer serial number:	ORYXHardware model number:	OX4-SRSoftware version number:	ORYX F/W v4.00 Oryx Data Collector v3.7.2.0data status	okinstallation	princeton_trtdifferential loss correction	single-endedforward channel	channel 3reverse channel	N/Adate	2019/09/12time	20:44:34forward acquisition time	60.00reverse acquisition time	0.00gamma	496.2192k internal	0.2324k external	0.2324temperature offset calibration	1.0127default loss term (dB/km)	0.3790temperature slope calibration	1.0000multiplexer offset coefficient	1.0000multiplexer slope coefficient	1.0000fibre end	0.00T internal ref (°C)	31.06T ext. ref 1 (°C)	3.63T ext. ref 2 (°C)	25.60length (m)	temperature (°C)	Stokes	anti-Stokes-747.200	-149.955	0.168	0.013
-746.185	-57.886	-0.085	0.038
-745.171	142.696	0.073	0.098
-744.156	249.514	-0.212	0.362
-743.142	136.102	-0.131	0.172
-742.127	-68.515	0.292	0.114
-741.112	130.023	-0.130	-0.168
-740.098	-80.803	-0.272	0.091
-739.083	276.384	-0.050	-0.089
-738.069	109.317	0.358	0.433
-737.054	-8.009	0.173	0.118
-736.039	271.537	0.018	0.032
-735.025	-200.000	0.016	0.227
-734.010	-101.347	0.278	0.068
-732.996	-86.944	-0.155	-0.048
-731.981	-170.172	-0.331	0.012
-730.966	282.074	-0.138	-0.249
-729.952	-51.404	-0.316	-0.149
-728.937	-161.380	0.371	-0.019
-727.923	110.199	-0.191	-0.231
-726.908	-200.000	0.013	-0.197
-725.894	12.257	-0.264	-0.205
-724.879	-37.640	0.178	0.096
-723.864	-174.611	0.138	0.004
-722.850	-200.000	0.020	0.348
-721.835	-200.000	0.055	0.264
-720.821	-48.920	0.134	0.065
-719.806	-114.557	-0.150	0.029
-718.791	93.567	0.211	-0.241
-717.777	-14.610	0.177	-0.115
-716.762	-131.486	0.240	-0.032
-715.748	800.000	0.060	-0.212
-714.733	800.000	-0.055	-0.177
-713.718	161.742	-0.117	-0.165
-712.704	-200.000	0.010	0.155
-711.689	228.879	0.120	-0.197
-710.675	-200.000	-0.035	-0.329
-709.660	265.654	-0.163	-0.287
-708.645	26.369	0.080	0.067
-707.631	-97.000	0.132	-0.035
-706.616	-182.102	0.081	0.002
-705.602	-200.000	0.013	0.259
-704.587	-200.000	0.039	-0.210
-703.572	655.092	0.062	0.160
-702.558	-200.000	-0.005	0.028
-701.543	-8.302	-0.190	0.129
-700.529	-200.000	0.007	0.459
-699.514	-26.012	0.104	0.062
-698.499	-1.577	0.231	0.164
-697.485	126.306	0.199	-0.254
-696.470	314.632	-0.067	0.127
-695.456	34.705	0.263	0.231
-694.441	-41.938	-0.142	-0.074
-693.426	404.026	-0.009	0.020
-692.412	-3.260	0.048	0.034
-691.397	-200.000	0.016	0.154
-690.383	-200.000	0.052	-0.233
-689.368	-32.881	-0.205	0.114
-688.354	186.606	0.080	-0.121
-687.339	10.463	0.141	-0.108
-686.324	-200.000	-0.074	-0.363
-685.310	33.961	0.024	0.021
-684.295	723.679	-0.120	-0.323
-683.281	68.211	0.196	-0.202
-682.266	334.748	0.126	-0.246
-681.251	-90.839	-0.257	-0.074
-680.237	-124.822	0.219	-0.034
-679.222	245.461	-0.116	0.196
-678.208	-42.484	-0.168	-0.086
-677.193	2.607	0.078	-0.057
-676.178	-19.429	-0.196	0.123
-675.164	-139.688	-0.222	-0.024
-674.149	-77.840	0.166	-0.058
-673.135	97.790	0.057	-0.066
-672.120	-200.000	0.035	0.221
-671.105	-200.000	-0.009	0.096
-670.091	638.611	0.110	-0.282
-669.076	-200.000	-0.016	-0.114
-668.062	-98.776	0.113	-0.029
-667.047	30.791	0.198	-0.171
-666.032	-200.000	-0.275	-0.001
-665.018	142.701	-0.083	-0.111
-664.003	-11.903	0.158	-0.104
-662.989	-191.956	-0.254	0.002
-661.974	25.108	-0.224	-0.187
-660.959	-200.000	0.011	0.071
-659.945	-22.235	-0.187	0.114
-658.930	800.000	-0.055	-0.183
-657.916	292.100	-0.081	-0.149
-656.901	15.466	-0.203	-0.160
-655.886	-136.040	-0.294	0.035
-654.872	-35.213	0.300	0.164
-653.857	197.774	0.056	-0.087
-652.843	-77.395	-0.225	0.079
-651.828	119.012	0.078	0.097
-650.814	-158.535	0.209	0.012
-649.799	-79.469	-0.244	0.083
-648.784	51.119	-0.148	-0.141
-647.770	-168.824	-0.304	-0.012
-646.755	-67.683	0.335	-0.132
-645.741	158.272	0.148	-0.207
-644.726	-76.366	-0.327	0.116
-643.711	113.347	-0.008	0.010
-642.697	800.000	-0.085	-0.240
-641.682	-147.171	-0.323	-0.028
-640.668	48.905	0.139	-0.131
-639.653	-33.960	-0.141	-0.078
-638.638	-84.224	-0.587	0.187
-637.624	-154.525	-0.191	0.013
-636.609	29.876	-0.013	0.011
-635.595	-74.474	0.126	0.046
-634.580	-200.000	0.007	-0.257
-633.565	-126.953	-0.065	0.010
-632.551	25.587	-0.227	0.190
-631.536	-200.000	-0.022	0.101
-630.522	485.527	-0.088	-0.202
-629.507	217.657	-0.066	-0.106
-628.492	31.730	0.179	0.155
-627.478	-54.706	-0.184	0.083
-626.463	257.735	0.172	-0.298
-625.449	-67.722	0.261	-0.103
-624.434	-200.000	0.013	-0.216
-623.419	800.000	0.106	-0.314
-622.405	15.356	0.327	0.258
-621.390	-159.048	-0.179	-0.010
-620.376	-89.978	0.459	0.134
-619.361	11.574	0.109	-0.084
-618.346	7.716	0.125	0.094
-617.332	293.594	-0.120	-0.220
-616.317	800.000	0.068	-0.244
-615.303	-46.066	-0.314	0.156
-614.288	107.252	-0.265	-0.317
-613.273	-59.420	-0.249	-0.107
-612.259	800.000	0.066	-0.229
-611.244	36.482	0.150	0.133
-610.230	-157.288	-0.222	0.013
-609.215	800.000	0.036	0.147
-608.201	-200.000	0.007	-0.132
-607.186	-88.281	-0.143	0.043
-606.171	-53.284	0.188	-0.087
-605.157	26.650	-0.505	-0.425
-604.142	131.717	-0.204	0.264
-603.128	104.016	-0.222	-0.262
-602.113	-95.023	-0.299	0.081
-601.098	167.318	0.193	-0.275
-600.084	-27.373	-0.089	0.052
-599.069	225.075	0.176	-0.286
-598.055	800.000	-0.084	-0.318
-597.040	-13.688	0.202	-0.131
-596.025	-59.204	-0.191	0.082
-595.011	-89.587	-0.244	0.072
-593.996	-200.000	0.077	0.356
-592.982	684.526	0.092	0.241
-591.967	396.805	0.094	0.196
-590.952	15.591	0.036	-0.028
-589.938	53.336	0.032	0.030
-588.923	-42.527	-0.273	0.139
-587.909	-123.882	-0.240	0.038
-586.894	-68.369	0.170	-0.066
-585.879	61.329	-0.122	0.121
-584.865	504.118	-0.123	-0.285
-583.850	456.362	0.109	0.242
-582.836	9.086	0.156	0.118
-581.821	135.924	-0.085	-0.111
-580.806	27.126	-0.023	0.020
-579.792	-200.000	0.043	-0.360
-578.777	-200.000	-0.008	-0.201
-577.763	800.000	-0.031	0.121
-576.748	-103.034	-0.385	-0.092
-575.733	-167.956	0.254	-0.010
-574.719	-200.000	-0.051	-0.301
-573.704	-147.855	-0.437	0.037
-572.690	197.222	0.034	-0.053
-571.675	161.783	-0.258	-0.362
-570.661	800.000	0.057	0.235
-569.646	71.934	-0.133	0.139
-568.631	-19.740	-0.302	-0.187
-567.617	-200.000	0.020	-0.264
-566.602	70.939	0.137	0.142
-565.588	-135.668	0.219	-0.026
-564.573	423.496	-0.062	-0.133
-563.558	315.498	-0.068	-0.128
-562.544	-134.643	0.234	-0.029
-561.529	-28.371	-0.288	0.167
-560.515	-71.257	-0.032	-0.012
-559.500	-200.000	0.008	0.137
-558.485	108.101	0.125	-0.150
-557.471	-200.000	0.023	0.226
-556.456	-185.013	0.474	0.007
-555.442	-121.616	-0.334	0.055
-554.427	800.000	-0.079	0.289
-553.412	-63.757	-0.151	0.062
-552.398	-52.978	-0.157	0.072
-551.383	-132.073	-0.568	0.074
-550.369	800.000	0.109	-0.311
-549.354	-103.314	0.483	-0.114
-548.339	362.013	-0.127	-0.256
-547.325	-200.000	0.033	-0.201
-546.310	-63.922	-0.100	0.041
-545.296	-56.952	-0.166	-0.073
-544.281	-74.601	0.091	-0.033
-543.266	756.784	0.038	-0.102
-542.252	-114.982	0.173	-0.033
-541.237	-200.000	-0.011	0.051
-540.223	-64.345	0.224	0.091
-539.208	81.685	0.102	0.111
-538.193	201.432	-0.079	-0.121
-537.179	357.090	0.110	-0.220
-536.164	-92.263	0.304	-0.086
-535.150	29.837	0.238	0.203
-534.135	-200.000	-0.020	0.160
-533.121	-16.775	0.091	0.058
-532.106	-60.548	-0.213	-0.090
-531.091	3.992	-0.244	-0.179
-530.077	421.235	0.097	0.208
-529.062	800.000	-0.089	0.386
-528.048	30.819	-0.124	-0.106
-527.033	-133.195	0.085	0.011
-526.018	162.929	-0.080	-0.113
-525.004	294.308	-0.163	0.298
-523.989	-200.000	-0.005	-0.224
-522.975	107.241	0.191	-0.227
-521.960	-188.289	-0.379	0.005
-520.945	-173.141	0.385	0.012
-519.931	298.072	-0.198	0.363
-518.916	95.704	0.083	-0.095
-517.902	-1.645	0.117	-0.082
-516.887	128.528	-0.100	0.128
-515.872	800.000	-0.042	0.126
-514.858	-200.000	0.004	-0.019
-513.843	239.927	0.021	0.035
-512.829	-200.000	-0.020	-0.235
-511.814	-147.290	-0.145	0.012
-510.799	-200.000	0.016	-0.107
-509.785	91.486	-0.199	-0.224
-508.770	-65.088	-0.074	-0.030
-507.756	233.954	0.201	0.331
-506.741	0.406	-0.363	-0.260
-505.726	-200.000	0.041	0.314
-504.712	-149.116	0.055	0.004
-503.697	28.872	-0.023	-0.019
-502.683	800.000	0.038	0.150
-501.668	54.135	0.145	-0.139
-500.653	-7.727	-0.047	-0.032
-499.639	-200.000	0.001	0.098
-498.624	15.361	-0.023	-0.018
-497.610	-104.408	0.360	0.083
-496.595	215.161	0.138	-0.219
-495.581	800.000	0.090	-0.289
-494.566	-147.102	0.180	0.015
-493.551	92.496	0.055	0.062
-492.537	-200.000	0.024	-0.136
-491.522	275.262	-0.200	0.354
-490.508	-18.646	-0.218	-0.136
-489.493	366.352	0.123	-0.248
-488.478	-89.610	0.323	-0.095
-487.464	377.433	-0.134	-0.274
-486.449	-200.000	0.059	0.282
-485.435	-104.295	-0.280	0.065
-484.420	-51.373	0.260	0.121
-483.405	-42.283	0.269	-0.137
-482.391	-40.427	-0.164	-0.085
-481.376	220.004	-0.042	-0.067
-480.362	800.000	-0.048	-0.159
-479.347	65.634	0.198	-0.200
-478.332	-47.760	-0.285	-0.138
-477.318	-114.488	0.096	-0.018
-476.303	-93.883	0.203	0.056
-475.289	-109.689	0.267	-0.056
-474.274	596.603	-0.080	-0.197
-473.259	-71.836	-0.365	-0.136
-472.245	29.141	0.426	0.362
-471.230	800.000	0.029	-0.087
-470.216	-200.000	-0.022	-0.132
-469.201	-139.860	-0.182	-0.019
-468.186	-200.000	0.037	-0.352
-467.172	800.000	-0.022	-0.075
-466.157	-200.000	-0.026	-0.146
-465.143	94.583	0.144	-0.163
-464.128	-19.850	-0.149	-0.092
-463.113	-115.835	0.559	0.104
-462.099	800.000	-0.122	0.371
-461.084	-200.000	0.036	-0.362
-460.070	800.000	0.013	0.038
-459.055	-73.027	0.272	-0.100
-458.040	-29.073	-0.178	0.102
-457.026	-200.000	0.016	0.104
-456.011	1.644	-0.182	0.131
-454.997	158.406	-0.166	0.229
-453.982	-78.212	0.224	-0.077
-452.968	275.355	0.284	0.502
-451.953	-39.246	0.186	-0.098
-450.938	65.272	-0.164	0.166
-449.924	241.243	-0.060	0.100
-448.909	-22.411	-0.164	-0.099
-447.895	111.820	0.046	0.055
-446.880	159.068	-0.105	-0.146
-445.865	-14.868	-0.144	0.092
-444.851	332.285	-0.181	0.349
-443.836	567.511	-0.102	0.246
-442.822	-132.496	0.280	0.036
-441.807	-13.414	-0.419	0.271
-440.792	94.020	0.149	0.169
-439.778	800.000	-0.107	0.299
-438.763	21.525	0.157	-0.127
-437.749	39.186	0.200	0.179
-436.734	800.000	0.085	0.241
-435.719	-5.403	0.237	0.162
-434.705	75.704	0.219	0.231
-433.690	800.000	0.046	-0.127
-432.676	-98.642	0.369	-0.094
-431.661	-200.000	0.083	-0.452
-430.646	386.989	0.205	0.423
-429.632	217.811	0.228	0.363
-428.617	-106.138	0.093	-0.021
-427.603	-56.304	0.131	-0.058
-426.588	-95.472	0.236	-0.063
-425.573	-42.469	0.068	0.035
-424.559	-40.132	-0.165	-0.086
-423.544	-70.820	0.268	0.101
-422.530	-197.128	-0.317	-0.002
-421.515	800.000	-0.053	0.154
-420.500	-30.489	0.184	-0.104
-419.486	145.324	0.061	-0.081
-418.471	-123.216	-0.479	-0.076
-417.457	307.537	-0.098	-0.182
-416.442	24.666	0.319	-0.263
-415.428	110.255	-0.197	-0.236
-414.413	-200.000	0.078	0.371
-413.398	-112.034	0.205	0.041
-412.384	0.698	0.223	-0.159
-411.369	-58.039	0.411	-0.179
-410.355	-200.000	-0.024	0.273
-409.340	310.262	-0.193	0.359
-408.325	-21.229	-0.065	-0.040
-407.311	-74.142	-0.117	-0.042
-406.296	-189.455	0.132	0.002
-405.282	523.647	0.128	-0.299
-404.267	-51.492	0.264	-0.123
-403.252	-200.000	-0.052	0.263
-402.238	-5.332	0.203	-0.139
-401.223	-97.562	0.160	0.041
-400.209	196.276	-0.032	0.049
-399.194	205.471	-0.149	-0.230
-398.179	152.962	0.107	0.146
-397.165	-20.115	-0.275	-0.169
-396.150	132.331	0.087	-0.112
-395.136	155.749	0.092	0.126
-394.121	552.438	-0.103	-0.247
-393.106	-38.328	0.230	0.121
-392.092	128.318	0.106	0.135
-391.077	217.874	0.174	0.277
-390.063	-200.000	-0.057	-0.437
-389.048	216.384	-0.184	-0.292
-388.033	-34.818	0.210	0.114
-387.019	23.125	-0.214	0.175
-386.004	37.557	0.149	0.132
-384.990	78.296	-0.207	0.220
-383.975	-107.667	0.419	-0.091
-382.960	-200.000	0.006	-0.103
-381.946	-200.000	0.003	0.178
-380.931	800.000	-0.070	-0.230
-379.917	-85.364	-0.154	0.048
-378.902	226.835	0.167	0.270
-377.888	345.750	-0.127	0.249
-376.873	-118.736	-0.135	0.024
-375.858	503.339	0.036	-0.084
-374.844	-96.359	0.014	-0.004
-373.829	-25.005	-0.139	0.082
-372.815	-95.060	-0.154	-0.041
-371.800	-93.646	-0.326	-0.090
-370.785	-22.512	-0.120	-0.072
-369.771	271.514	0.009	0.015
-368.756	-200.000	0.024	-0.259
-367.742	-200.000	-0.008	0.099
-366.727	70.228	0.121	-0.124
-365.712	-56.920	0.450	0.198
-364.698	177.514	-0.256	0.371
-363.683	-140.497	-0.518	0.054
-362.669	90.590	-0.173	0.193
-361.654	135.581	0.161	0.208
-360.639	92.333	0.274	-0.307
-359.625	-182.046	-0.042	0.001
-358.610	194.524	-0.067	0.101
-357.596	-20.534	-0.269	0.164
-356.581	-44.519	-0.043	0.021
-355.566	-163.732	-0.018	-0.001
-354.552	416.635	-0.297	0.629
-353.537	351.642	-0.141	-0.277
-352.523	-200.000	-0.006	0.076
-351.508	-49.143	-0.298	-0.141
-350.493	-12.459	-0.331	0.215
-349.479	-200.000	-0.001	0.304
-348.464	273.133	-0.144	-0.253
-347.450	7.166	0.057	-0.042
-346.435	373.758	0.169	-0.342
-345.420	-27.389	-0.224	0.130
-344.406	282.752	-0.161	0.286
-343.391	-200.000	0.037	0.332
-342.377	-79.084	-0.238	-0.080
-341.362	-33.764	-0.111	0.061
-340.348	195.051	-0.198	-0.299
-339.333	-125.688	0.172	-0.026
-338.318	-79.810	-0.226	-0.076
-337.304	-60.565	-0.171	-0.072
-336.289	-26.212	-0.164	0.095
-335.275	138.979	0.132	0.172
-334.260	-116.476	-0.172	-0.032
-333.245	117.540	-0.019	0.024
-332.231	-66.389	0.151	0.059
-331.216	800.000	0.074	-0.254
-330.202	32.040	0.361	0.309
-329.187	-128.946	0.082	0.011
-328.172	800.000	0.062	0.231
-327.158	262.098	-0.095	-0.163
-326.143	61.693	0.191	-0.189
-325.129	74.628	0.165	0.172
-324.114	141.881	0.120	0.158
-323.099	73.887	-0.073	-0.076
-322.085	104.329	-0.125	0.147
-321.070	41.514	0.339	-0.305
-320.056	-48.588	-0.061	-0.029
-319.041	-200.000	-0.006	0.032
-318.026	170.206	0.205	0.292
-317.012	-117.860	-0.099	-0.018
-315.997	29.708	-0.131	0.110
-314.983	408.608	-0.115	-0.242
-313.968	-96.239	0.270	-0.071
-312.953	-22.399	0.126	-0.076
-311.939	-200.000	0.024	0.196
-310.924	800.000	0.085	0.235
-309.910	-61.713	0.165	0.068
-308.895	-200.000	0.010	-0.062
-307.880	-200.000	0.012	-0.115
-306.866	658.546	0.057	0.146
-305.851	-109.046	-0.189	0.040
-304.837	14.026	-0.118	-0.091
-303.822	-129.696	0.194	0.027
-302.807	-200.000	0.017	-0.249
-301.793	-140.650	-0.223	0.023
-300.778	-108.941	-0.183	0.039
-299.764	23.672	-0.242	0.197
-298.749	-112.615	-0.117	0.023
-297.735	-120.666	-0.393	-0.066
-296.720	-129.113	0.108	0.015
-295.705	127.134	0.034	-0.043
-294.691	-152.594	-0.267	-0.019
-293.676	-142.918	0.253	-0.024
-292.662	-200.000	0.034	0.379
-291.647	-61.515	0.234	-0.098
-290.632	357.864	-0.108	0.213
-289.618	-200.000	-0.019	0.288
-288.603	800.000	-0.099	0.385
-287.589	2.240	-0.293	0.210
-286.574	-200.000	-0.008	0.137
-285.559	-52.831	-0.039	0.018
-284.545	-71.598	0.276	-0.102
-283.530	-92.282	-0.355	0.099
-282.516	800.000	0.062	-0.269
-281.501	134.635	-0.107	-0.138
-280.486	-117.884	0.245	-0.044
-279.472	-85.944	-0.136	-0.042
-278.457	-12.972	-0.051	0.033
-277.443	114.089	-0.074	-0.090
-276.428	-200.000	-0.010	0.261
-275.413	558.867	0.032	-0.076
-274.399	-95.527	0.080	-0.021
-273.384	10.859	0.145	-0.110
-272.370	-8.925	0.263	-0.175
-271.355	-106.522	0.322	0.071
-270.340	2.831	-0.215	0.155
-269.326	-98.032	-0.279	0.071
-268.311	800.000	-0.143	0.554
-267.297	-200.000	-0.010	0.204
-266.282	-200.000	-0.006	0.098
-265.267	-200.000	0.027	-0.212
-264.253	-88.140	-0.074	-0.022
-263.238	800.000	-0.100	0.348
-262.224	99.654	-0.161	0.184
-261.209	-140.256	0.193	-0.020
-260.195	-62.966	0.269	-0.110
-259.180	-93.664	-0.293	0.080
-258.165	0.567	0.183	-0.129
-257.151	55.906	0.134	-0.129
-256.136	-20.670	0.216	0.131
-255.122	466.947	0.186	0.412
-254.107	186.148	0.087	0.129
-253.092	144.994	0.176	-0.233
-252.078	-148.818	-0.298	0.024
-251.063	22.703	0.234	-0.190
-250.049	-200.000	0.030	0.236
-249.034	-32.865	0.140	-0.077
-248.019	-93.124	-0.250	-0.069
-247.005	-146.792	0.076	0.006
-245.990	-200.000	-0.029	0.317
-244.976	-79.697	0.143	-0.048
-243.961	-34.030	0.079	-0.043
-242.946	-200.000	-0.035	-0.477
-241.932	63.352	-0.258	0.256
-240.917	17.891	0.114	0.090
-239.903	-41.707	0.131	-0.067
-238.888	-193.494	0.221	0.002
-237.873	-43.958	0.157	0.078
-236.859	-200.000	0.029	0.221
-235.844	800.000	-0.104	0.310
-234.830	49.422	-0.168	-0.156
-233.815	800.000	-0.029	-0.102
-232.800	-14.840	0.073	-0.047
-231.786	800.000	-0.048	-0.157
-230.771	800.000	-0.096	-0.315
-229.757	736.834	-0.050	-0.132
-228.742	50.596	0.149	0.139
-227.727	-46.299	0.084	-0.041
-226.713	176.798	-0.019	0.028
-225.698	170.672	0.198	-0.281
-224.684	800.000	0.117	-0.403
-223.669	-84.502	0.352	0.110
-222.655	332.189	-0.074	0.142
-221.640	211.307	0.118	-0.183
-220.625	800.000	0.058	-0.221
-219.611	-58.958	0.050	0.021
-218.596	-68.685	0.211	-0.081
-217.582	-60.641	-0.093	0.039
-216.567	800.000	0.042	0.146
-215.552	44.141	0.257	-0.233
-214.538	-83.948	-0.114	-0.036
-213.523	31.026	-0.107	0.091
-212.509	637.580	0.150	-0.378
-211.494	23.878	-0.090	-0.074
-210.479	800.000	0.026	-0.073
-209.465	-200.000	0.028	-0.152
-208.450	-200.000	-0.011	-0.182
-207.436	15.499	0.107	-0.083
-206.421	-100.152	0.128	-0.031
-205.406	-200.000	0.039	0.235
-204.392	-200.000	0.043	-0.240
-203.377	-52.264	-0.215	0.098
-202.363	-149.876	0.179	-0.014
-201.348	800.000	-0.052	-0.174
-200.333	-65.638	0.310	0.123
-199.319	73.946	0.140	0.145
-198.304	-79.613	-0.118	0.039
-197.290	-123.245	-0.176	0.028
-196.275	267.518	0.125	-0.216
-195.260	-153.679	-0.028	-0.002
-194.246	-17.134	0.263	0.164
-193.231	-200.000	0.085	-0.403
-192.217	74.927	0.054	0.057
-191.202	153.470	0.158	-0.213
-190.187	-64.938	0.065	-0.026
-189.173	800.000	-0.135	0.405
-188.158	119.142	0.103	-0.125
-187.144	800.000	0.022	-0.075
-186.129	-89.345	-0.057	0.017
-185.114	280.778	-0.146	0.257
-184.100	-118.320	-0.222	-0.039
-183.085	-200.000	-0.002	0.022
-182.071	-27.585	0.080	-0.046
-181.056	-76.873	-0.280	-0.097
-180.042	220.004	0.174	0.275
-179.027	-200.000	-0.019	0.449
-178.012	800.000	0.062	0.251
-176.998	72.221	-0.149	-0.153
-175.983	-73.541	-0.263	-0.095
-174.969	378.804	0.107	-0.217
-173.954	77.989	0.063	-0.066
-172.939	40.703	0.067	0.059
-171.925	800.000	0.111	0.329
-170.910	-73.045	0.352	0.128
-169.896	403.479	-0.133	-0.275
-168.881	402.342	0.056	-0.116
-167.866	-200.000	0.061	-0.284
-166.852	-200.000	-0.026	-0.157
-165.837	36.276	0.221	-0.192
-164.823	-52.249	-0.163	0.074
-163.808	-42.978	0.061	0.031
-162.793	335.019	0.019	-0.035
-161.779	117.061	-0.137	0.166
-160.764	-133.030	-0.505	-0.063
-159.750	-58.876	0.153	-0.065
-158.735	-200.000	0.013	-0.095
-157.720	504.864	0.119	0.273
-156.706	121.473	-0.189	0.232
-155.691	-200.000	0.295	-0.000
-154.677	-61.368	-0.093	0.039
-153.662	-39.092	-0.053	-0.027
-152.647	-200.000	-0.059	-0.321
-151.633	800.000	-0.066	0.211
-150.618	800.000	-0.130	-0.384
-149.604	-64.684	0.177	0.071
-148.589	21.409	-0.276	-0.221
-147.574	-4.223	0.184	-0.126
-146.560	8.023	-0.234	0.173
-145.545	124.348	0.043	0.053
-144.531	-200.000	-0.003	0.086
-143.516	800.000	0.060	0.219
-142.502	110.038	-0.029	0.035
-141.487	-67.115	-0.323	-0.126
-140.472	96.959	-0.225	-0.254
-139.458	-200.000	-0.001	0.056
-138.443	-49.221	-0.148	-0.070
-137.429	266.187	0.172	-0.296
-136.414	-200.000	-0.028	-0.215
-135.399	-86.087	0.441	0.134
-134.385	-142.120	-0.269	-0.026
-133.370	616.645	0.084	0.208
-132.356	167.845	0.085	0.119
-131.341	575.854	-0.138	-0.332
-130.326	-200.000	-0.011	-0.262
-129.312	-122.570	0.369	0.059
-128.297	-130.122	-0.281	-0.038
-127.283	-200.000	-0.013	-0.200
-126.268	450.817	-0.052	-0.113
-125.253	-99.895	0.078	-0.019
-124.239	-177.888	-0.172	0.004
-123.224	258.583	0.199	-0.337
-122.210	-94.229	-0.224	-0.060
-121.195	800.000	-0.073	0.281
-120.180	-12.600	0.082	-0.053
-119.166	191.667	-0.144	-0.214
-118.151	221.565	0.019	0.030
-117.137	-78.502	0.252	-0.085
-116.122	-200.000	-0.308	-0.000
-115.107	406.905	-0.066	-0.138
-114.093	800.000	0.078	-0.228
-113.078	-74.394	-0.203	-0.072
-112.064	-37.316	-0.193	0.102
-111.049	-200.000	-0.016	-0.136
-110.034	-51.415	-0.220	-0.101
-109.020	44.733	0.140	0.127
-108.005	199.942	0.163	0.246
-106.991	800.000	-0.225	0.749
-105.976	-0.161	0.116	0.081
-104.962	-18.791	0.258	0.158
-103.947	-128.032	-0.403	-0.057
-102.932	800.000	-0.036	0.117
-101.918	2.186	-0.202	-0.144
-100.903	247.601	-0.070	-0.116
-99.889	-200.000	-0.019	0.114
-98.874	-80.364	-0.467	0.154
-97.859	-55.592	-0.146	-0.064
-96.845	-200.000	0.023	0.111
-95.830	642.916	0.078	-0.195
-94.816	316.019	0.125	-0.233
-93.801	-34.099	-0.366	0.198
-92.786	273.141	0.127	0.221
-91.772	166.397	-0.008	0.012
-90.757	-200.000	-0.036	0.224
-89.743	-163.621	0.266	0.012
-88.728	-200.000	0.031	0.140
-87.713	-200.000	-0.018	-0.089
-86.699	556.736	0.180	0.426
-85.684	1.332	-0.129	0.092
-84.670	312.581	-0.089	0.164
-83.655	-29.644	-0.174	-0.098
-82.640	-25.819	-0.258	-0.150
-81.626	-47.474	0.163	0.078
-80.611	292.862	-0.079	0.142
-79.597	-140.410	-0.135	0.014
-78.582	41.130	-0.097	-0.086
-77.567	-200.000	-0.002	-0.024
-76.553	41.912	0.204	-0.182
-75.538	-200.000	0.013	-0.123
-74.524	61.348	-0.124	-0.121
-73.509	-200.000	-0.021	-0.309
-72.494	687.720	0.136	0.351
-71.480	800.000	-0.058	0.238
-70.465	-106.935	0.018	0.004
-69.451	-148.134	-0.265	0.022
-68.436	-200.000	-0.019	0.344
-67.422	-84.834	0.141	-0.044
-66.407	-38.012	0.110	0.057
-65.392	-200.000	-0.014	0.323
-64.378	-91.546	-0.222	-0.062
-63.363	-190.975	-0.241	-0.002
-62.349	-93.400	-0.397	0.108
-61.334	80.651	-0.686	-0.727
-60.319	-5.202	0.660	0.446
-59.305	-200.000	-0.133	-0.708
-58.290	98.553	0.825	0.935
-57.276	681.565	0.573	1.468
-56.261	-200.000	101.033	600.259
-55.246	589.040	1407.746	3408.839
-54.232	193.700	2583.919	3843.078
-53.217	117.071	2149.990	2595.200
-52.203	41.714	1688.664	1503.438
-51.188	34.187	1500.319	1285.129
-50.173	31.753	1473.548	1245.982
-49.159	52.007	1526.639	1428.540
-48.144	53.519	1543.989	1454.961
-47.130	34.464	1501.428	1287.742
-46.115	31.230	1487.249	1253.859
-45.100	31.177	1483.142	1249.989
-44.086	31.197	1480.753	1248.063
-43.071	31.078	1479.448	1246.116
-42.057	31.111	1477.814	1244.908
-41.042	30.998	1476.600	1243.087
-40.027	30.977	1475.380	1241.866
-39.013	31.007	1473.725	1240.622
-37.998	30.941	1472.334	1238.968
-36.984	31.089	1470.465	1238.325
-35.969	31.084	1469.705	1237.607
-34.954	31.045	1468.040	1235.892
-33.940	30.949	1467.520	1234.769
-32.925	31.074	1465.682	1234.002
-31.911	31.106	1464.521	1233.186
-30.896	31.086	1463.334	1232.010
-29.881	31.188	1461.750	1231.300
-28.867	31.143	1460.565	1229.952
-27.852	31.051	1459.320	1228.255
-26.838	31.124	1458.106	1227.659
-25.823	31.173	1455.938	1226.110
-24.809	31.123	1454.416	1224.452
-23.794	31.132	1453.063	1223.324
-22.779	31.085	1452.395	1222.401
-21.765	31.125	1451.068	1221.501
-20.750	31.122	1449.623	1220.215
-19.736	31.070	1448.995	1219.297
-18.721	31.006	1448.231	1218.189
-17.706	31.089	1446.553	1217.268
-16.692	31.072	1445.396	1216.141
-15.677	30.996	1444.690	1215.003
-14.663	31.119	1443.353	1214.631
-13.648	31.022	1442.605	1213.321
-12.633	31.035	1442.003	1212.849
-11.619	31.112	1440.641	1212.154
-10.604	31.039	1439.942	1211.048
-9.590	30.994	1439.200	1210.085
-8.575	31.060	1438.222	1209.642
-7.560	31.048	1437.035	1208.514
-6.546	31.026	1436.379	1207.771
-5.531	31.019	1436.010	1207.371
-4.517	31.043	1434.435	1206.153
-3.502	31.077	1433.692	1205.698
-2.487	31.034	1432.843	1204.659
-1.473	30.891	1431.797	1202.810
-0.458	30.859	1431.103	1201.970
0.556	32.526	1421.140	1190.975
1.571	29.396	1395.634	1150.016
2.586	25.738	1338.021	1080.538
3.600	23.943	1257.930	1005.630
4.615	22.505	1212.411	961.315
5.629	19.544	1156.731	901.645
6.644	11.274	1073.642	796.552
7.659	4.683	1034.374	736.244
8.673	3.940	1028.721	728.657
9.688	3.637	1025.138	724.630
10.702	3.400	1024.144	722.756
11.717	3.544	1021.964	721.825
12.731	6.520	1025.281	738.055
13.746	15.075	1036.899	786.711
14.761	22.208	1045.646	826.958
15.775	24.132	1047.655	837.531
16.790	23.937	1046.095	835.292
17.804	23.379	1044.353	831.213
18.819	22.681	1044.121	827.678
19.834	22.579	1042.725	826.018
20.848	22.612	1041.829	825.393
21.863	22.603	1042.096	825.489
22.877	22.756	1041.293	825.493
23.892	22.451	1040.742	823.560
24.907	22.309	1039.805	822.082
25.921	22.274	1038.782	821.037
26.936	22.489	1037.461	820.922
27.950	22.259	1036.401	818.938
28.965	22.205	1035.677	818.042
29.980	22.276	1034.402	817.292
30.994	22.432	1033.649	817.352
32.009	22.440	1033.366	817.092
33.023	22.585	1032.732	817.191
34.038	22.551	1031.561	816.033
35.053	22.416	1030.863	814.788
36.067	22.233	1029.865	813.079
37.082	22.277	1028.601	812.210
38.096	22.260	1027.884	811.495
39.111	22.441	1027.020	811.574
40.126	22.554	1026.459	811.582
41.140	22.499	1025.415	810.433
42.155	22.144	1024.171	807.744
43.169	21.774	1023.152	805.172
44.184	21.681	1022.196	803.920
45.199	21.651	1020.909	802.698
46.213	21.659	1020.376	802.245
47.228	21.728	1019.675	801.940
48.242	22.171	1019.198	803.519
49.257	22.423	1018.729	804.228
50.271	22.380	1017.890	803.299
51.286	22.465	1017.232	803.098
52.301	22.547	1016.578	802.883
53.315	22.599	1016.285	802.819
54.330	22.415	1015.359	801.176
55.344	22.344	1013.937	799.664
56.359	22.221	1012.968	798.266
57.374	22.196	1011.757	797.132
58.388	21.922	1011.713	795.780
59.403	21.918	1010.686	794.884
60.417	21.739	1009.878	793.370
61.432	21.702	1009.102	792.523
62.447	21.883	1008.239	792.593
63.461	21.717	1007.766	791.401
64.476	21.697	1006.509	790.253
65.490	21.671	1005.710	789.438
66.505	21.499	1005.198	788.195
67.520	21.441	1004.716	787.484
68.534	21.718	1003.471	787.685
69.549	21.581	1003.031	786.652
70.563	21.458	1002.114	785.315
71.578	21.344	1001.364	784.145
72.593	21.175	1000.194	782.400
73.607	20.936	999.253	780.526
74.622	20.950	997.638	779.256
75.636	21.083	997.118	779.379
76.651	21.138	996.730	779.248
77.666	21.009	996.185	778.178
78.680	21.259	995.355	778.575
79.695	21.208	994.968	777.979
80.709	21.208	994.340	777.418
81.724	21.326	993.719	777.388
82.739	21.593	992.646	777.668
83.753	21.497	992.144	776.779
84.768	22.017	991.314	778.364
85.782	22.479	991.993	780.877
86.797	22.787	990.858	781.279
87.812	22.978	989.981	781.363
88.826	22.823	988.860	779.723
89.841	22.577	988.020	777.910
90.855	22.609	987.605	777.654
91.870	22.746	986.814	777.565
92.884	22.744	986.238	777.034
93.899	22.766	985.624	776.580
94.914	22.549	984.645	774.783
95.928	22.653	983.604	774.354
96.943	22.805	982.941	774.429
97.957	22.638	982.018	772.903
98.972	22.463	981.228	771.447
99.987	22.437	980.573	770.750
101.001	22.571	979.898	770.738
102.016	22.661	979.112	770.444
103.030	22.465	978.362	768.931
104.045	22.510	977.175	768.126
105.060	22.712	975.974	767.991
106.074	22.465	975.542	766.510
107.089	22.312	974.154	764.687
108.103	22.026	973.579	762.923
109.118	21.970	972.264	761.583
110.133	21.617	971.269	759.208
111.147	21.550	969.792	757.694
112.162	21.312	969.085	756.047
113.176	21.413	968.271	755.781
114.191	21.631	967.401	755.978
115.206	21.728	966.603	755.704
116.220	21.756	966.540	755.709
117.235	21.576	965.755	754.251
118.249	21.491	964.658	752.961
119.264	21.430	963.811	751.973
120.279	21.236	963.040	750.472
121.293	21.278	962.088	749.844
122.308	21.215	961.146	748.773
123.322	21.011	960.598	747.404
124.337	21.070	959.203	746.507
125.352	20.864	958.343	744.888
126.366	20.986	957.276	744.516
127.381	21.026	956.182	743.770
128.395	21.154	955.777	743.936
129.410	21.459	954.974	744.543
130.424	21.357	953.985	743.272
131.439	21.468	953.087	742.979
132.454	21.662	952.636	743.382
133.468	21.738	951.957	743.110
134.483	21.635	951.627	742.351
135.497	21.640	951.041	741.847
136.512	21.755	949.834	741.326
137.527	21.912	948.987	741.265
138.541	21.790	948.555	740.348
139.556	21.911	947.625	740.066
140.570	21.774	947.481	739.311
141.585	21.999	946.726	739.605
142.600	22.356	946.263	740.678
143.614	22.544	945.483	740.792
144.629	22.688	944.801	740.798
145.643	22.808	944.621	741.095
146.658	22.706	943.431	739.670
147.673	22.347	942.331	737.237
148.687	22.147	941.050	735.334
149.702	21.909	940.060	733.498
150.716	21.892	938.770	732.355
151.731	21.842	937.714	731.262
152.746	21.862	937.517	731.124
153.760	21.967	937.031	731.118
154.775	22.211	935.826	731.129
155.789	22.188	935.399	730.634
156.804	22.281	934.418	730.189
157.819	22.129	933.778	728.993
158.833	22.295	933.389	729.314
159.848	22.353	933.020	729.204
160.862	22.716	932.206	730.004
161.877	22.696	931.175	729.048
162.892	22.191	930.199	726.136
163.906	21.961	928.574	723.854
164.921	21.755	928.100	722.573
165.935	21.535	926.921	720.685
166.950	21.858	925.905	721.159
167.964	21.979	925.240	721.075
168.979	22.100	924.302	720.775
169.994	21.876	923.423	719.107
171.008	21.846	922.150	717.930
172.023	21.996	921.300	717.818
173.037	22.416	921.101	719.315
174.052	22.485	920.579	719.125
175.067	22.523	919.585	718.442
176.081	22.097	918.025	715.424
177.096	21.667	917.153	712.932
178.110	21.499	916.301	711.525
179.125	21.675	915.662	711.679
180.140	21.539	915.288	710.773
181.154	21.669	914.634	710.731
182.169	22.114	913.965	711.952
183.183	22.346	914.193	713.007
184.198	22.348	913.683	712.555
185.213	22.338	912.546	711.562
186.227	22.209	912.221	710.726
187.242	22.323	911.655	710.684
188.256	22.389	911.294	710.602
189.271	22.594	910.515	710.760
190.286	22.446	909.911	709.631
191.300	22.423	908.699	708.529
192.315	21.715	907.748	704.878
193.329	21.382	906.740	702.696
194.344	21.407	905.576	701.829
195.359	21.681	905.555	702.853
196.373	21.922	904.716	703.105
197.388	22.021	904.790	703.494
198.402	22.353	904.419	704.474
199.417	22.470	904.637	705.050
200.432	22.738	904.495	705.949
201.446	23.032	903.876	706.581
202.461	23.127	902.909	706.141
203.475	23.146	902.629	705.936
204.490	23.160	901.948	705.397
205.504	22.584	900.848	702.179
206.519	22.283	899.824	700.121
207.534	22.293	899.417	699.781
208.548	22.286	898.496	698.976
209.563	22.278	898.365	698.778
210.577	22.363	897.411	698.312
211.592	22.405	896.789	697.935
212.607	22.524	896.969	698.485
213.621	22.825	896.537	699.277
214.636	22.783	895.567	698.296
215.650	22.682	894.925	697.332
216.665	22.743	894.346	697.061
217.680	22.684	893.984	696.485
218.694	22.825	893.502	696.605
219.709	22.872	892.733	696.125
220.723	22.866	892.247	695.663
221.738	22.590	891.863	694.215
222.753	22.499	890.578	692.797
223.767	22.459	889.842	692.004
224.782	22.642	889.033	692.031
225.796	22.823	888.246	692.066
226.811	22.964	888.116	692.460
227.826	22.818	887.227	691.131
228.840	22.273	886.385	688.284
229.855	22.313	885.731	687.870
230.869	22.457	884.685	687.561
231.884	22.367	884.233	686.798
232.899	22.391	883.624	686.355
233.913	22.343	882.923	685.566
234.928	22.175	882.314	684.377
235.942	21.978	881.585	682.984
236.957	21.869	880.675	681.794
237.972	21.873	879.736	681.023
238.986	21.923	879.572	681.032
240.001	21.826	878.933	680.100
241.015	21.960	877.854	679.722
242.030	21.946	877.773	679.546
243.045	22.164	877.113	679.818
244.059	22.273	877.069	680.144
245.074	22.411	876.218	679.957
246.088	22.342	875.818	679.320
247.103	22.545	875.497	679.795
248.117	22.797	874.871	680.220
249.132	23.068	874.840	681.181
250.147	23.279	874.858	681.946
251.161	23.667	874.651	683.219
252.176	23.767	874.159	683.160
253.190	23.894	873.327	682.936
254.205	23.842	873.110	682.504
255.220	23.947	872.325	682.234
256.234	23.853	871.024	680.795
257.249	23.615	871.195	679.959
258.263	23.653	870.474	679.481
259.278	23.488	869.882	678.326
260.293	23.625	869.146	678.217
261.307	23.603	868.722	677.741
262.322	23.717	868.358	677.832
263.336	23.778	867.573	677.393
264.351	23.728	866.825	676.557
265.366	23.573	866.384	675.566
266.380	23.619	865.550	675.027
267.395	23.774	864.870	675.027
268.409	23.720	864.339	674.350
269.424	23.608	863.387	673.123
270.439	23.598	862.837	672.595
271.453	23.449	862.251	671.517
272.468	23.391	861.317	670.508
273.482	23.297	860.861	669.739
274.497	23.321	860.537	669.516
275.512	23.300	859.787	668.795
276.526	23.295	858.499	667.717
277.541	23.292	858.328	667.512
278.555	23.404	857.941	667.575
279.570	23.539	857.486	667.669
280.585	23.832	857.417	668.659
281.599	23.851	856.762	668.163
282.614	23.621	855.783	666.475
283.628	23.361	854.674	664.577
284.643	23.147	854.486	663.568
285.657	23.289	853.987	663.653
286.672	23.257	853.521	663.117
287.687	23.260	853.311	662.903
288.701	23.366	852.380	662.520
289.716	23.479	851.769	662.409
290.730	23.398	851.537	661.867
291.745	23.291	851.131	661.091
292.760	23.362	850.462	660.780
293.774	23.482	850.016	660.821
294.789	23.934	849.747	662.237
295.803	23.990	848.997	661.804
296.818	23.691	848.533	660.272
297.833	23.417	847.569	658.446
298.847	23.321	846.431	657.146
299.862	23.169	846.230	656.366
300.876	23.407	845.608	656.710
301.891	23.541	845.314	656.918
302.906	23.911	844.792	657.823
303.920	24.134	844.123	658.069
304.935	24.202	843.823	658.028
305.949	24.397	843.088	658.115
306.964	24.226	842.494	656.964
307.979	23.837	841.656	654.820
308.993	23.854	841.009	654.319
310.008	23.730	841.010	653.809
311.022	24.016	840.253	654.213
312.037	23.964	839.764	653.583
313.052	23.683	839.282	652.119
314.066	23.506	838.274	650.628
315.081	23.118	837.710	648.711
316.095	23.139	836.614	647.882
317.110	23.166	836.294	647.674
318.125	23.238	835.876	647.557
319.139	23.169	835.222	646.740
320.154	22.924	834.621	645.323
321.168	22.884	834.039	644.668
322.183	23.202	833.598	645.433
323.197	23.272	833.301	645.398
324.212	23.520	832.772	645.838
325.227	23.339	832.401	644.831
326.241	23.309	831.693	644.117
327.256	23.273	830.884	643.305
328.270	23.149	830.581	642.563
329.285	23.106	830.071	641.954
330.300	23.087	829.065	641.053
331.314	23.097	828.302	640.440
332.329	23.110	827.917	640.134
333.343	23.248	827.718	640.421
334.358	23.739	827.444	641.927
335.373	23.660	827.187	641.385
336.387	23.631	826.696	640.845
337.402	23.906	825.950	641.201
338.416	23.794	825.692	640.542
339.431	24.089	825.292	641.234
340.446	24.288	824.676	641.416
341.460	24.413	824.557	641.717
342.475	24.538	823.968	641.652
343.489	24.456	823.774	641.149
344.504	24.548	822.970	640.798
345.519	24.667	822.487	640.791
346.533	24.776	822.307	640.984
347.548	24.878	821.576	640.721
348.562	24.408	821.072	638.590
349.577	24.277	819.752	637.038
350.592	24.013	819.304	635.693
351.606	23.804	818.696	634.417
352.621	23.716	817.956	633.476
353.635	23.774	817.550	633.310
354.650	23.850	817.201	633.255
355.665	23.717	817.166	632.700
356.679	23.734	816.367	632.084
357.694	23.863	816.253	632.399
358.708	24.063	815.456	632.436
359.723	23.908	815.152	631.593
360.738	23.967	814.330	631.110
361.752	23.775	813.983	630.105
362.767	24.060	813.355	630.571
363.781	24.214	813.511	631.185
364.796	24.495	813.280	631.944
365.810	24.712	812.584	632.112
366.825	24.803	812.476	632.297
367.840	24.945	812.579	632.820
368.854	24.764	812.054	631.717
369.869	24.487	811.106	629.946
370.883	24.311	810.314	628.655
371.898	24.438	809.516	628.427
372.913	24.592	809.121	628.608
373.927	24.818	808.907	629.179
374.942	24.472	808.044	627.239
375.956	24.458	807.093	626.396
376.971	24.484	806.879	626.264
377.986	24.853	806.544	627.241
379.000	24.901	805.887	626.845
380.015	24.980	805.856	627.042
381.029	24.859	805.178	626.035
382.044	24.762	804.483	625.099
383.059	24.880	804.088	625.149
384.073	24.955	803.515	624.913
385.088	24.880	802.370	623.704
386.102	24.622	801.638	622.181
387.117	24.235	801.042	620.317
388.132	24.178	800.525	619.663
389.146	24.107	800.067	619.006
390.161	24.206	799.760	619.060
391.175	24.464	799.313	619.554
392.190	24.805	799.512	620.839
393.205	24.575	798.926	619.529
394.219	24.327	797.747	617.703
395.234	24.008	797.451	616.312
396.248	23.997	796.440	615.440
397.263	23.997	795.973	615.023
398.278	23.918	795.875	614.621
399.292	23.860	795.445	614.033
400.307	23.837	794.553	613.213
401.321	23.665	794.504	612.526
402.336	23.747	794.113	612.453
403.350	23.980	793.801	612.962
404.365	24.390	793.453	614.052
405.380	24.733	793.428	615.158
406.394	24.891	793.496	615.699
407.409	25.331	793.019	616.785
408.423	25.322	792.408	616.227
409.438	25.280	791.985	615.698
410.453	25.308	791.863	615.646
411.467	25.260	791.357	615.032
412.482	25.229	790.816	614.451
413.496	25.197	790.259	613.854
414.511	25.391	790.175	614.398
415.526	25.309	790.088	613.994
416.540	25.247	789.033	612.909
417.555	25.132	788.705	612.207
418.569	25.173	788.127	611.846
419.584	25.298	787.510	611.738
420.599	25.078	787.143	610.650
421.613	162.635	1369.282	1795.930
422.628	140.841	1454.110	1796.066
