DTS Sentinel unit serial number:	SN413079Multiplexer serial number:	ORYXHardware model number:	OX4-SRSoftware version number:	ORYX F/W v4.00 Oryx Data Collector v3.7.2.0data status	okinstallation	princeton_trtdifferential loss correction	single-endedforward channel	channel 3reverse channel	N/Adate	2019/09/14time	16:00:35forward acquisition time	60.00reverse acquisition time	0.00gamma	496.2192k internal	0.2295k external	0.2295temperature offset calibration	1.0052default loss term (dB/km)	0.3790temperature slope calibration	1.0000multiplexer offset coefficient	1.0000multiplexer slope coefficient	1.0000fibre end	0.00T internal ref (°C)	38.56T ext. ref 1 (°C)	5.11T ext. ref 2 (°C)	32.92length (m)	temperature (°C)	Stokes	anti-Stokes-747.200	800.000	0.048	0.161
-746.185	-64.482	0.309	-0.129
-745.171	226.599	-0.085	-0.141
-744.156	241.535	-0.205	0.351
-743.142	75.453	0.029	-0.031
-742.127	10.125	0.250	0.194
-741.112	800.000	0.037	-0.161
-740.098	-71.849	-0.225	0.086
-739.083	337.202	-0.031	-0.062
-738.069	-31.462	0.207	0.119
-737.054	150.454	0.069	0.096
-736.039	-200.000	-0.008	-0.170
-735.025	-117.880	0.328	-0.060
-734.010	-54.658	0.102	0.047
-732.996	29.764	-0.161	-0.141
-731.981	-200.000	0.006	0.231
-730.966	-200.000	-0.027	-0.201
-729.952	-183.140	-0.372	0.007
-728.937	305.880	-0.177	-0.336
-727.923	-162.669	-0.100	-0.005
-726.908	-12.648	-0.122	-0.081
-725.894	800.000	0.035	0.148
-724.879	107.980	0.190	-0.232
-723.864	27.618	0.082	0.070
-722.850	162.632	-0.082	-0.118
-721.835	-200.000	0.022	-0.229
-720.821	291.898	0.193	0.359
-719.806	260.460	0.142	-0.251
-718.791	-140.318	-0.091	-0.010
-717.777	-116.745	-0.417	-0.078
-716.762	-59.735	0.047	-0.020
-715.748	-145.411	-0.303	-0.028
-714.733	191.852	-0.323	-0.498
-713.718	-148.014	-0.204	-0.017
-712.704	-200.000	0.041	-0.193
-711.689	-127.665	0.238	0.035
-710.675	-134.967	0.327	-0.040
-709.660	-63.937	-0.263	-0.110
-708.645	-130.900	0.273	-0.037
-707.631	-80.711	0.132	-0.045
-706.616	-200.000	-0.032	-0.203
-705.602	208.800	-0.144	0.231
-704.587	-200.000	0.042	-0.236
-703.572	154.955	-0.115	-0.161
-702.558	-164.254	0.223	-0.010
-701.543	48.171	0.167	-0.159
-700.529	-42.815	0.221	0.115
-699.514	-73.440	-0.079	-0.029
-698.499	-74.435	0.086	-0.032
-697.485	59.858	0.071	0.071
-696.470	-5.972	-0.130	-0.091
-695.456	-39.347	-0.120	0.064
-694.441	14.354	-0.066	-0.052
-693.426	-200.000	-0.011	-0.163
-692.412	96.282	0.069	0.080
-691.397	556.017	0.090	-0.222
-690.383	-200.000	0.041	-0.324
-689.368	61.330	-0.202	0.205
-688.354	-75.925	-0.172	0.062
-687.339	-40.512	-0.028	0.015
-686.324	12.210	-0.067	-0.053
-685.310	-200.000	0.031	-0.318
-684.295	19.938	-0.110	0.090
-683.281	708.151	-0.135	0.365
-682.266	-39.684	0.194	-0.104
-681.251	-200.000	-0.014	-0.190
-680.237	-28.486	0.255	0.150
-679.222	-40.380	0.155	-0.082
-678.208	222.692	-0.108	-0.178
-677.193	10.919	-0.244	0.190
-676.178	441.324	0.066	-0.146
-675.164	800.000	0.105	-0.322
-674.149	-20.519	-0.320	0.201
-673.135	-121.137	-0.155	0.026
-672.120	-37.653	-0.140	0.076
-671.105	294.315	0.092	-0.171
-670.091	-117.929	-0.168	-0.031
-669.076	-4.341	0.113	-0.080
-668.062	-175.362	0.375	-0.010
-667.047	800.000	-0.044	0.134
-666.032	105.703	-0.153	0.185
-665.018	25.462	0.276	-0.234
-664.003	-154.513	-0.145	0.010
-662.989	-64.769	0.185	0.076
-661.974	-133.712	0.197	-0.025
-660.959	-200.000	0.038	-0.299
-659.945	-200.000	-0.046	-0.320
-658.930	-89.313	0.214	0.064
-657.916	116.602	-0.132	0.165
-656.901	193.818	-0.122	-0.189
-655.886	-78.190	0.190	0.067
-654.872	800.000	0.039	-0.141
-653.857	414.135	0.054	-0.116
-652.843	800.000	-0.050	0.186
-651.828	-60.753	0.137	0.059
-650.814	87.856	0.130	-0.147
-649.799	-200.000	-0.041	-0.254
-648.784	221.220	-0.033	-0.054
-647.770	-65.182	-0.360	0.148
-646.755	-101.122	0.119	-0.030
-645.741	-200.000	-0.009	-0.207
-644.726	-31.252	0.301	-0.173
-643.711	800.000	-0.008	0.025
-642.697	-200.000	0.037	-0.193
-641.682	-39.633	-0.107	-0.057
-640.668	-39.057	-0.115	0.062
-639.653	800.000	-0.056	0.208
-638.638	339.847	0.228	0.452
-637.624	618.578	-0.058	-0.148
-636.609	-200.000	0.002	-0.141
-635.595	552.093	0.153	-0.374
-634.580	-44.293	-0.066	-0.033
-633.565	782.947	0.088	0.245
-632.551	800.000	-0.059	0.221
-631.536	800.000	-0.112	0.327
-630.522	-162.457	0.089	0.005
-629.507	-200.000	0.035	-0.322
-628.492	-42.438	-0.269	-0.140
-627.478	157.344	-0.154	-0.218
-626.463	-44.814	0.365	0.185
-625.449	-200.000	0.004	-0.070
-624.434	-181.288	-0.143	0.003
-623.419	-25.833	-0.178	0.107
-622.405	-125.719	0.259	0.040
-621.390	-200.000	0.004	0.209
-620.376	2.707	-0.087	0.064
-619.361	35.959	-0.007	0.007
-618.346	-42.205	-0.187	0.097
-617.332	-66.738	0.096	-0.039
-616.317	800.000	0.072	-0.284
-615.303	-200.000	-0.016	0.275
-614.288	-200.000	-0.006	-0.049
-613.273	-155.745	-0.336	-0.022
-612.259	749.351	0.058	-0.159
-611.244	-67.925	-0.256	0.102
-610.230	-14.814	0.265	-0.173
-609.215	-83.697	-0.138	-0.045
-608.201	-82.037	0.070	0.023
-607.186	324.820	0.047	-0.092
-606.171	-169.970	0.260	-0.009
-605.157	167.796	-0.030	-0.044
-604.142	66.605	-0.171	-0.177
-603.128	-81.957	-0.396	0.132
-602.113	-15.321	-0.193	0.126
-601.098	-92.809	0.046	-0.013
-600.084	64.905	-0.193	-0.198
-599.069	101.586	-0.094	-0.111
-598.055	-200.000	0.004	-0.309
-597.040	-200.000	0.006	-0.085
-596.025	-112.249	-0.140	0.029
-595.011	778.233	-0.063	0.174
-593.996	800.000	0.078	-0.227
-592.982	40.211	-0.114	-0.104
-591.967	143.140	-0.108	-0.146
-590.952	61.103	0.101	0.102
-589.938	800.000	0.053	-0.214
-588.923	524.962	-0.152	-0.364
-587.909	-148.735	-0.467	0.038
-586.894	-42.157	-0.172	0.089
-585.879	375.212	0.051	-0.105
-584.865	128.090	-0.203	-0.262
-583.850	-200.000	-0.042	0.291
-582.836	-95.518	-0.645	0.176
-581.821	35.729	-0.121	-0.108
-580.806	800.000	0.097	0.271
-579.792	-122.229	-0.210	-0.035
-578.777	-200.000	0.028	0.178
-577.763	-200.000	-0.030	-0.181
-576.748	-90.353	-0.023	0.007
-575.733	118.573	0.273	-0.342
-574.719	53.957	-0.232	0.227
-573.704	800.000	-0.046	-0.139
-572.690	-200.000	-0.005	-0.214
-571.675	121.628	0.084	-0.107
-570.661	-62.627	-0.070	0.029
-569.646	-59.674	-0.078	-0.034
-568.631	683.599	-0.132	-0.349
-567.617	299.059	-0.168	0.314
-566.602	190.740	0.129	0.197
-565.588	114.946	0.093	-0.116
-564.573	-86.915	-0.091	0.028
-563.558	800.000	0.055	0.230
-562.544	239.755	0.060	0.101
-561.529	361.573	-0.121	0.245
-560.515	-190.495	-0.223	-0.002
-559.500	304.520	-0.101	-0.190
-558.485	220.538	0.066	0.108
-557.471	-25.769	0.113	0.068
-556.456	-35.739	-0.023	-0.013
-555.442	-93.562	-0.181	-0.051
-554.427	-141.629	0.296	-0.030
-553.412	-155.908	0.107	0.007
-552.398	-82.716	0.087	-0.029
-551.383	47.653	0.131	-0.124
-550.369	-200.000	-0.015	-0.405
-549.354	-64.540	-0.161	0.066
-548.339	-200.000	0.004	-0.163
-547.325	-99.293	0.282	-0.072
-546.310	-200.000	-0.024	-0.176
-545.296	365.594	0.104	0.214
-544.281	8.299	0.199	-0.151
-543.266	65.260	0.133	-0.136
-542.252	800.000	0.066	-0.235
-541.237	674.048	0.189	0.498
-540.223	-56.736	-0.191	0.086
-539.208	23.950	-0.092	-0.077
-538.193	800.000	-0.118	-0.386
-537.179	28.334	0.314	0.269
-536.164	-37.447	0.149	-0.081
-535.150	-200.000	-0.532	-0.000
-534.135	694.828	0.167	-0.445
-533.121	-200.000	-0.017	0.176
-532.106	157.384	0.297	-0.417
-531.091	-134.383	-0.254	-0.032
-530.077	-144.388	-0.308	0.029
-529.062	-30.890	0.135	-0.077
-528.048	-74.200	-0.294	-0.108
-527.033	-200.000	0.010	-0.135
-526.018	-28.283	-0.274	0.160
-525.004	-200.000	0.014	-0.313
-523.989	-120.292	0.330	0.057
-522.975	800.000	0.084	0.240
-521.960	-113.430	0.430	-0.085
-520.945	-200.000	-0.008	-0.238
-519.931	800.000	0.011	0.036
-518.916	-30.560	-0.102	-0.059
-517.902	197.117	-0.086	-0.133
-516.887	-200.000	0.008	-0.116
-515.872	-27.059	0.155	0.092
-514.858	-43.988	0.149	-0.076
-513.843	800.000	-0.080	0.281
-512.829	-116.417	0.383	0.072
-511.814	167.653	-0.184	0.265
-510.799	800.000	-0.135	-0.414
-509.785	578.223	0.169	-0.419
-508.770	-61.868	0.180	0.076
-507.756	159.081	0.124	0.175
-506.741	-27.433	-0.303	0.178
-505.726	-19.128	-0.143	-0.090
-504.712	-105.371	0.440	-0.101
-503.697	-35.984	-0.256	-0.140
-502.683	-50.001	0.222	-0.107
-501.668	-83.842	0.208	0.067
-500.653	-200.000	-0.003	-0.100
-499.639	-193.115	0.157	-0.001
-498.624	800.000	0.048	0.200
-497.610	-22.415	0.242	0.149
-496.595	411.563	0.004	0.009
-495.581	84.353	0.252	0.279
-494.566	-20.315	-0.214	-0.133
-493.551	800.000	0.046	-0.192
-492.537	-22.330	-0.111	-0.068
-491.522	-104.325	-0.205	0.048
-490.508	-19.207	0.133	-0.083
-489.493	-2.414	0.159	0.113
-488.478	-128.453	-0.179	-0.026
-487.464	197.298	-0.181	-0.280
-486.449	800.000	0.129	-0.369
-485.435	-200.000	0.047	-0.370
-484.420	-200.000	0.018	0.249
-483.405	560.988	-0.135	0.331
-482.391	-200.000	-0.028	0.421
-481.376	-200.000	-0.020	0.114
-480.362	-56.007	-0.314	-0.142
-479.347	-200.000	0.011	-0.080
-478.332	654.953	0.084	-0.218
-477.318	-155.407	-0.395	0.026
-476.303	-47.310	-0.376	0.185
-475.289	-101.753	0.191	-0.047
-474.274	-121.083	0.286	0.049
-473.259	48.128	0.266	0.252
-472.245	-15.338	-0.059	0.038
-471.230	800.000	0.079	-0.324
-470.216	5.849	0.349	-0.261
-469.201	355.357	0.082	0.166
-468.186	-38.752	0.073	0.039
-467.172	681.780	-0.025	0.067
-466.157	162.659	-0.120	0.170
-465.143	-67.712	0.114	-0.045
-464.128	-192.597	0.370	0.003
-463.113	-129.798	0.311	0.043
-462.099	-5.298	-0.346	0.241
-461.084	-200.000	-0.053	-0.261
-460.070	158.474	0.106	-0.149
-459.055	125.171	0.142	0.181
-458.040	-99.884	-0.467	0.118
-457.026	73.304	0.042	0.044
-456.011	800.000	-0.107	-0.311
-454.997	-200.000	0.005	0.276
-453.982	66.202	-0.284	-0.292
-452.968	-43.415	0.039	0.020
-451.953	51.831	0.363	-0.349
-450.938	340.893	0.114	0.226
-449.924	43.752	-0.204	0.189
-448.909	33.878	0.134	-0.118
-447.895	-7.773	-0.101	0.069
-446.880	800.000	0.096	0.293
-445.865	261.212	0.063	-0.110
-444.851	-138.030	-0.035	-0.004
-443.836	430.729	-0.087	0.190
-442.822	624.016	0.119	0.303
-441.807	318.018	0.108	-0.206
-440.792	181.674	-0.096	-0.143
-439.778	-1.494	-0.176	-0.126
-438.763	424.717	-0.064	0.139
-437.749	174.891	-0.139	0.203
-436.734	-61.400	0.193	-0.082
-435.719	-82.128	-0.274	-0.090
-434.705	93.429	0.270	-0.308
-433.690	-200.000	-0.029	-0.146
-432.676	63.023	0.159	0.161
-431.661	373.425	-0.055	-0.113
-430.646	-171.424	-0.178	0.006
-429.632	-42.313	-0.238	-0.123
-428.617	81.932	-0.077	0.084
-427.603	-20.009	0.163	0.101
-426.588	-20.691	-0.254	0.158
-425.573	-200.000	0.038	-0.189
-424.559	-200.000	-0.010	0.540
-423.544	24.785	0.121	0.101
-422.530	110.564	-0.078	-0.095
-421.515	512.177	0.104	-0.245
-420.500	800.000	-0.091	0.294
-419.486	-154.508	0.279	-0.019
-418.471	-188.316	-0.110	0.001
-417.457	523.634	0.034	-0.082
-416.442	202.672	-0.135	-0.211
-415.428	-104.029	0.477	0.112
-414.413	158.586	0.237	-0.332
-413.398	10.506	-0.042	0.032
-412.384	-63.382	0.283	-0.117
-411.369	-200.000	-0.005	0.226
-410.355	-112.459	-0.349	0.070
-409.340	246.143	-0.100	-0.170
-408.325	93.213	0.194	0.221
-407.311	-57.331	-0.101	-0.045
-406.296	297.303	0.123	-0.227
-405.282	-91.598	0.276	0.079
-404.267	50.756	-0.011	0.010
-403.252	447.778	0.095	0.212
-402.238	-200.000	-0.004	-0.127
-401.223	-200.000	0.000	0.022
-400.209	211.945	0.085	0.135
-399.194	76.623	0.101	0.109
-398.179	-156.629	0.087	-0.005
-397.165	2.394	-0.114	0.083
-396.150	135.147	-0.084	0.110
-395.136	-200.000	-0.071	-0.334
-394.121	-200.000	-0.003	0.416
-393.106	800.000	-0.070	0.260
-392.092	-82.331	0.231	-0.076
-391.077	-18.710	0.263	-0.165
-390.063	-114.573	-0.063	0.012
-389.048	-94.627	0.187	-0.051
-388.033	157.864	-0.114	0.159
-387.019	56.609	-0.242	0.237
-386.004	-108.770	-0.579	-0.125
-384.990	472.822	-0.078	0.176
-383.975	-82.332	0.108	0.036
-382.960	800.000	-0.060	0.243
-381.946	43.022	-0.102	0.093
-380.931	-115.756	0.285	0.054
-379.917	800.000	-0.051	-0.160
-378.902	18.367	0.219	0.177
-377.888	-121.245	-0.305	-0.051
-376.873	-200.000	-0.062	-0.466
-375.858	-46.924	0.122	0.060
-374.844	-48.747	0.262	-0.127
-373.829	-63.781	0.070	-0.029
-372.815	-200.000	-0.024	0.172
-371.800	-120.935	-0.274	0.046
-370.785	-115.246	0.177	0.034
-369.771	15.870	0.084	0.066
-368.756	230.530	0.036	0.059
-367.742	-87.722	-0.474	0.144
-366.727	13.401	-0.132	0.103
-365.712	223.857	0.259	-0.421
-364.698	542.744	-0.040	-0.096
-363.683	146.194	-0.048	-0.065
-362.669	-200.000	0.016	-0.242
-361.654	800.000	-0.051	-0.166
-360.639	-124.014	-0.347	-0.055
-359.625	-175.865	-0.069	-0.002
-358.610	800.000	0.131	-0.387
-357.596	83.805	-0.124	-0.137
-356.581	-73.240	-0.163	-0.060
-355.566	12.994	-0.412	0.321
-354.552	148.026	0.202	0.274
-353.537	108.675	-0.170	0.205
-352.523	391.848	-0.043	0.090
-351.508	-200.000	-0.057	0.291
-350.493	800.000	-0.083	0.314
-349.479	-135.673	-0.293	-0.035
-348.464	-200.000	-0.007	-0.209
-347.450	-169.392	-0.042	0.002
-346.435	800.000	-0.058	0.238
-345.420	-91.218	-0.328	0.095
-344.406	-123.688	0.280	0.045
-343.391	-200.000	-0.011	-0.062
-342.377	-63.550	-0.299	0.124
-341.362	800.000	0.031	0.092
-340.348	239.687	-0.080	-0.133
-339.333	-104.233	-0.355	-0.083
-338.318	27.121	-0.165	0.140
-337.304	-122.311	0.420	-0.069
-336.289	15.240	-0.199	-0.157
-335.275	-200.000	-0.035	-0.239
-334.260	-200.000	-0.013	-0.089
-333.245	-200.000	-0.036	-0.192
-332.231	-73.607	-0.175	-0.064
-331.216	-200.000	0.017	-0.181
-330.202	-64.650	0.310	0.127
-329.187	-71.127	0.217	0.082
-328.172	-90.018	-0.142	-0.042
-327.158	-200.000	0.002	0.160
-326.143	-163.720	0.431	0.020
-325.129	-144.109	0.360	0.034
-324.114	52.738	0.082	0.079
-323.099	-30.731	-0.089	-0.050
-322.085	-200.000	-0.050	0.366
-321.070	232.570	0.136	-0.224
-320.056	-200.000	-0.015	0.328
-319.041	177.362	-0.117	-0.171
-318.026	124.235	0.099	0.125
-317.012	-127.064	0.370	0.055
-315.997	-99.974	-0.215	-0.054
-314.983	245.763	0.199	0.337
-313.968	-200.000	-0.031	0.293
-312.953	-200.000	0.005	-0.176
-311.939	17.416	-0.188	-0.150
-310.924	-200.000	0.003	0.080
-309.910	21.380	0.157	-0.129
-308.895	252.268	-0.105	-0.180
-307.880	800.000	-0.029	-0.088
-306.866	166.869	-0.078	-0.111
-305.851	-145.010	0.221	-0.020
-304.837	-38.565	0.238	0.127
-303.822	-12.367	-0.288	0.189
-302.807	22.111	-0.053	-0.043
-301.793	-24.100	0.182	-0.110
-300.778	-105.290	0.119	-0.027
-299.764	799.680	0.023	0.064
-298.749	43.233	-0.078	0.071
-297.735	543.236	-0.066	0.157
-296.720	592.552	-0.070	0.174
-295.705	35.505	0.031	-0.028
-294.691	800.000	0.052	-0.146
-293.676	479.397	-0.065	0.149
-292.662	-114.961	-0.014	-0.003
-291.647	436.566	0.038	-0.082
-290.632	-27.397	0.226	0.132
-289.618	-200.000	0.045	0.356
-288.603	-49.550	-0.170	-0.081
-287.589	655.543	-0.057	0.148
-286.574	252.956	-0.067	0.114
-285.559	-83.067	-0.171	-0.055
-284.545	-6.417	0.140	-0.096
-283.530	-48.223	0.249	0.121
-282.516	-161.490	0.128	-0.007
-281.501	-200.000	-0.002	-0.028
-280.486	-200.000	0.012	-0.126
-279.472	-68.017	-0.142	-0.055
-278.457	-95.557	0.237	-0.064
-277.443	514.312	-0.037	-0.086
-276.428	88.703	0.238	-0.265
-275.413	-113.595	-0.416	0.082
-274.399	800.000	0.093	0.267
-273.384	85.227	0.210	0.232
-272.370	-106.439	0.145	-0.033
-271.355	118.413	-0.095	-0.118
-270.340	80.418	0.295	-0.319
-269.326	259.818	-0.090	0.157
-268.311	-121.672	0.304	0.051
-267.297	-111.326	-0.106	0.022
-266.282	-200.000	-0.008	0.459
-265.267	800.000	0.091	0.275
-264.253	800.000	0.027	0.105
-263.238	800.000	-0.047	0.140
-262.224	73.389	0.194	-0.203
-261.209	302.115	-0.107	0.199
-260.195	-77.011	0.333	-0.116
-259.180	-29.674	0.028	0.016
-258.165	-147.398	0.109	0.009
-257.151	-81.052	0.099	0.033
-256.136	800.000	0.048	-0.180
-255.122	-200.000	0.003	-0.265
-254.107	61.816	-0.171	-0.171
-253.092	-200.000	0.006	0.049
-252.078	202.302	0.152	0.235
-251.063	-3.431	0.173	-0.121
-250.049	-113.490	0.122	0.024
-249.034	800.000	-0.096	0.273
-248.019	-31.845	0.274	-0.154
-247.005	149.848	-0.077	-0.105
-245.990	-71.764	-0.178	0.067
-244.976	-3.752	-0.106	0.074
-243.961	-200.000	-0.007	0.036
-242.946	20.032	0.080	0.065
-241.932	-27.083	-0.147	0.086
-240.917	-21.944	-0.251	-0.153
-239.903	83.403	0.132	-0.145
-238.888	9.223	0.108	0.082
-237.873	-21.497	-0.309	0.189
-236.859	-200.000	-0.031	-0.228
-235.844	-31.273	-0.287	-0.162
-234.830	-101.685	-0.245	-0.059
-233.815	-86.296	-0.249	0.077
-232.800	-200.000	-0.001	-0.018
-231.786	546.608	-0.132	-0.317
-230.771	-114.892	0.210	-0.040
-229.757	-64.384	-0.328	0.134
-228.742	87.137	-0.144	0.159
-227.727	-200.000	-0.001	0.068
-226.713	99.056	0.124	0.144
-225.698	46.527	0.293	-0.272
-224.684	-75.169	0.099	0.035
-223.669	105.875	0.130	-0.154
-222.655	-104.867	-0.151	0.035
-221.640	79.780	0.276	-0.297
-220.625	54.554	-0.073	0.071
-219.611	-101.706	-0.470	-0.114
-218.596	-140.269	0.318	0.033
-217.582	800.000	-0.092	0.269
-216.567	-17.303	-0.173	0.109
-215.552	-153.094	0.235	-0.017
-214.538	76.444	0.150	-0.160
-213.523	-89.843	0.110	0.032
-212.509	-13.526	-0.208	0.135
-211.494	77.818	0.173	0.185
-210.479	-97.765	-0.257	0.067
-209.465	-112.905	0.452	0.090
-208.450	-46.262	0.306	-0.151
-207.436	-133.139	-0.012	0.002
-206.421	-200.000	0.095	-0.453
-205.406	266.706	-0.132	0.231
-204.392	-11.124	0.161	-0.106
-203.377	-179.758	0.340	0.007
-202.363	-94.495	0.165	-0.045
-201.348	800.000	0.074	0.214
-200.333	-125.800	-0.162	-0.024
-199.319	-102.762	-0.162	0.039
-198.304	707.980	-0.044	0.116
-197.290	322.577	-0.073	-0.139
-196.275	-200.000	-0.031	-0.221
-195.260	29.624	0.274	0.233
-194.246	-126.785	-0.269	0.040
-193.231	534.620	0.098	0.232
-192.217	-149.263	-0.165	-0.013
-191.202	92.060	-0.170	0.191
-190.187	-47.501	-0.127	0.062
-189.173	-51.344	-0.199	0.093
-188.158	-118.161	0.372	0.066
-187.144	300.727	-0.080	0.148
-186.129	-24.323	-0.145	-0.087
-185.114	-200.000	0.086	-0.000
-184.100	129.405	-0.019	-0.024
-183.085	-200.000	-0.042	-0.206
-182.071	34.415	-0.335	-0.293
-181.056	800.000	0.058	0.166
-180.042	-200.000	0.014	0.110
-179.027	-160.740	-0.161	-0.009
-178.012	-12.758	0.130	0.085
-176.998	-28.198	0.083	0.048
-175.983	586.993	0.173	0.426
-174.969	800.000	-0.090	0.307
-173.954	94.390	0.025	-0.029
-172.939	800.000	0.103	-0.301
-171.925	-200.000	0.006	-0.236
-170.910	226.734	-0.099	0.161
-169.896	-200.000	-0.025	-0.142
-168.881	17.680	0.109	-0.087
-167.866	486.920	0.052	-0.118
-166.852	564.437	0.111	0.268
-165.837	441.248	-0.084	0.184
-164.823	16.692	0.295	0.233
-163.808	-70.246	-0.116	0.044
-162.793	129.428	-0.337	-0.430
-161.779	-200.000	0.071	-0.315
-160.764	-200.000	-0.025	0.207
-159.750	-7.194	0.556	0.377
-158.735	-119.339	0.278	-0.048
-157.720	800.000	-0.101	0.283
-156.706	-105.117	0.111	0.025
-155.691	574.914	-0.122	0.298
-154.677	-134.937	0.053	-0.006
-153.662	100.201	0.027	-0.031
-152.647	800.000	-0.055	-0.152
-151.633	21.731	0.120	-0.098
-150.618	-80.370	-0.298	-0.099
-149.604	23.383	0.418	0.343
-148.589	-152.520	0.252	-0.018
-147.574	253.971	-0.147	-0.251
-146.560	386.043	0.108	-0.223
-145.545	-200.000	-0.027	-0.153
-144.531	-158.343	0.454	0.026
-143.516	172.264	0.052	0.074
-142.502	-60.631	0.221	0.094
-141.487	800.000	-0.029	0.119
-140.472	-143.571	0.157	0.015
-139.458	-120.573	-0.149	0.025
-138.443	639.880	-0.040	-0.101
-137.429	800.000	0.012	0.040
-136.414	34.547	0.196	-0.171
-135.399	-200.000	-0.024	0.302
-134.385	397.066	-0.166	0.345
-133.370	-127.010	0.360	-0.053
-132.356	-98.504	-0.379	0.097
-131.341	677.715	0.092	-0.238
-130.326	244.687	0.128	-0.215
-129.312	-74.648	-0.223	0.080
-128.297	-68.464	-0.489	-0.189
-127.283	-91.658	-0.043	0.012
-126.268	-200.000	-0.021	0.196
-125.253	-200.000	-0.052	-0.255
-124.239	-9.635	-0.155	-0.103
-123.224	-173.697	0.211	0.006
-122.210	72.235	0.148	-0.154
-121.195	102.624	-0.027	0.031
-120.180	376.471	0.190	0.387
-119.166	549.674	-0.085	-0.204
-118.151	-110.719	-0.222	-0.046
-117.137	-68.285	-0.313	0.121
-116.122	742.004	-0.063	-0.168
-115.107	-47.229	0.080	0.039
-114.093	25.532	-0.247	-0.205
-113.078	4.674	-0.311	-0.228
-112.064	-200.000	0.026	0.183
-111.049	28.561	0.229	0.193
-110.034	127.605	0.245	-0.311
-109.020	-67.895	0.099	-0.039
-108.005	-117.913	0.227	-0.041
-106.991	800.000	-0.023	-0.088
-105.976	40.348	0.084	-0.075
-104.962	34.343	-0.172	-0.150
-103.947	-191.256	-0.225	0.002
-102.932	-41.454	0.105	-0.054
-101.918	-94.951	0.418	0.113
-100.903	55.246	-0.040	-0.038
-99.889	-200.000	0.000	0.009
-98.874	-21.731	0.243	0.147
-97.859	-141.533	-0.365	-0.037
-96.845	-9.772	0.125	-0.083
-95.830	-200.000	-0.010	-0.081
-94.816	-69.132	0.350	0.134
-93.801	167.334	-0.143	0.203
-92.786	-200.000	-0.023	0.526
-91.772	800.000	-0.029	-0.104
-90.757	386.642	0.115	-0.237
-89.743	-80.695	0.199	-0.066
-88.728	-38.846	-0.477	-0.250
-87.713	-200.000	0.038	-0.187
-86.699	-111.521	0.112	0.023
-85.684	-29.410	-0.234	0.134
-84.670	800.000	-0.009	0.030
-83.655	367.847	-0.128	-0.258
-82.640	-71.720	0.569	-0.211
-81.626	-106.932	0.237	0.052
-80.611	-200.000	-0.024	0.128
-79.597	482.344	-0.119	-0.268
-78.582	-200.000	0.055	-0.454
-77.567	-54.262	-0.057	-0.026
-76.553	102.736	0.244	-0.284
-75.538	-35.967	0.211	0.113
-74.524	187.697	0.114	0.170
-73.509	-108.229	-0.162	-0.035
-72.494	-200.000	-0.009	0.367
-71.480	-141.425	-0.323	0.033
-70.465	-65.414	-0.255	-0.102
-69.451	75.236	0.181	0.191
-68.436	-35.743	-0.195	-0.105
-67.422	-200.000	0.042	-0.275
-66.407	80.265	-0.256	0.274
-65.392	-43.454	0.194	0.098
-64.378	-59.550	-0.368	-0.157
-63.363	-135.012	-0.098	0.012
-62.349	464.875	0.105	0.233
-61.334	96.410	-0.712	-0.811
-60.319	-135.076	0.383	-0.046
-59.305	-200.000	0.184	-0.937
-58.290	214.258	0.566	0.892
-57.276	441.430	0.702	1.528
-56.261	-200.000	84.856	502.236
-55.246	544.803	1373.013	3264.009
-54.232	183.969	2593.420	3819.080
-53.217	118.314	2245.484	2756.199
-52.203	48.143	1775.569	1652.296
-51.188	41.516	1581.866	1424.872
-50.173	39.054	1554.298	1382.682
-49.159	55.081	1597.443	1535.682
-48.144	59.527	1617.757	1586.889
-47.130	42.095	1577.138	1424.508
-46.115	38.861	1561.867	1387.834
-45.100	38.656	1558.486	1383.323
-44.086	38.646	1556.459	1381.398
-43.071	38.524	1554.481	1378.732
-42.057	38.522	1552.949	1377.306
-41.042	38.526	1551.843	1376.297
-40.027	38.546	1549.975	1374.723
-39.013	38.518	1548.624	1373.274
-37.998	38.420	1547.264	1371.331
-36.984	38.625	1545.351	1371.013
-35.969	38.615	1544.360	1370.014
-34.954	38.654	1542.641	1368.706
-33.940	38.539	1541.890	1367.183
-32.925	38.680	1540.115	1366.537
-31.911	38.636	1538.979	1365.168
-30.896	38.638	1537.461	1363.780
-29.881	38.624	1536.072	1362.399
-28.867	38.638	1534.713	1361.235
-27.852	38.611	1533.644	1360.047
-26.838	38.638	1531.999	1358.718
-25.823	38.702	1529.719	1357.082
-24.809	38.689	1528.131	1355.532
-23.794	38.583	1526.933	1353.684
-22.779	38.592	1526.029	1352.888
-21.765	38.619	1524.765	1351.903
-20.750	38.619	1523.588	1350.810
-19.736	38.610	1522.459	1349.692
-18.721	38.571	1521.069	1348.137
-17.706	38.490	1520.428	1346.958
-16.692	38.596	1518.844	1346.225
-15.677	38.451	1517.845	1344.293
-14.663	38.422	1516.991	1343.283
-13.648	38.442	1515.562	1342.104
-12.633	38.550	1514.620	1341.956
-11.619	38.494	1513.649	1340.661
-10.604	38.489	1512.935	1339.941
-9.590	38.571	1511.522	1339.194
-8.575	38.602	1510.616	1338.552
-7.560	38.420	1510.389	1337.055
-6.546	38.508	1509.062	1336.427
-5.531	38.501	1508.175	1335.541
-4.517	38.529	1507.209	1334.823
-3.502	38.482	1506.321	1333.666
-2.487	38.547	1505.172	1333.034
-1.473	38.526	1503.994	1331.796
-0.458	38.547	1502.829	1330.857
0.556	38.766	1492.925	1318.701
1.571	35.356	1465.156	1271.502
2.586	31.066	1400.158	1187.742
3.600	28.797	1313.713	1100.737
4.615	26.727	1264.664	1047.594
5.629	22.634	1206.777	976.923
6.644	13.587	1118.054	858.362
7.659	6.330	1073.486	787.860
8.673	5.098	1068.190	777.765
9.688	5.128	1065.169	775.648
10.702	5.140	1064.000	774.790
11.717	5.064	1062.349	773.139
12.731	7.586	1064.621	787.237
13.746	15.847	1076.426	837.145
14.761	21.088	1082.585	868.007
15.775	20.345	1080.405	862.489
16.790	19.068	1078.170	854.293
17.804	17.824	1075.889	846.246
18.819	17.075	1073.619	840.675
19.834	16.585	1072.413	837.232
20.848	16.354	1071.147	835.027
21.863	16.145	1070.664	833.549
22.877	15.905	1070.143	831.880
23.892	15.780	1068.863	830.197
24.907	15.623	1068.408	828.994
25.921	15.653	1067.407	828.293
26.936	15.618	1066.950	827.693
27.950	15.621	1065.838	826.770
28.965	15.767	1064.790	826.601
29.980	15.731	1063.520	825.367
30.994	15.890	1062.285	825.115
32.009	15.892	1061.576	824.500
33.023	15.969	1060.463	823.940
34.038	15.953	1059.790	823.267
35.053	15.839	1058.698	821.788
36.067	15.882	1057.523	821.012
37.082	15.755	1056.906	819.844
38.096	15.706	1056.664	819.342
39.111	15.863	1055.218	818.914
40.126	15.976	1054.489	818.822
41.140	15.864	1053.245	817.241
42.155	15.728	1051.936	815.496
43.169	15.470	1051.404	813.760
44.184	15.565	1050.315	813.304
45.199	15.450	1049.087	811.724
46.213	15.435	1048.749	811.319
47.228	15.521	1047.395	810.617
48.242	15.613	1046.444	810.251
49.257	15.686	1046.062	810.238
50.271	15.768	1044.611	809.434
51.286	15.652	1043.087	807.626
52.301	15.841	1042.507	808.014
53.315	15.768	1041.855	807.085
54.330	15.777	1040.734	806.190
55.344	15.650	1039.684	804.698
56.359	15.554	1038.838	803.511
57.374	15.580	1038.301	803.147
58.388	15.648	1036.907	802.324
59.403	15.400	1036.529	800.777
60.417	15.529	1035.228	800.318
61.432	15.445	1035.179	799.809
62.447	15.433	1033.913	798.702
63.461	15.301	1033.575	797.743
64.476	15.432	1031.849	796.961
65.490	15.276	1031.300	795.727
66.505	15.453	1030.347	795.759
67.520	15.469	1029.279	794.938
68.534	15.383	1029.021	794.263
69.549	15.357	1028.632	793.768
70.563	15.422	1027.342	793.012
71.578	15.314	1026.727	791.957
72.593	15.341	1025.446	791.028
73.607	15.186	1024.611	789.582
74.622	15.250	1023.291	788.795
75.636	15.325	1022.929	788.798
76.651	15.330	1021.583	787.717
77.666	15.311	1021.171	787.236
78.680	15.312	1020.439	786.609
79.695	15.266	1019.893	785.905
80.709	15.301	1019.688	785.840
81.724	15.422	1018.567	785.474
82.739	15.578	1017.484	785.299
83.753	15.511	1017.325	784.790
84.768	15.562	1016.757	784.520
85.782	15.796	1016.027	784.983
86.797	16.061	1014.779	785.181
87.812	15.763	1014.360	783.401
88.826	15.819	1013.193	782.689
89.841	15.729	1012.215	781.449
90.855	15.785	1011.736	781.270
91.870	15.706	1011.123	780.362
92.884	15.851	1010.287	780.320
93.899	15.830	1009.482	779.529
94.914	15.969	1008.444	779.301
95.928	15.941	1008.027	778.781
96.943	16.035	1007.139	778.461
97.957	15.911	1006.111	777.024
98.972	15.853	1005.381	776.127
99.987	15.788	1004.674	775.213
101.001	15.812	1004.450	775.081
102.016	15.932	1003.218	774.613
103.030	15.844	1002.166	773.329
104.045	15.900	1001.389	772.918
105.060	15.924	1000.512	772.284
106.074	15.756	999.620	770.756
107.089	15.633	998.883	769.556
108.103	15.477	997.645	767.821
109.118	15.411	996.569	766.621
110.133	15.445	995.906	766.198
111.147	15.382	995.216	765.314
112.162	15.389	993.882	764.254
113.176	15.521	993.193	764.258
114.191	15.599	992.248	763.818
115.206	15.649	991.284	763.234
116.220	15.572	990.512	762.221
117.235	15.631	989.420	761.582
118.249	15.528	989.107	760.807
119.264	15.637	987.945	760.337
120.279	15.541	987.026	759.131
121.293	15.570	985.772	758.230
122.308	15.354	985.968	757.337
123.322	15.437	984.604	756.597
124.337	15.398	984.025	755.912
125.352	15.466	982.687	755.120
126.366	15.240	981.689	753.273
127.381	15.370	980.758	753.075
128.395	15.384	979.757	752.305
129.410	15.401	978.760	751.544
130.424	15.318	978.111	750.609
131.439	15.489	977.044	750.488
132.454	15.553	976.158	750.028
133.468	15.630	975.699	749.954
134.483	15.565	975.095	749.132
135.497	15.632	974.202	748.680
136.512	15.689	973.485	748.317
137.527	15.710	972.688	747.731
138.541	15.661	972.159	747.041
139.556	15.575	971.483	746.072
140.570	15.661	970.644	745.744
141.585	15.819	969.516	745.509
142.600	15.776	969.286	745.075
143.614	15.955	968.770	745.406
144.629	15.993	967.434	744.480
145.643	15.893	966.878	743.546
146.658	15.985	965.661	742.948
147.673	15.926	964.601	741.809
148.687	15.741	963.802	740.313
149.702	15.695	963.479	739.795
150.716	15.696	962.471	738.965
151.731	15.606	961.480	737.744
152.746	15.743	960.439	737.477
153.760	15.728	959.841	736.889
154.775	15.552	959.917	736.110
155.789	15.885	958.202	736.184
156.804	15.762	957.724	735.215
157.819	15.842	956.744	734.750
158.833	15.848	956.366	734.419
159.848	15.855	955.905	734.032
160.862	15.915	954.974	733.511
161.877	15.971	954.332	733.200
162.892	15.890	953.355	732.032
163.906	15.721	952.618	730.664
164.921	15.655	951.742	729.642
165.935	15.683	950.566	728.797
166.950	15.796	949.350	728.288
167.964	15.751	948.404	727.307
168.979	15.786	947.930	727.028
169.994	15.854	946.528	726.184
171.008	15.821	945.742	725.372
172.023	15.890	945.125	725.130
173.037	15.918	944.621	724.804
174.052	16.030	943.518	724.374
175.067	15.946	942.848	723.435
176.081	15.865	941.871	722.275
177.096	15.831	940.710	721.171
178.110	15.785	940.171	720.498
179.125	15.815	939.082	719.729
180.140	15.801	938.750	719.350
181.154	15.823	937.990	718.800
182.169	15.868	937.452	718.517
183.183	15.973	937.469	718.912
184.198	16.041	936.138	718.117
185.213	15.953	935.922	717.514
186.227	16.010	935.144	717.095
187.242	15.973	935.114	716.852
188.256	16.109	933.799	716.358
189.271	16.275	932.976	716.369
190.286	16.304	932.472	716.041
191.300	16.098	931.542	714.392
192.315	15.824	930.332	712.241
193.329	15.656	930.305	711.447
194.344	15.735	929.356	710.990
195.359	15.787	928.693	710.639
196.373	16.073	928.035	711.281
197.388	15.928	928.053	710.621
198.402	16.236	927.194	711.197
199.417	16.292	927.099	711.297
200.432	16.320	926.675	711.027
201.446	16.310	926.396	710.707
202.461	16.430	926.131	710.945
203.475	16.445	925.080	710.140
204.490	16.501	924.278	709.697
205.504	16.302	923.622	708.294
206.519	16.417	922.428	707.798
207.534	16.237	921.636	706.377
208.548	16.243	921.058	705.895
209.563	16.263	920.702	705.644
210.577	16.207	919.762	704.626
211.592	16.165	919.306	704.039
212.607	16.329	919.286	704.648
213.621	16.472	918.091	704.263
214.636	16.398	917.438	703.392
215.650	16.537	916.477	703.172
216.665	16.446	916.261	702.566
217.680	16.562	915.404	702.328
218.694	16.565	915.106	702.048
219.709	16.523	914.662	701.475
220.723	16.653	913.725	701.232
221.738	16.505	913.199	700.152
222.753	16.584	912.271	699.707
223.767	16.536	911.643	698.963
224.782	16.569	911.047	698.580
225.796	16.626	910.434	698.284
226.811	16.694	909.870	698.072
227.826	16.576	909.179	696.992
228.840	16.544	908.317	696.136
229.855	16.509	907.583	695.371
230.869	16.603	907.144	695.356
231.884	16.458	906.389	694.121
232.899	16.404	906.058	693.588
233.913	16.462	905.086	693.019
234.928	16.589	903.886	692.560
235.942	16.502	903.526	691.866
236.957	16.240	903.216	690.493
237.972	16.460	902.270	690.611
238.986	16.539	901.375	690.184
240.001	16.419	901.058	689.392
241.015	16.550	900.093	689.126
242.030	16.574	899.510	688.715
243.045	16.661	898.475	688.218
244.059	16.741	898.165	688.246
245.074	16.652	897.793	687.539
246.088	16.673	897.238	687.136
247.103	16.784	896.300	686.806
248.117	16.745	895.894	686.278
249.132	16.877	895.461	686.419
250.147	16.990	894.985	686.450
251.161	17.055	894.252	686.089
252.176	17.243	893.258	686.027
253.190	17.299	892.548	685.646
254.205	17.226	892.335	685.128
255.220	17.431	891.626	685.350
256.234	17.303	891.204	684.450
257.249	17.290	890.351	683.679
258.263	17.236	890.144	683.243
259.278	17.372	888.943	682.808
260.293	17.285	888.633	682.160
261.307	17.354	887.905	681.816
262.322	17.556	887.437	682.208
263.336	17.424	886.797	681.125
264.351	17.380	886.471	680.638
265.366	17.478	885.548	680.261
266.380	17.539	884.957	679.991
267.395	17.390	884.453	678.950
268.409	17.570	883.447	678.835
269.424	17.474	882.596	677.740
270.439	17.233	882.356	676.537
271.453	17.389	881.440	676.395
272.468	17.387	880.400	675.528
273.482	17.278	880.057	674.772
274.497	17.220	879.367	673.954
275.512	17.311	878.732	673.766
276.526	17.290	878.140	673.170
277.541	17.441	877.449	673.179
278.555	17.304	877.045	672.267
279.570	17.393	876.434	672.090
280.585	17.563	875.816	672.227
281.599	17.604	875.396	672.010
282.614	17.492	874.580	670.883
283.628	17.427	874.223	670.291
284.643	17.361	873.473	669.397
285.657	17.442	872.757	669.107
286.672	17.525	872.225	668.966
287.687	17.549	871.930	668.778
288.701	17.706	870.873	668.522
289.716	17.549	870.656	667.681
290.730	17.604	870.148	667.448
291.745	17.556	869.618	666.793
292.760	17.629	869.089	666.616
293.774	17.752	867.981	666.188
294.789	17.657	867.593	665.461
295.803	17.745	867.303	665.522
296.818	17.555	866.349	663.989
297.833	17.677	865.416	663.691
298.847	17.598	865.019	663.020
299.862	17.806	864.301	663.219
300.876	17.720	863.320	662.076
301.891	17.666	863.136	661.664
302.906	17.894	862.274	661.829
303.920	17.905	861.900	661.529
304.935	17.939	861.040	660.943
305.949	17.993	860.478	660.661
306.964	18.000	859.854	660.150
307.979	17.944	858.981	659.204
308.993	17.961	858.875	659.130
310.008	18.012	858.298	658.826
311.022	18.136	857.689	658.779
312.037	18.153	856.859	658.146
313.052	18.074	856.463	657.481
314.066	17.846	855.881	656.100
315.081	17.791	855.192	655.302
316.095	17.669	854.980	654.612
317.110	17.686	854.137	653.976
318.125	17.826	853.466	653.941
319.139	17.772	853.200	653.471
320.154	17.834	852.742	653.298
321.168	17.971	851.656	652.934
322.183	18.005	851.385	652.797
323.197	17.988	851.190	652.525
324.212	17.964	850.628	651.945
325.227	18.032	850.011	651.674
326.241	18.098	849.270	651.301
327.256	17.944	848.669	650.195
328.270	17.819	848.536	649.561
329.285	17.883	847.839	649.213
330.300	17.944	847.230	648.922
331.314	18.008	846.477	648.529
332.329	17.954	846.134	648.005
333.343	18.070	845.283	647.737
334.358	18.097	844.934	647.514
335.373	18.198	844.248	647.312
336.387	18.217	843.891	647.054
337.402	18.192	843.434	646.552
338.416	18.275	842.662	646.216
339.431	18.337	842.020	645.899
340.446	18.449	841.555	645.910
341.460	18.524	841.014	645.720
342.475	18.471	840.479	645.050
343.489	18.543	839.919	644.836
344.504	18.671	839.256	644.751
345.519	18.668	839.004	644.489
346.533	18.735	837.839	643.786
347.548	18.641	837.779	643.332
348.562	18.627	837.125	642.721
349.577	18.372	837.054	641.653
350.592	18.418	836.148	641.074
351.606	18.504	835.391	640.757
352.621	18.376	835.066	639.972
353.635	18.517	834.797	640.237
354.650	18.541	834.079	639.719
355.665	18.335	833.721	638.622
356.679	18.558	833.502	639.228
357.694	18.410	832.787	638.071
358.708	18.580	832.038	638.074
359.723	18.480	831.847	637.498
360.738	18.438	831.476	637.001
361.752	18.479	830.689	636.493
362.767	18.455	830.771	636.410
363.781	18.648	829.958	636.448
364.796	18.661	829.529	636.111
365.810	18.766	829.072	636.096
366.825	18.919	828.751	636.358
367.840	18.956	828.044	635.897
368.854	18.876	827.719	635.296
369.869	18.768	827.251	634.479
370.883	18.817	826.276	633.855
371.898	18.759	826.172	633.508
372.913	18.839	825.602	633.308
373.927	19.031	824.518	633.128
374.942	18.892	824.126	632.259
375.956	18.876	823.585	631.731
376.971	19.002	822.906	631.614
377.986	18.936	822.723	631.177
379.000	19.138	822.175	631.443
380.015	19.156	821.510	630.940
381.029	19.193	820.846	630.512
382.044	18.990	820.631	629.545
383.059	19.013	819.869	628.990
384.073	18.983	819.527	628.564
385.088	19.167	818.552	628.430
386.102	19.017	818.137	627.511
387.117	19.045	817.736	627.248
388.132	19.002	817.215	626.636
389.146	19.023	816.772	626.319
390.161	19.134	816.195	626.226
391.175	18.939	816.286	625.530
392.190	19.222	815.738	626.083
393.205	19.097	815.015	625.019
394.219	19.069	814.510	624.474
395.234	19.145	814.049	624.341
396.248	18.990	813.559	623.347
397.263	18.904	812.938	622.505
398.278	18.986	812.510	622.418
399.292	18.963	812.038	621.922
400.307	18.957	811.599	621.506
401.321	18.802	811.357	620.707
402.336	19.016	811.115	621.241
403.350	19.130	810.198	620.894
404.365	19.152	809.911	620.699
405.380	19.254	809.735	620.876
406.394	19.223	809.447	620.489
407.409	19.450	808.652	620.639
408.423	19.287	808.569	619.937
409.438	19.418	807.843	619.797
410.453	19.508	807.718	619.968
411.467	19.429	807.114	619.166
412.482	19.607	806.302	619.127
413.496	19.591	805.735	618.579
414.511	19.725	805.751	619.016
415.526	19.545	805.542	618.156
416.540	19.562	805.321	617.994
417.555	19.477	804.447	616.963
418.569	19.584	803.867	616.847
419.584	19.495	803.771	616.400
420.599	19.779	802.800	616.613
421.613	151.153	1365.396	1771.795
422.628	131.049	1447.408	1771.923
