DTS Sentinel unit serial number:	SN413079Multiplexer serial number:	ORYXHardware model number:	OX4-SRSoftware version number:	ORYX F/W v4.00 Oryx Data Collector v3.7.2.0data status	okinstallation	princeton_trtdifferential loss correction	single-endedforward channel	channel 3reverse channel	N/Adate	2019/09/15time	01:12:35forward acquisition time	60.00reverse acquisition time	0.00gamma	496.2192k internal	0.2320k external	0.2320temperature offset calibration	0.9965default loss term (dB/km)	0.3790temperature slope calibration	1.0000multiplexer offset coefficient	1.0000multiplexer slope coefficient	1.0000fibre end	0.00T internal ref (°C)	31.94T ext. ref 1 (°C)	4.53T ext. ref 2 (°C)	26.86length (m)	temperature (°C)	Stokes	anti-Stokes-747.200	38.524	-0.261	0.235
-746.185	-157.018	0.206	-0.013
-745.171	-200.000	-0.010	0.145
-744.156	267.686	-0.140	0.248
-743.142	174.309	-0.045	0.066
-742.127	-145.892	0.181	-0.016
-741.112	-108.166	0.321	-0.070
-740.098	-64.379	-0.249	0.102
-739.083	-53.749	-0.280	0.129
-738.069	244.865	-0.099	-0.167
-737.054	-34.384	-0.112	-0.062
-736.039	-33.255	-0.334	-0.187
-735.025	415.356	0.095	-0.204
-734.010	61.110	-0.043	0.043
-732.996	-1.769	-0.286	0.204
-731.981	86.767	-0.121	-0.135
-730.966	-99.345	0.143	-0.036
-729.952	-157.586	-0.357	0.022
-728.937	28.547	-0.254	-0.217
-727.923	-92.998	-0.425	0.120
-726.908	-32.532	0.368	-0.207
-725.894	1.149	0.178	-0.129
-724.879	-91.456	0.056	0.016
-723.864	-54.118	-0.191	0.088
-722.850	188.962	-0.221	-0.335
-721.835	-145.169	-0.132	-0.012
-720.821	-102.860	-0.180	0.043
-719.806	-11.059	-0.380	0.253
-718.791	-42.396	-0.396	0.204
-717.777	-200.000	0.057	-0.329
-716.762	-200.000	0.045	-0.277
-715.748	-156.164	-0.169	-0.011
-714.733	-145.542	-0.206	0.019
-713.718	-48.958	0.081	0.039
-712.704	-0.910	-0.175	0.125
-711.689	-62.960	0.273	-0.114
-710.675	108.369	-0.255	-0.308
-709.660	137.134	-0.192	0.254
-708.645	-41.414	-0.075	-0.039
-707.631	162.388	-0.145	-0.205
-706.616	-116.090	-0.268	-0.050
-705.602	16.189	0.152	0.121
-704.587	-109.990	-0.068	-0.014
-703.572	800.000	0.046	-0.137
-702.558	17.089	0.107	0.085
-701.543	188.510	0.101	-0.153
-700.529	-58.381	-0.178	-0.078
-699.514	7.502	0.283	-0.213
-698.499	-102.839	-0.245	0.059
-697.485	-200.000	-0.040	0.271
-696.470	-200.000	-0.025	-0.125
-695.456	32.032	-0.047	-0.041
-694.441	800.000	0.058	-0.247
-693.426	-196.341	-0.203	0.001
-692.412	151.947	0.191	0.263
-691.397	800.000	0.029	0.084
-690.383	-200.000	-0.004	-0.185
-689.368	123.301	0.065	-0.082
-688.354	-83.421	-0.221	-0.072
-687.339	116.466	-0.097	-0.120
-686.324	-96.761	-0.061	0.016
-685.310	-151.411	0.153	0.012
-684.295	800.000	-0.127	-0.500
-683.281	-1.773	-0.256	0.182
-682.266	80.317	0.241	-0.261
-681.251	-171.830	-0.182	-0.006
-680.237	92.380	-0.242	-0.275
-679.222	800.000	-0.052	-0.212
-678.208	-89.319	0.069	0.020
-677.193	-6.697	0.091	0.063
-676.178	-105.308	-0.420	-0.096
-675.164	-54.712	0.445	-0.203
-674.149	331.260	-0.123	0.240
-673.135	-103.280	0.227	-0.054
-672.120	206.350	-0.216	-0.339
-671.105	135.897	0.192	-0.252
-670.091	298.755	-0.124	-0.230
-669.076	-90.348	-0.358	0.105
-668.062	-15.024	-0.055	0.036
-667.047	-44.783	0.242	0.122
-666.032	-200.000	0.030	-0.301
-665.018	-200.000	0.061	0.343
-664.003	102.249	-0.178	0.210
-662.989	-200.000	0.009	0.074
-661.974	62.683	0.102	0.103
-660.959	-100.994	-0.063	0.016
-659.945	330.034	0.207	0.402
-658.930	48.948	-0.394	-0.372
-657.916	-200.000	-0.036	-0.196
-656.901	-25.983	-0.224	-0.133
-655.886	800.000	-0.104	0.358
-654.872	49.246	0.127	-0.120
-653.857	-57.639	0.277	0.122
-652.843	170.535	-0.114	-0.165
-651.828	-200.000	0.031	-0.214
-650.814	16.120	0.048	-0.038
-649.799	99.281	0.077	-0.089
-648.784	-200.000	-0.037	-0.417
-647.770	-107.651	-0.209	-0.046
-646.755	-147.152	-0.239	0.021
-645.741	310.665	-0.072	-0.135
-644.726	-24.739	0.194	0.116
-643.711	-80.982	-0.493	-0.165
-642.697	112.966	0.073	0.089
-641.682	-199.082	-0.293	0.002
-640.668	-114.013	0.142	-0.028
-639.653	232.946	0.125	0.207
-638.638	-0.162	-0.191	0.137
-637.624	-88.405	0.096	-0.029
-636.609	800.000	0.099	0.316
-635.595	55.168	0.170	0.166
-634.580	544.835	-0.067	-0.160
-633.565	-86.472	0.156	0.048
-632.551	-200.000	-0.048	0.271
-631.536	116.013	-0.122	-0.151
-630.522	109.683	-0.092	0.111
-629.507	8.301	0.232	0.176
-628.492	-105.564	0.068	0.016
-627.478	-200.000	0.020	0.240
-626.463	-29.815	0.393	-0.226
-625.449	-22.702	0.273	-0.166
-624.434	-76.953	-0.207	-0.073
-623.419	-200.000	-0.038	0.316
-622.405	-200.000	-0.031	-0.150
-621.390	-200.000	0.000	-0.190
-620.376	469.091	-0.114	0.257
-619.361	17.990	-0.269	0.216
-618.346	-169.549	-0.075	-0.003
-617.332	202.747	0.066	-0.103
-616.317	-200.000	-0.023	-0.172
-615.303	-140.811	-0.433	-0.045
-614.288	-128.811	0.285	0.040
-613.273	-200.000	0.038	0.467
-612.259	-200.000	-0.049	0.223
-611.244	-200.000	-0.014	0.151
-610.230	21.547	-0.185	0.151
-609.215	446.200	-0.103	-0.227
-608.201	303.090	-0.110	-0.204
-607.186	29.889	-0.375	-0.321
-606.171	-119.159	0.166	0.029
-605.157	-200.000	-0.029	0.224
-604.142	800.000	0.047	0.202
-603.128	14.766	-0.252	0.198
-602.113	-106.467	0.130	-0.029
-601.098	252.423	0.099	0.169
-600.084	800.000	0.075	0.219
-599.069	-60.265	0.267	-0.114
-598.055	-89.464	0.232	-0.069
-597.040	800.000	0.095	-0.274
-596.025	-200.000	-0.009	-0.194
-595.011	446.991	-0.086	-0.190
-593.996	-2.779	0.384	-0.270
-592.982	205.050	-0.097	0.151
-591.967	-133.770	-0.272	0.034
-590.952	170.542	-0.099	-0.143
-589.938	54.105	0.054	0.052
-588.923	-28.260	-0.034	-0.020
-587.909	800.000	-0.043	0.132
-586.894	-28.221	-0.183	-0.106
-585.879	-26.471	0.125	-0.073
-584.865	-134.374	0.318	0.039
-583.850	-115.659	-0.238	0.045
-582.836	402.279	0.095	-0.200
-581.821	9.434	-0.252	-0.191
-580.806	44.856	0.231	-0.214
-579.792	-111.876	0.109	0.022
-578.777	-73.143	-0.186	-0.068
-577.763	-5.883	-0.184	-0.127
-576.748	-104.326	0.057	-0.013
-575.733	-194.781	-0.086	-0.001
-574.719	-71.644	-0.315	0.118
-573.704	85.740	-0.009	-0.010
-572.690	-200.000	0.011	0.091
-571.675	800.000	-0.066	0.273
-570.661	-200.000	-0.004	-0.098
-569.646	-22.227	-0.132	0.080
-568.631	153.468	0.237	-0.327
-567.617	-115.207	-0.093	0.018
-566.602	623.528	0.110	0.279
-565.588	-96.722	0.069	-0.018
-564.573	213.253	0.066	0.104
-563.558	-10.908	-0.298	-0.198
-562.544	247.495	0.220	-0.373
-561.529	-112.216	0.095	0.019
-560.515	180.647	-0.072	0.106
-559.500	800.000	0.013	0.041
-558.485	-80.734	0.267	0.089
-557.471	38.094	-0.076	-0.068
-556.456	37.606	-0.172	-0.153
-555.442	110.846	0.080	-0.097
-554.427	152.872	0.210	-0.288
-553.412	-200.000	-0.008	-0.100
-552.398	-65.603	0.021	0.008
-551.383	-200.000	-0.018	0.120
-550.369	41.532	0.182	-0.165
-549.354	243.528	0.029	0.049
-548.339	365.437	0.114	-0.231
-547.325	95.461	0.081	0.093
-546.310	-3.021	0.150	0.105
-545.296	-15.389	0.244	-0.157
-544.281	720.571	0.095	-0.253
-543.266	66.472	-0.189	-0.192
-542.252	296.853	0.092	0.170
-541.237	134.924	0.188	0.245
-540.223	119.869	0.211	-0.263
-539.208	65.576	-0.039	-0.039
-538.193	-95.948	0.062	0.016
-537.179	32.854	-0.122	-0.106
-536.164	-23.658	-0.338	-0.203
-535.150	800.000	0.057	-0.164
-534.135	800.000	0.050	-0.154
-533.121	-134.479	0.303	0.037
-532.106	-88.574	0.157	-0.047
-531.091	195.827	-0.097	-0.148
-530.077	-48.186	-0.325	-0.157
-529.062	-18.708	0.139	-0.087
-528.048	-37.131	-0.227	0.122
-527.033	-162.417	-0.327	0.016
-526.018	102.259	0.115	-0.135
-525.004	-16.001	0.350	-0.224
-523.989	249.366	-0.092	-0.157
-522.975	148.080	-0.129	0.175
-521.960	-124.587	0.037	-0.006
-520.945	87.880	-0.043	0.048
-519.931	66.095	-0.395	-0.402
-518.916	152.507	-0.057	0.078
-517.902	-34.045	-0.142	0.078
-516.887	-200.000	0.026	0.282
-515.872	-34.481	-0.296	0.163
-514.858	800.000	0.067	-0.236
-513.843	148.612	-0.091	0.123
-512.829	-157.257	0.290	0.018
-511.814	-200.000	-0.014	0.196
-510.799	-33.486	0.126	-0.070
-509.785	-200.000	-0.023	-0.342
-508.770	-200.000	0.030	0.194
-507.756	6.336	-0.068	-0.051
-506.741	43.330	0.275	0.251
-505.726	-7.242	-0.312	-0.212
-504.712	-14.914	0.294	-0.189
-503.697	-152.436	-0.109	0.008
-502.683	-126.123	-0.385	0.058
-501.668	-200.000	0.004	-0.033
-500.653	800.000	0.050	-0.149
-499.639	800.000	0.036	-0.126
-498.624	65.193	-0.157	0.158
-497.610	18.451	-0.251	-0.201
-496.595	6.095	0.192	-0.143
-495.581	220.178	0.128	-0.205
-494.566	-200.000	-0.002	0.191
-493.551	800.000	-0.075	0.316
-492.537	310.760	-0.072	-0.135
-491.522	386.205	-0.082	-0.170
-490.508	-191.938	0.236	0.002
-489.493	52.051	-0.072	-0.068
-488.478	-200.000	-0.013	0.133
-487.464	800.000	-0.069	-0.208
-486.449	140.340	0.063	0.084
-485.435	-200.000	0.024	-0.204
-484.420	-200.000	0.009	-0.149
-483.405	-200.000	0.036	0.611
-482.391	800.000	-0.133	0.412
-481.376	800.000	0.050	0.206
-480.362	800.000	-0.058	0.211
-479.347	311.358	-0.199	0.374
-478.332	617.877	-0.113	0.284
-477.318	160.481	0.048	0.068
-476.303	-165.330	0.201	0.009
-475.289	-128.316	-0.243	-0.035
-474.274	-112.379	-0.153	0.031
-473.259	-200.000	-0.031	-0.149
-472.245	-95.029	-0.178	0.048
-471.230	474.513	0.085	-0.191
-470.216	800.000	0.030	-0.128
-469.201	800.000	0.061	0.201
-468.186	800.000	-0.017	-0.048
-467.172	-115.657	0.125	0.023
-466.157	-72.785	0.102	0.037
-465.143	-19.866	0.047	0.029
-464.128	12.473	0.249	0.192
-463.113	-55.918	0.221	0.099
-462.099	198.287	0.084	0.128
-461.084	-200.000	0.027	0.194
-460.070	-200.000	-0.006	-0.079
-459.055	-93.227	-0.098	-0.027
-458.040	-200.000	0.004	-0.356
-457.026	-98.621	0.142	-0.036
-456.011	-10.739	0.231	0.153
-454.997	435.969	0.076	-0.166
-453.982	-200.000	0.004	-0.024
-452.968	234.328	-0.122	-0.201
-451.953	-43.176	-0.078	-0.040
-450.938	-200.000	0.036	0.307
-449.924	-87.240	0.015	-0.005
-448.909	35.747	0.161	0.141
-447.895	-141.366	0.352	-0.036
-446.880	58.861	-0.087	-0.086
-445.865	-200.000	0.004	0.103
-444.851	2.239	0.298	-0.215
-443.836	-50.241	-0.379	0.179
-442.822	50.049	-0.204	-0.193
-441.807	-63.178	-0.117	0.048
-440.792	203.481	0.124	-0.191
-439.778	-55.271	0.245	-0.110
-438.763	800.000	0.101	0.378
-437.749	-107.762	0.123	-0.027
-436.734	5.608	-0.431	0.318
-435.719	-171.479	-0.212	0.007
-434.705	90.299	0.058	-0.065
-433.690	-94.475	0.079	0.021
-432.676	716.822	0.010	0.027
-431.661	-107.274	0.156	-0.034
-430.646	247.483	-0.026	-0.044
-429.632	-129.094	0.095	0.013
-428.617	59.996	-0.301	0.297
-427.603	12.180	0.133	0.102
-426.588	-1.361	0.170	0.120
-425.573	800.000	0.042	0.152
-424.559	-62.720	-0.347	0.144
-423.544	66.656	0.093	0.095
-422.530	277.292	-0.099	-0.177
-421.515	-164.370	0.002	0.000
-420.500	263.487	0.075	-0.130
-419.486	-93.201	-0.246	0.068
-418.471	-10.069	-0.095	-0.063
-417.457	-79.371	0.217	-0.073
-416.442	-172.573	-0.180	-0.006
-415.428	800.000	-0.118	-0.487
-414.413	647.154	-0.091	0.233
-413.398	201.243	-0.046	0.071
-412.384	-160.405	-0.221	0.012
-411.369	0.463	0.112	-0.080
-410.355	507.199	-0.093	0.216
-409.340	264.044	-0.051	0.089
-408.325	-168.467	-0.184	-0.007
-407.311	95.916	0.110	0.126
-406.296	-61.867	-0.133	0.055
-405.282	-200.000	0.039	0.357
-404.267	-185.239	0.406	-0.006
-403.252	-200.000	0.107	0.476
-402.238	153.447	0.067	-0.091
-401.223	-38.147	0.251	-0.133
-400.209	-24.558	-0.229	0.136
-399.194	68.357	-0.154	0.157
-398.179	-32.427	0.032	-0.018
-397.165	800.000	0.037	-0.144
-396.150	148.914	0.143	0.193
-395.136	239.598	-0.148	-0.246
-394.121	-77.196	0.187	0.065
-393.106	-200.000	0.051	-0.420
-392.092	800.000	-0.014	-0.044
-391.077	-76.239	-0.388	-0.137
-390.063	-34.276	0.196	0.107
-389.048	-200.000	-0.015	0.160
-388.033	304.730	0.088	0.163
-387.019	-35.909	-0.251	0.135
-386.004	800.000	0.071	-0.295
-384.990	97.514	-0.010	-0.012
-383.975	594.903	-0.048	0.117
-382.960	-109.644	0.322	0.068
-381.946	800.000	-0.059	-0.163
-380.931	800.000	-0.027	0.093
-379.917	187.794	0.198	0.294
-378.902	-28.635	-0.200	-0.115
-377.888	-58.710	-0.286	0.124
-376.873	-88.794	0.223	-0.066
-375.858	-200.000	-0.008	-0.164
-374.844	601.944	0.105	-0.261
-373.829	-61.931	0.056	-0.023
-372.815	-9.666	0.130	0.086
-371.800	-90.677	-0.242	0.070
-370.785	346.791	-0.078	0.152
-369.771	-18.420	-0.249	-0.155
-368.756	-118.258	0.303	0.054
-367.742	-53.455	0.125	-0.057
-366.727	800.000	-0.052	-0.168
-365.712	-57.231	-0.378	0.166
-364.698	-200.000	-0.021	0.121
-363.683	169.154	0.180	0.257
-362.669	135.213	0.261	0.338
-361.654	-145.162	0.114	-0.010
-360.639	-200.000	0.030	-0.156
-359.625	800.000	-0.077	0.279
-358.610	722.195	0.013	0.034
-357.596	-41.032	-0.249	-0.128
-356.581	126.523	0.056	-0.070
-355.566	-82.064	-0.202	0.066
-354.552	46.257	0.092	-0.085
-353.537	-200.000	-0.062	0.365
-352.523	800.000	0.124	0.473
-351.508	-200.000	0.032	-0.557
-350.493	208.489	-0.097	0.151
-349.479	-74.361	0.261	0.094
-348.464	104.095	-0.223	0.261
-347.450	-54.668	-0.061	0.028
-346.435	-102.725	0.287	0.068
-345.420	-146.731	0.122	0.011
-344.406	800.000	-0.044	-0.163
-343.391	234.565	0.203	-0.333
-342.377	800.000	0.081	0.316
-341.362	-200.000	0.119	-0.549
-340.348	407.326	-0.048	0.102
-339.333	800.000	0.050	-0.169
-338.318	-200.000	-0.021	-0.453
-337.304	-21.403	0.133	0.081
-336.289	25.385	-0.234	0.193
-335.275	9.624	0.144	0.109
-334.260	800.000	0.081	-0.282
-333.245	-137.178	0.233	-0.026
-332.231	193.896	0.025	0.037
-331.216	-14.301	0.342	-0.219
-330.202	245.603	0.059	-0.098
-329.187	14.346	0.302	0.234
-328.172	40.503	-0.285	0.256
-327.158	-36.487	-0.173	0.093
-326.143	74.482	0.133	-0.139
-325.129	361.861	0.076	-0.152
-324.114	138.926	-0.125	-0.164
-323.099	800.000	0.118	-0.400
-322.085	26.607	-0.119	0.099
-321.070	130.263	0.161	0.205
-320.056	234.243	-0.143	0.235
-319.041	-57.483	-0.172	0.075
-318.026	127.810	0.120	-0.152
-317.012	-49.941	0.231	-0.109
-315.997	-118.346	-0.151	-0.027
-314.983	49.455	0.159	0.148
-313.968	-10.006	0.058	0.039
-312.953	759.735	0.032	0.086
-311.939	53.408	0.270	0.257
-310.924	388.882	0.196	-0.404
-309.910	103.576	0.026	-0.030
-308.895	-28.258	-0.059	0.034
-307.880	42.371	0.077	-0.070
-306.866	-44.996	0.199	-0.098
-305.851	98.450	-0.174	-0.200
-304.837	-124.317	0.129	-0.020
-303.822	800.000	0.065	0.181
-302.807	-200.000	0.001	0.306
-301.793	-43.272	-0.275	-0.138
-300.778	102.746	-0.178	0.207
-299.764	-200.000	-0.048	-0.221
-298.749	356.950	0.097	-0.193
-297.735	-65.488	-0.409	-0.163
-296.720	189.860	0.111	0.165
-295.705	130.283	0.040	0.051
-294.691	-171.275	-0.239	0.008
-293.676	800.000	-0.020	0.067
-292.662	-148.439	-0.338	-0.028
-291.647	-61.822	0.068	0.028
-290.632	42.372	0.075	0.067
-289.618	165.172	0.024	0.033
-288.603	-200.000	0.010	0.102
-287.589	25.209	-0.193	-0.159
-286.574	742.231	-0.111	0.296
-285.559	800.000	-0.035	-0.148
-284.545	-128.377	-0.263	-0.037
-283.530	800.000	-0.046	0.154
-282.516	-34.237	-0.151	-0.082
-281.501	-7.507	-0.127	0.085
-280.486	36.974	-0.119	0.105
-279.472	314.395	0.116	-0.216
-278.457	-60.690	-0.066	0.028
-277.443	2.869	-0.126	0.091
-276.428	-200.000	0.067	-0.322
-275.413	5.027	-0.095	0.070
-274.399	202.182	0.126	0.193
-273.384	-171.174	0.206	-0.007
-272.370	172.542	-0.096	-0.137
-271.355	-200.000	-0.044	-0.237
-270.340	800.000	0.067	0.287
-269.326	-200.000	-0.032	-0.370
-268.311	456.482	0.030	-0.065
-267.297	-200.000	0.067	-0.450
-266.282	-94.287	0.506	-0.137
-265.267	30.282	-0.123	0.104
-264.253	-200.000	-0.052	-0.241
-263.238	-102.420	-0.143	-0.034
-262.224	800.000	-0.070	0.224
-261.209	145.723	-0.166	-0.220
-260.195	-200.000	-0.024	-0.129
-259.180	427.477	-0.090	-0.193
-258.165	800.000	-0.053	0.186
-257.151	-132.425	-0.170	0.022
-256.136	15.403	0.175	0.136
-255.122	-117.283	-0.225	0.041
-254.107	87.625	0.118	0.130
-253.092	-200.000	0.040	0.290
-252.078	800.000	-0.061	-0.194
-251.063	14.155	-0.240	0.186
-250.049	-63.595	0.395	0.161
-249.034	-41.900	-0.282	0.143
-248.019	-200.000	0.032	0.217
-247.005	-25.977	-0.193	-0.113
-245.990	349.401	0.121	0.236
-244.976	800.000	-0.078	0.237
-243.961	-66.489	0.227	0.089
-242.946	-121.307	0.110	-0.018
-241.932	239.367	-0.112	-0.185
-240.917	-25.645	-0.192	0.113
-239.903	800.000	0.021	-0.077
-238.888	280.514	-0.179	-0.316
-237.873	309.931	0.161	-0.298
-236.859	-104.402	0.229	-0.052
-235.844	237.389	-0.121	-0.198
-234.830	-38.709	-0.134	0.070
-233.815	-139.411	0.248	0.026
-232.800	276.932	-0.202	-0.356
-231.786	800.000	-0.031	0.120
-230.771	-200.000	0.013	-0.286
-229.757	-101.673	0.241	-0.058
-228.742	111.079	0.228	0.272
-227.727	84.490	-0.205	0.222
-226.713	17.941	-0.153	0.121
-225.698	-200.000	0.028	0.182
-224.684	-134.759	0.184	-0.022
-223.669	-51.453	-0.193	0.089
-222.655	49.392	0.116	-0.108
-221.640	184.118	0.068	0.100
-220.625	115.624	0.119	0.144
-219.611	78.215	-0.060	0.063
-218.596	-57.242	0.206	-0.090
-217.582	-67.032	0.181	0.071
-216.567	366.141	-0.067	-0.134
-215.552	800.000	-0.086	0.274
-214.538	-200.000	-0.010	0.110
-213.523	0.756	-0.140	0.099
-212.509	-132.224	-0.267	0.034
-211.494	800.000	-0.091	0.321
-210.479	-125.312	-0.193	-0.029
-209.465	174.502	-0.080	-0.115
-208.450	204.101	-0.128	0.197
-207.436	-39.466	-0.156	0.081
-206.421	-100.002	0.021	0.005
-205.406	640.251	0.134	-0.336
-204.392	-15.123	0.232	-0.147
-203.377	215.142	0.271	-0.425
-202.363	-59.947	0.132	-0.056
-201.348	-126.239	0.212	-0.031
-200.333	-7.662	-0.097	-0.065
-199.319	258.085	-0.089	0.151
-198.304	313.508	0.102	-0.191
-197.290	38.620	0.162	-0.143
-196.275	53.875	0.212	-0.202
-195.260	118.872	0.096	0.118
-194.246	-47.786	-0.110	-0.053
-193.231	-200.000	0.016	0.081
-192.217	-200.000	0.015	-0.085
-191.202	734.203	-0.008	-0.022
-190.187	-27.474	0.259	-0.149
-189.173	-92.397	0.218	0.061
-188.158	-200.000	-0.031	0.135
-187.144	-48.580	0.168	-0.080
-186.129	-200.000	0.013	0.184
-185.114	-27.663	0.139	-0.080
-184.100	-200.000	0.103	-0.537
-183.085	455.953	-0.066	-0.144
-182.071	25.244	-0.056	0.046
-181.056	126.886	-0.132	0.166
-180.042	-82.213	-0.245	-0.079
-179.027	-58.575	0.124	0.053
-178.012	800.000	0.073	0.207
-176.998	349.582	-0.228	-0.446
-175.983	145.781	-0.059	0.078
-174.969	-62.861	-0.165	0.068
-173.954	-94.184	0.137	-0.037
-172.939	692.497	-0.057	0.148
-171.925	32.866	-0.141	0.121
-170.910	800.000	-0.060	0.201
-169.896	-200.000	-0.014	-0.179
-168.881	314.288	0.167	-0.310
-167.866	20.832	0.255	0.204
-166.852	-120.711	-0.283	0.047
-165.837	144.872	0.036	-0.048
-164.823	663.505	-0.056	-0.143
-163.808	-67.641	0.238	-0.092
-162.793	101.568	-0.209	0.241
-161.779	7.945	-0.144	0.107
-160.764	-83.442	0.235	0.074
-159.750	800.000	-0.063	-0.187
-158.735	-200.000	-0.033	0.353
-157.720	-132.492	-0.024	-0.003
-156.706	143.371	-0.073	0.095
-155.691	538.019	-0.090	0.211
-154.677	506.420	0.056	-0.128
-153.662	-110.933	0.091	0.018
-152.647	-18.527	0.065	0.040
-151.633	-89.778	-0.122	-0.035
-150.618	-145.482	-0.251	-0.022
-149.604	5.095	0.224	0.163
-148.589	-49.502	0.246	0.116
-147.574	-71.837	0.380	0.140
-146.560	-200.000	-0.009	-0.194
-145.545	-184.461	0.254	-0.004
-144.531	-132.816	-0.116	-0.015
-143.516	-135.164	-0.217	0.026
-142.502	19.887	-0.063	-0.051
-141.487	-200.000	-0.048	0.307
-140.472	800.000	0.014	-0.041
-139.458	800.000	0.089	0.259
-138.443	-31.499	-0.256	-0.142
-137.429	-50.840	-0.061	0.028
-136.414	-76.325	-0.235	-0.082
-135.399	-160.165	-0.312	0.017
-134.385	19.239	0.236	0.187
-133.370	-19.627	-0.019	0.012
-132.356	-66.720	-0.032	-0.013
-131.341	296.638	0.091	0.164
-130.326	104.346	0.373	-0.434
-129.312	202.384	0.248	0.378
-128.297	-91.235	-0.142	0.040
-127.283	-53.147	-0.292	-0.132
-126.268	126.277	-0.184	0.230
-125.253	-200.000	-0.020	-0.088
-124.239	82.229	-0.141	-0.151
-123.224	-42.809	-0.459	0.230
-122.210	-105.193	0.313	0.071
-121.195	472.247	0.045	-0.100
-120.180	35.327	0.122	-0.105
-119.166	-165.533	-0.396	-0.017
-118.151	-200.000	0.078	-0.369
-117.137	259.084	-0.089	0.152
-116.122	0.889	0.179	0.126
-115.107	276.468	0.029	0.050
-114.093	-110.051	-0.209	0.043
-113.078	-200.000	-0.005	0.332
-112.064	19.359	-0.125	-0.099
-111.049	-137.295	0.259	0.029
-110.034	216.304	-0.119	-0.186
-109.020	16.489	-0.192	-0.150
-108.005	-141.586	-0.282	0.028
-106.991	-200.000	-0.010	0.089
-105.976	235.269	0.149	0.243
-104.962	11.686	0.165	-0.125
-103.947	-61.324	-0.095	-0.039
-102.932	-161.384	-0.115	-0.006
-101.918	-200.000	0.034	0.301
-100.903	-125.554	-0.187	0.028
-99.889	-200.000	0.014	0.274
-98.874	-79.995	-0.167	0.055
-97.859	538.940	-0.137	-0.322
-96.845	-200.000	0.012	-0.177
-95.830	-32.821	0.341	0.187
-94.816	84.189	0.132	0.143
-93.801	49.174	0.177	0.164
-92.786	-106.717	-0.221	0.048
-91.772	328.310	0.118	-0.224
-90.757	222.216	-0.116	-0.184
-89.743	800.000	0.115	-0.318
-88.728	-200.000	0.035	0.157
-87.713	15.537	0.069	0.053
-86.699	113.440	-0.280	0.335
-85.684	24.731	-0.037	0.030
-84.670	-200.000	-0.003	0.130
-83.655	8.083	-0.201	0.149
-82.640	-51.183	-0.311	-0.143
-81.626	-182.819	-0.257	0.005
-80.611	145.640	0.315	-0.416
-79.597	-36.181	0.299	-0.159
-78.582	192.417	0.122	0.182
-77.567	3.319	0.241	-0.173
-76.553	-85.979	0.215	-0.066
-75.538	-200.000	0.002	0.226
-74.524	27.712	-0.253	-0.210
-73.509	800.000	-0.060	0.244
-72.494	615.740	-0.083	0.205
-71.480	218.159	0.037	0.059
-70.465	-111.340	-0.218	-0.044
-69.451	-12.067	-0.231	-0.149
-68.436	-37.032	-0.150	0.079
-67.422	692.499	0.062	0.160
-66.407	-200.000	0.055	-0.281
-65.392	137.529	-0.082	0.106
-64.378	285.494	0.058	0.104
-63.363	-96.213	-0.337	0.088
-62.349	800.000	-0.073	0.248
-61.334	3.922	-1.161	-0.835
-60.319	266.938	0.350	0.602
-59.305	800.000	-0.258	-0.849
-58.290	170.982	0.690	0.973
-57.276	337.249	0.729	1.395
-56.261	-200.000	96.303	595.466
-55.246	651.711	1370.732	3456.853
-54.232	199.648	2544.622	3841.841
-53.217	119.002	2158.124	2625.665
-52.203	42.705	1703.466	1526.626
-51.188	35.209	1516.291	1307.909
-50.173	32.786	1489.676	1268.627
-49.159	52.137	1538.641	1443.009
-48.144	53.800	1556.050	1470.642
-47.130	35.311	1516.155	1308.277
-46.115	32.233	1501.476	1274.729
-45.100	32.069	1498.393	1270.951
-44.086	32.070	1496.310	1269.139
-43.071	31.996	1494.206	1266.806
-42.057	31.991	1492.674	1265.423
-41.042	31.961	1491.343	1264.040
-40.027	32.011	1490.181	1263.344
-39.013	31.940	1489.117	1261.909
-37.998	31.840	1487.546	1259.861
-36.984	31.871	1486.409	1259.051
-35.969	32.008	1484.507	1258.312
-34.954	31.891	1483.564	1256.675
-33.940	31.974	1482.093	1255.941
-32.925	31.957	1481.049	1254.889
-31.911	31.928	1479.345	1253.198
-30.896	32.048	1477.327	1252.243
-29.881	32.085	1476.244	1251.524
-28.867	32.011	1475.222	1250.112
-27.852	31.970	1474.154	1248.883
-26.838	32.042	1472.419	1247.848
-25.823	32.008	1471.120	1246.467
-24.809	31.969	1469.375	1244.680
-23.794	32.027	1467.639	1243.549
-22.779	31.980	1466.765	1242.447
-21.765	31.992	1465.107	1241.069
-20.750	31.960	1464.341	1240.162
-19.736	32.035	1463.056	1239.518
-18.721	32.021	1461.976	1238.463
-17.706	31.871	1461.173	1236.744
-16.692	31.947	1459.956	1236.168
-15.677	31.932	1458.962	1235.177
-14.663	31.992	1457.725	1234.476
-13.648	31.822	1457.243	1232.896
-12.633	31.817	1456.035	1231.794
-11.619	31.811	1455.650	1231.380
-10.604	31.958	1454.146	1231.022
-9.590	31.887	1453.521	1229.980
-8.575	31.899	1452.769	1229.371
-7.560	31.862	1452.250	1228.642
-6.546	31.897	1451.163	1227.904
-5.531	31.849	1450.049	1226.599
-4.517	31.861	1448.737	1225.521
-3.502	31.858	1447.728	1224.597
-2.487	31.902	1446.541	1223.835
-1.473	31.818	1445.870	1222.671
-0.458	31.850	1444.574	1221.733
0.556	30.519	1434.838	1210.957
1.571	27.568	1409.366	1170.434
2.586	24.174	1349.404	1099.630
3.600	22.473	1267.692	1023.080
4.615	21.074	1221.994	978.274
5.629	18.326	1165.786	918.471
6.644	10.920	1083.492	816.504
7.659	5.295	1044.431	759.709
8.673	4.615	1038.846	752.293
9.688	4.614	1035.905	750.090
10.702	4.419	1034.821	748.301
11.717	4.462	1032.594	746.832
12.731	6.352	1034.590	757.309
13.746	13.337	1043.553	797.590
14.761	18.365	1050.011	826.785
15.775	18.353	1048.597	825.544
16.790	17.356	1046.370	818.920
17.804	16.172	1044.772	811.900
18.819	15.293	1042.801	806.070
19.834	14.945	1041.221	803.110
20.848	14.645	1040.371	800.942
21.863	14.558	1039.227	799.573
22.877	14.265	1038.790	797.765
23.892	14.114	1037.999	796.362
24.907	14.002	1037.033	795.014
25.921	13.963	1036.641	794.459
26.936	14.043	1035.553	793.934
27.950	14.094	1034.496	793.297
28.965	14.002	1033.716	792.192
29.980	14.080	1032.972	791.922
30.994	14.271	1030.974	791.228
32.009	14.290	1030.061	790.550
33.023	14.339	1029.721	790.448
34.038	14.363	1028.968	789.917
35.053	14.204	1027.973	788.330
36.067	14.192	1026.776	787.285
37.082	14.207	1025.982	786.680
38.096	14.302	1024.872	786.205
39.111	14.241	1024.382	785.474
40.126	14.299	1023.868	785.280
41.140	14.263	1022.254	783.804
42.155	13.935	1021.733	781.794
43.169	13.850	1021.177	780.898
44.184	13.925	1019.538	779.926
45.199	13.922	1018.364	778.947
46.213	13.854	1017.711	778.058
47.228	13.893	1016.586	777.312
48.242	14.069	1015.761	777.437
49.257	14.098	1015.250	777.114
50.271	14.104	1013.890	776.033
51.286	14.017	1013.092	774.944
52.301	14.068	1012.023	774.299
53.315	14.158	1011.515	774.261
54.330	14.169	1010.575	773.523
55.344	13.913	1009.831	771.697
56.359	13.991	1008.600	771.047
57.374	13.912	1008.542	770.569
58.388	14.094	1006.791	770.006
59.403	13.928	1006.119	768.653
60.417	13.869	1005.357	767.731
61.432	13.949	1004.721	767.548
62.447	13.919	1003.830	766.663
63.461	13.820	1002.717	765.287
64.476	13.780	1001.949	764.449
65.490	13.809	1001.384	764.082
66.505	13.809	1000.318	763.201
67.520	13.846	999.681	762.819
68.534	13.805	998.725	761.832
69.549	13.823	998.225	761.466
70.563	13.883	996.985	760.729
71.578	13.768	996.696	759.916
72.593	13.718	995.791	758.928
73.607	13.773	994.719	758.297
74.622	13.758	993.605	757.312
75.636	13.706	992.825	756.414
76.651	13.708	992.356	755.999
77.666	13.692	991.592	755.275
78.680	13.780	990.636	754.883
79.695	13.694	990.088	754.004
80.709	13.794	989.615	754.032
81.724	13.787	988.973	753.447
82.739	13.828	988.280	753.037
83.753	14.083	987.421	753.473
84.768	14.070	986.506	752.646
85.782	14.217	985.854	752.749
86.797	14.266	985.400	752.556
87.812	14.266	984.501	751.803
88.826	14.039	983.873	750.233
89.841	14.047	983.101	749.615
90.855	14.214	981.835	749.337
91.870	14.194	981.654	749.042
92.884	14.231	981.034	748.668
93.899	14.296	980.155	748.220
94.914	14.240	979.559	747.449
95.928	14.254	978.720	746.804
96.943	14.392	977.709	746.589
97.957	14.265	976.888	745.323
98.972	14.232	976.284	744.653
99.987	14.202	975.663	743.979
101.001	14.174	975.198	743.431
102.016	14.124	974.165	742.355
103.030	14.186	972.914	741.612
104.045	14.159	972.294	740.955
105.060	14.153	971.200	740.030
106.074	14.185	970.244	739.376
107.089	14.007	969.380	737.864
108.103	14.143	968.002	737.353
109.118	13.898	967.238	735.619
110.133	13.938	966.699	735.323
111.147	13.845	966.118	734.402
112.162	13.815	965.187	733.497
113.176	13.942	964.662	733.593
114.191	14.023	963.337	732.879
115.206	14.015	962.482	732.126
116.220	14.066	961.797	731.766
117.235	13.943	961.555	730.979
118.249	13.915	960.467	729.961
119.264	13.962	959.349	729.253
120.279	13.920	958.647	728.472
121.293	13.972	957.686	727.905
122.308	13.804	957.239	726.764
123.322	13.823	956.016	725.855
124.337	13.894	955.157	725.450
125.352	13.744	953.911	723.787
126.366	13.861	953.147	723.649
127.381	13.820	952.023	722.553
128.395	13.791	951.116	721.678
129.410	13.906	950.417	721.583
130.424	13.902	949.152	720.539
131.439	13.999	948.347	720.285
132.454	13.884	947.913	719.395
133.468	14.065	946.933	719.371
134.483	14.050	946.300	718.761
135.497	13.899	945.562	717.482
136.512	13.973	944.816	717.173
137.527	14.177	943.541	717.022
138.541	13.989	943.038	715.765
139.556	14.017	942.552	715.457
140.570	13.940	942.034	714.665
141.585	14.059	941.041	714.362
142.600	14.258	940.407	714.670
143.614	14.240	939.382	713.754
144.629	14.314	938.746	713.523
145.643	14.252	938.730	713.182
146.658	14.362	937.476	712.638
147.673	14.150	936.532	710.952
148.687	14.200	935.098	710.013
149.702	14.082	934.773	709.199
150.716	14.141	933.801	708.652
151.731	14.052	932.515	707.235
152.746	13.947	932.328	706.585
153.760	14.152	931.483	706.750
154.775	14.171	930.731	706.199
155.789	14.153	930.266	705.708
156.804	14.231	929.296	705.241
157.819	14.246	928.370	704.538
158.833	14.293	927.647	704.123
159.848	14.375	926.931	703.864
160.862	14.400	926.864	703.857
161.877	14.358	925.999	702.963
162.892	14.195	925.124	701.547
163.906	14.209	923.655	700.432
164.921	14.111	923.009	699.465
165.935	14.190	922.166	699.100
166.950	14.315	921.272	698.884
167.964	14.318	920.430	698.196
168.979	14.224	919.702	697.189
169.994	14.299	918.207	696.305
171.008	14.072	917.903	695.067
172.023	14.254	916.876	694.988
173.037	14.348	916.016	694.664
174.052	14.476	915.567	694.794
175.067	14.473	914.842	694.174
176.081	14.249	913.800	692.390
177.096	14.224	913.468	691.972
178.110	14.283	912.148	691.155
179.125	14.260	911.652	690.623
180.140	14.277	910.915	690.074
181.154	14.381	910.223	689.917
182.169	14.304	909.785	689.209
183.183	14.420	909.312	689.267
184.198	14.606	908.222	689.147
185.213	14.525	907.746	688.393
186.227	14.555	907.046	687.924
187.242	14.554	906.453	687.411
188.256	14.568	906.028	687.083
189.271	14.605	905.738	686.957
190.286	14.550	904.721	685.897
191.300	14.484	903.937	684.970
192.315	14.319	902.810	683.381
193.329	14.274	902.109	682.606
194.344	14.228	902.062	682.318
195.359	14.363	901.017	682.022
196.373	14.365	900.461	681.547
197.388	14.385	900.235	681.399
198.402	14.556	899.491	681.474
199.417	14.616	899.088	681.352
200.432	14.746	898.699	681.530
201.446	14.915	897.800	681.475
202.461	14.843	897.913	681.206
203.475	14.804	897.694	680.824
204.490	14.885	896.549	680.225
205.504	14.768	895.473	678.870
206.519	14.742	894.884	678.260
207.534	14.708	894.341	677.649
208.548	14.730	893.287	676.882
209.563	14.700	892.679	676.239
210.577	14.706	892.002	675.688
211.592	14.669	891.163	674.845
212.607	14.803	891.063	675.250
213.621	15.090	890.374	675.829
214.636	14.925	889.684	674.578
215.650	14.770	889.338	673.631
216.665	14.787	888.603	673.083
217.680	14.930	887.973	673.124
218.694	14.950	887.639	672.890
219.709	15.002	887.402	672.858
220.723	14.963	886.323	671.826
221.738	15.000	885.783	671.506
222.753	14.978	884.828	670.635
223.767	15.037	884.318	670.425
224.782	15.036	883.425	669.683
225.796	15.108	882.862	669.488
226.811	15.108	882.138	668.878
227.826	15.034	881.920	668.356
228.840	14.972	881.055	667.394
229.855	15.079	880.183	667.104
230.869	15.069	879.277	666.318
231.884	15.029	878.600	665.584
232.899	15.085	878.343	665.556
233.913	14.895	877.718	664.268
234.928	14.957	877.170	664.040
235.942	14.915	876.188	663.072
236.957	15.023	875.208	662.700
237.972	14.993	874.916	662.301
238.986	14.941	874.049	661.379
240.001	15.012	873.390	661.102
241.015	15.026	872.589	660.494
242.030	14.978	872.238	659.979
243.045	15.208	871.100	659.969
244.059	15.136	871.223	659.718
245.074	15.274	869.891	659.195
246.088	15.082	869.879	658.370
247.103	15.148	869.298	658.132
248.117	15.334	868.806	658.433
249.132	15.422	868.384	658.400
250.147	15.303	868.046	657.618
251.161	15.546	867.087	657.787
252.176	15.714	866.413	657.871
253.190	15.717	865.913	657.447
254.205	15.553	865.623	656.529
255.220	15.653	864.819	656.249
256.234	15.659	864.229	655.770
257.249	15.580	863.801	655.077
258.263	15.826	862.663	655.114
259.278	15.667	862.160	654.055
260.293	15.752	861.752	654.020
261.307	15.732	861.231	653.489
262.322	15.797	860.841	653.386
263.336	15.863	859.945	652.903
264.351	15.886	859.563	652.646
265.366	15.928	858.991	652.319
266.380	15.909	858.659	651.932
267.395	15.999	857.478	651.327
268.409	15.864	856.939	650.337
269.424	15.809	855.999	649.357
270.439	15.841	855.255	648.857
271.453	15.772	854.470	647.936
272.468	15.815	853.841	647.570
273.482	15.877	853.497	647.488
274.497	15.741	853.273	646.740
275.512	15.880	851.823	646.117
276.526	15.795	851.301	645.339
277.541	15.738	850.755	644.648
278.555	15.901	850.243	644.826
279.570	15.844	849.973	644.348
280.585	16.016	849.413	644.522
281.599	16.024	849.219	644.351
282.614	16.044	848.475	643.807
283.628	16.028	847.495	642.944
284.643	15.861	846.917	641.811
285.657	15.857	846.483	641.412
286.672	15.816	846.494	641.206
287.687	15.965	845.727	641.135
288.701	16.032	844.886	640.694
289.716	15.986	844.417	640.107
290.730	16.069	843.867	639.951
291.745	16.095	843.025	639.352
292.760	16.059	842.557	638.806
293.774	16.170	841.839	638.624
294.789	16.226	841.408	638.454
295.803	16.142	841.256	637.965
296.818	16.054	840.248	636.809
297.833	16.099	839.864	636.632
298.847	16.068	838.737	635.605
299.862	16.184	838.127	635.524
300.876	16.131	837.659	634.914
301.891	16.182	836.836	634.427
302.906	16.310	836.541	634.628
303.920	16.271	835.583	633.696
304.935	16.253	835.239	633.312
305.949	16.411	834.762	633.488
306.964	16.570	834.006	633.454
307.979	16.470	833.443	632.594
308.993	16.381	833.107	631.950
310.008	16.387	832.451	631.422
311.022	16.509	831.826	631.345
312.037	16.461	831.250	630.672
313.052	16.337	830.987	629.957
314.066	16.264	830.226	629.050
315.081	16.347	829.639	628.859
316.095	16.289	829.289	628.325
317.110	16.321	828.326	627.656
318.125	16.381	828.050	627.614
319.139	16.258	827.757	626.881
320.154	16.278	827.093	626.396
321.168	16.312	826.836	626.273
322.183	16.418	825.851	625.862
323.197	16.376	825.610	625.469
324.212	16.262	825.135	624.634
325.227	16.547	824.660	625.272
326.241	16.398	823.987	624.155
327.256	16.290	823.634	623.434
328.270	16.453	822.925	623.445
329.285	16.285	822.494	622.442
330.300	16.415	821.578	622.175
331.314	16.530	820.967	622.078
332.329	16.568	820.070	621.484
333.343	16.504	819.945	621.101
334.358	16.615	819.155	620.854
335.373	16.554	819.021	620.471
336.387	16.598	818.337	620.061
337.402	16.681	817.932	620.002
338.416	16.840	817.059	619.868
339.431	16.793	816.998	619.595
340.446	16.736	816.419	618.891
341.460	16.760	815.939	618.561
342.475	16.863	815.204	618.324
343.489	17.168	814.550	618.885
344.504	16.977	814.209	617.878
345.519	16.965	813.828	617.489
346.533	17.039	813.136	617.177
347.548	16.996	812.739	616.665
348.562	17.010	811.993	616.098
349.577	16.902	811.571	615.329
350.592	16.785	810.749	614.229
351.606	16.849	810.563	614.266
352.621	16.880	809.711	613.677
353.635	16.949	809.395	613.634
354.650	16.826	809.177	612.970
355.665	16.858	808.666	612.643
356.679	16.922	808.471	612.673
357.694	17.001	807.807	612.400
358.708	16.953	807.361	611.835
359.723	16.965	806.654	611.289
360.738	16.894	806.310	610.717
361.752	16.924	805.616	610.245
362.767	17.130	805.455	610.811
363.781	17.098	805.079	610.355
364.796	17.165	804.638	610.208
365.810	17.149	804.039	609.645
366.825	17.164	803.919	609.552
367.840	17.366	803.325	609.774
368.854	17.337	803.098	609.442
369.869	17.240	802.646	608.699
370.883	17.244	802.006	608.174
371.898	17.395	800.915	607.830
372.913	17.466	800.545	607.751
373.927	17.399	799.928	606.990
374.942	17.376	799.283	606.362
375.956	17.321	799.164	606.023
376.971	17.439	798.490	605.881
377.986	17.512	797.528	605.355
379.000	17.666	797.447	605.789
380.015	17.657	796.839	605.239
381.029	17.445	796.372	604.080
382.044	17.716	795.926	604.650
383.059	17.596	795.554	603.887
384.073	17.635	794.528	603.194
385.088	17.509	794.380	602.582
386.102	17.525	793.577	601.975
387.117	17.492	793.219	601.534
388.132	17.428	792.689	600.854
389.146	17.448	792.552	600.766
390.161	17.493	791.931	600.400
391.175	17.434	791.533	599.839
392.190	17.715	791.304	600.603
393.205	17.585	790.897	599.781
394.219	17.446	790.791	599.160
395.234	17.520	789.767	598.590
396.248	17.582	789.342	598.432
397.263	17.373	789.226	597.558
398.278	17.478	788.145	597.055
399.292	17.524	787.563	596.722
400.307	17.426	787.614	596.364
401.321	17.581	787.112	596.474
402.336	17.515	787.158	596.227
403.350	17.657	786.389	596.087
404.365	17.473	786.114	595.184
405.380	17.641	785.245	595.057
406.394	17.870	784.736	595.421
407.409	17.859	784.841	595.408
408.423	17.725	784.498	594.628
409.438	17.844	783.706	594.388
410.453	18.051	783.227	594.696
411.467	17.897	783.298	594.159
412.482	18.087	782.548	594.199
413.496	17.996	782.060	593.458
414.511	18.097	781.506	593.338
415.526	18.150	781.250	593.275
416.540	17.984	781.103	592.534
417.555	17.867	780.696	591.768
418.569	18.002	780.001	591.654
419.584	18.046	779.700	591.527
420.599	18.029	779.097	590.958
421.613	155.757	1368.949	1794.628
422.628	134.362	1454.904	1794.753
