DTS Sentinel unit serial number:	SN413079Multiplexer serial number:	ORYXHardware model number:	OX4-SRSoftware version number:	ORYX F/W v4.00 Oryx Data Collector v3.7.2.0data status	okinstallation	princeton_trtdifferential loss correction	single-endedforward channel	channel 3reverse channel	N/Adate	2019/09/12time	23:40:35forward acquisition time	60.00reverse acquisition time	0.00gamma	496.2192k internal	0.2329k external	0.2329temperature offset calibration	1.0131default loss term (dB/km)	0.3790temperature slope calibration	1.0000multiplexer offset coefficient	1.0000multiplexer slope coefficient	1.0000fibre end	0.00T internal ref (°C)	28.87T ext. ref 1 (°C)	3.77T ext. ref 2 (°C)	23.53length (m)	temperature (°C)	Stokes	anti-Stokes-747.200	78.898	-0.047	-0.051
-746.185	-57.498	0.242	0.107
-745.171	92.704	-0.135	0.153
-744.156	-100.484	0.280	-0.070
-743.142	-200.000	0.052	-0.386
-742.127	-200.000	0.072	0.484
-741.112	58.110	0.102	0.100
-740.098	234.596	0.226	0.376
-739.083	-105.196	0.096	-0.022
-738.069	-168.721	-0.328	-0.012
-737.054	45.976	-0.191	0.178
-736.039	181.562	-0.251	0.372
-735.025	-200.000	-0.022	-0.183
-734.010	-200.000	-0.002	-0.186
-732.996	216.285	-0.093	-0.149
-731.981	-43.484	-0.438	0.223
-730.966	800.000	0.061	0.177
-729.952	-8.923	0.104	-0.070
-728.937	-200.000	0.031	-0.444
-727.923	771.012	-0.109	-0.300
-726.908	-200.000	-0.081	-0.446
-725.894	394.587	0.182	-0.381
-724.879	-32.220	0.141	-0.079
-723.864	33.410	0.042	0.036
-722.850	147.806	-0.101	-0.137
-721.835	-65.785	-0.355	-0.143
-720.821	-72.947	0.207	0.076
-719.806	300.705	0.007	0.012
-718.791	163.528	0.134	0.189
-717.777	-27.958	-0.249	-0.145
-716.762	6.302	-0.111	-0.083
-715.748	198.951	-0.087	-0.134
-714.733	-179.466	0.029	0.001
-713.718	-56.399	0.288	-0.129
-712.704	466.580	0.107	-0.241
-711.689	154.590	0.044	-0.061
-710.675	370.657	-0.102	-0.208
-709.660	153.551	0.154	-0.212
-708.645	800.000	0.038	-0.146
-707.631	104.942	-0.277	-0.329
-706.616	-29.156	-0.079	-0.045
-705.602	-200.000	-0.004	-0.253
-704.587	323.516	-0.021	-0.041
-703.572	33.622	-0.059	-0.051
-702.558	800.000	-0.026	-0.090
-701.543	88.836	-0.215	-0.240
-700.529	-31.993	0.271	0.153
-699.514	-200.000	0.016	0.105
-698.499	-200.000	-0.025	0.125
-697.485	-100.164	-0.179	-0.045
-696.470	327.279	0.182	-0.351
-695.456	361.610	0.157	-0.316
-694.441	328.817	0.071	0.137
-693.426	-200.000	0.035	-0.273
-692.412	-6.235	0.093	-0.064
-691.397	499.287	-0.031	-0.073
-690.383	-22.633	-0.208	-0.126
-689.368	554.371	-0.067	-0.161
-688.354	-56.229	0.027	-0.012
-687.339	-79.426	-0.346	-0.118
-686.324	-94.795	0.346	-0.094
-685.310	-200.000	0.001	-0.031
-684.295	-200.000	0.029	0.237
-683.281	-200.000	0.013	-0.183
-682.266	116.887	-0.078	-0.096
-681.251	13.228	0.296	-0.230
-680.237	30.081	0.104	0.089
-679.222	800.000	0.103	-0.404
-678.208	-104.673	0.064	-0.015
-677.193	29.368	0.203	0.174
-676.178	181.533	0.138	0.204
-675.164	-5.006	0.185	0.128
-674.149	-200.000	0.013	0.195
-673.135	178.070	-0.179	-0.262
-672.120	800.000	-0.060	0.211
-671.105	-4.125	0.112	0.078
-670.091	43.524	-0.252	0.231
-669.076	-124.105	-0.210	0.033
-668.062	-200.000	0.017	0.116
-667.047	-62.068	-0.110	0.046
-666.032	-111.006	-0.270	0.056
-665.018	-56.699	-0.398	-0.177
-664.003	-200.000	-0.017	-0.141
-662.989	800.000	0.088	0.283
-661.974	536.846	-0.083	0.199
-660.959	-200.000	-0.008	0.205
-659.945	570.777	0.045	0.110
-658.930	583.850	0.088	0.217
-657.916	-200.000	0.036	-0.159
-656.901	-6.402	-0.156	-0.107
-655.886	-7.917	0.240	0.163
-654.872	-107.889	0.162	0.035
-653.857	-200.000	-0.004	0.022
-652.843	-48.855	-0.022	0.010
-651.828	530.144	-0.066	-0.157
-650.814	-18.982	-0.275	-0.171
-649.799	800.000	-0.045	0.149
-648.784	-158.960	-0.289	-0.016
-647.770	31.864	0.124	-0.107
-646.755	-44.527	-0.492	-0.247
-645.741	-91.687	-0.081	0.023
-644.726	190.891	-0.108	0.163
-643.711	453.030	0.248	-0.550
-642.697	490.326	0.026	0.060
-641.682	247.036	-0.280	-0.475
-640.668	-51.151	-0.084	-0.039
-639.653	-175.627	-0.386	-0.010
-638.638	-57.498	-0.244	0.107
-637.624	-200.000	-0.008	-0.253
-636.609	-200.000	-0.064	0.339
-635.595	-69.230	-0.462	-0.178
-634.580	-38.759	0.146	-0.077
-633.565	800.000	0.070	-0.209
-632.551	-123.077	-0.191	0.031
-631.536	32.468	-0.140	-0.121
-630.522	-112.510	-0.207	-0.041
-629.507	-106.436	0.084	-0.019
-628.492	132.406	0.028	-0.037
-627.478	115.766	0.018	-0.022
-626.463	-67.382	-0.310	0.122
-625.449	38.548	0.113	-0.101
-624.434	-200.000	-0.025	0.117
-623.419	157.110	0.367	0.509
-622.405	-13.114	-0.216	-0.141
-621.390	194.886	-0.188	-0.287
-620.376	127.941	-0.147	-0.188
-619.361	653.690	0.066	0.170
-618.346	-188.411	0.092	0.001
-617.332	800.000	-0.113	-0.352
-616.317	10.591	0.102	-0.078
-615.303	-38.888	-0.366	0.193
-614.288	442.233	0.088	-0.194
-613.273	52.926	0.053	-0.051
-612.259	3.680	0.004	0.003
-611.244	-119.835	-0.190	0.033
-610.230	-4.000	0.057	-0.040
-609.215	6.213	0.070	0.052
-608.201	5.874	0.223	0.165
-607.186	8.210	0.199	0.150
-606.171	111.162	-0.042	-0.051
-605.157	152.157	0.230	-0.315
-604.142	-11.539	0.249	0.164
-603.128	28.300	0.319	-0.270
-602.113	-97.037	-0.193	-0.051
-601.098	-53.126	-0.108	0.050
-600.084	202.385	0.126	-0.195
-599.069	180.401	-0.310	0.456
-598.055	-77.698	-0.270	0.094
-597.040	-106.094	0.265	-0.060
-596.025	-200.000	0.042	-0.243
-595.011	15.056	0.254	0.199
-593.996	466.685	0.070	0.156
-592.982	800.000	0.053	-0.167
-591.967	800.000	0.080	-0.289
-590.952	-200.000	-0.028	0.249
-589.938	-131.692	0.405	0.053
-588.923	38.524	0.214	-0.191
-587.909	-78.302	-0.194	-0.067
-586.894	91.830	-0.206	-0.232
-585.879	82.384	0.076	-0.082
-584.865	-113.816	-0.211	0.041
-583.850	82.215	0.168	-0.183
-582.836	-148.578	-0.413	-0.034
-581.821	800.000	-0.031	-0.095
-580.806	-135.160	0.272	0.033
-579.792	-4.064	0.210	0.146
-578.777	53.435	0.187	-0.180
-577.763	-50.515	0.206	-0.097
-576.748	-11.326	0.298	0.196
-575.733	90.784	0.084	0.094
-574.719	-45.386	-0.069	-0.034
-573.704	3.485	0.124	-0.091
-572.690	-200.000	0.006	0.066
-571.675	-125.137	0.205	0.031
-570.661	-200.000	0.206	-0.001
-569.646	27.668	-0.181	-0.153
-568.631	800.000	0.129	-0.372
-567.617	-79.864	-0.226	0.076
-566.602	46.403	0.349	-0.324
-565.588	-85.274	-0.216	-0.068
-564.573	-50.694	0.209	0.099
-563.558	143.452	-0.085	-0.113
-562.544	566.118	0.050	0.120
-561.529	514.418	0.120	0.279
-560.515	-200.000	0.003	-0.051
-559.500	-59.753	0.098	0.042
-558.485	800.000	-0.072	-0.248
-557.471	770.049	0.074	-0.203
-556.456	-200.000	0.007	0.319
-555.442	-180.331	0.257	-0.005
-554.427	-28.785	-0.166	0.095
-553.412	0.631	0.199	-0.142
-552.398	-200.000	-0.006	-0.234
-551.383	-131.732	-0.384	-0.050
-550.369	800.000	-0.183	-0.506
-549.354	-25.438	-0.111	-0.066
-548.339	96.665	-0.169	-0.193
-547.325	79.941	-0.245	-0.264
-546.310	-99.943	0.285	-0.071
-545.296	-165.046	0.206	0.009
-544.281	-97.860	0.153	0.040
-543.266	-151.810	-0.255	-0.019
-542.252	-99.131	-0.175	-0.044
-541.237	167.273	0.209	0.296
-540.223	-200.000	-0.001	0.088
-539.208	-118.945	-0.116	0.020
-538.193	643.369	0.016	-0.041
-537.179	-200.000	-0.038	-0.472
-536.164	-138.690	0.359	-0.039
-535.150	28.138	0.356	-0.300
-534.135	174.492	0.113	-0.163
-533.121	-43.514	0.224	-0.113
-532.106	800.000	0.026	-0.109
-531.091	-62.985	0.191	-0.079
-530.077	-182.516	-0.409	-0.008
-529.062	800.000	-0.064	0.273
-528.048	-200.000	0.038	-0.237
-527.033	-9.846	0.184	0.122
-526.018	-59.894	-0.007	0.003
-525.004	-52.504	0.176	-0.081
-523.989	-200.000	0.037	-0.170
-522.975	92.387	0.118	-0.133
-521.960	-105.055	0.159	0.036
-520.945	399.611	0.205	0.430
-519.931	-62.117	-0.358	-0.149
-518.916	49.475	0.266	-0.250
-517.902	379.827	0.213	0.436
-516.887	-8.941	-0.229	0.153
-515.872	-36.497	0.207	0.111
-514.858	774.441	0.158	-0.431
-513.843	7.104	-0.215	0.160
-512.829	769.194	-0.056	-0.152
-511.814	10.397	-0.217	0.165
-510.799	-105.690	-0.362	0.082
-509.785	-110.238	0.229	-0.048
-508.770	-14.117	-0.211	0.136
-507.756	208.265	-0.194	0.303
-506.741	-70.758	0.104	-0.039
-505.726	295.869	-0.027	-0.050
-504.712	-10.518	0.109	-0.072
-503.697	-83.657	0.127	-0.041
-502.683	-54.629	-0.178	-0.080
-501.668	155.607	0.203	0.279
-500.653	356.456	-0.097	-0.193
-499.639	800.000	0.088	-0.243
-498.624	364.560	-0.134	-0.270
-497.610	486.641	0.012	-0.028
-496.595	207.867	0.107	-0.167
-495.581	-31.804	0.178	0.099
-494.566	46.417	0.321	-0.297
-493.551	-200.000	0.032	-0.174
-492.537	393.082	-0.098	0.203
-491.522	-162.711	-0.398	0.019
-490.508	86.511	-0.105	0.116
-489.493	-153.868	0.077	0.005
-488.478	-200.000	0.018	0.162
-487.464	240.246	-0.039	-0.066
-486.449	59.961	-0.244	0.240
-485.435	-142.322	0.105	-0.010
-484.420	-200.000	-0.035	-0.472
-483.405	173.807	-0.184	0.265
-482.391	362.548	-0.146	0.292
-481.376	-114.398	0.120	-0.023
-480.362	-43.955	0.028	0.014
-479.347	-153.603	0.184	0.013
-478.332	800.000	-0.087	0.262
-477.318	800.000	0.015	0.060
-476.303	490.056	0.139	-0.317
-475.289	118.468	-0.096	0.118
-474.274	430.858	-0.106	-0.229
-473.259	572.426	0.038	0.091
-472.245	17.625	-0.021	0.017
-471.230	-77.046	-0.360	-0.125
-470.216	-72.864	-0.295	-0.108
-469.201	89.890	0.095	-0.105
-468.186	-3.394	0.136	-0.094
-467.172	85.240	-0.106	0.116
-466.157	-164.374	0.105	-0.005
-465.143	-200.000	-0.060	0.298
-464.128	516.563	0.097	0.225
-463.113	-107.823	0.369	0.080
-462.099	180.445	0.130	0.190
-461.084	302.229	-0.192	0.353
-460.070	61.329	0.103	-0.102
-459.055	-131.817	0.161	-0.021
-458.040	40.245	0.102	0.091
-457.026	-106.852	-0.242	0.053
-456.011	-200.000	0.020	0.234
-454.997	-86.867	-0.045	0.014
-453.982	-200.000	-0.020	-0.372
-452.968	-137.203	-0.449	-0.051
-451.953	-100.212	-0.496	0.123
-450.938	281.031	0.048	0.085
-449.924	89.741	0.138	0.153
-448.909	-200.000	-0.041	0.189
-447.895	-67.278	0.151	-0.059
-446.880	210.124	-0.043	0.068
-445.865	-59.914	-0.145	-0.062
-444.851	89.647	0.197	0.219
-443.836	14.102	-0.254	0.197
-442.822	-200.000	0.039	0.303
-441.807	-102.188	-0.116	0.028
-440.792	-200.000	0.052	0.271
-439.778	59.708	0.284	-0.279
-438.763	71.753	0.375	0.388
-437.749	129.622	-0.095	0.120
-436.734	-200.000	0.006	-0.434
-435.719	-200.000	0.041	0.258
-434.705	62.604	0.194	-0.193
-433.690	477.477	0.154	0.346
-432.676	-22.327	0.059	-0.036
-431.661	-143.141	0.123	-0.012
-430.646	800.000	0.064	-0.213
-429.632	42.699	0.140	0.126
-428.617	-73.791	0.289	-0.105
-427.603	-88.134	-0.074	0.022
-426.588	-33.909	-0.283	-0.155
-425.573	-22.145	0.290	-0.175
-424.559	-200.000	-0.022	-0.339
-423.544	-46.617	-0.069	-0.034
-422.530	-40.846	0.275	0.142
-421.515	-113.082	0.108	0.021
-420.500	454.530	-0.066	-0.145
-419.486	3.619	0.136	-0.098
-418.471	-69.809	-0.280	-0.106
-417.457	89.237	0.135	0.150
-416.442	-6.709	-0.275	-0.186
-415.428	219.021	0.171	-0.271
-414.413	-53.402	0.247	-0.113
-413.398	-33.531	0.260	0.143
-412.384	-87.774	-0.177	0.053
-411.369	284.270	-0.219	0.391
-410.355	-84.020	-0.393	0.124
-409.340	-52.772	0.126	-0.058
-408.325	-82.117	-0.054	-0.017
-407.311	-49.538	0.249	0.118
-406.296	-132.302	-0.335	0.043
-405.282	800.000	-0.086	-0.252
-404.267	153.295	0.056	0.076
-403.252	9.552	-0.188	0.142
-402.238	-200.000	0.022	0.202
-401.223	17.158	0.206	-0.162
-400.209	-129.773	0.319	0.044
-399.194	-200.000	-0.004	-0.081
-398.179	494.744	-0.211	-0.483
-397.165	190.600	-0.041	0.061
-396.150	394.632	-0.098	-0.204
-395.136	257.387	-0.098	0.168
-394.121	222.394	-0.048	0.077
-393.106	481.473	-0.106	-0.240
-392.092	800.000	-0.097	0.398
-391.077	273.561	-0.223	0.391
-390.063	-120.384	0.220	0.037
-389.048	-137.324	-0.170	-0.019
-388.033	85.719	0.173	-0.188
-387.019	-97.054	-0.248	-0.064
-386.004	-200.000	-0.021	0.129
-384.990	555.456	-0.126	-0.302
-383.975	800.000	-0.132	-0.375
-382.960	-84.925	-0.059	0.018
-381.946	-51.951	0.136	-0.063
-380.931	-26.848	-0.067	0.039
-379.917	-200.000	0.053	0.267
-378.902	800.000	-0.008	-0.030
-377.888	31.126	-0.261	-0.223
-376.873	150.946	-0.151	0.204
-375.858	-87.766	-0.187	-0.056
-374.844	289.424	0.128	0.230
-373.829	-200.000	-0.051	0.241
-372.815	526.420	-0.042	-0.097
-371.800	60.241	0.041	0.041
-370.785	618.110	-0.101	-0.252
-369.771	-35.854	0.206	-0.111
-368.756	800.000	-0.015	0.067
-367.742	-114.641	-0.227	0.043
-366.727	301.681	-0.032	0.058
-365.712	800.000	0.052	0.163
-364.698	218.748	-0.187	0.297
-363.683	273.149	-0.216	-0.379
-362.669	-28.406	-0.114	0.065
-361.654	70.681	-0.031	0.032
-360.639	46.855	0.140	0.129
-359.625	800.000	-0.103	0.323
-358.610	-200.000	0.023	0.487
-357.596	-107.946	0.294	0.063
-356.581	-14.572	0.136	0.087
-355.566	-121.919	-0.224	0.037
-354.552	800.000	-0.014	0.054
-353.537	266.937	-0.075	0.131
-352.523	-122.146	0.294	-0.048
-351.508	-200.000	-0.038	0.260
-350.493	475.024	-0.070	0.156
-349.479	-37.846	0.189	0.100
-348.464	-136.663	0.321	-0.037
-347.450	-90.347	-0.089	-0.026
-346.435	63.305	0.061	0.060
-345.420	-145.213	0.253	0.023
-344.406	151.351	-0.129	0.175
-343.391	622.038	0.043	0.106
-342.377	-116.484	-0.117	0.021
-341.362	-47.055	-0.069	0.034
-340.348	267.226	0.196	0.340
-339.333	-66.357	-0.121	-0.048
-338.318	63.427	0.175	0.175
-337.304	800.000	-0.055	0.208
-336.289	59.743	-0.185	-0.181
-335.275	-200.000	-0.038	0.270
-334.260	8.105	-0.102	0.076
-333.245	-64.325	-0.133	-0.053
-332.231	800.000	0.032	0.117
-331.216	-13.844	0.252	0.162
-330.202	-60.613	0.081	-0.034
-329.187	-200.000	-0.033	0.208
-328.172	183.221	0.171	0.250
-327.158	647.041	-0.093	-0.235
-326.143	557.629	0.101	0.241
-325.129	800.000	-0.037	0.127
-324.114	-200.000	-0.007	-0.211
-323.099	-200.000	-0.054	0.354
-322.085	308.777	0.019	-0.035
-321.070	42.418	0.165	-0.148
-320.056	0.987	-0.118	-0.084
-319.041	119.912	-0.212	0.261
-318.026	800.000	-0.136	0.419
-317.012	-68.582	-0.113	0.043
-315.997	159.752	-0.111	0.153
-314.983	-54.714	0.120	0.054
-313.968	-28.201	0.409	-0.234
-312.953	-88.078	-0.186	-0.055
-311.939	-200.000	0.006	-0.099
-310.924	-110.007	0.177	0.037
-309.910	570.877	0.025	-0.059
-308.895	87.466	-0.041	0.045
-307.880	-122.087	0.151	0.025
-306.866	-200.000	-0.027	0.174
-305.851	800.000	0.052	0.145
-304.837	131.181	0.175	0.222
-303.822	68.993	0.235	0.240
-302.807	-119.564	-0.198	0.034
-301.793	-200.000	0.023	-0.210
-300.778	-116.794	0.205	0.037
-299.764	357.034	0.199	-0.392
-298.749	-7.936	-0.340	0.227
-297.735	-95.098	-0.077	-0.021
-296.720	800.000	-0.039	-0.148
-295.705	-63.448	-0.150	-0.061
-294.691	300.841	0.093	-0.169
-293.676	-79.638	0.210	0.070
-292.662	800.000	0.017	-0.065
-291.647	297.307	-0.130	-0.236
-290.632	416.586	0.130	-0.274
-289.618	-115.582	-0.206	0.038
-288.603	-125.107	0.306	-0.047
-287.589	-123.511	-0.249	-0.039
-286.574	-200.000	0.055	0.245
-285.559	169.686	-0.112	0.159
-284.545	158.315	-0.251	0.345
-283.530	12.051	0.181	0.138
-282.516	800.000	0.013	0.045
-281.501	0.538	-0.075	0.053
-280.486	-200.000	-0.008	-0.105
-279.472	94.543	0.266	0.299
-278.457	81.425	0.083	0.089
-277.443	800.000	-0.067	-0.199
-276.428	-200.000	-0.008	0.139
-275.413	197.886	-0.094	0.142
-274.399	-200.000	-0.037	-0.274
-273.384	-9.949	0.144	0.094
-272.370	-115.418	-0.225	0.042
-271.355	53.890	-0.219	0.208
-270.340	-200.000	0.003	0.186
-269.326	133.540	-0.278	0.355
-268.311	-200.000	-0.011	-0.296
-267.297	69.504	0.169	0.172
-266.282	-10.434	0.226	-0.148
-265.267	275.480	0.132	-0.231
-264.253	-63.594	0.258	-0.105
-263.238	-200.000	-0.015	-0.242
-262.224	557.785	-0.074	-0.177
-261.209	-79.165	-0.062	-0.021
-260.195	136.455	-0.086	-0.111
-259.180	800.000	-0.179	-0.489
-258.165	-31.810	0.072	-0.040
-257.151	-126.006	0.116	0.017
-256.136	-200.000	0.005	-0.041
-255.122	-149.758	0.146	-0.011
-254.107	15.218	-0.016	-0.012
-253.092	539.482	-0.043	-0.101
-252.078	800.000	-0.086	0.271
-251.063	-200.000	0.055	-0.241
-250.049	-200.000	-0.025	0.237
-249.034	-200.000	0.009	-0.141
-248.019	-190.135	0.235	0.003
-247.005	800.000	-0.078	0.308
-245.990	106.853	-0.166	0.195
-244.976	-168.280	-0.112	0.004
-243.961	103.177	0.064	0.074
-242.946	62.460	0.099	-0.097
-241.932	800.000	-0.046	-0.198
-240.917	-32.515	0.143	-0.079
-239.903	800.000	-0.027	-0.089
-238.888	95.472	-0.280	0.316
-237.873	-27.144	0.229	0.132
-236.859	-136.386	-0.055	0.006
-235.844	114.477	-0.091	-0.109
-234.830	-200.000	-0.057	-0.267
-233.815	-200.000	0.041	-0.323
-232.800	10.552	0.213	0.160
-231.786	593.040	-0.060	-0.148
-230.771	42.779	0.285	-0.256
-229.757	259.180	-0.068	0.117
-228.742	-13.189	-0.513	-0.329
-227.727	225.898	0.109	0.174
-226.713	205.700	-0.110	0.169
-225.698	301.470	0.040	-0.072
-224.684	800.000	0.093	-0.311
-223.669	-111.329	0.167	0.034
-222.655	143.525	-0.125	-0.164
-221.640	19.532	-0.239	-0.190
-220.625	-52.879	-0.239	-0.109
-219.611	5.550	-0.140	0.102
-218.596	125.561	0.018	0.022
-217.582	212.004	-0.206	0.320
-216.567	-113.218	0.198	0.039
-215.552	-60.293	0.178	-0.075
-214.538	111.165	-0.111	-0.132
-213.523	-200.000	-0.028	-0.234
-212.509	800.000	0.020	0.074
-211.494	-78.004	-0.173	0.059
-210.479	23.950	0.119	0.097
-209.465	-169.937	0.237	0.008
-208.450	-200.000	0.026	-0.448
-207.436	-200.000	-0.004	-0.291
-206.421	-161.270	-0.337	-0.017
-205.406	-157.871	0.423	0.025
-204.392	-71.558	-0.097	-0.036
-203.377	-55.165	-0.266	0.118
-202.363	-131.063	-0.117	0.015
-201.348	800.000	-0.024	0.088
-200.333	800.000	0.063	0.175
-199.319	-10.727	0.108	0.071
-198.304	250.341	-0.097	-0.163
-197.290	314.610	0.118	-0.219
-196.275	-200.000	0.016	0.272
-195.260	-200.000	-0.001	-0.328
-194.246	111.689	0.210	-0.250
-193.231	-200.000	0.002	0.019
-192.217	800.000	0.074	0.284
-191.202	47.598	-0.280	-0.258
-190.187	-176.904	0.147	0.004
-189.173	-18.143	-0.289	0.179
-188.158	-87.838	0.077	0.023
-187.144	-200.000	-0.020	0.187
-186.129	-29.931	0.278	-0.156
-185.114	-181.522	0.329	-0.006
-184.100	800.000	-0.048	0.187
-183.085	132.221	0.185	0.235
-182.071	-200.000	0.022	0.159
-181.056	-12.872	-0.254	0.163
-180.042	12.527	0.261	-0.199
-179.027	800.000	-0.056	0.229
-178.012	147.119	0.169	0.224
-176.998	-200.000	0.004	0.310
-175.983	-200.000	-0.020	0.332
-174.969	296.079	0.121	0.218
-173.954	-200.000	0.021	0.380
-172.939	800.000	-0.059	-0.199
-171.925	-114.981	-0.253	-0.047
-170.910	800.000	0.030	-0.088
-169.896	-77.517	-0.431	0.147
-168.881	-66.496	0.143	0.056
-167.866	800.000	0.086	0.287
-166.852	469.165	0.016	-0.036
-165.837	-200.000	-0.054	-0.241
-164.823	-200.000	-0.026	0.327
-163.808	140.542	0.112	-0.145
-162.793	-190.820	-0.062	0.001
-161.779	117.401	0.190	-0.230
-160.764	-161.472	-0.277	-0.014
-159.750	88.209	-0.047	-0.051
-158.735	90.299	0.342	-0.377
-157.720	-80.059	-0.363	0.120
-156.706	-28.813	0.155	-0.088
-155.691	126.642	0.109	-0.136
-154.677	-200.000	-0.033	-0.247
-153.662	-65.059	0.082	0.033
-152.647	620.525	-0.067	-0.165
-151.633	104.819	-0.138	-0.160
-150.618	-200.000	-0.051	-0.304
-149.604	-200.000	0.034	0.364
-148.589	114.062	-0.089	0.107
-147.574	647.912	-0.043	-0.109
-146.560	72.749	-0.205	0.211
-145.545	66.024	0.120	0.120
-144.531	800.000	-0.132	0.428
-143.516	-73.787	-0.096	-0.034
-142.502	599.501	0.081	0.199
-141.487	-200.000	0.012	0.169
-140.472	-30.804	0.149	0.083
-139.458	-81.252	-0.137	0.044
-138.443	-67.853	-0.149	-0.057
-137.429	-200.000	0.027	0.141
-136.414	104.364	0.231	0.267
-135.399	322.141	0.083	-0.155
-134.385	18.031	-0.008	-0.006
-133.370	674.581	-0.115	-0.293
-132.356	136.007	-0.185	-0.238
-131.341	-200.000	-0.039	0.246
-130.326	-0.296	-0.195	0.137
-129.312	-119.006	-0.286	-0.049
-128.297	-141.256	-0.254	0.025
-127.283	-71.864	0.319	0.117
-126.268	-62.256	-0.396	-0.162
-125.253	274.157	0.034	0.060
-124.239	174.579	0.106	-0.150
-123.224	25.224	0.152	0.124
-122.210	-200.000	0.073	0.337
-121.195	-81.983	-0.176	0.057
-120.180	68.248	-0.169	-0.170
-119.166	-62.061	0.324	0.133
-118.151	-93.572	-0.220	-0.060
-117.137	373.825	0.070	-0.139
-116.122	-161.867	0.073	-0.004
-115.107	438.852	0.061	-0.132
-114.093	-200.000	-0.027	-0.121
-113.078	-200.000	-0.015	-0.157
-112.064	-142.690	0.222	-0.021
-111.049	-200.000	-0.047	0.220
-110.034	-7.003	0.153	-0.102
-109.020	219.468	0.101	-0.158
-108.005	187.890	-0.080	-0.117
-106.991	-135.509	-0.391	0.046
-105.976	16.702	0.119	0.093
-104.962	-200.000	-0.012	-0.080
-103.947	-45.560	-0.145	-0.071
-102.932	-200.000	0.001	0.163
-101.918	-134.953	0.429	-0.051
-100.903	-62.440	0.153	0.062
-99.889	800.000	-0.078	0.213
-98.874	-89.528	0.344	-0.099
-97.859	-27.346	-0.318	-0.182
-96.845	125.447	-0.168	-0.208
-95.830	145.376	0.069	-0.091
-94.816	-67.667	-0.384	-0.148
-93.801	800.000	0.077	-0.257
-92.786	-62.221	0.248	-0.101
-91.772	-128.504	-0.422	-0.059
-90.757	99.675	0.045	-0.051
-89.743	-61.450	-0.126	0.052
-88.728	-4.730	-0.162	0.110
-87.713	-151.571	0.093	-0.007
-86.699	800.000	0.100	0.276
-85.684	-117.957	0.186	0.033
-84.670	660.156	-0.049	0.125
-83.655	-200.000	-0.014	0.283
-82.640	-45.015	-0.212	0.104
-81.626	120.312	0.158	0.193
-80.611	-27.311	0.153	0.087
-79.597	-2.087	-0.140	0.097
-78.582	-200.000	0.018	-0.154
-77.567	20.242	-0.212	-0.168
-76.553	194.876	0.026	-0.038
-75.538	-200.000	0.004	-0.071
-74.524	95.442	-0.197	-0.221
-73.509	33.467	-0.037	0.032
-72.494	29.092	-0.153	-0.127
-71.480	120.690	-0.121	-0.147
-70.465	-11.740	-0.128	-0.083
-69.451	-82.192	0.107	0.034
-68.436	-200.000	-0.029	0.297
-67.422	-186.977	-0.102	0.001
-66.407	77.583	0.186	0.194
-65.392	-83.970	-0.136	-0.043
-64.378	35.378	0.019	0.017
-63.363	-200.000	0.009	-0.150
-62.349	-200.000	0.020	0.089
-61.334	96.502	-0.950	-1.066
-60.319	33.435	0.855	0.728
-59.305	229.305	-0.711	-1.138
-58.290	342.068	0.580	1.113
-57.276	682.028	0.724	1.850
-56.261	-200.000	111.346	612.371
-55.246	504.765	1516.371	3443.074
-54.232	177.219	2691.318	3842.467
-53.217	108.082	2172.958	2540.397
-52.203	38.967	1703.168	1492.496
-51.188	32.001	1521.055	1285.351
-50.173	29.711	1496.034	1248.710
-49.159	50.882	1553.626	1443.243
-48.144	50.618	1570.161	1456.725
-47.130	32.210	1525.230	1290.105
-46.115	29.159	1510.214	1256.579
-45.100	28.922	1506.829	1252.096
-44.086	28.914	1504.969	1250.450
-43.071	28.865	1502.614	1248.110
-42.057	28.728	1501.065	1245.843
-41.042	28.789	1500.010	1245.334
-40.027	28.897	1498.330	1244.618
-39.013	28.845	1496.667	1242.837
-37.998	28.727	1495.608	1241.112
-36.984	28.825	1494.172	1240.533
-35.969	28.765	1493.417	1239.449
-34.954	28.790	1492.046	1238.433
-33.940	28.855	1490.286	1237.359
-32.925	28.861	1489.069	1236.343
-31.911	28.963	1487.587	1235.749
-30.896	28.932	1486.457	1234.551
-29.881	28.972	1485.153	1233.687
-28.867	29.052	1483.309	1232.640
-27.852	28.925	1482.665	1231.207
-26.838	28.893	1481.532	1230.006
-25.823	28.996	1479.469	1228.929
-24.809	28.968	1477.727	1227.250
-23.794	28.918	1476.916	1226.192
-22.779	28.892	1475.539	1224.828
-21.765	28.933	1474.859	1224.487
-20.750	28.831	1474.059	1223.094
-19.736	28.955	1472.585	1222.649
-18.721	28.961	1470.990	1221.318
-17.706	28.853	1470.571	1220.204
-16.692	28.945	1468.911	1219.389
-15.677	28.935	1467.500	1218.100
-14.663	28.796	1467.198	1216.883
-13.648	28.848	1466.119	1216.283
-12.633	28.855	1465.173	1215.497
-11.619	28.827	1464.249	1214.492
-10.604	28.860	1463.270	1213.853
-9.590	28.844	1462.210	1212.821
-8.575	28.915	1461.447	1212.609
-7.560	28.858	1460.825	1211.664
-6.546	28.807	1459.715	1210.362
-5.531	28.787	1458.878	1209.486
-4.517	28.797	1458.435	1209.136
-3.502	28.861	1456.874	1208.215
-2.487	28.854	1455.813	1207.243
-1.473	28.719	1455.187	1205.792
-0.458	28.801	1453.635	1204.993
0.556	30.432	1444.026	1193.870
1.571	27.224	1418.905	1152.696
2.586	23.738	1359.757	1083.329
3.600	21.924	1278.187	1007.843
4.615	20.436	1231.899	963.018
5.629	18.046	1175.167	905.928
6.644	10.771	1091.918	805.719
7.659	4.876	1053.580	749.081
8.673	4.102	1048.308	741.562
9.688	3.751	1045.203	737.626
10.702	3.568	1043.812	735.705
11.717	3.661	1041.577	734.507
12.731	6.427	1044.420	749.627
13.746	14.279	1055.724	795.317
14.761	21.178	1064.585	835.034
15.775	23.183	1065.702	845.426
16.790	22.970	1064.024	843.004
17.804	22.156	1062.243	837.641
18.819	21.354	1061.156	832.889
19.834	21.137	1059.798	830.715
20.848	21.116	1059.574	830.369
21.863	21.195	1058.732	830.013
22.877	21.045	1058.719	829.216
23.892	20.878	1057.415	827.324
24.907	20.732	1056.714	826.013
25.921	20.709	1055.783	825.102
26.936	20.618	1054.713	823.761
27.950	20.587	1053.659	822.719
28.965	20.603	1052.710	821.981
29.980	20.874	1051.089	821.924
30.994	20.870	1050.969	821.738
32.009	21.027	1049.813	821.500
33.023	21.137	1049.174	821.446
34.038	21.041	1048.274	820.215
35.053	20.904	1047.698	819.049
36.067	20.827	1046.623	817.772
37.082	20.638	1045.697	816.089
38.096	20.736	1044.741	815.734
39.111	20.905	1043.826	815.735
40.126	21.035	1042.970	815.606
41.140	20.725	1042.191	813.475
42.155	20.523	1040.710	811.301
43.169	20.169	1039.516	808.651
44.184	20.206	1038.150	807.686
45.199	20.106	1037.343	806.524
46.213	20.124	1036.604	805.958
47.228	20.218	1035.732	805.649
48.242	20.602	1035.257	806.987
49.257	20.760	1034.807	807.302
50.271	20.768	1033.729	806.425
51.286	20.716	1033.579	805.995
52.301	20.971	1032.542	806.297
53.315	21.017	1031.446	805.581
54.330	20.826	1030.931	804.223
55.344	20.562	1030.294	802.438
56.359	20.377	1028.926	800.448
57.374	20.446	1028.125	800.073
58.388	20.296	1027.290	798.664
59.403	20.299	1026.190	797.751
60.417	20.135	1025.772	796.604
61.432	20.080	1025.502	796.067
62.447	20.129	1023.900	794.980
63.461	20.073	1023.584	794.406
64.476	19.977	1022.005	792.673
65.490	19.860	1021.467	791.647
66.505	19.933	1020.476	791.147
67.520	19.915	1019.740	790.420
68.534	20.036	1019.169	790.463
69.549	20.011	1018.315	789.616
70.563	19.981	1017.084	788.453
71.578	19.843	1016.601	787.383
72.593	19.693	1015.561	785.826
73.607	19.516	1014.524	784.149
74.622	19.364	1013.664	782.726
75.636	19.647	1012.695	783.189
76.651	19.590	1012.160	782.449
77.666	19.705	1010.975	781.984
78.680	19.734	1010.828	781.932
79.695	19.843	1010.198	781.867
80.709	19.804	1009.557	781.127
81.724	19.878	1008.514	780.586
82.739	20.250	1007.974	781.774
83.753	20.235	1007.926	781.603
84.768	20.503	1007.441	782.361
85.782	20.921	1006.903	783.753
86.797	21.295	1005.993	784.657
87.812	21.235	1005.573	783.991
88.826	21.000	1004.847	782.302
89.841	20.926	1003.681	780.991
90.855	21.212	1002.844	781.552
91.870	21.148	1002.522	780.948
92.884	21.292	1001.640	780.832
93.899	21.104	1000.890	779.342
94.914	21.053	999.995	778.349
95.928	21.133	999.505	778.256
96.943	21.237	998.651	777.985
97.957	21.022	997.404	775.987
98.972	20.892	996.677	774.776
99.987	20.887	996.115	774.248
101.001	20.942	995.950	774.296
102.016	20.924	994.704	773.176
103.030	20.911	993.777	772.331
104.045	20.926	992.879	771.631
105.060	20.961	992.045	771.070
106.074	20.929	990.567	769.712
107.089	20.728	989.953	768.279
108.103	20.323	988.587	765.365
109.118	20.171	987.692	763.937
110.133	20.083	986.385	762.468
111.147	19.922	985.309	760.864
112.162	19.867	984.246	759.734
113.176	20.002	983.630	759.783
114.191	20.079	983.127	759.664
115.206	20.133	982.643	759.460
116.220	20.252	981.800	759.263
117.235	20.137	980.797	757.915
118.249	20.088	979.861	756.912
119.264	19.956	979.380	755.899
120.279	19.887	978.250	754.658
121.293	19.831	977.320	753.629
122.308	19.712	976.705	752.571
123.322	19.576	975.720	751.153
124.337	19.430	975.152	750.014
125.352	19.507	973.549	749.049
126.366	19.531	972.231	748.075
127.381	19.574	971.202	747.401
128.395	19.660	970.481	747.151
129.410	19.598	970.082	746.512
130.424	19.659	969.072	745.932
131.439	19.812	968.459	746.053
132.454	20.118	967.856	746.841
133.468	20.022	967.024	745.722
134.483	20.033	966.630	745.397
135.497	20.102	965.832	745.011
136.512	20.087	965.039	744.269
137.527	20.242	964.039	744.100
138.541	20.164	963.331	743.150
139.556	20.129	962.868	742.578
140.570	20.250	961.906	742.287
141.585	20.505	961.352	742.885
142.600	20.767	960.958	743.634
143.614	20.816	960.325	743.290
144.629	20.847	959.771	742.927
145.643	21.056	959.236	743.337
146.658	20.969	958.024	741.961
147.673	20.643	957.095	739.792
148.687	20.500	955.781	738.104
149.702	20.478	954.442	736.910
150.716	20.196	953.662	735.047
151.731	20.194	952.712	734.242
152.746	20.289	952.174	734.163
153.760	20.362	951.336	733.763
154.775	20.278	950.700	732.852
155.789	20.514	949.687	733.001
156.804	20.521	949.318	732.680
157.819	20.731	947.900	732.405
158.833	20.579	947.941	731.732
159.848	20.757	947.611	732.160
160.862	20.951	946.765	732.257
161.877	21.049	945.629	731.726
162.892	20.375	945.028	728.368
163.906	20.139	943.197	725.907
164.921	19.973	942.213	724.392
165.935	20.184	941.069	724.330
166.950	20.209	940.334	723.802
167.964	20.328	939.532	723.619
168.979	20.318	938.995	723.100
169.994	20.202	937.448	721.359
171.008	20.171	936.634	720.541
172.023	20.288	936.211	720.637
173.037	20.611	935.971	721.729
174.052	20.920	934.836	722.072
175.067	20.651	934.619	720.725
176.081	20.390	932.966	718.307
177.096	20.131	931.292	715.886
178.110	19.965	930.686	714.670
179.125	20.017	930.639	714.788
180.140	20.112	929.611	714.326
181.154	20.090	929.346	713.968
182.169	20.357	929.105	714.818
183.183	20.597	928.610	715.363
184.198	20.768	927.694	715.297
185.213	20.807	927.239	715.044
186.227	20.578	926.770	713.677
187.242	20.698	926.093	713.586
188.256	20.863	925.265	713.560
189.271	20.938	925.074	713.656
190.286	21.085	924.242	713.552
191.300	20.918	923.283	712.068
192.315	20.258	922.042	708.352
193.329	19.855	920.926	705.790
194.344	19.887	920.551	705.572
195.359	20.057	920.076	705.835
196.373	20.295	919.741	706.487
197.388	20.395	919.419	706.585
198.402	20.709	919.202	707.631
199.417	20.804	919.271	708.007
200.432	21.174	918.641	708.963
201.446	21.430	917.861	709.335
202.461	21.378	917.948	709.130
203.475	21.508	916.978	708.847
204.490	21.329	916.341	707.565
205.504	21.037	915.015	705.296
206.519	20.723	914.057	703.227
207.534	20.714	913.542	702.733
208.548	20.714	912.565	701.919
209.563	20.670	912.093	701.317
210.577	20.680	911.736	701.021
211.592	20.735	910.944	700.573
212.607	20.991	910.858	701.475
213.621	21.168	910.670	701.978
214.636	21.186	909.700	701.241
215.650	20.918	909.068	699.616
216.665	20.939	908.504	699.205
217.680	20.993	908.151	699.086
218.694	21.206	907.668	699.507
219.709	21.502	906.788	699.950
220.723	21.218	906.341	698.408
221.738	21.096	905.768	697.417
222.753	21.090	904.425	696.298
223.767	21.083	903.815	695.737
224.782	21.092	903.085	695.150
225.796	21.282	902.297	695.238
226.811	21.395	902.093	695.469
227.826	21.298	901.316	694.423
228.840	21.189	900.067	692.969
229.855	21.070	899.527	692.020
230.869	20.937	899.147	691.138
231.884	20.941	898.313	690.452
232.899	20.738	897.830	689.214
233.913	20.776	897.004	688.669
234.928	20.687	895.791	687.328
235.942	20.494	895.375	686.183
236.957	20.612	893.985	685.526
237.972	20.458	893.833	684.740
238.986	20.491	893.372	684.457
240.001	20.431	893.019	683.887
241.015	20.476	892.015	683.234
242.030	20.479	891.652	682.910
243.045	20.805	891.175	683.764
244.059	20.862	890.706	683.566
245.074	20.821	890.087	682.872
246.088	20.839	889.555	682.475
247.103	21.214	888.766	683.276
248.117	21.358	889.083	684.020
249.132	21.492	888.331	683.906
250.147	21.859	887.942	684.982
251.161	22.123	888.231	686.172
252.176	22.346	887.181	686.170
253.190	22.217	886.862	685.359
254.205	22.397	886.235	685.516
255.220	22.411	885.360	684.835
256.234	22.397	884.662	684.178
257.249	22.048	884.189	682.397
258.263	22.169	883.563	682.324
259.278	22.177	883.127	681.958
260.293	21.902	882.639	680.453
261.307	22.144	882.177	680.974
262.322	22.258	881.649	680.947
263.336	22.291	880.978	680.499
264.351	22.308	880.418	680.071
265.366	22.291	879.843	679.501
266.380	22.296	879.075	678.868
267.395	22.385	878.662	678.832
268.409	22.113	877.932	677.158
269.424	22.026	876.471	675.637
270.439	22.107	876.008	675.531
271.453	22.190	874.817	674.871
272.468	21.820	874.565	673.200
273.482	21.697	873.895	672.150
274.497	21.684	873.758	671.935
275.512	21.704	872.821	671.233
276.526	21.758	872.101	670.827
277.541	21.844	871.315	670.493
278.555	21.777	871.134	670.037
279.570	22.033	870.623	670.564
280.585	22.319	870.348	671.382
281.599	22.282	869.556	670.572
282.614	22.041	868.795	669.008
283.628	21.958	867.673	667.769
284.643	21.697	867.683	666.722
285.657	21.732	866.932	666.222
286.672	21.888	866.198	666.191
287.687	21.959	865.304	665.712
288.701	21.936	865.476	665.700
289.716	21.954	864.726	665.131
290.730	21.853	864.401	664.441
291.745	22.078	863.704	664.698
292.760	21.966	863.068	663.726
293.774	22.032	862.777	663.693
294.789	22.234	862.435	664.132
295.803	22.448	861.680	664.302
296.818	22.189	860.439	662.308
297.833	21.954	859.868	660.928
298.847	21.914	859.186	660.192
299.862	21.905	858.482	659.559
300.876	22.064	858.025	659.746
301.891	22.148	857.484	659.588
302.906	22.323	857.359	660.090
303.920	22.453	856.828	660.111
304.935	22.603	856.370	660.262
305.949	22.789	856.040	660.647
306.964	22.652	855.452	659.622
307.979	22.629	853.731	658.148
308.993	22.406	853.761	657.282
310.008	22.252	853.910	656.762
311.022	22.542	853.011	657.096
312.037	22.442	852.246	656.074
313.052	22.339	851.686	655.203
314.066	22.133	850.180	653.222
315.081	21.944	849.496	651.934
316.095	21.698	849.195	650.733
317.110	21.853	848.562	650.765
318.125	21.840	848.033	650.255
319.139	21.830	847.337	649.625
320.154	21.737	846.993	648.961
321.168	21.659	846.633	648.336
322.183	21.906	845.860	648.603
323.197	21.909	845.472	648.257
324.212	21.938	845.024	647.963
325.227	22.018	844.333	647.672
326.241	21.961	843.916	647.084
327.256	21.930	843.217	646.379
328.270	21.926	842.754	645.949
329.285	21.783	841.962	644.760
330.300	21.793	841.500	644.388
331.314	21.692	841.085	643.640
332.329	21.894	840.089	643.564
333.343	22.169	839.737	644.245
334.358	22.387	839.297	644.648
335.373	22.295	839.288	644.248
336.387	22.357	838.669	643.943
337.402	22.478	837.961	643.782
338.416	22.580	837.830	643.999
339.431	22.669	837.312	643.867
340.446	22.857	836.831	644.127
341.460	22.919	836.628	644.139
342.475	22.982	836.141	643.937
343.489	23.123	835.748	644.092
344.504	23.148	835.156	643.670
345.519	23.236	834.606	643.509
346.533	23.453	834.359	644.049
347.548	23.177	834.005	642.719
348.562	22.932	832.513	640.620
349.577	22.629	831.820	638.935
350.592	22.484	831.181	637.862
351.606	22.311	830.745	636.844
352.621	22.203	829.994	635.823
353.635	22.229	829.798	635.710
354.650	22.426	829.030	635.777
355.665	22.416	828.863	635.555
356.679	22.520	828.359	635.489
357.694	22.506	828.266	635.311
358.708	22.730	827.443	635.430
359.723	22.737	826.515	634.685
360.738	22.619	826.457	634.160
361.752	22.687	825.563	633.662
362.767	22.673	825.073	633.181
363.781	22.972	824.920	634.081
364.796	23.146	824.983	634.696
365.810	23.314	824.741	635.057
366.825	23.419	824.576	635.250
367.840	23.401	824.285	634.904
368.854	23.467	823.661	634.605
369.869	23.306	822.659	633.202
370.883	23.098	822.058	631.941
371.898	22.973	821.670	631.139
372.913	23.213	821.009	631.431
373.927	23.296	820.390	631.197
374.942	23.189	819.692	630.222
375.956	23.141	818.947	629.421
376.971	23.255	818.775	629.639
377.986	23.470	818.147	629.863
379.000	23.643	817.834	630.183
380.015	23.826	817.078	630.194
381.029	23.576	816.487	628.795
382.044	23.515	815.954	628.114
383.059	23.449	815.782	627.691
384.073	23.453	815.182	627.190
385.088	23.476	813.979	626.288
386.102	23.141	813.221	624.467
387.117	23.175	812.407	623.909
388.132	22.921	812.178	622.783
389.146	22.944	811.499	622.285
390.161	23.055	811.018	622.254
391.175	23.328	810.747	622.950
392.190	23.473	810.893	623.518
393.205	23.414	810.549	622.991
394.219	23.119	809.754	621.288
395.234	22.836	809.051	619.699
396.248	22.910	808.328	619.350
397.263	22.843	807.840	618.687
398.278	22.982	806.993	618.473
399.292	22.621	806.822	617.023
400.307	22.682	806.441	616.888
401.321	22.568	806.085	616.165
402.336	22.669	805.360	615.907
403.350	22.698	805.300	615.910
404.365	23.156	804.742	617.024
405.380	23.268	805.071	617.614
406.394	23.587	804.813	618.472
407.409	23.610	804.197	618.025
408.423	23.664	804.159	618.130
409.438	23.854	803.433	618.179
410.453	23.769	803.452	617.842
411.467	23.928	802.609	617.690
412.482	24.002	802.023	617.444
413.496	23.982	801.588	616.982
414.511	24.088	801.601	617.306
415.526	24.028	801.332	616.835
416.540	23.786	800.623	615.397
417.555	23.860	799.910	615.053
418.569	23.923	799.240	614.699
419.584	23.960	798.911	614.521
420.599	23.897	798.628	614.030
421.613	163.168	1371.122	1796.627
422.628	141.674	1454.555	1796.720
