DTS Sentinel unit serial number:	SN413079Multiplexer serial number:	ORYXHardware model number:	OX4-SRSoftware version number:	ORYX F/W v4.00 Oryx Data Collector v3.7.2.0data status	okinstallation	princeton_trtdifferential loss correction	single-endedforward channel	channel 3reverse channel	N/Adate	2019/09/15time	09:56:35forward acquisition time	60.00reverse acquisition time	0.00gamma	496.2192k internal	0.2307k external	0.2307temperature offset calibration	0.9968default loss term (dB/km)	0.3790temperature slope calibration	1.0000multiplexer offset coefficient	1.0000multiplexer slope coefficient	1.0000fibre end	0.00T internal ref (°C)	34.06T ext. ref 1 (°C)	4.99T ext. ref 2 (°C)	29.87length (m)	temperature (°C)	Stokes	anti-Stokes-747.200	-193.721	0.107	0.001
-746.185	3.453	0.194	-0.144
-745.171	604.720	-0.068	0.173
-744.156	-54.249	-0.252	-0.116
-743.142	190.985	-0.109	-0.166
-742.127	-200.000	-0.035	0.165
-741.112	233.174	-0.089	0.150
-740.098	-17.747	-0.121	0.077
-739.083	800.000	0.068	0.203
-738.069	800.000	-0.054	0.165
-737.054	-108.044	-0.224	0.049
-736.039	230.085	-0.186	-0.310
-735.025	237.426	-0.052	0.087
-734.010	371.907	-0.082	0.170
-732.996	-113.683	-0.252	-0.050
-731.981	196.945	-0.159	-0.246
-730.966	88.692	-0.190	-0.215
-729.952	186.272	0.024	0.036
-728.937	75.626	0.119	0.128
-727.923	74.257	-0.177	0.189
-726.908	-1.100	0.137	0.099
-725.894	-200.000	-0.003	-0.026
-724.879	237.500	-0.030	-0.050
-723.864	9.081	-0.233	0.179
-722.850	-200.000	-0.017	0.249
-721.835	-77.868	-0.157	0.055
-720.821	57.645	0.092	0.091
-719.806	517.893	-0.039	0.094
-718.791	-22.132	0.064	0.040
-717.777	99.802	-0.245	0.288
-716.762	800.000	0.071	0.216
-715.748	-116.446	0.146	-0.027
-714.733	-82.845	0.190	-0.062
-713.718	48.898	0.019	-0.019
-712.704	-200.000	-0.027	-0.198
-711.689	307.162	0.189	0.357
-710.675	-76.207	-0.376	0.135
-709.660	329.598	-0.088	-0.172
-708.645	800.000	0.143	-0.452
-707.631	26.991	-0.054	0.046
-706.616	34.658	-0.180	0.159
-705.602	108.535	-0.118	0.143
-704.587	-179.295	0.186	0.004
-703.572	-103.213	-0.241	0.058
-702.558	-52.489	0.172	0.081
-701.543	-200.000	-0.017	-0.077
-700.529	222.614	0.162	0.265
-699.514	-6.434	0.128	-0.089
-698.499	197.736	0.121	-0.187
-697.485	-119.137	-0.293	0.052
-696.470	321.136	0.111	0.214
-695.456	-108.328	-0.333	-0.073
-694.441	-52.762	0.150	0.070
-693.426	-128.228	0.151	0.022
-692.412	-121.467	0.108	-0.018
-691.397	-58.078	-0.182	-0.081
-690.383	124.667	-0.032	-0.041
-689.368	38.479	0.152	-0.138
-688.354	-200.000	0.010	0.174
-687.339	99.063	0.041	0.048
-686.324	-200.000	-0.028	0.202
-685.310	339.744	0.123	-0.244
-684.295	232.314	-0.187	-0.312
-683.281	-10.500	-0.076	-0.051
-682.266	293.085	-0.040	-0.074
-681.251	-200.000	-0.012	0.392
-680.237	-200.000	-0.007	0.186
-679.222	531.078	0.081	-0.194
-678.208	-200.000	-0.024	-0.373
-677.193	3.875	0.047	-0.035
-676.178	-117.231	0.408	-0.075
-675.164	-200.000	-0.016	0.079
-674.149	-200.000	-0.005	0.075
-673.135	-200.000	-0.005	0.244
-672.120	-109.069	0.133	-0.029
-671.105	-156.656	0.040	-0.003
-670.091	-100.737	0.366	0.091
-669.076	800.000	-0.011	0.037
-668.062	800.000	0.058	0.221
-667.047	163.191	0.138	0.196
-666.032	-200.000	-0.038	-0.211
-665.018	-25.070	0.127	0.076
-664.003	-200.000	0.012	0.440
-662.989	55.285	0.270	0.265
-661.974	-26.679	-0.183	-0.108
-660.959	224.460	0.161	-0.264
-659.945	647.272	-0.200	-0.517
-658.930	303.126	-0.160	0.301
-657.916	4.102	-0.320	-0.237
-656.901	-25.599	-0.211	-0.126
-655.886	-74.611	-0.135	-0.049
-654.872	-93.834	-0.023	0.007
-653.857	800.000	0.091	0.317
-652.843	331.348	0.087	-0.170
-651.828	-60.428	0.227	0.098
-650.814	204.940	-0.044	-0.070
-649.799	-89.332	-0.458	-0.137
-648.784	55.165	0.171	0.167
-647.770	-61.430	0.106	-0.045
-646.755	-200.000	-0.022	-0.138
-645.741	-58.647	-0.122	0.053
-644.726	-200.000	0.024	-0.129
-643.711	-140.578	0.257	-0.027
-642.697	-127.143	-0.274	0.041
-641.682	233.531	-0.040	-0.067
-640.668	-200.000	-0.015	-0.113
-639.653	-189.896	-0.179	-0.002
-638.638	-124.808	-0.132	0.021
-637.624	-116.427	-0.302	-0.057
-636.609	-200.000	-0.015	0.260
-635.595	-200.000	-0.020	0.091
-634.580	102.652	0.051	-0.061
-633.565	-34.595	-0.233	0.129
-632.551	-142.959	0.052	0.005
-631.536	-166.899	-0.276	0.011
-630.522	800.000	0.063	0.224
-629.507	155.129	0.122	-0.170
-628.492	-39.133	-0.158	0.084
-627.478	511.172	0.115	-0.270
-626.463	-15.346	-0.110	0.071
-625.449	-200.000	-0.096	-0.000
-624.434	-200.000	0.020	-0.172
-623.419	639.499	0.087	-0.223
-622.405	118.058	-0.122	0.152
-621.390	20.872	0.065	-0.053
-620.376	-108.575	-0.087	-0.019
-619.361	-99.772	-0.192	0.049
-618.346	-200.000	-0.016	-0.148
-617.332	-200.000	0.025	0.234
-616.317	-32.179	-0.406	0.230
-615.303	123.872	0.174	-0.221
-614.288	258.676	0.020	0.034
-613.273	-200.000	-0.051	-0.301
-612.259	612.478	0.133	-0.337
-611.244	-139.140	0.122	-0.013
-610.230	119.747	-0.135	-0.169
-609.215	0.351	-0.192	0.139
-608.201	-200.000	0.012	-0.371
-607.186	360.097	0.165	-0.335
-606.171	800.000	-0.036	-0.125
-605.157	-87.600	0.207	-0.063
-604.142	800.000	0.055	0.193
-603.128	83.815	0.099	-0.110
-602.113	-200.000	-0.029	-0.179
-601.098	89.418	0.181	-0.204
-600.084	-200.000	0.003	-0.173
-599.069	245.340	-0.127	-0.217
-598.055	-200.000	-0.005	-0.086
-597.040	32.931	0.147	0.129
-596.025	331.323	0.146	0.285
-595.011	800.000	-0.088	0.361
-593.996	800.000	-0.041	0.127
-592.982	115.205	-0.135	-0.166
-591.967	-29.716	0.097	-0.056
-590.952	-15.143	0.064	0.041
-589.938	384.245	-0.026	-0.053
-588.923	-112.062	-0.263	-0.053
-587.909	105.594	-0.099	0.119
-586.894	-105.445	0.156	-0.036
-585.879	-120.127	0.151	0.026
-584.865	-152.431	-0.107	0.008
-583.850	-200.000	-0.028	-0.164
-582.836	-99.272	0.295	-0.075
-581.821	-61.801	-0.542	-0.229
-580.806	-74.952	0.379	-0.137
-579.792	800.000	-0.090	0.357
-578.777	-103.401	-0.128	-0.030
-577.763	-188.853	0.422	-0.005
-576.748	-200.000	-0.025	0.245
-575.733	-59.893	-0.129	0.056
-574.719	-200.000	-0.015	-0.088
-573.704	-15.226	0.348	-0.225
-572.690	163.025	-0.163	-0.232
-571.675	228.563	-0.091	0.150
-570.661	14.793	-0.212	-0.167
-569.646	800.000	0.043	0.163
-568.631	-200.000	0.024	0.332
-567.617	239.847	0.042	0.070
-566.602	72.368	-0.221	0.232
-565.588	124.632	-0.042	0.054
-564.573	-200.000	0.005	-0.309
-563.558	129.734	0.208	0.268
-562.544	28.030	0.026	-0.022
-561.529	66.703	-0.115	0.119
-560.515	-20.300	-0.135	0.084
-559.500	4.604	0.093	-0.069
-558.485	-200.000	-0.053	-0.355
-557.471	800.000	0.023	-0.085
-556.456	-200.000	-0.004	-0.270
-555.442	510.998	-0.067	0.157
-554.427	-112.791	0.242	0.049
-553.412	163.501	-0.061	-0.086
-552.398	-72.808	-0.124	0.046
-551.383	-89.089	0.234	-0.070
-550.369	-140.783	0.308	-0.032
-549.354	663.281	-0.033	-0.085
-548.339	-200.000	0.011	0.300
-547.325	-107.395	-0.235	-0.052
-546.310	14.755	0.140	0.110
-545.296	-47.970	-0.291	-0.142
-544.281	-107.094	0.041	0.009
-543.266	43.932	0.102	0.094
-542.252	244.441	0.124	0.211
-541.237	-200.000	0.039	0.248
-540.223	104.458	0.106	-0.126
-539.208	800.000	-0.041	-0.118
-538.193	117.677	0.182	0.226
-537.179	52.356	-0.247	-0.238
-536.164	-157.934	-0.524	0.031
-535.150	-174.414	0.282	0.008
-534.135	-145.819	-0.312	0.028
-533.121	100.098	-0.155	0.181
-532.106	335.870	0.074	0.144
-531.091	-86.139	-0.057	0.018
-530.077	523.718	-0.144	0.341
-529.062	-45.225	-0.088	-0.044
-528.048	800.000	-0.037	0.165
-527.033	-200.000	-0.038	-0.329
-526.018	90.542	0.258	0.291
-525.004	-89.865	-0.260	-0.077
-523.989	-200.000	0.033	-0.212
-522.975	75.471	-0.348	-0.370
-521.960	406.381	0.029	-0.061
-520.945	93.204	0.104	-0.118
-519.931	-3.237	-0.278	-0.195
-518.916	-11.899	-0.266	-0.176
-517.902	220.459	0.171	-0.276
-516.887	-186.496	0.072	-0.001
-515.872	-166.478	-0.159	0.007
-514.858	190.089	-0.107	0.163
-513.843	236.104	-0.187	-0.312
-512.829	-65.118	0.053	-0.022
-511.814	334.331	0.213	0.415
-510.799	800.000	-0.028	0.085
-509.785	-71.172	0.202	-0.076
-508.770	121.498	0.201	-0.252
-507.756	233.920	-0.134	0.222
-506.741	-163.824	0.157	-0.007
-505.726	800.000	-0.006	-0.019
-504.712	2.766	-0.269	-0.197
-503.697	397.407	-0.053	-0.112
-502.683	-136.671	0.260	-0.030
-501.668	800.000	0.137	-0.467
-500.653	165.897	0.077	-0.109
-499.639	182.622	0.056	0.084
-498.624	-200.000	0.005	-0.211
-497.610	465.962	-0.114	0.257
-496.595	232.089	0.174	0.288
-495.581	-93.587	-0.421	-0.117
-494.566	-70.096	-0.128	-0.049
-493.551	-50.562	-0.337	-0.160
-492.537	701.224	-0.102	0.269
-491.522	383.508	-0.042	0.087
-490.508	-154.699	-0.371	-0.025
-489.493	-138.417	-0.119	0.013
-488.478	-200.000	0.055	0.310
-487.464	-163.595	0.258	-0.012
-486.449	800.000	-0.062	-0.174
-485.435	800.000	-0.075	-0.257
-484.420	-75.329	0.404	0.145
-483.405	800.000	-0.006	0.024
-482.391	-54.924	-0.167	0.076
-481.376	84.738	-0.292	0.322
-480.362	-104.212	-0.345	-0.081
-479.347	-200.000	-0.045	0.210
-478.332	-123.598	0.361	-0.058
-477.318	-109.722	0.309	0.066
-476.303	-200.000	0.026	0.120
-475.289	-90.668	0.244	-0.071
-474.274	2.511	-0.173	-0.126
-473.259	143.166	0.161	0.215
-472.245	-40.060	0.173	0.091
-471.230	-89.430	0.560	-0.166
-470.216	15.820	-0.162	0.128
-469.201	-104.170	0.299	0.070
-468.186	-200.000	0.027	0.126
-467.172	800.000	0.050	0.160
-466.157	25.739	-0.295	0.247
-465.143	800.000	-0.049	-0.136
-464.128	83.721	0.078	-0.085
-463.113	-86.385	-0.115	-0.036
-462.099	-200.000	-0.027	0.123
-461.084	-8.912	-0.037	-0.025
-460.070	800.000	-0.116	-0.485
-459.055	-200.000	0.014	-0.191
-458.040	200.853	-0.079	0.122
-457.026	63.054	0.156	-0.157
-456.011	-174.875	0.157	-0.004
-454.997	-123.548	-0.114	-0.018
-453.982	-42.158	0.170	0.087
-452.968	1.509	0.095	0.069
-451.953	-200.000	0.009	-0.385
-450.938	1.457	0.186	-0.134
-449.924	800.000	-0.061	0.178
-448.909	-200.000	-0.011	0.192
-447.895	-130.237	0.197	0.027
-446.880	89.653	-0.220	-0.247
-445.865	39.512	-0.007	0.007
-444.851	-200.000	0.034	0.177
-443.836	-200.000	-0.013	-0.068
-442.822	77.769	-0.249	-0.266
-441.807	-200.000	-0.042	-0.384
-440.792	-200.000	-0.010	0.055
-439.778	-200.000	0.036	-0.176
-438.763	173.829	-0.102	0.148
-437.749	-200.000	0.013	0.206
-436.734	-34.453	-0.100	0.055
-435.719	269.682	-0.119	-0.210
-434.705	-158.130	0.367	-0.022
-433.690	42.300	-0.090	-0.082
-432.676	-200.000	-0.032	0.242
-431.661	-200.000	-0.009	0.133
-430.646	-66.133	-0.195	-0.078
-429.632	4.290	-0.175	-0.129
-428.617	-103.293	0.081	-0.019
-427.603	-152.545	-0.151	-0.011
-426.588	-72.213	-0.032	0.012
-425.573	140.686	-0.205	0.272
-424.559	-200.000	-0.226	0.000
-423.544	18.036	-0.008	-0.007
-422.530	233.311	0.076	-0.125
-421.515	-114.102	-0.252	0.049
-420.500	-93.995	-0.343	-0.095
-419.486	215.368	0.139	-0.221
-418.471	800.000	0.007	0.032
-417.457	-41.424	0.177	0.091
-416.442	-191.651	0.294	-0.003
-415.428	1.423	0.128	-0.092
-414.413	47.671	-0.243	-0.227
-413.398	-31.786	0.155	-0.087
-412.384	800.000	-0.055	-0.188
-411.369	92.612	-0.171	0.193
-410.355	800.000	0.047	-0.172
-409.340	-100.722	-0.157	-0.039
-408.325	66.679	0.154	0.157
-407.311	13.504	0.170	-0.133
-406.296	800.000	-0.048	-0.149
-405.282	198.425	0.063	0.097
-404.267	-95.696	0.597	0.160
-403.252	183.088	0.110	-0.163
-402.238	448.269	-0.153	0.338
-401.223	-200.000	0.020	0.125
-400.209	151.378	-0.063	-0.086
-399.194	-1.040	0.241	0.171
-398.179	-200.000	-0.043	-0.211
-397.165	216.020	-0.111	-0.177
-396.150	800.000	0.018	-0.070
-395.136	-64.938	-0.191	-0.078
-394.121	-200.000	0.000	0.040
-393.106	708.515	0.117	-0.311
-392.092	137.467	-0.171	-0.225
-391.077	36.163	0.117	0.103
-390.063	-182.160	-0.298	-0.006
-389.048	-200.000	0.000	0.242
-388.033	211.462	0.115	-0.182
-387.019	-128.263	0.167	0.024
-386.004	19.256	-0.167	-0.135
-384.990	279.240	-0.072	-0.128
-383.975	-112.758	-0.125	-0.025
-382.960	384.744	0.159	0.329
-381.946	54.042	0.466	0.450
-380.931	-54.811	0.135	0.061
-379.917	-179.536	-0.144	0.003
-378.902	150.099	0.265	0.360
-377.888	21.402	0.078	-0.064
-376.873	-57.261	0.458	-0.202
-375.858	-200.000	0.019	0.101
-374.844	-200.000	-0.027	0.176
-373.829	-200.000	-0.026	0.446
-372.815	171.751	0.009	0.013
-371.800	-164.001	-0.077	0.004
-370.785	70.004	0.078	-0.081
-369.771	213.115	0.137	-0.217
-368.756	-175.049	-0.170	-0.005
-367.742	-200.000	-0.012	-0.319
-366.727	-115.432	0.446	0.084
-365.712	88.118	-0.322	0.358
-364.698	-11.106	0.208	0.137
-363.683	158.207	-0.184	0.255
-362.669	-108.096	0.135	-0.029
-361.654	-62.196	-0.160	0.067
-360.639	170.911	-0.038	-0.054
-359.625	258.876	0.067	0.115
-358.610	-169.757	0.107	-0.004
-357.596	-12.276	-0.028	-0.019
-356.581	460.110	0.113	-0.253
-355.566	800.000	-0.069	-0.244
-354.552	-152.124	0.151	-0.011
-353.537	59.462	-0.162	0.160
-352.523	-200.000	0.030	0.173
-351.508	160.362	-0.063	0.088
-350.493	-100.048	-0.240	0.060
-349.479	-108.172	0.323	0.070
-348.464	-96.504	0.176	0.047
-347.450	10.954	0.206	-0.158
-346.435	11.225	-0.253	0.193
-345.420	-200.000	-0.008	0.147
-344.406	800.000	0.015	0.047
-343.391	-86.411	0.166	-0.051
-342.377	-26.523	-0.268	0.157
-341.362	-137.542	0.232	0.026
-340.348	-200.000	0.051	0.343
-339.333	-22.824	-0.078	0.047
-338.318	-46.481	0.178	-0.087
-337.304	800.000	-0.095	0.264
-336.289	-3.801	0.147	-0.102
-335.275	51.891	-0.079	0.075
-334.260	362.732	0.062	-0.125
-333.245	-61.685	-0.266	-0.111
-332.231	-200.000	0.008	-0.112
-331.216	634.893	0.062	-0.158
-330.202	-13.908	0.189	0.122
-329.187	-111.389	-0.192	0.039
-328.172	282.147	0.105	-0.189
-327.158	-200.000	0.060	-0.382
-326.143	292.116	-0.038	0.069
-325.129	-180.650	0.067	0.001
-324.114	454.864	0.051	-0.114
-323.099	-170.954	-0.230	-0.008
-322.085	102.455	-0.055	0.065
-321.070	83.992	-0.202	-0.221
-320.056	-60.089	-0.094	-0.040
-319.041	-145.290	0.215	-0.019
-318.026	146.437	0.130	0.174
-317.012	198.531	0.274	-0.419
-315.997	363.543	0.122	0.245
-314.983	-200.000	0.059	0.470
-313.968	-200.000	0.031	-0.273
-312.953	110.658	0.272	-0.327
-311.939	-0.500	0.036	-0.026
-310.924	-48.839	-0.065	0.031
-309.910	6.922	0.213	0.159
-308.895	-61.130	0.239	-0.101
-307.880	597.635	-0.061	-0.150
-306.866	89.146	-0.076	-0.085
-305.851	44.540	0.046	0.042
-304.837	-46.174	0.083	0.041
-303.822	800.000	0.037	0.103
-302.807	-44.309	0.099	-0.049
-301.793	800.000	0.101	-0.348
-300.778	800.000	-0.102	-0.288
-299.764	-113.804	-0.221	-0.043
-298.749	-200.000	0.000	0.478
-297.735	-29.341	0.093	-0.053
-296.720	248.846	0.201	0.341
-295.705	-52.337	0.082	0.038
-294.691	-160.849	-0.203	0.011
-293.676	-91.419	0.310	-0.088
-292.662	-200.000	0.014	-0.278
-291.647	-200.000	0.021	-0.098
-290.632	-14.571	0.171	0.110
-289.618	109.480	0.236	-0.282
-288.603	-98.921	-0.331	0.084
-287.589	-81.085	-0.306	-0.101
-286.574	-200.000	0.015	-0.121
-285.559	-50.569	0.092	-0.043
-284.545	-11.273	-0.086	0.056
-283.530	800.000	0.043	0.159
-282.516	-38.804	0.132	-0.069
-281.501	-200.000	-0.035	-0.219
-280.486	-4.123	-0.217	0.150
-279.472	164.059	-0.047	0.066
-278.457	-9.028	0.183	-0.122
-277.443	57.744	0.259	-0.253
-276.428	197.656	0.048	0.073
-275.413	-200.000	0.032	-0.226
-274.399	-9.965	-0.202	-0.134
-273.384	-111.865	0.284	0.057
-272.370	-45.246	-0.260	-0.129
-271.355	266.612	-0.151	0.264
-270.340	-132.519	0.102	0.013
-269.326	633.655	0.090	0.229
-268.311	132.400	0.064	0.082
-267.297	122.613	-0.145	-0.182
-266.282	181.521	0.037	0.055
-265.267	-20.374	-0.194	0.119
-264.253	800.000	0.047	-0.131
-263.238	108.554	-0.207	0.247
-262.224	-94.587	0.422	-0.115
-261.209	-74.628	-0.277	-0.100
-260.195	-200.000	-0.058	0.257
-259.180	187.470	0.093	-0.138
-258.165	-200.000	0.001	-0.229
-257.151	-200.000	0.018	-0.200
-256.136	-200.000	0.028	-0.156
-255.122	115.182	-0.202	0.247
-254.107	103.896	0.172	0.202
-253.092	23.444	0.268	0.219
-252.078	631.077	0.058	0.145
-251.063	-200.000	0.006	-0.056
-250.049	-200.000	0.031	-0.178
-249.034	379.428	-0.126	-0.257
-248.019	-200.000	0.017	0.362
-247.005	577.314	0.091	-0.223
-245.990	800.000	-0.157	0.529
-244.976	94.315	0.193	0.219
-243.961	1.921	-0.132	0.095
-242.946	-62.023	-0.148	-0.061
-241.932	-200.000	-0.053	0.248
-240.917	-200.000	0.008	0.386
-239.903	800.000	-0.086	0.285
-238.888	800.000	-0.061	-0.185
-237.873	-200.000	-0.062	0.410
-236.859	-52.623	0.116	0.053
-235.844	-104.583	0.330	-0.076
-234.830	65.488	0.033	0.033
-233.815	-117.241	0.297	-0.054
-232.800	-89.155	-0.273	0.080
-231.786	165.191	-0.071	-0.100
-230.771	800.000	-0.038	-0.152
-229.757	21.578	0.090	-0.073
-228.742	-95.390	-0.180	0.048
-227.727	-137.845	-0.258	-0.029
-226.713	175.570	0.272	0.393
-225.698	-32.977	0.186	0.103
-224.684	-38.906	-0.371	0.195
-223.669	293.841	0.114	-0.207
-222.655	221.032	-0.194	0.310
-221.640	166.842	0.100	-0.141
-220.625	-174.623	-0.052	-0.001
-219.611	151.467	0.097	-0.131
-218.596	-109.219	0.213	-0.045
-217.582	13.415	0.138	0.106
-216.567	244.516	-0.172	-0.288
-215.552	-44.716	0.207	-0.103
-214.538	3.346	0.368	0.267
-213.523	800.000	-0.033	0.119
-212.509	-41.203	0.118	-0.061
-211.494	224.650	0.174	0.281
-210.479	35.374	0.220	0.192
-209.465	800.000	-0.058	-0.230
-208.450	-5.026	-0.142	-0.097
-207.436	4.112	0.117	-0.085
-206.421	131.406	-0.144	-0.184
-205.406	502.350	0.167	-0.385
-204.392	-49.309	-0.068	0.033
-203.377	448.760	-0.015	0.032
-202.363	329.671	-0.089	0.170
-201.348	118.178	0.100	0.123
-200.333	66.169	-0.500	0.505
-199.319	-138.204	-0.323	-0.036
-198.304	-200.000	-0.041	-0.225
-197.290	-93.236	-0.192	0.053
-196.275	148.048	-0.231	0.310
-195.260	56.806	0.271	0.262
-194.246	316.463	0.133	-0.250
-193.231	31.154	-0.182	-0.156
-192.217	90.857	-0.044	-0.049
-191.202	-68.840	-0.163	-0.063
-190.187	48.159	-0.051	-0.048
-189.173	-29.622	0.214	-0.122
-188.158	-175.257	0.174	0.005
-187.144	800.000	-0.047	-0.157
-186.129	-6.857	-0.115	0.078
-185.114	277.594	-0.098	-0.173
-184.100	452.859	0.055	-0.122
-183.085	137.123	-0.056	-0.073
-182.071	-200.000	0.020	-0.116
-181.056	156.357	-0.157	0.216
-180.042	800.000	-0.081	-0.241
-179.027	-3.481	0.091	0.063
-178.012	-49.339	0.311	-0.147
-176.998	800.000	0.015	-0.059
-175.983	-77.176	-0.095	-0.033
-174.969	-119.270	0.105	-0.018
-173.954	-55.144	-0.051	-0.023
-172.939	-100.019	0.138	0.034
-171.925	100.806	-0.053	-0.062
-170.910	199.617	-0.059	-0.091
-169.896	-27.570	-0.333	0.193
-168.881	-118.473	0.238	0.042
-167.866	-64.172	0.039	0.016
-166.852	-200.000	0.006	0.421
-165.837	39.203	0.024	0.022
-164.823	-200.000	-0.070	0.363
-163.808	-84.107	0.241	0.076
-162.793	70.839	-0.238	0.245
-161.779	-4.490	-0.092	0.063
-160.764	-105.233	-0.164	-0.037
-159.750	484.908	0.076	-0.171
-158.735	-19.647	-0.094	-0.058
-157.720	800.000	0.083	0.353
-156.706	15.031	-0.254	0.197
-155.691	27.195	-0.119	0.099
-154.677	-113.716	0.282	-0.055
-153.662	-106.062	0.190	-0.042
-152.647	53.238	-0.149	0.141
-151.633	-129.629	-0.027	-0.004
-150.618	-8.049	-0.343	0.230
-149.604	-76.894	-0.110	-0.038
-148.589	26.100	0.347	-0.288
-147.574	800.000	-0.051	-0.158
-146.560	70.491	0.218	0.224
-145.545	-200.000	-0.014	-0.086
-144.531	6.230	0.395	0.291
-143.516	166.639	0.274	0.386
-142.502	445.742	0.011	-0.024
-141.487	-200.000	-0.031	0.142
-140.472	755.475	-0.071	0.192
-139.458	43.333	-0.271	0.246
-138.443	-92.156	-0.260	0.073
-137.429	-200.000	-0.049	-0.224
-136.414	238.956	-0.084	0.138
-135.399	-33.452	0.127	-0.070
-134.385	-74.460	0.052	-0.019
-133.370	44.000	-0.148	-0.135
-132.356	15.069	0.204	0.158
-131.341	-91.890	0.353	0.099
-130.326	-84.241	-0.094	0.030
-129.312	-39.971	0.237	0.123
-128.297	256.536	-0.137	-0.233
-127.283	-200.000	-0.069	-0.338
-126.268	162.788	0.015	0.020
-125.253	232.335	0.075	-0.122
-124.239	-200.000	0.025	-0.231
-123.224	-21.925	0.147	0.088
-122.210	-158.615	0.216	0.012
-121.195	-200.000	-0.003	0.040
-120.180	217.728	0.068	0.107
-119.166	-73.400	0.196	-0.071
-118.151	80.676	0.218	0.233
-117.137	236.863	-0.073	-0.119
-116.122	40.296	0.116	0.104
-115.107	-130.817	0.017	0.002
-114.093	-69.350	0.103	0.039
-113.078	-168.409	-0.253	-0.010
-112.064	-200.000	0.027	-0.125
-111.049	15.297	0.072	-0.056
-110.034	298.061	0.145	0.264
-109.020	-47.215	0.179	-0.086
-108.005	-59.026	0.446	0.191
-106.991	68.984	-0.205	0.209
-105.976	327.718	-0.182	-0.346
-104.962	96.158	0.261	-0.296
-103.947	-200.000	0.004	0.178
-102.932	2.563	0.062	0.045
-101.918	128.671	0.137	0.173
-100.903	-175.410	0.263	-0.007
-99.889	-200.000	-0.352	-0.001
-98.874	-127.101	-0.317	-0.046
-97.859	800.000	0.183	0.509
-96.845	-89.339	-0.116	0.034
-95.830	-200.000	-0.030	-0.234
-94.816	-200.000	0.038	0.246
-93.801	-105.237	0.159	-0.036
-92.786	-128.520	0.170	0.024
-91.772	-51.653	-0.090	0.042
-90.757	31.037	-0.396	0.337
-89.743	-79.821	0.525	0.175
-88.728	-200.000	0.017	0.213
-87.713	14.992	0.136	-0.105
-86.699	687.965	-0.004	-0.009
-85.684	215.801	0.057	0.090
-84.670	169.249	0.011	-0.015
-83.655	-115.398	0.239	-0.045
-82.640	63.388	0.074	-0.073
-81.626	408.070	0.200	0.419
-80.611	800.000	-0.058	-0.191
-79.597	-200.000	0.048	0.272
-78.582	52.213	0.367	-0.346
-77.567	-152.889	-0.212	0.015
-76.553	42.171	0.093	0.084
-75.538	-92.305	-0.164	-0.046
-74.524	-52.255	-0.259	-0.119
-73.509	-200.000	0.060	0.287
-72.494	205.540	0.038	0.058
-71.480	1.325	-0.031	0.022
-70.465	473.500	0.019	-0.042
-69.451	-200.000	0.006	-0.251
-68.436	-200.000	0.021	0.241
-67.422	-200.000	0.004	-0.161
-66.407	-29.745	0.103	-0.058
-65.392	800.000	0.039	0.169
-64.378	-60.729	-0.090	-0.038
-63.363	-200.000	0.017	0.176
-62.349	104.739	0.020	-0.024
-61.334	115.417	-0.730	-0.884
-60.319	15.563	0.369	0.287
-59.305	800.000	-0.308	-0.914
-58.290	235.050	0.562	0.917
-57.276	800.000	0.593	1.629
-56.261	-200.000	97.520	574.448
-55.246	617.886	1407.074	3496.287
-54.232	184.713	2615.178	3836.696
-53.217	118.730	2206.708	2697.320
-52.203	44.489	1737.771	1579.904
-51.188	37.217	1549.064	1357.667
-50.173	34.739	1522.422	1317.206
-49.159	53.480	1573.022	1492.785
-48.144	56.957	1591.440	1534.561
-47.130	37.677	1546.654	1358.553
-46.115	34.308	1531.685	1322.018
-45.100	34.142	1528.377	1317.962
-44.086	34.007	1526.584	1315.426
-43.071	34.146	1524.277	1314.349
-42.057	34.088	1522.710	1312.548
-41.042	33.970	1521.908	1310.987
-40.027	34.123	1520.452	1310.738
-39.013	34.064	1518.752	1308.815
-37.998	34.090	1517.555	1307.906
-36.984	34.078	1516.089	1306.510
-35.969	33.988	1515.276	1305.144
-34.954	34.058	1513.717	1304.228
-33.940	33.941	1512.598	1302.409
-32.925	34.129	1510.355	1301.708
-31.911	34.060	1509.546	1300.488
-30.896	34.094	1508.195	1299.505
-29.881	34.190	1506.769	1298.882
-28.867	34.140	1505.437	1297.344
-27.852	34.102	1504.138	1295.913
-26.838	34.083	1502.519	1294.339
-25.823	34.084	1501.182	1293.140
-24.809	34.082	1499.583	1291.698
-23.794	34.159	1498.204	1290.980
-22.779	34.127	1496.558	1289.298
-21.765	34.050	1495.909	1288.165
-20.750	34.184	1494.423	1287.736
-19.736	34.096	1493.574	1286.359
-18.721	34.010	1492.506	1284.808
-17.706	34.056	1491.116	1283.875
-16.692	34.011	1490.291	1282.809
-15.677	34.017	1489.673	1282.262
-14.663	34.038	1488.878	1281.674
-13.648	34.072	1487.371	1280.551
-12.633	34.094	1486.640	1280.016
-11.619	34.002	1485.683	1278.526
-10.604	34.061	1484.609	1277.944
-9.590	33.990	1483.628	1276.577
-8.575	34.064	1483.296	1276.737
-7.560	34.091	1482.113	1275.846
-6.546	34.071	1481.568	1275.194
-5.531	33.982	1480.466	1273.597
-4.517	34.017	1479.908	1273.301
-3.502	34.067	1478.375	1272.267
-2.487	33.924	1478.028	1270.965
-1.473	33.977	1476.321	1269.798
-0.458	34.071	1475.248	1269.455
0.556	32.752	1466.115	1258.780
1.571	29.867	1439.345	1216.749
2.586	26.420	1376.954	1142.177
3.600	24.486	1294.088	1061.854
4.615	22.991	1248.054	1015.406
5.629	20.276	1191.157	954.124
6.644	12.413	1105.710	845.308
7.659	5.964	1063.978	781.322
8.673	5.167	1058.440	773.244
9.688	4.984	1055.719	770.284
10.702	4.868	1053.999	768.385
11.717	4.921	1052.293	767.335
12.731	7.512	1054.941	781.977
13.746	15.089	1065.479	827.287
14.761	19.448	1070.997	853.100
15.775	18.527	1068.524	846.509
16.790	17.386	1066.205	838.970
17.804	16.371	1064.010	832.174
18.819	15.382	1062.132	825.766
19.834	14.879	1060.569	822.005
20.848	14.532	1059.604	819.479
21.863	14.289	1059.326	817.999
22.877	14.076	1058.186	815.999
23.892	13.944	1057.335	814.627
24.907	13.884	1056.373	813.515
25.921	13.862	1055.733	812.844
26.936	13.842	1054.944	812.067
27.950	14.001	1053.258	811.473
28.965	14.131	1052.347	811.334
29.980	14.143	1051.199	810.437
30.994	14.096	1050.491	809.588
32.009	14.220	1049.344	809.240
33.023	14.222	1048.720	808.695
34.038	14.225	1048.161	808.205
35.053	14.139	1047.233	807.000
36.067	14.056	1046.497	805.961
37.082	14.033	1045.192	804.773
38.096	14.163	1044.215	804.578
39.111	14.106	1043.982	804.052
40.126	14.127	1042.523	802.961
41.140	14.106	1041.599	802.074
42.155	13.906	1040.345	800.073
43.169	13.963	1039.513	799.640
44.184	13.873	1038.218	798.138
45.199	13.715	1037.576	796.817
46.213	13.752	1036.396	796.018
47.228	13.890	1035.124	795.633
48.242	13.845	1034.629	794.967
49.257	13.945	1033.540	794.537
50.271	14.032	1032.604	794.159
51.286	13.966	1031.457	792.894
52.301	14.031	1030.938	792.733
53.315	14.024	1029.727	791.699
54.330	13.957	1029.117	790.841
55.344	13.861	1027.969	789.436
56.359	13.970	1026.710	788.915
57.374	13.995	1025.856	788.305
58.388	13.994	1025.371	787.861
59.403	13.849	1024.380	786.341
60.417	13.872	1023.751	785.896
61.432	13.825	1023.239	785.214
62.447	13.744	1022.600	784.273
63.461	13.768	1021.327	783.340
64.476	13.736	1020.606	782.564
65.490	13.695	1020.085	781.903
66.505	13.686	1018.880	780.870
67.520	13.754	1018.236	780.625
68.534	13.875	1017.210	780.340
69.549	13.770	1016.607	779.314
70.563	13.690	1016.163	778.530
71.578	13.774	1015.034	777.986
72.593	13.752	1013.704	776.796
73.607	13.755	1012.911	776.134
74.622	13.633	1012.377	775.085
75.636	13.625	1011.506	774.313
76.651	13.646	1010.901	773.883
77.666	13.551	1010.146	772.791
78.680	13.653	1009.270	772.529
79.695	13.617	1008.779	771.916
80.709	13.643	1007.824	771.236
81.724	13.795	1006.982	771.231
82.739	13.778	1006.148	770.445
83.753	13.903	1005.428	770.405
84.768	13.956	1005.115	770.345
85.782	13.993	1003.960	769.560
86.797	14.171	1003.707	770.125
87.812	14.231	1003.106	769.875
88.826	14.052	1001.893	768.046
89.841	14.062	1000.963	767.313
90.855	14.066	1000.364	766.801
91.870	14.046	1000.014	766.374
92.884	14.191	998.909	766.129
93.899	14.107	998.409	765.289
94.914	14.129	997.534	764.651
95.928	14.183	996.652	764.159
96.943	14.262	996.170	764.083
97.957	14.138	995.265	762.753
98.972	14.160	994.574	762.258
99.987	14.124	993.940	761.537
101.001	14.040	993.335	760.622
102.016	14.080	992.386	760.011
103.030	14.045	991.510	759.112
104.045	13.977	990.555	758.004
105.060	14.199	988.684	757.518
106.074	14.040	988.252	756.395
107.089	13.990	987.620	755.615
108.103	13.802	987.149	754.333
109.118	13.876	985.681	753.481
110.133	13.862	984.829	752.700
111.147	13.839	984.031	751.922
112.162	13.681	983.202	750.505
113.176	13.876	982.604	750.864
114.191	13.943	981.489	750.247
115.206	13.997	980.267	749.490
116.220	14.044	979.450	749.011
117.235	13.872	978.677	747.581
118.249	13.898	978.189	747.257
119.264	13.913	977.300	746.579
120.279	13.828	976.215	745.304
121.293	13.805	975.560	744.635
122.308	13.795	974.962	744.067
123.322	13.865	974.221	743.750
124.337	13.641	973.214	741.915
125.352	13.737	971.867	741.248
126.366	13.816	970.728	740.668
127.381	13.871	969.538	739.940
128.395	13.789	968.979	739.081
129.410	13.741	967.890	737.975
130.424	13.767	967.104	737.424
131.439	14.001	965.735	737.352
132.454	13.923	965.313	736.620
133.468	13.867	964.797	735.913
134.483	13.907	964.216	735.581
135.497	13.962	963.585	735.277
136.512	13.917	962.751	734.379
137.527	14.043	961.639	734.020
138.541	14.044	960.890	733.389
139.556	14.063	960.214	732.890
140.570	14.051	959.544	732.265
141.585	14.017	958.998	731.631
142.600	14.046	958.606	731.395
143.614	14.179	957.585	731.135
144.629	14.218	957.055	730.840
145.643	14.270	955.988	730.189
146.658	14.131	955.299	728.989
147.673	14.192	954.210	728.357
148.687	14.033	953.603	727.137
149.702	14.046	952.220	726.073
150.716	14.067	951.140	725.277
151.731	14.020	950.390	724.438
152.746	14.014	949.414	723.601
153.760	14.004	949.374	723.465
154.775	14.225	948.361	723.587
155.789	14.103	947.914	722.655
156.804	14.144	947.181	722.210
157.819	14.103	946.317	721.310
158.833	14.058	946.005	720.814
159.848	14.206	945.240	720.806
160.862	14.212	944.562	720.250
161.877	14.302	943.814	720.005
162.892	14.065	942.888	718.212
163.906	14.144	941.849	717.696
164.921	14.076	941.126	716.790
165.935	14.045	939.966	715.711
166.950	14.198	939.072	715.624
167.964	14.184	938.330	714.938
168.979	14.221	937.456	714.364
169.994	14.154	936.650	713.400
171.008	14.150	935.562	712.490
172.023	14.234	934.812	712.215
173.037	14.248	934.051	711.634
174.052	14.315	933.767	711.642
175.067	14.240	932.949	710.636
176.081	14.139	932.422	709.738
177.096	14.154	931.335	708.914
178.110	14.333	929.884	708.509
179.125	14.168	929.493	707.443
180.140	14.307	928.756	707.414
181.154	14.231	928.198	706.602
182.169	14.293	927.287	706.110
183.183	14.332	926.937	705.944
184.198	14.530	926.194	706.157
185.213	14.463	925.546	705.317
186.227	14.435	924.614	704.423
187.242	14.388	924.655	704.194
188.256	14.417	924.082	703.818
189.271	14.529	923.015	703.416
190.286	14.534	922.630	703.080
191.300	14.484	921.120	701.658
192.315	14.212	920.860	700.253
193.329	14.074	920.245	699.143
194.344	14.064	919.609	698.555
195.359	14.269	918.667	698.641
196.373	14.422	918.081	698.772
197.388	14.418	917.908	698.561
198.402	14.532	917.160	698.409
199.417	14.689	916.797	698.730
200.432	14.721	916.531	698.597
201.446	14.664	916.510	698.280
202.461	14.740	915.836	698.022
203.475	14.927	914.712	697.884
204.490	14.908	914.176	697.337
205.504	14.714	913.403	695.875
206.519	14.627	912.682	694.903
207.534	14.655	911.814	694.296
208.548	14.588	911.269	693.542
209.563	14.624	910.495	693.043
210.577	14.695	909.692	692.664
211.592	14.509	909.346	691.566
212.607	14.743	908.925	692.155
213.621	14.865	908.022	691.911
214.636	15.012	907.149	691.795
215.650	14.742	906.591	690.192
216.665	14.855	906.266	690.347
217.680	14.815	905.521	689.557
218.694	14.895	905.239	689.612
219.709	14.983	904.438	689.301
220.723	14.962	903.792	688.661
221.738	14.950	903.160	688.069
222.753	14.992	902.403	687.605
223.767	15.001	901.774	687.100
224.782	14.941	900.938	686.156
225.796	14.989	900.040	685.611
226.811	14.997	899.835	685.426
227.826	15.028	898.996	684.851
228.840	14.948	897.948	683.667
229.855	14.936	897.662	683.340
230.869	14.906	897.183	682.793
231.884	14.961	896.179	682.192
232.899	14.838	895.752	681.305
233.913	15.045	894.596	681.208
234.928	15.036	893.888	680.570
235.942	15.062	893.023	679.959
236.957	14.981	892.760	679.370
237.972	14.932	892.149	678.646
238.986	14.908	891.533	678.020
240.001	14.961	890.501	677.388
241.015	14.858	890.231	676.708
242.030	14.944	889.423	676.380
243.045	14.944	888.927	675.943
244.059	15.152	888.232	676.197
245.074	15.092	887.531	675.358
246.088	15.024	887.108	674.705
247.103	15.066	886.701	674.506
248.117	15.064	886.364	674.182
249.132	15.184	885.396	673.867
250.147	15.351	885.100	674.253
251.161	15.412	884.497	673.981
252.176	15.452	883.640	673.428
253.190	15.504	882.801	672.935
254.205	15.605	882.298	672.896
255.220	15.650	881.953	672.755
256.234	15.513	881.349	671.688
257.249	15.605	880.379	671.258
258.263	15.480	880.091	670.479
259.278	15.571	879.353	670.221
260.293	15.613	878.570	669.732
261.307	15.695	878.037	669.589
262.322	15.760	877.481	669.369
263.336	15.642	877.027	668.493
264.351	15.759	876.579	668.558
265.366	15.793	875.969	668.168
266.380	15.782	875.215	667.491
267.395	15.831	874.245	666.883
268.409	15.815	873.702	666.349
269.424	15.805	872.933	665.661
270.439	15.839	871.885	664.938
271.453	15.748	871.567	664.278
272.468	15.701	871.043	663.636
273.482	15.762	870.053	663.061
274.497	15.806	869.194	662.523
275.512	15.831	868.741	662.218
276.526	15.737	868.078	661.283
277.541	15.590	867.956	660.552
278.555	15.734	866.792	660.177
279.570	15.868	866.295	660.263
280.585	15.907	865.832	660.007
281.599	15.965	865.366	659.819
282.614	15.907	864.803	659.103
283.628	15.758	864.016	657.862
284.643	15.992	863.362	658.222
285.657	15.875	863.208	657.590
286.672	15.845	862.647	656.988
287.687	15.894	861.888	656.540
288.701	15.850	861.911	656.330
289.716	15.815	860.983	655.427
290.730	16.065	860.291	655.814
291.745	16.075	859.516	655.205
292.760	16.014	858.983	654.503
293.774	15.983	858.729	654.134
294.789	16.073	858.249	654.059
295.803	16.054	857.326	653.224
296.818	16.006	856.394	652.270
297.833	16.139	855.882	652.335
298.847	16.039	855.241	651.405
299.862	16.152	854.234	651.015
300.876	16.124	853.822	650.537
301.891	16.131	853.315	650.118
302.906	16.147	852.652	649.618
303.920	16.241	852.063	649.475
304.935	16.157	851.675	648.799
305.949	16.416	850.617	648.927
306.964	16.274	850.541	648.266
307.979	16.310	849.411	647.487
308.993	16.299	848.959	647.042
310.008	16.295	848.659	646.744
311.022	16.265	848.285	646.284
312.037	16.376	847.635	646.156
313.052	16.421	846.849	645.675
314.066	16.204	846.338	644.396
315.081	16.351	845.405	644.191
316.095	16.227	844.834	643.226
317.110	16.276	844.480	643.086
318.125	16.150	844.147	642.297
319.139	16.212	843.568	642.037
320.154	16.199	843.209	641.656
321.168	16.320	842.338	641.397
322.183	16.320	841.697	640.849
323.197	16.285	841.611	640.596
324.212	16.407	840.803	640.385
325.227	16.384	840.407	639.940
326.241	16.384	839.898	639.495
327.256	16.180	839.373	638.267
328.270	16.424	838.617	638.558
329.285	16.583	837.810	638.488
330.300	16.363	837.665	637.492
331.314	16.400	836.703	636.843
332.329	16.509	836.139	636.768
333.343	16.447	836.088	636.438
334.358	16.612	835.201	636.326
335.373	16.577	834.753	635.797
336.387	16.605	834.047	635.308
337.402	16.601	833.472	634.802
338.416	16.731	832.830	634.742
339.431	16.611	832.774	634.196
340.446	16.788	832.074	634.266
341.460	16.857	831.405	633.958
342.475	16.819	830.607	633.152
343.489	16.857	830.178	632.913
344.504	17.006	829.630	632.995
345.519	16.974	829.309	632.575
346.533	17.035	828.802	632.359
347.548	16.953	828.087	631.453
348.562	16.831	827.730	630.671
349.577	16.737	827.343	629.969
350.592	16.835	826.297	629.482
351.606	16.712	826.048	628.778
352.621	16.772	825.467	628.503
353.635	16.748	825.203	628.158
354.650	16.820	824.670	627.962
355.665	16.880	824.380	627.910
356.679	16.855	824.230	627.646
357.694	16.923	823.168	627.034
358.708	16.968	822.856	626.907
359.723	16.928	822.361	626.328
360.738	16.904	821.516	625.539
361.752	16.816	821.440	625.100
362.767	17.006	820.937	625.364
363.781	17.044	820.491	625.109
364.796	16.963	820.435	624.712
365.810	16.994	819.777	624.270
366.825	17.310	819.093	624.856
367.840	17.216	819.033	624.409
368.854	17.086	818.764	623.670
369.869	17.382	817.598	623.814
370.883	17.227	817.293	622.958
371.898	17.239	816.575	622.398
372.913	17.211	816.057	621.846
373.927	17.283	815.623	621.724
374.942	17.274	815.013	621.171
375.956	17.314	813.954	620.456
376.971	17.318	813.403	619.996
377.986	17.334	813.059	619.734
379.000	17.429	812.581	619.661
380.015	17.314	812.794	619.353
381.029	17.478	811.933	619.237
382.044	17.384	810.733	617.924
383.059	17.426	810.719	618.013
384.073	17.569	809.826	617.795
385.088	17.410	809.789	617.137
386.102	17.427	808.958	616.509
387.117	17.385	808.218	615.739
388.132	17.374	808.100	615.556
389.146	17.443	807.131	615.014
390.161	17.443	807.378	615.145
391.175	17.460	806.837	614.742
392.190	17.445	806.633	614.479
393.205	17.529	805.999	614.243
394.219	17.378	805.631	613.364
395.234	17.582	804.802	613.414
396.248	17.578	804.518	613.129
397.263	17.494	804.041	612.408
398.278	17.370	803.609	611.579
399.292	17.355	803.056	611.052
400.307	17.410	802.792	610.993
401.321	17.327	802.214	610.201
402.336	17.399	802.027	610.263
403.350	17.457	801.339	609.893
404.365	17.596	800.836	609.952
405.380	17.585	800.375	609.508
406.394	17.636	799.726	609.145
407.409	17.694	799.897	609.428
408.423	17.790	799.074	609.089
409.438	17.833	798.589	608.820
410.453	17.865	797.980	608.413
411.467	17.942	797.967	608.625
412.482	17.810	797.620	607.837
413.496	17.869	796.952	607.484
414.511	17.855	796.732	607.214
415.526	17.924	796.323	607.093
416.540	17.925	795.878	606.703
417.555	17.986	795.177	606.333
418.569	17.955	794.853	605.922
419.584	17.964	794.411	605.562
420.599	18.100	793.560	605.341
421.613	152.819	1368.646	1789.321
422.628	132.196	1452.435	1789.431
