DTS Sentinel unit serial number:	SN413079Multiplexer serial number:	ORYXHardware model number:	OX4-SRSoftware version number:	ORYX F/W v4.00 Oryx Data Collector v3.7.2.0data status	okinstallation	princeton_trtdifferential loss correction	single-endedforward channel	channel 3reverse channel	N/Adate	2019/09/13time	08:28:35forward acquisition time	60.00reverse acquisition time	0.00gamma	496.2192k internal	0.2332k external	0.2332temperature offset calibration	1.0140default loss term (dB/km)	0.3790temperature slope calibration	1.0000multiplexer offset coefficient	1.0000multiplexer slope coefficient	1.0000fibre end	0.00T internal ref (°C)	27.44T ext. ref 1 (°C)	4.26T ext. ref 2 (°C)	24.14length (m)	temperature (°C)	Stokes	anti-Stokes-747.200	132.582	0.148	0.192
-746.185	-21.921	0.176	-0.107
-745.171	330.647	-0.094	-0.181
-744.156	800.000	-0.049	0.145
-743.142	-37.582	-0.255	-0.137
-742.127	99.953	-0.153	0.178
-741.112	-85.780	0.222	0.069
-740.098	40.885	-0.235	0.214
-739.083	-152.912	0.134	-0.009
-738.069	-150.774	0.250	0.019
-737.054	-29.100	0.011	0.007
-736.039	46.838	-0.170	-0.159
-735.025	-200.000	-0.010	0.411
-734.010	-9.013	-0.139	-0.094
-732.996	-36.869	-0.106	-0.057
-731.981	-128.253	-0.352	-0.051
-730.966	-84.091	0.240	-0.077
-729.952	124.033	0.095	0.121
-728.937	58.942	0.097	-0.096
-727.923	-123.619	0.322	0.051
-726.908	0.023	-0.166	-0.119
-725.894	-17.070	0.301	-0.191
-724.879	113.890	-0.208	-0.254
-723.864	570.875	0.020	-0.048
-722.850	-200.000	-0.020	0.319
-721.835	-102.622	-0.022	-0.005
-720.821	-163.237	-0.302	-0.015
-719.806	-21.319	-0.081	-0.050
-718.791	15.956	-0.082	0.065
-717.777	-200.000	0.056	0.317
-716.762	-76.654	0.321	-0.113
-715.748	-17.890	-0.140	-0.089
-714.733	-92.528	-0.222	0.063
-713.718	-96.333	-0.108	0.029
-712.704	-86.445	0.095	-0.029
-711.689	-31.810	0.060	0.034
-710.675	-73.867	-0.456	-0.166
-709.660	180.682	0.105	-0.155
-708.645	27.738	-0.095	-0.080
-707.631	112.567	-0.168	0.204
-706.616	-76.604	-0.311	-0.110
-705.602	125.054	0.269	0.341
-704.587	90.092	0.164	0.184
-703.572	25.012	0.129	-0.108
-702.558	-200.000	0.018	-0.116
-701.543	545.603	-0.047	-0.112
-700.529	-46.487	-0.204	-0.100
-699.514	-75.006	0.101	0.036
-698.499	-200.000	-0.033	0.188
-697.485	79.193	0.062	-0.066
-696.470	68.208	0.161	-0.166
-695.456	-130.926	0.171	-0.023
-694.441	-31.238	-0.491	0.278
-693.426	226.875	0.182	-0.297
-692.412	-124.253	0.174	-0.027
-691.397	-137.018	-0.566	0.065
-690.383	-200.000	0.030	0.159
-689.368	-20.716	0.187	0.115
-688.354	-123.773	-0.127	-0.020
-687.339	-200.000	0.035	0.318
-686.324	37.320	-0.020	-0.018
-685.310	63.469	-0.117	0.118
-684.295	423.680	0.076	0.163
-683.281	-200.000	-0.005	0.123
-682.266	-200.000	-0.001	-0.186
-681.251	-155.585	-0.045	0.003
-680.237	800.000	-0.059	0.246
-679.222	-27.296	0.035	0.020
-678.208	-200.000	-0.063	0.371
-677.193	631.592	-0.047	0.118
-676.178	-123.624	0.167	-0.027
-675.164	-200.000	-0.017	-0.168
-674.149	-117.569	-0.153	0.028
-673.135	68.074	0.181	-0.186
-672.120	-200.000	0.001	-0.107
-671.105	-166.943	-0.146	-0.006
-670.091	-124.830	0.023	0.004
-669.076	-5.282	-0.077	-0.053
-668.062	-65.644	0.041	-0.016
-667.047	-55.590	0.024	-0.011
-666.032	-15.257	0.190	0.122
-665.018	166.421	0.132	-0.188
-664.003	47.241	0.189	0.176
-662.989	38.570	0.220	-0.196
-661.974	3.568	0.155	0.114
-660.959	123.438	0.167	0.211
-659.945	119.254	0.218	-0.270
-658.930	14.726	-0.306	0.240
-657.916	-200.000	0.011	-0.371
-656.901	168.235	0.167	0.238
-655.886	233.258	0.082	0.135
-654.872	-200.000	0.000	-0.103
-653.857	238.190	-0.024	-0.041
-652.843	86.400	-0.210	-0.232
-651.828	-112.751	0.199	0.040
-650.814	765.385	-0.010	0.026
-649.799	-124.234	-0.096	-0.015
-648.784	-25.140	0.075	0.045
-647.770	-3.659	0.052	-0.036
-646.755	800.000	0.013	0.037
-645.741	-101.528	0.139	-0.034
-644.726	113.792	-0.208	0.253
-643.711	-85.586	-0.319	0.099
-642.697	800.000	0.084	-0.280
-641.682	-2.874	0.256	0.179
-640.668	-76.700	-0.108	-0.038
-639.653	-191.795	-0.180	-0.002
-638.638	23.545	0.072	0.059
-637.624	490.019	-0.172	0.395
-636.609	-200.000	0.049	0.229
-635.595	708.587	0.068	-0.180
-634.580	-15.830	0.218	0.139
-633.565	27.129	-0.237	0.199
-632.551	-22.515	0.181	0.109
-631.536	-200.000	-0.014	-0.328
-630.522	-200.000	0.032	-0.221
-629.507	-200.000	0.006	0.148
-628.492	-200.000	-0.041	0.270
-627.478	-172.257	-0.070	0.002
-626.463	-200.000	-0.023	0.138
-625.449	800.000	-0.088	-0.340
-624.434	-123.445	-0.225	-0.036
-623.419	800.000	0.041	0.152
-622.405	415.259	0.133	0.283
-621.390	-200.000	0.008	0.186
-620.376	-133.885	0.229	0.028
-619.361	-58.574	-0.103	0.045
-618.346	482.110	0.166	-0.377
-617.332	-200.000	0.018	-0.094
-616.317	-126.925	-0.414	-0.061
-615.303	-47.013	-0.154	0.075
-614.288	-58.372	-0.342	-0.149
-613.273	-125.430	-0.157	0.024
-612.259	-41.951	-0.066	-0.034
-611.244	559.095	0.108	-0.261
-610.230	-153.960	0.062	-0.004
-609.215	800.000	-0.053	0.188
-608.201	425.438	-0.027	0.058
-607.186	-200.000	0.003	-0.338
-606.171	9.749	-0.249	-0.189
-605.157	-200.000	-0.018	-0.098
-604.142	192.379	-0.091	-0.137
-603.128	-17.582	0.195	-0.123
-602.113	-200.000	-0.003	0.045
-601.098	-109.603	0.441	0.093
-600.084	800.000	0.052	0.222
-599.069	-3.390	-0.168	-0.117
-598.055	-142.314	-0.085	0.008
-597.040	56.802	-0.163	0.159
-596.025	-0.647	-0.048	-0.034
-595.011	-200.000	0.037	-0.361
-593.996	-6.064	-0.160	0.110
-592.982	-48.762	-0.425	-0.204
-591.967	104.144	-0.059	0.070
-590.952	30.795	0.061	-0.053
-589.938	-41.136	0.322	0.166
-588.923	640.968	0.086	-0.219
-587.909	209.827	0.160	0.250
-586.894	800.000	-0.032	-0.092
-585.879	-200.000	-0.028	-0.166
-584.865	-93.793	0.224	-0.062
-583.850	702.721	-0.055	-0.145
-582.836	85.061	-0.177	0.194
-581.821	105.039	0.150	0.177
-580.806	185.743	0.042	-0.062
-579.792	94.540	-0.201	0.228
-578.777	-92.584	0.151	0.042
-577.763	721.455	-0.044	0.116
-576.748	360.530	0.039	0.078
-575.733	437.021	-0.097	0.212
-574.719	-200.000	-0.029	0.271
-573.704	-200.000	-0.018	0.000
-572.690	137.931	-0.083	0.108
-571.675	800.000	0.072	-0.215
-570.661	-200.000	0.008	0.101
-569.646	325.240	-0.150	0.287
-568.631	304.344	0.107	-0.199
-567.617	75.783	-0.174	0.184
-566.602	441.087	-0.158	-0.345
-565.588	-92.107	0.256	0.072
-564.573	-104.595	-0.317	-0.073
-563.558	800.000	-0.098	-0.428
-562.544	-172.137	-0.304	-0.010
-561.529	-200.000	-0.018	-0.207
-560.515	-43.385	0.027	0.014
-559.500	-77.866	-0.141	-0.049
-558.485	-113.880	-0.465	-0.090
-557.471	53.038	0.164	0.157
-556.456	-200.000	-0.014	0.087
-555.442	215.565	0.040	-0.064
-554.427	10.678	-0.167	-0.127
-553.412	62.230	-0.101	0.101
-552.398	-85.584	-0.306	0.095
-551.383	79.606	0.124	-0.132
-550.369	737.260	-0.119	0.319
-549.354	800.000	-0.061	-0.203
-548.339	-50.734	0.217	0.102
-547.325	310.585	-0.156	-0.291
-546.310	252.033	0.072	-0.123
-545.296	-2.584	-0.116	-0.081
-544.281	800.000	-0.102	-0.391
-543.266	424.546	-0.020	-0.043
-542.252	-200.000	0.044	-0.197
-541.237	102.887	-0.211	-0.246
-540.223	-72.317	-0.049	0.018
-539.208	-142.353	-0.330	0.032
-538.193	-46.512	0.094	0.046
-537.179	-200.000	0.062	-0.291
-536.164	-9.493	0.411	-0.274
-535.150	-140.603	0.208	0.021
-534.135	-35.401	-0.129	0.070
-533.121	-192.398	0.122	0.001
-532.106	132.468	0.206	-0.265
-531.091	104.284	-0.140	0.165
-530.077	-200.000	0.020	0.307
-529.062	-3.231	-0.102	0.071
-528.048	-183.753	0.315	0.005
-527.033	-17.598	-0.043	0.027
-526.018	233.722	0.118	-0.193
-525.004	319.057	-0.118	0.222
-523.989	-28.168	-0.182	-0.105
-522.975	-99.367	0.163	0.041
-521.960	-38.676	0.184	-0.097
-520.945	-153.353	0.236	-0.016
-519.931	186.265	0.149	0.221
-518.916	299.744	-0.129	-0.237
-517.902	800.000	0.056	-0.240
-516.887	766.367	-0.036	0.099
-515.872	-14.686	0.268	0.172
-514.858	-200.000	0.011	0.049
-513.843	84.060	0.046	0.050
-512.829	-200.000	-0.005	0.213
-511.814	141.522	0.189	0.250
-510.799	-109.177	-0.149	0.032
-509.785	-82.657	0.099	0.032
-508.770	-170.861	-0.166	-0.006
-507.756	-27.434	0.169	0.098
-506.741	630.405	0.031	-0.077
-505.726	-200.000	-0.009	-0.153
-504.712	-48.247	-0.188	-0.090
-503.697	800.000	0.042	-0.138
-502.683	-200.000	-0.038	-0.272
-501.668	275.468	-0.048	0.085
-500.653	87.999	-0.064	0.071
-499.639	-200.000	-0.049	-0.309
-498.624	-93.633	0.149	0.041
-497.610	-200.000	-0.007	-0.231
-496.595	634.302	-0.026	-0.066
-495.581	-5.387	0.237	0.162
-494.566	-9.561	0.259	0.172
-493.551	728.077	-0.086	0.229
-492.537	198.529	-0.261	-0.398
-491.522	-200.000	0.061	0.308
-490.508	-200.000	0.045	-0.224
-489.493	162.140	0.221	0.309
-488.478	-85.203	0.303	0.094
-487.464	315.915	-0.164	0.308
-486.449	-24.830	0.125	0.074
-485.435	-93.905	-0.091	-0.025
-484.420	-118.565	0.438	0.077
-483.405	-12.474	0.180	-0.117
-482.391	800.000	0.040	-0.124
-481.376	-16.757	-0.172	-0.109
-480.362	800.000	0.020	-0.088
-479.347	800.000	-0.141	-0.464
-478.332	-200.000	0.005	-0.188
-477.318	-111.736	-0.178	0.036
-476.303	323.737	0.082	0.156
-475.289	-69.951	0.146	0.055
-474.274	-126.461	-0.129	0.019
-473.259	350.467	-0.075	0.147
-472.245	455.277	0.019	-0.043
-471.230	417.275	-0.082	0.173
-470.216	-32.790	-0.229	-0.127
-469.201	-24.315	0.243	0.144
-468.186	464.733	-0.131	-0.291
-467.172	50.519	0.158	-0.148
-466.157	86.469	-0.117	0.128
-465.143	14.704	0.045	-0.035
-464.128	51.893	-0.118	-0.112
-463.113	48.806	-0.193	-0.180
-462.099	-138.168	0.141	0.016
-461.084	-200.000	0.027	-0.256
-460.070	-150.808	0.338	0.025
-459.055	-8.381	-0.507	-0.339
-458.040	-125.056	-0.074	-0.011
-457.026	-137.187	0.322	-0.037
-456.011	-116.875	0.186	-0.034
-454.997	63.658	0.150	0.150
-453.982	-200.000	0.022	-0.230
-452.968	306.395	-0.059	-0.109
-451.953	800.000	0.088	0.248
-450.938	73.037	0.123	-0.128
-449.924	456.452	-0.070	0.155
-448.909	-148.283	0.330	-0.027
-447.895	107.234	0.102	0.121
-446.880	-186.806	0.213	-0.003
-445.865	-72.559	0.156	0.057
-444.851	1.887	-0.057	0.041
-443.836	87.899	-0.075	0.083
-442.822	223.035	-0.097	0.155
-441.807	145.985	-0.046	-0.062
-440.792	98.221	-0.104	0.119
-439.778	800.000	0.095	0.308
-438.763	86.462	0.085	-0.093
-437.749	800.000	0.082	-0.302
-436.734	103.485	-0.143	-0.167
-435.719	670.539	-0.153	-0.394
-434.705	800.000	-0.112	-0.471
-433.690	483.820	0.065	-0.147
-432.676	-120.160	-0.446	0.076
-431.661	800.000	0.038	-0.143
-430.646	259.076	0.130	0.222
-429.632	-200.000	0.005	0.099
-428.617	88.719	-0.193	-0.213
-427.603	-89.356	0.205	0.060
-426.588	-200.000	0.038	0.188
-425.573	800.000	-0.065	-0.187
-424.559	255.339	-0.167	0.283
-423.544	119.568	0.067	-0.082
-422.530	-200.000	0.005	-0.117
-421.515	222.800	0.073	-0.117
-420.500	202.556	-0.104	-0.160
-419.486	449.291	-0.164	0.359
-418.471	-178.955	0.397	-0.009
-417.457	142.906	0.049	0.064
-416.442	-200.000	-0.083	-0.364
-415.428	-200.000	-0.037	0.386
-414.413	185.837	-0.080	-0.118
-413.398	-145.715	0.129	0.011
-412.384	61.656	-0.072	-0.071
-411.369	-4.057	0.061	0.042
-410.355	800.000	0.034	0.143
-409.340	-122.892	0.142	-0.023
-408.325	-123.916	-0.178	0.028
-407.311	237.221	0.004	-0.007
-406.296	126.629	-0.128	-0.161
-405.282	-109.193	0.191	0.040
-404.267	154.931	-0.098	0.134
-403.252	-33.132	-0.274	0.151
-402.238	-86.454	-0.202	0.062
-401.223	-46.078	-0.146	-0.071
-400.209	-52.986	-0.392	0.179
-399.194	104.149	0.049	0.057
-398.179	-121.780	0.108	0.018
-397.165	79.200	0.131	0.140
-396.150	-13.625	-0.146	0.094
-395.136	61.433	0.100	0.099
-394.121	-200.000	-0.006	0.035
-393.106	-170.812	-0.282	0.010
-392.092	-200.000	-0.048	0.229
-391.077	800.000	-0.025	0.098
-390.063	-44.600	-0.182	0.090
-389.048	-200.000	0.020	-0.182
-388.033	61.443	-0.082	0.081
-387.019	-200.000	0.015	-0.089
-386.004	-46.356	-0.380	0.185
-384.990	-32.512	0.049	0.027
-383.975	-122.552	0.217	-0.035
-382.960	184.045	-0.130	-0.191
-381.946	800.000	-0.106	0.458
-380.931	10.012	-0.129	-0.097
-379.917	-49.113	0.392	-0.186
-378.902	800.000	-0.069	-0.218
-377.888	-34.088	-0.224	-0.122
-376.873	57.942	0.066	0.064
-375.858	-200.000	0.030	0.188
-374.844	-31.470	-0.217	0.121
-373.829	18.962	0.038	-0.030
-372.815	443.962	0.060	-0.131
-371.800	-75.403	0.138	-0.049
-370.785	262.077	-0.028	0.049
-369.771	-200.000	0.042	0.229
-368.756	-14.175	0.172	0.110
-367.742	800.000	0.059	0.207
-366.727	65.407	-0.128	0.129
-365.712	527.451	0.206	0.482
-364.698	-200.000	0.015	-0.180
-363.683	-200.000	-0.035	0.205
-362.669	-19.380	-0.102	-0.063
-361.654	-49.142	-0.153	-0.072
-360.639	31.789	0.233	0.199
-359.625	301.021	-0.065	0.120
-358.610	-8.012	0.257	-0.172
-357.596	-200.000	0.003	-0.101
-356.581	-113.412	0.294	-0.057
-355.566	-13.558	-0.188	-0.121
-354.552	800.000	0.065	-0.221
-353.537	598.376	0.071	0.174
-352.523	104.657	0.056	0.065
-351.508	-29.876	-0.146	-0.083
-350.493	145.457	0.070	0.093
-349.479	-200.000	0.017	-0.250
-348.464	-18.744	0.123	-0.076
-347.450	65.826	-0.165	-0.165
-346.435	17.446	0.205	0.161
-345.420	-1.452	0.068	-0.048
-344.406	-74.622	-0.070	-0.025
-343.391	-200.000	-0.025	0.185
-342.377	53.082	0.115	-0.109
-341.362	-69.421	-0.328	-0.125
-340.348	-16.960	-0.225	0.140
-339.333	-200.000	-0.003	-0.053
-338.318	13.977	0.179	0.138
-337.304	98.254	-0.212	-0.242
-336.289	-44.528	0.271	-0.134
-335.275	72.167	0.066	0.068
-334.260	-60.400	-0.072	-0.030
-333.245	566.852	0.093	0.223
-332.231	-40.760	0.273	0.140
-331.216	168.007	0.144	-0.203
-330.202	124.763	-0.158	0.197
-329.187	-71.570	0.252	-0.093
-328.172	-200.000	-0.023	-0.328
-327.158	-200.000	0.038	-0.290
-326.143	-1.533	0.168	0.118
-325.129	-200.000	-0.002	0.261
-324.114	-200.000	-0.022	-0.229
-323.099	-200.000	-0.052	0.260
-322.085	577.447	-0.147	-0.355
-321.070	77.470	0.235	-0.247
-320.056	115.633	-0.208	-0.252
-319.041	-119.334	0.055	-0.009
-318.026	-177.767	-0.145	-0.003
-317.012	800.000	0.032	0.098
-315.997	-139.005	0.228	0.024
-314.983	57.598	0.118	0.114
-313.968	498.451	0.075	0.172
-312.953	-137.146	-0.076	-0.009
-311.939	-180.551	-0.100	0.002
-310.924	-16.991	0.092	-0.057
-309.910	217.487	0.073	-0.114
-308.895	-200.000	-0.048	-0.357
-307.880	122.713	-0.104	0.129
-306.866	495.296	-0.126	0.286
-305.851	4.976	-0.157	0.114
-304.837	-67.705	0.310	0.120
-303.822	376.026	0.253	0.511
-302.807	142.587	0.066	-0.086
-301.793	9.753	-0.127	0.095
-300.778	-60.997	0.155	0.065
-299.764	-200.000	0.070	-0.307
-298.749	42.672	-0.118	0.106
-297.735	110.615	-0.235	0.279
-296.720	-12.025	0.030	0.019
-295.705	58.799	0.173	-0.168
-294.691	-80.153	0.092	0.030
-293.676	-95.722	-0.070	0.018
-292.662	291.004	0.126	0.226
-291.647	7.449	-0.062	0.046
-290.632	341.109	-0.133	0.256
-289.618	-93.795	-0.172	-0.047
-288.603	349.839	-0.085	-0.165
-287.589	-137.889	-0.142	-0.016
-286.574	-7.986	0.289	-0.193
-285.559	74.104	-0.198	0.206
-284.545	17.226	0.221	0.173
-283.530	5.630	0.178	-0.130
-282.516	-165.132	-0.234	0.010
-281.501	-73.189	-0.100	-0.036
-280.486	23.274	0.038	0.031
-279.472	800.000	-0.035	0.147
-278.457	44.087	0.056	0.050
-277.443	78.684	-0.151	-0.159
-276.428	-118.321	-0.220	0.039
-275.413	-158.466	0.093	0.005
-274.399	800.000	-0.014	0.047
-273.384	-37.155	0.234	0.124
-272.370	22.152	0.203	0.164
-271.355	-200.000	0.009	-0.184
-270.340	151.324	-0.075	-0.101
-269.326	-68.082	0.234	0.090
-268.311	13.686	0.080	-0.061
-267.297	-33.763	0.160	0.087
-266.282	99.819	0.131	0.150
-265.267	291.438	0.117	0.210
-264.253	800.000	-0.148	-0.434
-263.238	-167.777	-0.146	-0.006
-262.224	-200.000	0.023	-0.181
-261.209	-75.981	-0.260	0.091
-260.195	559.101	-0.182	0.435
-259.180	224.952	0.083	-0.132
-258.165	800.000	-0.103	-0.329
-257.151	85.044	-0.229	0.247
-256.136	350.299	0.226	-0.441
-255.122	-58.778	-0.296	-0.127
-254.107	-200.000	-0.026	-0.155
-253.092	266.213	0.180	-0.311
-252.078	-9.686	0.166	-0.109
-251.063	-56.347	0.228	0.100
-250.049	-20.892	-0.063	-0.038
-249.034	771.316	-0.090	-0.241
-248.019	800.000	-0.016	-0.068
-247.005	-56.003	-0.023	-0.010
-245.990	87.090	-0.119	0.130
-244.976	-6.377	0.302	-0.203
-243.961	-182.843	0.209	-0.004
-242.946	-16.498	-0.164	0.102
-241.932	-14.279	0.146	-0.093
-240.917	-200.000	-0.033	-0.230
-239.903	267.347	-0.039	-0.067
-238.888	800.000	-0.104	0.417
-237.873	111.661	0.179	0.213
-236.859	-200.000	0.071	0.347
-235.844	-143.151	-0.059	0.006
-234.830	-53.214	-0.164	-0.074
-233.815	-95.979	-0.118	0.031
-232.800	-94.161	-0.066	0.018
-231.786	93.360	0.102	-0.114
-230.771	800.000	0.056	-0.236
-229.757	6.850	0.166	0.122
-228.742	-200.000	-0.023	-0.171
-227.727	-17.317	0.080	0.049
-226.713	-168.586	-0.195	-0.007
-225.698	-37.928	-0.164	0.086
-224.684	156.256	0.082	-0.111
-223.669	162.376	-0.142	-0.196
-222.655	129.623	-0.038	-0.048
-221.640	49.755	0.145	0.134
-220.625	-200.000	-0.006	0.465
-219.611	134.444	-0.058	-0.074
-218.596	-118.061	-0.037	0.006
-217.582	-53.878	-0.115	-0.052
-216.567	-200.000	-0.005	-0.213
-215.552	104.128	-0.140	-0.162
-214.538	79.290	-0.090	-0.095
-213.523	800.000	-0.073	0.274
-212.509	-189.435	0.500	0.006
-211.494	-156.679	-0.151	0.009
-210.479	800.000	-0.045	0.128
-209.465	219.028	0.056	0.089
-208.450	-84.243	-0.089	0.028
-207.436	87.937	-0.213	-0.233
-206.421	-19.422	0.252	0.154
-205.406	800.000	0.109	0.334
-204.392	501.337	-0.066	0.151
-203.377	-28.843	0.128	0.072
-202.363	-54.167	0.162	-0.072
-201.348	-200.000	0.013	0.298
-200.333	-57.177	0.423	0.183
-199.319	-200.000	-0.042	0.308
-198.304	-200.000	-0.026	0.208
-197.290	-159.271	-0.473	0.026
-196.275	-51.247	0.069	0.032
-195.260	-161.695	-0.085	-0.004
-194.246	135.807	-0.098	0.126
-193.231	-112.872	0.079	0.015
-192.217	-81.907	-0.098	-0.032
-191.202	-76.869	0.392	-0.135
-190.187	-60.773	0.139	-0.058
-189.173	-53.525	0.233	0.105
-188.158	176.704	0.236	0.338
-187.144	233.667	0.132	-0.213
-186.129	-19.432	-0.160	0.098
-185.114	-126.710	0.056	-0.008
-184.100	-200.000	-0.028	-0.180
-183.085	-63.377	-0.195	0.079
-182.071	-200.000	-0.005	-0.179
-181.056	-96.077	-0.185	0.048
-180.042	-35.225	-0.159	-0.085
-179.027	368.438	0.120	0.240
-178.012	-101.385	-0.304	-0.073
-176.998	-140.057	-0.178	0.018
-175.983	0.570	-0.209	-0.147
-174.969	-59.084	0.192	-0.082
-173.954	-93.281	-0.169	0.046
-172.939	-150.488	0.327	0.025
-171.925	-200.000	0.062	0.300
-170.910	-161.360	-0.175	-0.009
-169.896	-71.900	0.197	0.072
-168.881	-41.964	0.068	-0.034
-167.866	-88.141	-0.157	-0.046
-166.852	-156.715	0.303	0.018
-165.837	-200.000	0.000	0.142
-164.823	-71.279	0.050	0.018
-163.808	-200.000	-0.044	0.208
-162.793	-65.215	0.344	-0.136
-161.779	149.729	-0.132	-0.176
-160.764	21.137	-0.074	0.059
-159.750	-200.000	-0.005	0.032
-158.735	-88.292	-0.166	0.049
-157.720	21.175	-0.234	-0.187
-156.706	-44.767	0.134	0.066
-155.691	323.610	0.011	-0.021
-154.677	-167.680	0.244	0.010
-153.662	743.317	-0.070	-0.185
-152.647	264.289	0.047	-0.081
-151.633	149.047	0.219	-0.292
-150.618	-95.021	-0.376	-0.100
-149.604	151.873	0.223	0.299
-148.589	47.722	-0.168	-0.154
-147.574	-200.000	0.029	-0.242
-146.560	-15.559	-0.021	-0.013
-145.545	109.396	0.081	0.096
-144.531	497.864	0.170	0.384
-143.516	348.169	0.122	0.236
-142.502	4.271	0.242	-0.174
-141.487	800.000	-0.095	0.277
-140.472	-181.339	-0.145	-0.003
-139.458	214.124	-0.038	-0.059
-138.443	546.936	0.092	0.216
-137.429	800.000	0.071	0.195
-136.414	729.468	0.083	-0.219
-135.399	255.328	0.049	-0.083
-134.385	-200.000	0.019	0.234
-133.370	-94.427	0.264	-0.071
-132.356	-70.989	-0.070	0.026
-131.341	54.021	0.094	-0.089
-130.326	-102.175	-0.149	0.035
-129.312	-50.330	-0.119	-0.055
-128.297	-81.066	0.292	-0.095
-127.283	56.175	0.045	0.043
-126.268	12.930	0.299	-0.227
-125.253	-200.000	0.014	0.137
-124.239	704.532	-0.056	0.144
-123.224	800.000	-0.045	0.177
-122.210	-200.000	-0.041	-0.237
-121.195	143.758	0.118	0.154
-120.180	-117.209	-0.255	-0.046
-119.166	-42.640	0.242	-0.121
-118.151	-18.669	-0.072	-0.044
-117.137	-16.511	0.184	-0.114
-116.122	-28.381	0.425	0.241
-115.107	35.994	-0.152	0.131
-114.093	-200.000	-0.012	0.268
-113.078	-161.126	0.234	0.012
-112.064	196.656	0.128	0.191
-111.049	-110.334	-0.474	-0.097
-110.034	200.917	-0.118	-0.178
-109.020	164.598	0.128	-0.177
-108.005	-166.053	-0.185	-0.008
-106.991	12.662	-0.195	0.148
-105.976	5.596	-0.243	-0.176
-104.962	-62.157	-0.242	-0.099
-103.947	-114.619	0.535	0.101
-102.932	54.356	-0.101	0.095
-101.918	-33.466	0.172	0.093
-100.903	-91.593	0.035	0.010
-99.889	-5.450	-0.238	0.161
-98.874	112.773	-0.074	-0.088
-97.859	784.283	0.111	-0.299
-96.845	-110.820	-0.242	0.049
-95.830	286.162	0.251	-0.443
-94.816	378.907	0.104	0.208
-93.801	78.063	0.067	0.070
-92.786	800.000	0.052	-0.206
-91.772	-117.939	-0.168	-0.030
-90.757	-200.000	-0.282	0.001
-89.743	-119.990	-0.151	0.025
-88.728	142.410	-0.201	0.261
-87.713	10.287	0.136	0.102
-86.699	16.179	-0.348	-0.269
-85.684	-194.698	-0.192	-0.001
-84.670	369.495	0.112	0.223
-83.655	42.087	0.320	-0.285
-82.640	-47.587	-0.144	-0.068
-81.626	-200.000	-0.037	0.316
-80.611	94.044	0.106	-0.117
-79.597	5.120	-0.133	-0.096
-78.582	-114.146	0.181	-0.034
-77.567	-110.557	0.213	-0.043
-76.553	-59.374	-0.300	-0.127
-75.538	-105.387	0.146	-0.033
-74.524	800.000	0.057	0.210
-73.509	-200.000	0.085	-0.525
-72.494	-172.271	0.197	0.006
-71.480	-74.648	-0.226	-0.080
-70.465	170.143	0.126	0.177
-69.451	-148.444	0.229	0.018
-68.436	-24.415	-0.377	-0.220
-67.422	136.866	0.032	0.041
-66.407	800.000	0.065	-0.264
-65.392	-200.000	-0.003	0.239
-64.378	50.037	-0.043	-0.040
-63.363	800.000	0.111	0.316
-62.349	800.000	0.069	-0.191
-61.334	273.940	-0.722	-1.250
-60.319	155.217	0.386	0.519
-59.305	52.081	-0.927	-0.865
-58.290	800.000	0.368	1.435
-57.276	297.979	0.879	1.581
-56.261	-200.000	112.812	637.120
-55.246	525.891	1529.494	3526.315
-54.232	176.580	2699.568	3842.083
-53.217	108.120	2186.544	2552.540
-52.203	38.189	1710.267	1490.396
-51.188	30.591	1528.615	1279.983
-50.173	28.336	1503.692	1243.774
-49.159	52.224	1562.663	1458.510
-48.144	50.584	1577.467	1460.938
-47.130	30.738	1533.369	1284.778
-46.115	27.624	1518.576	1251.001
-45.100	27.552	1514.840	1247.380
-44.086	27.594	1513.144	1246.223
-43.071	27.446	1511.079	1243.460
-42.057	27.372	1509.990	1242.007
-41.042	27.501	1508.070	1241.263
-40.027	27.555	1506.134	1239.989
-39.013	27.360	1505.421	1238.024
-37.998	27.356	1503.615	1236.460
-36.984	27.402	1502.463	1235.774
-35.969	27.403	1501.456	1234.908
-34.954	27.400	1500.105	1233.729
-33.940	27.482	1498.559	1232.960
-32.925	27.465	1497.298	1231.758
-31.911	27.410	1495.795	1230.100
-30.896	27.501	1494.429	1229.545
-29.881	27.532	1493.150	1228.654
-28.867	27.479	1491.987	1227.291
-27.852	27.387	1490.753	1225.607
-26.838	27.501	1489.669	1225.437
-25.823	27.551	1487.649	1224.061
-24.809	27.501	1485.985	1222.305
-23.794	27.418	1485.295	1221.135
-22.779	27.461	1483.756	1220.108
-21.765	27.470	1482.746	1219.292
-20.750	27.605	1481.666	1219.254
-19.736	27.418	1480.641	1217.112
-18.721	27.460	1479.247	1216.199
-17.706	27.498	1478.207	1215.548
-16.692	27.425	1476.973	1214.003
-15.677	27.503	1476.255	1213.881
-14.663	27.446	1475.153	1212.546
-13.648	27.391	1474.451	1211.559
-12.633	27.430	1473.214	1210.751
-11.619	27.394	1472.482	1209.862
-10.604	27.421	1471.507	1209.193
-9.590	27.407	1470.965	1208.609
-8.575	27.417	1470.137	1207.944
-7.560	27.527	1468.744	1207.478
-6.546	27.338	1468.381	1205.880
-5.531	27.338	1467.459	1205.075
-4.517	27.360	1466.698	1204.552
-3.502	27.481	1464.687	1203.651
-2.487	27.390	1464.273	1202.659
-1.473	27.369	1463.138	1201.543
-0.458	27.363	1462.063	1200.572
0.556	29.366	1452.512	1191.010
1.571	26.655	1427.400	1153.081
2.586	23.251	1367.110	1083.491
3.600	21.777	1283.825	1008.914
4.615	20.139	1238.389	964.020
5.629	17.420	1181.718	905.377
6.644	10.513	1099.040	807.668
7.659	5.168	1061.464	754.216
8.673	4.502	1055.715	746.860
9.688	4.218	1052.580	743.217
10.702	4.084	1050.648	741.147
11.717	4.257	1049.102	740.815
12.731	6.742	1051.649	754.438
13.746	14.218	1061.575	797.436
14.761	20.331	1069.528	832.757
15.775	21.918	1071.229	841.625
16.790	21.629	1069.439	838.761
17.804	20.697	1067.188	832.465
18.819	19.812	1065.816	827.092
19.834	19.527	1064.183	824.392
20.848	19.428	1063.402	823.242
21.863	19.489	1062.958	823.113
22.877	19.173	1062.420	821.117
23.892	18.970	1061.568	819.420
24.907	18.929	1060.933	818.661
25.921	18.989	1059.842	818.035
26.936	18.946	1059.054	817.151
27.950	18.980	1057.801	816.268
28.965	18.928	1057.058	815.380
29.980	19.076	1055.747	814.994
30.994	19.179	1054.950	814.798
32.009	19.280	1054.405	814.781
33.023	19.248	1053.416	813.795
34.038	19.205	1053.115	813.286
35.053	19.196	1051.905	812.237
36.067	19.041	1050.281	810.183
37.082	18.982	1049.615	809.317
38.096	19.087	1048.883	809.177
39.111	19.101	1048.540	808.906
40.126	19.305	1047.498	808.988
41.140	19.131	1046.344	807.210
42.155	18.709	1045.130	804.222
43.169	18.507	1044.372	802.624
44.184	18.507	1042.487	801.105
45.199	18.599	1041.679	800.843
46.213	18.531	1041.032	799.955
47.228	18.732	1040.160	800.153
48.242	18.876	1039.470	800.222
49.257	18.999	1038.956	800.327
50.271	19.162	1037.471	799.870
51.286	18.903	1036.962	798.202
52.301	19.095	1036.237	798.467
53.315	19.069	1035.721	797.878
54.330	18.990	1034.604	796.579
55.344	18.802	1033.233	794.586
56.359	18.728	1032.633	793.709
57.374	18.774	1031.667	793.109
58.388	18.827	1030.766	792.591
59.403	18.587	1030.260	791.027
60.417	18.430	1029.318	789.511
61.432	18.400	1028.606	788.756
62.447	18.428	1028.357	788.623
63.461	18.464	1026.974	787.661
64.476	18.472	1025.802	786.726
65.490	18.315	1025.384	785.615
66.505	18.211	1024.469	784.369
67.520	18.338	1023.345	784.020
68.534	18.483	1022.871	784.254
69.549	18.477	1021.938	783.439
70.563	18.367	1021.440	782.486
71.578	18.221	1020.788	781.253
72.593	18.259	1019.420	780.310
73.607	18.172	1018.389	779.055
74.622	18.070	1017.484	777.830
75.636	18.122	1016.688	777.388
76.651	18.276	1016.095	777.563
77.666	18.170	1015.355	776.449
78.680	18.230	1014.467	775.972
79.695	18.244	1014.000	775.611
80.709	18.381	1013.450	775.742
81.724	18.447	1012.572	775.300
82.739	18.583	1011.912	775.339
83.753	18.644	1011.474	775.213
84.768	18.882	1010.926	775.798
85.782	19.122	1010.353	776.371
86.797	19.414	1009.736	777.145
87.812	19.508	1008.874	776.835
88.826	19.132	1008.172	774.535
89.841	19.029	1007.208	773.263
90.855	19.191	1006.134	773.097
91.870	19.310	1005.655	773.196
92.884	19.335	1005.144	772.844
93.899	19.292	1004.313	771.947
94.914	19.191	1003.672	770.931
95.928	19.282	1003.107	770.838
96.943	19.466	1001.841	770.620
97.957	19.279	1000.805	768.917
98.972	19.233	999.832	767.897
99.987	19.121	999.557	767.121
101.001	19.292	998.398	766.925
102.016	19.309	997.909	766.557
103.030	19.096	997.017	764.857
104.045	19.281	996.188	764.973
105.060	19.302	995.082	764.152
106.074	19.151	994.211	762.745
107.089	18.916	992.694	760.472
108.103	18.571	992.053	758.391
109.118	18.488	990.861	757.046
110.133	18.308	990.164	755.653
111.147	18.347	988.954	754.834
112.162	18.443	987.954	754.426
113.176	18.521	987.412	754.286
114.191	18.504	986.913	753.765
115.206	18.735	985.937	753.967
116.220	18.719	985.024	753.131
117.235	18.598	984.169	751.883
118.249	18.424	984.067	750.976
119.264	18.438	982.740	749.957
120.279	18.564	981.229	749.290
121.293	18.282	981.269	748.019
122.308	18.478	979.994	747.836
123.322	18.181	979.349	745.986
124.337	18.113	978.495	744.973
125.352	18.124	976.813	743.675
126.366	18.106	976.193	743.057
127.381	18.051	975.150	741.957
128.395	18.234	973.801	741.659
129.410	18.207	973.079	740.928
130.424	18.225	972.629	740.599
131.439	18.213	971.503	739.623
132.454	18.466	970.806	740.120
133.468	18.638	970.018	740.193
134.483	18.621	969.328	739.531
135.497	18.645	968.802	739.165
136.512	18.594	968.300	738.500
137.527	18.411	967.670	737.166
138.541	18.657	966.264	737.086
139.556	18.681	965.971	736.901
140.570	18.665	965.306	736.259
141.585	18.746	964.818	736.170
142.600	18.968	964.163	736.557
143.614	19.023	963.204	735.993
144.629	19.194	962.487	736.110
145.643	19.264	962.190	736.118
146.658	19.141	961.309	734.853
147.673	19.012	960.141	733.346
148.687	18.926	958.746	731.848
149.702	18.626	958.127	730.037
150.716	18.642	957.198	729.329
151.731	18.572	956.193	728.205
152.746	18.623	955.619	727.916
153.760	18.685	954.912	727.576
154.775	18.838	954.054	727.508
155.789	18.893	953.129	726.971
156.804	18.982	952.462	726.772
157.819	18.889	952.012	725.974
158.833	19.111	951.212	726.238
159.848	19.114	951.071	726.079
160.862	19.275	950.140	725.980
161.877	19.168	949.201	724.749
162.892	18.842	948.556	722.819
163.906	18.644	947.247	720.925
164.921	18.514	946.275	719.577
165.935	18.538	945.531	719.048
166.950	18.612	944.499	718.509
167.964	18.841	943.513	718.653
168.979	18.913	942.175	717.875
169.994	18.775	941.062	716.385
171.008	18.745	940.478	715.754
172.023	18.793	940.105	715.604
173.037	19.028	939.220	715.845
174.052	19.282	938.152	716.025
175.067	19.146	937.487	714.890
176.081	18.839	936.726	712.973
177.096	18.599	935.927	711.305
178.110	18.566	934.857	710.293
179.125	18.707	934.530	710.566
180.140	18.951	933.469	710.705
181.154	18.816	932.900	709.652
182.169	18.984	932.815	710.216
183.183	19.152	931.944	710.183
184.198	19.186	931.461	709.894
185.213	19.150	930.929	709.277
186.227	19.062	930.257	708.341
187.242	19.246	929.351	708.342
188.256	19.359	929.068	708.530
189.271	19.361	928.668	708.170
190.286	19.413	927.752	707.623
191.300	19.165	926.843	705.848
192.315	18.745	925.208	702.822
193.329	18.394	924.752	700.978
194.344	18.403	924.254	700.576
195.359	18.743	923.283	701.167
196.373	18.855	923.244	701.532
197.388	19.065	922.762	701.960
198.402	19.200	922.493	702.243
199.417	19.386	922.408	702.874
200.432	19.573	921.791	703.103
201.446	19.667	921.293	703.045
202.461	19.651	921.431	703.024
203.475	19.817	920.612	703.013
204.490	19.765	919.720	702.058
205.504	19.463	918.729	700.015
206.519	19.340	917.604	698.596
207.534	19.310	916.722	697.742
208.548	19.331	915.922	697.154
209.563	19.374	915.646	697.056
210.577	19.344	914.744	696.185
211.592	19.444	914.037	695.992
212.607	19.537	913.904	696.206
213.621	19.578	913.911	696.314
214.636	19.602	912.894	695.572
215.650	19.429	911.902	694.060
216.665	19.595	911.290	694.199
217.680	19.611	911.012	693.990
218.694	19.724	910.619	694.085
219.709	19.776	910.272	693.966
220.723	19.637	909.760	692.956
221.738	19.592	908.862	692.029
222.753	19.661	908.086	691.655
223.767	19.569	907.206	690.558
224.782	19.755	906.438	690.653
225.796	19.847	906.013	690.634
226.811	19.901	905.317	690.258
227.826	19.881	904.478	689.480
228.840	19.680	903.697	688.025
229.855	19.459	903.467	686.909
230.869	19.473	902.766	686.370
231.884	19.542	901.637	685.725
232.899	19.591	900.625	685.089
233.913	19.497	900.153	684.297
234.928	19.396	899.358	683.231
235.942	19.293	898.839	682.368
236.957	19.285	898.351	681.904
237.972	19.192	897.795	681.057
238.986	19.304	897.076	680.892
240.001	19.261	896.681	680.362
241.015	19.249	895.760	679.558
242.030	19.351	894.938	679.275
243.045	19.427	894.644	679.290
244.059	19.438	894.025	678.805
245.074	19.577	893.412	678.825
246.088	19.760	892.464	678.765
247.103	19.667	892.586	678.430
248.117	19.870	892.088	678.787
249.132	19.982	891.394	678.638
250.147	20.238	891.020	679.298
251.161	20.569	890.423	680.078
252.176	20.547	890.491	679.980
253.190	20.431	889.778	678.925
254.205	20.606	889.370	679.236
255.220	20.741	888.317	678.901
256.234	20.658	887.479	677.874
257.249	20.692	886.664	677.326
258.263	20.552	886.373	676.498
259.278	20.544	885.694	675.887
260.293	20.370	885.146	674.735
261.307	20.545	884.841	675.121
262.322	20.784	884.209	675.505
263.336	20.777	883.556	674.921
264.351	20.884	882.750	674.660
265.366	20.674	882.442	673.552
266.380	20.683	881.626	672.906
267.395	20.737	881.148	672.691
268.409	20.618	880.253	671.485
269.424	20.601	879.270	670.614
270.439	20.569	878.458	669.811
271.453	20.558	877.921	669.301
272.468	20.299	877.460	667.890
273.482	20.336	876.714	667.406
274.497	20.427	876.317	667.394
275.512	20.291	875.554	666.232
276.526	20.321	874.524	665.506
277.541	20.449	873.574	665.216
278.555	20.293	873.692	664.649
279.570	20.619	873.068	665.360
280.585	20.687	873.045	665.544
281.599	20.848	872.165	665.429
282.614	20.533	871.582	663.724
283.628	20.386	870.811	662.518
284.643	20.389	870.163	661.978
285.657	20.497	869.549	661.865
286.672	20.570	868.810	661.521
287.687	20.570	868.648	661.340
288.701	20.615	868.041	660.989
289.716	20.544	867.493	660.242
290.730	20.461	866.995	659.489
291.745	20.504	866.260	659.037
292.760	20.535	865.379	658.426
293.774	20.784	864.848	658.904
294.789	20.993	864.696	659.523
295.803	21.013	863.855	658.896
296.818	20.747	863.390	657.479
297.833	20.554	862.306	655.867
298.847	20.573	861.844	655.531
299.862	20.758	861.271	655.733
300.876	20.679	860.846	655.054
301.891	20.787	860.085	654.823
302.906	20.927	859.756	655.043
303.920	21.014	858.835	654.608
304.935	21.191	858.208	654.737
305.949	21.273	857.693	654.591
306.964	21.313	857.158	654.275
307.979	21.079	856.471	652.818
308.993	20.856	856.073	651.625
310.008	20.954	855.795	651.721
311.022	21.105	855.159	651.742
312.037	21.186	854.191	651.248
313.052	21.022	853.470	650.031
314.066	20.730	853.069	648.580
315.081	20.722	852.287	647.899
316.095	20.608	851.867	647.096
317.110	20.680	851.279	646.862
318.125	20.603	850.973	646.284
319.139	20.669	850.072	645.789
320.154	20.726	849.495	645.504
321.168	20.711	849.247	645.202
322.183	20.631	848.677	644.418
323.197	20.826	848.503	644.949
324.212	20.887	847.733	644.532
325.227	20.876	847.241	644.061
326.241	20.711	846.598	642.908
327.256	20.665	846.186	642.368
328.270	20.876	845.194	642.333
329.285	20.849	844.415	641.589
330.300	20.727	844.259	640.963
331.314	20.826	843.554	640.733
332.329	20.802	843.054	640.208
333.343	21.035	842.306	640.442
334.358	21.141	842.146	640.651
335.373	21.096	841.681	640.076
336.387	20.997	841.168	639.267
337.402	21.064	840.673	639.079
338.416	21.208	840.081	639.098
339.431	21.271	839.711	638.993
340.446	21.740	838.870	640.010
341.460	21.615	838.567	639.263
342.475	21.572	838.052	638.659
343.489	21.526	837.880	638.305
344.504	21.825	837.176	638.799
345.519	21.684	836.911	638.026
346.533	21.947	836.304	638.466
347.548	21.861	835.661	637.604
348.562	21.653	834.984	636.278
349.577	21.301	834.109	634.275
350.592	21.235	833.448	633.478
351.606	21.050	833.402	632.715
352.621	21.091	832.487	632.112
353.635	21.208	831.961	632.083
354.650	21.261	831.861	632.142
355.665	21.173	831.444	631.452
356.679	21.243	831.060	631.358
357.694	21.367	830.423	631.266
358.708	21.676	829.867	631.902
359.723	21.412	829.211	630.392
360.738	21.410	828.964	630.143
361.752	21.525	828.238	629.948
362.767	21.503	827.619	629.342
363.781	21.567	827.409	629.359
364.796	21.845	827.353	630.259
365.810	21.924	826.738	630.019
366.825	21.925	826.296	629.631
367.840	22.232	826.386	630.744
368.854	21.875	825.957	629.080
369.869	21.851	825.139	628.314
370.883	21.826	824.287	627.522
371.898	21.774	823.828	626.929
372.913	21.875	823.521	627.002
373.927	22.100	822.695	627.121
374.942	21.922	822.100	625.978
375.956	21.904	821.165	625.146
376.971	22.099	820.385	625.193
377.986	22.147	820.436	625.347
379.000	22.268	820.175	625.521
380.015	22.181	819.864	624.919
381.029	22.223	819.218	624.522
382.044	22.115	818.513	623.547
383.059	22.198	817.672	623.144
384.073	22.147	817.188	622.541
385.088	22.167	816.386	621.946
386.102	21.899	815.904	620.575
387.117	21.687	815.384	619.374
388.132	21.623	814.956	618.768
389.146	21.841	814.193	618.902
390.161	21.859	813.828	618.634
391.175	21.788	814.000	618.458
392.190	22.339	813.132	619.689
393.205	22.028	812.936	618.387
394.219	21.922	812.037	617.277
395.234	21.967	811.613	617.056
396.248	21.747	811.394	616.064
397.263	21.664	810.510	615.047
398.278	21.612	809.987	614.412
399.292	21.617	809.601	614.083
400.307	21.566	808.944	613.350
401.321	21.628	808.629	613.275
402.336	21.665	808.280	613.084
403.350	21.686	808.270	613.097
404.365	21.743	807.544	612.691
405.380	22.000	807.507	613.509
406.394	22.024	807.241	613.334
407.409	22.414	806.442	614.034
408.423	22.446	806.113	613.842
409.438	22.362	805.796	613.254
410.453	22.412	805.409	613.077
411.467	22.667	804.858	613.491
412.482	22.557	804.543	612.814
413.496	22.622	803.783	612.409
414.511	22.682	803.936	612.677
415.526	22.750	803.059	612.192
416.540	22.504	803.044	611.274
417.555	22.613	801.915	610.738
418.569	22.632	801.598	610.506
419.584	22.654	801.047	610.110
420.599	22.736	800.455	609.887
421.613	164.088	1370.746	1795.941
422.628	142.576	1453.843	1796.013
