DTS Sentinel unit serial number:	SN413079Multiplexer serial number:	ORYXHardware model number:	OX4-SRSoftware version number:	ORYX F/W v4.00 Oryx Data Collector v3.7.2.0data status	okinstallation	princeton_trtdifferential loss correction	single-endedforward channel	channel 3reverse channel	N/Adate	2019/09/15time	19:56:35forward acquisition time	60.00reverse acquisition time	0.00gamma	496.2192k internal	0.2312k external	0.2312temperature offset calibration	0.9935default loss term (dB/km)	0.3790temperature slope calibration	1.0000multiplexer offset coefficient	1.0000multiplexer slope coefficient	1.0000fibre end	0.00T internal ref (°C)	36.05T ext. ref 1 (°C)	7.51T ext. ref 2 (°C)	26.73length (m)	temperature (°C)	Stokes	anti-Stokes-747.200	-19.624	-0.092	-0.058
-746.185	68.732	0.391	0.408
-745.171	-72.930	0.198	0.074
-744.156	472.293	-0.101	0.232
-743.142	54.767	0.100	0.098
-742.127	-200.000	-0.025	0.181
-741.112	800.000	0.045	-0.140
-740.098	-39.837	-0.319	0.169
-739.083	413.137	-0.110	0.237
-738.069	-91.047	-0.349	0.102
-737.054	-131.204	0.129	0.017
-736.039	-104.425	-0.263	-0.062
-735.025	-75.384	0.312	0.113
-734.010	-26.278	-0.550	-0.328
-732.996	-33.651	-0.332	-0.186
-731.981	185.891	-0.198	-0.298
-730.966	-7.540	-0.084	-0.058
-729.952	-77.908	-0.250	-0.087
-728.937	-139.269	0.087	-0.010
-727.923	-200.000	-0.084	-0.393
-726.908	-200.000	0.001	-0.329
-725.894	-115.138	-0.167	0.032
-724.879	-41.947	0.151	0.078
-723.864	-200.000	0.058	0.297
-722.850	43.906	-0.183	0.170
-721.835	-200.000	0.007	0.424
-720.821	-70.825	0.197	-0.075
-719.806	695.814	-0.074	-0.196
-718.791	162.275	-0.207	0.294
-717.777	-200.000	-0.272	0.000
-716.762	-127.777	0.227	-0.033
-715.748	73.490	-0.199	-0.212
-714.733	-135.889	0.301	0.036
-713.718	-65.354	-0.278	0.114
-712.704	12.874	-0.285	-0.223
-711.689	18.680	-0.309	-0.251
-710.675	465.783	0.096	0.218
-709.660	-15.656	-0.116	0.075
-708.645	16.352	0.157	-0.125
-707.631	-150.146	-0.180	-0.014
-706.616	127.571	-0.207	0.267
-705.602	-200.000	-0.009	-0.181
-704.587	107.170	-0.136	-0.163
-703.572	-154.522	-0.099	-0.007
-702.558	474.953	-0.040	-0.091
-701.543	51.075	-0.186	0.178
-700.529	-9.703	0.151	-0.102
-699.514	270.383	0.251	0.447
-698.499	119.745	0.111	-0.140
-697.485	576.318	-0.071	-0.175
-696.470	154.794	0.124	-0.172
-695.456	13.503	0.194	-0.153
-694.441	222.839	-0.071	0.116
-693.426	291.543	-0.150	0.277
-692.412	85.984	0.102	-0.113
-691.397	-200.000	-0.007	-0.182
-690.383	19.898	0.094	-0.077
-689.368	-3.191	0.050	0.036
-688.354	-54.712	-0.156	0.071
-687.339	181.537	0.125	-0.186
-686.324	-155.869	-0.242	-0.016
-685.310	-200.000	0.022	0.190
-684.295	2.577	0.072	0.053
-683.281	-73.256	0.213	0.079
-682.266	-200.000	0.046	0.229
-681.251	-108.324	-0.254	-0.055
-680.237	-142.621	0.435	-0.043
-679.222	584.777	-0.229	0.570
-678.208	-200.000	0.001	0.248
-677.193	-112.843	-0.075	-0.015
-676.178	675.886	-0.117	-0.307
-675.164	90.411	-0.293	0.332
-674.149	800.000	0.048	0.202
-673.135	-127.374	0.054	-0.008
-672.120	162.943	-0.041	-0.059
-671.105	-200.000	-0.045	-0.254
-670.091	113.601	0.176	0.217
-669.076	-40.735	0.157	0.082
-668.062	-137.081	0.264	0.031
-667.047	800.000	-0.100	-0.415
-666.032	335.552	-0.067	-0.132
-665.018	-200.000	-0.015	-0.116
-664.003	154.216	0.036	-0.050
-662.989	48.723	-0.130	0.124
-661.974	-1.610	-0.163	-0.116
-660.959	-84.881	0.415	0.132
-659.945	-32.575	-0.025	0.014
-658.930	-32.536	0.140	-0.079
-657.916	-66.021	-0.379	-0.153
-656.901	-114.527	-0.145	-0.028
-655.886	64.715	-0.103	0.105
-654.872	-147.676	0.152	-0.013
-653.857	59.394	-0.085	0.085
-652.843	-151.587	0.270	-0.020
-651.828	800.000	-0.033	-0.103
-650.814	-157.472	0.267	-0.016
-649.799	-186.061	-0.277	0.004
-648.784	63.947	0.077	-0.078
-647.770	64.485	0.178	-0.181
-646.755	79.053	0.120	-0.129
-645.741	413.368	0.116	-0.250
-644.726	446.546	0.149	0.331
-643.711	-200.000	0.005	0.038
-642.697	406.781	0.081	0.173
-641.682	159.031	-0.039	-0.055
-640.668	-200.000	0.011	-0.312
-639.653	800.000	0.063	-0.194
-638.638	800.000	0.044	-0.143
-637.624	-96.751	0.181	0.048
-636.609	-97.792	-0.257	0.067
-635.595	-200.000	-0.066	0.360
-634.580	-104.001	-0.347	-0.082
-633.565	81.395	0.014	0.015
-632.551	52.675	-0.172	0.166
-631.536	-94.210	-0.167	-0.046
-630.522	21.435	0.337	0.277
-629.507	800.000	0.075	-0.263
-628.492	127.010	0.238	-0.304
-627.478	-145.839	0.262	-0.023
-626.463	36.823	0.186	-0.166
-625.449	-200.000	0.041	-0.196
-624.434	8.358	0.345	-0.262
-623.419	-200.000	-0.035	0.156
-622.405	8.622	-0.158	-0.120
-621.390	-68.351	-0.062	0.024
-620.376	-131.637	0.244	-0.032
-619.361	33.078	0.220	-0.192
-618.346	-200.000	-0.008	0.122
-617.332	-20.791	-0.387	-0.240
-616.317	113.953	0.052	0.064
-615.303	70.945	0.077	0.080
-614.288	18.788	0.238	-0.192
-613.273	800.000	-0.035	0.100
-612.259	9.274	-0.036	0.027
-611.244	3.292	0.158	0.116
-610.230	583.412	-0.114	0.282
-609.215	214.724	-0.176	-0.281
-608.201	278.636	-0.210	-0.378
-607.186	-200.000	0.035	-0.270
-606.171	-200.000	0.017	-0.125
-605.157	-92.541	-0.313	-0.089
-604.142	-7.104	0.337	-0.231
-603.128	-111.456	-0.085	0.017
-602.113	6.385	0.115	-0.086
-601.098	52.857	-0.201	-0.194
-600.084	66.936	-0.092	-0.094
-599.069	-32.189	-0.099	-0.056
-598.055	-43.908	-0.272	-0.138
-597.040	99.212	-0.322	0.375
-596.025	-200.000	-0.030	0.351
-595.011	-10.027	0.181	-0.122
-593.996	-62.203	0.263	-0.110
-592.982	-97.376	-0.045	-0.012
-591.967	-135.692	-0.136	-0.016
-590.952	-142.539	0.124	0.012
-589.938	20.535	0.163	0.133
-588.923	-46.422	-0.190	-0.094
-587.909	-143.941	-0.087	0.008
-586.894	-14.963	-0.269	0.174
-585.879	-37.314	-0.118	0.063
-584.865	87.371	-0.242	-0.270
-583.850	-200.000	-0.006	0.158
-582.836	-90.261	-0.164	0.048
-581.821	135.327	0.054	0.071
-580.806	-146.039	0.600	-0.053
-579.792	79.572	0.130	-0.140
-578.777	-75.241	0.141	-0.051
-577.763	-34.340	0.291	0.161
-576.748	-68.323	0.174	-0.068
-575.733	800.000	0.042	-0.163
-574.719	-13.004	-0.061	0.040
-573.704	-110.377	-0.365	0.076
-572.690	-126.167	0.163	-0.025
-571.675	800.000	0.012	0.044
-570.661	-115.109	-0.363	0.069
-569.646	-26.193	0.038	0.022
-568.631	20.491	-0.052	-0.042
-567.617	-111.916	-0.281	0.057
-566.602	-75.982	0.152	-0.054
-565.588	-53.323	-0.200	-0.092
-564.573	-42.239	-0.108	0.056
-563.558	-200.000	0.014	-0.151
-562.544	800.000	0.118	0.377
-561.529	800.000	0.048	0.160
-560.515	-174.074	-0.129	0.004
-559.500	800.000	-0.017	-0.070
-558.485	235.597	-0.199	-0.332
-557.471	24.929	-0.138	0.115
-556.456	-158.334	-0.181	-0.011
-555.442	-200.000	0.016	-0.202
-554.427	-200.000	-0.063	-0.302
-553.412	-104.891	-0.287	0.066
-552.398	138.190	-0.276	0.364
-551.383	24.801	0.223	0.186
-550.369	-200.000	-0.041	0.273
-549.354	-145.940	-0.201	0.018
-548.339	27.900	0.176	0.149
-547.325	-76.304	0.285	-0.101
-546.310	-200.000	0.061	-0.477
-545.296	-28.511	-0.094	0.054
-544.281	59.165	-0.319	-0.316
-543.266	-115.906	-0.236	0.044
-542.252	18.225	-0.071	0.057
-541.237	-101.724	-0.251	0.061
-540.223	32.219	0.208	-0.181
-539.208	165.773	0.177	0.252
-538.193	-200.000	-0.015	0.120
-537.179	726.971	0.115	-0.309
-536.164	-82.672	0.252	-0.082
-535.150	-200.000	0.037	-0.236
-534.135	8.637	-0.083	-0.063
-533.121	-116.757	-0.364	-0.067
-532.106	31.713	-0.043	-0.037
-531.091	-123.348	-0.041	0.007
-530.077	-200.000	0.016	-0.105
-529.062	548.498	-0.204	0.492
-528.048	-200.000	0.011	0.123
-527.033	129.938	0.049	-0.063
-526.018	109.965	-0.243	-0.293
-525.004	703.210	0.051	-0.136
-523.989	-37.987	0.211	-0.113
-522.975	-46.407	-0.031	0.015
-521.960	412.258	-0.107	0.230
-520.945	-200.000	-0.017	0.073
-519.931	-28.925	-0.079	-0.046
-518.916	161.665	0.109	0.153
-517.902	800.000	0.071	0.301
-516.887	-113.160	-0.169	-0.033
-515.872	-157.184	0.156	-0.010
-514.858	105.408	-0.139	-0.165
-513.843	-200.000	0.014	-0.166
-512.829	410.742	-0.149	-0.317
-511.814	800.000	-0.095	-0.328
-510.799	58.254	0.232	-0.228
-509.785	-68.213	-0.253	-0.099
-508.770	246.625	0.088	-0.150
-507.756	-190.255	0.165	-0.002
-506.741	-68.052	-0.257	-0.101
-505.726	242.017	0.104	0.175
-504.712	800.000	-0.098	-0.337
-503.697	-106.903	0.371	-0.083
-502.683	-200.000	0.016	-0.084
-501.668	-200.000	0.029	-0.190
-500.653	-200.000	-0.014	0.396
-499.639	-181.204	0.147	0.003
-498.624	283.603	0.020	0.037
-497.610	-82.859	0.253	-0.082
-496.595	-200.000	0.010	0.290
-495.581	4.695	0.195	-0.144
-494.566	-94.751	-0.264	-0.072
-493.551	38.215	0.244	-0.218
-492.537	44.616	0.299	0.276
-491.522	3.357	-0.249	0.182
-490.508	-200.000	-0.022	0.169
-489.493	-69.550	-0.096	0.037
-488.478	462.014	-0.147	-0.330
-487.464	-51.676	-0.265	-0.124
-486.449	-200.000	-0.008	0.106
-485.435	-147.466	-0.164	0.014
-484.420	69.305	0.221	-0.228
-483.405	-200.000	-0.041	0.266
-482.391	-159.023	-0.328	0.019
-481.376	-66.264	0.180	0.072
-480.362	800.000	0.022	0.077
-479.347	-200.000	-0.042	0.207
-478.332	-56.252	-0.127	0.057
-477.318	424.576	0.106	0.229
-476.303	-200.000	-0.026	-0.195
-475.289	800.000	-0.027	0.106
-474.274	-200.000	-0.055	-0.266
-473.259	-200.000	0.030	0.144
-472.245	186.891	-0.073	-0.109
-471.230	-87.354	0.184	0.056
-470.216	-34.698	0.041	0.022
-469.201	13.855	-0.140	0.109
-468.186	800.000	-0.110	-0.407
-467.172	800.000	-0.087	-0.241
-466.157	-200.000	-0.116	0.001
-465.143	-68.044	0.168	0.066
-464.128	-38.794	0.035	0.019
-463.113	-200.000	-0.012	-0.103
-462.099	-128.943	-0.021	-0.003
-461.084	-200.000	-0.055	-0.318
-460.070	-200.000	-0.042	-0.323
-459.055	800.000	-0.073	-0.260
-458.040	28.949	-0.259	-0.220
-457.026	-51.994	-0.133	-0.062
-456.011	-166.236	-0.304	0.013
-454.997	-200.000	0.014	-0.322
-453.982	687.182	0.137	0.359
-452.968	123.826	0.208	0.262
-451.953	-200.000	0.004	0.099
-450.938	135.508	-0.151	-0.197
-449.924	22.223	-0.149	0.122
-448.909	87.259	0.113	0.125
-447.895	-200.000	0.017	-0.357
-446.880	-127.976	-0.130	0.019
-445.865	-42.135	0.202	0.103
-444.851	800.000	-0.043	-0.184
-443.836	-200.000	0.020	-0.356
-442.822	201.041	-0.256	0.395
-441.807	-1.829	0.140	0.099
-440.792	-141.446	0.248	0.025
-439.778	-200.000	0.023	-0.152
-438.763	-82.675	0.182	-0.059
-437.749	800.000	0.095	-0.296
-436.734	60.402	0.291	0.289
-435.719	800.000	-0.044	-0.175
-434.705	160.852	0.258	-0.362
-433.690	-12.527	-0.199	-0.130
-432.676	319.260	0.080	0.151
-431.661	87.179	0.184	0.204
-430.646	132.314	-0.110	-0.142
-429.632	-106.654	-0.207	0.046
-428.617	558.119	-0.100	0.241
-427.603	-33.591	0.213	-0.118
-426.588	21.994	0.257	-0.210
-425.573	-100.525	-0.076	-0.019
-424.559	-200.000	0.016	0.238
-423.544	-120.404	0.132	0.023
-422.530	-73.120	0.202	0.074
-421.515	-98.642	0.279	-0.071
-420.500	-21.517	0.186	-0.113
-419.486	-78.065	0.161	-0.056
-418.471	-200.000	0.009	0.066
-417.457	507.627	0.108	0.250
-416.442	800.000	0.048	0.211
-415.428	-72.734	-0.195	0.072
-414.413	-200.000	-0.009	0.526
-413.398	800.000	0.026	0.099
-412.384	84.588	-0.085	0.093
-411.369	4.358	-0.162	-0.119
-410.355	-163.216	-0.344	-0.017
-409.340	378.250	-0.137	0.280
-408.325	-200.000	0.000	0.079
-407.311	-200.000	-0.000	0.060
-406.296	-105.932	0.335	0.076
-405.282	-179.234	-0.121	-0.003
-404.267	-17.712	0.159	-0.100
-403.252	-200.000	0.004	0.095
-402.238	800.000	0.011	0.038
-401.223	-25.785	-0.308	0.182
-400.209	162.272	0.139	0.196
-399.194	58.703	0.023	-0.023
-398.179	-57.452	0.280	-0.123
-397.165	-200.000	0.024	0.124
-396.150	-32.338	-0.097	0.054
-395.136	-200.000	0.043	-0.292
-394.121	-31.189	0.098	-0.055
-393.106	800.000	-0.081	-0.340
-392.092	-76.463	0.054	0.019
-391.077	-117.523	0.088	-0.016
-390.063	800.000	-0.148	-0.414
-389.048	-136.298	0.167	-0.019
-388.033	-164.410	-0.493	0.023
-387.019	-200.000	0.049	-0.393
-386.004	800.000	-0.037	0.120
-384.990	87.085	-0.093	-0.103
-383.975	-170.169	-0.347	0.012
-382.960	800.000	0.063	0.198
-381.946	-41.531	0.219	-0.113
-380.931	47.531	0.150	0.140
-379.917	-138.248	0.280	0.031
-378.902	-200.000	0.025	0.259
-377.888	-143.097	-0.111	-0.011
-376.873	97.215	-0.096	-0.111
-375.858	-154.832	0.066	-0.004
-374.844	-200.000	0.047	0.327
-373.829	800.000	0.085	0.363
-372.815	-60.119	0.133	0.057
-371.800	759.586	0.069	0.186
-370.785	-185.993	0.039	0.001
-369.771	-200.000	0.006	-0.080
-368.756	97.431	-0.194	0.223
-367.742	43.802	0.159	-0.146
-366.727	-76.651	-0.078	-0.027
-365.712	459.035	0.147	0.326
-364.698	800.000	0.060	0.230
-363.683	112.681	0.295	0.357
-362.669	-200.000	-0.013	-0.061
-361.654	-67.408	-0.435	-0.171
-360.639	-200.000	0.040	-0.331
-359.625	-23.981	-0.171	-0.102
-358.610	-200.000	0.028	-0.225
-357.596	-108.596	-0.159	-0.034
-356.581	-67.235	-0.340	-0.134
-355.566	-59.038	0.199	0.086
-354.552	-200.000	-0.009	0.293
-353.537	-200.000	-0.041	0.180
-352.523	12.257	0.048	0.037
-351.508	367.011	0.095	0.192
-350.493	800.000	-0.098	0.287
-349.479	503.996	0.174	-0.401
-348.464	-50.562	-0.058	0.027
-347.450	-200.000	-0.052	-0.606
-346.435	268.667	0.120	0.211
-345.420	-94.533	-0.249	0.068
-344.406	576.605	-0.025	0.062
-343.391	-161.556	-0.141	0.007
-342.377	3.750	-0.119	-0.087
-341.362	18.215	0.055	0.044
-340.348	-200.000	-0.025	0.140
-339.333	-200.000	-0.023	-0.443
-338.318	-49.848	-0.336	-0.159
-337.304	20.075	-0.194	-0.156
-336.289	-67.696	0.200	0.078
-335.275	-133.583	0.408	0.051
-334.260	-122.978	0.373	-0.060
-333.245	-101.457	-0.042	-0.010
-332.231	-108.520	0.251	0.054
-331.216	-91.611	-0.103	-0.029
-330.202	-134.262	0.272	0.033
-329.187	59.147	0.134	-0.131
-328.172	553.277	-0.058	-0.139
-327.158	-70.689	0.305	0.115
-326.143	-58.687	-0.127	0.055
-325.129	-36.958	-0.152	-0.081
-324.114	586.936	0.088	0.216
-323.099	14.795	-0.131	0.102
-322.085	57.276	-0.053	0.052
-321.070	726.727	0.137	0.365
-320.056	487.176	-0.032	-0.073
-319.041	800.000	0.015	-0.050
-318.026	243.779	-0.084	-0.140
-317.012	388.173	-0.064	0.133
-315.997	-192.775	-0.291	0.003
-314.983	-123.795	0.249	0.039
-313.968	-125.531	0.223	0.034
-312.953	-58.250	0.267	0.116
-311.939	458.080	0.094	-0.208
-310.924	193.794	0.097	0.146
-309.910	-65.248	-0.149	0.060
-308.895	14.316	0.024	0.018
-307.880	-200.000	0.007	-0.217
-306.866	-53.235	0.041	0.019
-305.851	-95.940	0.137	-0.036
-304.837	96.434	0.215	0.246
-303.822	800.000	0.074	-0.306
-302.807	-54.567	-0.421	0.190
-301.793	-110.034	-0.086	-0.018
-300.778	-200.000	-0.085	0.373
-299.764	-30.441	0.399	0.225
-298.749	-114.653	-0.639	0.122
-297.735	96.990	-0.210	-0.241
-296.720	10.983	0.242	-0.185
-295.705	142.181	-0.134	0.177
-294.691	180.626	-0.173	0.253
-293.676	-29.100	-0.197	0.113
-292.662	-119.340	-0.332	-0.058
-291.647	800.000	0.037	0.123
-290.632	253.884	-0.095	0.162
-289.618	88.587	-0.051	-0.056
-288.603	-50.881	0.361	0.169
-287.589	-72.067	0.196	0.072
-286.574	158.845	0.053	0.074
-285.559	-200.000	-0.016	-0.268
-284.545	-92.428	0.185	0.052
-283.530	-200.000	-0.045	0.343
-282.516	174.953	0.073	0.106
-281.501	-102.229	0.134	-0.032
-280.486	-156.224	-0.210	0.013
-279.472	-20.700	-0.072	0.044
-278.457	160.201	-0.094	-0.131
-277.443	133.811	-0.064	-0.082
-276.428	698.356	-0.029	-0.075
-275.413	-185.746	-0.426	0.006
-274.399	80.429	-0.083	0.089
-273.384	356.743	0.087	0.173
-272.370	-200.000	-0.196	-0.001
-271.355	102.767	-0.087	0.102
-270.340	-8.845	0.168	0.112
-269.326	-138.576	0.252	-0.027
-268.311	310.944	0.157	0.294
-267.297	63.691	0.132	0.132
-266.282	-200.000	0.071	0.475
-265.267	800.000	0.083	-0.299
-264.253	66.890	0.167	0.170
-263.238	-200.000	0.053	-0.383
-262.224	-101.834	-0.032	-0.008
-261.209	-30.608	-0.122	-0.069
-260.195	31.010	-0.077	0.066
-259.180	-34.512	-0.339	0.185
-258.165	-154.467	-0.238	0.016
-257.151	27.605	-0.034	0.029
-256.136	183.123	-0.186	0.273
-255.122	-22.041	0.368	-0.222
-254.107	-200.000	0.005	0.063
-253.092	244.844	0.312	0.522
-252.078	419.463	0.096	-0.205
-251.063	366.405	0.138	-0.277
-250.049	-177.490	0.148	-0.004
-249.034	-108.051	-0.054	0.012
-248.019	-133.674	-0.260	0.032
-247.005	-200.000	0.074	0.354
-245.990	125.320	0.171	0.215
-244.976	-200.000	0.051	0.271
-243.961	-200.000	-0.002	0.216
-242.946	-165.739	-0.239	-0.010
-241.932	-49.255	-0.291	0.138
-240.917	800.000	0.063	-0.180
-239.903	-117.703	0.128	0.023
-238.888	800.000	0.108	0.321
-237.873	-103.322	-0.338	0.079
-236.859	-121.733	-0.147	0.024
-235.844	105.403	0.034	-0.040
-234.830	-200.000	0.017	-0.128
-233.815	-200.000	-0.044	0.361
-232.800	393.853	-0.138	-0.286
-231.786	-31.992	-0.289	-0.161
-230.771	24.573	0.125	-0.103
-229.757	-21.416	0.179	-0.109
-228.742	178.649	-0.028	0.041
-227.727	152.333	-0.173	-0.234
-226.713	16.701	-0.208	-0.164
-225.698	-29.864	-0.047	0.027
-224.684	-140.139	0.451	-0.047
-223.669	-55.388	-0.067	0.030
-222.655	800.000	0.004	0.013
-221.640	-200.000	0.024	0.174
-220.625	-200.000	0.036	0.246
-219.611	174.589	-0.050	-0.072
-218.596	558.523	0.096	0.229
-217.582	-94.954	-0.306	0.082
-216.567	122.446	0.073	-0.090
-215.552	-9.791	0.328	-0.217
-214.538	-200.000	-0.041	-0.271
-213.523	-200.000	0.045	-0.365
-212.509	556.157	0.158	0.379
-211.494	-20.425	0.097	0.059
-210.479	303.429	0.151	0.278
-209.465	-200.000	0.004	0.347
-208.450	-20.889	0.177	0.108
-207.436	-98.920	0.115	-0.029
-206.421	-28.016	0.160	0.092
-205.406	152.972	-0.072	0.098
-204.392	-200.000	-0.013	0.124
-203.377	7.617	-0.048	-0.036
-202.363	551.337	0.040	0.095
-201.348	-78.776	0.332	-0.113
-200.333	1.010	-0.151	-0.108
-199.319	-200.000	-0.000	-0.204
-198.304	-44.295	-0.060	-0.030
-197.290	276.970	0.320	-0.565
-196.275	-200.000	0.046	0.260
-195.260	800.000	0.021	0.072
-194.246	20.048	0.213	0.171
-193.231	-65.709	-0.357	-0.142
-192.217	800.000	0.052	-0.209
-191.202	-200.000	-0.025	-0.284
-190.187	-87.454	0.236	-0.071
-189.173	800.000	-0.064	0.214
-188.158	-84.478	-0.274	0.086
-187.144	800.000	0.040	-0.161
-186.129	9.597	0.060	-0.045
-185.114	800.000	0.062	0.204
-184.100	-14.310	0.086	0.055
-183.085	300.702	0.070	-0.129
-182.071	800.000	0.033	-0.120
-181.056	-138.829	-0.217	-0.023
-180.042	177.517	0.107	0.154
-179.027	-136.543	0.179	0.021
-178.012	5.237	-0.245	-0.179
-176.998	-200.000	0.016	0.286
-175.983	-200.000	0.014	0.169
-174.969	-1.375	-0.018	-0.012
-173.954	800.000	-0.006	-0.019
-172.939	-120.341	-0.162	0.027
-171.925	79.786	-0.059	-0.063
-170.910	800.000	-0.093	-0.356
-169.896	800.000	0.042	-0.141
-168.881	246.482	-0.168	-0.280
-167.866	64.044	-0.152	0.152
-166.852	-129.909	0.050	0.007
-165.837	-200.000	-0.004	0.237
-164.823	224.918	0.166	-0.267
-163.808	-70.076	-0.146	0.055
-162.793	-30.335	0.342	0.193
-161.779	250.769	0.089	0.150
-160.764	-104.873	-0.180	0.041
-159.750	-200.000	-0.005	0.035
-158.735	146.476	-0.084	-0.112
-157.720	-200.000	-0.015	0.195
-156.706	-200.000	-0.007	-0.404
-155.691	-200.000	0.011	0.166
-154.677	190.749	-0.050	0.074
-153.662	-74.619	0.318	-0.114
-152.647	-104.909	0.244	-0.055
-151.633	-21.559	-0.259	0.156
-150.618	-131.766	0.128	0.017
-149.604	-65.788	-0.158	0.063
-148.589	800.000	-0.058	-0.205
-147.574	716.629	0.070	-0.183
-146.560	-87.308	0.126	0.038
-145.545	593.288	-0.036	-0.088
-144.531	57.101	0.205	0.198
-143.516	97.385	0.019	0.022
-142.502	800.000	-0.039	0.162
-141.487	-112.555	-0.127	-0.025
-140.472	-5.603	-0.201	-0.137
-139.458	-200.000	-0.029	-0.362
-138.443	103.106	-0.164	0.190
-137.429	-78.601	0.125	0.042
-136.414	-42.080	0.337	0.171
-135.399	87.467	-0.125	-0.137
-134.385	294.560	0.222	-0.402
-133.370	800.000	-0.127	-0.451
-132.356	214.359	-0.065	0.101
-131.341	-113.043	-0.105	-0.021
-130.326	-200.000	0.003	-0.094
-129.312	-87.379	0.153	0.046
-128.297	-200.000	0.008	-0.162
-127.283	132.512	-0.116	0.148
-126.268	108.947	-0.176	-0.208
-125.253	-130.678	-0.171	-0.023
-124.239	-9.776	0.250	0.165
-123.224	-200.000	0.012	0.206
-122.210	368.611	-0.091	-0.183
-121.195	-22.215	0.107	0.064
-120.180	-11.478	0.036	-0.023
-119.166	1.426	-0.161	0.115
-118.151	800.000	0.007	0.027
-117.137	800.000	-0.137	0.426
-116.122	-62.805	0.115	0.047
-115.107	-200.000	-0.022	0.146
-114.093	392.812	0.090	0.185
-113.078	800.000	0.116	0.434
-112.064	-200.000	0.011	0.128
-111.049	47.807	-0.286	0.264
-110.034	24.562	-0.185	0.151
-109.020	-200.000	0.009	-0.126
-108.005	96.779	-0.039	0.044
-106.991	-84.198	0.162	0.051
-105.976	372.454	0.118	-0.237
-104.962	159.196	0.053	-0.072
-103.947	71.648	-0.216	0.222
-102.932	800.000	0.051	0.141
-101.918	800.000	-0.062	0.198
-100.903	-62.609	-0.207	0.085
-99.889	-200.000	-0.001	0.271
-98.874	-100.728	0.555	0.135
-97.859	-0.931	-0.033	0.023
-96.845	-35.206	-0.440	0.237
-95.830	44.028	-0.211	-0.191
-94.816	380.374	0.166	-0.337
-93.801	-19.641	0.157	0.096
-92.786	230.308	0.051	-0.082
-91.772	274.225	0.051	0.089
-90.757	-102.104	-0.055	-0.013
-89.743	53.046	0.149	-0.141
-88.728	800.000	0.080	-0.229
-87.713	19.844	-0.046	-0.036
-86.699	-200.000	0.027	-0.211
-85.684	30.875	0.243	0.206
-84.670	214.156	-0.107	0.167
-83.655	88.952	0.104	0.115
-82.640	800.000	0.038	-0.139
-81.626	243.588	0.167	0.277
-80.611	732.510	-0.096	0.254
-79.597	80.552	-0.082	0.087
-78.582	-200.000	-0.021	0.266
-77.567	689.975	0.171	0.443
-76.553	-200.000	-0.243	-0.001
-75.538	-92.719	0.209	-0.058
-74.524	-200.000	0.062	-0.579
-73.509	800.000	-0.082	-0.226
-72.494	-76.415	0.131	-0.045
-71.480	-200.000	-0.014	-0.064
-70.465	-34.756	0.233	0.126
-69.451	258.676	-0.237	0.404
-68.436	-200.000	-0.004	0.460
-67.422	146.601	0.100	0.133
-66.407	91.507	-0.118	0.131
-65.392	-61.489	0.097	-0.040
-64.378	-1.931	-0.233	0.162
-63.363	144.850	0.110	-0.146
-62.349	-150.841	0.082	-0.006
-61.334	38.789	-0.937	-0.827
-60.319	318.798	0.227	0.426
-59.305	800.000	-0.224	-0.650
-58.290	251.111	0.549	0.922
-57.276	533.736	0.752	1.760
-56.261	-200.000	95.344	568.973
-55.246	554.394	1373.649	3263.283
-54.232	155.853	2560.807	3485.095
-53.217	115.445	2178.193	2628.337
-52.203	46.550	1716.591	1572.979
-51.188	39.253	1526.512	1348.947
-50.173	36.620	1499.430	1307.193
-49.159	55.863	1549.080	1483.063
-48.144	59.356	1568.120	1525.205
-47.130	39.481	1523.919	1348.000
-46.115	36.294	1508.198	1312.413
-45.100	36.060	1505.564	1308.479
-44.086	36.076	1503.205	1306.483
-43.071	35.990	1501.108	1304.030
-42.057	35.956	1499.728	1302.545
-41.042	36.014	1498.210	1301.567
-40.027	36.073	1496.676	1300.585
-39.013	36.099	1495.012	1299.265
-37.998	35.999	1493.552	1297.268
-36.984	35.937	1493.568	1296.811
-35.969	36.035	1491.805	1295.888
-34.954	36.026	1489.855	1294.082
-33.940	36.000	1488.344	1292.545
-32.925	36.013	1487.539	1291.883
-31.911	36.007	1486.040	1290.491
-30.896	36.126	1484.580	1289.966
-29.881	36.175	1482.916	1288.797
-28.867	36.119	1481.966	1287.547
-27.852	36.066	1480.607	1285.964
-26.838	36.172	1479.028	1285.245
-25.823	36.140	1477.567	1283.710
-24.809	36.140	1475.942	1282.248
-23.794	36.034	1474.959	1280.636
-22.779	36.017	1473.814	1279.480
-21.765	36.090	1472.350	1278.641
-20.750	36.133	1471.086	1277.783
-19.736	36.083	1469.986	1276.443
-18.721	35.928	1469.229	1274.707
-17.706	36.033	1468.278	1274.530
-16.692	36.077	1466.842	1273.522
-15.677	36.040	1466.262	1272.726
-14.663	36.087	1464.475	1271.430
-13.648	35.982	1464.111	1270.371
-12.633	36.025	1463.013	1269.650
-11.619	36.059	1462.026	1268.972
-10.604	36.037	1460.774	1267.688
-9.590	36.085	1460.203	1267.455
-8.575	36.041	1460.070	1267.004
-7.560	36.008	1459.213	1265.991
-6.546	36.018	1457.869	1264.840
-5.531	36.003	1456.785	1263.755
-4.517	35.956	1456.336	1263.003
-3.502	36.065	1454.942	1262.457
-2.487	36.063	1453.762	1261.369
-1.473	36.019	1453.067	1260.431
-0.458	35.974	1451.339	1258.589
0.556	33.569	1441.186	1244.073
1.571	29.158	1412.729	1190.952
2.586	23.733	1348.602	1103.200
3.600	21.254	1264.849	1020.133
4.615	19.678	1218.305	973.637
5.629	17.852	1165.067	921.160
6.644	12.772	1086.012	832.955
7.659	8.346	1047.407	781.652
8.673	7.657	1042.089	774.262
9.688	7.505	1039.215	771.318
10.702	7.477	1037.409	769.776
11.717	7.410	1035.769	768.165
12.731	9.367	1037.113	778.576
13.746	14.144	1043.648	806.626
14.761	17.459	1047.502	825.640
15.775	17.664	1046.565	825.824
16.790	16.788	1044.440	819.837
17.804	15.628	1042.772	812.845
18.819	14.642	1040.978	806.616
19.834	14.143	1039.056	802.645
20.848	13.865	1038.118	800.510
21.863	13.771	1037.294	799.350
22.877	13.454	1036.787	797.365
23.892	13.332	1035.658	795.838
24.907	13.133	1035.255	794.499
25.921	13.214	1034.524	794.257
26.936	13.228	1033.361	793.360
27.950	13.302	1032.215	792.768
28.965	13.378	1031.000	792.128
29.980	13.390	1030.079	791.407
30.994	13.444	1028.800	790.612
32.009	13.502	1027.653	789.937
33.023	13.462	1027.440	789.513
34.038	13.602	1026.426	789.330
35.053	13.492	1025.512	788.036
36.067	13.370	1024.516	786.620
37.082	13.373	1023.956	786.135
38.096	13.435	1022.874	785.527
39.111	13.440	1022.245	785.001
40.126	13.481	1021.348	784.438
41.140	13.381	1020.447	783.201
42.155	13.265	1019.435	781.808
43.169	13.148	1018.612	780.554
44.184	13.217	1017.529	779.981
45.199	13.143	1016.613	778.859
46.213	13.295	1015.085	778.336
47.228	13.173	1014.165	776.990
48.242	13.292	1013.484	776.959
49.257	13.301	1012.452	776.140
50.271	13.352	1011.512	775.590
51.286	13.347	1010.941	775.058
52.301	13.359	1009.796	774.171
53.315	13.296	1009.406	773.506
54.330	13.408	1008.409	773.198
55.344	13.194	1007.427	771.378
56.359	13.257	1006.598	770.970
57.374	13.180	1005.890	770.000
58.388	13.199	1005.243	769.524
59.403	13.244	1004.244	768.900
60.417	13.077	1003.631	767.586
61.432	13.124	1003.424	767.580
62.447	13.198	1001.993	766.759
63.461	13.026	1001.133	765.237
64.476	12.998	1000.388	764.469
65.490	13.067	999.320	763.905
66.505	13.032	998.570	763.101
67.520	13.004	998.005	762.474
68.534	13.172	997.448	762.758
69.549	13.180	996.607	762.080
70.563	13.225	995.544	761.409
71.578	13.187	995.026	760.769
72.593	12.871	994.614	758.933
73.607	13.008	993.008	758.270
74.622	13.119	991.998	757.942
75.636	13.066	991.445	757.209
76.651	12.979	990.874	756.310
77.666	13.063	989.802	755.809
78.680	13.179	988.917	755.595
79.695	13.023	988.759	754.696
80.709	13.155	988.115	754.740
81.724	13.085	987.305	753.735
82.739	13.163	986.385	753.321
83.753	13.258	985.760	753.210
84.768	13.245	985.000	752.501
85.782	13.361	983.876	752.108
86.797	13.456	983.292	752.024
87.812	13.380	982.552	751.047
88.826	13.409	981.799	750.536
89.841	13.353	981.165	749.732
90.855	13.369	980.198	749.000
91.870	13.363	979.696	748.521
92.884	13.504	978.794	748.403
93.899	13.448	977.971	747.454
94.914	13.415	977.605	746.962
95.928	13.484	976.546	746.394
96.943	13.536	975.895	746.068
97.957	13.458	975.363	745.242
98.972	13.407	974.315	744.144
99.987	13.405	973.912	743.762
101.001	13.476	973.236	743.500
102.016	13.486	972.274	742.747
103.030	13.432	971.041	741.496
104.045	13.436	970.223	740.822
105.060	13.519	968.975	740.177
106.074	13.405	968.693	739.388
107.089	13.158	967.692	737.452
108.103	13.322	966.347	737.094
109.118	13.170	965.426	735.650
110.133	13.156	964.690	734.960
111.147	13.241	963.648	734.480
112.162	13.206	963.173	733.896
113.176	13.243	961.713	732.887
114.191	13.193	961.623	732.531
115.206	13.430	960.498	732.659
116.220	13.271	959.787	731.348
117.235	13.233	958.901	730.439
118.249	13.303	957.873	729.899
119.264	13.248	957.446	729.266
120.279	13.238	956.326	728.307
121.293	13.296	955.381	727.777
122.308	13.045	955.449	726.660
123.322	13.123	954.135	725.936
124.337	13.180	953.023	725.281
125.352	13.087	951.585	723.711
126.366	13.104	951.064	723.327
127.381	13.141	949.789	722.455
128.395	13.053	948.791	721.250
129.410	13.106	947.986	720.802
130.424	13.236	946.828	720.425
131.439	13.143	946.388	719.622
132.454	13.296	945.186	719.311
133.468	13.377	944.606	719.155
134.483	13.193	944.392	718.131
135.497	13.252	943.543	717.680
136.512	13.220	942.684	716.823
137.527	13.343	941.784	716.608
138.541	13.340	940.861	715.830
139.556	13.212	940.618	715.026
140.570	13.266	939.395	714.265
141.585	13.427	938.582	714.279
142.600	13.394	938.237	713.813
143.614	13.471	937.382	713.432
144.629	13.462	937.096	713.111
145.643	13.596	935.845	712.670
146.658	13.528	935.200	711.827
147.673	13.452	934.044	710.557
148.687	13.436	933.695	710.158
149.702	13.420	932.135	708.841
150.716	13.336	931.706	708.095
151.731	13.400	930.409	707.319
152.746	13.337	930.153	706.791
153.760	13.391	929.255	706.276
154.775	13.474	929.019	706.392
155.789	13.362	928.232	705.251
156.804	13.559	926.794	704.936
157.819	13.512	926.645	704.561
158.833	13.596	925.912	704.299
159.848	13.516	925.494	703.577
160.862	13.557	924.559	702.979
161.877	13.606	923.832	702.572
162.892	13.466	923.223	701.453
163.906	13.424	921.943	700.238
164.921	13.385	921.088	699.364
165.935	13.518	920.257	699.233
166.950	13.547	919.195	698.487
167.964	13.637	918.297	698.123
168.979	13.630	917.394	697.341
169.994	13.440	916.768	696.007
171.008	13.437	916.259	695.548
172.023	13.547	915.428	695.314
173.037	13.557	914.757	694.785
174.052	13.691	913.618	694.422
175.067	13.587	913.071	693.508
176.081	13.651	912.405	693.210
177.096	13.479	911.460	691.712
178.110	13.509	910.765	691.246
179.125	13.595	909.433	690.536
180.140	13.697	909.026	690.587
181.154	13.591	908.487	689.679
182.169	13.556	907.892	689.019
183.183	13.724	907.005	688.984
184.198	13.803	906.538	688.897
185.213	13.720	906.042	688.111
186.227	13.761	905.623	687.903
187.242	13.817	904.771	687.428
188.256	13.836	904.361	687.134
189.271	13.969	903.111	686.674
190.286	13.962	902.602	686.195
191.300	13.736	901.729	684.539
192.315	13.632	901.202	683.648
193.329	13.574	900.750	683.008
194.344	13.446	900.147	681.961
195.359	13.520	899.737	681.894
196.373	13.740	899.193	682.330
197.388	13.885	898.462	682.308
198.402	13.819	897.774	681.454
199.417	13.991	897.445	681.851
200.432	14.066	897.027	681.783
201.446	14.008	896.770	681.286
202.461	14.121	895.972	681.084
203.475	14.144	895.787	680.978
204.490	14.099	895.163	680.260
205.504	14.158	893.884	679.468
206.519	14.095	893.108	678.559
207.534	14.089	892.476	677.995
208.548	14.007	892.045	677.275
209.563	14.031	891.348	676.781
210.577	13.946	890.714	675.897
211.592	13.964	890.155	675.484
212.607	14.002	889.308	674.937
213.621	14.216	888.670	675.263
214.636	14.143	888.116	674.483
215.650	14.042	887.748	673.737
216.665	14.215	887.179	673.946
217.680	14.113	886.908	673.267
218.694	14.199	886.357	673.135
219.709	14.246	885.655	672.736
220.723	14.216	884.893	671.976
221.738	14.195	884.545	671.566
222.753	14.182	883.628	670.759
223.767	14.253	883.184	670.646
224.782	14.370	882.042	670.192
225.796	14.313	881.156	669.232
226.811	14.355	880.877	669.126
227.826	14.438	879.840	668.613
228.840	14.419	879.251	668.029
229.855	14.304	878.774	667.150
230.869	14.280	877.998	666.406
231.884	14.390	877.210	666.187
232.899	14.235	876.764	665.171
233.913	14.309	875.559	664.493
234.928	14.373	875.126	664.362
235.942	14.223	874.542	663.262
236.957	14.257	874.061	662.974
237.972	14.282	873.173	662.341
238.986	14.316	872.603	661.984
240.001	14.149	872.143	660.913
241.015	14.345	871.488	661.136
242.030	14.338	870.656	660.420
243.045	14.463	869.812	660.215
244.059	14.501	869.107	659.770
245.074	14.417	868.753	659.114
246.088	14.514	868.052	658.904
247.103	14.531	867.669	658.622
248.117	14.528	867.041	658.075
249.132	14.559	866.353	657.619
250.147	14.685	865.744	657.594
251.161	14.780	864.979	657.329
252.176	14.806	864.503	657.012
253.190	14.862	863.910	656.724
254.205	14.861	863.226	656.139
255.220	14.889	863.006	656.026
256.234	14.992	862.158	655.726
257.249	14.817	861.490	654.476
258.263	14.837	861.210	654.282
259.278	14.865	860.652	653.912
260.293	14.978	860.093	653.868
261.307	15.012	859.523	653.511
262.322	15.183	858.453	653.306
263.336	15.014	858.096	652.318
264.351	14.981	857.793	651.900
265.366	15.013	857.190	651.512
266.380	15.178	856.588	651.637
267.395	15.047	855.924	650.565
268.409	15.014	854.902	649.604
269.424	15.125	854.220	649.458
270.439	14.941	853.674	648.273
271.453	15.020	852.717	647.795
272.468	15.005	852.316	647.376
273.482	14.885	851.836	646.488
274.497	15.053	851.300	646.673
275.512	15.088	850.508	646.151
276.526	15.132	849.471	645.472
277.541	15.175	848.699	644.995
278.555	15.088	848.676	644.585
279.570	15.178	847.898	644.284
280.585	15.357	847.320	644.474
281.599	15.369	846.825	644.090
282.614	15.265	846.443	643.342
283.628	15.193	845.346	642.174
284.643	15.274	845.019	642.180
285.657	15.163	844.832	641.554
286.672	15.382	843.888	641.621
287.687	15.231	843.083	640.376
288.701	15.253	843.277	640.550
289.716	15.223	842.554	639.829
290.730	15.379	841.763	639.767
291.745	15.415	841.333	639.519
292.760	15.315	840.663	638.572
293.774	15.299	840.202	638.108
294.789	15.458	839.478	638.105
295.803	15.471	839.050	637.770
296.818	15.455	838.393	637.156
297.833	15.322	837.811	636.152
298.847	15.453	836.794	635.820
299.862	15.482	836.419	635.588
300.876	15.500	835.746	635.088
301.891	15.542	835.289	634.845
302.906	15.578	834.480	634.308
303.920	15.611	833.930	633.960
304.935	15.705	833.251	633.740
305.949	15.689	833.106	633.514
306.964	15.816	832.030	633.117
307.979	15.668	831.437	632.053
308.993	15.665	831.148	631.766
310.008	15.738	830.621	631.587
311.022	15.818	830.028	631.380
312.037	15.824	829.681	631.082
313.052	15.867	829.000	630.669
314.066	15.529	828.407	628.897
315.081	15.670	827.859	628.953
316.095	15.603	827.150	628.107
317.110	15.703	826.888	628.225
318.125	15.617	826.393	627.472
319.139	15.581	826.083	627.047
320.154	15.663	825.340	626.735
321.168	15.754	824.568	626.432
322.183	15.755	824.049	625.985
323.197	15.712	823.676	625.486
324.212	15.814	823.163	625.422
325.227	15.766	822.845	624.946
326.241	15.825	822.110	624.552
327.256	15.722	821.908	623.963
328.270	15.698	820.960	623.099
329.285	15.562	820.686	622.330
330.300	15.931	819.539	622.772
331.314	15.858	819.013	622.045
332.329	15.833	818.683	621.649
333.343	15.829	818.112	621.144
334.358	15.929	817.617	621.081
335.373	16.001	816.984	620.810
336.387	16.017	816.497	620.445
337.402	16.024	815.792	619.881
338.416	16.020	815.430	619.538
339.431	16.032	815.389	619.496
340.446	16.077	814.239	618.733
341.460	15.898	813.796	617.683
342.475	16.153	813.318	618.199
343.489	16.322	812.764	618.342
344.504	16.499	811.984	618.343
345.519	16.196	811.624	616.906
346.533	16.280	811.268	616.887
347.548	16.338	810.869	616.740
348.562	16.199	810.521	615.915
349.577	16.009	809.927	614.717
350.592	16.230	809.060	614.807
351.606	16.175	808.609	614.213
352.621	16.003	808.671	613.577
353.635	16.049	808.042	613.215
354.650	16.273	807.237	613.361
355.665	16.287	806.916	613.115
356.679	16.250	806.796	612.837
357.694	16.279	805.924	612.223
358.708	16.283	805.436	611.815
359.723	16.170	805.060	611.066
360.738	16.331	804.547	611.205
361.752	16.368	803.719	610.654
362.767	16.349	803.479	610.348
363.781	16.321	802.895	609.750
364.796	16.455	802.637	609.984
365.810	16.582	802.196	610.053
366.825	16.407	802.138	609.325
367.840	16.524	802.011	609.594
368.854	16.628	801.023	609.166
369.869	16.590	800.800	608.804
370.883	16.601	799.672	607.934
371.898	16.718	799.464	608.140
372.913	16.619	798.644	607.107
373.927	16.712	798.334	607.154
374.942	16.744	797.295	606.422
375.956	16.678	797.009	605.917
376.971	16.729	796.657	605.777
377.986	16.711	796.235	605.339
379.000	16.720	795.398	604.681
380.015	16.795	795.121	604.683
381.029	16.770	794.557	604.111
382.044	16.764	794.201	603.769
383.059	16.826	793.451	603.365
384.073	16.789	793.126	602.933
385.088	16.762	792.538	602.337
386.102	16.759	791.531	601.505
387.117	16.776	791.339	601.369
388.132	16.693	790.731	600.558
389.146	16.596	790.640	600.091
390.161	16.913	790.002	600.676
391.175	16.764	790.110	600.180
392.190	17.010	789.305	600.383
393.205	16.924	788.876	599.701
394.219	16.847	788.368	598.991
395.234	16.791	788.096	598.533
396.248	16.700	787.340	597.584
397.263	16.656	787.104	597.198
398.278	16.791	786.668	597.289
399.292	16.814	785.991	596.805
400.307	16.981	785.363	596.863
401.321	16.712	785.340	595.845
402.336	16.961	784.830	596.280
403.350	16.900	784.580	595.822
404.365	16.944	784.093	595.554
405.380	17.008	783.735	595.454
406.394	17.039	782.809	594.808
407.409	17.124	782.736	594.997
408.423	17.247	782.409	595.128
409.438	17.299	781.598	594.640
410.453	17.179	781.518	594.107
411.467	17.211	781.262	593.971
412.482	17.226	780.530	593.414
413.496	17.375	780.070	593.533
414.511	17.405	779.595	593.223
415.526	17.399	779.374	592.980
416.540	17.427	778.977	592.724
417.555	17.348	778.396	591.954
418.569	17.365	778.058	591.705
419.584	17.333	777.399	591.040
420.599	17.421	777.042	591.020
421.613	103.069	1280.905	1437.076
422.628	87.856	1354.319	1437.164
