DTS Sentinel unit serial number:	SN413079Multiplexer serial number:	ORYXHardware model number:	OX4-SRSoftware version number:	ORYX F/W v4.00 Oryx Data Collector v3.7.2.0data status	okinstallation	princeton_trtdifferential loss correction	single-endedforward channel	channel 3reverse channel	N/Adate	2019/09/13time	11:20:34forward acquisition time	60.00reverse acquisition time	0.00gamma	496.2192k internal	0.2315k external	0.2315temperature offset calibration	1.0145default loss term (dB/km)	0.3790temperature slope calibration	1.0000multiplexer offset coefficient	1.0000multiplexer slope coefficient	1.0000fibre end	0.00T internal ref (°C)	32.44T ext. ref 1 (°C)	4.70T ext. ref 2 (°C)	29.61length (m)	temperature (°C)	Stokes	anti-Stokes-747.200	800.000	-0.050	-0.167
-746.185	-60.110	-0.158	0.068
-745.171	-71.357	0.160	0.061
-744.156	800.000	0.040	0.129
-743.142	-79.735	0.246	-0.084
-742.127	-29.124	0.085	0.049
-741.112	-88.734	-0.605	0.182
-740.098	196.143	0.234	0.361
-739.083	264.603	-0.049	-0.087
-738.069	800.000	0.056	0.170
-737.054	110.498	0.141	0.172
-736.039	-134.646	-0.229	-0.028
-735.025	-2.569	-0.147	0.104
-734.010	537.660	0.089	-0.213
-732.996	1.544	-0.069	0.050
-731.981	-200.000	0.021	-0.148
-730.966	127.502	0.056	0.072
-729.952	800.000	-0.101	0.339
-728.937	-143.875	-0.520	-0.050
-727.923	496.030	-0.090	-0.210
-726.908	-123.221	-0.214	0.035
-725.894	-200.000	0.033	-0.190
-724.879	-83.191	-0.284	-0.093
-723.864	6.386	-0.188	0.142
-722.850	-94.503	0.134	-0.037
-721.835	800.000	0.072	-0.303
-720.821	222.733	0.218	-0.356
-719.806	631.945	0.034	0.088
-718.791	11.920	0.253	-0.197
-717.777	-191.528	-0.145	-0.001
-716.762	-44.546	-0.562	-0.285
-715.748	-8.966	0.287	-0.194
-714.733	-10.309	-0.080	-0.053
-713.718	535.964	-0.090	0.216
-712.704	81.008	0.076	-0.083
-711.689	-21.489	0.146	-0.090
-710.675	-62.048	0.135	-0.057
-709.660	229.556	0.073	0.121
-708.645	-200.000	-0.035	-0.236
-707.631	-96.375	0.192	0.051
-706.616	517.985	-0.150	0.355
-705.602	160.765	0.102	0.144
-704.587	800.000	0.040	0.126
-703.572	-200.000	-0.058	-0.299
-702.558	110.305	-0.114	0.139
-701.543	403.386	0.082	-0.174
-700.529	104.567	0.201	0.239
-699.514	-200.000	0.035	0.274
-698.499	600.151	-0.020	0.051
-697.485	800.000	0.043	-0.149
-696.470	-100.274	0.224	0.056
-695.456	22.394	-0.178	-0.147
-694.441	-200.000	0.004	-0.464
-693.426	-24.064	-0.230	0.139
-692.412	261.773	0.065	-0.114
-691.397	122.290	0.106	0.133
-690.383	-8.400	-0.174	-0.118
-689.368	364.024	0.160	-0.325
-688.354	110.259	0.145	0.176
-687.339	-113.124	0.251	0.050
-686.324	-13.297	-0.309	-0.203
-685.310	-109.547	-0.220	-0.047
-684.295	-200.000	-0.013	0.149
-683.281	-129.886	0.413	0.057
-682.266	482.471	-0.145	-0.332
-681.251	7.673	-0.330	0.250
-680.237	-23.003	-0.195	0.119
-679.222	23.827	-0.097	-0.081
-678.208	485.317	0.089	0.205
-677.193	269.259	-0.050	-0.090
-676.178	-52.818	-0.206	-0.096
-675.164	304.510	-0.092	0.172
-674.149	800.000	0.037	-0.116
-673.135	-200.000	0.000	-0.083
-672.120	-139.314	-0.338	0.037
-671.105	-200.000	0.070	0.336
-670.091	52.775	0.133	0.129
-669.076	423.860	-0.154	0.335
-668.062	-57.028	0.490	-0.218
-667.047	800.000	-0.076	-0.309
-666.032	-131.213	-0.424	-0.057
-665.018	-41.936	0.087	0.045
-664.003	800.000	0.053	-0.156
-662.989	800.000	-0.010	0.040
-661.974	-24.570	-0.159	-0.096
-660.959	582.360	-0.087	0.215
-659.945	-26.045	-0.152	-0.090
-658.930	-167.756	-0.130	0.005
-657.916	7.068	0.079	-0.059
-656.901	25.507	-0.193	-0.162
-655.886	-94.451	0.103	-0.028
-654.872	125.515	-0.031	-0.040
-653.857	-58.168	0.169	0.074
-652.843	216.164	-0.163	0.262
-651.828	177.468	-0.236	0.348
-650.814	-200.000	-0.070	0.344
-649.799	-78.098	0.304	-0.105
-648.784	107.864	-0.009	-0.011
-647.770	-147.161	0.358	0.031
-646.755	-200.000	0.017	0.127
-645.741	778.244	-0.092	0.253
-644.726	-200.000	0.017	0.085
-643.711	-108.599	-0.490	0.106
-642.697	3.368	-0.185	0.136
-641.682	-125.467	0.318	-0.049
-640.668	40.636	-0.165	0.150
-639.653	659.932	-0.059	0.153
-638.638	-105.636	-0.169	-0.039
-637.624	-12.911	-0.363	-0.238
-636.609	-43.946	0.087	0.044
-635.595	-39.217	-0.121	-0.064
-634.580	-200.000	-0.021	-0.116
-633.565	5.968	-0.086	-0.065
-632.551	-145.066	0.181	0.017
-631.536	800.000	-0.081	0.265
-630.522	479.475	0.080	0.183
-629.507	452.589	-0.044	0.098
-628.492	-26.107	-0.134	-0.080
-627.478	-9.251	0.099	-0.067
-626.463	-103.970	-0.195	-0.046
-625.449	276.248	-0.114	-0.204
-624.434	-78.507	-0.246	-0.085
-623.419	800.000	0.080	-0.346
-622.405	-200.000	0.045	-0.505
-621.390	440.968	0.070	0.154
-620.376	-78.981	-0.393	-0.135
-619.361	-200.000	0.061	0.349
-618.346	-17.294	-0.282	-0.179
-617.332	-120.252	0.132	0.023
-616.317	-200.000	0.032	-0.229
-615.303	-200.000	0.004	-0.044
-614.288	11.594	-0.115	-0.089
-613.273	-113.191	0.145	0.029
-612.259	-149.680	0.415	0.033
-611.244	-111.749	-0.376	0.077
-610.230	313.396	0.041	0.078
-609.215	-122.456	0.219	0.036
-608.201	-59.340	-0.168	0.073
-607.186	-44.237	0.202	-0.102
-606.171	-22.779	-0.039	-0.024
-605.157	-22.915	0.366	-0.223
-604.142	21.224	0.184	0.151
-603.128	-121.342	0.235	0.039
-602.113	-17.595	0.029	-0.018
-601.098	-36.880	0.027	-0.014
-600.084	-200.000	-0.010	0.240
-599.069	-49.086	-0.254	0.122
-598.055	101.168	0.146	-0.172
-597.040	-200.000	0.005	0.103
-596.025	-200.000	-0.009	-0.248
-595.011	-125.523	-0.352	-0.054
-593.996	111.000	-0.235	-0.285
-592.982	-200.000	0.021	-0.096
-591.967	-200.000	0.014	0.226
-590.952	3.611	0.124	-0.091
-589.938	14.080	-0.215	0.169
-588.923	800.000	-0.165	-0.611
-587.909	87.992	0.216	-0.242
-586.894	-42.771	0.208	-0.106
-585.879	-83.323	-0.260	-0.084
-584.865	-200.000	-0.065	-0.321
-583.850	-200.000	-0.016	-0.141
-582.836	-78.799	-0.088	-0.030
-581.821	188.449	0.149	-0.224
-580.806	-81.809	-0.438	-0.145
-579.792	-3.904	0.117	0.082
-578.777	-82.629	0.112	-0.037
-577.763	-73.768	-0.450	0.165
-576.748	48.109	0.108	0.101
-575.733	-33.562	0.132	-0.073
-574.719	-200.000	-0.004	-0.072
-573.704	800.000	0.081	-0.301
-572.690	-200.000	0.031	-0.142
-571.675	-200.000	0.059	0.380
-570.661	363.919	0.098	0.199
-569.646	800.000	0.022	-0.094
-568.631	101.878	-0.178	0.208
-567.617	-12.149	0.427	-0.281
-566.602	292.916	-0.205	-0.377
-565.588	447.537	0.118	-0.262
-564.573	-147.702	0.257	-0.022
-563.558	-38.859	0.112	0.059
-562.544	216.681	0.200	0.319
-561.529	-165.611	0.095	0.004
-560.515	167.786	-0.251	0.359
-559.500	800.000	0.114	-0.350
-558.485	86.289	0.175	-0.194
-557.471	18.231	-0.134	0.108
-556.456	190.535	-0.195	-0.294
-555.442	90.506	-0.059	-0.067
-554.427	-200.000	-0.019	-0.136
-553.412	-118.645	-0.316	0.056
-552.398	-200.000	0.024	-0.430
-551.383	-200.000	0.037	-0.322
-550.369	285.257	0.055	-0.099
-549.354	122.883	-0.012	0.016
-548.339	-66.470	0.035	-0.014
-547.325	-147.995	-0.438	-0.037
-546.310	-75.633	0.108	0.039
-545.296	177.270	-0.077	-0.113
-544.281	24.733	0.103	-0.086
-543.266	22.079	-0.235	-0.193
-542.252	-200.000	0.062	-0.292
-541.237	800.000	0.050	-0.217
-540.223	24.786	0.224	-0.187
-539.208	-200.000	-0.042	-0.309
-538.193	-136.571	-0.283	0.033
-537.179	-15.521	0.053	0.034
-536.164	-65.832	0.202	-0.081
-535.150	-10.826	0.273	0.181
-534.135	68.483	-0.092	-0.094
-533.121	-200.000	0.034	0.212
-532.106	38.213	-0.116	-0.104
-531.091	121.393	0.121	0.152
-530.077	614.385	-0.121	0.305
-529.062	64.651	-0.150	-0.152
-528.048	-118.635	0.297	-0.053
-527.033	800.000	0.065	-0.229
-526.018	-45.478	-0.087	0.043
-525.004	62.463	0.023	0.023
-523.989	-110.961	0.297	0.061
-522.975	-166.141	0.038	-0.002
-521.960	50.557	-0.022	-0.021
-520.945	-33.465	0.140	-0.078
-519.931	186.961	0.039	-0.059
-518.916	-160.936	-0.297	-0.016
-517.902	800.000	0.112	-0.313
-516.887	-200.000	-0.055	-0.306
-515.872	-92.651	-0.063	0.018
-514.858	775.065	0.024	-0.065
-513.843	-108.318	-0.218	-0.047
-512.829	228.658	0.106	0.174
-511.814	14.047	-0.184	0.144
-510.799	18.094	0.105	0.084
-509.785	244.681	-0.076	0.129
-508.770	-47.765	-0.225	-0.109
-507.756	-200.000	-0.029	-0.160
-506.741	364.001	-0.151	0.305
-505.726	-32.498	0.179	-0.100
-504.712	52.457	0.045	-0.043
-503.697	-97.347	0.268	0.070
-502.683	91.923	-0.225	-0.254
-501.668	-181.510	-0.061	-0.001
-500.653	-98.089	0.301	0.078
-499.639	-155.484	0.380	0.025
-498.624	-55.458	0.463	0.209
-497.610	-144.445	-0.268	0.025
-496.595	-124.809	-0.343	-0.053
-495.581	21.641	-0.124	0.101
-494.566	-200.000	-0.022	0.311
-493.551	203.602	-0.092	-0.142
-492.537	129.026	0.105	-0.134
-491.522	204.253	0.068	0.105
-490.508	12.474	0.155	0.120
-489.493	-13.994	-0.165	0.107
-488.478	234.278	-0.085	0.140
-487.464	-200.000	-0.049	0.404
-486.449	44.810	-0.234	0.216
-485.435	-130.825	-0.197	-0.027
-484.420	-154.485	-0.142	0.010
-483.405	118.568	0.267	0.330
-482.391	324.173	-0.118	0.226
-481.376	21.616	0.244	0.199
-480.362	90.175	0.036	-0.040
-479.347	388.714	0.136	0.282
-478.332	-118.983	0.247	-0.043
-477.318	-12.732	0.266	0.174
-476.303	233.143	0.140	-0.230
-475.289	37.047	-0.198	0.176
-474.274	-91.220	0.317	-0.091
-473.259	-123.773	0.049	-0.008
-472.245	92.471	0.126	0.142
-471.230	-1.212	-0.107	-0.076
-470.216	-44.689	0.202	-0.101
-469.201	434.124	-0.029	-0.062
-468.186	-200.000	-0.008	-0.037
-467.172	-200.000	-0.004	0.021
-466.157	-200.000	0.006	-0.059
-465.143	-22.001	-0.242	0.147
-464.128	-197.881	0.048	-0.000
-463.113	800.000	0.071	-0.250
-462.099	-98.961	-0.093	0.024
-461.084	-200.000	0.029	0.240
-460.070	-200.000	0.049	0.287
-459.055	11.496	-0.364	0.280
-458.040	-10.889	-0.094	-0.062
-457.026	123.524	-0.217	-0.273
-456.011	55.506	-0.195	-0.189
-454.997	-200.000	-0.032	0.154
-453.982	44.367	0.103	0.094
-452.968	-104.683	-0.212	-0.049
-451.953	-102.425	-0.111	0.027
-450.938	-103.962	-0.322	-0.075
-449.924	-157.133	-0.115	0.007
-448.909	-200.000	-0.018	0.118
-447.895	186.721	0.049	0.073
-446.880	-109.320	-0.327	0.069
-445.865	148.372	-0.023	-0.032
-444.851	800.000	0.013	0.044
-443.836	117.191	0.025	-0.030
-442.822	2.616	-0.399	-0.290
-441.807	-88.813	0.216	0.064
-440.792	-200.000	-0.015	0.213
-439.778	12.093	0.262	0.202
-438.763	800.000	0.077	-0.250
-437.749	-34.688	0.150	-0.082
-436.734	-157.059	-0.141	0.009
-435.719	4.889	-0.071	0.052
-434.705	-200.000	-0.018	-0.226
-433.690	-12.567	-0.168	0.110
-432.676	-200.000	-0.014	0.143
-431.661	-75.094	-0.209	-0.075
-430.646	-114.527	-0.272	0.052
-429.632	-150.908	0.208	-0.016
-428.617	-0.794	-0.108	-0.076
-427.603	529.482	-0.061	0.145
-426.588	-200.000	0.018	0.235
-425.573	188.882	0.235	0.352
-424.559	-69.654	0.190	0.073
-423.544	800.000	0.110	0.321
-422.530	-0.682	0.215	0.153
-421.515	-200.000	0.015	-0.186
-420.500	-200.000	0.001	-0.237
-419.486	-86.219	0.228	-0.070
-418.471	53.632	0.073	0.070
-417.457	-28.766	-0.126	-0.073
-416.442	800.000	-0.037	-0.110
-415.428	773.305	0.140	0.381
-414.413	-45.372	0.202	-0.100
-413.398	23.077	0.172	0.141
-412.384	-3.710	-0.268	0.187
-411.369	-128.510	0.307	-0.044
-410.355	80.048	0.020	0.022
-409.340	-71.298	0.058	0.022
-408.325	37.423	-0.104	-0.092
-407.311	-174.862	-0.275	0.008
-406.296	-157.840	0.263	0.016
-405.282	-200.000	0.059	-0.264
-404.267	-143.753	-0.226	-0.021
-403.252	61.091	0.092	-0.092
-402.238	8.529	-0.176	0.133
-401.223	-76.122	0.296	0.105
-400.209	-133.863	0.206	0.026
-399.194	-200.000	0.017	-0.297
-398.179	-200.000	0.021	-0.300
-397.165	-200.000	-0.037	-0.262
-396.150	-200.000	-0.009	-0.215
-395.136	-200.000	-0.014	0.147
-394.121	86.538	0.054	-0.060
-393.106	-23.879	-0.144	-0.086
-392.092	13.424	0.114	-0.089
-391.077	116.728	0.148	-0.182
-390.063	68.401	0.248	-0.254
-389.048	-23.474	-0.249	-0.149
-388.033	-200.000	-0.005	0.116
-387.019	110.551	0.157	-0.189
-386.004	404.801	0.131	0.277
-384.990	-82.511	-0.312	-0.101
-383.975	57.531	0.204	0.199
-382.960	800.000	-0.017	0.046
-381.946	-200.000	-0.027	0.328
-380.931	-106.101	0.153	0.034
-379.917	230.390	-0.172	-0.281
-378.902	-184.064	-0.125	0.002
-377.888	-90.538	0.186	-0.054
-376.873	386.109	-0.019	0.040
-375.858	323.331	0.066	0.125
-374.844	216.033	-0.025	-0.040
-373.829	469.395	0.053	0.119
-372.815	-200.000	0.004	-0.170
-371.800	119.770	-0.164	0.203
-370.785	743.913	0.110	0.295
-369.771	-200.000	-0.061	0.360
-368.756	223.114	-0.122	0.197
-367.742	-5.139	0.105	-0.072
-366.727	-3.418	-0.241	0.168
-365.712	72.450	0.118	-0.123
-364.698	-200.000	-0.006	0.252
-363.683	-59.247	-0.475	0.204
-362.669	314.264	-0.101	-0.189
-361.654	-63.568	-0.398	-0.163
-360.639	506.508	0.045	0.105
-359.625	-156.310	0.256	0.016
-358.610	-200.000	0.025	-0.240
-357.596	800.000	-0.022	0.080
-356.581	203.474	-0.123	0.190
-355.566	735.343	-0.117	0.312
-354.552	70.210	-0.099	-0.102
-353.537	76.515	0.188	0.199
-352.523	-23.461	-0.314	0.188
-351.508	-19.728	-0.205	-0.126
-350.493	133.237	0.052	0.066
-349.479	-130.799	0.419	0.056
-348.464	-12.308	0.236	0.154
-347.450	668.321	0.041	-0.105
-346.435	24.466	-0.122	0.101
-345.420	97.375	-0.054	0.061
-344.406	86.728	0.381	-0.420
-343.391	-200.000	-0.018	-0.124
-342.377	-186.539	-0.324	0.005
-341.362	-200.000	0.000	0.177
-340.348	-74.229	0.386	-0.139
-339.333	49.259	0.068	0.064
-338.318	-165.704	0.330	0.014
-337.304	-85.823	0.082	-0.025
-336.289	1.318	0.224	0.161
-335.275	43.759	-0.314	0.286
-334.260	334.724	-0.034	0.066
-333.245	-200.000	-0.068	0.483
-332.231	70.983	-0.187	0.193
-331.216	-200.000	-0.037	-0.261
-330.202	-38.895	0.119	-0.062
-329.187	-200.000	-0.015	-0.335
-328.172	-138.551	-0.188	-0.021
-327.158	-200.000	0.009	0.237
-326.143	47.336	-0.149	-0.138
-325.129	-49.347	0.353	0.168
-324.114	-137.660	0.081	-0.009
-323.099	800.000	0.060	0.170
-322.085	-200.000	0.172	0.000
-321.070	-10.290	0.023	0.015
-320.056	-28.553	-0.126	0.072
-319.041	800.000	0.017	-0.058
-318.026	-200.000	0.005	0.100
-317.012	-200.000	0.061	0.270
-315.997	-189.461	-0.140	-0.002
-314.983	32.147	0.083	0.071
-313.968	-125.939	0.122	-0.018
-312.953	-108.273	-0.373	-0.080
-311.939	-98.110	-0.192	0.049
-310.924	-200.000	0.024	0.404
-309.910	203.939	0.295	0.455
-308.895	222.927	-0.094	-0.151
-307.880	251.173	0.152	-0.258
-306.866	-200.000	0.029	0.299
-305.851	-36.450	-0.313	-0.168
-304.837	-200.000	-0.017	-0.371
-303.822	49.805	0.202	0.190
-302.807	-0.451	0.171	0.121
-301.793	-34.471	0.172	0.094
-300.778	-200.000	-0.038	0.243
-299.764	124.608	-0.200	0.251
-298.749	33.810	0.137	-0.119
-297.735	-200.000	-0.014	0.145
-296.720	29.515	-0.285	-0.241
-295.705	-98.960	-0.192	0.049
-294.691	35.881	0.186	0.163
-293.676	-200.000	0.010	-0.178
-292.662	-200.000	-0.040	-0.426
-291.647	-200.000	-0.012	-0.096
-290.632	237.975	-0.042	-0.070
-289.618	622.869	0.102	-0.256
-288.603	-128.651	-0.220	-0.031
-287.589	267.502	-0.198	0.345
-286.574	-13.332	0.160	0.103
-285.559	-23.679	0.152	0.090
-284.545	610.571	0.025	0.061
-283.530	800.000	-0.081	0.239
-282.516	800.000	0.057	0.210
-281.501	152.038	0.062	-0.084
-280.486	-124.467	0.477	-0.074
-279.472	-38.916	0.247	-0.130
-278.457	80.800	0.143	0.153
-277.443	-43.067	-0.331	0.167
-276.428	583.236	-0.030	-0.074
-275.413	-18.192	0.228	-0.142
-274.399	-1.804	0.081	-0.057
-273.384	-104.850	0.122	-0.028
-272.370	-19.505	0.218	0.134
-271.355	-123.264	-0.380	0.060
-270.340	-99.651	-0.342	-0.085
-269.326	-200.000	-0.001	0.069
-268.311	-24.532	-0.230	-0.136
-267.297	-113.547	0.292	-0.057
-266.282	651.260	0.086	-0.219
-265.267	-200.000	-0.006	-0.211
-264.253	-200.000	-0.012	0.282
-263.238	800.000	-0.040	-0.112
-262.224	210.908	-0.021	-0.033
-261.209	-48.573	0.145	-0.069
-260.195	183.176	0.348	0.511
-259.180	204.886	-0.156	0.240
-258.165	157.398	-0.123	0.169
-257.151	-200.000	0.005	0.073
-256.136	-93.531	0.037	0.010
-255.122	38.819	-0.097	0.086
-254.107	40.469	0.083	0.074
-253.092	-67.183	0.321	-0.126
-252.078	-108.906	-0.138	0.029
-251.063	314.411	0.081	-0.151
-250.049	37.083	0.254	-0.224
-249.034	189.676	0.111	0.166
-248.019	-200.000	0.025	0.179
-247.005	-11.916	0.362	0.236
-245.990	-66.270	-0.181	0.071
-244.976	800.000	0.025	0.084
-243.961	214.110	0.162	0.254
-242.946	-200.000	0.006	0.261
-241.932	-78.706	-0.150	-0.051
-240.917	7.642	0.042	0.031
-239.903	800.000	0.089	0.309
-238.888	-27.177	-0.225	-0.130
-237.873	262.693	0.097	-0.168
-236.859	-200.000	0.051	0.295
-235.844	74.402	0.188	-0.196
-234.830	-134.354	-0.227	-0.028
-233.815	-68.905	-0.171	-0.066
-232.800	117.737	0.054	-0.066
-231.786	-46.605	0.121	-0.059
-230.771	-51.126	-0.281	-0.131
-229.757	-200.000	0.017	-0.177
-228.742	259.314	0.087	-0.149
-227.727	351.684	-0.043	-0.084
-226.713	47.622	0.112	-0.104
-225.698	578.663	-0.166	-0.404
-224.684	40.655	0.047	-0.042
-223.669	407.586	-0.008	0.016
-222.655	35.036	0.106	0.092
-221.640	-200.000	0.020	0.142
-220.625	-73.575	-0.191	0.069
-219.611	800.000	0.023	-0.090
-218.596	235.208	-0.086	-0.141
-217.582	-139.190	0.316	0.034
-216.567	180.998	-0.129	0.188
-215.552	-151.067	-0.062	-0.005
-214.538	-7.243	0.328	-0.221
-213.523	49.605	-0.105	0.098
-212.509	0.209	-0.221	-0.156
-211.494	800.000	0.084	-0.256
-210.479	-151.270	-0.352	0.026
-209.465	-29.819	-0.313	0.177
-208.450	188.827	0.346	0.513
-207.436	-200.000	0.014	-0.261
-206.421	-117.391	0.121	-0.022
-205.406	-200.000	-0.022	-0.248
-204.392	61.908	-0.057	0.056
-203.377	800.000	-0.040	0.161
-202.363	-139.393	-0.084	0.009
-201.348	-107.683	0.051	-0.011
-200.333	132.942	-0.116	0.149
-199.319	-58.914	-0.352	0.151
-198.304	8.738	-0.189	0.141
-197.290	-113.572	0.108	-0.021
-196.275	13.019	0.048	-0.036
-195.260	-128.365	-0.218	0.031
-194.246	-76.563	-0.092	0.032
-193.231	205.405	0.075	0.116
-192.217	-135.167	0.127	0.015
-191.202	-30.786	-0.428	-0.240
-190.187	-200.000	-0.017	0.191
-189.173	800.000	-0.095	-0.319
-188.158	-66.735	-0.240	0.094
-187.144	-43.252	-0.247	-0.124
-186.129	-71.143	-0.165	0.062
-185.114	-166.680	-0.274	0.011
-184.100	-200.000	0.038	-0.174
-183.085	-200.000	-0.049	-0.432
-182.071	128.295	0.136	-0.172
-181.056	69.271	0.246	-0.251
-180.042	365.301	0.083	-0.166
-179.027	200.169	0.236	-0.359
-178.012	502.333	0.051	0.116
-176.998	19.422	0.238	-0.189
-175.983	298.461	0.150	0.273
-174.969	-138.915	0.072	-0.008
-173.954	800.000	-0.067	-0.228
-172.939	275.626	0.282	0.495
-171.925	-174.439	-0.266	0.008
-170.910	800.000	0.073	-0.272
-169.896	-78.094	-0.185	0.063
-168.881	12.885	0.010	-0.008
-167.866	259.187	-0.124	0.211
-166.852	800.000	0.077	0.247
-165.837	-142.073	0.235	0.023
-164.823	-200.000	0.056	-0.282
-163.808	-152.234	-0.174	-0.012
-162.793	-125.723	0.036	0.005
-161.779	-4.327	0.141	-0.097
-160.764	800.000	0.103	-0.405
-159.750	322.402	0.090	-0.170
-158.735	-200.000	-0.006	0.119
-157.720	-200.000	0.011	0.127
-156.706	218.335	0.029	-0.045
-155.691	110.178	-0.196	-0.233
-154.677	-171.931	0.295	-0.010
-153.662	800.000	-0.061	0.246
-152.647	800.000	-0.135	0.448
-151.633	485.981	0.178	-0.401
-150.618	204.320	0.197	0.302
-149.604	7.596	0.132	0.098
-148.589	-136.658	-0.214	-0.024
-147.574	224.156	-0.172	0.275
-146.560	-200.000	-0.018	-0.089
-145.545	-27.428	-0.114	-0.066
-144.531	162.434	-0.176	0.245
-143.516	477.295	-0.059	0.131
-142.502	-3.304	-0.360	0.248
-141.487	-123.632	0.213	-0.034
-140.472	29.822	0.109	0.092
-139.458	182.895	-0.061	0.089
-138.443	-83.197	0.027	-0.009
-137.429	-143.992	0.201	0.019
-136.414	101.628	0.129	0.149
-135.399	800.000	0.018	0.059
-134.385	370.125	0.057	0.114
-133.370	-187.688	0.194	0.003
-132.356	255.307	-0.100	-0.170
-131.341	-30.297	-0.128	-0.072
-130.326	-200.000	-0.030	-0.163
-129.312	109.491	-0.130	-0.154
-128.297	304.552	-0.101	0.186
-127.283	12.461	-0.297	-0.227
-126.268	-48.951	0.330	-0.156
-125.253	120.679	0.110	-0.136
-124.239	5.427	0.254	0.185
-123.224	126.345	0.386	-0.483
-122.210	-23.836	0.350	0.207
-121.195	-33.960	0.224	0.122
-120.180	-1.511	-0.085	-0.059
-119.166	-200.000	0.021	-0.124
-118.151	-155.035	-0.206	-0.013
-117.137	80.655	-0.133	0.141
-116.122	760.186	-0.081	0.218
-115.107	-200.000	0.055	0.365
-114.093	-200.000	-0.012	0.217
-113.078	-67.904	-0.212	0.082
-112.064	-200.000	0.014	0.079
-111.049	34.130	-0.178	-0.154
-110.034	-56.493	-0.190	-0.084
-109.020	-54.708	0.240	0.107
-108.005	800.000	0.049	0.176
-106.991	-92.087	0.258	-0.072
-105.976	-43.656	0.545	0.272
-104.962	568.241	-0.148	-0.356
-103.947	-75.661	-0.143	-0.050
-102.932	-70.101	0.119	-0.045
-101.918	-46.541	-0.322	0.156
-100.903	-200.000	-0.029	0.340
-99.889	-50.163	-0.166	0.078
-98.874	125.055	0.048	0.059
-97.859	-200.000	-0.060	-0.396
-96.845	-46.945	0.277	-0.133
-95.830	-200.000	-0.036	-0.227
-94.816	366.171	0.056	-0.111
-93.801	-60.692	0.046	0.019
-92.786	66.067	0.102	0.102
-91.772	-17.297	0.100	0.062
-90.757	-17.889	-0.266	0.164
-89.743	-110.253	-0.224	-0.046
-88.728	-142.652	-0.077	0.007
-87.713	-144.677	-0.274	0.025
-86.699	800.000	-0.005	0.017
-85.684	-85.024	0.088	-0.027
-84.670	800.000	0.068	-0.258
-83.655	-96.194	-0.074	-0.019
-82.640	196.022	0.176	0.264
-81.626	800.000	-0.027	0.088
-80.611	-200.000	-0.037	-0.461
-79.597	-200.000	0.059	-0.340
-78.582	-81.694	-0.040	-0.013
-77.567	105.072	0.102	0.119
-76.553	76.738	-0.246	-0.258
-75.538	11.063	-0.186	-0.141
-74.524	800.000	-0.071	0.270
-73.509	69.840	0.079	-0.081
-72.494	210.240	0.070	-0.108
-71.480	-171.897	0.282	-0.009
-70.465	616.491	0.056	0.138
-69.451	227.221	-0.042	0.067
-68.436	626.146	0.041	0.102
-67.422	-200.000	0.041	0.440
-66.407	-130.428	0.174	-0.023
-65.392	-200.000	-0.027	0.210
-64.378	800.000	0.053	0.168
-63.363	-200.000	-0.053	0.269
-62.349	674.915	-0.106	0.272
-61.334	183.372	-0.749	-1.092
-60.319	-102.455	0.676	0.160
-59.305	-200.000	-0.073	-1.071
-58.290	315.323	0.686	1.275
-57.276	281.206	0.923	1.629
-56.261	-200.000	96.741	584.298
-55.246	612.918	1420.473	3506.351
-54.232	186.327	2616.725	3840.211
-53.217	118.106	2202.992	2678.014
-52.203	43.023	1735.941	1561.407
-51.188	35.606	1546.859	1339.802
-50.173	33.176	1520.083	1299.876
-49.159	52.924	1568.216	1479.211
-48.144	54.571	1585.483	1506.920
-47.130	35.925	1545.366	1340.516
-46.115	32.680	1531.216	1305.756
-45.100	32.544	1527.889	1301.928
-44.086	32.528	1525.786	1299.969
-43.071	32.480	1524.238	1298.273
-42.057	32.511	1522.070	1296.589
-41.042	32.526	1520.686	1295.457
-40.027	32.449	1519.196	1293.606
-39.013	32.516	1517.400	1292.487
-37.998	32.475	1516.574	1291.452
-36.984	32.497	1515.539	1290.670
-35.969	32.502	1513.942	1289.296
-34.954	32.483	1512.862	1288.192
-33.940	32.484	1511.288	1286.810
-32.925	32.544	1509.906	1285.989
-31.911	32.507	1508.727	1284.685
-30.896	32.567	1507.511	1284.004
-29.881	32.482	1505.692	1281.822
-28.867	32.467	1504.634	1280.770
-27.852	32.526	1502.737	1279.508
-26.838	32.470	1501.363	1277.908
-25.823	32.422	1500.186	1276.530
-24.809	32.425	1498.275	1274.874
-23.794	32.478	1496.504	1273.674
-22.779	32.468	1495.562	1272.751
-21.765	32.477	1494.207	1271.609
-20.750	32.513	1493.233	1270.972
-19.736	32.414	1492.654	1269.763
-18.721	32.498	1490.931	1268.814
-17.706	32.376	1490.406	1267.491
-16.692	32.460	1488.954	1266.776
-15.677	32.456	1487.766	1265.684
-14.663	32.379	1486.841	1264.334
-13.648	32.344	1486.382	1263.657
-12.633	32.384	1485.086	1262.771
-11.619	32.322	1484.610	1261.904
-10.604	32.327	1483.842	1261.229
-9.590	32.344	1482.661	1260.290
-8.575	32.374	1481.765	1259.679
-7.560	32.349	1480.951	1258.775
-6.546	32.397	1479.572	1257.870
-5.531	32.369	1478.729	1256.919
-4.517	32.384	1477.642	1256.045
-3.502	32.366	1476.798	1255.157
-2.487	32.263	1475.782	1253.555
-1.473	32.418	1474.449	1253.405
-0.458	32.438	1473.497	1252.683
0.556	34.593	1464.463	1243.129
1.571	31.693	1437.879	1201.874
2.586	28.111	1375.027	1127.207
3.600	26.236	1291.655	1047.904
4.615	24.138	1245.046	998.255
5.629	20.323	1187.436	931.545
6.644	12.368	1101.604	824.368
7.659	5.813	1060.787	761.991
8.673	4.940	1055.453	753.869
9.688	4.708	1051.872	750.128
10.702	4.483	1050.412	747.938
11.717	4.680	1048.896	747.741
12.731	7.842	1051.920	765.050
13.746	15.925	1063.718	812.722
14.761	21.760	1070.480	846.068
15.775	22.253	1070.140	848.103
16.790	21.708	1068.181	843.849
17.804	20.648	1066.535	837.374
18.819	19.717	1065.049	831.657
19.834	19.444	1063.151	828.788
20.848	19.136	1062.537	826.762
21.863	19.067	1062.244	826.126
22.877	19.044	1061.265	825.181
23.892	18.854	1060.680	823.746
24.907	18.673	1059.740	822.073
25.921	18.669	1058.690	821.168
26.936	18.614	1058.444	820.640
27.950	18.682	1057.041	819.805
28.965	18.569	1056.625	818.870
29.980	18.718	1054.845	818.130
30.994	18.887	1054.377	818.498
32.009	18.994	1053.483	818.239
33.023	19.078	1052.816	818.050
34.038	19.121	1051.776	817.375
35.053	18.963	1051.345	816.218
36.067	18.700	1049.932	813.801
37.082	18.728	1049.306	813.374
38.096	18.864	1047.934	812.886
39.111	18.772	1047.893	812.343
40.126	19.142	1046.405	812.865
41.140	18.861	1045.871	811.052
42.155	18.646	1044.234	808.702
43.169	18.363	1043.476	806.708
44.184	18.428	1042.081	805.865
45.199	18.323	1040.745	804.266
46.213	18.333	1040.050	803.707
47.228	18.411	1039.413	803.506
48.242	18.674	1038.348	803.847
49.257	18.953	1037.381	804.333
50.271	18.801	1036.512	802.874
51.286	18.772	1035.765	802.091
52.301	18.933	1035.636	802.673
53.315	18.972	1033.931	801.462
54.330	18.803	1033.482	800.253
55.344	18.738	1032.276	798.949
56.359	18.522	1031.320	797.133
57.374	18.506	1030.506	796.359
58.388	18.501	1030.258	796.074
59.403	18.452	1028.824	794.667
60.417	18.389	1028.119	793.762
61.432	18.361	1027.662	793.211
62.447	18.385	1026.921	792.677
63.461	18.215	1025.891	791.027
64.476	18.026	1025.393	789.700
65.490	18.058	1023.997	788.702
66.505	18.183	1023.070	788.493
67.520	18.089	1022.697	787.702
68.534	18.273	1021.661	787.682
69.549	18.181	1020.933	786.630
70.563	18.163	1020.463	786.116
71.578	18.248	1019.656	785.812
72.593	18.076	1018.341	783.940
73.607	17.909	1017.635	782.565
74.622	17.904	1016.681	781.736
75.636	17.954	1015.928	781.316
76.651	18.066	1014.996	781.043
77.666	18.084	1014.452	780.638
78.680	18.168	1013.622	780.316
79.695	18.133	1012.838	779.484
80.709	18.059	1012.879	779.106
81.724	18.238	1011.454	778.756
82.739	18.465	1010.718	779.154
83.753	18.428	1010.578	778.808
84.768	18.712	1009.985	779.572
85.782	18.890	1009.666	780.063
86.797	19.169	1009.031	780.772
87.812	19.089	1008.483	779.916
88.826	18.883	1007.485	778.144
89.841	18.865	1006.462	777.203
90.855	19.004	1005.262	776.835
91.870	19.061	1005.190	776.967
92.884	19.079	1004.501	776.445
93.899	19.148	1003.446	775.875
94.914	19.116	1002.671	775.063
95.928	19.072	1002.130	774.377
96.943	19.097	1001.505	773.937
97.957	19.041	1000.394	772.757
98.972	18.963	999.176	771.403
99.987	18.937	999.179	771.215
101.001	18.971	998.211	770.556
102.016	19.019	997.538	770.182
103.030	18.917	996.325	768.720
104.045	18.896	995.326	767.789
105.060	19.032	993.990	767.297
106.074	19.009	993.079	766.424
107.089	18.647	992.111	763.995
108.103	18.565	990.995	762.703
109.118	18.391	990.072	761.156
110.133	18.370	989.663	760.677
111.147	18.263	988.689	759.387
112.162	18.239	987.734	758.483
113.176	18.210	986.933	757.672
114.191	18.521	985.970	758.242
115.206	18.461	985.385	757.457
116.220	18.502	984.454	756.855
117.235	18.453	983.705	755.998
118.249	18.392	983.126	755.218
119.264	18.437	981.718	754.265
120.279	18.273	981.156	753.045
121.293	18.169	980.344	751.898
122.308	18.160	979.628	751.242
123.322	18.036	979.082	750.215
124.337	17.964	977.697	748.769
125.352	17.991	976.581	747.967
126.366	18.017	975.056	746.848
127.381	18.004	974.262	746.117
128.395	17.948	973.062	744.889
129.410	18.061	972.239	744.685
130.424	18.207	971.504	744.690
131.439	18.354	970.532	744.519
132.454	18.169	970.982	743.993
133.468	18.434	969.800	744.172
134.483	18.452	968.909	743.502
135.497	18.290	968.686	742.563
136.512	18.441	967.459	742.211
137.527	18.356	966.811	741.279
138.541	18.514	966.197	741.426
139.556	18.504	965.082	740.462
140.570	18.509	964.801	740.204
141.585	18.651	963.757	739.949
142.600	18.738	963.847	740.328
143.614	18.813	963.021	739.953
144.629	18.961	961.803	739.586
145.643	19.084	961.554	739.857
146.658	18.939	960.563	738.406
147.673	18.968	959.166	737.391
148.687	18.681	958.384	735.497
149.702	18.595	957.858	734.658
150.716	18.463	956.430	732.935
151.731	18.525	955.602	732.501
152.746	18.452	955.070	731.716
153.760	18.523	954.204	731.289
154.775	18.561	953.294	730.691
155.789	18.682	952.630	730.631
156.804	18.661	952.359	730.268
157.819	18.715	951.227	729.565
158.833	18.831	950.604	729.518
159.848	18.866	950.311	729.375
160.862	18.954	949.883	729.357
161.877	18.988	949.138	728.865
162.892	18.678	947.992	726.608
163.906	18.570	946.562	724.990
164.921	18.469	945.847	723.950
165.935	18.510	944.520	723.044
166.950	18.616	943.846	722.912
167.964	18.686	942.934	722.446
168.979	18.719	941.971	721.781
169.994	18.520	940.966	720.111
171.008	18.646	939.729	719.630
172.023	18.592	939.209	718.941
173.037	18.760	938.857	719.312
174.052	19.039	938.028	719.780
175.067	18.925	937.211	718.614
176.081	18.603	936.371	716.562
177.096	18.406	935.297	714.855
178.110	18.548	934.340	714.648
179.125	18.478	933.865	713.931
180.140	18.538	933.011	713.468
181.154	18.752	931.966	713.494
182.169	18.753	931.692	713.223
183.183	18.866	931.802	713.715
184.198	18.985	930.577	713.206
185.213	19.009	930.139	712.909
186.227	18.914	929.720	712.130
187.242	18.977	929.099	711.852
188.256	19.105	928.389	711.773
189.271	19.171	927.689	711.447
190.286	19.208	926.938	710.962
191.300	19.090	925.866	709.589
192.315	18.532	925.006	706.571
193.329	18.346	924.107	705.052
194.344	18.403	923.045	704.414
195.359	18.544	922.910	704.829
196.373	18.707	922.373	705.029
197.388	18.816	922.135	705.231
198.402	19.132	921.492	705.972
199.417	19.126	921.446	705.849
200.432	19.357	921.159	706.515
201.446	19.403	920.955	706.483
202.461	19.490	920.227	706.220
203.475	19.583	920.061	706.409
204.490	19.561	919.220	705.610
205.504	19.319	918.086	703.688
206.519	19.079	917.161	701.939
207.534	19.075	916.501	701.356
208.548	19.147	915.560	700.870
209.563	19.106	914.951	700.173
210.577	19.149	914.258	699.754
211.592	19.171	913.488	699.192
212.607	19.399	913.286	699.904
213.621	19.583	912.625	700.078
214.636	19.451	912.003	699.004
215.650	19.415	911.136	698.135
216.665	19.288	911.247	697.645
217.680	19.369	910.994	697.716
218.694	19.535	910.214	697.728
219.709	19.614	909.417	697.372
220.723	19.509	908.820	696.430
221.738	19.605	908.079	696.188
222.753	19.549	907.410	695.389
223.767	19.411	906.595	694.148
224.782	19.518	906.030	694.083
225.796	19.452	905.968	693.708
226.811	19.705	904.861	693.814
227.826	19.713	904.088	693.193
228.840	19.382	903.526	691.376
229.855	19.372	902.576	690.544
230.869	19.563	901.869	690.709
231.884	19.357	901.582	689.605
232.899	19.384	900.761	689.024
233.913	19.302	899.863	687.946
234.928	19.222	898.956	686.875
235.942	19.142	898.494	686.140
236.957	19.041	897.675	685.052
237.972	19.130	896.646	684.563
238.986	19.043	896.451	684.003
240.001	19.185	895.891	684.082
241.015	19.162	895.001	683.252
242.030	19.269	894.721	683.403
243.045	19.296	894.024	682.914
244.059	19.504	893.609	683.360
245.074	19.511	892.734	682.658
246.088	19.456	892.016	681.831
247.103	19.532	891.899	681.982
248.117	19.791	891.227	682.431
249.132	19.705	891.295	682.084
250.147	20.060	890.633	682.917
251.161	20.235	890.252	683.251
252.176	20.391	889.144	682.957
253.190	20.481	888.633	682.855
254.205	20.395	888.319	682.216
255.220	20.544	887.935	682.445
256.234	20.451	886.857	681.195
257.249	20.201	886.674	680.012
258.263	20.286	886.049	679.804
259.278	20.351	884.916	679.132
260.293	20.267	884.874	678.708
261.307	20.431	884.111	678.706
262.322	20.576	883.522	678.757
263.336	20.611	882.830	678.304
264.351	20.405	882.719	677.357
265.366	20.573	881.828	677.267
266.380	20.453	881.399	676.407
267.395	20.594	880.117	675.915
268.409	20.427	879.585	674.795
269.424	20.303	879.032	673.831
270.439	20.273	878.370	673.147
271.453	20.298	877.410	672.451
272.468	20.267	876.486	671.563
273.482	20.321	875.604	671.035
274.497	20.268	875.642	670.800
275.512	20.119	874.709	669.452
276.526	20.212	873.863	669.104
277.541	20.416	873.111	669.254
278.555	20.171	872.784	668.000
279.570	20.390	872.361	668.459
280.585	20.588	872.292	669.111
281.599	20.645	871.582	668.726
282.614	20.408	871.426	667.638
283.628	20.400	870.157	666.574
284.643	20.384	869.390	665.866
285.657	20.450	868.639	665.486
286.672	20.401	868.226	664.923
287.687	20.442	868.081	664.909
288.701	20.368	867.740	664.305
289.716	20.484	866.821	663.986
290.730	20.310	866.687	663.159
291.745	20.410	865.839	662.837
292.760	20.572	864.857	662.641
293.774	20.629	864.243	662.329
294.789	20.702	864.163	662.488
295.803	20.763	863.588	662.221
296.818	20.772	862.354	661.250
297.833	20.321	862.053	659.247
298.847	20.495	861.188	659.187
299.862	20.467	860.443	658.455
300.876	20.580	860.238	658.665
301.891	20.795	859.403	658.782
302.906	20.707	858.964	658.054
303.920	21.012	858.256	658.608
304.935	21.030	857.490	658.028
305.949	21.093	857.211	657.993
306.964	20.937	856.436	656.753
307.979	20.885	856.231	656.342
308.993	20.705	855.761	655.244
310.008	20.885	854.735	655.077
311.022	20.917	854.385	654.871
312.037	21.018	853.642	654.625
313.052	20.733	853.300	653.233
314.066	20.549	852.281	651.707
315.081	20.653	851.154	651.177
316.095	20.648	851.061	651.031
317.110	20.542	850.816	650.387
318.125	20.444	850.417	649.657
319.139	20.521	849.713	649.352
320.154	20.574	849.150	649.061
321.168	20.664	848.510	648.851
322.183	20.583	847.927	648.044
323.197	20.654	847.688	648.068
324.212	20.761	847.116	647.974
325.227	20.732	846.453	647.300
326.241	20.636	846.111	646.626
327.256	20.602	845.304	645.826
328.270	20.652	844.616	645.428
329.285	20.628	844.148	644.925
330.300	20.674	843.405	644.469
331.314	20.670	842.889	644.002
332.329	20.730	842.456	643.836
333.343	20.702	842.057	643.372
334.358	20.806	841.648	643.386
335.373	21.009	840.583	643.265
336.387	21.031	840.126	642.940
337.402	21.034	840.158	642.920
338.416	21.042	839.373	642.291
339.431	21.172	839.136	642.532
340.446	21.255	838.727	642.466
341.460	21.457	837.959	642.561
342.475	21.434	837.627	642.166
343.489	21.428	837.321	641.855
344.504	21.622	836.563	641.927
345.519	21.715	835.709	641.554
346.533	21.763	835.153	641.247
347.548	21.732	834.850	640.845
348.562	21.587	834.257	639.803
349.577	21.274	833.590	638.092
350.592	21.059	832.787	636.635
351.606	21.019	832.244	636.019
352.621	21.044	831.784	635.701
353.635	20.977	831.502	635.186
354.650	21.069	830.958	635.050
355.665	21.105	830.641	634.880
356.679	21.284	830.339	635.246
357.694	21.267	829.925	634.811
358.708	21.372	829.242	634.613
359.723	21.230	828.622	633.568
360.738	21.194	828.423	633.229
361.752	21.349	827.585	633.093
362.767	21.384	827.195	632.867
363.781	21.495	827.029	633.086
364.796	21.599	826.680	633.138
365.810	21.628	825.956	632.631
366.825	21.885	825.706	633.312
367.840	21.988	825.374	633.372
368.854	22.037	824.893	633.124
369.869	21.825	824.588	632.069
370.883	21.653	823.745	630.750
371.898	21.604	822.965	629.920
372.913	21.572	822.641	629.501
373.927	21.736	822.219	629.711
374.942	21.757	821.357	629.070
375.956	21.669	820.859	628.317
376.971	21.879	820.286	628.577
377.986	22.087	819.692	628.810
379.000	21.979	819.231	628.017
380.015	21.973	818.918	627.698
381.029	22.102	818.441	627.737
382.044	21.936	817.477	626.350
383.059	22.019	816.838	626.102
384.073	21.967	816.826	625.851
385.088	21.976	816.093	625.268
386.102	21.900	815.243	624.292
387.117	21.653	815.104	623.248
388.132	21.564	814.323	622.282
389.146	21.630	814.070	622.265
390.161	21.778	813.499	622.303
391.175	21.767	813.385	622.118
392.190	21.974	812.616	622.211
393.205	21.987	812.155	621.847
394.219	21.752	811.619	620.552
395.234	21.780	811.287	620.342
396.248	21.850	810.552	619.971
397.263	21.590	809.663	618.320
398.278	21.571	809.387	617.986
399.292	21.598	809.255	617.924
400.307	21.504	808.500	616.962
401.321	21.497	808.267	616.707
402.336	21.592	807.916	616.717
403.350	21.653	807.432	616.510
404.365	21.715	807.233	616.521
405.380	21.950	806.659	616.853
406.394	21.992	806.276	616.653
407.409	22.374	805.605	617.427
408.423	22.306	805.657	617.173
409.438	22.345	804.884	616.662
410.453	22.349	804.429	616.275
411.467	22.378	804.496	616.371
412.482	22.516	803.841	616.299
413.496	22.479	803.246	615.657
414.511	22.503	803.126	615.595
415.526	22.683	802.625	615.786
416.540	22.586	802.241	615.097
417.555	22.566	801.677	614.543
418.569	22.486	801.142	613.801
419.584	22.409	800.869	613.268
420.599	22.484	800.265	613.011
421.613	161.541	1368.382	1793.068
422.628	140.316	1451.186	1793.182
