DTS Sentinel unit serial number:	SN413079Multiplexer serial number:	ORYXHardware model number:	OX4-SRSoftware version number:	ORYX F/W v4.00 Oryx Data Collector v3.7.2.0data status	okinstallation	princeton_trtdifferential loss correction	single-endedforward channel	channel 3reverse channel	N/Adate	2019/09/17time	01:12:34forward acquisition time	60.00reverse acquisition time	0.00gamma	496.2192k internal	0.2325k external	0.2325temperature offset calibration	0.9942default loss term (dB/km)	0.3790temperature slope calibration	1.0000multiplexer offset coefficient	1.0000multiplexer slope coefficient	1.0000fibre end	0.00T internal ref (°C)	29.48T ext. ref 1 (°C)	0.11T ext. ref 2 (°C)	24.22length (m)	temperature (°C)	Stokes	anti-Stokes-747.200	800.000	-0.073	0.210
-746.185	1.592	-0.272	0.198
-745.171	33.105	-0.193	0.169
-744.156	-91.372	0.175	-0.051
-743.142	-89.002	-0.185	0.055
-742.127	-200.000	-0.001	0.076
-741.112	-111.164	-0.056	0.012
-740.098	34.773	0.117	-0.104
-739.083	171.367	0.249	-0.360
-738.069	-57.543	0.338	0.150
-737.054	800.000	-0.089	-0.319
-736.039	230.281	-0.109	0.180
-735.025	-73.362	0.306	-0.113
-734.010	58.837	0.105	-0.104
-732.996	-14.269	-0.540	-0.351
-731.981	10.831	-0.168	-0.130
-730.966	79.196	-0.188	0.203
-729.952	-200.000	0.042	-0.233
-728.937	373.806	0.042	-0.085
-727.923	-200.000	0.022	-0.112
-726.908	176.092	-0.152	-0.223
-725.894	182.702	0.132	0.196
-724.879	-165.583	-0.425	0.019
-723.864	-161.708	0.348	-0.018
-722.850	166.061	0.275	0.393
-721.835	318.198	-0.092	-0.175
-720.821	391.787	-0.152	0.319
-719.806	-146.522	-0.240	-0.021
-718.791	51.075	-0.157	0.150
-717.777	106.015	-0.261	0.312
-716.762	743.155	0.073	0.197
-715.748	800.000	0.045	0.146
-714.733	57.210	-0.149	0.146
-713.718	-34.989	-0.552	0.303
-712.704	800.000	-0.046	-0.138
-711.689	-85.436	-0.138	0.043
-710.675	393.961	0.027	0.057
-709.660	37.249	-0.086	-0.077
-708.645	-110.071	0.057	-0.012
-707.631	-155.125	0.160	-0.011
-706.616	70.521	-0.313	-0.326
-705.602	-75.844	-0.081	0.029
-704.587	-47.813	-0.149	-0.073
-703.572	-94.956	-0.388	-0.106
-702.558	-200.000	-0.068	-0.313
-701.543	83.373	0.096	-0.105
-700.529	66.972	-0.132	0.136
-699.514	102.787	0.139	0.164
-698.499	1.573	-0.469	0.340
-697.485	-200.000	0.004	0.038
-696.470	-200.000	0.021	0.235
-695.456	1.188	0.162	-0.117
-694.441	240.934	-0.103	0.173
-693.426	-99.951	0.484	0.122
-692.412	551.554	-0.109	0.264
-691.397	-200.000	-0.014	0.117
-690.383	45.693	-0.214	-0.199
-689.368	162.460	0.264	0.373
-688.354	-35.682	0.429	0.234
-687.339	91.921	-0.228	0.258
-686.324	-200.000	-0.040	-0.423
-685.310	427.922	0.030	0.065
-684.295	12.378	0.204	-0.158
-683.281	59.563	-0.086	-0.086
-682.266	-127.445	-0.423	-0.062
-681.251	122.891	0.188	-0.236
-680.237	-58.979	-0.352	-0.153
-679.222	127.656	-0.164	-0.210
-678.208	-110.692	0.110	-0.023
-677.193	-146.546	-0.454	-0.040
-676.178	-200.000	0.006	0.101
-675.164	-200.000	-0.013	-0.246
-674.149	96.389	0.166	0.192
-673.135	394.737	-0.132	0.276
-672.120	-2.922	-0.146	-0.103
-671.105	747.724	-0.127	-0.346
-670.091	109.750	0.021	-0.026
-669.076	-200.000	0.008	0.159
-668.062	531.708	-0.025	-0.058
-667.047	-8.647	0.209	-0.141
-666.032	-200.000	0.008	-0.148
-665.018	134.662	0.013	0.017
-664.003	173.579	-0.256	-0.372
-662.989	300.137	-0.137	-0.255
-661.974	21.701	0.232	-0.190
-660.959	-200.000	-0.003	0.059
-659.945	-55.309	0.179	0.081
-658.930	-64.342	0.136	-0.056
-657.916	17.236	-0.117	-0.093
-656.901	-200.000	0.038	-0.451
-655.886	-32.737	-0.244	-0.136
-654.872	588.712	-0.042	0.103
-653.857	-9.326	0.089	-0.060
-652.843	45.219	0.043	-0.040
-651.828	304.180	0.071	-0.132
-650.814	12.450	-0.249	0.193
-649.799	-69.445	-0.146	-0.056
-648.784	-200.000	0.010	0.057
-647.770	-82.732	0.374	-0.122
-646.755	-3.612	-0.203	-0.142
-645.741	800.000	0.094	0.333
-644.726	354.553	0.135	0.271
-643.711	-59.237	-0.337	0.146
-642.697	124.549	0.070	0.088
-641.682	61.549	-0.119	-0.119
-640.668	-37.105	0.321	-0.173
-639.653	-170.604	-0.222	-0.008
-638.638	-151.506	-0.082	0.006
-637.624	27.350	-0.112	0.095
-636.609	250.581	0.025	0.043
-635.595	-107.117	-0.306	-0.068
-634.580	37.083	-0.196	-0.174
-633.565	27.566	-0.210	0.177
-632.551	-86.677	0.382	0.118
-631.536	166.896	0.116	0.166
-630.522	382.793	-0.064	-0.133
-629.507	168.055	0.079	-0.113
-628.492	132.999	0.159	-0.206
-627.478	-200.000	-0.043	-0.258
-626.463	-76.551	-0.452	-0.160
-625.449	405.501	-0.117	-0.248
-624.434	327.132	0.041	0.080
-623.419	322.109	-0.142	0.271
-622.405	1.707	0.275	-0.199
-621.390	132.056	-0.228	-0.294
-620.376	-200.000	-0.024	-0.230
-619.361	-25.966	-0.170	0.101
-618.346	800.000	-0.066	-0.290
-617.332	33.670	-0.167	-0.146
-616.317	-149.224	-0.194	0.016
-615.303	800.000	0.042	-0.129
-614.288	-97.004	-0.429	-0.113
-613.273	-59.471	-0.177	0.076
-612.259	719.859	-0.106	0.284
-611.244	800.000	-0.073	0.298
-610.230	201.979	0.084	-0.129
-609.215	221.157	0.120	0.193
-608.201	-105.962	0.541	0.122
-607.186	-200.000	0.011	-0.257
-606.171	-87.026	-0.248	-0.076
-605.157	173.055	0.088	0.128
-604.142	-79.129	0.240	0.082
-603.128	800.000	0.075	0.264
-602.113	-200.000	-0.024	0.463
-601.098	94.489	0.165	0.188
-600.084	638.221	0.047	0.121
-599.069	75.976	-0.124	0.132
-598.055	275.475	-0.084	-0.149
-597.040	-200.000	0.014	-0.091
-596.025	-39.694	-0.465	-0.244
-595.011	12.985	0.068	0.052
-593.996	68.175	-0.075	-0.077
-592.982	-200.000	0.089	0.454
-591.967	-159.590	-0.293	-0.016
-590.952	-113.179	-0.641	-0.127
-589.938	-88.034	-0.066	0.020
-588.923	-100.869	0.098	0.024
-587.909	75.587	-0.162	-0.172
-586.894	-25.197	-0.204	0.121
-585.879	-200.000	0.025	0.127
-584.865	-108.444	-0.383	-0.083
-583.850	180.071	0.239	0.351
-582.836	302.895	0.090	-0.168
-581.821	40.718	-0.220	-0.199
-580.806	-143.366	-0.253	0.024
-579.792	265.997	0.107	0.188
-578.777	59.683	-0.111	-0.109
-577.763	654.009	0.008	0.020
-576.748	-200.000	0.017	-0.236
-575.733	278.035	-0.191	0.341
-574.719	178.890	0.202	0.296
-573.704	-200.000	-0.020	0.289
-572.690	-38.967	0.237	-0.125
-571.675	-200.000	-0.028	0.283
-570.661	-200.000	0.043	-0.275
-569.646	800.000	0.038	0.149
-568.631	-165.413	-0.263	0.012
-567.617	-157.576	0.055	0.003
-566.602	800.000	-0.097	-0.311
-565.588	146.995	-0.124	0.168
-564.573	800.000	-0.047	-0.133
-563.558	800.000	0.113	-0.400
-562.544	-200.000	0.003	0.136
-561.529	63.328	-0.124	0.124
-560.515	-112.130	-0.249	-0.050
-559.500	540.278	-0.108	0.257
-558.485	-98.762	-0.443	-0.113
-557.471	-38.243	0.050	-0.027
-556.456	800.000	-0.105	-0.357
-555.442	-200.000	-0.011	-0.269
-554.427	60.324	-0.151	-0.150
-553.412	305.112	0.039	0.073
-552.398	-3.817	-0.043	0.030
-551.383	-200.000	0.025	-0.304
-550.369	180.700	-0.137	-0.201
-549.354	206.978	-0.081	-0.126
-548.339	343.030	0.072	0.142
-547.325	-200.000	-0.005	-0.080
-546.310	-200.000	0.023	-0.245
-545.296	409.891	-0.052	-0.110
-544.281	311.065	-0.150	0.281
-543.266	579.971	-0.024	-0.060
-542.252	598.295	-0.037	-0.091
-541.237	125.703	-0.207	-0.262
-540.223	800.000	-0.050	-0.143
-539.208	149.881	0.222	-0.301
-538.193	323.249	-0.085	-0.162
-537.179	-115.793	-0.276	0.052
-536.164	-145.985	0.250	-0.022
-535.150	-83.724	0.171	-0.055
-534.135	-31.139	0.268	0.151
-533.121	24.458	0.187	-0.155
-532.106	-86.721	-0.107	-0.033
-531.091	-85.412	0.148	-0.046
-530.077	-43.963	0.182	0.091
-529.062	-192.887	0.148	0.001
-528.048	-108.139	-0.222	0.048
-527.033	-200.000	-0.012	-0.068
-526.018	-116.167	0.380	-0.071
-525.004	25.568	-0.119	0.099
-523.989	-27.964	0.047	-0.027
-522.975	60.576	0.097	0.096
-521.960	800.000	0.046	0.138
-520.945	-200.000	0.069	0.347
-519.931	6.633	0.273	0.203
-518.916	-164.688	0.056	-0.003
-517.902	-200.000	0.028	0.233
-516.887	-66.622	-0.163	0.065
-515.872	-46.921	0.354	-0.173
-514.858	-200.000	0.047	-0.257
-513.843	-8.708	-0.238	-0.160
-512.829	-56.680	0.263	0.116
-511.814	-3.441	0.314	0.218
-510.799	151.087	-0.099	-0.135
-509.785	388.317	-0.082	0.169
-508.770	-200.000	0.025	0.187
-507.756	-83.057	0.079	-0.025
-506.741	94.111	-0.143	0.163
-505.726	-115.039	0.225	-0.043
-504.712	-56.217	-0.056	0.025
-503.697	-147.015	0.261	0.022
-502.683	800.000	0.048	-0.163
-501.668	295.535	-0.138	-0.252
-500.653	652.535	-0.033	0.084
-499.639	-200.000	0.089	-0.405
-498.624	494.173	-0.088	-0.202
-497.610	-14.111	-0.302	-0.194
-496.595	-51.400	0.154	0.072
-495.581	-34.895	-0.117	-0.064
-494.566	-175.302	0.335	0.009
-493.551	4.455	-0.273	-0.200
-492.537	-81.818	-0.123	0.040
-491.522	-2.333	-0.129	0.090
-490.508	61.263	0.080	0.079
-489.493	71.695	-0.070	-0.072
-488.478	-60.426	-0.293	-0.125
-487.464	134.030	0.124	-0.161
-486.449	-200.000	0.000	-0.387
-485.435	-126.489	-0.129	-0.019
-484.420	800.000	-0.045	0.187
-483.405	-125.994	-0.051	-0.008
-482.391	628.192	0.119	-0.299
-481.376	-156.653	-0.255	-0.016
-480.362	800.000	-0.066	-0.244
-479.347	-200.000	0.001	0.186
-478.332	-27.833	-0.065	0.038
-477.318	-22.267	0.159	0.096
-476.303	14.933	0.146	0.114
-475.289	-102.378	0.080	0.019
-474.274	800.000	0.052	-0.207
-473.259	-66.685	0.102	-0.041
-472.245	559.195	0.071	-0.171
-471.230	10.276	0.117	0.089
-470.216	-200.000	-0.003	0.340
-469.201	164.928	0.208	-0.294
-468.186	339.295	-0.061	-0.118
-467.172	-80.904	0.144	0.048
-466.157	800.000	0.086	-0.270
-465.143	6.990	-0.205	0.152
-464.128	323.141	-0.111	-0.211
-463.113	77.654	-0.340	0.362
-462.099	6.966	-0.246	-0.183
-461.084	226.947	0.212	-0.344
-460.070	-105.587	0.152	-0.034
-459.055	800.000	-0.043	-0.185
-458.040	50.092	-0.151	-0.143
-457.026	-61.073	-0.165	0.069
-456.011	253.914	0.165	0.281
-454.997	-91.560	0.386	-0.110
-453.982	-26.587	0.313	0.183
-452.968	800.000	0.119	0.465
-451.953	-96.474	-0.279	0.074
-450.938	-38.041	-0.131	-0.069
-449.924	89.246	0.201	-0.223
-448.909	293.860	0.059	-0.107
-447.895	21.888	-0.109	-0.089
-446.880	109.439	0.062	0.075
-445.865	-121.435	0.055	0.009
-444.851	800.000	0.070	-0.281
-443.836	171.385	-0.111	-0.158
-442.822	-93.205	-0.046	0.013
-441.807	650.847	0.125	0.320
-440.792	800.000	0.029	0.116
-439.778	800.000	0.101	0.418
-438.763	-74.526	-0.258	-0.093
-437.749	-59.218	0.079	-0.034
-436.734	-47.698	0.436	-0.211
-435.719	-191.590	-0.224	0.002
-434.705	705.950	-0.033	-0.086
-433.690	-144.082	-0.170	-0.016
-432.676	4.943	-0.197	-0.144
-431.661	540.039	-0.169	-0.402
-430.646	-200.000	-0.033	-0.201
-429.632	169.801	0.122	0.174
-428.617	-186.643	0.129	-0.002
-427.603	-35.279	0.035	-0.019
-426.588	-139.948	-0.186	-0.020
-425.573	387.610	0.130	0.267
-424.559	-71.332	0.016	-0.006
-423.544	-107.014	-0.230	-0.051
-422.530	134.007	-0.053	-0.068
-421.515	451.604	0.039	0.086
-420.500	-200.000	0.008	-0.392
-419.486	800.000	0.023	0.073
-418.471	-154.308	0.140	-0.009
-417.457	139.019	-0.117	-0.153
-416.442	-111.191	-0.137	-0.028
-415.428	75.474	0.038	0.040
-414.413	800.000	0.035	-0.148
-413.398	68.815	0.052	-0.053
-412.384	74.024	-0.221	0.231
-411.369	-200.000	-0.000	0.125
-410.355	800.000	-0.024	-0.080
-409.340	283.438	-0.033	0.059
-408.325	-65.388	0.225	0.090
-407.311	-54.958	-0.237	0.106
-406.296	-200.000	-0.004	0.153
-405.282	112.918	0.100	-0.121
-404.267	-41.948	-0.183	0.094
-403.252	-200.000	-0.017	0.159
-402.238	738.419	0.075	-0.202
-401.223	-40.621	-0.393	0.203
-400.209	65.728	-0.267	-0.269
-399.194	234.010	-0.106	0.174
-398.179	190.303	0.110	0.164
-397.165	800.000	-0.081	0.230
-396.150	-200.000	0.018	0.090
-395.136	800.000	-0.007	-0.022
-394.121	22.784	0.087	0.071
-393.106	105.843	-0.167	0.197
-392.092	-36.240	0.198	0.106
-391.077	-200.000	-0.099	0.481
-390.063	371.163	-0.041	0.083
-389.048	3.100	0.116	-0.084
-388.033	12.007	0.195	0.149
-387.019	231.019	-0.251	0.409
-386.004	-200.000	0.025	0.326
-384.990	406.352	-0.020	-0.042
-383.975	-43.922	0.271	0.136
-382.960	-95.313	-0.117	0.031
-381.946	-14.880	-0.112	0.072
-380.931	-200.000	0.008	0.283
-379.917	-29.456	0.445	0.253
-378.902	36.383	-0.114	0.100
-377.888	185.345	-0.107	0.158
-376.873	-83.861	0.128	0.041
-375.858	660.344	0.081	0.208
-374.844	-44.390	-0.154	0.077
-373.829	6.475	-0.100	-0.074
-372.815	778.692	0.007	0.018
-371.800	35.139	-0.211	0.184
-370.785	-23.812	0.247	0.147
-369.771	270.229	-0.266	0.465
-368.756	-114.470	-0.172	0.033
-367.742	-118.442	0.097	-0.017
-366.727	191.816	-0.192	0.287
-365.712	-200.000	0.002	-0.090
-364.698	800.000	0.084	-0.245
-363.683	-14.953	-0.165	0.105
-362.669	506.588	-0.086	0.199
-361.654	104.658	0.125	-0.146
-360.639	-37.812	0.283	0.149
-359.625	61.383	-0.286	0.282
-358.610	800.000	-0.105	-0.302
-357.596	190.153	0.206	0.307
-356.581	302.720	-0.116	-0.214
-355.566	-52.907	-0.341	-0.156
-354.552	-121.158	-0.156	0.026
-353.537	-58.714	-0.102	0.044
-352.523	-102.729	0.134	0.032
-351.508	-140.596	0.052	-0.005
-350.493	142.356	0.305	-0.403
-349.479	-60.281	-0.128	0.054
-348.464	800.000	-0.043	0.145
-347.450	-74.454	0.237	-0.085
-346.435	-200.000	0.019	0.102
-345.420	30.818	0.267	0.227
-344.406	-200.000	0.003	0.212
-343.391	-138.611	0.130	-0.014
-342.377	414.829	-0.049	-0.105
-341.362	417.600	0.096	0.204
-340.348	149.880	0.170	0.229
-339.333	-200.000	0.067	0.421
-338.318	-200.000	-0.031	-0.221
-337.304	252.777	0.109	0.184
-336.289	28.359	0.132	-0.111
-335.275	-186.977	0.181	0.002
-334.260	-140.426	0.206	0.021
-333.245	-63.679	-0.270	-0.110
-332.231	384.898	-0.112	-0.230
-331.216	-163.480	-0.273	0.013
-330.202	371.814	-0.175	-0.352
-329.187	-200.000	-0.025	-0.142
-328.172	-36.412	-0.540	-0.289
-327.158	59.257	0.143	-0.140
-326.143	301.411	0.044	0.082
-325.129	9.686	-0.119	-0.089
-324.114	-88.751	-0.206	0.061
-323.099	800.000	-0.073	0.209
-322.085	13.896	0.233	-0.180
-321.070	-82.365	-0.184	-0.060
-320.056	800.000	0.068	0.262
-319.041	-80.801	-0.214	0.070
-318.026	442.190	-0.034	-0.074
-317.012	-8.166	-0.225	-0.150
-315.997	-8.976	0.136	0.090
-314.983	-187.101	0.319	-0.004
-313.968	-52.018	0.281	0.130
-312.953	38.404	0.113	0.100
-311.939	29.112	0.112	-0.094
-310.924	-49.130	-0.361	0.171
-309.910	30.911	0.297	0.252
-308.895	-7.226	0.059	-0.040
-307.880	800.000	0.087	0.338
-306.866	-200.000	0.015	-0.187
-305.851	-126.702	0.485	0.071
-304.837	-200.000	-0.020	-0.152
-303.822	-107.369	-0.105	-0.023
-302.807	-97.598	0.329	-0.085
-301.793	-86.101	-0.027	0.008
-300.778	40.866	-0.070	0.063
-299.764	800.000	0.056	0.203
-298.749	-25.058	0.337	-0.198
-297.735	-80.522	0.426	0.141
-296.720	694.559	-0.059	-0.154
-295.705	434.615	-0.089	-0.193
-294.691	-90.777	0.189	-0.054
-293.676	9.349	-0.138	-0.104
-292.662	47.714	-0.088	0.082
-291.647	-200.000	-0.028	-0.351
-290.632	-200.000	0.024	-0.218
-289.618	53.895	-0.117	-0.111
-288.603	40.751	-0.198	0.177
-287.589	-200.000	-0.045	0.253
-286.574	-141.510	0.319	-0.032
-285.559	-200.000	0.027	-0.172
-284.545	-200.000	-0.010	-0.234
-283.530	800.000	0.123	-0.449
-282.516	-82.482	-0.043	0.014
-281.501	76.512	-0.167	0.175
-280.486	-200.000	0.038	-0.436
-279.472	-28.335	0.097	-0.055
-278.457	114.199	-0.329	-0.397
-277.443	-41.091	-0.277	-0.142
-276.428	-172.770	-0.200	0.006
-275.413	510.550	-0.087	-0.201
-274.399	-26.899	-0.115	-0.067
-273.384	-200.000	0.007	0.203
-272.370	-122.718	0.462	-0.074
-271.355	800.000	0.123	-0.339
-270.340	-138.766	0.124	-0.013
-269.326	-47.750	0.139	-0.067
-268.311	-200.000	-0.008	-0.081
-267.297	-37.370	-0.262	-0.139
-266.282	-122.789	0.285	-0.046
-265.267	-78.745	-0.302	-0.102
-264.253	-200.000	-0.022	0.231
-263.238	66.111	0.091	0.092
-262.224	53.660	0.155	-0.147
-261.209	86.888	-0.164	-0.180
-260.195	-46.907	0.103	0.050
-259.180	-160.700	0.234	-0.012
-258.165	-24.832	0.213	-0.125
-257.151	800.000	-0.128	-0.353
-256.136	9.595	0.158	0.119
-255.122	268.593	-0.237	-0.411
-254.107	635.535	-0.031	0.078
-253.092	11.324	0.174	-0.132
-252.078	-200.000	-0.018	0.088
-251.063	293.335	0.090	-0.163
-250.049	800.000	0.052	0.218
-249.034	-131.884	-0.220	-0.028
-248.019	-83.723	-0.205	-0.065
-247.005	131.529	0.095	0.121
-245.990	-36.791	-0.171	-0.091
-244.976	-36.470	0.129	-0.069
-243.961	152.877	-0.060	-0.081
-242.946	-124.079	-0.102	-0.016
-241.932	-200.000	0.010	-0.103
-240.917	-95.480	-0.179	0.048
-239.903	31.323	0.296	-0.251
-238.888	-200.000	-0.017	-0.118
-237.873	196.693	-0.084	-0.126
-236.859	320.433	0.109	0.205
-235.844	-144.521	0.288	0.026
-234.830	78.164	0.062	0.065
-233.815	181.412	0.112	0.163
-232.800	-61.804	0.385	-0.159
-231.786	-200.000	0.001	0.264
-230.771	-56.649	0.118	0.052
-229.757	59.313	0.064	0.062
-228.742	-200.000	0.108	0.560
-227.727	-200.000	-0.018	0.215
-226.713	42.374	-0.128	0.115
-225.698	-200.000	-0.068	0.344
-224.684	-200.000	0.071	0.358
-223.669	184.899	0.184	0.269
-222.655	293.933	0.055	0.099
-221.640	753.442	-0.055	-0.148
-220.625	18.076	0.120	-0.094
-219.611	-200.000	0.004	-0.318
-218.596	128.099	0.239	-0.300
-217.582	179.485	-0.100	0.145
-216.567	95.312	0.197	0.222
-215.552	-68.214	-0.400	0.154
-214.538	-79.063	0.138	0.046
-213.523	-120.899	-0.167	0.028
-212.509	800.000	-0.059	0.237
-211.494	90.510	0.131	0.145
-210.479	777.285	0.035	0.096
-209.465	-200.000	0.009	0.080
-208.450	-200.000	0.007	-0.088
-207.436	183.545	0.076	0.110
-206.421	-39.419	0.082	-0.042
-205.406	251.670	0.227	-0.382
-204.392	4.103	-0.251	-0.182
-203.377	-73.307	0.329	0.119
-202.363	-85.744	0.222	-0.068
-201.348	-55.770	0.248	-0.109
-200.333	-177.937	-0.238	-0.006
-199.319	-87.880	-0.078	0.023
-198.304	455.722	0.127	0.277
-197.290	-103.609	-0.174	-0.040
-196.275	800.000	0.057	-0.171
-195.260	-111.759	0.211	0.042
-194.246	-200.000	0.003	0.134
-193.231	-200.000	-0.184	0.000
-192.217	-72.159	0.148	0.054
-191.202	-110.965	0.247	0.050
-190.187	11.890	-0.363	0.276
-189.173	-200.000	0.025	0.150
-188.158	13.385	0.056	0.043
-187.144	-12.056	-0.103	0.066
-186.129	-15.959	0.055	0.035
-185.114	723.121	0.080	-0.209
-184.100	-200.000	-0.011	0.465
-183.085	51.532	0.254	-0.238
-182.071	127.297	0.067	-0.085
-181.056	-18.182	0.064	0.040
-180.042	800.000	0.063	0.206
-179.027	-59.651	0.189	0.080
-178.012	-52.749	0.136	-0.062
-176.998	70.062	-0.130	0.133
-175.983	74.076	0.125	0.129
-174.969	-130.799	-0.049	0.006
-173.954	-200.000	-0.014	0.067
-172.939	800.000	-0.083	-0.298
-171.925	-78.765	0.043	-0.014
-170.910	-26.292	0.264	0.153
-169.896	366.084	-0.159	-0.317
-168.881	800.000	-0.083	-0.268
-167.866	232.954	-0.011	0.019
-166.852	117.993	-0.066	0.081
-165.837	311.070	0.137	-0.254
-164.823	-200.000	0.035	0.298
-163.808	497.785	-0.036	-0.083
-162.793	445.135	0.114	0.248
-161.779	43.599	0.118	0.107
-160.764	800.000	0.003	0.011
-159.750	40.315	-0.207	-0.184
-158.735	-128.846	-0.274	0.038
-157.720	-28.383	0.140	0.079
-156.706	68.812	-0.047	-0.048
-155.691	261.210	-0.199	-0.340
-154.677	-55.501	0.259	-0.114
-153.662	37.317	0.063	-0.055
-152.647	-81.862	0.179	-0.058
-151.633	-64.925	0.209	0.083
-150.618	-200.000	0.005	0.310
-149.604	-200.000	-0.043	-0.353
-148.589	-200.000	0.019	0.214
-147.574	-200.000	-0.020	0.093
-146.560	-23.635	-0.081	0.048
-145.545	-200.000	0.031	0.183
-144.531	-200.000	0.012	0.079
-143.516	800.000	0.033	0.113
-142.502	127.498	-0.229	0.287
-141.487	16.271	0.225	-0.175
-140.472	-195.982	0.229	0.002
-139.458	800.000	0.021	0.073
-138.443	-113.705	0.408	-0.078
-137.429	-17.122	0.118	0.074
-136.414	-27.312	-0.473	-0.271
-135.399	-73.307	0.499	0.180
-134.385	-200.000	0.062	0.357
-133.370	268.244	-0.172	0.297
-132.356	748.519	-0.039	-0.104
-131.341	146.643	-0.211	0.279
-130.326	-200.000	-0.017	0.183
-129.312	-200.000	0.020	-0.099
-128.297	179.010	0.223	-0.322
-127.283	-130.552	0.175	0.023
-126.268	-181.652	-0.259	-0.005
-125.253	-47.626	-0.269	-0.128
-124.239	26.543	-0.185	0.153
-123.224	-153.302	0.244	0.017
-122.210	-200.000	0.047	0.304
-121.195	800.000	-0.095	-0.331
-120.180	800.000	0.063	-0.178
-119.166	-26.915	-0.096	-0.055
-118.151	800.000	-0.088	-0.342
-117.137	146.140	0.110	-0.145
-116.122	445.680	0.059	0.128
-115.107	174.694	-0.069	-0.099
-114.093	800.000	0.022	-0.087
-113.078	-91.096	-0.086	-0.024
-112.064	-118.216	-0.160	-0.028
-111.049	206.841	0.070	0.108
-110.034	-79.569	-0.275	-0.092
-109.020	-85.624	0.159	-0.049
-108.005	800.000	0.012	-0.046
-106.991	-18.182	0.125	0.077
-105.976	-160.853	0.103	-0.005
-104.962	800.000	-0.138	-0.393
-103.947	-200.000	-0.000	0.053
-102.932	-200.000	-0.324	0.001
-101.918	74.633	0.275	-0.285
-100.903	714.065	0.107	-0.280
-99.889	652.162	-0.195	-0.491
-98.874	-126.039	-0.266	0.039
-97.859	60.927	-0.066	0.064
-96.845	-58.640	0.479	0.205
-95.830	-200.000	0.005	-0.162
-94.816	-200.000	-0.041	0.252
-93.801	-71.227	-0.050	-0.019
-92.786	-200.000	0.059	-0.278
-91.772	-85.484	0.248	0.076
-90.757	96.400	-0.081	-0.091
-89.743	800.000	-0.089	0.294
-88.728	-30.547	0.035	-0.019
-87.713	657.542	-0.006	0.015
-86.699	111.584	-0.044	-0.053
-85.684	28.480	0.204	0.170
-84.670	-80.241	-0.178	-0.058
-83.655	-3.881	0.204	-0.139
-82.640	-70.317	0.225	0.084
-81.626	-200.000	0.013	-0.117
-80.611	280.119	0.277	-0.487
-79.597	2.630	-0.296	-0.211
-78.582	649.713	0.066	0.166
-77.567	595.098	0.041	0.100
-76.553	-4.747	-0.178	-0.121
-75.538	448.146	0.157	-0.340
-74.524	-200.000	0.037	-0.181
-73.509	800.000	0.100	-0.329
-72.494	202.109	0.130	0.197
-71.480	148.287	-0.101	-0.134
-70.465	-200.000	0.114	-0.000
-69.451	-200.000	-0.016	-0.074
-68.436	-3.751	0.139	-0.095
-67.422	-135.568	0.310	-0.036
-66.407	346.090	0.116	0.223
-65.392	-120.777	-0.179	0.030
-64.378	800.000	-0.101	0.413
-63.363	-200.000	-0.037	-0.174
-62.349	370.269	0.096	0.191
-61.334	256.254	-0.598	-1.009
-60.319	263.714	0.210	0.359
-59.305	800.000	-0.436	-1.239
-58.290	163.438	0.872	1.205
-57.276	800.000	0.421	1.450
-56.261	-200.000	109.022	592.255
-55.246	443.774	1484.531	3198.282
-54.232	146.517	2665.534	3517.031
-53.217	104.909	2177.748	2522.706
-52.203	39.572	1708.912	1504.752
-51.188	32.502	1524.276	1293.756
-50.173	30.254	1498.192	1256.358
-49.159	51.534	1553.738	1450.310
-48.144	51.396	1570.847	1465.266
-47.130	32.711	1526.877	1297.196
-46.115	29.838	1511.303	1264.312
-45.100	29.643	1508.446	1260.539
-44.086	29.503	1506.525	1257.934
-43.071	29.467	1504.441	1255.900
-42.057	29.508	1502.577	1254.569
-41.042	29.445	1500.974	1252.750
-40.027	29.280	1500.080	1250.839
-39.013	29.403	1498.078	1249.951
-37.998	29.385	1496.642	1248.585
-36.984	29.438	1495.744	1248.145
-35.969	29.474	1493.950	1246.838
-34.954	29.381	1493.171	1245.513
-33.940	29.363	1491.765	1244.169
-32.925	29.528	1490.160	1243.895
-31.911	29.511	1489.032	1242.785
-30.896	29.517	1487.465	1241.472
-29.881	29.481	1486.774	1240.599
-28.867	29.617	1485.323	1240.252
-27.852	29.492	1484.083	1238.332
-26.838	29.554	1482.258	1237.173
-25.823	29.569	1481.324	1236.447
-24.809	29.580	1479.116	1234.626
-23.794	29.492	1478.400	1233.395
-22.779	29.577	1476.828	1232.601
-21.765	29.460	1476.014	1231.094
-20.750	29.587	1474.746	1230.830
-19.736	29.491	1473.429	1229.041
-18.721	29.527	1471.993	1228.038
-17.706	29.416	1471.525	1226.863
-16.692	29.522	1469.455	1225.788
-15.677	29.377	1469.382	1224.718
-14.663	29.444	1468.024	1223.980
-13.648	29.553	1466.841	1223.667
-12.633	29.494	1466.509	1222.955
-11.619	29.490	1465.279	1221.850
-10.604	29.501	1464.155	1220.938
-9.590	29.426	1463.435	1219.794
-8.575	29.520	1462.979	1219.984
-7.560	29.599	1461.654	1219.358
-6.546	29.496	1461.050	1218.126
-5.531	29.444	1460.364	1217.163
-4.517	29.348	1460.007	1216.178
-3.502	29.410	1458.358	1215.164
-2.487	29.376	1457.304	1214.015
-1.473	29.359	1456.439	1213.134
-0.458	29.433	1454.902	1212.291
0.556	27.717	1444.957	1201.537
1.571	24.829	1420.588	1162.437
2.586	21.614	1360.914	1093.466
3.600	20.041	1279.055	1018.361
4.615	18.978	1233.323	975.836
5.629	16.489	1176.360	917.195
6.644	8.190	1090.558	808.322
7.659	1.399	1049.763	744.804
8.673	0.331	1044.448	735.756
9.688	0.109	1041.165	732.296
10.702	-0.004	1040.166	730.982
11.717	-0.006	1037.800	729.242
12.731	2.712	1040.001	743.922
13.746	10.834	1051.315	791.647
14.761	17.061	1058.928	827.769
15.775	17.475	1058.310	829.230
16.790	16.495	1055.909	822.511
17.804	15.480	1054.031	816.042
18.819	14.459	1052.220	809.613
19.834	14.162	1051.013	807.172
20.848	13.821	1049.988	804.657
21.863	13.571	1048.808	802.474
22.877	13.466	1048.462	801.627
23.892	13.261	1046.925	799.390
24.907	13.096	1046.413	798.132
25.921	13.227	1045.751	798.192
26.936	13.163	1045.414	797.553
27.950	13.128	1044.449	796.578
28.965	13.099	1044.027	796.045
29.980	13.301	1042.838	796.040
30.994	13.342	1041.738	795.327
32.009	13.437	1041.076	795.210
33.023	13.461	1040.808	795.046
34.038	13.376	1039.494	793.565
35.053	13.414	1038.616	793.009
36.067	13.274	1037.985	791.786
37.082	13.312	1037.147	791.257
38.096	13.250	1036.545	790.434
39.111	13.272	1035.759	789.868
40.126	13.265	1035.173	789.317
41.140	13.372	1033.629	788.582
42.155	13.125	1033.180	786.993
43.169	13.056	1032.112	785.778
44.184	13.126	1031.216	785.361
45.199	13.089	1030.050	784.228
46.213	13.181	1029.112	783.881
47.228	13.164	1028.104	782.964
48.242	13.208	1027.117	782.351
49.257	13.151	1025.982	781.146
50.271	13.219	1025.104	780.729
51.286	13.250	1024.215	780.134
52.301	13.320	1023.394	779.768
53.315	13.268	1022.557	778.814
54.330	13.125	1022.267	777.851
55.344	13.166	1021.075	777.067
56.359	13.317	1019.609	776.594
57.374	13.156	1018.990	775.299
58.388	13.138	1018.617	774.863
59.403	13.151	1017.327	773.872
60.417	13.065	1016.874	773.056
61.432	13.036	1016.352	772.457
62.447	13.058	1015.323	771.707
63.461	13.061	1014.650	771.142
64.476	13.096	1013.533	770.390
65.490	13.027	1012.519	769.227
66.505	12.984	1012.095	768.636
67.520	13.122	1011.206	768.538
68.534	13.020	1010.895	767.758
69.549	13.011	1010.106	767.050
70.563	13.097	1008.604	766.238
71.578	13.010	1008.309	765.542
72.593	13.033	1007.279	764.802
73.607	12.992	1006.669	764.082
74.622	12.950	1005.604	763.009
75.636	12.897	1004.462	761.831
76.651	13.007	1004.130	762.021
77.666	12.876	1003.281	760.705
78.680	12.799	1002.901	759.994
79.695	13.009	1001.767	760.035
80.709	13.010	1001.169	759.517
81.724	12.983	1000.921	759.140
82.739	13.036	999.814	758.475
83.753	13.207	998.798	758.422
84.768	13.181	997.904	757.558
85.782	13.132	997.809	757.193
86.797	13.289	996.501	756.853
87.812	13.323	995.614	756.267
88.826	13.244	995.224	755.545
89.841	13.239	994.211	754.682
90.855	13.155	993.892	753.992
91.870	13.280	993.139	753.925
92.884	13.315	992.091	753.223
93.899	13.273	991.722	752.683
94.914	13.419	990.062	752.019
95.928	13.378	989.747	751.529
96.943	13.438	989.448	751.505
97.957	13.442	988.355	750.630
98.972	13.341	987.372	749.360
99.987	13.353	986.513	748.693
101.001	13.289	986.123	748.043
102.016	13.293	985.142	747.252
103.030	13.308	984.670	746.893
104.045	13.323	983.447	745.966
105.060	13.436	982.079	745.374
106.074	13.177	982.275	744.288
107.089	13.188	981.236	743.484
108.103	13.118	980.313	742.403
109.118	13.113	979.016	741.336
110.133	13.128	978.220	740.734
111.147	13.128	977.365	740.023
112.162	13.231	976.459	739.730
113.176	13.173	975.797	738.902
114.191	13.160	974.796	738.023
115.206	13.125	974.112	737.285
116.220	13.169	973.642	737.057
117.235	13.187	972.365	736.108
118.249	13.240	971.580	735.682
119.264	13.248	970.582	734.899
120.279	13.088	970.247	733.868
121.293	13.159	969.383	733.465
122.308	13.179	968.143	732.549
123.322	13.294	967.431	732.455
124.337	13.144	966.387	730.936
125.352	13.264	965.316	730.592
126.366	13.137	964.132	729.073
127.381	13.125	963.106	728.181
128.395	13.087	962.196	727.258
129.410	13.115	961.224	726.581
130.424	13.008	960.737	725.679
131.439	13.228	959.540	725.679
132.454	13.167	959.214	725.099
133.468	13.216	958.073	724.388
134.483	13.100	957.708	723.539
135.497	13.310	956.760	723.679
136.512	13.257	956.437	723.139
137.527	13.211	955.318	722.028
138.541	13.228	954.393	721.337
139.556	13.256	953.691	720.868
140.570	13.230	952.896	720.086
141.585	13.263	952.307	719.722
142.600	13.396	952.043	720.038
143.614	13.371	950.755	718.893
144.629	13.373	950.187	718.406
145.643	13.371	949.518	717.829
146.658	13.454	948.512	717.365
147.673	13.474	947.231	716.420
148.687	13.404	946.445	715.460
149.702	13.347	945.887	714.727
150.716	13.270	945.257	713.855
151.731	13.324	944.313	713.314
152.746	13.358	943.740	712.965
153.760	13.278	942.734	711.794
154.775	13.369	941.726	711.363
155.789	13.399	940.978	710.866
156.804	13.398	940.568	710.487
157.819	13.522	939.468	710.123
158.833	13.498	938.777	709.439
159.848	13.547	938.308	709.231
160.862	13.521	937.366	708.345
161.877	13.573	936.722	708.016
162.892	13.370	936.086	706.608
163.906	13.401	935.013	705.867
164.921	13.318	934.255	704.878
165.935	13.340	933.341	704.221
166.950	13.358	932.432	703.548
167.964	13.490	931.868	703.623
168.979	13.433	930.758	702.477
169.994	13.405	929.754	701.541
171.008	13.384	928.464	700.416
172.023	13.480	928.233	700.586
173.037	13.546	927.383	700.161
174.052	13.663	926.340	699.806
175.067	13.589	926.014	699.186
176.081	13.576	925.126	698.399
177.096	13.567	924.427	697.773
178.110	13.503	923.771	696.946
179.125	13.428	922.700	695.759
180.140	13.550	921.993	695.677
181.154	13.530	921.891	695.456
182.169	13.536	921.072	694.800
183.183	13.730	919.824	694.611
184.198	13.698	919.361	694.067
185.213	13.781	918.959	694.047
186.227	13.779	918.241	693.436
187.242	13.701	917.724	692.657
188.256	13.832	916.883	692.507
189.271	13.816	916.246	691.898
190.286	13.826	915.755	691.510
191.300	13.728	914.548	690.131
192.315	13.492	913.807	688.528
193.329	13.523	913.226	688.160
194.344	13.568	912.764	687.934
195.359	13.750	912.217	688.218
196.373	13.696	911.842	687.648
197.388	13.610	911.241	686.778
198.402	13.678	910.858	686.712
199.417	13.832	910.817	687.259
200.432	13.992	909.918	687.179
201.446	14.016	909.276	686.733
202.461	13.914	908.799	685.890
203.475	14.005	908.720	686.146
204.490	14.041	907.849	685.577
205.504	13.998	906.676	684.454
206.519	14.013	905.546	683.603
207.534	13.966	905.330	683.183
208.548	13.946	904.673	682.546
209.563	13.970	903.907	682.007
210.577	13.934	902.909	681.045
211.592	14.061	902.244	681.004
212.607	13.945	902.409	680.592
213.621	14.096	901.662	680.586
214.636	14.055	901.340	680.116
215.650	14.059	900.071	679.115
216.665	14.085	899.944	679.065
217.680	14.181	899.162	678.807
218.694	14.255	898.513	678.560
219.709	14.206	898.060	677.958
220.723	14.129	897.762	677.359
221.738	14.153	896.589	676.511
222.753	14.146	896.036	676.005
223.767	14.172	895.306	675.499
224.782	14.398	893.934	675.321
225.796	14.327	893.827	674.892
226.811	14.421	892.811	674.447
227.826	14.320	892.356	673.634
228.840	14.313	891.654	673.018
229.855	14.302	891.292	672.640
230.869	14.271	890.817	672.098
231.884	14.179	889.877	670.958
232.899	14.266	889.423	670.907
233.913	14.233	888.694	670.165
234.928	14.128	887.979	669.142
235.942	14.327	887.033	669.171
236.957	14.283	886.621	668.623
237.972	14.151	885.920	667.506
238.986	14.262	885.045	667.234
240.001	14.337	884.373	666.970
241.015	14.380	883.543	666.456
242.030	14.403	882.911	666.012
243.045	14.361	882.414	665.410
244.059	14.439	882.075	665.405
245.074	14.501	881.228	664.955
246.088	14.528	880.780	664.667
247.103	14.578	880.148	664.329
248.117	14.528	879.448	663.542
249.132	14.550	878.915	663.172
250.147	14.749	878.337	663.467
251.161	14.771	877.614	662.950
252.176	14.656	876.898	661.893
253.190	14.653	876.670	661.651
254.205	14.874	875.726	661.754
255.220	14.900	875.194	661.398
256.234	14.696	874.645	660.118
257.249	14.704	874.042	659.634
258.263	14.871	873.464	659.799
259.278	14.944	872.773	659.509
260.293	14.911	872.375	659.018
261.307	14.934	871.438	658.343
262.322	14.818	871.311	657.733
263.336	14.922	870.822	657.715
264.351	14.967	870.051	657.249
265.366	15.040	869.169	656.811
266.380	15.020	868.404	656.097
267.395	15.038	868.006	655.808
268.409	15.038	867.233	655.167
269.424	14.960	866.329	654.122
270.439	15.038	865.810	653.975
271.453	14.993	865.181	653.267
272.468	14.978	864.403	652.562
273.482	14.963	863.880	652.053
274.497	14.964	863.445	651.670
275.512	15.044	862.430	651.156
276.526	14.926	861.650	650.051
277.541	15.039	861.195	650.092
278.555	15.039	860.842	649.768
279.570	15.076	860.573	649.651
280.585	15.131	859.604	649.073
281.599	15.224	859.007	648.925
282.614	15.230	858.309	648.366
283.628	15.205	857.578	647.657
284.643	15.155	857.512	647.357
285.657	15.229	856.500	646.824
286.672	15.312	856.250	646.898
287.687	15.185	855.783	645.997
288.701	15.214	855.349	645.723
289.716	15.357	854.313	645.435
290.730	15.181	854.238	644.642
291.745	15.230	853.393	644.136
292.760	15.231	852.782	643.622
293.774	15.358	851.788	643.301
294.789	15.397	851.527	643.199
295.803	15.502	850.813	643.003
296.818	15.258	850.428	641.721
297.833	15.391	849.601	641.549
298.847	15.380	848.849	640.883
299.862	15.440	848.085	640.478
300.876	15.579	847.515	640.521
301.891	15.405	847.011	639.422
302.906	15.406	846.289	638.825
303.920	15.385	845.805	638.324
304.935	15.510	845.365	638.409
305.949	15.601	844.400	637.968
306.964	15.615	843.997	637.663
307.979	15.509	843.144	636.561
308.993	15.591	842.896	636.625
310.008	15.662	842.302	636.388
311.022	15.697	841.837	636.114
312.037	15.678	841.278	635.564
313.052	15.641	840.923	635.098
314.066	15.654	840.096	634.467
315.081	15.658	839.233	633.777
316.095	15.623	838.995	633.409
317.110	15.550	838.521	632.718
318.125	15.707	837.806	632.715
319.139	15.548	837.252	631.641
320.154	15.574	836.956	631.459
321.168	15.658	836.034	631.024
322.183	15.692	835.751	630.881
323.197	15.724	835.130	630.480
324.212	15.679	834.454	629.741
325.227	15.785	833.908	629.670
326.241	15.794	833.233	629.142
327.256	15.909	832.416	628.898
328.270	15.735	832.548	628.290
329.285	15.826	831.763	627.984
330.300	15.712	831.322	627.169
331.314	15.667	830.668	626.451
332.329	15.738	830.145	626.268
333.343	15.862	829.463	626.158
334.358	16.057	828.452	626.065
335.373	15.942	828.347	625.503
336.387	15.982	827.866	625.232
337.402	15.899	827.168	624.340
338.416	15.896	826.696	623.918
339.431	15.986	826.178	623.806
340.446	16.002	825.647	623.411
341.460	15.932	825.497	622.981
342.475	16.219	824.170	622.987
343.489	16.153	823.859	622.453
344.504	16.075	823.822	622.083
345.519	16.121	823.006	621.580
346.533	16.185	822.557	621.422
347.548	16.231	821.951	621.076
348.562	16.184	821.504	620.512
349.577	16.119	820.690	619.604
350.592	16.158	820.452	619.510
351.606	16.184	819.823	619.078
352.621	16.077	819.550	618.423
353.635	15.987	819.310	617.857
354.650	16.124	818.627	617.789
355.665	16.140	818.194	617.468
356.679	16.202	817.642	617.222
357.694	16.278	817.178	617.096
358.708	16.255	816.408	616.377
359.723	16.307	815.877	616.110
360.738	16.249	815.480	615.544
361.752	16.274	815.146	615.329
362.767	16.299	814.695	615.027
363.781	16.319	814.239	614.699
364.796	16.398	813.922	614.692
365.810	16.386	813.528	614.297
366.825	16.514	812.672	614.062
367.840	16.626	812.447	614.243
368.854	16.502	812.218	613.567
369.869	16.478	811.755	613.075
370.883	16.442	810.941	612.275
371.898	16.443	810.750	612.082
372.913	16.476	809.849	611.468
373.927	16.558	809.435	611.394
374.942	16.548	808.280	610.434
375.956	16.554	808.117	610.278
376.971	16.543	807.738	609.897
377.986	16.607	807.190	609.662
379.000	16.710	806.563	609.505
380.015	16.701	806.271	609.196
381.029	16.717	805.380	608.527
382.044	16.682	804.981	608.048
383.059	16.845	804.530	608.236
384.073	16.802	804.012	607.637
385.088	16.758	803.344	606.922
386.102	16.775	802.807	606.521
387.117	16.670	802.343	605.743
388.132	16.665	801.917	605.348
389.146	16.610	801.305	604.637
390.161	16.707	801.365	604.975
391.175	16.825	800.527	604.710
392.190	16.770	800.316	604.300
393.205	16.924	799.975	604.541
394.219	16.860	799.339	603.777
395.234	16.698	798.978	602.875
396.248	16.608	798.514	602.152
397.263	16.765	797.659	602.010
398.278	16.771	797.189	601.624
399.292	16.869	796.877	601.684
400.307	16.754	796.628	601.033
401.321	16.885	796.318	601.212
402.336	16.745	796.017	600.434
403.350	16.874	795.446	600.409
404.365	16.881	794.796	599.888
405.380	16.895	794.262	599.483
406.394	16.851	794.529	599.474
407.409	16.991	793.831	599.391
408.423	17.045	793.081	598.961
409.438	17.105	792.747	598.869
410.453	17.174	792.363	598.766
411.467	17.083	792.099	598.195
412.482	17.122	791.343	597.707
413.496	17.265	790.719	597.688
414.511	17.064	790.715	596.925
415.526	17.274	790.403	597.372
416.540	17.287	789.928	597.009
417.555	17.212	789.405	596.297
418.569	17.293	789.155	596.338
419.584	17.273	788.343	595.604
420.599	17.387	787.720	595.478
421.613	108.848	1291.293	1469.180
422.628	93.302	1364.652	1469.272
