DTS Sentinel unit serial number:	SN413079Multiplexer serial number:	ORYXHardware model number:	OX4-SRSoftware version number:	ORYX F/W v4.00 Oryx Data Collector v3.7.2.0data status	okinstallation	princeton_trtdifferential loss correction	single-endedforward channel	channel 3reverse channel	N/Adate	2019/09/10time	21:22:11forward acquisition time	60.00reverse acquisition time	0.00gamma	496.2192k internal	0.2328k external	0.2328temperature offset calibration	0.9917default loss term (dB/km)	0.3790temperature slope calibration	1.0000multiplexer offset coefficient	1.0000multiplexer slope coefficient	1.0000fibre end	0.00T internal ref (°C)	31.25T ext. ref 1 (°C)	-0.32T ext. ref 2 (°C)	24.43length (m)	temperature (°C)	Stokes	anti-Stokes-747.200	249.037	0.147	0.251
-746.185	-80.545	0.151	-0.051
-745.171	-200.000	0.019	0.112
-744.156	-200.000	0.003	0.135
-743.142	-120.517	0.348	0.059
-742.127	-169.437	0.243	-0.009
-741.112	800.000	-0.058	-0.241
-740.098	192.240	-0.097	0.147
-739.083	-57.983	0.245	-0.108
-738.069	-200.000	-0.005	-0.031
-737.054	222.929	0.263	0.427
-736.039	800.000	-0.067	-0.212
-735.025	800.000	0.048	-0.203
-734.010	-29.159	-0.143	-0.083
-732.996	181.018	0.129	0.192
-731.981	-43.567	-0.053	0.027
-730.966	-126.447	0.365	0.055
-729.952	-84.328	-0.211	0.067
-728.937	800.000	0.109	-0.314
-727.923	53.831	0.083	-0.080
-726.908	-122.755	0.344	-0.056
-725.894	-146.465	0.053	0.005
-724.879	52.664	0.219	-0.211
-723.864	-49.797	-0.290	-0.139
-722.850	-200.000	0.055	-0.496
-721.835	141.470	-0.090	-0.120
-720.821	-122.058	-0.276	0.046
-719.806	-153.289	0.246	-0.017
-718.791	-1.844	-0.244	-0.173
-717.777	-200.000	-0.069	0.000
-716.762	-200.000	-0.008	0.260
-715.748	625.931	0.121	0.308
-714.733	-200.000	0.028	-0.220
-713.718	462.411	0.001	0.002
-712.704	-68.184	-0.129	0.051
-711.689	-166.404	-0.177	-0.007
-710.675	-200.000	0.031	-0.229
-709.660	82.524	-0.220	0.240
-708.645	800.000	-0.034	-0.112
-707.631	487.155	0.070	-0.161
-706.616	-200.000	-0.046	0.256
-705.602	-82.630	0.438	0.143
-704.587	-73.881	-0.126	0.046
-703.572	-200.000	-0.017	-0.321
-702.558	-34.897	0.276	-0.152
-701.543	-65.080	0.118	-0.048
-700.529	11.029	-0.276	0.212
-699.514	-136.053	0.310	0.037
-698.499	-88.636	-0.274	-0.082
-697.485	-0.291	0.139	0.099
-696.470	-200.000	-0.012	-0.076
-695.456	-21.864	-0.253	-0.155
-694.441	691.629	0.017	-0.043
-693.426	-200.000	-0.029	-0.363
-692.412	72.474	0.250	0.262
-691.397	-200.000	0.018	-0.500
-690.383	11.931	0.122	-0.094
-689.368	-72.273	-0.288	0.107
-688.354	-180.865	0.298	0.006
-687.339	-200.000	0.018	-0.083
-686.324	-9.060	0.215	-0.145
-685.310	-154.072	0.499	0.034
-684.295	228.287	-0.130	0.213
-683.281	111.432	0.178	-0.216
-682.266	-50.974	-0.149	-0.070
-681.251	-96.661	0.149	0.039
-680.237	-61.747	-0.206	0.087
-679.222	65.363	0.034	-0.034
-678.208	-47.995	0.016	-0.008
-677.193	-20.357	-0.160	-0.099
-676.178	36.919	0.241	-0.215
-675.164	-146.088	-0.411	-0.036
-674.149	11.914	-0.062	-0.048
-673.135	27.503	-0.053	0.045
-672.120	-82.021	0.298	-0.098
-671.105	-4.910	0.093	-0.064
-670.091	155.533	0.086	-0.119
-669.076	-200.000	-0.038	-0.176
-668.062	408.832	-0.076	-0.161
-667.047	29.316	-0.304	-0.259
-666.032	800.000	0.110	-0.375
-665.018	36.796	0.119	0.105
-664.003	-14.385	0.284	-0.183
-662.989	800.000	-0.085	-0.240
-661.974	66.135	-0.116	0.118
-660.959	-29.393	0.199	0.115
-659.945	729.124	-0.075	-0.202
-658.930	800.000	-0.071	-0.304
-657.916	-109.385	-0.424	-0.090
-656.901	-55.007	-0.147	0.066
-655.886	-81.141	0.102	-0.034
-654.872	-200.000	0.030	0.362
-653.857	800.000	-0.055	0.227
-652.843	59.562	0.132	0.131
-651.828	800.000	-0.177	-0.532
-650.814	800.000	-0.089	-0.249
-649.799	-200.000	-0.044	-0.209
-648.784	74.779	-0.045	0.048
-647.770	258.630	0.173	0.299
-646.755	313.777	-0.076	0.144
-645.741	415.693	-0.095	0.203
-644.726	-200.000	-0.006	0.048
-643.711	800.000	0.032	0.119
-642.697	16.486	0.233	0.185
-641.682	-105.293	-0.075	-0.017
-640.668	-200.000	0.009	-0.425
-639.653	800.000	0.097	-0.300
-638.638	-200.000	-0.010	0.157
-637.624	800.000	0.006	-0.026
-636.609	-52.217	0.199	0.093
-635.595	-41.636	0.270	0.139
-634.580	-118.127	-0.163	0.029
-633.565	-181.472	0.120	0.002
-632.551	800.000	0.075	-0.217
-631.536	21.922	0.267	0.218
-630.522	593.658	0.128	0.318
-629.507	-37.351	0.184	-0.099
-628.492	-200.000	-0.008	-0.056
-627.478	-151.033	-0.083	-0.006
-626.463	-105.899	0.164	-0.037
-625.449	231.694	-0.027	0.044
-624.434	-128.308	-0.054	0.008
-623.419	63.716	0.100	-0.100
-622.405	119.100	0.098	-0.122
-621.390	-127.610	-0.454	-0.066
-620.376	-200.000	0.041	-0.613
-619.361	-149.750	-0.471	0.037
-618.346	106.745	-0.183	-0.217
-617.332	194.796	-0.033	0.050
-616.317	-37.937	-0.283	0.151
-615.303	59.154	0.080	-0.079
-614.288	14.664	-0.161	0.127
-613.273	74.142	-0.165	0.173
-612.259	85.600	0.158	-0.174
-611.244	-135.544	-0.178	0.021
-610.230	-200.000	0.037	0.457
-609.215	-200.000	0.010	0.343
-608.201	127.080	0.093	-0.118
-607.186	-200.000	0.014	-0.088
-606.171	-200.000	-0.018	-0.139
-605.157	-94.021	-0.303	-0.083
-604.142	-46.958	-0.271	0.133
-603.128	-200.000	0.021	-0.255
-602.113	81.640	-0.143	0.155
-601.098	-96.536	-0.185	0.049
-600.084	546.466	0.032	0.078
-599.069	81.442	-0.104	0.112
-598.055	-23.830	0.082	0.049
-597.040	-200.000	-0.009	-0.121
-596.025	336.526	0.064	-0.125
-595.011	172.442	-0.154	-0.222
-593.996	65.388	-0.179	0.181
-592.982	-200.000	0.030	-0.480
-591.967	800.000	0.103	-0.443
-590.952	38.637	0.182	0.162
-589.938	-25.264	-0.218	-0.129
-588.923	66.101	-0.255	0.259
-587.909	-88.614	-0.161	-0.048
-586.894	191.976	0.049	-0.074
-585.879	129.487	-0.201	-0.257
-584.865	-109.473	0.166	0.035
-583.850	2.991	-0.036	0.026
-582.836	69.635	0.140	-0.145
-581.821	-118.045	0.188	0.034
-580.806	218.565	0.048	-0.077
-579.792	800.000	-0.045	0.147
-578.777	-93.033	0.106	-0.030
-577.763	-113.003	-0.256	0.051
-576.748	-200.000	0.021	0.213
-575.733	24.642	0.221	-0.183
-574.719	-48.392	0.335	0.162
-573.704	121.984	-0.139	-0.174
-572.690	-165.494	0.225	-0.010
-571.675	21.014	0.095	-0.077
-570.661	454.236	-0.191	0.423
-569.646	-68.468	0.246	0.096
-568.631	146.701	-0.119	-0.159
-567.617	-200.000	0.010	-0.050
-566.602	-144.132	-0.180	0.017
-565.588	-168.070	0.208	0.008
-564.573	385.429	0.034	-0.070
-563.558	396.870	0.021	0.043
-562.544	39.627	0.239	-0.215
-561.529	172.920	-0.160	-0.230
-560.515	418.538	0.028	0.060
-559.500	-8.541	0.288	-0.194
-558.485	-48.429	-0.124	-0.060
-557.471	716.193	-0.039	0.103
-556.456	212.824	0.091	-0.144
-555.442	159.641	0.053	0.073
-554.427	-200.000	0.015	-0.139
-553.412	-102.303	0.283	0.068
-552.398	30.924	-0.034	0.029
-551.383	-200.000	0.032	-0.164
-550.369	43.716	-0.097	-0.089
-549.354	-102.275	-0.315	0.076
-548.339	800.000	0.131	0.431
-547.325	-149.591	-0.101	0.008
-546.310	484.738	-0.120	0.273
-545.296	141.855	0.127	-0.169
-544.281	-186.319	-0.214	0.003
-543.266	-200.000	-0.059	0.262
-542.252	336.301	0.213	0.414
-541.237	103.290	0.064	0.075
-540.223	26.235	-0.160	-0.133
-539.208	204.261	-0.149	-0.231
-538.193	-118.483	0.023	-0.004
-537.179	-32.745	0.063	0.035
-536.164	-42.118	-0.139	0.071
-535.150	-200.000	-0.057	0.418
-534.135	-137.493	-0.293	0.033
-533.121	-200.000	0.040	0.364
-532.106	-36.236	-0.217	-0.117
-531.091	800.000	-0.068	0.206
-530.077	35.413	0.119	-0.105
-529.062	122.402	0.084	0.105
-528.048	-200.000	0.003	0.282
-527.033	279.964	0.131	0.233
-526.018	24.883	0.132	-0.110
-525.004	-0.887	-0.213	-0.150
-523.989	-200.000	-0.011	-0.116
-522.975	-117.562	0.401	-0.072
-521.960	-68.286	0.153	0.059
-520.945	-136.367	0.287	-0.033
-519.931	795.819	0.116	-0.319
-518.916	-44.223	0.184	-0.092
-517.902	-200.000	0.062	-0.277
-516.887	-86.054	-0.110	-0.034
-515.872	368.722	0.138	0.278
-514.858	188.486	-0.099	-0.149
-513.843	-73.919	0.127	-0.046
-512.829	17.665	0.084	-0.067
-511.814	3.399	0.192	-0.139
-510.799	-56.742	-0.108	0.048
-509.785	52.568	0.035	-0.034
-508.770	420.905	-0.095	0.203
-507.756	-11.136	0.125	-0.082
-506.741	451.961	0.072	0.158
-505.726	-200.000	0.074	-0.332
-504.712	161.354	-0.122	-0.171
-503.697	216.187	0.017	0.027
-502.683	-200.000	0.041	0.247
-501.668	72.499	-0.078	-0.081
-500.653	15.357	0.032	-0.025
-499.639	166.838	0.102	-0.144
-498.624	-200.000	-0.036	0.227
-497.610	-123.358	-0.486	-0.077
-496.595	-200.000	-0.007	-0.256
-495.581	410.494	0.126	0.267
-494.566	-26.353	-0.152	-0.089
-493.551	-167.460	0.245	0.010
-492.537	132.000	0.143	0.184
-491.522	-53.560	-0.076	0.035
-490.508	74.916	-0.287	-0.301
-489.493	-45.782	-0.173	-0.085
-488.478	215.742	-0.084	-0.133
-487.464	116.319	-0.259	0.316
-486.449	-170.614	0.239	0.008
-485.435	-132.217	-0.330	-0.043
-484.420	216.576	0.138	-0.219
-483.405	28.638	0.261	0.220
-482.391	-200.000	0.001	-0.176
-481.376	55.292	0.247	-0.239
-480.362	-114.201	-0.359	-0.069
-479.347	-104.757	-0.170	0.039
-478.332	767.749	-0.055	-0.150
-477.318	800.000	-0.068	0.198
-476.303	178.211	0.030	-0.043
-475.289	107.791	-0.092	-0.109
-474.274	-117.926	-0.420	0.075
-473.259	800.000	-0.063	-0.216
-472.245	-9.383	0.106	0.071
-471.230	-142.363	0.066	0.007
-470.216	-200.000	0.002	0.150
-469.201	75.696	-0.087	0.092
-468.186	-108.407	-0.047	-0.010
-467.172	-67.523	-0.037	0.014
-466.157	800.000	-0.047	0.137
-465.143	-107.439	0.203	-0.044
-464.128	-200.000	0.071	0.462
-463.113	-200.000	0.043	0.270
-462.099	-37.673	0.236	-0.125
-461.084	800.000	-0.031	-0.093
-460.070	37.551	0.223	-0.197
-459.055	239.283	-0.046	-0.076
-458.040	315.419	-0.026	-0.050
-457.026	-200.000	-0.057	-0.320
-456.011	89.587	-0.093	-0.103
-454.997	-113.641	0.171	-0.033
-453.982	-144.170	-0.141	-0.013
-452.968	-200.000	0.041	0.188
-451.953	8.724	0.351	-0.264
-450.938	334.584	0.179	-0.344
-449.924	332.097	0.031	0.060
-448.909	-126.066	-0.245	-0.037
-447.895	-200.000	0.066	-0.302
-446.880	-200.000	0.029	-0.234
-445.865	800.000	0.059	-0.189
-444.851	90.031	0.115	-0.129
-443.836	-116.748	-0.320	-0.059
-442.822	-44.043	0.148	0.074
-441.807	800.000	0.090	-0.326
-440.792	122.363	0.069	-0.086
-439.778	54.787	0.170	0.163
-438.763	-200.000	0.029	0.238
-437.749	-123.768	0.151	0.024
-436.734	-110.659	-0.090	0.019
-435.719	21.651	0.181	0.147
-434.705	-24.489	-0.205	0.122
-433.690	386.203	-0.126	0.259
-432.676	-200.000	-0.011	-0.096
-431.661	447.419	0.134	-0.294
-430.646	-144.489	-0.158	0.015
-429.632	-88.433	0.113	0.033
-428.617	26.989	0.069	0.057
-427.603	22.574	-0.303	0.247
-426.588	350.854	-0.163	-0.320
-425.573	-200.000	-0.058	-0.271
-424.559	-141.891	0.376	0.037
-423.544	800.000	-0.125	-0.345
-422.530	361.587	-0.129	-0.257
-421.515	-122.481	-0.178	0.029
-420.500	-31.448	-0.073	-0.041
-419.486	-200.000	0.016	-0.084
-418.471	-110.898	0.046	-0.010
-417.457	68.489	0.113	0.115
-416.442	95.898	-0.081	-0.092
-415.428	237.667	0.099	-0.163
-414.413	-200.000	0.012	0.107
-413.398	-200.000	-0.014	-0.065
-412.384	42.808	-0.083	-0.075
-411.369	49.724	-0.153	0.143
-410.355	-21.343	0.097	-0.059
-409.340	33.594	0.201	-0.174
-408.325	-115.494	0.140	-0.026
-407.311	-200.000	-0.014	-0.133
-406.296	-165.100	-0.211	0.009
-405.282	-26.426	0.192	-0.112
-404.267	107.231	-0.093	-0.110
-403.252	800.000	0.068	-0.240
-402.238	-69.664	0.295	0.112
-401.223	-54.608	-0.238	0.107
-400.209	-135.491	-0.073	-0.009
-399.194	-34.300	0.163	-0.089
-398.179	800.000	0.026	-0.077
-397.165	-95.489	0.242	0.065
-396.150	-96.722	0.062	0.016
-395.136	-200.000	0.018	-0.592
-394.121	-99.207	0.223	-0.056
-393.106	-26.112	0.136	0.080
-392.092	297.374	0.045	0.083
-391.077	506.027	0.143	0.329
-390.063	800.000	0.044	0.154
-389.048	0.839	0.186	0.133
-388.033	733.220	-0.028	0.074
-387.019	28.281	-0.251	0.211
-386.004	234.864	0.113	-0.186
-384.990	-99.483	-0.219	-0.055
-383.975	54.474	-0.149	0.142
-382.960	-101.317	-0.240	0.058
-381.946	-200.000	0.007	0.095
-380.931	449.448	-0.074	0.162
-379.917	-143.027	0.369	-0.035
-378.902	60.880	-0.172	-0.170
-377.888	-158.668	-0.379	0.022
-376.873	800.000	0.022	-0.066
-375.858	-93.172	-0.059	0.016
-374.844	-200.000	0.003	-0.357
-373.829	26.015	0.143	0.119
-372.815	-45.318	0.199	0.098
-371.800	90.812	-0.057	0.063
-370.785	-200.000	-0.012	-0.108
-369.771	6.954	0.101	0.074
-368.756	-34.644	0.182	0.099
-367.742	32.893	-0.136	0.117
-366.727	-100.232	0.206	-0.051
-365.712	187.228	-0.100	0.149
-364.698	-91.734	0.113	-0.032
-363.683	-85.980	0.082	-0.025
-362.669	-24.294	0.145	0.086
-361.654	800.000	0.077	0.272
-360.639	-138.494	-0.162	-0.018
-359.625	-52.391	-0.100	-0.046
-358.610	800.000	-0.012	0.046
-357.596	144.878	0.126	0.167
-356.581	-10.384	0.125	-0.082
-355.566	60.030	0.164	0.161
-354.552	800.000	0.081	0.248
-353.537	193.821	0.076	-0.114
-352.523	800.000	0.147	0.530
-351.508	-165.697	0.118	-0.005
-350.493	38.461	-0.246	0.218
-349.479	12.696	-0.118	0.090
-348.464	69.365	0.057	0.059
-347.450	-200.000	0.012	-0.174
-346.435	84.527	-0.115	0.125
-345.420	800.000	-0.025	0.102
-344.406	-60.644	-0.162	0.068
-343.391	55.462	-0.114	-0.109
-342.377	133.587	0.059	-0.076
-341.362	47.230	0.130	-0.120
-340.348	4.820	0.071	-0.052
-339.333	-200.000	-0.068	-0.369
-338.318	-115.337	-0.193	-0.036
-337.304	207.779	0.151	-0.233
-336.289	-22.527	0.184	0.110
-335.275	-167.003	-0.176	-0.007
-334.260	-129.611	0.111	0.015
-333.245	-200.000	0.239	0.001
-332.231	34.474	-0.056	0.049
-331.216	-94.241	-0.097	-0.026
-330.202	123.727	0.026	0.032
-329.187	-200.000	0.076	-0.347
-328.172	-200.000	-0.028	0.162
-327.158	-21.736	0.110	-0.066
-326.143	97.516	-0.078	0.089
-325.129	-200.000	0.022	0.108
-324.114	-44.735	0.373	-0.184
-323.099	53.745	0.194	-0.185
-322.085	340.575	-0.007	0.014
-321.070	-58.582	0.148	0.063
-320.056	62.685	-0.230	-0.228
-319.041	-167.392	0.175	0.007
-318.026	-200.000	-0.003	-0.030
-317.012	-200.000	0.001	0.013
-315.997	-200.000	-0.009	0.222
-314.983	-200.000	0.059	-0.261
-313.968	22.066	0.032	0.026
-312.953	63.325	-0.148	-0.147
-311.939	-89.148	-0.291	-0.085
-310.924	-200.000	-0.022	0.146
-309.910	49.462	-0.186	0.173
-308.895	-152.676	-0.011	-0.001
-307.880	-50.946	0.218	0.101
-306.866	-117.584	-0.052	0.009
-305.851	101.942	0.129	0.149
-304.837	263.956	-0.118	0.203
-303.822	657.059	0.075	-0.191
-302.807	76.038	-0.047	0.049
-301.793	-96.258	-0.115	-0.030
-300.778	-200.000	-0.022	0.387
-299.764	-200.000	0.002	-0.150
-298.749	-22.383	0.135	-0.081
-297.735	800.000	-0.079	0.276
-296.720	79.752	-0.096	0.102
-295.705	-72.535	-0.305	-0.112
-294.691	9.669	-0.204	0.153
-293.676	103.260	-0.207	0.240
-292.662	-61.411	0.235	0.098
-291.647	-49.027	-0.330	0.156
-290.632	800.000	-0.005	-0.019
-289.618	476.069	-0.068	0.151
-288.603	66.010	0.031	-0.032
-287.589	-98.005	0.175	0.045
-286.574	-200.000	-0.021	-0.288
-285.559	-200.000	-0.023	-0.128
-284.545	702.295	-0.045	-0.118
-283.530	0.596	0.081	0.057
-282.516	12.899	0.194	-0.148
-281.501	-200.000	0.033	-0.162
-280.486	351.482	0.115	0.224
-279.472	473.914	-0.142	0.317
-278.457	-126.959	0.247	0.036
-277.443	-22.676	0.213	0.127
-276.428	20.376	-0.276	-0.221
-275.413	100.105	0.193	0.221
-274.399	800.000	-0.016	0.060
-273.384	70.712	0.313	0.320
-272.370	-200.000	0.005	-0.026
-271.355	-200.000	-0.017	-0.109
-270.340	369.154	0.133	0.266
-269.326	-56.755	0.159	0.070
-268.311	72.221	-0.114	0.118
-267.297	511.142	-0.119	-0.274
-266.282	99.715	-0.155	0.177
-265.267	800.000	0.087	-0.350
-264.253	800.000	0.029	-0.099
-263.238	800.000	-0.065	0.238
-262.224	-120.608	0.137	-0.023
-261.209	-73.523	-0.288	-0.104
-260.195	-17.211	-0.060	-0.038
-259.180	252.234	0.073	0.122
-258.165	-112.823	0.221	0.043
-257.151	-135.949	-0.145	0.017
-256.136	70.271	0.151	0.154
-255.122	-25.736	0.273	0.159
-254.107	800.000	-0.077	0.260
-253.092	170.214	0.081	0.114
-252.078	105.408	-0.182	-0.212
-251.063	438.125	-0.094	0.203
-250.049	3.653	0.171	0.123
-249.034	60.881	-0.099	-0.097
-248.019	387.333	0.054	-0.111
-247.005	-200.000	0.009	-0.344
-245.990	374.708	-0.065	-0.131
-244.976	218.662	-0.055	0.086
-243.961	-106.440	-0.113	0.025
-242.946	3.493	0.240	0.172
-241.932	169.430	-0.160	0.226
-240.917	-200.000	0.015	-0.098
-239.903	-127.395	0.258	-0.037
-238.888	137.669	-0.120	-0.156
-237.873	-172.507	0.146	0.005
-236.859	800.000	-0.104	0.298
-235.844	-158.014	-0.174	-0.010
-234.830	-200.000	-0.032	0.149
-233.815	46.432	-0.074	0.068
-232.800	77.547	0.141	-0.148
-231.786	-200.000	0.022	-0.211
-230.771	-58.671	-0.207	0.089
-229.757	95.775	-0.099	0.112
-228.742	258.392	-0.099	-0.168
-227.727	-46.117	-0.103	0.050
-226.713	123.490	0.054	0.066
-225.698	-135.514	0.113	0.013
-224.684	-54.092	-0.378	-0.170
-223.669	-71.021	-0.210	-0.078
-222.655	109.772	-0.179	0.211
-221.640	-152.803	0.202	-0.014
-220.625	800.000	-0.025	0.071
-219.611	-162.002	-0.281	-0.014
-218.596	246.310	-0.205	0.341
-217.582	53.486	-0.192	0.181
-216.567	-24.226	0.084	-0.050
-215.552	218.830	0.044	-0.069
-214.538	149.429	0.237	0.317
-213.523	223.694	-0.108	-0.172
-212.509	-91.571	0.116	-0.033
-211.494	-200.000	-0.008	-0.298
-210.479	-138.565	0.156	0.017
-209.465	800.000	0.038	0.137
-208.450	-116.468	0.204	-0.037
-207.436	-65.522	-0.330	-0.131
-206.421	-31.935	-0.101	0.056
-205.406	800.000	-0.138	0.436
-204.392	41.396	-0.041	0.037
-203.377	800.000	0.058	-0.187
-202.363	-79.131	-0.293	-0.098
-201.348	-200.000	0.007	0.101
-200.333	-118.862	-0.168	0.029
-199.319	-87.732	0.314	0.093
-198.304	71.173	0.097	-0.099
-197.290	-114.154	0.304	0.058
-196.275	467.578	-0.122	0.270
-195.260	11.164	-0.128	0.097
-194.246	154.870	-0.121	-0.164
-193.231	-65.932	-0.204	-0.080
-192.217	327.310	0.062	-0.117
-191.202	-51.202	-0.088	0.040
-190.187	157.890	-0.257	-0.351
-189.173	411.873	0.072	0.150
-188.158	-200.000	-0.039	0.244
-187.144	110.217	-0.109	0.129
-186.129	-52.047	-0.111	-0.051
-185.114	-200.000	0.028	0.382
-184.100	258.760	-0.051	-0.087
-183.085	800.000	0.115	-0.355
-182.071	-3.821	0.306	-0.210
-181.056	285.083	0.064	-0.113
-180.042	-78.156	-0.225	-0.076
-179.027	-91.346	-0.290	-0.082
-178.012	800.000	0.151	-0.415
-176.998	-83.654	-0.401	0.126
-175.983	-161.481	0.373	0.019
-174.969	-25.086	0.262	-0.153
-173.954	800.000	0.072	-0.245
-172.939	74.764	0.148	-0.153
-171.925	-58.213	-0.248	0.106
-170.910	-200.000	0.008	0.121
-169.896	44.525	-0.085	-0.077
-168.881	800.000	-0.079	0.269
-167.866	117.507	-0.196	-0.237
-166.852	180.113	0.029	-0.041
-165.837	-81.724	0.263	-0.085
-164.823	-111.129	-0.335	0.068
-163.808	-84.998	-0.263	-0.081
-162.793	54.666	0.107	-0.101
-161.779	-200.000	0.008	-0.130
-160.764	146.529	0.125	0.165
-159.750	-15.079	0.290	0.183
-158.735	-89.173	-0.223	-0.065
-157.720	-200.000	0.008	0.189
-156.706	-24.811	0.197	0.115
-155.691	800.000	0.032	0.109
-154.677	51.732	0.171	-0.160
-153.662	134.912	0.121	0.155
-152.647	-111.740	-0.252	-0.050
-151.633	-200.000	0.035	0.193
-150.618	-80.779	-0.152	-0.050
-149.604	-200.000	-0.052	-0.275
-148.589	-162.030	0.138	-0.007
-147.574	483.841	0.093	0.209
-146.560	-134.154	-0.238	0.029
-145.545	-200.000	0.001	0.115
-144.531	9.996	-0.101	0.075
-143.516	78.423	0.066	-0.069
-142.502	196.550	0.055	-0.082
-141.487	-200.000	-0.052	-0.236
-140.472	477.756	0.129	0.288
-139.458	173.511	-0.234	0.333
-138.443	12.623	-0.498	0.378
-137.429	800.000	0.070	0.247
-136.414	195.142	-0.114	-0.170
-135.399	-200.000	0.012	-0.134
-134.385	-114.240	0.304	0.058
-133.370	-33.162	0.237	-0.129
-132.356	800.000	0.152	-0.496
-131.341	10.457	0.111	-0.083
-130.326	60.092	-0.110	-0.107
-129.312	800.000	0.007	0.020
-128.297	-31.030	-0.257	0.143
-127.283	45.293	-0.106	-0.096
-126.268	38.375	-0.200	-0.175
-125.253	343.380	-0.070	-0.135
-124.239	79.778	0.393	-0.415
-123.224	7.698	-0.234	0.173
-122.210	-110.718	0.130	-0.026
-121.195	191.651	0.124	-0.183
-120.180	-14.009	-0.227	0.144
-119.166	-174.711	-0.286	0.008
-118.151	-5.490	0.080	0.054
-117.137	105.353	-0.128	-0.148
-116.122	-200.000	0.024	-0.153
-115.107	-178.390	0.153	0.004
-114.093	276.868	0.019	-0.033
-113.078	-168.086	0.274	0.010
-112.064	800.000	0.106	0.319
-111.049	-13.413	-0.254	0.162
-110.034	102.179	0.044	-0.050
-109.020	10.761	0.089	0.067
-108.005	667.060	-0.099	0.252
-106.991	-163.469	-0.136	0.006
-105.976	-23.377	0.010	-0.006
-104.962	301.454	0.107	-0.194
-103.947	47.992	0.111	-0.102
-102.932	291.451	-0.095	0.170
-101.918	104.883	-0.219	-0.254
-100.903	-17.114	0.212	-0.132
-99.889	-200.000	-0.013	0.356
-98.874	-200.000	0.008	0.077
-97.859	35.463	0.147	0.127
-96.845	800.000	0.069	0.278
-95.830	-42.648	-0.194	0.097
-94.816	75.269	0.131	-0.136
-93.801	563.418	0.011	0.025
-92.786	279.216	-0.152	-0.267
-91.772	-200.000	-0.013	-0.193
-90.757	-67.655	0.138	-0.053
-89.743	72.457	-0.088	0.090
-88.728	-95.975	0.146	0.038
-87.713	35.054	-0.112	-0.096
-86.699	-177.785	0.324	0.008
-85.684	-2.020	-0.226	0.156
-84.670	-200.000	-0.001	0.172
-83.655	-120.652	-0.271	0.045
-82.640	132.812	-0.223	-0.282
-81.626	-200.000	-0.047	0.260
-80.611	-106.831	0.370	-0.081
-79.597	531.377	0.156	-0.363
-78.582	-200.000	-0.034	-0.265
-77.567	-22.140	-0.249	0.148
-76.553	-124.687	0.156	-0.024
-75.538	-75.373	0.207	-0.072
-74.524	99.625	0.047	-0.053
-73.509	274.138	0.142	-0.246
-72.494	-13.924	0.438	-0.277
-71.480	680.073	0.088	0.225
-70.465	105.521	-0.084	0.097
-69.451	800.000	0.046	0.168
-68.436	-165.781	-0.101	0.004
-67.422	697.778	0.089	-0.230
-66.407	96.717	0.088	-0.099
-65.392	472.984	0.056	0.123
-64.378	800.000	0.086	0.361
-63.363	436.472	0.188	0.401
-62.349	56.451	-0.183	0.174
-61.334	-5.254	-1.261	-0.851
-60.319	66.692	0.456	0.455
-59.305	483.553	-0.452	-1.008
-58.290	110.668	0.911	1.075
-57.276	310.959	0.788	1.449
-56.261	-200.000	98.516	615.269
-55.246	589.792	1412.373	3415.337
-54.232	190.898	2605.477	3843.124
-53.217	116.417	2163.395	2600.917
-52.203	42.108	1698.560	1512.384
-51.188	34.414	1511.256	1293.605
-50.173	32.023	1484.449	1254.648
-49.159	52.428	1535.345	1436.822
-48.144	53.701	1552.966	1461.911
-47.130	34.652	1512.152	1295.780
-46.115	31.556	1497.053	1261.954
-45.100	31.391	1494.137	1258.332
-44.086	31.331	1491.933	1256.025
-43.071	31.272	1489.523	1253.552
-42.057	31.152	1488.641	1251.950
-41.042	31.243	1487.260	1251.352
-40.027	31.289	1485.243	1249.913
-39.013	31.243	1483.350	1247.961
-37.998	31.245	1482.364	1247.097
-36.984	31.235	1481.259	1246.052
-35.969	31.299	1479.687	1245.105
-34.954	31.232	1478.696	1243.774
-33.940	31.250	1477.484	1242.826
-32.925	31.297	1476.140	1241.956
-31.911	31.311	1474.586	1240.692
-30.896	31.331	1473.095	1239.526
-29.881	31.395	1472.399	1239.314
-28.867	31.379	1470.973	1237.959
-27.852	31.240	1469.708	1235.926
-26.838	31.297	1468.082	1234.885
-25.823	31.302	1466.070	1233.178
-24.809	31.311	1464.865	1232.176
-23.794	31.261	1463.373	1230.537
-22.779	31.266	1462.034	1229.396
-21.765	31.221	1460.959	1228.149
-20.750	31.240	1459.956	1227.382
-19.736	31.261	1458.885	1226.572
-18.721	31.298	1457.233	1225.374
-17.706	31.303	1456.146	1224.446
-16.692	31.131	1455.672	1222.871
-15.677	31.307	1454.064	1222.623
-14.663	31.198	1453.318	1221.238
-13.648	31.206	1452.244	1220.339
-12.633	31.259	1451.527	1220.036
-11.619	31.290	1450.976	1219.725
-10.604	31.291	1449.920	1218.796
-9.590	31.089	1449.638	1217.189
-8.575	31.161	1448.350	1216.529
-7.560	31.195	1447.247	1215.777
-6.546	31.215	1446.492	1215.222
-5.531	31.182	1445.767	1214.355
-4.517	31.252	1444.472	1213.673
-3.502	31.062	1443.938	1211.939
-2.487	31.236	1442.178	1211.545
-1.473	31.134	1441.864	1210.573
-0.458	31.145	1440.462	1209.419
0.556	28.841	1430.454	1197.911
1.571	25.651	1404.521	1155.636
2.586	22.115	1343.341	1083.435
3.600	20.528	1261.088	1007.812
4.615	19.332	1216.885	965.705
5.629	16.529	1161.900	906.977
6.644	7.972	1078.473	799.012
7.659	0.676	1038.075	733.682
8.673	-0.236	1032.038	724.952
9.688	-0.339	1029.226	722.414
10.702	-0.338	1027.206	720.936
11.717	-0.377	1025.495	719.486
12.731	2.642	1029.147	736.504
13.746	11.555	1041.487	788.454
14.761	18.115	1049.114	825.953
15.775	19.147	1049.979	831.550
16.790	18.996	1049.521	830.382
17.804	18.855	1048.649	828.937
18.819	18.701	1047.620	827.308
19.834	18.749	1047.127	827.077
20.848	18.885	1046.553	827.205
21.863	18.906	1045.898	826.719
22.877	18.965	1045.401	826.536
23.892	18.887	1044.826	825.630
24.907	18.793	1044.088	824.526
25.921	18.792	1043.589	824.051
26.936	18.873	1042.679	823.650
27.950	18.862	1041.634	822.698
28.965	18.789	1040.508	821.387
29.980	18.723	1038.750	819.612
30.994	18.646	1037.084	817.858
32.009	18.881	1036.114	818.139
33.023	18.988	1035.572	818.150
34.038	18.579	1034.387	815.196
35.053	18.628	1033.751	814.856
36.067	18.770	1033.560	815.307
37.082	18.866	1032.428	814.799
38.096	18.963	1031.500	814.451
39.111	18.996	1031.021	814.157
40.126	19.142	1029.867	813.863
41.140	19.047	1028.484	812.252
42.155	18.924	1026.403	809.958
43.169	18.580	1025.695	807.708
44.184	18.497	1024.888	806.611
45.199	18.528	1023.622	805.685
46.213	18.491	1022.442	804.513
47.228	18.556	1021.479	803.989
48.242	18.510	1020.547	802.967
49.257	18.704	1019.387	802.891
50.271	18.747	1018.736	802.511
51.286	18.851	1017.945	802.300
52.301	18.874	1016.712	801.365
53.315	18.851	1015.977	800.608
54.330	18.754	1015.264	799.524
55.344	18.769	1014.496	798.918
56.359	18.759	1013.639	798.128
57.374	18.788	1012.733	797.475
58.388	18.711	1011.544	796.114
59.403	18.761	1010.768	795.662
60.417	18.697	1010.524	795.106
61.432	18.480	1009.446	793.181
62.447	18.606	1008.669	793.083
63.461	18.732	1007.989	793.062
64.476	18.805	1006.931	792.495
65.490	18.768	1006.043	791.557
66.505	18.674	1005.223	790.408
67.520	18.713	1004.408	789.877
68.534	18.774	1003.775	789.589
69.549	18.612	1002.702	787.933
70.563	18.358	1001.739	785.939
71.578	18.379	1000.639	785.102
72.593	18.360	999.747	784.246
73.607	18.206	998.753	782.691
74.622	18.228	997.946	782.091
75.636	18.617	996.884	782.965
76.651	18.646	996.264	782.544
77.666	18.496	995.745	781.380
78.680	18.395	994.585	779.941
79.695	18.529	993.970	780.000
80.709	18.602	993.639	780.002
81.724	18.602	992.972	779.411
82.739	18.437	991.925	777.773
83.753	18.472	991.175	777.274
84.768	18.818	990.537	778.272
85.782	18.948	989.786	778.203
86.797	19.140	988.846	778.260
87.812	18.983	987.502	776.424
88.826	19.014	987.022	776.120
89.841	18.945	986.027	774.957
90.855	18.932	985.834	774.680
91.870	19.100	984.467	774.293
92.884	18.990	983.612	773.057
93.899	18.972	982.656	772.157
94.914	18.929	981.545	771.023
95.928	18.990	981.334	771.061
96.943	18.922	980.611	770.121
97.957	18.757	978.839	767.922
98.972	18.621	978.012	766.598
99.987	18.355	977.264	764.756
101.001	18.488	976.013	764.305
102.016	18.737	975.959	765.306
103.030	18.895	974.749	764.991
104.045	18.787	973.686	763.611
105.060	18.570	972.387	761.557
106.074	18.325	971.168	759.448
107.089	18.457	970.656	759.570
108.103	18.777	970.403	760.720
109.118	19.141	969.492	761.548
110.133	18.865	968.185	759.236
111.147	18.856	967.106	758.284
112.162	18.683	965.959	756.554
113.176	18.376	965.395	754.693
114.191	18.431	964.277	753.993
115.206	18.706	963.229	754.315
116.220	18.402	961.734	751.746
117.235	18.319	960.647	750.464
118.249	18.389	960.256	750.399
119.264	18.418	959.257	749.679
120.279	18.355	958.716	748.914
121.293	18.349	957.909	748.194
122.308	18.428	957.135	747.867
123.322	18.567	956.196	747.672
124.337	18.560	954.763	746.456
125.352	18.369	953.987	744.951
126.366	18.067	951.889	741.938
127.381	17.822	950.434	739.675
128.395	18.332	949.958	741.448
129.410	18.777	949.894	743.260
130.424	18.884	948.742	742.756
131.439	18.868	947.792	741.877
132.454	18.802	946.928	740.848
133.468	18.924	945.460	740.159
134.483	18.680	945.104	738.765
135.497	18.817	943.909	738.355
136.512	18.984	943.414	738.620
137.527	19.069	942.733	738.389
138.541	19.071	941.475	737.345
139.556	19.015	941.206	736.830
140.570	19.027	940.219	736.042
141.585	18.897	939.436	734.808
142.600	19.033	938.304	734.437
143.614	18.951	937.300	733.239
144.629	19.162	936.724	733.622
145.643	19.306	936.430	733.940
146.658	19.163	935.295	732.377
147.673	19.077	933.933	730.879
148.687	19.006	932.859	729.676
149.702	18.939	931.982	728.642
150.716	18.917	930.466	727.298
151.731	18.843	930.074	726.615
152.746	18.916	929.677	726.547
153.760	19.037	928.702	726.231
154.775	19.174	927.927	726.142
155.789	19.151	927.143	725.367
156.804	19.066	926.510	724.449
157.819	19.108	925.134	723.486
158.833	19.115	924.438	722.907
159.848	19.220	923.738	722.736
160.862	19.312	923.046	722.514
161.877	19.058	921.817	720.425
162.892	19.068	921.359	720.044
163.906	19.303	920.623	720.389
164.921	19.255	919.673	719.383
165.935	19.071	918.462	717.605
166.950	19.246	917.452	717.482
167.964	19.278	916.316	716.662
168.979	19.325	915.064	715.814
169.994	19.082	914.440	714.255
171.008	18.967	913.426	712.924
172.023	19.047	912.521	712.486
173.037	19.121	911.906	712.248
174.052	19.012	910.816	710.883
175.067	18.865	909.634	709.290
176.081	18.867	908.790	708.579
177.096	19.083	908.014	708.798
178.110	19.191	907.448	708.740
179.125	18.888	905.926	706.242
180.140	18.672	905.043	704.605
181.154	18.610	904.298	703.709
182.169	18.740	903.971	703.926
183.183	18.794	903.729	703.896
184.198	19.135	902.986	704.651
185.213	19.117	902.173	703.880
186.227	19.104	901.151	702.968
187.242	19.146	901.263	703.166
188.256	19.208	899.981	702.353
189.271	19.233	899.495	702.015
190.286	19.316	898.493	701.507
191.300	19.091	898.088	700.215
192.315	18.627	896.755	697.229
193.329	18.197	895.241	694.243
194.344	17.809	894.045	691.683
195.359	18.213	894.762	693.815
196.373	18.853	894.777	696.362
197.388	19.193	894.154	697.189
198.402	19.094	893.277	696.045
199.417	18.999	892.688	695.140
200.432	18.887	892.621	694.572
201.446	18.803	891.165	693.043
202.461	18.485	890.741	691.369
203.475	18.699	890.269	691.802
204.490	18.226	888.798	688.695
205.504	17.195	886.712	682.876
206.519	17.626	887.017	684.781
207.534	18.606	887.012	688.652
208.548	18.798	886.121	688.673
209.563	19.081	886.389	689.952
210.577	19.077	884.992	688.788
211.592	18.796	884.710	687.386
212.607	19.016	884.771	688.249
213.621	19.273	883.995	688.612
214.636	19.133	883.432	687.553
215.650	19.302	882.463	687.412
216.665	19.327	881.863	686.984
217.680	19.323	881.649	686.742
218.694	19.382	880.899	686.333
219.709	19.050	879.996	684.246
220.723	18.722	878.573	681.777
221.738	19.007	878.535	682.821
222.753	19.059	878.264	682.755
223.767	19.098	877.045	681.901
224.782	19.028	876.834	681.399
225.796	19.407	875.783	682.023
226.811	19.469	874.895	681.515
227.826	19.169	873.907	679.502
228.840	18.414	872.290	675.209
229.855	18.277	872.102	674.462
230.869	18.541	872.016	675.379
231.884	18.248	870.602	673.070
232.899	18.192	870.591	672.782
233.913	19.017	870.149	675.622
234.928	19.164	870.102	676.102
235.942	19.058	869.389	675.073
236.957	19.244	868.602	675.134
237.972	18.905	867.478	672.871
238.986	18.703	867.085	671.718
240.001	18.860	866.405	671.745
241.015	18.985	865.565	671.523
242.030	19.078	864.669	671.132
243.045	19.078	864.520	670.958
244.059	19.090	863.748	670.345
245.074	19.311	863.022	670.583
246.088	19.269	862.471	669.930
247.103	18.763	861.803	667.386
248.117	18.912	860.841	667.162
249.132	19.320	860.822	668.669
250.147	19.679	860.264	669.570
251.161	19.666	859.643	668.976
252.176	19.668	859.335	668.686
253.190	19.829	858.490	668.589
254.205	19.911	857.826	668.330
255.220	20.031	857.248	668.283
256.234	19.960	856.526	667.389
257.249	20.050	855.900	667.187
258.263	19.747	855.399	665.572
259.278	19.849	854.793	665.432
260.293	19.939	854.653	665.614
261.307	20.015	853.677	665.084
262.322	19.893	852.860	663.923
263.336	19.724	852.345	662.814
264.351	19.121	851.108	659.485
265.366	18.159	848.912	654.046
266.380	17.615	848.351	651.477
267.395	18.665	848.231	655.339
268.409	19.550	848.476	658.848
269.424	19.504	847.917	658.181
270.439	19.601	847.680	658.309
271.453	19.739	846.614	657.948
272.468	19.740	846.105	657.499
273.482	19.944	845.537	657.774
274.497	19.988	845.023	657.485
275.512	19.909	844.053	656.370
276.526	19.410	842.556	653.260
277.541	19.485	842.355	653.330
278.555	19.789	842.053	654.189
279.570	19.580	841.380	652.818
280.585	19.377	840.309	651.161
281.599	19.577	839.754	651.429
282.614	19.664	839.329	651.368
283.628	19.357	838.522	649.531
284.643	18.941	837.707	647.274
285.657	19.328	837.587	648.582
286.672	19.345	836.572	647.801
287.687	18.810	835.767	645.112
288.701	19.018	835.758	645.830
289.716	19.416	835.236	646.861
290.730	19.270	834.075	645.360
291.745	19.016	833.577	643.963
292.760	18.828	832.794	642.599
293.774	18.834	831.815	641.812
294.789	19.617	832.690	645.357
295.803	20.104	832.458	646.935
296.818	20.171	832.300	647.005
297.833	20.372	831.550	647.117
298.847	20.217	830.083	645.339
299.862	19.864	829.258	643.331
300.876	19.966	828.994	643.446
301.891	20.455	827.974	644.412
302.906	20.333	827.483	643.521
303.920	19.713	826.623	640.499
304.935	19.756	825.873	640.019
305.949	19.941	825.841	640.622
306.964	20.286	825.170	641.320
307.979	20.134	824.637	640.287
308.993	19.879	824.505	639.187
310.008	20.355	823.970	640.473
311.022	20.421	823.393	640.213
312.037	20.092	823.446	638.983
313.052	20.083	822.453	638.124
314.066	20.040	821.189	636.928
315.081	19.413	820.302	633.878
316.095	18.725	819.379	630.583
317.110	19.226	819.312	632.317
318.125	19.962	819.808	635.344
319.139	19.652	818.387	633.053
320.154	18.717	816.479	628.102
321.168	18.346	816.013	626.331
322.183	18.745	816.231	627.902
323.197	19.597	816.614	631.256
324.212	19.886	816.006	631.786
325.227	19.997	815.734	631.923
326.241	20.252	815.206	632.389
327.256	19.986	814.490	630.808
328.270	20.113	813.626	630.547
329.285	20.047	813.161	629.890
330.300	19.783	812.867	628.645
331.314	19.722	811.443	627.269
332.329	19.899	810.794	627.351
333.343	20.025	810.662	627.651
334.358	20.262	810.129	628.042
335.373	20.117	809.662	627.099
336.387	20.201	809.217	627.004
337.402	20.375	808.972	627.385
338.416	20.651	808.501	627.962
339.431	20.564	807.598	626.891
340.446	20.513	807.096	626.261
341.460	20.698	806.629	626.509
342.475	20.701	805.757	625.787
343.489	20.273	805.356	623.884
344.504	20.519	804.937	624.389
345.519	20.678	805.035	624.978
346.533	21.008	804.053	625.346
347.548	20.865	803.936	624.687
348.562	20.868	803.731	624.482
349.577	21.034	802.623	624.159
350.592	21.009	802.160	623.654
351.606	20.978	801.675	623.111
352.621	20.936	801.257	622.581
353.635	20.747	801.089	621.723
354.650	20.883	800.350	621.580
355.665	20.428	799.678	619.380
356.679	19.586	797.560	614.690
357.694	19.364	797.198	613.566
358.708	20.015	797.046	615.710
359.723	19.806	796.662	614.614
360.738	20.034	796.434	615.194
361.752	20.632	796.001	616.928
362.767	20.701	796.090	617.188
363.781	20.958	795.883	617.883
364.796	21.239	795.369	618.423
365.810	21.191	794.872	617.815
366.825	21.332	794.384	617.877
367.840	21.357	793.966	617.588
368.854	20.960	793.626	615.865
369.869	20.726	792.800	614.345
370.883	20.747	792.058	613.789
371.898	20.834	791.253	613.417
372.913	20.636	790.982	612.456
373.927	20.633	790.095	611.703
374.942	20.800	789.512	611.784
375.956	20.760	789.620	611.674
376.971	20.793	789.043	611.290
377.986	20.902	788.292	611.036
379.000	21.190	787.694	611.527
380.015	21.151	787.724	611.359
381.029	21.147	786.318	610.201
382.044	20.990	786.169	609.482
383.059	21.128	785.600	609.467
384.073	21.220	784.878	609.174
385.088	21.201	784.813	609.004
386.102	21.277	784.057	608.628
387.117	21.159	783.624	607.829
388.132	21.029	783.236	607.022
389.146	20.949	782.889	606.418
390.161	20.265	781.807	603.152
391.175	20.416	781.158	603.121
392.190	20.594	781.595	604.025
393.205	20.873	780.737	604.275
394.219	20.110	779.198	600.387
395.234	18.682	777.126	593.800
396.248	18.110	776.059	590.956
397.263	19.116	776.933	595.050
398.278	20.690	778.070	601.312
399.292	21.084	777.809	602.417
400.307	20.745	777.441	600.911
401.321	20.766	777.083	600.650
402.336	21.049	776.605	601.204
403.350	20.985	776.352	600.734
404.365	21.267	776.464	601.740
405.380	21.573	776.030	602.404
406.394	21.727	775.809	602.708
407.409	21.913	775.451	603.016
408.423	21.857	774.679	602.171
409.438	21.746	774.180	601.349
410.453	21.714	773.681	600.797
411.467	21.924	773.167	601.067
412.482	21.897	772.682	600.542
413.496	21.826	772.275	599.932
414.511	21.811	772.298	599.844
415.526	21.993	771.774	600.005
416.540	21.845	771.064	598.895
417.555	21.680	770.735	598.024
418.569	21.334	770.111	596.308
419.584	21.614	769.014	596.358
420.599	21.473	768.977	595.798
421.613	157.699	1361.320	1796.304
422.628	135.919	1447.620	1796.406
