DTS Sentinel unit serial number:	SN413079Multiplexer serial number:	ORYXHardware model number:	OX4-SRSoftware version number:	ORYX F/W v4.00 Oryx Data Collector v3.7.2.0data status	okinstallation	princeton_trtdifferential loss correction	single-endedforward channel	channel 3reverse channel	N/Adate	2019/09/17time	23:44:35forward acquisition time	60.00reverse acquisition time	0.00gamma	496.2192k internal	0.2344k external	0.2344temperature offset calibration	0.9954default loss term (dB/km)	0.3790temperature slope calibration	1.0000multiplexer offset coefficient	1.0000multiplexer slope coefficient	1.0000fibre end	0.00T internal ref (°C)	24.06T ext. ref 1 (°C)	0.17T ext. ref 2 (°C)	17.45length (m)	temperature (°C)	Stokes	anti-Stokes-747.200	-26.549	0.125	0.074
-746.185	-200.000	-0.007	0.345
-745.171	800.000	0.038	0.113
-744.156	-32.743	-0.519	0.289
-743.142	-98.090	-0.134	0.035
-742.127	166.332	0.099	0.141
-741.112	800.000	0.018	-0.056
-740.098	-122.990	0.217	0.035
-739.083	-113.732	0.053	-0.010
-738.069	-200.000	-0.062	0.285
-737.054	-36.493	0.236	-0.127
-736.039	-198.989	-0.285	0.002
-735.025	116.609	0.170	0.209
-734.010	90.305	-0.115	-0.129
-732.996	57.738	-0.420	-0.411
-731.981	-89.188	0.196	0.058
-730.966	-18.636	-0.259	0.162
-729.952	-200.000	0.019	-0.302
-728.937	507.613	-0.160	0.372
-727.923	68.287	0.204	0.209
-726.908	-50.521	-0.241	-0.114
-725.894	800.000	0.047	0.198
-724.879	78.440	-0.126	0.134
-723.864	-61.395	-0.106	0.045
-722.850	-135.471	-0.331	-0.039
-721.835	91.091	0.170	-0.191
-720.821	387.698	-0.206	-0.427
-719.806	-200.000	-0.047	0.240
-718.791	-3.617	-0.174	-0.121
-717.777	-169.453	-0.185	-0.007
-716.762	71.707	-0.312	-0.324
-715.748	-104.419	-0.098	0.023
-714.733	-53.057	-0.168	0.077
-713.718	800.000	-0.064	0.269
-712.704	-200.000	0.000	-0.151
-711.689	304.957	-0.075	0.140
-710.675	-105.534	-0.174	-0.040
-709.660	800.000	-0.037	-0.146
-708.645	133.362	0.187	-0.241
-707.631	70.164	-0.066	0.068
-706.616	-127.376	-0.273	-0.040
-705.602	677.769	0.114	-0.295
-704.587	-162.674	0.256	-0.013
-703.572	-200.000	-0.071	-0.319
-702.558	330.985	-0.227	-0.438
-701.543	-63.113	-0.347	0.143
-700.529	800.000	0.020	0.072
-699.514	-200.000	0.044	-0.457
-698.499	-200.000	0.025	-0.118
-697.485	169.987	-0.084	-0.119
-696.470	-142.900	-0.368	0.036
-695.456	-200.000	-0.044	0.339
-694.441	-27.173	-0.199	-0.116
-693.426	800.000	0.022	-0.092
-692.412	326.835	0.079	-0.151
-691.397	-66.309	-0.317	0.126
-690.383	-155.616	0.193	-0.012
-689.368	800.000	-0.046	0.129
-688.354	209.664	0.056	0.088
-687.339	-28.269	0.145	-0.083
-686.324	-200.000	0.057	-0.364
-685.310	156.225	0.066	0.090
-684.295	-14.141	-0.131	0.084
-683.281	-22.763	-0.097	0.059
-682.266	91.045	-0.199	0.223
-681.251	-145.108	0.151	0.014
-680.237	103.019	0.105	0.122
-679.222	-200.000	-0.070	0.438
-678.208	-108.217	0.225	0.049
-677.193	650.137	0.111	-0.284
-676.178	-200.000	-0.004	-0.129
-675.164	-200.000	0.024	-0.256
-674.149	-20.870	-0.057	0.035
-673.135	388.106	-0.087	-0.180
-672.120	-23.610	0.070	-0.042
-671.105	283.596	0.055	0.098
-670.091	-80.004	0.231	0.077
-669.076	-200.000	0.045	0.203
-668.062	-62.543	-0.344	-0.143
-667.047	-200.000	0.011	-0.145
-666.032	-111.300	-0.304	-0.062
-665.018	800.000	0.036	0.151
-664.003	-146.821	0.120	0.010
-662.989	-55.635	0.105	-0.047
-661.974	388.662	0.085	-0.174
-660.959	800.000	0.091	0.274
-659.945	97.806	-0.293	-0.337
-658.930	-113.543	-0.304	0.059
-657.916	104.274	-0.206	-0.242
-656.901	-19.998	0.261	-0.160
-655.886	-101.901	-0.396	-0.095
-654.872	409.750	0.095	-0.200
-653.857	800.000	-0.109	-0.311
-652.843	71.582	0.235	0.244
-651.828	-79.808	0.210	0.070
-650.814	114.247	0.322	0.391
-649.799	-200.000	-0.042	0.294
-648.784	-200.000	0.009	0.112
-647.770	-23.126	-0.216	0.130
-646.755	-200.000	-0.098	0.000
-645.741	89.143	0.356	-0.395
-644.726	-111.529	0.367	0.074
-643.711	544.756	-0.039	-0.094
-642.697	-103.149	0.212	0.050
-641.682	286.067	-0.147	-0.265
-640.668	326.183	0.040	0.077
-639.653	-93.692	-0.028	-0.008
-638.638	800.000	-0.059	0.184
-637.624	-106.551	0.043	-0.010
-636.609	-16.762	-0.080	-0.051
-635.595	-200.000	0.002	0.403
-634.580	-138.058	-0.159	-0.018
-633.565	105.955	0.058	0.069
-632.551	36.368	-0.085	-0.075
-631.536	-38.428	-0.280	-0.147
-630.522	-47.612	0.027	0.013
-629.507	-200.000	-0.047	0.284
-628.492	82.679	0.052	0.056
-627.478	-200.000	0.004	0.242
-626.463	-200.000	0.042	0.301
-625.449	167.123	0.100	0.141
-624.434	400.018	0.046	-0.095
-623.419	-200.000	0.035	0.169
-622.405	268.189	-0.067	0.117
-621.390	120.347	0.160	0.197
-620.376	-134.905	-0.251	-0.030
-619.361	-200.000	-0.006	-0.240
-618.346	-39.072	0.350	-0.184
-617.332	-200.000	0.004	0.314
-616.317	-92.798	0.070	-0.019
-615.303	-25.367	-0.187	-0.110
-614.288	-51.797	0.275	0.128
-613.273	-200.000	0.030	0.345
-612.259	247.737	-0.034	0.058
-611.244	121.125	0.184	0.228
-610.230	-85.110	0.238	0.074
-609.215	137.539	-0.051	0.067
-608.201	-102.666	-0.294	0.070
-607.186	-167.137	0.178	0.007
-606.171	-67.263	-0.072	0.028
-605.157	178.920	0.142	-0.206
-604.142	-112.526	0.073	0.014
-603.128	800.000	0.072	0.260
-602.113	-160.732	0.092	-0.005
-601.098	-200.000	0.129	-0.615
-600.084	-200.000	-0.003	-0.195
-599.069	-127.667	0.529	-0.076
-598.055	-120.245	0.194	0.033
-597.040	731.532	-0.061	0.163
-596.025	82.773	-0.081	0.087
-595.011	-47.764	0.114	-0.055
-593.996	-117.461	0.397	-0.071
-592.982	-78.498	0.186	0.063
-591.967	800.000	0.026	0.073
-590.952	-200.000	0.050	0.291
-589.938	-200.000	-0.025	0.110
-588.923	-101.793	0.199	-0.048
-587.909	-150.752	-0.262	-0.020
-586.894	44.920	-0.191	0.175
-585.879	134.096	0.070	-0.090
-584.865	-165.955	0.253	-0.011
-583.850	-18.298	-0.246	-0.153
-582.836	79.254	0.278	-0.296
-581.821	-168.775	0.354	0.013
-580.806	41.505	-0.244	-0.220
-579.792	166.984	-0.124	-0.175
-578.777	86.137	0.203	0.222
-577.763	-174.858	-0.257	0.007
-576.748	64.286	0.186	0.187
-575.733	122.995	-0.146	0.181
-574.719	183.875	0.080	-0.118
-573.704	800.000	0.074	0.253
-572.690	800.000	-0.033	0.094
-571.675	-24.540	0.161	-0.095
-570.661	-46.501	0.195	-0.095
-569.646	-159.475	0.200	0.011
-568.631	-200.000	-0.016	0.167
-567.617	800.000	-0.064	-0.267
-566.602	-131.567	0.195	-0.025
-565.588	725.446	-0.015	-0.041
-564.573	-0.668	-0.321	0.226
-563.558	-88.199	0.181	0.054
-562.544	-200.000	0.023	-0.141
-561.529	214.711	0.113	0.179
-560.515	-28.390	-0.231	-0.132
-559.500	-167.787	-0.320	0.013
-558.485	195.491	0.167	-0.252
-557.471	-200.000	0.128	-0.645
-556.456	-86.887	-0.392	-0.119
-555.442	-100.448	-0.180	0.044
-554.427	-158.009	-0.258	-0.015
-553.412	254.805	0.144	-0.245
-552.398	174.057	0.110	0.158
-551.383	146.760	-0.040	0.053
-550.369	280.596	0.086	-0.152
-549.354	800.000	-0.073	-0.234
-548.339	178.802	0.163	0.236
-547.325	88.893	0.090	-0.100
-546.310	104.744	-0.139	0.163
-545.296	-200.000	-0.012	0.182
-544.281	81.139	0.017	0.018
-543.266	156.128	0.108	-0.148
-542.252	-63.601	-0.154	-0.063
-541.237	61.214	-0.234	-0.231
-540.223	575.399	-0.083	-0.201
-539.208	-5.393	-0.101	0.069
-538.193	74.675	-0.176	-0.184
-537.179	95.489	0.164	-0.186
-536.164	-23.778	0.128	-0.076
-535.150	800.000	0.105	0.343
-534.135	-86.526	0.147	-0.045
-533.121	800.000	0.094	-0.378
-532.106	-200.000	-0.050	-0.437
-531.091	285.843	0.096	-0.172
-530.077	-11.340	0.190	-0.124
-529.062	15.096	-0.227	0.177
-528.048	-200.000	0.038	0.190
-527.033	-118.804	-0.164	0.029
-526.018	34.341	0.151	0.131
-525.004	-24.841	-0.080	-0.047
-523.989	-64.566	0.121	0.049
-522.975	-200.000	0.041	0.271
-521.960	3.666	-0.040	-0.029
-520.945	-200.000	0.050	0.285
-519.931	291.904	-0.213	-0.385
-518.916	-139.721	0.229	-0.024
-517.902	22.630	-0.074	0.060
-516.887	-175.631	0.169	0.005
-515.872	-129.936	0.453	-0.062
-514.858	800.000	-0.030	0.125
-513.843	-200.000	0.036	-0.321
-512.829	-200.000	-0.008	0.162
-511.814	-82.545	-0.149	0.048
-510.799	-154.523	0.053	0.003
-509.785	37.257	0.050	-0.044
-508.770	98.633	-0.098	-0.113
-507.756	800.000	-0.059	-0.203
-506.741	-91.497	-0.094	-0.027
-505.726	-200.000	-0.008	0.115
-504.712	800.000	-0.043	-0.168
-503.697	-4.558	0.157	0.107
-502.683	-22.601	0.250	0.150
-501.668	61.134	-0.126	0.124
-500.653	-200.000	0.023	-0.330
-499.639	536.934	0.104	0.245
-498.624	217.125	-0.049	-0.077
-497.610	-200.000	-0.062	-0.398
-496.595	-200.000	-0.008	-0.074
-495.581	67.942	-0.169	-0.172
-494.566	-200.000	-0.005	-0.191
-493.551	35.019	0.066	-0.057
-492.537	-60.311	-0.182	-0.077
-491.522	32.905	0.261	0.224
-490.508	45.031	-0.109	0.099
-489.493	-75.790	0.061	-0.021
-488.478	-200.000	0.072	-0.457
-487.464	-104.268	-0.500	-0.115
-486.449	-200.000	0.013	0.071
-485.435	23.086	0.166	-0.135
-484.420	-200.000	0.045	-0.296
-483.405	-129.598	-0.425	0.058
-482.391	-113.578	0.266	-0.051
-481.376	-35.114	-0.154	-0.083
-480.362	-97.260	0.472	-0.122
-479.347	72.918	0.023	0.024
-478.332	127.703	-0.070	-0.088
-477.318	-9.052	-0.275	-0.182
-476.303	349.930	-0.100	0.195
-475.289	-200.000	0.077	-0.398
-474.274	-200.000	-0.035	0.354
-473.259	-126.160	0.049	0.007
-472.245	-0.228	-0.241	0.170
-471.230	-160.143	-0.446	0.024
-470.216	118.069	0.160	0.195
-469.201	-200.000	0.036	-0.181
-468.186	21.082	-0.071	-0.057
-467.172	-85.736	-0.174	0.054
-466.157	-200.000	0.016	0.124
-465.143	800.000	-0.108	0.367
-464.128	-1.155	0.113	-0.079
-463.113	220.068	-0.104	0.164
-462.099	-107.971	0.281	-0.060
-461.084	349.896	-0.157	0.307
-460.070	389.235	0.101	-0.207
-459.055	673.577	0.070	-0.181
-458.040	158.546	-0.233	-0.319
-457.026	307.449	-0.262	-0.483
-456.011	153.203	-0.049	0.066
-454.997	-139.782	-0.216	0.023
-453.982	176.543	-0.090	0.129
-452.968	800.000	-0.116	-0.455
-451.953	-153.152	0.179	-0.012
-450.938	-155.904	-0.289	-0.018
-449.924	137.475	0.187	0.242
-448.909	-81.222	0.116	0.038
-447.895	-79.187	-0.117	-0.039
-446.880	50.141	0.240	0.224
-445.865	24.450	0.189	0.154
-444.851	145.538	-0.142	0.189
-443.836	-101.001	0.180	-0.044
-442.822	800.000	0.059	-0.168
-441.807	-60.654	-0.396	-0.166
-440.792	102.864	0.123	-0.143
-439.778	-145.032	0.093	-0.008
-438.763	-200.000	-0.004	0.184
-437.749	-189.757	-0.244	-0.003
-436.734	-85.010	0.209	-0.065
-435.719	202.029	0.206	0.314
-434.705	-63.050	-0.323	0.132
-433.690	-116.011	-0.089	-0.016
-432.676	193.318	-0.141	0.210
-431.661	-102.360	0.182	-0.043
-430.646	375.968	0.072	-0.144
-429.632	498.881	-0.183	-0.417
-428.617	63.970	-0.105	-0.104
-427.603	392.431	0.119	-0.245
-426.588	-84.044	-0.344	-0.108
-425.573	-57.705	0.079	-0.034
-424.559	340.371	0.133	0.257
-423.544	-173.789	-0.154	0.005
-422.530	-109.608	0.358	0.075
-421.515	-56.523	0.190	0.083
-420.500	800.000	0.109	-0.389
-419.486	68.239	-0.127	-0.129
-418.471	-121.942	-0.098	-0.016
-417.457	-103.839	-0.135	-0.031
-416.442	-72.130	0.075	0.027
-415.428	-155.397	-0.454	-0.029
-414.413	523.175	-0.074	-0.173
-413.398	-138.023	-0.445	-0.049
-412.384	200.331	0.208	0.316
-411.369	640.822	-0.118	0.297
-410.355	-200.000	0.014	0.198
-409.340	-50.936	-0.120	0.056
-408.325	6.624	-0.223	-0.164
-407.311	-32.795	-0.219	-0.120
-406.296	136.084	-0.257	0.331
-405.282	-42.328	0.235	0.119
-404.267	-200.000	0.024	-0.178
-403.252	207.466	0.111	-0.170
-402.238	-133.558	-0.157	-0.019
-401.223	800.000	0.088	-0.244
-400.209	-101.793	0.098	0.024
-399.194	-11.977	0.412	0.267
-398.179	-9.919	-0.084	0.055
-397.165	-200.000	-0.005	0.321
-396.150	800.000	-0.087	0.332
-395.136	-200.000	0.048	0.298
-394.121	-53.019	-0.256	0.116
-393.106	-41.517	-0.451	-0.229
-392.092	-200.000	0.010	0.116
-391.077	234.140	0.189	0.308
-390.063	-200.000	0.014	-0.123
-389.048	24.074	-0.294	0.240
-388.033	800.000	0.077	-0.304
-387.019	282.775	-0.067	0.118
-386.004	464.473	-0.119	0.262
-384.990	-132.324	-0.289	-0.037
-383.975	-200.000	-0.024	0.108
-382.960	-8.375	0.077	-0.051
-381.946	140.058	0.275	0.358
-380.931	-120.383	0.150	-0.025
-379.917	-89.807	0.319	-0.092
-378.902	-200.000	-0.063	-0.340
-377.888	427.200	-0.094	-0.199
-376.873	373.545	0.024	-0.048
-375.858	800.000	0.057	-0.200
-374.844	138.898	-0.058	-0.075
-373.829	45.035	-0.264	-0.240
-372.815	490.548	-0.050	-0.112
-371.800	101.418	0.165	0.189
-370.785	65.045	-0.193	0.193
-369.771	87.793	0.269	0.294
-368.756	513.365	-0.066	0.152
-367.742	-103.872	-0.103	0.024
-366.727	-200.000	0.012	0.107
-365.712	10.631	0.207	-0.156
-364.698	-104.705	-0.446	0.101
-363.683	30.616	-0.170	0.143
-362.669	-109.813	-0.172	0.036
-361.654	439.918	-0.127	-0.274
-360.639	125.998	0.037	0.046
-359.625	800.000	-0.028	0.088
-358.610	306.727	0.069	-0.127
-357.596	800.000	-0.035	-0.123
-356.581	800.000	0.178	0.498
-355.566	40.972	0.062	-0.055
-354.552	800.000	-0.151	-0.548
-353.537	-76.028	-0.059	0.020
-352.523	800.000	-0.038	-0.144
-351.508	-11.787	-0.390	0.252
-350.493	-200.000	-0.016	-0.119
-349.479	83.893	-0.080	0.086
-348.464	72.386	0.087	0.089
-347.450	-200.000	-0.024	0.149
-346.435	-75.084	0.253	-0.089
-345.420	128.017	-0.191	-0.239
-344.406	62.559	-0.103	-0.101
-343.391	70.585	0.283	-0.288
-342.377	-36.464	0.155	-0.082
-341.362	-58.924	-0.158	-0.067
-340.348	124.035	-0.108	0.133
-339.333	-90.091	-0.122	0.035
-338.318	134.752	0.282	0.360
-337.304	-53.275	0.268	0.121
-336.289	800.000	-0.039	-0.137
-335.275	401.948	-0.107	-0.222
-334.260	1.125	0.188	-0.133
-333.245	-200.000	-0.001	-0.309
-332.231	-148.982	-0.117	0.009
-331.216	-200.000	-0.006	-0.073
-330.202	647.347	0.101	-0.253
-329.187	26.657	-0.088	-0.073
-328.172	10.824	-0.183	0.138
-327.158	800.000	0.077	0.213
-326.143	-149.599	0.106	-0.008
-325.129	-72.497	0.223	0.081
-324.114	11.249	0.092	0.069
-323.099	247.868	0.129	-0.214
-322.085	-200.000	-0.034	-0.149
-321.070	70.933	-0.217	-0.221
-320.056	14.603	0.437	0.336
-319.041	-200.000	-0.005	0.131
-318.026	-200.000	-0.023	0.155
-317.012	-171.268	-0.070	0.002
-315.997	258.409	0.086	-0.146
-314.983	446.324	0.053	-0.114
-313.968	-191.186	-0.184	-0.002
-312.953	-200.000	-0.007	0.147
-311.939	7.792	0.416	0.306
-310.924	-178.611	0.200	0.005
-309.910	800.000	0.060	-0.167
-308.895	51.379	-0.276	0.258
-307.880	76.252	-0.178	0.186
-306.866	-40.114	0.199	-0.102
-305.851	39.002	0.027	-0.024
-304.837	-200.000	-0.016	-0.182
-303.822	-75.305	0.225	-0.079
-302.807	299.485	0.121	-0.220
-301.793	0.678	0.266	-0.187
-300.778	-84.090	-0.348	0.109
-299.764	-200.000	-0.130	-0.001
-298.749	-154.363	0.107	0.007
-297.735	-200.000	0.047	0.218
-296.720	54.360	0.022	-0.021
-295.705	-200.000	-0.027	0.350
-294.691	-200.000	-0.009	-0.042
-293.676	364.636	0.049	-0.096
-292.662	-141.846	-0.218	0.021
-291.647	-200.000	0.001	-0.140
-290.632	-21.635	0.234	0.140
-289.618	-141.586	-0.305	0.030
-288.603	-200.000	0.001	-0.050
-287.589	0.986	-0.379	-0.267
-286.574	800.000	-0.045	-0.154
-285.559	-84.730	0.125	0.039
-284.545	800.000	-0.141	-0.465
-283.530	800.000	-0.033	-0.118
-282.516	514.542	-0.250	0.574
-281.501	-31.428	-0.323	0.179
-280.486	272.774	-0.133	0.230
-279.472	-6.190	-0.153	0.103
-278.457	490.961	-0.079	0.177
-277.443	-139.036	0.119	-0.013
-276.428	131.831	0.189	0.239
-275.413	-51.818	-0.187	-0.085
-274.399	-181.740	0.129	-0.002
-273.384	-200.000	-0.018	0.297
-272.370	-200.000	0.086	-0.561
-271.355	800.000	0.035	-0.121
-270.340	189.523	-0.031	0.045
-269.326	108.839	-0.201	0.236
-268.311	-200.000	0.029	-0.450
-267.297	-200.000	0.029	-0.238
-266.282	492.058	0.065	0.146
-265.267	-17.378	0.365	-0.225
-264.253	-29.758	0.187	-0.105
-263.238	-121.383	0.130	0.021
-262.224	-200.000	0.019	0.365
-261.209	-200.000	-0.047	0.371
-260.195	-89.928	-0.114	-0.033
-259.180	-95.120	-0.043	0.011
-258.165	-39.068	-0.109	0.056
-257.151	800.000	-0.034	-0.100
-256.136	168.391	-0.082	0.115
-255.122	800.000	-0.093	0.304
-254.107	-182.084	-0.117	0.002
-253.092	-200.000	-0.006	-0.062
-252.078	800.000	0.083	-0.233
-251.063	-200.000	-0.065	-0.402
-250.049	-97.547	0.127	-0.032
-249.034	2.110	-0.128	0.091
-248.019	-98.097	-0.101	-0.025
-247.005	77.320	0.179	-0.187
-245.990	-13.057	0.109	0.070
-244.976	70.459	-0.176	-0.179
-243.961	-54.345	0.254	-0.113
-242.946	-115.233	0.216	-0.040
-241.932	-200.000	-0.024	0.154
-240.917	11.100	-0.343	0.257
-239.903	-31.080	0.381	0.211
-238.888	-200.000	-0.069	0.334
-237.873	-200.000	-0.012	-0.275
-236.859	-64.889	0.172	-0.068
-235.844	-54.693	0.191	-0.085
-234.830	126.647	-0.069	-0.085
-233.815	-161.737	0.162	-0.008
-232.800	222.573	0.117	0.185
-231.786	187.861	0.080	-0.117
-230.771	76.486	-0.084	-0.087
-229.757	-44.739	0.185	-0.091
-228.742	-200.000	0.271	0.001
-227.727	800.000	0.060	-0.231
-226.713	-200.000	-0.025	-0.251
-225.698	-152.560	0.280	0.020
-224.684	78.859	-0.250	0.263
-223.669	-124.562	0.183	0.028
-222.655	-130.088	0.183	0.025
-221.640	800.000	0.059	0.242
-220.625	51.125	0.142	-0.133
-219.611	-57.828	-0.052	0.022
-218.596	205.841	0.124	-0.189
-217.582	-42.989	0.093	-0.046
-216.567	-49.689	-0.115	0.054
-215.552	-41.689	-0.222	-0.112
-214.538	-73.323	0.074	0.026
-213.523	-49.116	0.108	-0.051
-212.509	800.000	-0.010	0.039
-211.494	504.622	-0.084	-0.190
-210.479	8.955	-0.089	0.066
-209.465	800.000	0.071	-0.218
-208.450	-200.000	-0.000	-0.059
-207.436	-200.000	-0.029	0.341
-206.421	-7.484	-0.140	-0.093
-205.406	-92.778	-0.063	-0.017
-204.392	-39.616	-0.200	0.103
-203.377	-49.431	-0.167	0.078
-202.363	800.000	0.039	0.126
-201.348	154.301	-0.051	0.068
-200.333	-140.502	0.092	0.009
-199.319	-153.680	0.243	-0.016
-198.304	800.000	-0.019	0.051
-197.290	-200.000	0.000	0.112
-196.275	800.000	0.050	-0.174
-195.260	-145.085	-0.193	0.017
-194.246	-200.000	0.018	0.098
-193.231	309.123	0.121	-0.221
-192.217	-109.301	-0.294	-0.061
-191.202	-33.720	-0.260	0.140
-190.187	-200.000	0.043	0.365
-189.173	344.919	0.025	0.047
-188.158	800.000	-0.057	-0.173
-187.144	143.098	0.125	0.163
-186.129	744.594	-0.092	0.243
-185.114	800.000	-0.008	0.027
-184.100	373.803	-0.056	-0.112
-183.085	-71.998	0.171	-0.062
-182.071	800.000	0.112	-0.310
-181.056	473.848	0.081	0.179
-180.042	-200.000	-0.026	0.164
-179.027	-133.839	-0.117	0.014
-178.012	19.855	0.405	-0.320
-176.998	-102.521	0.175	-0.041
-175.983	142.844	0.080	-0.104
-174.969	-66.582	0.112	0.044
-173.954	253.812	0.009	-0.014
-172.939	730.837	-0.159	0.416
-171.925	-62.890	0.217	-0.088
-170.910	-200.000	0.023	0.260
-169.896	-69.200	-0.052	-0.020
-168.881	-127.068	0.174	0.025
-167.866	96.621	-0.231	-0.259
-166.852	8.487	-0.284	0.209
-165.837	44.422	-0.149	0.134
-164.823	-27.422	-0.351	0.200
-163.808	-200.000	0.032	-0.191
-162.793	-137.713	-0.248	-0.027
-161.779	140.326	-0.158	0.204
-160.764	-121.061	0.057	0.009
-159.750	116.268	0.062	0.074
-158.735	-200.000	0.016	-0.104
-157.720	-200.000	0.040	0.347
-156.706	-76.886	0.273	0.093
-155.691	800.000	-0.092	0.375
-154.677	-67.146	-0.116	-0.045
-153.662	722.966	-0.023	0.061
-152.647	181.608	-0.045	0.065
-151.633	800.000	-0.045	-0.192
-150.618	41.110	0.026	0.023
-149.604	194.669	0.177	-0.262
-148.589	-200.000	0.039	0.266
-147.574	-200.000	-0.020	-0.098
-146.560	-116.656	0.234	0.042
-145.545	30.256	-0.230	-0.192
-144.531	-200.000	-0.028	0.139
-143.516	-87.328	-0.170	-0.050
-142.502	-200.000	-0.005	-0.059
-141.487	251.736	-0.036	0.060
-140.472	42.188	-0.088	-0.078
-139.458	662.643	-0.025	0.062
-138.443	-200.000	0.480	0.000
-137.429	123.256	0.179	-0.219
-136.414	800.000	0.047	0.136
-135.399	-161.843	-0.280	-0.014
-134.385	-103.048	-0.152	0.035
-133.370	67.641	0.259	-0.259
-132.356	763.851	-0.029	-0.076
-131.341	24.224	-0.084	-0.068
-130.326	132.066	-0.300	-0.377
-129.312	-31.789	0.157	0.086
-128.297	-139.073	-0.072	-0.008
-127.283	19.767	0.237	-0.187
-126.268	800.000	-0.019	0.069
-125.253	-103.528	-0.048	0.011
-124.239	181.976	-0.058	-0.084
-123.224	-200.000	-0.053	0.256
-122.210	214.515	-0.132	0.205
-121.195	19.719	0.159	0.125
-120.180	244.934	0.176	0.289
-119.166	-55.732	0.176	0.077
-118.151	132.462	0.157	-0.197
-117.137	-200.000	0.017	-0.392
-116.122	6.239	0.131	-0.095
-115.107	-35.141	-0.032	-0.017
-114.093	264.375	-0.185	0.314
-113.078	250.675	0.085	0.142
-112.064	-20.168	-0.202	0.122
-111.049	-200.000	-0.048	-0.332
-110.034	800.000	0.074	-0.204
-109.020	449.391	-0.099	0.214
-108.005	-87.219	-0.163	0.048
-106.991	310.995	-0.042	-0.078
-105.976	167.491	-0.095	-0.132
-104.962	800.000	0.090	0.253
-103.947	98.797	-0.036	-0.041
-102.932	-200.000	0.007	0.335
-101.918	-200.000	0.045	-0.221
-100.903	173.840	0.216	0.304
-99.889	800.000	0.070	0.290
-98.874	-55.783	0.339	-0.148
-97.859	800.000	-0.062	-0.170
-96.845	43.257	0.153	-0.136
-95.830	-124.761	-0.210	-0.032
-94.816	35.184	-0.357	0.305
-93.801	-200.000	0.014	0.076
-92.786	-200.000	-0.031	-0.193
-91.772	321.448	0.090	-0.168
-90.757	17.919	0.469	-0.364
-89.743	-200.000	-0.010	-0.222
-88.728	368.039	-0.062	0.122
-87.713	-17.158	0.284	-0.175
-86.699	118.857	-0.096	0.116
-85.684	-200.000	0.005	0.052
-84.670	-200.000	0.027	-0.223
-83.655	-24.263	-0.320	-0.186
-82.640	54.268	0.148	-0.139
-81.626	-200.000	-0.051	-0.347
-80.611	-68.363	-0.277	0.105
-79.597	275.549	-0.087	0.151
-78.582	31.694	-0.169	-0.142
-77.567	-126.383	0.113	-0.016
-76.553	-125.398	-0.083	-0.012
-75.538	-39.875	0.212	0.108
-74.524	95.164	0.140	-0.155
-73.509	-64.842	-0.275	-0.108
-72.494	-176.370	-0.126	0.003
-71.480	583.419	-0.091	0.219
-70.465	-148.733	0.258	0.020
-69.451	738.056	-0.054	-0.141
-68.436	704.884	-0.117	0.302
-67.422	-3.192	0.233	0.158
-66.407	-92.158	0.212	-0.058
-65.392	-35.858	-0.300	-0.158
-64.378	238.726	-0.064	0.104
-63.363	92.062	-0.140	-0.154
-62.349	800.000	0.079	0.288
-61.334	31.088	-0.995	-0.832
-60.319	315.410	0.479	0.880
-59.305	800.000	-0.410	-1.698
-58.290	306.597	0.854	1.550
-57.276	452.582	0.620	1.336
-56.261	-200.000	121.826	644.060
-55.246	440.300	1528.859	3255.023
-54.232	149.973	2674.375	3532.908
-53.217	97.560	2154.260	2410.908
-52.203	34.358	1682.557	1430.059
-51.188	27.309	1500.698	1228.058
-50.173	25.229	1477.457	1195.148
-49.159	48.130	1548.279	1410.008
-48.144	46.011	1561.106	1407.130
-47.130	27.119	1510.787	1234.824
-46.115	24.302	1494.945	1202.852
-45.100	24.063	1492.220	1199.003
-44.086	24.055	1489.732	1196.904
-43.071	24.072	1488.134	1195.687
-42.057	24.063	1485.966	1193.840
-41.042	24.043	1484.651	1192.601
-40.027	24.108	1482.884	1191.566
-39.013	23.976	1481.592	1189.602
-37.998	23.972	1480.494	1188.646
-36.984	23.990	1479.450	1187.876
-35.969	24.005	1477.924	1186.708
-34.954	24.047	1476.185	1185.545
-33.940	24.018	1474.948	1184.307
-32.925	24.086	1473.461	1183.521
-31.911	24.082	1472.366	1182.568
-30.896	23.999	1471.529	1181.299
-29.881	24.150	1469.705	1180.787
-28.867	24.130	1468.935	1179.987
-27.852	24.157	1466.941	1178.517
-26.838	24.113	1465.595	1177.098
-25.823	24.046	1464.747	1175.929
-24.809	24.115	1462.725	1174.715
-23.794	24.116	1461.274	1173.509
-22.779	24.088	1460.308	1172.503
-21.765	24.128	1459.136	1171.777
-20.750	24.167	1458.321	1171.336
-19.736	24.124	1457.143	1170.058
-18.721	24.141	1456.087	1169.275
-17.706	24.049	1455.026	1167.776
-16.692	24.172	1454.388	1168.021
-15.677	24.008	1453.559	1166.233
-14.663	24.017	1452.518	1165.414
-13.648	24.053	1451.173	1164.522
-12.633	24.106	1450.322	1164.141
-11.619	24.002	1449.434	1162.704
-10.604	24.055	1448.399	1162.170
-9.590	24.036	1447.747	1161.478
-8.575	24.061	1446.867	1160.890
-7.560	24.022	1445.764	1159.702
-6.546	23.980	1444.875	1158.670
-5.531	24.134	1444.041	1158.960
-4.517	24.101	1443.171	1158.001
-3.502	24.021	1442.377	1156.797
-2.487	23.994	1441.308	1155.720
-1.473	24.072	1440.298	1155.368
-0.458	24.120	1438.949	1154.552
0.556	22.418	1429.004	1142.574
1.571	19.122	1404.858	1102.102
2.586	15.695	1343.593	1032.931
3.600	13.946	1262.187	960.163
4.615	12.963	1219.310	921.970
5.629	11.353	1162.988	870.715
6.644	5.577	1083.194	782.118
7.659	1.009	1046.944	733.783
8.673	0.299	1041.458	726.452
9.688	0.157	1038.424	723.592
10.702	0.020	1037.174	721.995
11.717	0.205	1034.638	721.052
12.731	2.086	1035.871	730.859
13.746	8.300	1044.316	766.672
14.761	14.507	1052.219	802.355
15.775	16.580	1054.488	814.002
16.790	16.401	1052.903	811.845
17.804	15.337	1051.078	805.259
18.819	14.616	1049.111	800.225
19.834	14.135	1047.877	796.908
20.848	13.997	1046.824	795.380
21.863	13.740	1046.107	793.532
22.877	13.605	1045.076	792.038
23.892	13.299	1044.439	790.021
24.907	13.150	1043.468	788.507
25.921	13.122	1043.005	787.950
26.936	13.301	1042.161	788.099
27.950	13.264	1041.436	787.306
28.965	13.271	1040.804	786.791
29.980	13.329	1039.958	786.358
30.994	13.412	1039.057	786.000
32.009	13.434	1038.367	785.511
33.023	13.497	1037.391	785.005
34.038	13.353	1036.870	783.860
35.053	13.571	1035.791	784.004
36.067	13.410	1034.904	782.504
37.082	13.301	1034.220	781.399
38.096	13.361	1033.431	781.019
39.111	13.370	1032.826	780.535
40.126	13.426	1031.949	780.068
41.140	13.285	1031.003	778.617
42.155	13.339	1029.374	777.573
43.169	13.296	1029.260	777.218
44.184	13.180	1028.159	775.771
45.199	13.138	1027.186	774.772
46.213	13.346	1025.582	774.468
47.228	13.239	1024.664	773.207
48.242	13.208	1023.950	772.455
49.257	13.237	1023.257	772.000
50.271	13.318	1022.036	771.386
51.286	13.266	1021.520	770.686
52.301	13.370	1020.494	770.329
53.315	13.324	1019.732	769.471
54.330	13.296	1019.359	768.992
55.344	13.366	1017.338	767.726
56.359	13.315	1016.871	767.065
57.374	13.246	1015.769	765.847
58.388	13.197	1015.624	765.443
59.403	13.303	1014.312	764.879
60.417	13.216	1013.509	763.801
61.432	13.292	1012.611	763.408
62.447	13.234	1011.918	762.554
63.461	13.236	1011.240	761.982
64.476	13.128	1010.246	760.670
65.490	13.184	1009.543	760.329
66.505	13.100	1009.216	759.630
67.520	13.144	1008.435	759.178
68.534	13.220	1007.670	758.881
69.549	13.240	1006.730	758.199
70.563	13.218	1005.705	757.259
71.578	13.257	1005.243	757.025
72.593	13.254	1004.399	756.305
73.607	13.149	1003.509	755.089
74.622	13.079	1002.905	754.251
75.636	13.118	1001.765	753.504
76.651	13.132	1001.194	753.070
77.666	13.082	1000.781	752.466
78.680	13.108	999.588	751.620
79.695	13.199	999.344	751.782
80.709	13.113	998.518	750.705
81.724	13.253	997.323	750.375
82.739	13.155	996.796	749.468
83.753	13.170	996.162	748.991
84.768	13.268	995.693	749.018
85.782	13.412	994.710	748.864
86.797	13.394	993.757	747.998
87.812	13.399	993.002	747.389
88.826	13.323	992.140	746.330
89.841	13.271	991.524	745.567
90.855	13.207	991.152	744.933
91.870	13.394	989.905	744.771
92.884	13.418	989.263	744.330
93.899	13.364	988.770	743.651
94.914	13.472	987.710	743.272
95.928	13.528	986.636	742.649
96.943	13.661	985.942	742.656
97.957	13.302	985.636	740.752
98.972	13.549	984.455	740.903
99.987	13.462	983.977	740.090
101.001	13.467	983.158	739.430
102.016	13.383	982.828	738.742
103.030	13.341	981.909	737.798
104.045	13.318	981.202	737.100
105.060	13.496	979.583	736.610
106.074	13.297	978.914	735.156
107.089	13.444	977.755	734.875
108.103	13.339	977.086	733.842
109.118	13.179	976.465	732.600
110.133	13.187	975.387	731.764
111.147	13.290	974.678	731.622
112.162	13.264	973.893	730.852
113.176	13.224	973.200	730.092
114.191	13.244	972.121	729.306
115.206	13.283	971.225	728.740
116.220	13.482	970.423	728.948
117.235	13.385	969.214	727.553
118.249	13.337	968.914	727.050
119.264	13.427	967.360	726.216
120.279	13.302	967.517	725.721
121.293	13.352	966.234	724.912
122.308	13.236	965.975	724.145
123.322	13.280	964.598	723.240
124.337	13.257	963.905	722.558
125.352	13.286	962.311	721.427
126.366	13.229	961.377	720.414
127.381	13.223	960.259	719.485
128.395	13.284	959.519	719.132
129.410	13.277	958.044	717.935
130.424	13.396	957.333	717.855
131.439	13.384	956.504	717.118
132.454	13.354	956.139	716.650
133.468	13.135	955.644	715.266
134.483	13.307	954.535	715.118
135.497	13.289	953.705	714.355
136.512	13.241	952.981	713.543
137.527	13.319	952.422	713.398
138.541	13.333	950.919	712.268
139.556	13.340	950.445	711.879
140.570	13.323	950.354	711.674
141.585	13.405	949.192	711.096
142.600	13.488	948.540	710.902
143.614	13.431	947.870	710.090
144.629	13.756	946.343	710.275
145.643	13.599	946.202	709.435
146.658	13.594	945.236	708.625
147.673	13.420	944.873	707.547
148.687	13.613	943.314	707.139
149.702	13.483	942.655	706.028
150.716	13.322	942.364	705.065
151.731	13.443	940.645	704.230
152.746	13.468	940.249	703.976
153.760	13.470	939.425	703.306
154.775	13.452	939.060	702.893
155.789	13.603	937.704	702.458
156.804	13.483	937.407	701.666
157.819	13.636	936.469	701.547
158.833	13.551	936.030	700.795
159.848	13.611	935.318	700.455
160.862	13.617	934.596	699.877
161.877	13.774	933.551	699.697
162.892	13.536	933.371	698.494
163.906	13.555	932.343	697.746
164.921	13.481	931.551	696.781
165.935	13.523	930.402	696.034
166.950	13.579	929.435	695.485
167.964	13.632	928.528	694.967
168.979	13.684	927.672	694.481
169.994	13.606	926.620	693.308
171.008	13.676	925.693	692.844
172.023	13.720	925.005	692.453
173.037	13.755	924.283	691.998
174.052	13.827	923.437	691.602
175.067	13.749	922.952	690.851
176.081	13.689	922.348	690.091
177.096	13.800	921.136	689.584
178.110	13.691	920.477	688.578
179.125	13.797	919.764	688.422
180.140	13.723	919.150	687.595
181.154	13.732	918.706	687.237
182.169	13.797	917.652	686.659
183.183	13.814	917.127	686.276
184.198	13.876	916.308	685.856
185.213	13.798	915.641	684.978
186.227	13.969	914.917	685.080
187.242	13.994	914.738	684.986
188.256	13.921	914.248	684.260
189.271	13.910	913.460	683.562
190.286	14.003	912.463	683.139
191.300	13.731	911.794	681.461
192.315	13.796	910.977	681.057
193.329	13.687	910.485	680.181
194.344	13.710	909.790	679.697
195.359	13.819	909.188	679.633
196.373	13.874	908.549	679.318
197.388	13.903	908.151	679.080
198.402	13.934	907.779	678.869
199.417	14.162	907.324	679.400
200.432	14.097	906.524	678.477
201.446	14.126	905.961	678.114
202.461	14.129	905.536	677.745
203.475	14.126	905.518	677.662
204.490	14.311	904.657	677.708
205.504	14.196	903.844	676.571
206.519	14.221	902.664	675.732
207.534	14.219	902.233	675.342
208.548	14.265	901.157	674.662
209.563	14.201	900.638	673.952
210.577	14.186	900.218	673.522
211.592	14.102	899.716	672.747
212.607	14.327	898.714	672.847
213.621	14.226	898.330	672.092
214.636	14.246	897.938	671.817
215.650	14.276	897.145	671.287
216.665	14.330	896.220	670.752
217.680	14.282	896.202	670.487
218.694	14.363	895.648	670.338
219.709	14.396	895.052	669.966
220.723	14.428	894.356	669.515
221.738	14.483	893.161	668.782
222.753	14.491	892.663	668.382
223.767	14.294	892.113	667.120
224.782	14.405	891.485	667.036
225.796	14.495	890.482	666.585
226.811	14.487	890.003	666.136
227.826	14.518	889.216	665.611
228.840	14.443	888.554	664.759
229.855	14.410	888.264	664.353
230.869	14.559	887.050	663.977
231.884	14.369	886.899	663.050
232.899	14.457	886.057	662.714
233.913	14.522	885.323	662.364
234.928	14.362	884.691	661.195
235.942	14.476	884.307	661.302
236.957	14.531	883.310	660.717
237.972	14.426	882.497	659.633
238.986	14.536	881.910	659.574
240.001	14.502	881.228	658.869
241.015	14.558	880.668	658.613
242.030	14.521	880.321	658.149
243.045	14.502	879.781	657.614
244.059	14.626	878.911	657.393
245.074	14.686	878.173	657.020
246.088	14.659	877.863	656.623
247.103	14.641	877.459	656.194
248.117	14.725	876.449	655.708
249.132	14.811	876.065	655.700
250.147	14.891	875.057	655.203
251.161	14.809	874.695	654.551
252.176	14.839	874.110	654.173
253.190	14.946	873.386	653.991
254.205	14.923	872.801	653.405
255.220	14.936	872.169	652.925
256.234	14.903	871.646	652.347
257.249	14.847	871.228	651.759
258.263	15.088	870.246	651.906
259.278	15.039	869.825	651.341
260.293	15.063	869.264	650.959
261.307	15.057	868.832	650.553
262.322	14.997	868.382	649.925
263.336	15.264	867.328	650.115
264.351	15.213	866.915	649.551
265.366	15.165	866.349	648.880
266.380	15.253	865.606	648.611
267.395	15.250	864.731	647.883
268.409	15.176	864.049	647.031
269.424	15.293	863.519	647.026
270.439	15.171	863.121	646.202
271.453	15.204	862.199	645.582
272.468	15.271	861.231	645.059
273.482	15.106	860.727	643.989
274.497	15.054	860.793	643.779
275.512	15.346	859.066	643.551
276.526	15.251	858.734	642.884
277.541	15.335	858.049	642.635
278.555	15.344	857.526	642.221
279.570	15.369	857.090	641.934
280.585	15.255	857.111	641.453
281.599	15.511	855.680	641.305
282.614	15.472	855.145	640.700
283.628	15.393	854.783	640.069
284.643	15.366	854.703	639.849
285.657	15.451	853.734	639.391
286.672	15.517	853.235	639.211
287.687	15.411	852.810	638.434
288.701	15.456	852.566	638.367
289.716	15.543	851.698	637.989
290.730	15.469	850.921	637.071
291.745	15.435	850.744	636.754
292.760	15.525	849.686	636.246
293.774	15.546	849.180	635.890
294.789	15.786	848.379	636.142
295.803	15.684	847.929	635.365
296.818	15.739	847.426	635.136
297.833	15.535	847.045	634.027
298.847	15.541	846.588	633.651
299.862	15.667	845.530	633.278
300.876	15.736	844.613	632.792
301.891	15.601	844.022	631.788
302.906	15.667	843.598	631.663
303.920	15.882	842.860	631.859
304.935	15.755	842.541	631.090
305.949	15.880	841.634	630.823
306.964	15.804	841.223	630.175
307.979	15.794	840.559	629.583
308.993	15.779	840.103	629.129
310.008	15.865	839.663	629.065
311.022	15.735	839.235	628.205
312.037	15.906	838.693	628.382
313.052	15.938	837.988	627.915
314.066	15.874	837.179	627.017
315.081	15.899	836.794	626.765
316.095	15.842	836.198	626.053
317.110	15.956	835.731	626.070
318.125	15.896	835.495	625.616
319.139	15.897	835.185	625.333
320.154	15.836	834.500	624.538
321.168	15.799	833.799	623.819
322.183	15.959	833.032	623.783
323.197	15.972	832.785	623.593
324.212	15.997	832.106	623.119
325.227	16.014	831.291	622.518
326.241	15.947	830.838	621.876
327.256	16.018	830.719	621.993
328.270	16.045	830.043	621.534
329.285	15.988	829.396	620.781
330.300	16.084	828.644	620.519
331.314	15.919	828.357	619.643
332.329	16.083	827.503	619.552
333.343	16.019	827.064	618.932
334.358	16.111	826.712	618.952
335.373	16.138	825.724	618.257
336.387	16.158	825.529	618.128
337.402	16.280	824.749	617.936
338.416	16.359	823.753	617.424
339.431	16.138	823.873	616.653
340.446	16.291	823.044	616.535
341.460	16.416	822.379	616.440
342.475	16.231	822.383	615.713
343.489	16.412	821.418	615.594
344.504	16.507	820.940	615.529
345.519	16.419	820.618	614.911
346.533	16.591	819.919	614.961
347.548	16.363	819.698	613.908
348.562	16.350	819.049	613.322
349.577	16.519	818.678	613.606
350.592	16.501	817.948	612.937
351.606	16.458	817.495	612.387
352.621	16.321	817.361	611.737
353.635	16.387	816.421	611.219
354.650	16.505	816.135	611.378
355.665	16.471	815.798	610.948
356.679	16.471	815.389	610.588
357.694	16.370	814.773	609.709
358.708	16.532	814.223	609.826
359.723	16.580	813.816	609.639
360.738	16.510	813.059	608.767
361.752	16.454	813.112	608.553
362.767	16.472	812.664	608.225
363.781	16.507	811.981	607.788
364.796	16.752	811.220	608.043
365.810	16.635	811.166	607.529
366.825	16.711	810.619	607.338
367.840	16.843	810.139	607.397
368.854	16.794	809.650	606.803
369.869	16.733	809.392	606.339
370.883	16.654	808.649	605.444
371.898	16.722	808.237	605.326
372.913	16.808	807.686	605.166
373.927	16.790	806.960	604.504
374.942	16.793	806.706	604.274
375.956	16.892	805.689	603.810
376.971	16.911	804.986	603.296
377.986	17.065	804.250	603.237
379.000	17.170	803.836	603.246
380.015	16.898	803.723	602.145
381.029	17.028	802.970	601.989
382.044	17.058	802.484	601.678
383.059	17.007	802.044	601.113
384.073	17.035	801.829	600.998
385.088	17.027	801.040	600.324
386.102	17.073	800.342	599.911
387.117	16.872	800.002	598.894
388.132	16.849	799.715	598.543
389.146	16.995	799.351	598.733
390.161	16.949	798.917	598.195
391.175	17.046	798.520	598.185
392.190	17.035	798.144	597.811
393.205	17.004	797.861	597.437
394.219	17.223	797.265	597.709
395.234	17.069	796.773	596.746
396.248	17.027	796.595	596.413
397.263	16.959	795.798	595.524
398.278	17.002	795.527	595.421
399.292	17.160	794.788	595.367
400.307	17.098	794.736	595.060
401.321	17.068	793.892	594.269
402.336	17.089	793.573	594.051
403.350	17.175	792.907	593.802
404.365	17.120	792.935	593.578
405.380	17.217	792.469	593.513
406.394	17.285	791.579	593.032
407.409	17.372	791.511	593.233
408.423	17.368	790.838	592.660
409.438	17.432	790.224	592.371
410.453	17.439	790.086	592.239
411.467	17.521	789.636	592.136
412.482	17.384	789.038	591.159
413.496	17.455	788.708	591.106
414.511	17.479	788.398	590.905
415.526	17.579	788.102	590.977
416.540	17.515	787.635	590.354
417.555	17.619	787.210	590.344
418.569	17.630	786.747	589.983
419.584	17.506	786.012	588.948
420.599	17.484	785.718	588.601
421.613	113.735	1297.059	1485.762
422.628	97.636	1371.545	1485.850
