DTS Sentinel unit serial number:	SN413079Multiplexer serial number:	ORYXHardware model number:	OX4-SRSoftware version number:	ORYX F/W v4.00 Oryx Data Collector v3.7.2.0data status	okinstallation	princeton_trtdifferential loss correction	single-endedforward channel	channel 3reverse channel	N/Adate	2019/09/18time	22:40:35forward acquisition time	60.00reverse acquisition time	0.00gamma	496.2192k internal	0.2345k external	0.2345temperature offset calibration	0.9991default loss term (dB/km)	0.3790temperature slope calibration	1.0000multiplexer offset coefficient	1.0000multiplexer slope coefficient	1.0000fibre end	0.00T internal ref (°C)	24.12T ext. ref 1 (°C)	0.79T ext. ref 2 (°C)	17.98length (m)	temperature (°C)	Stokes	anti-Stokes-747.200	271.230	0.053	0.094
-746.185	-200.000	0.024	0.216
-745.171	-92.609	0.305	0.086
-744.156	119.671	0.114	-0.141
-743.142	-169.419	0.358	0.013
-742.127	-3.252	-0.271	0.189
-741.112	188.660	0.239	0.357
-740.098	104.895	0.076	0.090
-739.083	-166.361	0.082	0.003
-738.069	334.664	-0.104	-0.201
-737.054	800.000	0.118	0.400
-736.039	-178.256	-0.143	0.003
-735.025	225.795	0.211	0.342
-734.010	-13.687	-0.363	-0.235
-732.996	-137.032	-0.317	0.036
-731.981	-200.000	0.048	-0.473
-730.966	405.604	-0.148	0.313
-729.952	-200.000	-0.030	-0.240
-728.937	-59.548	-0.082	0.035
-727.923	-123.265	-0.252	0.040
-726.908	-145.436	-0.105	-0.009
-725.894	60.488	0.222	-0.220
-724.879	-197.368	-0.487	-0.003
-723.864	421.347	-0.114	-0.245
-722.850	-200.000	-0.001	-0.152
-721.835	-115.326	0.136	0.026
-720.821	800.000	-0.065	-0.209
-719.806	-200.000	0.015	-0.208
-718.791	-106.358	-0.264	0.059
-717.777	-10.287	0.132	-0.087
-716.762	705.729	0.036	-0.095
-715.748	399.692	0.031	-0.065
-714.733	800.000	0.104	-0.311
-713.718	1.665	-0.279	0.201
-712.704	-200.000	-0.044	-0.251
-711.689	314.049	-0.078	0.147
-710.675	-27.234	0.121	0.070
-709.660	110.931	-0.161	-0.193
-708.645	-82.107	-0.553	0.180
-707.631	-94.390	0.355	-0.097
-706.616	423.407	-0.061	-0.131
-705.602	-163.304	-0.212	-0.010
-704.587	800.000	0.055	-0.155
-703.572	-200.000	-0.545	0.003
-702.558	-200.000	0.043	-0.299
-701.543	9.565	0.294	-0.223
-700.529	528.412	0.062	0.146
-699.514	-10.465	0.187	-0.124
-698.499	-75.250	-0.264	-0.094
-697.485	-200.000	-0.006	0.076
-696.470	-52.608	0.142	0.065
-695.456	91.511	0.265	-0.297
-694.441	-200.000	0.003	-0.333
-693.426	217.713	-0.061	0.098
-692.412	-78.354	0.222	0.076
-691.397	-82.016	0.125	-0.041
-690.383	682.687	-0.132	-0.343
-689.368	93.698	-0.155	0.175
-688.354	298.274	0.083	-0.153
-687.339	-97.929	-0.125	0.032
-686.324	-141.366	-0.117	-0.012
-685.310	11.598	-0.212	-0.163
-684.295	-102.542	0.233	-0.056
-683.281	-97.274	-0.207	0.054
-682.266	-98.259	0.224	-0.057
-681.251	-146.406	-0.145	-0.013
-680.237	-200.000	0.017	-0.166
-679.222	-36.759	-0.023	-0.012
-678.208	800.000	0.082	-0.250
-677.193	-50.547	0.296	-0.139
-676.178	-47.825	-0.224	0.109
-675.164	-21.061	-0.131	-0.080
-674.149	144.607	0.295	-0.394
-673.135	800.000	-0.094	0.313
-672.120	-200.000	-0.010	0.171
-671.105	75.754	-0.112	0.118
-670.091	-200.000	-0.019	0.167
-669.076	-200.000	0.037	-0.501
-668.062	79.577	0.199	-0.213
-667.047	524.963	0.047	0.111
-666.032	-18.294	0.110	0.069
-665.018	-53.537	-0.251	-0.114
-664.003	-200.000	0.031	-0.438
-662.989	-111.075	0.044	-0.009
-661.974	-200.000	-0.014	0.130
-660.959	113.050	-0.121	0.147
-659.945	303.310	-0.104	-0.191
-658.930	646.042	-0.071	-0.180
-657.916	-165.934	0.485	-0.021
-656.901	-200.000	0.015	-0.179
-655.886	14.233	0.109	-0.085
-654.872	12.984	0.220	0.170
-653.857	-188.469	-0.186	-0.002
-652.843	30.573	-0.302	0.258
-651.828	-113.062	-0.310	-0.061
-650.814	800.000	-0.097	0.346
-649.799	-107.102	0.167	0.037
-648.784	28.168	-0.143	-0.121
-647.770	-200.000	-0.035	0.277
-646.755	90.534	-0.118	0.131
-645.741	-44.556	-0.182	0.091
-644.726	-14.829	0.214	0.137
-643.711	73.062	0.165	0.172
-642.697	-162.248	0.184	0.009
-641.682	84.913	-0.086	-0.094
-640.668	-178.253	-0.275	-0.006
-639.653	117.682	-0.107	0.131
-638.638	-200.000	0.001	0.162
-637.624	-98.882	-0.204	-0.052
-636.609	-200.000	0.033	-0.173
-635.595	8.550	0.224	-0.168
-634.580	-143.069	0.150	-0.014
-633.565	83.169	-0.414	0.449
-632.551	132.901	0.126	-0.161
-631.536	393.222	-0.145	0.301
-630.522	-200.000	0.018	0.192
-629.507	-13.924	-0.064	0.041
-628.492	346.268	0.120	-0.235
-627.478	800.000	0.116	0.351
-626.463	-67.522	0.360	0.141
-625.449	163.382	-0.141	0.198
-624.434	-1.708	0.274	0.192
-623.419	272.773	-0.079	-0.139
-622.405	57.519	-0.336	-0.326
-621.390	-85.486	-0.087	-0.027
-620.376	95.561	-0.129	0.146
-619.361	315.949	0.056	0.105
-618.346	8.015	-0.211	0.158
-617.332	51.714	0.035	0.033
-616.317	-93.724	0.100	-0.028
-615.303	109.040	-0.077	-0.091
-614.288	11.160	0.247	-0.188
-613.273	-200.000	-0.032	-0.323
-612.259	383.675	-0.143	-0.293
-611.244	-29.301	0.179	0.102
-610.230	9.835	-0.055	-0.042
-609.215	-113.715	-0.368	-0.071
-608.201	-200.000	0.008	-0.092
-607.186	-200.000	-0.015	-0.139
-606.171	22.421	0.165	0.134
-605.157	-46.108	0.152	0.075
-604.142	-16.381	-0.346	0.218
-603.128	138.080	-0.272	0.355
-602.113	101.751	-0.128	0.148
-601.098	-65.939	-0.099	0.040
-600.084	-200.000	0.075	-0.357
-599.069	0.878	-0.269	-0.192
-598.055	-200.000	-0.024	-0.212
-597.040	-200.000	0.002	-0.359
-596.025	-200.000	0.016	0.243
-595.011	66.128	0.176	0.177
-593.996	-200.000	-0.024	0.251
-592.982	201.641	-0.031	0.048
-591.967	800.000	-0.017	0.063
-590.952	159.534	-0.209	0.289
-589.938	10.282	-0.085	0.065
-588.923	68.459	0.155	0.158
-587.909	-200.000	-0.015	-0.257
-586.894	-147.035	0.210	0.018
-585.879	-49.631	-0.141	-0.067
-584.865	-86.456	0.083	-0.025
-583.850	-101.975	0.185	0.044
-582.836	37.137	0.142	0.125
-581.821	49.372	0.130	-0.122
-580.806	-181.670	0.260	-0.005
-579.792	800.000	0.049	-0.165
-578.777	495.364	0.120	0.275
-577.763	-100.356	0.307	-0.076
-576.748	184.793	-0.210	0.310
-575.733	24.749	-0.051	-0.042
-574.719	800.000	0.057	0.162
-573.704	-47.380	-0.446	-0.215
-572.690	-196.313	-0.226	0.002
-571.675	-200.000	-0.035	0.550
-570.661	-200.000	-0.035	0.427
-569.646	-41.526	0.173	0.088
-568.631	571.246	-0.181	-0.437
-567.617	800.000	0.065	-0.218
-566.602	22.706	0.167	-0.136
-565.588	431.580	0.058	0.125
-564.573	-200.000	0.063	-0.521
-563.558	102.508	0.208	-0.242
-562.544	-140.048	0.060	0.006
-561.529	58.069	-0.205	-0.199
-560.515	196.169	-0.103	0.156
-559.500	18.023	-0.190	-0.150
-558.485	-48.372	-0.088	0.042
-557.471	800.000	-0.052	-0.168
-556.456	396.783	-0.082	0.170
-555.442	192.234	-0.121	0.182
-554.427	-200.000	0.025	-0.264
-553.412	-200.000	-0.007	-0.201
-552.398	20.369	0.173	-0.139
-551.383	-2.061	0.086	0.060
-550.369	214.064	-0.076	0.119
-549.354	392.521	-0.132	0.272
-548.339	-200.000	0.055	0.382
-547.325	-200.000	-0.009	-0.184
-546.310	-200.000	-0.089	0.603
-545.296	-18.744	-0.225	-0.139
-544.281	800.000	0.061	-0.201
-543.266	167.108	-0.150	0.212
-542.252	800.000	-0.062	0.190
-541.237	-118.004	0.252	0.045
-540.223	-21.452	0.395	0.239
-539.208	301.086	0.058	-0.106
-538.193	4.537	-0.148	0.108
-537.179	396.210	-0.138	-0.286
-536.164	35.958	0.302	0.263
-535.150	29.157	0.060	-0.051
-534.135	-200.000	-0.015	-0.136
-533.121	416.110	-0.224	0.475
-532.106	-200.000	0.017	-0.100
-531.091	91.139	-0.139	0.154
-530.077	-116.435	-0.110	-0.020
-529.062	265.252	-0.071	-0.122
-528.048	422.873	-0.058	-0.125
-527.033	-84.245	-0.532	-0.167
-526.018	173.321	0.293	-0.419
-525.004	-34.799	0.471	0.255
-523.989	-116.335	-0.188	-0.035
-522.975	244.164	0.082	0.137
-521.960	436.881	0.072	0.156
-520.945	-200.000	-0.008	0.114
-519.931	-200.000	0.057	-0.273
-518.916	355.796	-0.039	0.076
-517.902	-120.053	-0.286	0.049
-516.887	-200.000	0.062	0.380
-515.872	108.691	0.179	0.212
-514.858	-10.846	-0.340	0.222
-513.843	102.928	0.197	-0.229
-512.829	96.241	-0.176	-0.200
-511.814	-101.072	-0.298	-0.072
-510.799	-157.253	0.500	-0.030
-509.785	574.444	-0.012	0.029
-508.770	29.743	0.124	-0.104
-507.756	-163.145	0.254	-0.012
-506.741	-200.000	-0.000	0.053
-505.726	28.619	0.187	-0.157
-504.712	-59.403	-0.088	-0.038
-503.697	-121.838	-0.327	0.053
-502.683	601.998	-0.057	0.140
-501.668	-45.822	0.150	0.073
-500.653	271.845	0.129	0.225
-499.639	-67.237	-0.236	0.092
-498.624	-200.000	0.067	-0.314
-497.610	-5.343	-0.243	0.165
-496.595	165.243	0.130	0.181
-495.581	258.107	-0.053	0.090
-494.566	-200.000	-0.004	0.382
-493.551	-200.000	-0.010	0.115
-492.537	86.183	0.244	-0.267
-491.522	-45.018	0.083	-0.041
-490.508	-128.733	0.098	-0.014
-489.493	-96.564	0.536	-0.140
-488.478	86.965	-0.052	0.057
-487.464	-200.000	-0.002	-0.155
-486.449	132.861	-0.206	-0.263
-485.435	-186.804	0.111	0.002
-484.420	-120.564	0.239	0.040
-483.405	-200.000	-0.018	-0.111
-482.391	-200.000	-0.034	0.166
-481.376	38.689	-0.172	-0.152
-480.362	-200.000	-0.047	-0.228
-479.347	42.561	-0.191	-0.172
-478.332	-67.508	0.105	-0.041
-477.318	-200.000	-0.034	-0.171
-476.303	800.000	-0.103	0.343
-475.289	-200.000	-0.014	-0.488
-474.274	-39.414	0.042	0.022
-473.259	-76.627	0.288	0.100
-472.245	-200.000	0.127	-0.595
-471.230	-41.990	-0.088	-0.045
-470.216	299.708	0.131	-0.239
-469.201	113.186	0.050	0.060
-468.186	78.596	-0.250	0.265
-467.172	146.940	0.080	0.107
-466.157	215.871	0.145	0.228
-465.143	800.000	-0.102	-0.384
-464.128	-27.537	-0.220	0.126
-463.113	76.729	-0.058	0.060
-462.099	144.365	0.202	-0.267
-461.084	-101.752	-0.475	-0.114
-460.070	-129.919	-0.247	-0.033
-459.055	-132.415	0.274	-0.035
-458.040	-88.717	0.252	-0.074
-457.026	800.000	0.010	0.033
-456.011	-12.737	-0.264	0.170
-454.997	39.497	-0.039	0.034
-453.982	41.041	-0.132	0.118
-452.968	-117.983	0.178	-0.032
-451.953	279.786	0.143	-0.252
-450.938	-200.000	-0.036	0.251
-449.924	800.000	-0.027	0.115
-448.909	800.000	0.050	-0.146
-447.895	-200.000	0.010	0.075
-446.880	-200.000	-0.015	-0.432
-445.865	64.995	0.118	-0.118
-444.851	261.184	-0.109	0.187
-443.836	268.962	-0.141	-0.244
-442.822	186.684	-0.172	0.253
-441.807	-154.371	-0.144	-0.010
-440.792	138.762	-0.126	0.163
-439.778	-13.133	-0.022	0.014
-438.763	-68.475	0.113	0.044
-437.749	-200.000	-0.054	0.417
-436.734	-134.543	-0.187	0.023
-435.719	-200.000	-0.025	0.112
-434.705	800.000	0.018	-0.074
-433.690	-200.000	0.000	-0.085
-432.676	-130.198	-0.278	0.037
-431.661	-200.000	0.020	0.290
-430.646	-165.645	0.366	-0.016
-429.632	367.936	-0.182	0.364
-428.617	-118.947	0.145	0.025
-427.603	-91.512	-0.535	0.151
-426.588	140.074	-0.152	-0.198
-425.573	-66.614	-0.063	0.025
-424.559	-139.021	0.342	-0.037
-423.544	58.844	0.164	-0.160
-422.530	158.105	0.102	0.139
-421.515	-92.460	-0.236	0.066
-420.500	800.000	0.081	-0.243
-419.486	-141.096	-0.153	-0.015
-418.471	-156.960	-0.431	-0.026
-417.457	-200.000	-0.021	0.222
-416.442	-46.930	0.070	0.034
-415.428	-117.188	0.544	-0.098
-414.413	-161.466	-0.410	-0.021
-413.398	-200.000	-0.032	0.152
-412.384	475.130	0.039	0.087
-411.369	-110.796	0.094	0.019
-410.355	-47.217	-0.252	-0.121
-409.340	-168.513	0.438	-0.017
-408.325	-161.773	-0.270	0.014
-407.311	-73.495	0.145	0.052
-406.296	160.324	-0.104	0.143
-405.282	-116.717	-0.133	-0.024
-404.267	-41.874	-0.340	-0.172
-403.252	287.640	-0.132	0.236
-402.238	-29.444	0.276	0.156
-401.223	-105.773	-0.187	0.042
-400.209	-154.420	0.290	0.019
-399.194	101.261	-0.243	-0.280
-398.179	40.435	-0.142	-0.126
-397.165	508.742	-0.231	-0.529
-396.150	110.463	-0.219	0.259
-395.136	11.576	0.199	0.151
-394.121	-160.070	0.181	0.010
-393.106	75.945	-0.193	-0.201
-392.092	-20.184	-0.113	0.069
-391.077	800.000	0.029	-0.107
-390.063	-200.000	0.011	-0.185
-389.048	-128.557	-0.238	-0.033
-388.033	-81.239	-0.273	0.089
-387.019	133.488	0.257	0.327
-386.004	800.000	0.014	0.053
-384.990	-21.464	-0.174	-0.105
-383.975	-62.647	0.308	0.126
-382.960	-143.097	-0.364	-0.035
-381.946	-126.851	-0.318	0.046
-380.931	-79.005	-0.094	0.032
-379.917	-200.000	0.016	-0.088
-378.902	-154.249	-0.084	0.006
-377.888	800.000	-0.115	-0.328
-376.873	-200.000	-0.002	0.040
-375.858	800.000	0.042	-0.133
-374.844	-200.000	-0.003	-0.024
-373.829	344.526	-0.079	0.153
-372.815	-91.796	-0.189	-0.053
-371.800	314.314	0.233	-0.433
-370.785	-58.775	0.134	0.057
-369.771	800.000	0.062	-0.181
-368.756	-142.186	0.228	-0.022
-367.742	107.442	-0.175	-0.205
-366.727	148.274	0.060	-0.079
-365.712	285.302	0.064	-0.114
-364.698	800.000	0.071	0.241
-363.683	518.916	0.145	0.335
-362.669	122.660	0.117	-0.145
-361.654	122.922	0.111	-0.137
-360.639	-200.000	0.014	0.116
-359.625	148.139	-0.069	0.092
-358.610	800.000	-0.154	-0.444
-357.596	-139.469	0.403	-0.043
-356.581	-166.449	-0.211	0.009
-355.566	-136.958	0.354	-0.040
-354.552	560.704	-0.145	-0.346
-353.537	144.313	0.263	-0.346
-352.523	-75.999	0.335	0.117
-351.508	4.526	-0.336	-0.243
-350.493	-15.874	-0.112	0.070
-349.479	-145.117	-0.139	-0.012
-348.464	-172.711	-0.113	-0.003
-347.450	229.567	0.107	-0.173
-346.435	-24.016	-0.194	0.114
-345.420	49.151	0.199	0.184
-344.406	57.254	0.115	-0.110
-343.391	47.677	-0.074	0.068
-342.377	800.000	0.047	0.176
-341.362	152.082	-0.093	0.125
-340.348	13.292	0.181	-0.138
-339.333	40.292	0.187	-0.165
-338.318	-200.000	0.061	-0.277
-337.304	-200.000	-0.001	-0.018
-336.289	-180.247	-0.327	0.007
-335.275	79.559	-0.234	0.247
-334.260	-200.000	-0.003	0.025
-333.245	-54.270	-0.389	0.174
-332.231	51.979	0.083	-0.078
-331.216	753.681	0.107	-0.284
-330.202	61.189	-0.229	-0.224
-329.187	800.000	-0.106	0.373
-328.172	-100.054	-0.183	-0.045
-327.158	-147.604	-0.214	-0.018
-326.143	800.000	-0.068	0.229
-325.129	293.317	0.083	0.148
-324.114	19.847	-0.165	-0.131
-323.099	-80.776	0.092	0.030
-322.085	-126.999	0.311	-0.045
-321.070	-200.000	-0.010	0.106
-320.056	-200.000	0.008	0.041
-319.041	800.000	0.059	0.242
-318.026	-168.610	-0.505	-0.019
-317.012	3.998	-0.269	-0.194
-315.997	-18.027	-0.188	-0.116
-314.983	-159.090	0.175	-0.010
-313.968	-115.418	0.187	0.035
-312.953	377.760	0.193	-0.389
-311.939	-34.828	-0.270	-0.145
-310.924	-135.558	0.146	0.017
-309.910	61.704	0.107	-0.105
-308.895	-200.000	0.061	0.264
-307.880	729.068	0.073	0.193
-306.866	800.000	-0.059	-0.175
-305.851	696.527	0.085	0.219
-304.837	222.952	0.183	0.290
-303.822	800.000	0.084	0.281
-302.807	153.103	0.109	0.146
-301.793	-200.000	-0.013	-0.314
-300.778	35.738	0.102	-0.088
-299.764	83.635	-0.234	0.251
-298.749	-200.000	0.025	-0.175
-297.735	-133.409	0.284	-0.035
-296.720	17.673	0.140	-0.110
-295.705	-200.000	-0.005	0.151
-294.691	547.070	0.086	0.203
-293.676	-7.355	0.197	0.131
-292.662	14.903	-0.028	-0.021
-291.647	438.806	-0.168	0.360
-290.632	-200.000	0.002	0.557
-289.618	-98.408	-0.286	-0.072
-288.603	-24.083	-0.332	-0.195
-287.589	247.014	0.067	-0.111
-286.574	-200.000	0.034	0.196
-285.559	135.124	0.097	-0.124
-284.545	-50.227	-0.184	0.086
-283.530	-200.000	-0.012	-0.191
-282.516	-130.110	0.522	-0.070
-281.501	-13.487	-0.380	-0.242
-280.486	-46.519	0.156	-0.075
-279.472	-48.206	-0.114	-0.054
-278.457	-104.645	0.428	-0.097
-277.443	-144.234	-0.240	0.022
-276.428	-200.000	-0.070	-0.429
-275.413	123.926	-0.354	-0.437
-274.399	-200.000	0.005	0.127
-273.384	318.014	0.128	0.237
-272.370	-200.000	0.013	0.090
-271.355	9.952	-0.169	-0.126
-270.340	-200.000	-0.001	0.081
-269.326	-198.865	-0.071	0.000
-268.311	800.000	-0.058	-0.215
-267.297	-132.307	0.227	-0.029
-266.282	-44.774	0.380	-0.186
-265.267	196.884	0.235	-0.351
-264.253	13.759	-0.233	-0.178
-263.238	-115.890	0.165	-0.030
-262.224	800.000	-0.041	0.164
-261.209	800.000	-0.009	0.033
-260.195	179.898	-0.269	0.387
-259.180	-115.113	0.285	0.053
-258.165	-116.165	0.238	-0.043
-257.151	142.845	0.248	-0.324
-256.136	31.030	-0.035	-0.029
-255.122	128.572	0.166	0.207
-254.107	-200.000	0.029	-0.162
-253.092	76.386	0.079	0.082
-252.078	-55.067	-0.120	-0.053
-251.063	-200.000	-0.021	0.161
-250.049	727.235	0.085	-0.223
-249.034	800.000	0.105	0.296
-248.019	456.840	0.018	-0.039
-247.005	-93.598	0.218	0.059
-245.990	800.000	-0.115	-0.412
-244.976	201.775	0.128	0.193
-243.961	-132.411	-0.111	0.014
-242.946	44.710	-0.167	-0.151
-241.932	-200.000	-0.024	0.198
-240.917	501.577	0.006	-0.014
-239.903	800.000	0.029	0.090
-238.888	124.175	0.072	0.089
-237.873	196.109	0.153	-0.229
-236.859	-63.554	0.195	0.078
-235.844	96.201	-0.186	0.209
-234.830	-16.952	0.292	-0.181
-233.815	-25.427	-0.172	0.100
-232.800	500.215	-0.014	0.031
-231.786	-200.000	-0.032	-0.146
-230.771	-94.516	0.277	0.074
-229.757	-200.000	-0.050	-0.230
-228.742	224.161	-0.114	-0.180
-227.727	137.802	0.084	0.107
-226.713	110.559	-0.259	-0.305
-225.698	108.121	0.086	0.101
-224.684	300.011	0.088	-0.159
-223.669	41.331	-0.108	0.096
-222.655	-171.346	0.125	0.004
-221.640	-179.939	-0.082	-0.002
-220.625	231.915	0.042	-0.067
-219.611	65.036	-0.172	-0.171
-218.596	-49.972	0.094	-0.044
-217.582	81.014	-0.061	-0.064
-216.567	-10.266	0.045	0.029
-215.552	-126.987	-0.137	0.020
-214.538	-86.907	0.193	0.058
-213.523	-142.194	0.122	-0.012
-212.509	547.117	0.051	-0.119
-211.494	-46.075	0.120	-0.058
-210.479	23.463	0.124	0.100
-209.465	308.488	-0.017	0.031
-208.450	-135.902	0.052	0.006
-207.436	-133.111	-0.317	0.039
-206.421	-200.000	-0.040	0.316
-205.406	800.000	0.021	0.084
-204.392	55.822	0.041	-0.039
-203.377	-200.000	-0.029	0.207
-202.363	521.286	0.237	-0.545
-201.348	-37.775	0.212	0.110
-200.333	129.948	-0.075	-0.095
-199.319	-180.226	0.536	0.011
-198.304	-1.039	-0.236	-0.164
-197.290	754.454	-0.060	-0.160
-196.275	-125.937	0.220	0.032
-195.260	22.742	-0.172	-0.138
-194.246	315.913	0.123	0.227
-193.231	-8.089	0.291	0.192
-192.217	-105.474	0.108	0.024
-191.202	328.757	-0.137	0.258
-190.187	-134.797	0.062	0.007
-189.173	20.182	0.091	-0.072
-188.158	800.000	-0.050	-0.192
-187.144	-91.526	-0.096	-0.027
-186.129	-60.982	0.049	-0.020
-185.114	800.000	-0.083	-0.239
-184.100	-128.019	-0.224	-0.032
-183.085	-121.677	-0.188	-0.031
-182.071	330.570	-0.053	0.099
-181.056	-126.221	0.189	0.028
-180.042	-4.896	0.109	0.073
-179.027	800.000	0.122	-0.439
-178.012	125.801	0.116	0.144
-176.998	-117.586	-0.123	0.022
-175.983	-200.000	0.003	-0.179
-174.969	-79.971	0.185	0.061
-173.954	-200.000	0.037	0.234
-172.939	-13.633	0.133	-0.084
-171.925	41.023	-0.085	0.075
-170.910	800.000	-0.080	0.245
-169.896	800.000	-0.023	-0.085
-168.881	426.648	0.078	0.164
-167.866	-112.972	-0.080	-0.015
-166.852	-51.640	0.379	-0.173
-165.837	222.109	0.154	0.243
-164.823	76.803	-0.033	0.034
-163.808	248.122	-0.054	0.089
-162.793	774.014	0.033	-0.089
-161.779	81.121	0.157	0.166
-160.764	800.000	-0.058	0.229
-159.750	-200.000	0.023	0.244
-158.735	17.677	-0.084	-0.066
-157.720	-100.187	0.205	-0.050
-156.706	8.909	0.185	-0.136
-155.691	6.881	-0.127	-0.092
-154.677	193.967	-0.038	-0.056
-153.662	131.388	0.271	0.340
-152.647	-200.000	-0.038	-0.271
-151.633	-158.945	0.098	0.005
-150.618	-17.944	0.252	0.154
-149.604	-200.000	0.035	0.226
-148.589	-54.048	0.533	-0.237
-147.574	250.008	-0.047	0.078
-146.560	-78.774	-0.060	0.020
-145.545	257.664	0.224	-0.377
-144.531	-38.232	0.337	0.175
-143.516	800.000	0.049	-0.155
-142.502	120.655	0.188	0.228
-141.487	43.096	-0.043	0.038
-140.472	-200.000	-0.018	0.186
-139.458	2.791	0.071	-0.050
-138.443	236.183	-0.108	0.175
-137.429	800.000	0.125	-0.377
-136.414	-32.844	-0.140	-0.076
-135.399	800.000	0.022	0.080
-134.385	-200.000	-0.007	-0.390
-133.370	-143.444	-0.028	-0.003
-132.356	97.917	-0.113	-0.127
-131.341	-200.000	0.086	0.444
-130.326	369.092	-0.181	0.357
-129.312	-173.584	0.215	-0.006
-128.297	-74.148	-0.188	-0.066
-127.283	3.983	-0.259	0.185
-126.268	126.007	-0.140	-0.172
-125.253	-200.000	0.032	0.322
-124.239	-20.460	-0.257	-0.154
-123.224	-122.893	0.152	-0.024
-122.210	-200.000	0.003	0.389
-121.195	-56.504	0.203	0.088
-120.180	16.184	0.238	0.183
-119.166	-15.743	0.276	-0.172
-118.151	562.311	0.143	-0.337
-117.137	376.542	0.215	0.429
-116.122	0.664	0.128	0.089
-115.107	292.471	-0.147	0.261
-114.093	-120.416	-0.184	0.030
-113.078	-80.795	0.138	0.045
-112.064	326.495	0.034	0.063
-111.049	476.230	0.105	0.232
-110.034	-200.000	-0.027	0.202
-109.020	-12.434	-0.257	0.164
-108.005	-79.083	-0.081	0.027
-106.991	-158.154	0.347	0.020
-105.976	-17.799	-0.195	0.119
-104.962	-200.000	-0.031	-0.381
-103.947	284.812	0.078	0.137
-102.932	116.500	0.187	0.223
-101.918	348.374	-0.079	-0.152
-100.903	-143.798	0.265	0.024
-99.889	71.294	0.187	0.190
-98.874	213.583	-0.190	-0.292
-97.859	-200.000	0.002	0.210
-96.845	-34.831	0.042	0.023
-95.830	800.000	-0.068	-0.193
-94.816	-200.000	0.006	0.066
-93.801	-132.000	0.116	-0.015
-92.786	94.371	0.081	-0.090
-91.772	5.843	0.179	-0.129
-90.757	-61.587	-0.123	-0.050
-89.743	-191.137	0.215	-0.002
-88.728	-43.352	-0.285	0.140
-87.713	14.920	-0.128	0.098
-86.699	119.956	-0.120	-0.146
-85.684	-75.100	0.209	0.073
-84.670	-200.000	0.041	0.276
-83.655	101.563	-0.296	0.337
-82.640	-200.000	-0.028	0.362
-81.626	-200.000	-0.008	0.252
-80.611	-133.763	-0.154	-0.019
-79.597	-47.256	0.446	0.212
-78.582	800.000	0.030	0.102
-77.567	16.301	0.266	-0.205
-76.553	450.812	0.149	-0.321
-75.538	153.188	0.207	0.276
-74.524	-187.355	0.255	0.003
-73.509	-200.000	0.039	-0.257
-72.494	800.000	-0.110	0.372
-71.480	-200.000	0.048	-0.219
-70.465	82.432	-0.259	-0.274
-69.451	19.333	-0.041	0.032
-68.436	487.925	0.100	-0.222
-67.422	-57.432	-0.183	-0.078
-66.407	26.684	0.368	0.300
-65.392	-42.332	-0.176	0.088
-64.378	513.848	-0.068	-0.154
-63.363	109.361	-0.074	-0.086
-62.349	346.523	0.093	-0.178
-61.334	62.699	-1.290	-1.257
-60.319	0.633	0.779	0.543
-59.305	800.000	-0.322	-1.181
-58.290	544.793	0.432	1.005
-57.276	394.132	0.811	1.645
-56.261	-200.000	121.501	644.629
-55.246	437.355	1538.894	3266.337
-54.232	148.401	2690.302	3537.763
-53.217	98.316	2159.902	2423.350
-52.203	34.686	1685.619	1434.855
-51.188	27.203	1504.550	1230.254
-50.173	25.324	1480.499	1198.016
-49.159	48.469	1551.287	1414.783
-48.144	46.136	1564.467	1410.749
-47.130	27.195	1513.618	1237.422
-46.115	24.344	1497.877	1205.266
-45.100	24.185	1494.302	1201.274
-44.086	24.095	1492.817	1199.424
-43.071	24.135	1490.485	1197.770
-42.057	24.112	1488.631	1196.079
-41.042	24.093	1487.368	1194.889
-40.027	24.110	1485.836	1193.725
-39.013	24.046	1484.639	1192.289
-37.998	24.017	1483.845	1191.406
-36.984	24.088	1481.913	1190.285
-35.969	24.124	1480.403	1189.269
-34.954	24.167	1478.493	1187.973
-33.940	24.039	1477.762	1186.484
-32.925	24.068	1476.066	1185.265
-31.911	24.064	1475.064	1184.392
-30.896	24.130	1473.724	1183.703
-29.881	24.153	1472.757	1183.034
-28.867	24.109	1471.296	1181.520
-27.852	24.196	1470.208	1181.178
-26.838	24.226	1468.295	1179.795
-25.823	24.176	1467.091	1178.448
-24.809	24.146	1465.753	1177.128
-23.794	24.163	1464.361	1176.074
-22.779	24.132	1463.185	1174.879
-21.765	24.191	1461.912	1174.200
-20.750	24.209	1461.085	1173.609
-19.736	24.113	1460.116	1172.153
-18.721	24.261	1458.840	1172.055
-17.706	24.133	1457.568	1170.146
-16.692	24.118	1456.840	1169.413
-15.677	24.168	1455.863	1168.911
-14.663	24.186	1454.446	1167.847
-13.648	24.163	1453.721	1167.067
-12.633	24.164	1452.890	1166.358
-11.619	24.093	1452.159	1165.264
-10.604	24.083	1451.194	1164.378
-9.590	24.012	1450.560	1163.354
-8.575	24.170	1449.070	1163.145
-7.560	24.145	1448.458	1162.444
-6.546	24.080	1448.242	1161.803
-5.531	24.154	1446.651	1160.965
-4.517	24.016	1446.130	1159.598
-3.502	24.122	1445.032	1159.361
-2.487	24.177	1443.766	1158.659
-1.473	24.138	1442.470	1157.319
-0.458	24.094	1441.726	1156.394
0.556	23.063	1431.762	1144.449
1.571	20.041	1407.561	1105.752
2.586	16.574	1346.543	1036.514
3.600	14.928	1264.696	963.944
4.615	13.986	1221.494	925.689
5.629	12.201	1165.507	873.686
6.644	6.346	1084.817	784.039
7.659	1.558	1048.418	734.577
8.673	0.896	1043.080	727.592
9.688	0.796	1040.188	725.032
10.702	0.777	1039.014	724.057
11.717	0.702	1036.644	721.982
12.731	2.707	1037.345	731.988
13.746	9.041	1046.145	768.544
14.761	15.203	1053.320	803.372
15.775	17.262	1055.823	815.097
16.790	17.043	1054.505	812.957
17.804	16.075	1052.313	806.565
18.819	15.197	1050.657	801.032
19.834	14.737	1048.832	797.372
20.848	14.543	1048.100	795.818
21.863	14.229	1047.582	793.860
22.877	13.983	1046.597	791.869
23.892	13.849	1045.832	790.582
24.907	13.779	1044.951	789.512
25.921	13.739	1044.078	788.595
26.936	13.673	1043.458	787.743
27.950	13.582	1043.096	786.965
28.965	13.879	1042.254	787.669
29.980	13.787	1041.660	786.718
30.994	13.979	1040.143	786.411
32.009	13.942	1039.738	785.859
33.023	13.944	1038.955	785.206
34.038	13.949	1038.450	784.782
35.053	13.878	1037.581	783.719
36.067	13.904	1036.381	782.864
37.082	13.840	1035.631	781.927
38.096	13.857	1035.174	781.595
39.111	13.976	1034.466	781.552
40.126	13.962	1033.441	780.642
41.140	13.895	1032.132	779.267
42.155	13.838	1031.220	778.243
43.169	13.703	1030.627	777.095
44.184	13.772	1029.520	776.514
45.199	13.685	1028.433	775.218
46.213	13.792	1027.265	774.770
47.228	13.798	1026.136	773.879
48.242	13.890	1025.305	773.612
49.257	13.700	1024.791	772.269
50.271	13.872	1023.262	771.849
51.286	13.775	1022.645	770.865
52.301	13.940	1022.131	771.175
53.315	13.953	1020.984	770.300
54.330	13.913	1020.238	769.484
55.344	13.956	1019.036	768.710
56.359	13.828	1018.341	767.526
57.374	13.770	1017.533	766.581
58.388	13.840	1016.630	766.158
59.403	13.779	1015.922	765.271
60.417	13.653	1015.324	764.172
61.432	13.769	1014.589	764.088
62.447	13.672	1014.230	763.301
63.461	13.597	1013.045	761.998
64.476	13.578	1012.106	761.136
65.490	13.741	1010.830	760.860
66.505	13.601	1010.553	759.940
67.520	13.655	1009.789	759.546
68.534	13.751	1008.824	759.190
69.549	13.694	1008.181	758.381
70.563	13.758	1007.431	758.040
71.578	13.799	1006.560	757.506
72.593	13.827	1005.645	756.880
73.607	13.803	1004.326	755.712
74.622	13.508	1004.352	754.318
75.636	13.666	1002.873	753.861
76.651	13.725	1002.088	753.471
77.666	13.640	1001.488	752.570
78.680	13.683	1000.979	752.313
79.695	13.666	1000.134	751.535
80.709	13.803	999.480	751.597
81.724	13.813	998.656	750.957
82.739	13.812	997.759	750.213
83.753	13.854	997.007	749.772
84.768	13.920	995.998	749.242
85.782	13.968	995.640	749.123
86.797	13.929	994.754	748.215
87.812	13.975	993.957	747.758
88.826	13.959	992.910	746.828
89.841	13.819	992.397	745.750
90.855	13.779	991.848	745.090
91.870	13.793	991.305	744.681
92.884	14.027	989.950	744.642
93.899	13.991	989.414	744.015
94.914	13.985	988.995	743.609
95.928	14.046	988.365	743.341
96.943	13.997	987.142	742.136
97.957	13.873	986.692	741.178
98.972	13.918	985.799	740.641
99.987	14.031	984.901	740.404
101.001	13.958	984.321	739.577
102.016	13.964	983.467	738.898
103.030	13.964	982.349	737.993
104.045	13.860	981.930	737.152
105.060	13.944	980.876	736.667
106.074	13.940	979.908	735.860
107.089	13.854	979.366	735.003
108.103	13.955	978.057	734.405
109.118	13.822	977.337	733.213
110.133	13.659	976.917	732.112
111.147	13.818	975.831	731.935
112.162	13.808	975.160	731.320
113.176	13.973	974.194	731.258
114.191	13.845	973.240	729.915
115.206	13.927	972.344	729.538
116.220	13.888	971.232	728.471
117.235	13.887	970.834	728.102
118.249	13.926	969.747	727.395
119.264	13.801	969.050	726.260
120.279	13.821	968.311	725.727
121.293	13.874	967.118	724.999
122.308	13.877	966.443	724.442
123.322	13.922	965.524	723.887
124.337	13.768	964.469	722.362
125.352	13.949	963.080	722.042
126.366	13.856	962.277	720.976
127.381	13.857	960.997	719.955
128.395	13.897	960.028	719.341
129.410	13.775	958.835	717.854
130.424	13.683	958.401	717.069
131.439	13.821	957.394	716.848
132.454	13.868	956.595	716.389
133.468	13.805	956.011	715.616
134.483	13.973	955.138	715.623
135.497	13.897	954.439	714.710
136.512	13.878	953.676	713.992
137.527	13.996	952.765	713.754
138.541	13.861	952.202	712.690
139.556	13.785	951.569	711.829
140.570	13.824	950.932	711.454
141.585	13.926	950.017	711.145
142.600	13.956	949.492	710.815
143.614	14.063	948.436	710.420
144.629	14.088	947.536	709.788
145.643	14.020	947.020	709.050
146.658	14.099	946.014	708.569
147.673	14.068	945.106	707.698
148.687	14.144	944.285	707.342
149.702	13.866	943.585	705.575
150.716	14.092	942.305	705.515
151.731	14.105	941.781	705.115
152.746	14.041	941.090	704.263
153.760	14.016	940.660	703.775
154.775	14.066	939.590	703.121
155.789	14.201	938.729	702.985
156.804	14.158	937.856	702.089
157.819	14.110	937.372	701.461
158.833	14.062	936.526	700.563
159.848	14.272	935.973	700.974
160.862	14.073	935.748	699.906
161.877	14.259	934.632	699.791
162.892	14.160	933.779	698.671
163.906	14.179	932.649	697.847
164.921	14.083	932.135	696.998
165.935	14.182	930.905	696.430
166.950	14.155	930.379	695.860
167.964	14.293	928.923	695.287
168.979	14.192	928.463	694.460
169.994	14.169	927.495	693.579
171.008	14.403	926.013	693.381
172.023	14.103	925.768	691.892
173.037	14.290	925.251	692.221
174.052	14.381	924.271	691.803
175.067	14.304	923.616	690.932
176.081	14.182	922.853	689.794
177.096	14.242	922.085	689.407
178.110	14.263	921.231	688.795
179.125	14.134	920.388	687.572
180.140	14.332	919.513	687.673
181.154	14.212	919.260	686.931
182.169	14.322	918.697	686.899
183.183	14.297	917.736	686.018
184.198	14.410	917.351	686.136
185.213	14.266	916.499	684.844
186.227	14.455	915.665	684.939
187.242	14.468	915.431	684.755
188.256	14.482	914.635	684.158
189.271	14.297	914.450	683.201
190.286	14.442	913.012	682.659
191.300	14.331	912.427	681.708
192.315	14.384	911.873	681.449
193.329	14.318	911.140	680.573
194.344	14.336	910.858	680.374
195.359	14.436	910.029	680.101
196.373	14.444	909.573	679.732
197.388	14.536	909.231	679.793
198.402	14.652	908.454	679.624
199.417	14.715	907.957	679.449
200.432	14.625	907.611	678.764
201.446	14.750	906.973	678.736
202.461	14.486	907.064	677.668
203.475	14.794	905.946	678.026
204.490	14.734	905.358	677.283
205.504	14.791	904.263	676.634
206.519	14.688	903.700	675.735
207.534	14.565	903.233	674.830
208.548	14.592	902.301	674.183
209.563	14.762	901.711	674.368
210.577	14.683	900.842	673.340
211.592	14.714	900.333	673.023
212.607	14.780	899.992	672.978
213.621	14.746	899.404	672.341
214.636	14.959	898.453	672.426
215.650	14.880	897.357	671.230
216.665	15.000	896.661	671.129
217.680	14.857	896.993	670.744
218.694	14.811	896.112	669.841
219.709	14.890	895.754	669.833
220.723	14.910	894.846	669.174
221.738	14.931	893.950	668.529
222.753	14.877	893.493	667.912
223.767	14.933	892.758	667.526
224.782	14.985	892.280	667.319
225.796	14.858	891.388	666.087
226.811	15.115	890.253	666.202
227.826	15.101	890.242	666.079
228.840	15.045	889.179	665.004
229.855	15.030	888.486	664.367
230.869	14.891	888.577	663.822
231.884	15.022	887.291	663.324
232.899	15.020	886.791	662.883
233.913	15.040	886.186	662.449
234.928	14.916	885.340	661.271
235.942	14.940	884.715	660.839
236.957	15.075	884.285	660.991
237.972	15.117	883.169	660.265
238.986	15.018	882.833	659.564
240.001	15.046	881.763	658.817
241.015	15.054	881.679	658.730
242.030	15.073	880.582	657.923
243.045	15.100	880.279	657.747
244.059	15.134	879.523	657.255
245.074	15.167	878.887	656.854
246.088	15.129	878.559	656.400
247.103	15.273	877.918	656.429
248.117	15.370	877.052	656.101
249.132	15.330	876.593	655.544
250.147	15.375	875.649	654.956
251.161	15.408	875.140	654.646
252.176	15.508	874.412	654.434
253.190	15.619	873.254	653.938
254.205	15.442	873.290	653.219
255.220	15.460	873.221	653.180
256.234	15.627	871.899	652.783
257.249	15.621	871.286	652.244
258.263	15.529	871.086	651.679
259.278	15.657	870.167	651.430
260.293	15.667	869.925	651.231
261.307	15.635	869.252	650.545
262.322	15.547	869.151	650.070
263.336	15.619	868.376	649.710
264.351	15.699	867.592	649.376
265.366	15.847	866.751	649.261
266.380	15.847	866.191	648.784
267.395	15.657	865.924	647.795
268.409	15.690	865.054	647.213
269.424	15.693	864.131	646.476
270.439	15.664	863.594	645.906
271.453	15.801	862.946	645.892
272.468	15.764	861.926	644.929
273.482	15.726	861.236	644.210
274.497	15.792	861.240	644.408
275.512	15.692	860.462	643.388
276.526	15.741	859.607	642.878
277.541	15.758	859.111	642.513
278.555	15.799	858.332	642.031
279.570	15.832	857.713	641.637
280.585	15.880	857.390	641.521
281.599	15.843	856.769	640.860
282.614	16.031	856.120	641.034
283.628	15.895	855.379	639.904
284.643	15.973	855.058	639.904
285.657	16.043	854.416	639.632
286.672	16.093	853.651	639.191
287.687	16.040	853.569	638.873
288.701	16.138	852.739	638.566
289.716	15.998	852.547	637.837
290.730	16.065	851.778	637.458
291.745	16.025	851.062	636.717
292.760	16.059	850.325	636.237
293.774	16.045	849.764	635.706
294.789	16.002	849.537	635.317
295.803	16.084	848.835	635.046
296.818	16.082	848.196	634.503
297.833	16.236	847.186	634.273
298.847	16.174	846.672	633.598
299.862	16.128	846.436	633.193
300.876	16.175	845.646	632.721
301.891	16.139	844.930	631.994
302.906	16.173	844.523	631.763
303.920	16.336	843.737	631.729
304.935	16.264	842.910	630.784
305.949	16.358	842.146	630.507
306.964	16.494	841.616	630.562
307.979	16.399	841.191	629.835
308.993	16.324	840.851	629.243
310.008	16.441	840.205	629.142
311.022	16.296	839.964	628.364
312.037	16.642	839.007	628.880
313.052	16.515	838.264	627.796
314.066	16.311	838.006	626.789
315.081	16.436	837.490	626.813
316.095	16.470	836.919	626.455
317.110	16.529	836.039	625.959
318.125	16.383	835.869	625.235
319.139	16.494	835.356	625.207
320.154	16.549	834.830	624.960
321.168	16.424	834.354	624.087
322.183	16.342	833.907	623.396
323.197	16.519	833.164	623.439
324.212	16.638	832.863	623.597
325.227	16.529	832.304	622.722
326.241	16.612	831.624	622.461
327.256	16.454	831.540	621.764
328.270	16.507	830.618	621.214
329.285	16.565	829.959	620.877
330.300	16.446	829.345	619.930
331.314	16.687	828.398	620.049
332.329	16.585	828.264	619.520
333.343	16.597	827.460	618.907
334.358	16.718	826.840	618.830
335.373	16.765	826.195	618.465
336.387	16.723	826.070	618.165
337.402	16.694	825.184	617.342
338.416	16.841	824.565	617.357
339.431	16.747	824.613	616.997
340.446	17.003	823.647	617.150
341.460	16.811	823.313	616.146
342.475	16.858	822.657	615.775
343.489	16.886	822.102	615.406
344.504	16.901	821.615	615.039
345.519	16.958	821.051	614.772
346.533	16.905	820.546	614.146
347.548	16.969	820.031	613.938
348.562	17.073	819.346	613.747
349.577	17.029	819.101	613.350
350.592	16.985	818.392	612.604
351.606	17.005	817.937	612.282
352.621	17.013	817.304	611.783
353.635	16.949	817.127	611.368
354.650	16.985	816.879	611.256
355.665	16.975	816.332	610.756
356.679	16.960	815.697	610.176
357.694	17.184	815.281	610.615
358.708	17.079	814.787	609.813
359.723	16.951	814.550	609.122
360.738	17.057	813.877	608.946
361.752	17.132	813.153	608.617
362.767	17.219	812.609	608.469
363.781	17.080	812.530	607.857
364.796	17.255	811.969	608.012
365.810	17.158	811.459	607.227
366.825	17.293	811.259	607.508
367.840	17.326	810.927	607.321
368.854	17.384	810.378	607.064
369.869	17.372	810.030	606.706
370.883	17.340	809.123	605.859
371.898	17.400	808.472	605.532
372.913	17.390	808.083	605.152
373.927	17.446	807.378	604.769
374.942	17.457	806.463	604.072
375.956	17.433	806.090	603.651
376.971	17.466	805.410	603.207
377.986	17.501	804.985	602.958
379.000	17.482	804.849	602.736
380.015	17.626	803.970	602.534
381.029	17.737	803.526	602.542
382.044	17.419	803.175	601.100
383.059	17.602	802.347	601.075
384.073	17.613	801.533	600.449
385.088	17.670	800.879	600.106
386.102	17.537	800.955	599.643
387.117	17.475	800.599	599.105
388.132	17.504	799.987	598.695
389.146	17.504	799.590	598.347
390.161	17.631	799.374	598.576
391.175	17.727	798.827	598.452
392.190	17.614	798.423	597.700
393.205	17.627	798.065	597.425
394.219	17.670	797.727	597.270
395.234	17.669	797.179	596.803
396.248	17.728	796.279	596.281
397.263	17.568	796.152	595.574
398.278	17.658	795.506	595.353
399.292	17.673	794.985	594.963
400.307	17.793	794.289	594.806
401.321	17.640	794.326	594.250
402.336	17.906	793.643	594.614
403.350	17.872	793.465	594.308
404.365	17.824	793.201	593.890
405.380	17.928	792.436	593.628
406.394	18.049	791.596	593.366
407.409	17.950	791.584	592.960
408.423	18.095	791.142	593.081
409.438	17.950	790.834	592.295
410.453	18.109	790.377	592.448
411.467	18.028	789.890	591.750
412.482	17.949	789.762	591.331
413.496	18.109	789.121	591.350
414.511	18.080	789.071	591.160
415.526	18.112	788.584	590.855
416.540	18.155	787.851	590.402
417.555	18.099	787.457	589.860
418.569	18.047	787.248	589.474
419.584	17.957	786.956	588.893
420.599	18.216	786.481	589.377
421.613	116.121	1296.119	1490.515
422.628	99.867	1370.345	1490.592
