DTS Sentinel unit serial number:	SN413079Multiplexer serial number:	ORYXHardware model number:	OX4-SRSoftware version number:	ORYX F/W v4.00 Oryx Data Collector v3.7.2.0data status	okinstallation	princeton_trtdifferential loss correction	single-endedforward channel	channel 3reverse channel	N/Adate	2019/09/12time	18:56:04forward acquisition time	15.00reverse acquisition time	0.00gamma	496.2192k internal	0.2319k external	0.2319temperature offset calibration	1.0090default loss term (dB/km)	0.3790temperature slope calibration	1.0000multiplexer offset coefficient	1.0000multiplexer slope coefficient	1.0000fibre end	0.00T internal ref (°C)	32.81T ext. ref 1 (°C)	3.00T ext. ref 2 (°C)	27.36length (m)	temperature (°C)	Stokes	anti-Stokes-747.200	688.207	-0.135	0.359
-746.185	-17.409	0.158	0.101
-745.171	-155.635	0.507	0.033
-744.156	-93.863	-0.733	0.204
-743.142	800.000	-0.193	-0.682
-742.127	-200.000	0.127	-0.622
-741.112	-86.387	-0.606	0.188
-740.098	-25.112	-0.264	0.158
-739.083	60.509	0.486	0.487
-738.069	-141.278	0.591	0.061
-737.054	40.409	0.438	-0.399
-736.039	-2.530	0.414	0.293
-735.025	266.946	-0.343	0.606
-734.010	625.717	0.324	-0.826
-732.996	641.302	-0.124	0.320
-731.981	-200.000	-0.027	0.638
-730.966	94.716	-0.557	-0.641
-729.952	800.000	-0.073	0.226
-728.937	-92.046	-0.214	-0.061
-727.923	24.119	-0.190	-0.159
-726.908	145.870	-0.193	0.262
-725.894	5.627	0.835	-0.624
-724.879	800.000	-0.055	0.193
-723.864	800.000	0.374	-1.151
-722.850	-5.338	-0.596	-0.414
-721.835	-200.000	0.037	-0.327
-720.821	-56.530	0.390	-0.175
-719.806	-64.271	-0.049	-0.020
-718.791	-115.316	-0.104	0.020
-717.777	196.863	-0.294	0.453
-716.762	137.584	0.328	-0.434
-715.748	11.232	-0.282	-0.218
-714.733	-130.185	-1.216	-0.167
-713.718	-32.020	0.470	-0.266
-712.704	-43.892	0.675	0.343
-711.689	63.415	0.582	-0.590
-710.675	168.114	-0.223	0.320
-709.660	800.000	0.230	0.711
-708.645	-94.830	-1.251	-0.343
-707.631	285.241	0.191	-0.348
-706.616	-200.000	-0.132	0.615
-705.602	-11.817	-0.700	-0.464
-704.587	800.000	0.270	0.764
-703.572	-200.000	-0.135	0.757
-702.558	-28.447	-0.175	-0.102
-701.543	-4.172	0.539	-0.377
-700.529	131.545	0.280	-0.363
-699.514	-110.983	-0.369	0.076
-698.499	-82.990	0.654	0.213
-697.485	-104.253	-0.120	-0.028
-696.470	-92.032	-0.561	-0.160
-695.456	-127.632	1.428	-0.209
-694.441	-101.377	-1.123	-0.277
-693.426	-109.879	0.519	-0.110
-692.412	216.013	0.364	-0.583
-691.397	-30.642	0.070	0.040
-690.383	-200.000	-0.133	0.666
-689.368	82.164	-0.384	0.421
-688.354	-85.011	-0.522	-0.165
-687.339	-25.792	1.036	-0.617
-686.324	-139.695	0.601	-0.065
-685.310	-14.642	0.254	-0.165
-684.295	410.329	0.337	0.720
-683.281	-77.432	0.542	0.190
-682.266	-200.000	-0.068	0.421
-681.251	358.251	0.329	0.662
-680.237	800.000	-0.110	-0.419
-679.222	-64.232	-0.385	-0.158
-678.208	73.223	-0.189	-0.199
-677.193	-200.000	-0.048	-0.263
-676.178	549.224	-0.550	1.329
-675.164	-91.111	0.576	0.167
-674.149	133.437	0.377	0.491
-673.135	-73.228	0.258	0.095
-672.120	7.925	-0.407	0.308
-671.105	800.000	0.153	-0.621
-670.091	114.374	-0.487	-0.599
-669.076	800.000	0.043	-0.125
-668.062	-200.000	0.022	-0.264
-667.047	656.651	0.223	-0.579
-666.032	-123.011	-0.972	0.158
-665.018	800.000	0.102	-0.392
-664.003	-126.036	-0.531	-0.080
-662.989	113.973	0.264	-0.324
-661.974	30.489	-0.303	0.261
-660.959	10.894	-0.214	0.165
-659.945	-200.000	0.011	0.664
-658.930	603.310	0.054	0.134
-657.916	65.140	0.048	0.049
-656.901	-46.936	-0.071	0.035
-655.886	-200.000	0.007	1.337
-654.872	-127.448	0.567	0.083
-653.857	289.972	0.135	-0.247
-652.843	-64.795	-0.349	0.142
-651.828	-25.690	-0.252	-0.150
-650.814	-200.000	-0.003	-0.301
-649.799	-135.618	0.566	0.068
-648.784	70.870	0.137	0.143
-647.770	800.000	-0.100	-0.352
-646.755	-97.487	0.581	0.152
-645.741	59.208	-0.321	0.318
-644.726	122.992	0.368	-0.465
-643.711	178.709	-0.249	0.367
-642.697	15.090	0.370	-0.292
-641.682	134.583	0.179	-0.234
-640.668	49.345	0.452	-0.429
-639.653	-108.705	1.273	0.275
-638.638	157.321	-0.173	-0.241
-637.624	-90.487	0.320	0.093
-636.609	258.143	0.132	-0.230
-635.595	-200.000	-0.044	0.343
-634.580	-134.706	0.291	0.036
-633.565	37.595	-0.521	0.466
-632.551	-200.000	0.128	-0.827
-631.536	-88.835	0.400	-0.120
-630.522	800.000	0.241	-0.801
-629.507	169.495	-0.453	-0.652
-628.492	312.196	0.145	-0.274
-627.478	167.273	-0.449	0.642
-626.463	117.545	0.782	-0.969
-625.449	800.000	-0.158	0.622
-624.434	196.905	0.158	-0.242
-623.419	-63.731	-0.570	0.235
-622.405	-200.000	0.038	-0.460
-621.390	292.947	-0.155	0.284
-620.376	-82.337	0.353	-0.116
-619.361	503.143	0.373	0.867
-618.346	-97.110	-1.267	0.334
-617.332	267.799	-0.412	-0.726
-616.317	103.331	-0.617	0.729
-615.303	105.754	0.452	0.538
-614.288	-148.566	1.252	0.103
-613.273	165.040	0.192	0.272
-612.259	-200.000	-0.043	-0.515
-611.244	-130.264	-0.491	-0.067
-610.230	-164.946	0.463	-0.021
-609.215	800.000	-0.044	-0.167
-608.201	-71.123	1.092	0.413
-607.186	-59.008	0.842	0.366
-606.171	-62.820	-0.068	0.028
-605.157	168.134	-0.097	-0.139
-604.142	-67.919	-0.547	0.215
-603.128	85.398	0.276	0.304
-602.113	-4.416	-0.215	-0.149
-601.098	-129.960	0.331	-0.046
-600.084	206.204	0.136	-0.212
-599.069	-200.000	-0.009	-0.078
-598.055	473.526	-0.121	0.273
-597.040	411.284	-0.246	0.525
-596.025	160.179	0.348	0.488
-595.011	-200.000	-0.166	-1.045
-593.996	19.134	-0.350	0.282
-592.982	279.557	0.176	0.316
-591.967	-182.582	0.146	0.003
-590.952	202.557	0.070	-0.109
-589.938	-200.000	-0.042	-0.632
-588.923	241.517	0.170	0.285
-587.909	107.746	-0.222	-0.266
-586.894	-11.761	0.416	-0.275
-585.879	-34.104	-0.450	0.249
-584.865	-47.935	-0.330	-0.160
-583.850	100.846	-0.195	-0.227
-582.836	35.007	0.671	-0.591
-581.821	-120.493	0.155	-0.026
-580.806	-169.110	-0.452	0.017
-579.792	-134.847	-0.523	-0.064
-578.777	729.478	-0.092	-0.246
-577.763	98.250	0.387	0.448
-576.748	-200.000	0.098	0.542
-575.733	191.516	0.170	-0.257
-574.719	226.852	0.164	0.268
-573.704	-31.811	-0.554	0.312
-572.690	800.000	-0.091	0.293
-571.675	-86.488	-0.196	-0.060
-570.661	278.323	0.174	-0.312
-569.646	-131.504	0.502	-0.067
-568.631	-1.231	-0.090	-0.064
-567.617	558.173	-0.065	0.157
-566.602	-11.798	0.398	0.262
-565.588	700.777	-0.202	0.535
-564.573	147.435	0.112	-0.152
-563.558	800.000	0.040	0.150
-562.544	-15.422	0.222	0.143
-561.529	-33.642	0.114	0.063
-560.515	-112.550	-0.791	-0.159
-559.500	-80.711	0.132	-0.044
-558.485	-190.416	0.094	-0.001
-557.471	-37.040	-0.674	-0.363
-556.456	-200.000	-0.013	-0.937
-555.442	714.719	-0.261	0.695
-554.427	232.540	0.320	-0.527
-553.412	14.633	-0.333	-0.261
-552.398	-59.114	0.561	0.243
-551.383	18.103	-0.167	-0.134
-550.369	310.927	0.623	1.172
-549.354	143.243	0.362	-0.484
-548.339	311.231	-0.063	0.118
-547.325	750.224	-0.074	-0.201
-546.310	155.679	-0.160	0.221
-545.296	44.185	0.522	-0.481
-544.281	648.425	0.032	0.081
-543.266	-118.078	-0.118	0.021
-542.252	-64.331	-0.661	0.270
-541.237	-141.929	0.156	-0.016
-540.223	434.342	0.225	0.491
-539.208	251.309	-0.491	-0.838
-538.193	-167.095	-0.583	0.024
-537.179	-200.000	-0.099	0.574
-536.164	125.459	-0.550	-0.697
-535.150	-141.508	0.589	0.060
-534.135	253.315	-0.342	0.587
-533.121	-131.365	-0.672	0.089
-532.106	202.495	0.325	-0.504
-531.091	-105.949	-0.683	-0.154
-530.077	90.528	-0.199	0.224
-529.062	467.067	-0.359	-0.807
-528.048	119.198	0.491	-0.609
-527.033	800.000	0.147	0.505
-526.018	-200.000	0.001	0.070
-525.004	102.964	0.116	-0.136
-523.989	-20.268	0.874	-0.540
-522.975	-21.623	-0.484	-0.296
-521.960	-116.451	-0.608	-0.113
-520.945	564.694	0.508	1.234
-519.931	-81.854	-0.578	0.190
-518.916	-200.000	-0.071	0.973
-517.902	-65.346	-0.055	0.022
-516.887	139.895	-0.246	-0.324
-515.872	-200.000	-0.170	0.841
-514.858	94.451	-0.105	0.120
-513.843	800.000	0.097	-0.348
-512.829	731.708	-0.208	0.558
-511.814	-138.406	1.387	0.153
-510.799	-123.617	-0.240	0.038
-509.785	147.902	-0.274	0.370
-508.770	-56.958	-0.051	-0.023
-507.756	337.231	0.378	0.737
-506.741	-110.224	-0.163	0.034
-505.726	-147.853	-0.495	-0.041
-504.712	22.550	-0.401	-0.329
-503.697	94.723	0.578	-0.659
-502.683	-200.000	0.001	0.053
-501.668	665.185	-0.292	-0.755
-500.653	36.366	-0.024	-0.021
-499.639	10.864	-0.338	-0.259
-498.624	86.380	-0.517	-0.570
-497.610	-200.000	-0.021	-0.454
-496.595	-200.000	-0.021	-0.222
-495.581	-60.003	0.601	-0.257
-494.566	9.397	-0.662	-0.502
-493.551	-17.050	-0.575	0.363
-492.537	800.000	0.154	-0.497
-491.522	-97.958	0.438	-0.113
-490.508	800.000	-0.341	1.134
-489.493	9.937	0.155	0.118
-488.478	-200.000	0.045	-0.238
-487.464	22.396	-0.524	0.429
-486.449	120.269	0.472	-0.586
-485.435	-62.600	0.387	0.161
-484.420	800.000	0.296	1.118
-483.405	95.759	0.515	0.589
-482.391	630.813	0.150	0.379
-481.376	800.000	-0.238	0.687
-480.362	153.020	-0.328	0.450
-479.347	341.401	-0.177	0.345
-478.332	-159.383	-0.734	-0.041
-477.318	-200.000	-0.049	0.475
-476.303	34.808	-0.367	0.321
-475.289	173.432	0.203	0.293
-474.274	-122.549	1.257	-0.204
-473.259	351.383	0.074	-0.146
-472.245	45.933	0.166	-0.154
-471.230	194.669	-0.087	0.132
-470.216	19.261	-0.818	-0.657
-469.201	19.111	-0.084	0.068
-468.186	-126.881	-0.791	0.117
-467.172	69.208	-0.364	0.375
-466.157	2.551	0.294	-0.213
-465.143	-200.000	-0.252	1.263
-464.128	-54.272	-0.558	-0.253
-463.113	-122.226	-0.549	0.090
-462.099	-76.732	-0.038	0.013
-461.084	225.740	0.628	1.019
-460.070	619.953	-0.256	-0.643
-459.055	-200.000	0.035	-0.275
-458.040	-200.000	-0.143	-0.841
-457.026	86.696	0.200	-0.221
-456.011	-54.054	-0.174	-0.079
-454.997	-28.674	0.582	-0.335
-453.982	-106.778	0.611	-0.136
-452.968	-41.776	0.269	0.138
-451.953	215.477	0.265	0.420
-450.938	154.599	0.230	-0.316
-449.924	-1.795	0.449	-0.316
-448.909	-121.229	-0.894	0.149
-447.895	-56.701	-0.655	0.290
-446.880	-5.738	-0.659	-0.452
-445.865	-95.030	-0.371	-0.100
-444.851	67.646	0.058	0.059
-443.836	304.214	-0.069	0.128
-442.822	-171.212	-0.971	0.033
-441.807	205.216	-0.343	0.532
-440.792	130.693	0.430	0.551
-439.778	-55.605	-0.794	0.355
-438.763	329.720	0.336	0.645
-437.749	-200.000	-0.068	0.704
-436.734	209.805	0.237	-0.371
-435.719	800.000	-0.154	0.547
-434.705	-57.325	-0.505	-0.222
-433.690	59.295	-0.376	-0.371
-432.676	-119.118	-0.217	-0.038
-431.661	366.024	0.103	0.207
-430.646	-50.267	0.670	-0.316
-429.632	22.856	-0.243	-0.199
-428.617	-133.423	0.390	0.049
-427.603	-200.000	-0.117	-0.640
-426.588	383.754	-0.099	-0.203
-425.573	-200.000	0.502	-0.001
-424.559	277.521	-0.294	-0.523
-423.544	-31.955	0.604	-0.338
-422.530	800.000	-0.110	-0.389
-421.515	-200.000	-0.001	0.538
-420.500	-81.437	0.328	-0.108
-419.486	-54.249	0.275	0.125
-418.471	800.000	-0.150	0.615
-417.457	-7.339	0.274	0.185
-416.442	7.680	0.365	-0.273
-415.428	116.351	0.203	0.248
-414.413	280.242	-0.119	-0.212
-413.398	26.815	0.217	-0.181
-412.384	55.012	-0.127	0.123
-411.369	-200.000	0.033	-1.231
-410.355	-120.181	0.376	-0.064
-409.340	43.436	0.316	-0.289
-408.325	800.000	-0.153	0.661
-407.311	-81.117	0.430	-0.142
-406.296	-173.806	-0.570	0.017
-405.282	-26.161	0.504	-0.296
-404.267	179.697	-0.325	0.474
-403.252	75.156	-0.450	0.473
-402.238	-200.000	-0.004	0.604
-401.223	-103.868	-0.334	0.078
-400.209	-11.661	0.536	-0.351
-399.194	-200.000	-0.004	0.674
-398.179	-7.196	-0.357	0.241
-397.165	-98.109	-0.669	-0.172
-396.150	-34.419	-0.187	0.102
-395.136	800.000	0.158	0.654
-394.121	-200.000	0.074	0.546
-393.106	213.328	0.341	0.538
-392.092	-168.064	-0.504	-0.020
-391.077	-116.236	0.472	-0.087
-390.063	-200.000	0.008	-0.567
-389.048	17.236	0.513	0.406
-388.033	-4.994	0.354	0.243
-387.019	-200.000	-0.015	0.175
-386.004	-111.902	1.021	-0.206
-384.990	-66.752	-0.509	0.201
-383.975	-91.914	-0.731	-0.207
-382.960	748.960	-0.100	0.269
-381.946	-200.000	0.076	0.979
-380.931	13.475	0.301	-0.233
-379.917	-124.486	-0.355	0.055
-378.902	-17.590	-0.797	-0.500
-377.888	-93.442	-0.151	-0.042
-376.873	-138.040	0.504	0.056
-375.858	-184.983	0.211	0.003
-374.844	-93.780	-0.210	-0.058
-373.829	-95.158	-0.375	0.101
-372.815	-55.278	-0.433	-0.194
-371.800	112.819	-0.308	0.372
-370.785	-139.470	0.160	0.017
-369.771	-55.817	0.487	0.217
-368.756	-43.335	-0.227	-0.115
-367.742	-84.374	-0.674	0.212
-366.727	45.865	-0.382	0.352
-365.712	-17.141	-0.082	-0.052
-364.698	-123.412	0.291	-0.046
-363.683	41.362	0.577	0.520
-362.669	131.600	-0.286	0.367
-361.654	-11.718	0.714	0.467
-360.639	-87.002	-0.705	0.214
-359.625	-64.641	0.460	0.186
-358.610	800.000	-0.073	-0.275
-357.596	164.705	0.277	-0.389
-356.581	-122.937	-0.332	-0.053
-355.566	109.902	-0.325	0.389
-354.552	309.978	0.179	0.334
-353.537	800.000	0.119	0.360
-352.523	-171.465	-0.783	0.026
-351.508	-200.000	-0.008	0.309
-350.493	-146.517	-0.653	0.057
-349.479	-24.816	0.868	-0.513
-348.464	-85.929	0.183	-0.056
-347.450	-159.320	0.238	-0.013
-346.435	-22.965	0.207	0.124
-345.420	65.477	-0.398	-0.401
-344.406	393.387	-0.196	-0.407
-343.391	180.489	-0.355	-0.519
-342.377	148.619	0.488	-0.656
-341.362	-8.427	0.643	-0.431
-340.348	800.000	0.102	0.321
-339.333	-123.437	-1.024	0.162
-338.318	-200.000	-0.038	-0.271
-337.304	-136.564	-0.625	-0.072
-336.289	-65.235	-0.256	0.103
-335.275	44.472	0.215	0.197
-334.260	-175.689	0.486	0.013
-333.245	282.730	0.356	-0.635
-332.231	-58.611	0.045	-0.020
-331.216	800.000	-0.053	0.170
-330.202	800.000	-0.451	1.262
-329.187	612.666	-0.183	-0.455
-328.172	89.974	0.057	-0.064
-327.158	800.000	0.174	-0.591
-326.143	-103.834	0.782	0.182
-325.129	-200.000	-0.025	-0.652
-324.114	-200.000	-0.127	-0.975
-323.099	162.316	-0.836	-1.166
-322.085	-200.000	-0.026	0.190
-321.070	-41.429	0.390	-0.200
-320.056	-71.015	-0.472	0.177
-319.041	56.668	-0.477	0.462
-318.026	-200.000	-0.006	-0.047
-317.012	430.845	0.127	-0.273
-315.997	35.233	0.989	0.862
-314.983	139.667	-0.274	-0.359
-313.968	-139.081	0.348	0.037
-312.953	46.024	0.222	0.204
-311.939	27.566	0.781	0.654
-310.924	-90.944	-0.505	0.145
-309.910	405.640	0.258	0.542
-308.895	-177.468	-0.606	0.015
-307.880	-37.124	0.647	0.344
-306.866	351.346	0.075	-0.148
-305.851	-54.640	0.872	0.392
-304.837	-33.690	-0.369	-0.202
-303.822	-200.000	-0.089	0.389
-302.807	-111.750	-0.654	-0.132
-301.793	-25.925	0.227	0.133
-300.778	486.216	0.216	-0.489
-299.764	800.000	0.117	-0.434
-298.749	-200.000	-0.048	-0.724
-297.735	142.704	0.417	0.550
-296.720	-62.605	-0.404	0.167
-295.705	11.766	0.416	-0.318
-294.691	243.849	0.386	0.643
-293.676	71.357	-0.418	0.432
-292.662	800.000	-0.157	-0.636
-291.647	199.571	0.102	-0.155
-290.632	-21.457	0.373	-0.226
-289.618	619.575	0.476	1.188
-288.603	-67.267	-0.227	-0.089
-287.589	-200.000	-0.064	-0.621
-286.574	14.117	-0.824	-0.638
-285.559	-56.722	0.376	0.166
-284.545	190.241	0.330	-0.492
-283.530	-176.358	0.490	-0.013
-282.516	-93.852	-0.706	0.193
-281.501	-128.249	-0.601	0.085
-280.486	63.646	0.383	-0.382
-279.472	-20.082	0.789	0.483
-278.457	-125.064	0.451	-0.069
-277.443	56.902	-0.213	0.206
-276.428	-200.000	-0.057	-0.634
-275.413	504.757	0.013	0.030
-274.399	71.072	-0.055	0.056
-273.384	217.234	-0.108	-0.171
-272.370	73.162	-0.237	-0.246
-271.355	-200.000	0.191	-0.838
-270.340	59.842	0.728	-0.713
-269.326	52.185	0.459	0.435
-268.311	69.403	-0.235	0.240
-267.297	-46.781	-0.573	-0.279
-266.282	193.516	0.129	-0.193
-265.267	134.255	0.547	-0.704
-264.253	-52.502	-0.737	-0.338
-263.238	18.924	-0.264	0.210
-262.224	5.467	0.602	-0.441
-261.209	68.308	-0.295	-0.300
-260.195	270.994	-0.219	0.382
-259.180	137.063	0.402	-0.521
-258.165	-200.000	-0.010	-0.078
-257.151	-167.179	-0.117	0.005
-256.136	-55.224	0.216	-0.097
-255.122	492.754	-0.260	-0.591
-254.107	-200.000	-0.195	0.937
-253.092	-97.618	-0.523	0.135
-252.078	-22.404	-0.800	0.481
-251.063	-2.497	-0.304	-0.211
-250.049	387.331	-0.370	0.760
-249.034	141.074	-0.181	0.238
-248.019	800.000	0.116	0.433
-247.005	-200.000	0.021	-0.109
-245.990	-179.827	0.427	0.009
-244.976	-200.000	0.042	-0.605
-243.961	-185.996	0.926	0.014
-242.946	698.203	-0.042	-0.111
-241.932	72.206	0.409	-0.422
-240.917	-200.000	0.002	-0.296
-239.903	533.825	0.077	0.182
-238.888	52.050	0.726	0.686
-237.873	-200.000	0.343	-0.001
-236.859	-35.723	0.398	-0.214
-235.844	439.716	-0.173	-0.375
-234.830	800.000	0.165	-0.451
-233.815	62.962	-0.400	-0.397
-232.800	760.850	0.014	0.036
-231.786	-124.181	1.126	0.175
-230.771	-31.237	0.558	-0.312
-229.757	6.584	0.369	0.272
-228.742	-117.722	-0.649	-0.116
-227.727	-121.982	-0.636	-0.104
-226.713	-167.996	-0.559	-0.022
-225.698	-79.815	-0.653	-0.218
-224.684	79.679	0.552	-0.587
-223.669	430.419	0.225	0.483
-222.655	452.407	0.084	-0.185
-221.640	800.000	0.090	-0.378
-220.625	171.596	-0.504	-0.718
-219.611	-139.123	-0.158	0.017
-218.596	-19.398	1.250	0.768
-217.582	-200.000	0.087	-0.713
-216.567	256.456	0.372	-0.633
-215.552	234.313	0.198	-0.323
-214.538	800.000	-0.118	0.504
-213.523	486.437	-0.289	-0.653
-212.509	95.794	0.530	-0.599
-211.494	-200.000	0.022	-0.252
-210.479	-200.000	-0.129	0.656
-209.465	107.661	-0.393	0.463
-208.450	-2.012	-0.207	0.144
-207.436	-19.004	-0.202	-0.124
-206.421	-2.495	-0.576	-0.400
-205.406	51.041	0.309	-0.290
-204.392	-93.013	0.071	0.019
-203.377	253.198	0.234	-0.396
-202.363	760.753	-0.277	-0.745
-201.348	114.689	-0.305	0.368
-200.333	-56.949	-0.795	-0.347
-199.319	55.151	0.537	-0.514
-198.304	20.260	-0.180	-0.144
-197.290	117.408	-0.596	-0.726
-196.275	53.757	-0.849	0.808
-195.260	-71.333	0.796	-0.295
-194.246	595.601	-0.160	0.392
-193.231	-106.864	0.321	0.070
-192.217	-92.466	0.804	-0.224
-191.202	68.118	0.833	-0.844
-190.187	90.664	-0.403	-0.447
-189.173	181.227	-0.712	-1.036
-188.158	63.727	-0.231	-0.230
-187.144	-52.227	0.152	-0.070
-186.129	127.298	0.301	0.378
-185.114	92.516	-0.349	-0.389
-184.100	-200.000	0.020	0.354
-183.085	772.720	0.036	-0.098
-182.071	74.671	-0.063	0.066
-181.056	150.371	-0.544	0.731
-180.042	-200.000	0.076	0.355
-179.027	276.924	0.239	0.421
-178.012	55.184	-0.386	-0.369
-176.998	-131.917	-0.518	-0.067
-175.983	-55.310	0.395	0.176
-174.969	137.254	0.111	-0.144
-173.954	-200.000	-0.013	0.340
-172.939	-23.155	-0.612	-0.365
-171.925	-200.000	0.063	-0.304
-170.910	13.296	-0.131	0.100
-169.896	-200.000	-0.130	0.700
-168.881	800.000	0.034	-0.137
-167.866	-89.730	-0.278	0.081
-166.852	800.000	0.137	0.420
-165.837	-73.768	-0.624	-0.224
-164.823	800.000	0.124	-0.457
-163.808	19.515	0.342	0.272
-162.793	170.580	-0.257	0.363
-161.779	-137.935	-0.510	0.056
-160.764	-200.000	0.058	-0.358
-159.750	800.000	-0.120	0.364
-158.735	137.177	0.343	0.444
-157.720	-177.657	0.284	0.007
-156.706	-200.000	-0.136	0.607
-155.691	2.966	0.347	-0.249
-154.677	158.908	0.275	0.378
-153.662	-81.124	0.114	-0.037
-152.647	770.645	0.254	0.684
-151.633	-200.000	0.213	0.937
-150.618	-24.864	-1.133	0.665
-149.604	-200.000	0.078	-0.561
-148.589	585.914	-0.208	-0.504
-147.574	591.481	0.317	0.774
-146.560	151.082	-0.681	0.915
-145.545	-40.111	-0.756	0.389
-144.531	800.000	-0.137	0.488
-143.516	-92.135	0.404	0.113
-142.502	115.479	0.231	-0.279
-141.487	-65.352	-0.380	0.151
-140.472	-18.977	-0.910	-0.559
-139.458	767.774	-0.117	0.314
-138.443	-121.080	0.177	-0.029
-137.429	-200.000	-0.081	-0.512
-136.414	-104.389	0.270	-0.062
-135.399	-200.000	-0.053	-0.274
-134.385	800.000	0.170	0.556
-133.370	-133.176	0.200	0.025
-132.356	-125.537	-0.848	0.127
-131.341	-13.361	-0.535	-0.343
-130.326	4.904	-0.500	-0.363
-129.312	800.000	-0.320	1.233
-128.297	-200.000	-0.133	0.754
-127.283	800.000	-0.160	-0.518
-126.268	37.462	-0.892	0.781
-125.253	-200.000	-0.009	-0.440
-124.239	-200.000	0.030	0.214
-123.224	800.000	0.161	-0.441
-122.210	-88.288	0.410	0.121
-121.195	107.331	0.457	-0.536
-120.180	800.000	0.064	-0.187
-119.166	57.046	0.081	0.077
-118.151	-97.415	-0.582	0.150
-117.137	800.000	0.029	0.086
-116.122	177.246	0.145	0.208
-115.107	64.935	0.720	-0.717
-114.093	-200.000	-0.087	0.792
-113.078	301.337	-0.324	-0.590
-112.064	150.869	-0.190	-0.255
-111.049	302.658	0.333	0.608
-110.034	81.073	-0.413	0.440
-109.020	235.874	-0.151	0.246
-108.005	800.000	0.058	-0.187
-106.991	490.252	0.239	0.539
-105.976	152.699	0.542	-0.731
-104.962	-131.765	0.465	-0.060
-103.947	212.956	0.355	0.553
-102.932	-200.000	0.075	0.401
-101.918	-112.590	-0.530	0.104
-100.903	-200.000	-0.082	-0.515
-99.889	800.000	-0.131	-0.528
-98.874	117.302	-0.751	-0.911
-97.859	-200.000	-0.106	-0.960
-96.845	-131.001	0.947	0.125
-95.830	84.764	-0.691	0.747
-94.816	-106.120	-0.316	0.070
-93.801	23.863	-0.215	-0.175
-92.786	523.141	-0.086	-0.200
-91.772	111.342	-0.111	-0.132
-90.757	-129.308	0.333	-0.046
-89.743	-200.000	0.081	0.940
-88.728	-200.000	0.110	-0.633
-87.713	592.059	0.262	-0.639
-86.699	-200.000	-0.067	0.373
-85.684	800.000	-0.147	0.421
-84.670	-55.360	-0.549	-0.243
-83.655	40.506	-0.400	0.355
-82.640	268.163	0.385	-0.665
-81.626	92.475	-0.562	0.625
-80.611	-63.279	-0.191	-0.078
-79.597	293.685	-0.584	-1.051
-78.582	-57.388	0.307	-0.133
-77.567	800.000	-0.072	-0.240
-76.553	-200.000	0.022	0.204
-75.538	3.730	-0.461	-0.332
-74.524	800.000	0.293	-1.073
-73.509	-200.000	-0.199	0.001
-72.494	37.591	0.278	0.243
-71.480	317.556	-0.212	0.394
-70.465	-175.795	-0.509	-0.013
-69.451	-122.682	0.735	0.117
-68.436	33.359	0.405	-0.346
-67.422	-144.879	0.271	-0.024
-66.407	-71.751	-0.726	-0.267
-65.392	800.000	-0.121	-0.520
-64.378	-200.000	0.026	0.191
-63.363	-4.680	0.678	0.461
-62.349	-136.094	0.513	0.059
-61.334	91.756	-0.886	-0.982
-60.319	368.395	0.215	-0.428
-59.305	-200.000	0.048	-1.308
-58.290	800.000	0.219	0.689
-57.276	800.000	0.523	1.669
-56.261	-200.000	95.305	579.659
-55.246	665.168	1356.301	3448.668
-54.232	203.121	2521.580	3838.297
-53.217	117.888	2146.697	2603.708
-52.203	43.310	1696.987	1526.183
-51.188	36.034	1511.968	1310.474
-50.173	33.612	1484.805	1270.671
-49.159	53.542	1535.851	1450.620
-48.144	54.836	1551.469	1474.122
-47.130	36.205	1512.063	1311.507
-46.115	33.127	1497.563	1278.110
-45.100	32.995	1493.134	1273.388
-44.086	33.009	1491.758	1272.263
-43.071	32.778	1490.880	1269.905
-42.057	32.918	1488.581	1268.837
-41.042	32.837	1487.303	1267.153
-40.027	32.949	1485.327	1266.172
-39.013	32.742	1483.884	1263.505
-37.998	32.757	1482.969	1262.774
-36.984	32.954	1481.421	1262.725
-35.969	32.798	1480.941	1261.223
-34.954	32.738	1479.310	1259.381
-33.940	32.882	1477.938	1259.127
-32.925	33.001	1475.570	1257.854
-31.911	33.007	1475.021	1257.375
-30.896	32.678	1474.757	1254.908
-29.881	32.764	1473.170	1254.083
-28.867	32.993	1470.268	1253.079
-27.852	32.802	1469.412	1251.034
-26.838	32.929	1468.899	1251.392
-25.823	33.080	1465.835	1249.724
-24.809	32.722	1465.199	1246.766
-23.794	32.847	1463.889	1246.432
-22.779	32.853	1462.004	1244.816
-21.765	32.961	1461.053	1244.671
-20.750	32.862	1460.197	1243.238
-19.736	32.726	1459.231	1241.469
-18.721	32.862	1458.367	1241.580
-17.706	32.670	1458.474	1240.361
-16.692	32.630	1456.533	1238.399
-15.677	32.873	1454.780	1238.456
-14.663	32.629	1454.240	1236.339
-13.648	32.620	1453.456	1235.565
-12.633	32.966	1450.937	1235.643
-11.619	32.702	1451.397	1234.255
-10.604	32.771	1450.862	1234.202
-9.590	32.849	1449.367	1233.390
-8.575	32.888	1448.781	1233.102
-7.560	32.740	1447.790	1231.243
-6.546	32.839	1447.021	1231.187
-5.531	32.717	1445.599	1229.132
-4.517	32.859	1444.871	1229.386
-3.502	32.791	1445.180	1229.162
-2.487	32.863	1442.675	1227.448
-1.473	32.986	1441.005	1226.777
-0.458	32.653	1441.801	1225.242
0.556	33.774	1432.034	1215.126
1.571	30.544	1406.826	1173.284
2.586	27.091	1348.833	1103.876
3.600	24.881	1269.734	1026.393
4.615	23.512	1223.444	981.320
5.629	20.051	1165.745	916.678
6.644	11.104	1081.509	806.252
7.659	4.170	1039.572	741.821
8.673	3.301	1033.116	733.016
9.688	2.801	1031.021	729.088
10.702	2.867	1028.907	727.842
11.717	3.032	1027.343	727.451
12.731	6.081	1029.475	743.337
13.746	15.286	1043.584	797.426
14.761	22.985	1053.366	841.642
15.775	24.271	1055.309	849.255
16.790	24.240	1053.683	847.722
17.804	23.948	1052.752	845.508
18.819	23.571	1052.328	843.301
19.834	23.974	1051.657	844.603
20.848	24.036	1051.694	844.851
21.863	24.208	1050.474	844.612
22.877	24.285	1049.407	844.047
23.892	24.190	1048.899	843.114
24.907	23.904	1048.258	841.170
25.921	23.901	1048.333	841.140
26.936	23.982	1046.727	840.160
27.950	23.736	1045.795	838.177
28.965	23.659	1044.681	836.847
29.980	23.788	1043.273	836.251
30.994	23.605	1043.209	835.266
32.009	23.782	1041.686	834.805
33.023	24.255	1041.720	836.979
34.038	23.970	1040.315	834.442
35.053	23.779	1040.145	833.336
36.067	23.864	1038.413	832.271
37.082	23.980	1036.774	831.428
38.096	23.866	1036.678	830.743
39.111	23.939	1036.055	830.510
40.126	24.061	1035.375	830.464
41.140	24.079	1033.967	829.341
42.155	23.690	1033.241	826.879
43.169	23.512	1032.121	825.080
44.184	23.330	1030.905	823.187
45.199	23.504	1030.419	823.535
46.213	23.143	1030.212	821.620
47.228	23.484	1028.553	821.804
48.242	23.908	1027.289	822.687
49.257	23.916	1027.705	822.981
50.271	24.082	1026.787	822.940
51.286	24.012	1025.183	821.262
52.301	24.127	1025.014	821.583
53.315	24.310	1023.874	821.441
54.330	23.992	1024.041	820.038
55.344	23.989	1023.219	819.290
56.359	24.315	1020.715	818.710
57.374	24.071	1020.793	817.583
58.388	23.788	1019.234	814.960
59.403	23.644	1019.361	814.331
60.417	23.754	1018.365	813.966
61.432	23.514	1019.130	813.405
62.447	23.950	1016.956	813.592
63.461	23.844	1016.462	812.643
64.476	23.973	1015.731	812.574
65.490	23.889	1015.167	811.670
66.505	23.610	1014.832	810.054
67.520	23.777	1013.446	809.637
68.534	23.598	1013.375	808.695
69.549	23.202	1011.745	805.521
70.563	23.392	1010.219	805.095
71.578	23.488	1009.736	805.079
72.593	23.339	1008.675	803.483
73.607	23.029	1007.183	800.823
74.622	22.802	1005.923	798.721
75.636	23.155	1006.600	800.787
76.651	23.214	1005.224	799.887
77.666	23.223	1004.591	799.353
78.680	23.214	1004.053	798.813
79.695	23.231	1003.990	798.768
80.709	23.352	1003.118	798.549
81.724	23.457	1002.241	798.252
82.739	23.358	1002.219	797.721
83.753	23.414	1000.144	796.251
84.768	23.861	999.723	797.852
85.782	24.145	1000.054	799.317
86.797	24.448	999.246	799.960
87.812	24.516	998.217	799.372
88.826	24.280	997.206	797.434
89.841	24.000	997.548	796.384
90.855	24.574	995.751	797.444
91.870	24.254	995.473	795.720
92.884	24.385	994.061	795.108
93.899	24.171	993.594	793.709
94.914	24.182	993.094	793.287
95.928	24.372	992.473	793.569
96.943	24.049	992.005	791.688
97.957	23.953	990.256	789.796
98.972	24.172	988.930	789.636
99.987	23.966	988.612	788.400
101.001	24.178	987.397	788.301
102.016	23.958	988.062	787.787
103.030	23.942	986.679	786.544
104.045	24.044	985.537	786.016
105.060	24.307	984.932	786.626
106.074	24.170	984.448	785.562
107.089	23.880	983.234	783.249
108.103	23.724	982.623	782.005
109.118	23.944	981.120	781.706
110.133	23.863	979.886	780.300
111.147	23.631	978.901	778.430
112.162	23.417	977.909	776.632
113.176	23.729	976.269	776.625
114.191	23.486	976.596	775.753
115.206	23.224	976.254	774.268
116.220	23.432	975.160	774.241
117.235	23.422	973.043	772.450
118.249	23.184	974.567	772.549
119.264	22.987	973.444	770.733
120.279	23.127	972.087	770.200
121.293	23.039	971.112	768.979
122.308	22.714	970.803	767.251
123.322	23.135	969.351	767.863
124.337	23.183	968.244	767.129
125.352	22.976	967.511	765.583
126.366	23.096	965.561	764.489
127.381	23.319	964.521	764.561
128.395	23.661	963.702	765.320
129.410	23.401	964.268	764.579
130.424	23.402	963.322	763.765
131.439	23.797	962.554	764.791
132.454	23.864	961.927	764.511
133.468	23.850	961.148	763.767
134.483	23.655	960.063	761.999
135.497	24.041	959.149	762.861
136.512	23.794	959.583	762.077
137.527	24.082	958.591	762.455
138.541	23.836	958.255	761.069
139.556	23.871	957.268	760.366
140.570	24.009	956.021	759.898
141.585	23.851	956.169	759.273
142.600	24.392	954.651	760.308
143.614	24.438	953.513	759.529
144.629	24.478	953.520	759.636
145.643	24.551	952.877	759.370
146.658	24.706	951.886	759.170
147.673	24.219	950.467	755.908
148.687	23.956	949.672	754.093
149.702	23.771	948.399	752.235
150.716	23.966	947.078	751.941
151.731	23.938	946.471	751.277
152.746	23.866	945.455	750.097
153.760	24.129	945.043	750.817
154.775	24.265	943.430	750.041
155.789	24.300	943.253	749.978
156.804	24.069	943.057	748.786
157.819	24.230	941.230	747.944
158.833	24.071	940.682	746.775
159.848	24.434	940.477	748.067
160.862	24.297	939.660	746.779
161.877	24.107	939.794	746.024
162.892	24.183	937.776	744.674
163.906	24.200	936.675	743.803
164.921	23.636	936.761	741.452
165.935	24.279	934.841	742.545
166.950	23.834	934.363	740.249
167.964	24.237	933.522	741.192
168.979	24.029	933.226	740.028
169.994	23.879	932.251	738.563
171.008	23.891	931.070	737.614
172.023	24.169	929.697	737.614
173.037	24.225	929.229	737.408
174.052	24.424	929.251	738.183
175.067	24.397	927.240	736.409
176.081	24.157	925.506	733.977
177.096	23.845	925.066	732.279
178.110	23.510	925.292	731.010
179.125	23.536	924.026	730.055
180.140	23.576	922.799	729.186
181.154	23.605	922.031	728.632
182.169	23.555	921.574	728.000
183.183	24.122	921.361	730.096
184.198	24.129	921.207	729.936
185.213	24.036	920.520	728.948
186.227	23.855	920.295	727.964
187.242	24.282	919.095	728.697
188.256	24.122	918.299	727.347
189.271	24.144	918.496	727.526
190.286	24.379	917.876	727.930
191.300	24.404	916.246	726.677
192.315	23.850	915.548	723.802
193.329	23.458	914.243	721.112
194.344	23.088	913.247	718.759
195.359	23.604	912.278	720.030
196.373	24.005	913.320	722.413
197.388	24.701	912.104	724.211
198.402	24.096	911.950	721.572
199.417	24.566	912.051	723.493
200.432	24.736	912.115	724.169
201.446	24.833	910.466	723.187
202.461	24.819	909.511	722.308
203.475	24.325	911.057	721.473
204.490	24.342	908.836	719.721
205.504	23.742	907.712	716.345
206.519	23.783	906.892	715.800
207.534	24.426	906.625	718.117
208.548	24.563	905.504	717.714
209.563	24.186	905.961	716.496
210.577	24.836	903.971	717.469
211.592	24.466	904.573	716.395
212.607	24.547	904.310	716.449
213.621	24.692	903.485	716.315
214.636	24.589	902.354	714.941
215.650	24.671	902.570	715.380
216.665	24.350	902.187	713.725
217.680	24.240	901.305	712.525
218.694	24.403	900.047	712.119
219.709	24.503	899.837	712.290
220.723	24.386	899.173	711.233
221.738	24.159	898.571	709.790
222.753	23.870	898.259	708.332
223.767	23.930	897.155	707.636
224.782	24.238	896.148	708.003
225.796	24.516	896.674	709.461
226.811	24.733	894.880	708.840
227.826	24.453	894.380	707.269
228.840	23.989	893.969	705.044
229.855	23.542	893.702	702.999
230.869	23.427	892.904	701.857
231.884	23.890	891.449	702.480
232.899	23.772	891.501	701.994
233.913	24.219	890.716	703.077
234.928	24.340	889.404	702.455
235.942	24.301	888.333	701.394
236.957	23.912	888.226	699.718
237.972	23.705	887.973	698.639
238.986	23.735	886.494	697.534
240.001	23.768	886.345	697.483
241.015	23.589	886.317	696.696
242.030	23.661	885.120	695.979
243.045	23.965	884.773	696.834
244.059	23.959	883.829	696.005
245.074	24.177	883.020	696.158
246.088	24.207	882.704	695.966
247.103	24.586	882.497	697.219
248.117	24.362	882.056	695.934
249.132	24.465	882.536	696.656
250.147	25.314	881.943	699.434
251.161	25.276	881.464	698.846
252.176	25.202	880.702	697.890
253.190	25.435	880.600	698.653
254.205	25.259	879.840	697.304
255.220	25.456	878.638	697.056
256.234	25.405	878.636	696.795
257.249	25.053	877.714	694.639
258.263	25.051	877.072	694.061
259.278	25.167	876.339	693.867
260.293	25.658	874.747	694.441
261.307	25.533	875.156	694.222
262.322	24.954	875.643	692.309
263.336	24.980	874.774	691.660
264.351	24.723	874.121	690.092
265.366	24.699	873.321	689.309
266.380	24.491	872.153	687.523
267.395	24.816	872.898	689.303
268.409	25.176	871.709	689.686
269.424	25.017	870.496	688.054
270.439	25.089	869.765	687.691
271.453	25.125	869.378	687.465
272.468	24.809	868.282	685.325
273.482	24.914	867.842	685.319
274.497	25.257	866.188	685.263
275.512	25.406	867.188	686.562
276.526	24.822	866.166	683.464
277.541	25.040	865.381	683.616
278.555	25.186	865.534	684.235
279.570	25.257	865.070	684.077
280.585	25.324	864.696	683.975
281.599	25.261	863.767	682.940
282.614	25.113	862.566	681.369
283.628	25.088	861.382	680.277
284.643	24.948	861.609	679.866
285.657	24.899	860.893	679.056
286.672	24.960	860.003	678.522
287.687	24.791	859.148	677.147
288.701	24.811	860.293	678.068
289.716	24.736	859.918	677.429
290.730	25.092	859.111	678.078
291.745	25.248	857.208	677.106
292.760	25.054	856.603	675.835
293.774	25.150	855.714	675.435
294.789	25.067	857.200	676.235
295.803	25.135	856.994	676.270
296.818	25.086	856.086	675.310
297.833	25.209	854.777	674.679
298.847	25.226	853.999	674.071
299.862	25.177	852.732	672.827
300.876	25.479	851.839	673.194
301.891	25.512	851.378	672.894
302.906	25.672	850.293	672.575
303.920	25.224	851.441	671.745
304.935	25.391	850.899	671.883
305.949	25.765	850.461	672.875
306.964	25.741	848.837	671.443
307.979	25.299	848.302	669.312
308.993	25.168	848.494	668.915
310.008	25.320	846.859	668.133
311.022	25.469	847.930	669.473
312.037	25.264	847.152	668.037
313.052	25.361	846.121	667.527
314.066	25.143	845.694	666.322
315.081	25.256	843.806	665.193
316.095	24.550	844.021	662.685
317.110	24.481	843.822	662.213
318.125	25.031	843.219	663.719
319.139	24.711	843.003	662.306
320.154	24.431	841.506	660.037
321.168	23.948	841.101	657.874
322.183	24.287	841.445	659.339
323.197	25.041	839.657	660.663
324.212	25.180	840.040	661.416
325.227	24.919	839.503	659.973
326.241	25.009	838.075	659.123
327.256	24.506	838.773	657.763
328.270	24.748	837.571	657.649
329.285	24.376	837.623	656.265
330.300	24.401	836.508	655.425
331.314	24.354	836.145	654.911
332.329	24.495	835.735	655.047
333.343	24.563	835.082	654.730
334.358	25.231	834.507	656.665
335.373	25.363	833.205	656.064
336.387	25.342	833.685	656.307
337.402	25.228	832.702	655.061
338.416	25.843	832.138	656.802
339.431	25.256	832.766	655.095
340.446	26.014	831.972	657.177
341.460	25.925	831.220	656.201
342.475	25.402	831.260	654.268
343.489	26.064	830.282	655.851
344.504	25.780	829.738	654.330
345.519	25.762	829.541	654.053
346.533	26.087	829.006	654.751
347.548	26.144	828.548	654.539
348.562	26.220	827.259	653.738
349.577	25.634	828.214	652.311
350.592	25.523	826.718	650.671
351.606	25.586	825.782	650.104
352.621	25.556	825.389	649.629
353.635	25.194	825.030	647.984
354.650	25.620	824.326	648.910
355.665	25.457	823.802	647.854
356.679	24.820	823.600	645.340
357.694	25.268	822.715	646.200
358.708	25.607	821.793	646.640
359.723	25.212	821.370	644.832
360.738	25.324	820.733	644.673
361.752	25.085	820.355	643.464
362.767	25.210	819.822	643.437
363.781	25.622	820.089	645.068
364.796	25.992	819.575	645.930
365.810	25.999	818.975	645.428
366.825	26.088	818.389	645.227
367.840	26.183	817.670	644.942
368.854	25.948	818.271	644.518
369.869	25.989	817.019	643.622
370.883	25.721	816.038	641.837
371.898	25.316	815.722	640.086
372.913	26.056	815.559	642.539
373.927	25.957	815.517	642.095
374.942	25.741	814.669	640.605
375.956	25.515	813.886	639.128
376.971	25.779	813.667	639.839
377.986	25.810	812.763	639.181
379.000	25.953	811.858	638.917
380.015	26.148	811.656	639.395
381.029	26.051	811.132	638.580
382.044	26.058	810.112	637.746
383.059	26.472	809.510	638.677
384.073	26.339	809.427	638.088
385.088	25.979	809.816	637.066
386.102	25.577	809.451	635.303
387.117	25.602	807.060	633.456
388.132	25.407	806.374	632.176
389.146	25.564	806.355	632.656
390.161	25.340	806.313	631.782
391.175	25.665	805.915	632.556
392.190	25.757	805.906	632.816
393.205	26.090	806.115	634.095
394.219	25.178	804.951	629.921
395.234	24.798	803.425	627.341
396.248	24.289	802.815	625.024
397.263	24.850	801.671	626.041
398.278	25.354	802.570	628.451
399.292	25.286	801.973	627.691
400.307	25.109	800.379	625.769
401.321	24.793	801.351	625.370
402.336	25.037	800.724	625.677
403.350	25.302	800.019	625.997
404.365	25.965	800.422	628.566
405.380	26.155	799.806	628.690
406.394	26.574	799.184	629.602
407.409	26.372	799.223	628.876
408.423	26.884	797.936	629.584
409.438	26.550	798.542	628.845
410.453	26.437	798.212	628.138
411.467	26.599	796.413	627.229
412.482	26.389	796.256	626.323
413.496	26.327	796.834	626.508
414.511	26.248	795.833	625.392
415.526	26.143	795.811	624.955
416.540	26.445	794.199	624.675
417.555	26.030	795.057	623.862
418.569	25.936	795.291	623.665
419.584	25.949	794.644	623.146
420.599	26.504	793.210	623.879
421.613	159.435	1369.828	1792.012
422.628	138.108	1453.955	1792.064
