DTS Sentinel unit serial number:	SN413079Multiplexer serial number:	ORYXHardware model number:	OX4-SRSoftware version number:	ORYX F/W v4.00 Oryx Data Collector v3.7.2.0data status	okinstallation	princeton_trtdifferential loss correction	single-endedforward channel	channel 3reverse channel	N/Adate	2019/09/12time	05:34:10forward acquisition time	60.00reverse acquisition time	0.00gamma	496.2192k internal	0.2321k external	0.2321temperature offset calibration	1.0035default loss term (dB/km)	0.3790temperature slope calibration	1.0000multiplexer offset coefficient	1.0000multiplexer slope coefficient	1.0000fibre end	0.00T internal ref (°C)	31.94T ext. ref 1 (°C)	1.62T ext. ref 2 (°C)	27.48length (m)	temperature (°C)	Stokes	anti-Stokes-747.200	-97.013	0.215	0.057
-746.185	-99.908	0.242	-0.061
-745.171	-121.506	0.304	0.051
-744.156	800.000	0.061	0.206
-743.142	-76.143	-0.147	-0.052
-742.127	194.063	0.388	0.593
-741.112	-179.306	-0.295	0.007
-740.098	-144.256	0.419	0.040
-739.083	800.000	0.098	-0.405
-738.069	11.738	-0.207	0.161
-737.054	-45.367	-0.299	-0.150
-736.039	-32.040	-0.322	0.182
-735.025	-200.000	0.013	-0.139
-734.010	-152.464	0.140	0.010
-732.996	-200.000	-0.043	0.245
-731.981	421.773	0.070	0.151
-730.966	-79.365	0.121	0.041
-729.952	174.741	-0.018	-0.027
-728.937	-105.563	0.258	-0.059
-727.923	-200.000	-0.031	-0.160
-726.908	122.379	0.138	-0.174
-725.894	60.004	-0.175	-0.175
-724.879	128.704	-0.103	-0.133
-723.864	9.256	-0.184	-0.141
-722.850	35.022	-0.236	0.209
-721.835	383.731	-0.050	0.105
-720.821	218.627	0.062	0.100
-719.806	-200.000	-0.241	0.000
-718.791	800.000	-0.053	-0.189
-717.777	346.077	-0.072	-0.143
-716.762	800.000	-0.135	-0.564
-715.748	-43.367	0.140	0.071
-714.733	-148.284	-0.393	0.033
-713.718	-56.534	0.394	-0.176
-712.704	-200.000	-0.003	-0.298
-711.689	-66.449	0.204	-0.082
-710.675	-103.218	-0.217	0.052
-709.660	18.563	0.023	0.018
-708.645	-128.753	-0.224	-0.032
-707.631	330.619	0.146	-0.285
-706.616	-124.866	-0.156	0.024
-705.602	-33.876	-0.281	0.156
-704.587	-38.729	0.176	-0.094
-703.572	-171.685	-0.189	0.006
-702.558	45.330	0.164	-0.152
-701.543	-32.101	-0.050	-0.028
-700.529	-200.000	0.010	0.075
-699.514	-109.766	0.212	-0.045
-698.499	-98.945	-0.211	0.054
-697.485	-72.367	-0.090	0.033
-696.470	-200.000	0.004	-0.288
-695.456	-200.000	0.019	0.407
-694.441	121.123	-0.201	-0.253
-693.426	800.000	0.074	-0.309
-692.412	44.036	0.075	-0.069
-691.397	-43.160	-0.170	0.087
-690.383	-80.278	0.102	0.034
-689.368	69.743	-0.055	0.057
-688.354	-24.551	0.089	-0.053
-687.339	65.755	-0.139	0.142
-686.324	-82.106	0.207	0.068
-685.310	366.071	-0.129	0.262
-684.295	135.358	0.022	-0.029
-683.281	-67.370	-0.146	0.058
-682.266	-96.735	0.092	-0.025
-681.251	-178.800	-0.461	0.011
-680.237	79.485	-0.095	0.102
-679.222	-107.936	0.282	-0.062
-678.208	169.853	0.168	-0.242
-677.193	-200.000	-0.002	-0.087
-676.178	127.836	-0.016	0.021
-675.164	-19.265	0.117	-0.073
-674.149	-200.000	-0.027	-0.198
-673.135	800.000	0.044	-0.191
-672.120	-200.000	0.096	-0.538
-671.105	-200.000	-0.015	0.301
-670.091	59.352	-0.061	0.061
-669.076	40.905	-0.212	0.193
-668.062	88.630	-0.099	0.111
-667.047	54.797	-0.174	-0.169
-666.032	22.930	-0.095	0.078
-665.018	800.000	0.052	-0.189
-664.003	216.475	0.055	0.088
-662.989	-199.410	-0.126	0.001
-661.974	254.761	0.118	0.203
-660.959	-176.937	0.108	0.003
-659.945	-178.213	0.304	0.007
-658.930	-109.955	-0.399	0.084
-657.916	800.000	-0.050	0.205
-656.901	230.073	0.065	-0.108
-655.886	-200.000	0.014	0.114
-654.872	-27.593	0.127	-0.074
-653.857	-50.958	0.199	0.094
-652.843	259.738	0.098	-0.171
-651.828	-76.401	0.290	0.103
-650.814	-200.000	-0.012	0.232
-649.799	434.652	-0.126	-0.275
-648.784	-90.161	0.275	0.081
-647.770	-94.259	-0.437	-0.120
-646.755	25.405	0.171	-0.143
-645.741	-10.208	-0.216	0.144
-644.726	800.000	0.094	0.289
-643.711	118.883	-0.057	-0.071
-642.697	474.564	0.049	0.112
-641.682	-200.000	-0.022	0.200
-640.668	197.745	-0.185	-0.285
-639.653	-90.757	-0.423	-0.123
-638.638	800.000	0.072	0.248
-637.624	-200.000	-0.026	0.201
-636.609	372.635	-0.127	0.259
-635.595	-163.530	-0.250	-0.012
-634.580	753.600	0.112	-0.304
-633.565	-200.000	-0.029	0.259
-632.551	800.000	0.064	-0.187
-631.536	-121.137	0.038	-0.006
-630.522	-145.004	-0.219	-0.020
-629.507	68.348	-0.171	-0.176
-628.492	254.398	-0.171	-0.295
-627.478	-200.000	-0.007	0.093
-626.463	144.596	-0.097	0.130
-625.449	17.052	0.130	0.104
-624.434	146.961	0.074	0.100
-623.419	-64.908	-0.078	0.032
-622.405	-30.899	0.180	0.102
-621.390	-200.000	-0.031	-0.252
-620.376	800.000	0.058	-0.196
-619.361	-3.455	-0.324	-0.227
-618.346	-200.000	-0.030	-0.157
-617.332	597.708	-0.102	-0.253
-616.317	34.048	0.140	-0.123
-615.303	-91.640	0.480	-0.137
-614.288	-186.703	-0.267	0.004
-613.273	94.468	-0.139	0.159
-612.259	-200.000	-0.005	0.070
-611.244	-16.611	-0.146	0.093
-610.230	138.776	0.134	0.177
-609.215	800.000	-0.024	-0.069
-608.201	13.203	0.051	-0.040
-607.186	478.127	0.011	0.025
-606.171	200.287	-0.114	-0.177
-605.157	1.030	-0.112	0.080
-604.142	800.000	-0.013	0.044
-603.128	-160.506	-0.142	-0.008
-602.113	-200.000	0.026	0.248
-601.098	-86.701	-0.383	0.118
-600.084	-157.215	-0.422	0.026
-599.069	53.358	0.166	0.160
-598.055	15.851	-0.239	-0.189
-597.040	78.230	-0.232	-0.249
-596.025	800.000	-0.063	-0.215
-595.011	-200.000	0.013	0.125
-593.996	178.667	-0.167	-0.245
-592.982	-66.176	-0.070	-0.028
-591.967	800.000	-0.061	0.184
-590.952	546.490	0.044	-0.105
-589.938	-0.531	-0.071	0.051
-588.923	344.330	0.203	-0.400
-587.909	-36.726	-0.271	0.146
-586.894	116.419	0.135	-0.166
-585.879	-200.000	-0.030	0.198
-584.865	800.000	-0.032	0.127
-583.850	-56.176	-0.339	0.151
-582.836	-104.826	-0.329	-0.076
-581.821	-200.000	-0.013	-0.308
-580.806	315.063	-0.133	-0.251
-579.792	-122.867	0.080	-0.013
-578.777	-151.150	-0.451	-0.034
-577.763	49.538	0.247	-0.233
-576.748	-107.679	0.294	-0.064
-575.733	330.628	-0.030	0.057
-574.719	-200.000	0.004	0.029
-573.704	-89.486	0.081	-0.024
-572.690	-76.229	-0.279	-0.099
-571.675	-200.000	0.021	-0.234
-570.661	483.786	0.111	-0.255
-569.646	293.712	0.056	0.103
-568.631	-137.677	-0.279	0.032
-567.617	230.204	-0.139	-0.229
-566.602	42.735	0.045	0.041
-565.588	-30.061	-0.130	-0.075
-564.573	-80.278	0.089	0.030
-563.558	-64.386	-0.082	0.033
-562.544	340.818	0.065	0.127
-561.529	51.670	-0.151	-0.144
-560.515	-200.000	-0.002	-0.259
-559.500	-69.005	-0.195	0.075
-558.485	436.851	-0.122	0.266
-557.471	494.344	-0.098	0.225
-556.456	-200.000	-0.002	-0.055
-555.442	-200.000	0.007	-0.079
-554.427	-200.000	-0.057	-0.424
-553.412	-200.000	-0.006	-0.216
-552.398	-82.578	0.394	-0.128
-551.383	84.584	-0.137	-0.151
-550.369	-200.000	0.021	-0.262
-549.354	0.772	0.253	-0.182
-548.339	-200.000	-0.024	-0.127
-547.325	-200.000	0.007	0.239
-546.310	800.000	0.073	-0.208
-545.296	-69.116	-0.314	-0.121
-544.281	-200.000	-0.012	0.093
-543.266	765.702	0.051	0.139
-542.252	401.495	0.196	-0.413
-541.237	289.009	0.028	0.050
-540.223	-159.873	0.118	0.006
-539.208	-200.000	0.042	-0.203
-538.193	-153.018	-0.134	0.009
-537.179	-79.756	-0.121	0.041
-536.164	578.413	-0.065	0.160
-535.150	46.716	0.387	-0.361
-534.135	777.693	-0.082	0.224
-533.121	-114.937	0.248	0.047
-532.106	398.312	0.154	-0.322
-531.091	30.889	-0.387	-0.332
-530.077	-197.268	0.201	0.001
-529.062	84.173	-0.125	0.137
-528.048	-200.000	-0.008	-0.041
-527.033	-200.000	-0.001	-0.107
-526.018	547.763	0.066	0.158
-525.004	251.319	0.055	0.093
-523.989	190.210	-0.148	0.222
-522.975	-152.753	0.284	0.020
-521.960	-77.197	-0.331	-0.116
-520.945	-45.976	-0.138	-0.068
-519.931	84.953	0.210	0.230
-518.916	-165.707	0.094	-0.004
-517.902	309.778	0.084	0.158
-516.887	9.802	0.245	-0.186
-515.872	-144.154	-0.206	-0.019
-514.858	-63.014	0.220	0.091
-513.843	-200.000	0.006	0.184
-512.829	-1.538	-0.096	-0.068
-511.814	800.000	0.019	-0.061
-510.799	-200.000	-0.008	-0.301
-509.785	-193.716	0.133	0.001
-508.770	99.971	0.073	-0.085
-507.756	-123.044	0.186	-0.030
-506.741	-200.000	-0.055	0.440
-505.726	120.062	-0.106	0.132
-504.712	-200.000	-0.035	0.252
-503.697	379.258	0.042	0.087
-502.683	215.468	-0.093	-0.147
-501.668	-162.490	0.268	-0.013
-500.653	-67.577	-0.223	0.088
-499.639	171.944	-0.137	0.197
-498.624	90.180	-0.229	-0.257
-497.610	-44.190	0.122	0.061
-496.595	363.262	-0.076	0.154
-495.581	-41.076	-0.186	0.096
-494.566	800.000	-0.054	-0.203
-493.551	8.815	0.077	0.058
-492.537	800.000	-0.051	0.184
-491.522	-36.631	0.255	-0.137
-490.508	746.393	0.078	-0.212
-489.493	-97.515	0.097	-0.025
-488.478	-73.269	-0.171	-0.063
-487.464	-14.406	-0.238	-0.153
-486.449	-66.265	0.128	0.051
-485.435	-78.242	0.098	-0.034
-484.420	224.834	0.249	-0.403
-483.405	603.124	-0.008	0.020
-482.391	373.320	0.069	-0.139
-481.376	789.814	0.060	-0.164
-480.362	-86.940	-0.130	0.040
-479.347	-141.306	0.144	0.015
-478.332	-200.000	-0.022	-0.270
-477.318	27.443	0.203	0.170
-476.303	-200.000	-0.009	0.122
-475.289	145.109	-0.211	0.283
-474.274	-200.000	0.009	-0.093
-473.259	43.316	-0.086	0.078
-472.245	1.091	-0.214	-0.154
-471.230	1.173	-0.209	-0.150
-470.216	303.015	0.083	-0.154
-469.201	-200.000	0.003	-0.091
-468.186	121.717	-0.188	0.235
-467.172	-36.306	0.332	-0.179
-466.157	800.000	-0.032	0.099
-465.143	-117.452	-0.141	0.025
-464.128	-20.937	0.047	-0.029
-463.113	405.058	-0.100	0.211
-462.099	800.000	-0.033	0.108
-461.084	-100.596	0.269	0.067
-460.070	0.068	-0.098	0.070
-459.055	111.680	-0.079	0.095
-458.040	61.317	-0.211	0.210
-457.026	-200.000	0.010	0.187
-456.011	-137.729	0.076	0.009
-454.997	-200.000	-0.037	0.169
-453.982	-53.911	0.280	-0.127
-452.968	-93.109	-0.088	-0.025
-451.953	-26.052	0.197	0.116
-450.938	421.851	0.143	0.308
-449.924	-130.214	0.406	0.055
-448.909	672.827	-0.008	-0.020
-447.895	-165.713	-0.108	0.005
-446.880	76.179	-0.116	0.123
-445.865	-90.627	0.269	0.078
-444.851	-66.370	0.162	0.064
-443.836	-200.000	0.052	0.285
-442.822	130.929	0.146	0.187
-441.807	800.000	0.107	0.355
-440.792	-104.802	-0.252	0.058
-439.778	-53.253	0.103	-0.047
-438.763	288.614	-0.078	-0.142
-437.749	160.190	0.139	-0.194
-436.734	-77.149	-0.193	0.067
-435.719	-140.278	0.465	0.049
-434.705	-200.000	-0.041	0.255
-433.690	-200.000	-0.013	-0.132
-432.676	-86.443	0.034	-0.010
-431.661	-200.000	0.018	0.087
-430.646	599.439	0.008	0.020
-429.632	-72.928	-0.315	-0.116
-428.617	101.620	0.157	-0.183
-427.603	-132.594	-0.159	0.020
-426.588	167.190	-0.113	0.160
-425.573	154.716	0.112	-0.153
-424.559	-68.702	-0.501	-0.193
-423.544	104.189	0.044	0.051
-422.530	-188.328	-0.137	0.002
-421.515	227.114	0.016	-0.026
-420.500	-200.000	-0.028	0.211
-419.486	-74.365	0.231	0.083
-418.471	-32.662	0.072	0.040
-417.457	28.620	-0.186	0.157
-416.442	194.584	-0.029	-0.044
-415.428	257.905	-0.136	0.234
-414.413	-72.975	0.361	-0.132
-413.398	-46.512	-0.127	0.062
-412.384	-99.939	-0.187	0.047
-411.369	11.465	0.167	-0.128
-410.355	-200.000	0.056	-0.257
-409.340	-143.882	0.573	0.054
-408.325	48.747	0.199	-0.186
-407.311	157.751	0.066	0.091
-406.296	-200.000	-0.018	0.265
-405.282	242.478	0.025	-0.042
-404.267	-200.000	0.025	0.276
-403.252	-16.382	-0.293	0.186
-402.238	-200.000	0.064	0.358
-401.223	-200.000	-0.003	0.134
-400.209	800.000	-0.023	-0.080
-399.194	-200.000	0.003	0.147
-398.179	74.242	0.294	-0.308
-397.165	-47.712	0.150	-0.073
-396.150	-163.374	0.257	-0.012
-395.136	118.444	-0.078	-0.096
-394.121	32.061	-0.260	0.223
-393.106	7.501	0.257	0.192
-392.092	-200.000	0.003	0.049
-391.077	41.483	-0.203	0.183
-390.063	106.531	-0.149	-0.176
-389.048	-29.780	0.041	0.023
-388.033	-40.173	0.284	-0.147
-387.019	-22.921	0.072	-0.044
-386.004	-37.451	-0.186	-0.099
-384.990	800.000	0.158	-0.505
-383.975	-122.044	0.175	-0.029
-382.960	-200.000	-0.005	0.298
-381.946	-200.000	0.005	0.083
-380.931	755.368	-0.145	-0.390
-379.917	199.602	-0.050	-0.077
-378.902	366.742	0.056	0.113
-377.888	546.679	0.093	-0.221
-376.873	800.000	0.083	-0.307
-375.858	180.348	0.107	0.157
-374.844	-37.139	0.129	-0.069
-373.829	105.233	-0.302	0.355
-372.815	65.708	0.210	0.212
-371.800	-65.056	-0.262	0.105
-370.785	-200.000	0.014	-0.234
-369.771	-10.417	0.343	0.226
-368.756	27.346	-0.123	0.103
-367.742	-200.000	0.007	0.083
-366.727	-171.389	-0.194	-0.006
-365.712	92.113	-0.262	0.294
-364.698	-181.179	0.468	0.009
-363.683	-116.533	0.147	-0.027
-362.669	616.104	0.120	-0.299
-361.654	-200.000	-0.018	0.169
-360.639	-141.306	0.116	0.012
-359.625	-200.000	0.029	0.285
-358.610	405.145	-0.098	0.207
-357.596	-9.777	0.152	0.101
-356.581	-5.328	-0.222	-0.152
-355.566	118.581	0.219	0.269
-354.552	-98.027	-0.320	-0.082
-353.537	-200.000	0.010	-0.124
-352.523	123.570	0.292	0.364
-351.508	800.000	-0.032	0.113
-350.493	88.066	0.080	0.088
-349.479	40.476	-0.263	0.236
-348.464	-18.015	-0.084	0.052
-347.450	-135.247	0.152	-0.018
-346.435	303.256	-0.053	-0.098
-345.420	-13.606	0.058	-0.037
-344.406	-200.000	-0.038	0.415
-343.391	-80.809	-0.251	0.083
-342.377	328.812	0.126	0.242
-341.362	96.887	-0.161	0.183
-340.348	-181.799	0.291	0.006
-339.333	71.925	0.211	-0.219
-338.318	800.000	0.159	-0.566
-337.304	-86.736	0.384	-0.117
-336.289	106.122	0.115	0.136
-335.275	-200.000	-0.015	0.080
-334.260	170.907	0.156	-0.223
-333.245	-82.900	-0.223	-0.072
-332.231	25.669	-0.130	-0.107
-331.216	108.963	0.090	0.107
-330.202	31.333	-0.144	0.123
-329.187	800.000	-0.075	0.270
-328.172	-90.405	-0.195	0.056
-327.158	-104.192	-0.217	-0.050
-326.143	99.571	0.263	0.302
-325.129	-122.164	0.242	0.039
-324.114	800.000	0.050	0.189
-323.099	19.770	-0.133	-0.106
-322.085	253.002	-0.077	0.130
-321.070	309.000	0.094	-0.175
-320.056	316.382	0.068	-0.127
-319.041	-153.286	0.247	-0.017
-318.026	-52.224	-0.204	-0.094
-317.012	-200.000	0.034	-0.274
-315.997	105.147	-0.061	0.072
-314.983	-200.000	0.018	-0.339
-313.968	199.347	-0.202	-0.307
-312.953	234.242	-0.304	-0.498
-311.939	800.000	0.103	-0.376
-310.924	80.977	0.137	0.147
-309.910	-50.593	-0.046	-0.022
-308.895	-83.531	0.098	-0.031
-307.880	401.344	0.081	0.168
-306.866	-130.516	-0.231	-0.031
-305.851	-80.772	0.117	-0.039
-304.837	40.315	0.357	-0.319
-303.822	-200.000	-0.014	-0.128
-302.807	-200.000	-0.006	-0.165
-301.793	301.588	-0.090	-0.164
-300.778	-200.000	0.004	0.060
-299.764	-136.515	-0.140	-0.016
-298.749	-81.990	0.172	-0.056
-297.735	88.922	-0.229	-0.253
-296.720	-148.672	0.096	-0.008
-295.705	-81.089	0.248	0.081
-294.691	378.732	0.070	0.143
-293.676	800.000	-0.108	0.321
-292.662	453.618	0.179	0.393
-291.647	251.944	0.057	-0.097
-290.632	114.536	-0.150	0.181
-289.618	-68.318	0.198	-0.076
-288.603	25.071	-0.168	-0.138
-287.589	-153.415	-0.188	-0.013
-286.574	-131.142	0.254	-0.034
-285.559	-200.000	-0.012	-0.142
-284.545	47.403	0.164	0.152
-283.530	-200.000	-0.123	0.623
-282.516	-21.558	0.201	0.121
-281.501	800.000	-0.054	0.167
-280.486	397.856	0.084	-0.175
-279.472	-66.580	0.118	0.046
-278.457	-200.000	0.015	-0.219
-277.443	445.212	-0.143	0.311
-276.428	212.991	0.145	-0.227
-275.413	27.331	0.068	0.056
-274.399	36.881	0.228	-0.200
-273.384	-52.715	-0.063	0.029
-272.370	-200.000	-0.080	0.357
-271.355	164.501	0.078	0.110
-270.340	-200.000	0.051	-0.256
-269.326	-90.591	-0.099	0.029
-268.311	301.800	-0.135	0.248
-267.297	-103.789	0.352	0.082
-266.282	-49.351	0.231	-0.109
-265.267	-141.655	-0.093	0.009
-264.253	50.927	-0.116	0.109
-263.238	800.000	-0.029	-0.121
-262.224	800.000	-0.073	0.270
-261.209	-32.106	-0.271	0.150
-260.195	69.840	0.025	-0.026
-259.180	136.958	0.043	-0.055
-258.165	-200.000	-0.005	-0.168
-257.151	53.353	0.249	0.236
-256.136	-182.772	0.119	-0.002
-255.122	90.999	0.073	0.081
-254.107	-60.245	-0.325	-0.137
-253.092	-79.569	-0.269	-0.090
-252.078	-55.150	-0.185	0.082
-251.063	-76.968	0.062	-0.022
-250.049	-18.806	0.248	-0.153
-249.034	-200.000	-0.013	0.193
-248.019	235.198	0.087	0.143
-247.005	-97.248	-0.237	-0.061
-245.990	292.773	-0.122	-0.221
-244.976	124.157	-0.184	0.230
-243.961	-84.911	0.222	0.069
-242.946	800.000	0.071	0.272
-241.932	-108.002	-0.418	0.090
-240.917	130.831	-0.134	0.171
-239.903	32.207	-0.174	0.149
-238.888	-162.823	0.462	0.022
-237.873	-200.000	-0.004	0.277
-236.859	79.695	-0.032	0.034
-235.844	-76.018	0.098	-0.034
-234.830	-29.808	-0.079	0.045
-233.815	800.000	-0.018	-0.059
-232.800	186.947	-0.213	0.315
-231.786	356.609	-0.100	0.198
-230.771	-24.045	-0.118	0.070
-229.757	395.488	0.101	0.209
-228.742	-118.928	0.367	-0.064
-227.727	309.405	-0.047	-0.086
-226.713	163.000	0.226	-0.314
-225.698	121.702	-0.210	-0.259
-224.684	-59.774	0.307	-0.130
-223.669	800.000	-0.058	-0.168
-222.655	800.000	-0.019	0.080
-221.640	-44.279	0.173	0.086
-220.625	-78.613	0.249	-0.084
-219.611	24.458	0.254	0.208
-218.596	665.430	-0.022	-0.056
-217.582	41.712	-0.123	-0.110
-216.567	-200.000	-0.012	-0.168
-215.552	701.554	-0.072	0.188
-214.538	-17.624	-0.081	0.051
-213.523	-95.754	0.145	0.038
-212.509	-200.000	0.035	-0.521
-211.494	-200.000	0.026	-0.175
-210.479	33.157	-0.261	-0.224
-209.465	137.309	0.068	-0.088
-208.450	-110.583	-0.160	0.033
-207.436	-200.000	0.002	0.065
-206.421	-32.509	0.188	0.104
-205.406	-200.000	-0.002	-0.018
-204.392	-112.810	-0.176	0.034
-203.377	-149.767	0.054	-0.004
-202.363	-63.250	0.278	0.114
-201.348	326.849	0.024	-0.045
-200.333	73.305	-0.045	0.046
-199.319	800.000	0.084	-0.271
-198.304	800.000	0.084	-0.273
-197.290	800.000	-0.085	-0.363
-196.275	-63.603	-0.235	-0.095
-195.260	567.561	0.103	-0.248
-194.246	478.273	-0.030	0.066
-193.231	-26.958	0.212	-0.123
-192.217	-86.693	0.098	-0.030
-191.202	-200.000	-0.012	-0.064
-190.187	-200.000	0.037	0.321
-189.173	227.938	0.065	-0.104
-188.158	178.053	0.136	-0.196
-187.144	23.803	0.220	-0.179
-186.129	-27.592	0.088	0.051
-185.114	298.722	0.138	0.251
-184.100	23.844	0.263	0.214
-183.085	109.078	-0.150	-0.177
-182.071	800.000	-0.092	0.261
-181.056	-200.000	0.042	0.285
-180.042	-67.191	-0.146	0.057
-179.027	639.787	0.026	0.066
-178.012	800.000	0.145	0.474
-176.998	-200.000	-0.067	0.365
-175.983	-66.861	-0.100	-0.039
-174.969	-122.269	0.088	-0.014
-173.954	-25.386	-0.155	-0.091
-172.939	800.000	0.104	-0.353
-171.925	-170.815	0.286	0.010
-170.910	108.603	-0.302	0.356
-169.896	141.774	-0.203	0.266
-168.881	-27.831	0.140	-0.080
-167.866	55.855	-0.215	-0.206
-166.852	74.239	-0.144	-0.150
-165.837	23.637	-0.187	-0.152
-164.823	800.000	-0.018	0.059
-163.808	-184.987	0.243	0.004
-162.793	533.688	0.114	0.267
-161.779	-21.945	-0.332	-0.199
-160.764	-39.235	0.099	-0.051
-159.750	284.149	-0.080	0.142
-158.735	423.813	-0.084	-0.179
-157.720	-86.035	-0.228	0.069
-156.706	-39.389	-0.157	-0.081
-155.691	-77.264	-0.122	0.042
-154.677	-196.866	-0.101	-0.001
-153.662	419.913	0.095	-0.202
-152.647	-161.177	0.382	0.020
-151.633	96.455	-0.185	-0.209
-150.618	-173.340	0.131	0.004
-149.604	-200.000	0.005	-0.056
-148.589	-25.799	0.082	0.048
-147.574	198.331	0.342	0.517
-146.560	-0.068	-0.194	-0.137
-145.545	-200.000	0.024	0.281
-144.531	-26.195	0.144	-0.083
-143.516	283.996	0.172	-0.306
-142.502	-200.000	0.028	-0.196
-141.487	-60.793	-0.046	-0.019
-140.472	64.662	0.246	-0.245
-139.458	43.620	0.076	0.069
-138.443	-78.948	0.209	0.070
-137.429	17.538	0.078	-0.061
-136.414	800.000	0.080	0.308
-135.399	-104.434	-0.003	-0.001
-134.385	0.596	0.355	-0.250
-133.370	-123.775	0.142	-0.022
-132.356	-200.000	0.060	0.266
-131.341	-62.277	-0.339	-0.139
-130.326	800.000	-0.029	-0.112
-129.312	152.839	0.218	-0.294
-128.297	-92.225	-0.245	-0.068
-127.283	382.655	-0.072	-0.146
-126.268	-9.001	0.213	-0.141
-125.253	-63.661	0.135	-0.055
-124.239	-115.857	-0.377	0.069
-123.224	103.544	0.095	0.110
-122.210	51.922	0.313	0.294
-121.195	-111.291	-0.114	-0.023
-120.180	-38.549	-0.364	0.190
-119.166	-200.000	-0.007	0.090
-118.151	800.000	-0.048	-0.131
-117.137	88.411	0.028	0.031
-116.122	-167.090	-0.293	-0.012
-115.107	601.159	-0.072	-0.178
-114.093	-200.000	0.051	0.227
-113.078	220.863	0.055	0.087
-112.064	144.906	0.250	-0.330
-111.049	-200.000	0.023	0.181
-110.034	-200.000	-0.007	0.227
-109.020	-200.000	0.022	0.203
-108.005	-127.701	-0.333	0.047
-106.991	-174.211	-0.246	-0.007
-105.976	-73.574	0.271	0.097
-104.962	733.517	0.175	-0.463
-103.947	-200.000	0.005	0.038
-102.932	-153.685	-0.113	0.008
-101.918	-165.894	0.118	0.005
-100.903	-31.566	-0.134	-0.074
-99.889	-91.314	-0.358	-0.101
-98.874	126.018	-0.261	-0.325
-97.859	-87.882	0.210	-0.062
-96.845	800.000	-0.042	-0.136
-95.830	688.554	0.239	-0.616
-94.816	-66.628	-0.092	-0.036
-93.801	-200.000	0.075	-0.364
-92.786	-158.642	-0.169	-0.010
-91.772	-200.000	0.014	0.407
-90.757	-200.000	-0.006	0.062
-89.743	-98.218	0.133	-0.034
-88.728	32.001	-0.373	-0.317
-87.713	-146.802	-0.259	-0.022
-86.699	-200.000	-0.017	0.132
-85.684	-200.000	-0.022	-0.102
-84.670	-54.573	0.065	0.029
-83.655	191.434	0.083	-0.124
-82.640	-200.000	0.032	0.347
-81.626	-32.727	0.462	0.253
-80.611	-13.081	0.270	0.173
-79.597	73.433	-0.063	0.065
-78.582	3.667	-0.206	0.148
-77.567	25.644	-0.198	0.163
-76.553	487.989	0.042	0.095
-75.538	-42.799	-0.190	-0.095
-74.524	-178.406	0.281	-0.006
-73.509	-200.000	-0.063	-0.382
-72.494	69.049	-0.183	-0.185
-71.480	483.656	0.145	-0.324
-70.465	264.239	0.215	-0.369
-69.451	-49.049	0.326	-0.154
-68.436	-104.114	-0.134	0.031
-67.422	-109.768	-0.062	0.013
-66.407	-22.187	0.286	0.171
-65.392	800.000	-0.128	0.446
-64.378	-200.000	-0.017	0.198
-63.363	-121.602	-0.357	0.058
-62.349	-101.462	-0.249	-0.060
-61.334	46.945	-0.809	-0.740
-60.319	38.886	0.389	0.342
-59.305	-200.000	-0.098	-0.934
-58.290	320.094	0.580	1.084
-57.276	271.723	0.929	1.612
-56.261	-200.000	96.070	599.945
-55.246	568.386	1369.342	3273.810
-54.232	161.849	2546.642	3508.827
-53.217	113.157	2158.944	2576.170
-52.203	42.698	1704.342	1526.953
-51.188	35.163	1517.953	1308.685
-50.173	32.688	1491.322	1269.031
-49.159	52.678	1539.447	1447.038
-48.144	54.590	1557.414	1476.934
-47.130	35.427	1516.984	1309.441
-46.115	32.270	1502.956	1275.893
-45.100	31.982	1499.692	1271.120
-44.086	31.933	1498.112	1269.401
-43.071	31.962	1496.077	1267.824
-42.057	31.986	1494.427	1266.540
-41.042	32.009	1492.560	1265.058
-40.027	31.919	1491.822	1263.778
-39.013	32.013	1489.456	1262.354
-37.998	31.850	1488.568	1260.456
-36.984	31.930	1487.684	1260.195
-35.969	32.049	1486.054	1259.560
-34.954	31.915	1484.719	1257.482
-33.940	31.953	1483.432	1256.595
-32.925	31.979	1481.807	1255.347
-31.911	32.063	1480.334	1254.607
-30.896	31.993	1479.184	1253.115
-29.881	32.000	1477.979	1252.095
-28.867	31.988	1476.435	1250.656
-27.852	31.977	1475.629	1249.853
-26.838	32.043	1473.482	1248.424
-25.823	32.031	1471.967	1247.011
-24.809	32.027	1470.200	1245.434
-23.794	31.973	1469.046	1244.047
-22.779	31.914	1467.873	1242.616
-21.765	32.004	1467.084	1242.498
-20.750	31.911	1465.959	1240.877
-19.736	31.935	1464.609	1239.846
-18.721	31.955	1463.729	1239.180
-17.706	31.839	1462.869	1237.640
-16.692	31.918	1461.249	1236.744
-15.677	32.001	1459.930	1236.125
-14.663	31.875	1459.357	1234.757
-13.648	31.892	1458.327	1233.951
-12.633	31.848	1457.728	1233.103
-11.619	31.891	1456.460	1232.266
-10.604	31.871	1455.970	1231.673
-9.590	31.860	1455.272	1230.960
-8.575	31.904	1454.176	1230.271
-7.560	31.921	1453.118	1229.442
-6.546	31.910	1451.891	1228.279
-5.531	31.865	1451.126	1227.288
-4.517	31.797	1450.646	1226.392
-3.502	31.888	1448.925	1225.483
-2.487	31.834	1448.146	1224.420
-1.473	31.790	1447.415	1223.469
-0.458	31.818	1446.021	1222.424
0.556	31.831	1436.496	1211.981
1.571	29.165	1411.857	1174.119
2.586	26.139	1356.172	1109.151
3.600	24.528	1277.089	1035.048
4.615	23.307	1230.276	990.202
5.629	19.510	1172.213	923.118
6.644	9.812	1085.404	806.428
7.659	2.680	1043.915	741.153
8.673	1.867	1038.640	733.431
9.688	1.645	1035.375	730.000
10.702	1.558	1033.846	728.436
11.717	1.411	1031.987	726.362
12.731	4.287	1034.837	742.077
13.746	13.824	1048.910	798.161
14.761	22.321	1059.484	847.237
15.775	24.607	1062.119	860.288
16.790	25.152	1061.294	862.168
17.804	24.924	1060.956	860.718
18.819	24.696	1060.083	858.839
19.834	24.773	1059.882	858.968
20.848	24.985	1058.971	859.171
21.863	25.074	1058.419	859.075
22.877	25.065	1058.357	858.905
23.892	25.025	1057.597	858.020
24.907	24.821	1057.213	856.660
25.921	24.904	1056.398	856.320
26.936	24.882	1055.854	855.698
27.950	24.858	1054.139	854.115
28.965	24.909	1053.060	853.408
29.980	24.836	1051.485	851.712
30.994	24.837	1050.320	850.696
32.009	24.916	1050.117	850.832
33.023	25.063	1049.478	850.937
34.038	24.799	1048.419	848.749
35.053	24.870	1047.531	848.292
36.067	24.877	1047.250	848.024
37.082	24.864	1046.241	847.068
38.096	24.952	1045.396	846.728
39.111	25.096	1044.853	846.893
40.126	25.209	1044.083	846.725
41.140	25.164	1042.605	845.243
42.155	24.729	1041.420	842.155
43.169	24.510	1039.774	839.724
44.184	24.595	1038.329	838.878
45.199	24.684	1037.802	838.800
46.213	24.546	1037.008	837.437
47.228	24.605	1035.948	836.781
48.242	24.769	1035.799	837.354
49.257	24.775	1034.947	836.622
50.271	24.949	1034.297	836.834
51.286	25.004	1033.322	836.228
52.301	24.984	1032.665	835.530
53.315	24.902	1032.213	834.709
54.330	25.015	1031.266	834.395
55.344	24.881	1030.213	832.846
56.359	24.929	1029.353	832.297
57.374	24.881	1028.569	831.368
58.388	24.799	1027.443	830.002
59.403	24.601	1026.986	828.642
60.417	24.732	1026.071	828.436
61.432	24.545	1025.248	826.836
62.447	24.645	1024.696	826.780
63.461	24.799	1023.625	826.553
64.476	24.782	1023.422	826.240
65.490	24.709	1022.597	825.164
66.505	24.675	1021.257	823.849
67.520	24.649	1021.001	823.451
68.534	24.805	1020.192	823.445
69.549	24.608	1019.526	821.927
70.563	24.240	1018.387	819.245
71.578	24.177	1017.394	818.084
72.593	24.240	1016.260	817.390
73.607	23.979	1015.452	815.471
74.622	24.037	1014.582	814.964
75.636	24.340	1013.724	815.589
76.651	24.639	1012.663	816.032
77.666	24.466	1011.923	814.571
78.680	24.258	1011.292	813.046
79.695	24.301	1010.998	812.932
80.709	24.344	1010.540	812.685
81.724	24.539	1009.580	812.733
82.739	24.495	1008.453	811.551
83.753	24.520	1007.633	810.932
84.768	24.666	1007.180	811.159
85.782	25.019	1006.788	812.374
86.797	25.209	1005.854	812.408
87.812	25.327	1004.969	812.157
88.826	25.093	1004.120	810.339
89.841	25.116	1003.191	809.621
90.855	25.146	1002.982	809.516
91.870	25.238	1001.852	808.947
92.884	25.289	1001.124	808.517
93.899	25.051	1000.050	806.511
94.914	25.013	999.360	805.711
95.928	25.036	998.847	805.330
96.943	25.089	997.589	804.483
97.957	24.828	996.475	802.343
98.972	24.698	995.245	800.698
99.987	24.528	994.345	799.144
101.001	24.622	993.786	799.041
102.016	24.819	993.248	799.419
103.030	24.794	992.680	798.782
104.045	24.854	991.367	797.922
105.060	24.704	990.383	796.389
106.074	24.534	989.209	794.619
107.089	24.520	988.829	794.181
108.103	24.846	987.919	794.831
109.118	25.022	987.231	794.986
110.133	24.593	986.058	792.071
111.147	24.555	985.054	791.023
112.162	24.491	984.075	789.885
113.176	24.335	982.920	788.201
114.191	24.473	982.128	788.102
115.206	24.662	981.337	788.234
116.220	24.338	980.082	785.726
117.235	24.097	979.224	783.912
118.249	24.200	979.006	784.117
119.264	24.365	978.276	784.190
120.279	24.138	977.274	782.321
121.293	24.267	976.076	781.859
122.308	24.339	975.769	781.861
123.322	24.382	974.885	781.270
124.337	24.290	973.908	780.016
125.352	24.282	972.282	778.611
126.366	23.824	970.976	775.497
127.381	23.507	969.457	772.832
128.395	24.048	969.778	775.376
129.410	24.599	969.125	777.186
130.424	24.766	968.827	777.604
131.439	24.831	967.394	776.666
132.454	24.870	966.349	775.927
133.468	24.734	965.729	774.774
134.483	24.734	965.042	774.153
135.497	24.917	963.963	774.011
136.512	24.948	963.884	774.011
137.527	25.084	963.052	773.862
138.541	25.029	962.355	772.996
139.556	25.093	961.480	772.501
140.570	25.067	960.772	771.754
141.585	25.115	959.592	770.943
142.600	25.281	958.810	770.959
143.614	25.037	958.159	769.321
144.629	25.119	957.441	769.028
145.643	25.394	956.902	769.704
146.658	25.272	955.627	768.089
147.673	25.118	954.583	766.522
148.687	25.001	953.553	765.129
149.702	24.880	952.689	763.853
150.716	24.829	951.784	762.841
151.731	24.869	950.640	762.027
152.746	24.865	950.216	761.603
153.760	25.093	949.505	761.937
154.775	25.081	949.228	761.595
155.789	25.145	948.301	761.053
156.804	25.212	947.495	760.626
157.819	25.169	946.155	759.301
158.833	25.243	945.612	759.109
159.848	25.401	944.920	759.156
160.862	25.390	944.082	758.367
161.877	25.157	943.182	756.597
162.892	25.174	942.003	755.653
163.906	25.227	941.573	755.464
164.921	25.263	940.272	754.505
165.935	25.031	939.203	752.609
166.950	25.192	938.064	752.305
167.964	25.391	937.043	752.250
168.979	25.293	936.375	751.239
169.994	25.099	935.366	749.554
171.008	25.002	934.414	748.319
172.023	25.224	933.597	748.522
173.037	25.409	933.019	748.765
174.052	25.116	932.095	746.738
175.067	25.032	931.021	745.459
176.081	25.042	929.705	744.384
177.096	25.002	929.575	744.047
178.110	25.071	928.566	743.458
179.125	24.723	927.645	741.216
180.140	24.497	926.582	739.362
181.154	24.533	926.287	739.213
182.169	24.833	925.203	739.521
183.183	24.957	924.721	739.582
184.198	25.160	924.773	740.397
185.213	25.246	923.921	740.003
186.227	25.132	922.930	738.676
187.242	25.109	923.143	738.684
188.256	25.249	921.938	738.234
189.271	25.202	921.088	737.292
190.286	25.307	920.786	737.418
191.300	25.185	919.570	735.876
192.315	24.497	918.449	732.093
193.329	23.877	916.667	728.073
194.344	23.429	916.030	725.668
195.359	24.143	915.658	728.230
196.373	24.768	916.525	731.409
197.388	25.166	915.911	732.482
198.402	24.977	915.852	731.599
199.417	24.965	915.349	731.081
200.432	25.139	914.340	730.922
201.446	24.916	913.829	729.539
202.461	24.810	912.799	728.220
203.475	24.861	912.424	728.066
204.490	24.473	910.636	724.998
205.504	23.230	908.652	718.317
206.519	23.767	908.828	720.571
207.534	24.533	909.367	724.039
208.548	24.741	908.392	724.043
209.563	25.109	908.443	725.509
210.577	25.088	907.695	724.762
211.592	24.784	906.923	722.854
212.607	25.198	906.900	724.442
213.621	25.326	906.303	724.420
214.636	25.257	905.207	723.200
215.650	25.262	905.332	723.255
216.665	25.237	904.306	722.272
217.680	25.486	903.662	722.696
218.694	25.310	903.652	721.917
219.709	25.036	902.609	719.917
220.723	24.617	901.522	717.307
221.738	24.880	901.367	718.174
222.753	25.140	900.776	718.680
223.767	25.086	899.794	717.620
224.782	25.120	899.078	717.122
225.796	25.311	898.979	717.741
226.811	25.356	898.060	717.124
227.826	25.061	896.757	714.845
228.840	24.035	895.621	709.784
229.855	24.129	895.022	709.623
230.869	24.369	894.562	710.152
231.884	23.979	893.674	707.833
232.899	24.133	893.133	707.953
233.913	24.981	893.247	711.348
234.928	25.012	892.924	711.154
235.942	25.003	892.050	710.357
236.957	24.817	891.572	709.179
237.972	24.747	890.140	707.700
238.986	24.660	889.702	706.943
240.001	24.639	889.485	706.626
241.015	24.714	888.630	706.179
242.030	24.738	888.305	705.954
243.045	25.007	887.381	706.218
244.059	24.941	887.187	705.742
245.074	25.183	886.710	706.252
246.088	25.184	886.007	705.634
247.103	24.764	885.327	703.377
248.117	24.939	884.273	703.166
249.132	25.451	884.121	704.991
250.147	25.786	884.369	706.442
251.161	25.710	883.868	705.682
252.176	25.931	883.352	706.072
253.190	25.994	882.454	705.540
254.205	26.068	882.183	705.547
255.220	26.156	882.192	705.839
256.234	26.100	881.260	704.812
257.249	26.077	880.470	704.025
258.263	25.883	879.853	702.713
259.278	25.890	879.361	702.285
260.293	25.889	879.231	702.117
261.307	26.191	878.453	702.610
262.322	25.953	878.003	701.260
263.336	25.980	876.728	700.286
264.351	25.378	875.582	696.972
265.366	24.414	873.689	691.672
266.380	23.742	872.760	688.272
267.395	24.827	872.941	692.555
268.409	25.491	873.303	695.351
269.424	25.570	872.489	694.944
270.439	25.652	872.067	694.865
271.453	25.775	871.617	694.919
272.468	25.757	870.948	694.257
273.482	25.983	870.602	694.789
274.497	26.116	870.074	694.816
275.512	25.876	869.204	693.137
276.526	25.294	867.796	689.719
277.541	25.565	867.408	690.390
278.555	25.935	867.412	691.754
279.570	25.740	866.340	690.090
280.585	25.638	865.575	689.029
281.599	25.550	865.060	688.222
282.614	25.780	864.635	688.700
283.628	25.255	863.732	685.914
284.643	24.836	862.952	683.635
285.657	25.181	863.341	685.202
286.672	25.162	862.219	684.178
287.687	24.869	861.067	682.087
288.701	25.059	861.297	682.930
289.716	25.544	860.858	684.369
290.730	25.039	859.860	681.595
291.745	24.899	859.267	680.533
292.760	24.846	858.010	679.275
293.774	24.718	857.722	678.502
294.789	25.651	858.127	682.304
295.803	26.363	858.192	684.992
296.818	26.212	858.073	684.266
297.833	26.465	857.283	684.533
298.847	26.181	856.099	682.454
299.862	25.743	855.111	679.952
300.876	25.999	855.071	680.824
301.891	26.248	854.481	681.234
302.906	26.438	853.985	681.494
303.920	25.859	852.872	678.366
304.935	25.785	852.083	677.401
305.949	26.200	852.221	679.012
306.964	26.313	851.680	678.946
307.979	26.103	850.681	677.299
308.993	25.855	850.425	676.107
310.008	26.480	849.957	678.017
311.022	26.441	849.717	677.620
312.037	26.292	849.185	676.576
313.052	26.190	848.253	675.394
314.066	25.956	847.415	673.791
315.081	25.303	846.089	670.240
316.095	24.587	845.048	666.685
317.110	25.244	845.014	669.051
318.125	25.987	845.386	672.056
319.139	25.563	844.453	669.677
320.154	24.337	842.715	663.679
321.168	23.897	841.527	661.052
322.183	24.630	841.903	664.012
323.197	25.532	842.588	667.845
324.212	25.815	842.065	668.423
325.227	25.917	841.866	668.585
326.241	26.031	841.308	668.506
327.256	26.088	840.863	668.304
328.270	25.933	840.122	667.082
329.285	25.775	839.674	666.082
330.300	25.646	838.209	664.383
331.314	25.547	837.236	663.190
332.329	25.662	837.130	663.470
333.343	26.074	837.014	664.837
334.358	26.039	836.996	664.638
335.373	26.106	836.157	664.157
336.387	26.235	835.623	664.149
337.402	26.495	835.175	664.690
338.416	26.630	835.172	665.124
339.431	26.720	834.202	664.624
340.446	26.742	833.959	664.450
341.460	26.853	833.740	664.623
342.475	26.799	832.744	663.574
343.489	26.562	832.057	662.103
344.504	26.639	831.660	662.010
345.519	26.698	831.395	661.955
346.533	27.148	830.866	663.116
347.548	27.153	830.488	662.774
348.562	27.127	829.839	662.105
349.577	26.993	829.378	661.188
350.592	26.908	828.885	660.430
351.606	26.914	828.350	659.966
352.621	26.881	828.068	659.562
353.635	26.789	827.266	658.532
354.650	26.661	827.231	657.980
355.665	26.524	825.653	656.169
356.679	25.379	824.085	650.720
357.694	25.382	823.644	650.324
358.708	26.002	823.573	652.455
359.723	25.859	822.968	651.403
360.738	26.072	823.028	652.161
361.752	26.615	823.075	654.101
362.767	26.587	822.530	653.512
363.781	26.878	822.328	654.344
364.796	27.235	822.227	655.492
365.810	27.183	822.378	655.366
366.825	27.388	821.597	655.423
367.840	27.439	820.953	655.035
368.854	27.222	820.666	653.967
369.869	26.721	819.551	651.224
370.883	26.703	818.887	650.571
371.898	26.669	818.560	650.132
372.913	26.828	817.664	649.934
373.927	26.628	817.406	648.955
374.942	26.721	816.639	648.620
375.956	26.928	816.338	649.066
376.971	27.065	815.363	648.723
377.986	27.206	815.102	648.961
379.000	27.222	814.650	648.600
380.015	27.340	814.139	648.555
381.029	27.113	813.411	647.109
382.044	26.959	812.889	646.090
383.059	27.236	812.250	646.508
384.073	27.351	811.816	646.514
385.088	27.365	811.599	646.335
386.102	27.353	810.591	645.433
387.117	27.068	810.332	644.158
388.132	26.941	809.482	642.976
389.146	26.839	808.830	642.041
390.161	26.270	807.993	639.306
391.175	26.311	807.775	639.223
392.190	27.077	807.831	641.920
393.205	27.049	807.177	641.244
394.219	25.959	805.572	636.070
395.234	24.385	803.024	628.462
396.248	23.635	801.948	624.923
397.263	24.620	803.051	629.197
398.278	26.431	804.517	636.671
399.292	26.947	804.663	638.546
400.307	26.664	803.497	636.572
401.321	26.567	803.069	635.835
402.336	26.682	802.691	635.883
403.350	27.053	802.399	636.897
404.365	27.409	802.666	638.300
405.380	27.490	802.772	638.613
406.394	27.968	802.452	639.976
407.409	28.236	801.740	640.291
408.423	28.094	801.231	639.329
409.438	28.045	800.863	638.809
410.453	28.094	800.266	638.448
411.467	27.941	800.223	637.823
412.482	27.912	799.743	637.280
413.496	27.971	798.923	636.779
414.511	28.027	798.689	636.731
415.526	27.917	798.158	635.867
416.540	27.925	798.233	635.898
417.555	27.937	797.328	635.164
418.569	27.620	796.701	633.507
419.584	27.525	796.078	632.627
420.599	27.684	795.524	632.681
421.613	110.624	1286.136	1460.822
422.628	95.259	1357.617	1460.930
