DTS Sentinel unit serial number:	SN413079Multiplexer serial number:	ORYXHardware model number:	OX4-SRSoftware version number:	ORYX F/W v4.00 Oryx Data Collector v3.7.2.0data status	okinstallation	princeton_trtdifferential loss correction	single-endedforward channel	channel 3reverse channel	N/Adate	2019/09/13time	11:48:34forward acquisition time	60.00reverse acquisition time	0.00gamma	496.2192k internal	0.2311k external	0.2311temperature offset calibration	1.0146default loss term (dB/km)	0.3790temperature slope calibration	1.0000multiplexer offset coefficient	1.0000multiplexer slope coefficient	1.0000fibre end	0.00T internal ref (°C)	33.27T ext. ref 1 (°C)	4.55T ext. ref 2 (°C)	30.39length (m)	temperature (°C)	Stokes	anti-Stokes-747.200	27.859	-0.160	-0.137
-746.185	-93.036	0.341	0.096
-745.171	77.050	-0.098	-0.106
-744.156	38.377	-0.157	-0.142
-743.142	168.732	-0.112	0.163
-742.127	47.578	0.067	-0.064
-741.112	211.646	-0.186	-0.298
-740.098	175.694	-0.102	0.150
-739.083	-127.910	0.107	-0.016
-738.069	-4.313	0.158	-0.111
-737.054	800.000	0.014	0.040
-736.039	96.147	-0.146	-0.169
-735.025	-175.179	0.302	-0.008
-734.010	123.275	-0.093	0.118
-732.996	-22.010	-0.294	0.181
-731.981	6.392	-0.058	0.043
-730.966	23.057	0.232	-0.193
-729.952	-200.000	0.019	0.195
-728.937	-1.466	0.120	0.086
-727.923	800.000	-0.072	-0.231
-726.908	-20.397	-0.294	-0.183
-725.894	-105.061	0.156	-0.036
-724.879	270.847	0.059	0.105
-723.864	163.149	-0.274	-0.391
-722.850	114.900	-0.063	0.078
-721.835	-108.622	0.216	-0.047
-720.821	800.000	-0.064	-0.218
-719.806	-200.000	-0.027	-0.122
-718.791	-48.092	-0.170	-0.083
-717.777	2.047	-0.236	0.173
-716.762	-79.310	-0.293	-0.101
-715.748	-162.839	-0.179	-0.009
-714.733	8.247	-0.017	-0.013
-713.718	-117.882	-0.318	0.058
-712.704	85.927	-0.175	0.196
-711.689	-200.000	0.172	-0.000
-710.675	-1.644	-0.351	-0.251
-709.660	122.889	0.081	0.103
-708.645	32.569	-0.245	0.215
-707.631	78.729	-0.069	0.075
-706.616	-27.528	-0.066	-0.039
-705.602	-62.450	0.151	-0.063
-704.587	-80.981	-0.104	0.035
-703.572	650.854	-0.036	0.093
-702.558	213.957	-0.155	0.248
-701.543	-50.455	0.151	0.072
-700.529	-75.945	0.245	0.088
-699.514	-200.000	-0.018	0.210
-698.499	800.000	0.044	-0.186
-697.485	10.957	-0.273	0.211
-696.470	-134.222	-0.142	0.018
-695.456	97.301	0.176	0.205
-694.441	800.000	0.104	-0.407
-693.426	-200.000	-0.028	0.238
-692.412	44.286	-0.053	-0.050
-691.397	5.045	0.121	-0.091
-690.383	-200.000	-0.016	0.110
-689.368	-200.000	0.020	0.254
-688.354	-57.281	-0.011	0.005
-687.339	-125.839	0.266	-0.041
-686.324	-76.585	0.208	-0.074
-685.310	-200.000	-0.020	0.104
-684.295	-76.778	0.091	-0.032
-683.281	-44.048	-0.323	0.164
-682.266	-16.657	0.201	0.129
-681.251	283.180	0.170	0.309
-680.237	49.768	-0.098	-0.094
-679.222	-3.744	-0.055	0.039
-678.208	106.640	-0.129	0.154
-677.193	-127.082	-0.148	-0.022
-676.178	112.862	-0.184	-0.225
-675.164	675.940	0.089	-0.235
-674.149	-92.069	-0.290	0.083
-673.135	-7.665	-0.118	-0.080
-672.120	-92.876	0.486	0.137
-671.105	800.000	0.078	-0.268
-670.091	609.981	0.097	0.245
-669.076	-89.501	-0.225	-0.067
-668.062	-200.000	-0.001	-0.174
-667.047	-200.000	-0.026	-0.128
-666.032	-126.080	0.059	0.009
-665.018	-7.451	0.179	-0.122
-664.003	-200.000	-0.037	0.207
-662.989	86.230	0.091	0.102
-661.974	26.613	0.286	0.242
-660.959	-56.162	0.336	0.151
-659.945	112.515	-0.116	-0.142
-658.930	-54.897	0.142	-0.065
-657.916	16.143	0.120	-0.096
-656.901	800.000	0.158	0.656
-655.886	-150.335	-0.162	-0.013
-654.872	123.474	0.051	-0.064
-653.857	153.598	0.018	-0.025
-652.843	800.000	-0.031	-0.093
-651.828	-124.728	0.135	0.021
-650.814	40.039	0.090	0.082
-649.799	-120.186	-0.286	0.050
-648.784	800.000	-0.117	-0.376
-647.770	-200.000	0.012	-0.336
-646.755	560.469	-0.146	0.356
-645.741	48.749	-0.096	0.091
-644.726	800.000	-0.053	-0.207
-643.711	98.061	-0.253	-0.295
-642.697	-200.000	-0.026	0.209
-641.682	-67.480	-0.044	0.017
-640.668	-79.958	0.240	-0.082
-639.653	554.372	-0.086	-0.208
-638.638	19.541	-0.086	0.070
-637.624	-200.000	0.091	0.415
-636.609	-121.684	-0.221	-0.037
-635.595	18.139	0.105	0.085
-634.580	440.679	0.172	-0.379
-633.565	78.805	-0.158	0.171
-632.551	800.000	0.042	-0.148
-631.536	715.363	-0.087	-0.233
-630.522	11.612	0.242	-0.187
-629.507	55.420	-0.102	-0.100
-628.492	1.568	0.438	0.319
-627.478	-70.300	0.249	0.096
-626.463	-154.664	0.313	-0.021
-625.449	800.000	0.043	-0.158
-624.434	-200.000	0.019	0.203
-623.419	182.212	0.185	-0.275
-622.405	-200.000	-0.004	-0.101
-621.390	-147.253	0.077	0.007
-620.376	-200.000	0.007	0.127
-619.361	-200.000	0.027	0.300
-618.346	162.199	-0.222	-0.315
-617.332	-200.000	0.017	0.290
-616.317	-200.000	0.012	0.127
-615.303	288.581	0.067	-0.122
-614.288	554.068	0.054	-0.132
-613.273	333.339	-0.077	-0.150
-612.259	-178.648	-0.138	-0.003
-611.244	-200.000	-0.068	-0.431
-610.230	55.672	-0.249	-0.243
-609.215	-23.109	0.156	-0.095
-608.201	-89.405	0.229	-0.068
-607.186	-28.873	-0.521	-0.303
-606.171	473.784	-0.051	-0.117
-605.157	-110.456	-0.171	0.036
-604.142	800.000	0.064	0.200
-603.128	-16.478	-0.325	-0.208
-602.113	-43.622	0.297	-0.151
-601.098	92.148	0.209	0.238
-600.084	800.000	0.038	-0.157
-599.069	-10.290	0.331	-0.222
-598.055	800.000	0.141	0.443
-597.040	28.831	-0.187	0.160
-596.025	800.000	0.054	-0.207
-595.011	-36.410	-0.300	0.163
-593.996	76.962	-0.034	0.036
-592.982	41.871	0.182	-0.167
-591.967	290.732	0.098	0.179
-590.952	-131.944	0.165	0.022
-589.938	-123.434	-0.207	0.033
-588.923	-143.030	0.244	0.024
-587.909	-24.621	-0.214	-0.128
-586.894	-175.124	-0.243	0.007
-585.879	-131.702	0.151	-0.020
-584.865	543.227	0.103	-0.248
-583.850	-79.056	0.323	-0.111
-582.836	-23.239	-0.295	-0.179
-581.821	-150.763	0.123	0.009
-580.806	-200.000	0.011	0.353
-579.792	-28.668	0.025	-0.015
-578.777	-140.135	-0.329	-0.035
-577.763	304.090	0.276	0.517
-576.748	-29.301	0.081	-0.047
-575.733	49.581	0.177	-0.168
-574.719	70.539	-0.228	-0.238
-573.704	122.837	-0.170	0.214
-572.690	800.000	0.080	0.239
-571.675	112.279	-0.132	0.161
-570.661	-125.071	-0.128	0.020
-569.646	250.310	0.027	-0.046
-568.631	-200.000	-0.011	0.084
-567.617	-200.000	-0.050	-0.300
-566.602	211.790	0.204	-0.324
-565.588	-200.000	0.016	-0.213
-564.573	44.741	0.129	-0.120
-563.558	-122.666	-0.072	0.012
-562.544	-78.197	-0.291	-0.101
-561.529	-164.406	0.202	-0.009
-560.515	-36.914	0.211	-0.114
-559.500	-54.795	-0.329	-0.150
-558.485	708.947	0.070	0.187
-557.471	110.288	-0.098	0.119
-556.456	800.000	-0.061	-0.244
-555.442	-200.000	0.028	-0.259
-554.427	-20.613	0.164	0.101
-553.412	81.818	0.248	-0.270
-552.398	-38.181	-0.163	0.087
-551.383	425.305	-0.118	0.255
-550.369	-114.479	-0.192	0.037
-549.354	16.863	-0.543	0.433
-548.339	654.680	-0.019	0.050
-547.325	-70.083	0.164	-0.063
-546.310	-64.399	-0.148	-0.061
-545.296	800.000	-0.053	0.158
-544.281	353.823	-0.047	0.094
-543.266	359.043	-0.132	-0.265
-542.252	465.712	-0.110	-0.249
-541.237	300.292	-0.157	0.291
-540.223	36.039	-0.134	-0.118
-539.208	-24.801	-0.156	-0.093
-538.193	-200.000	-0.070	-0.469
-537.179	-200.000	0.011	0.054
-536.164	-162.657	-0.081	-0.004
-535.150	-91.626	-0.138	-0.040
-534.135	126.730	-0.230	0.294
-533.121	82.708	-0.215	0.236
-532.106	-2.872	-0.056	-0.039
-531.091	54.116	0.067	-0.064
-530.077	397.042	-0.112	-0.236
-529.062	-200.000	0.007	-0.392
-528.048	-200.000	0.010	-0.201
-527.033	163.431	-0.069	-0.098
-526.018	-200.000	-0.012	-0.060
-525.004	748.815	-0.038	0.104
-523.989	-116.930	-0.177	-0.033
-522.975	-200.000	0.017	-0.236
-521.960	145.614	0.135	-0.182
-520.945	12.072	-0.437	-0.339
-519.931	-59.566	-0.042	0.018
-518.916	-72.861	0.168	0.062
-517.902	21.426	0.249	0.204
-516.887	-100.822	-0.208	-0.051
-515.872	-67.391	-0.131	-0.052
-514.858	308.254	-0.056	-0.106
-513.843	-104.044	0.315	0.074
-512.829	150.324	-0.074	-0.102
-511.814	-200.000	0.018	0.283
-510.799	-73.382	0.172	-0.063
-509.785	144.421	-0.024	0.033
-508.770	-200.000	-0.067	0.392
-507.756	0.772	0.075	-0.054
-506.741	238.416	0.020	-0.033
-505.726	343.609	-0.005	0.011
-504.712	76.842	-0.117	0.125
-503.697	28.218	0.153	0.130
-502.683	-114.038	-0.359	-0.070
-501.668	486.346	0.089	0.204
-500.653	-200.000	-0.036	-0.248
-499.639	800.000	0.013	0.039
-498.624	14.609	-0.074	0.058
-497.610	-162.767	-0.299	-0.015
-496.595	800.000	0.083	0.234
-495.581	-27.200	-0.105	-0.061
-494.566	-0.631	-0.064	0.046
-493.551	374.283	-0.118	0.242
-492.537	-100.234	-0.406	0.101
-491.522	-106.839	-0.226	-0.050
-490.508	-20.482	0.167	0.103
-489.493	-162.503	0.362	-0.018
-488.478	-186.132	0.127	-0.002
-487.464	-125.034	-0.217	-0.034
-486.449	412.310	0.063	0.135
-485.435	25.371	-0.390	0.326
-484.420	-200.000	-0.043	0.271
-483.405	340.117	-0.086	0.168
-482.391	-63.170	0.100	0.041
-481.376	800.000	-0.082	-0.340
-480.362	132.640	-0.239	-0.310
-479.347	-127.389	0.147	-0.022
-478.332	-150.555	0.154	-0.012
-477.318	-57.275	0.246	-0.109
-476.303	-130.776	-0.423	0.057
-475.289	-66.441	0.157	-0.063
-474.274	325.092	-0.041	0.078
-473.259	-32.393	-0.117	-0.065
-472.245	-54.206	0.126	0.057
-471.230	-138.394	0.129	-0.014
-470.216	-69.051	-0.129	-0.050
-469.201	22.461	-0.092	0.075
-468.186	406.826	0.203	0.431
-467.172	138.704	0.050	-0.065
-466.157	-129.506	0.058	-0.008
-465.143	-200.000	0.003	-0.016
-464.128	-36.482	-0.378	-0.204
-463.113	32.964	-0.153	0.133
-462.099	-97.693	-0.193	-0.050
-461.084	-29.561	0.323	0.185
-460.070	113.733	0.158	0.192
-459.055	47.197	-0.132	-0.123
-458.040	-60.750	0.097	-0.041
-457.026	-49.190	-0.335	0.161
-456.011	-200.000	0.007	0.328
-454.997	83.861	0.108	0.118
-453.982	-101.856	0.302	-0.073
-452.968	-62.840	-0.040	-0.017
-451.953	285.576	0.056	0.102
-450.938	114.115	-0.016	-0.019
-449.924	620.963	-0.084	0.212
-448.909	430.569	-0.090	0.195
-447.895	-124.839	0.300	-0.047
-446.880	-200.000	0.045	-0.217
-445.865	308.902	0.024	-0.044
-444.851	25.453	0.192	-0.160
-443.836	141.166	-0.142	0.189
-442.822	-38.666	0.176	0.093
-441.807	413.555	0.079	-0.168
-440.792	-200.000	-0.121	-0.670
-439.778	-160.194	-0.211	0.011
-438.763	-55.671	-0.068	-0.031
-437.749	800.000	0.045	-0.166
-436.734	218.032	-0.180	-0.288
-435.719	-94.892	-0.121	0.033
-434.705	105.152	-0.252	-0.298
-433.690	800.000	0.060	-0.194
-432.676	-123.058	0.210	0.034
-431.661	-13.633	-0.488	-0.317
-430.646	-200.000	-0.011	0.197
-429.632	-107.156	0.328	0.073
-428.617	-200.000	0.012	0.060
-427.603	319.742	0.024	-0.047
-426.588	-64.991	-0.149	-0.060
-425.573	-30.327	-0.056	-0.032
-424.559	-73.345	-0.323	-0.119
-423.544	-200.000	0.040	0.279
-422.530	-79.411	-0.310	0.105
-421.515	-49.474	0.015	-0.007
-420.500	-27.887	-0.108	0.063
-419.486	-200.000	-0.007	0.160
-418.471	-28.437	0.224	0.130
-417.457	-3.567	-0.193	-0.134
-416.442	-44.621	0.208	-0.104
-415.428	800.000	-0.141	0.477
-414.413	-200.000	0.005	0.254
-413.398	11.265	0.249	-0.191
-412.384	800.000	-0.141	0.422
-411.369	81.037	-0.059	0.064
-410.355	800.000	0.088	-0.294
-409.340	278.927	0.159	0.284
-408.325	-63.658	-0.041	-0.017
-407.311	-137.390	-0.119	0.014
-406.296	162.674	0.205	0.288
-405.282	61.292	-0.048	-0.048
-404.267	43.355	-0.105	-0.096
-403.252	166.909	0.202	0.287
-402.238	233.621	0.135	0.223
-401.223	-87.115	-0.214	-0.065
-400.209	-30.819	-0.281	-0.159
-399.194	100.995	0.104	0.121
-398.179	74.605	-0.182	0.192
-397.165	-114.237	-0.229	0.044
-396.150	-102.962	0.219	-0.052
-395.136	-110.322	-0.314	0.065
-394.121	263.907	-0.085	0.148
-393.106	800.000	-0.085	-0.301
-392.092	-144.818	-0.097	-0.009
-391.077	-48.380	-0.222	-0.107
-390.063	-149.814	-0.049	-0.004
-389.048	-115.211	-0.282	-0.053
-388.033	55.038	-0.160	0.154
-387.019	-59.004	0.140	0.061
-386.004	-108.608	0.049	0.011
-384.990	-108.018	0.120	0.026
-383.975	-45.514	0.173	0.086
-382.960	-51.593	0.275	-0.129
-381.946	-165.912	0.279	0.012
-380.931	-28.490	0.066	0.038
-379.917	-102.734	-0.207	-0.049
-378.902	-43.415	-0.219	0.111
-377.888	28.949	0.126	-0.107
-376.873	-200.000	0.060	-0.417
-375.858	-200.000	0.002	0.020
-374.844	33.708	0.086	0.075
-373.829	103.920	-0.066	-0.077
-372.815	-104.017	-0.364	-0.085
-371.800	-114.898	0.146	-0.028
-370.785	-126.768	-0.145	0.021
-369.771	14.922	-0.277	-0.217
-368.756	130.909	0.163	-0.209
-367.742	-25.140	-0.406	0.241
-366.727	-92.330	-0.046	0.013
-365.712	-111.344	-0.097	-0.020
-364.698	-116.797	0.134	0.025
-363.683	-30.355	0.157	0.089
-362.669	-84.988	0.120	-0.038
-361.654	-135.675	-0.199	0.024
-360.639	267.078	-0.109	0.191
-359.625	66.891	0.141	0.144
-358.610	76.547	0.197	0.208
-357.596	20.337	0.180	-0.145
-356.581	800.000	0.009	-0.033
-355.566	800.000	0.020	-0.058
-354.552	-143.245	0.123	-0.012
-353.537	442.968	0.003	0.006
-352.523	-80.128	-0.084	-0.028
-351.508	-16.577	0.058	-0.037
-350.493	461.413	-0.024	-0.053
-349.479	800.000	-0.048	0.139
-348.464	50.890	-0.152	-0.144
-347.450	27.719	0.181	-0.152
-346.435	-143.146	0.463	0.045
-345.420	137.448	0.069	0.090
-344.406	-116.059	-0.087	0.016
-343.391	-200.000	-0.050	0.324
-342.377	-73.726	-0.178	0.065
-341.362	-200.000	-0.003	-0.132
-340.348	204.346	0.159	0.246
-339.333	30.797	0.077	-0.066
-338.318	-135.548	-0.230	0.027
-337.304	-200.000	-0.028	0.203
-336.289	-200.000	0.067	0.319
-335.275	199.025	0.187	0.286
-334.260	6.629	-0.097	-0.072
-333.245	-200.000	-0.026	0.182
-332.231	-135.513	0.441	0.052
-331.216	-200.000	-0.008	-0.196
-330.202	800.000	0.087	-0.266
-329.187	294.196	0.112	-0.205
-328.172	147.388	-0.173	-0.233
-327.158	-200.000	0.036	0.163
-326.143	-65.246	-0.120	-0.048
-325.129	168.770	0.302	0.430
-324.114	-134.316	0.452	-0.055
-323.099	-200.000	-0.037	-0.203
-322.085	-200.000	-0.007	0.269
-321.070	552.194	0.024	-0.056
-320.056	-29.778	-0.174	0.099
-319.041	-22.347	0.114	0.069
-318.026	711.741	0.169	0.447
-317.012	-22.064	-0.315	0.191
-315.997	-200.000	-0.001	0.016
-314.983	-106.383	0.226	-0.050
-313.968	-177.603	0.216	0.005
-312.953	158.345	-0.074	-0.102
-311.939	320.824	0.106	-0.201
-310.924	27.180	0.121	-0.101
-309.910	-167.739	-0.265	-0.010
-308.895	362.300	-0.056	0.112
-307.880	485.459	0.036	-0.083
-306.866	-127.662	0.146	0.021
-305.851	-92.645	-0.123	0.034
-304.837	-200.000	-0.014	0.060
-303.822	680.363	0.195	-0.506
-302.807	345.451	-0.125	-0.244
-301.793	68.936	-0.243	-0.249
-300.778	-9.122	-0.263	0.176
-299.764	-61.726	-0.299	-0.125
-298.749	109.154	-0.297	-0.355
-297.735	-200.000	-0.010	-0.188
-296.720	-200.000	0.004	-0.111
-295.705	-78.512	0.306	-0.104
-294.691	170.229	0.070	-0.100
-293.676	-200.000	0.025	0.335
-292.662	800.000	0.064	0.221
-291.647	221.136	-0.132	0.211
-290.632	258.872	-0.060	-0.102
-289.618	800.000	0.069	0.212
-288.603	-200.000	-0.042	-0.229
-287.589	-200.000	0.033	0.163
-286.574	800.000	0.027	0.114
-285.559	11.508	0.195	-0.149
-284.545	800.000	0.101	-0.316
-283.530	-140.925	-0.224	0.023
-282.516	229.225	-0.135	0.220
-281.501	-200.000	-0.002	-0.135
-280.486	55.575	0.088	0.085
-279.472	-103.363	-0.501	-0.118
-278.457	-200.000	0.006	0.153
-277.443	800.000	0.026	0.075
-276.428	-200.000	-0.021	-0.124
-275.413	-192.428	0.105	-0.001
-274.399	34.680	0.104	0.091
-273.384	-22.707	0.254	0.153
-272.370	10.051	0.163	-0.124
-271.355	77.487	0.387	0.410
-270.340	-12.802	0.246	-0.160
-269.326	-33.146	-0.021	0.011
-268.311	-66.588	0.158	0.062
-267.297	-69.996	0.204	0.077
-266.282	433.059	0.088	-0.190
-265.267	800.000	0.020	-0.074
-264.253	383.131	-0.120	0.247
-263.238	800.000	-0.071	-0.261
-262.224	-34.278	0.207	0.113
-261.209	-50.987	-0.319	0.149
-260.195	-200.000	-0.005	0.624
-259.180	87.144	0.090	0.100
-258.165	212.985	0.065	0.102
-257.151	-200.000	-0.004	-0.127
-256.136	800.000	0.012	0.034
-255.122	25.005	-0.306	0.253
-254.107	-88.735	0.222	-0.066
-253.092	-5.950	0.203	0.138
-252.078	104.428	-0.256	0.300
-251.063	-200.000	-0.001	0.157
-250.049	3.340	0.077	-0.056
-249.034	366.441	0.072	-0.145
-248.019	-94.759	0.476	0.129
-247.005	656.754	0.056	-0.143
-245.990	387.710	0.098	0.202
-244.976	522.697	0.061	-0.143
-243.961	30.663	0.205	-0.175
-242.946	-30.190	0.426	-0.241
-241.932	-99.944	0.356	0.088
-240.917	97.470	0.122	-0.139
-239.903	24.761	-0.136	0.113
-238.888	-152.112	0.327	0.024
-237.873	-134.712	-0.112	-0.014
-236.859	-140.758	-0.522	-0.054
-235.844	-63.627	0.302	-0.123
-234.830	-200.000	-0.048	-0.454
-233.815	-44.741	0.259	-0.129
-232.800	-200.000	0.012	-0.227
-231.786	-97.174	0.431	0.112
-230.771	-200.000	-0.012	-0.459
-229.757	-70.913	-0.132	0.050
-228.742	800.000	-0.024	-0.084
-227.727	800.000	0.079	-0.253
-226.713	-123.562	0.240	-0.038
-225.698	-151.796	0.113	0.008
-224.684	800.000	-0.059	0.243
-223.669	-200.000	-0.042	0.262
-222.655	397.449	0.209	0.435
-221.640	-80.006	-0.230	0.077
-220.625	250.168	0.079	-0.134
-219.611	100.465	-0.122	-0.140
-218.596	-200.000	-0.026	0.140
-217.582	800.000	0.083	-0.231
-216.567	608.973	-0.133	0.329
-215.552	-200.000	0.041	0.254
-214.538	518.757	-0.073	-0.170
-213.523	-200.000	0.010	0.166
-212.509	119.566	0.179	-0.220
-211.494	-200.000	0.042	0.183
-210.479	-61.844	-0.105	0.044
-209.465	-200.000	0.002	-0.071
-208.450	-125.982	0.076	0.011
-207.436	800.000	-0.075	-0.323
-206.421	54.492	-0.065	-0.062
-205.406	-188.254	-0.273	-0.003
-204.392	-161.289	0.206	-0.011
-203.377	224.718	0.198	0.318
-202.363	-200.000	0.038	0.187
-201.348	800.000	0.026	-0.112
-200.333	26.319	-0.162	-0.135
-199.319	-2.508	0.161	-0.112
-198.304	206.326	0.097	-0.149
-197.290	-29.559	0.036	0.021
-196.275	-87.776	-0.299	-0.090
-195.260	-91.710	-0.401	-0.113
-194.246	-23.101	0.095	-0.057
-193.231	9.787	0.160	-0.121
-192.217	-112.323	-0.289	0.057
-191.202	-198.286	0.176	0.001
-190.187	54.432	0.215	0.205
-189.173	-44.032	0.088	-0.044
-188.158	-44.393	-0.159	-0.079
-187.144	127.941	0.103	0.130
-186.129	32.090	0.069	-0.059
-185.114	-200.000	0.027	0.222
-184.100	-200.000	-0.007	0.113
-183.085	476.343	0.027	-0.060
-182.071	-19.127	-0.186	0.115
-181.056	9.678	-0.147	-0.111
-180.042	576.532	0.143	-0.348
-179.027	-73.957	0.077	-0.028
-178.012	-101.782	0.094	-0.023
-176.998	407.386	0.144	-0.302
-175.983	-70.363	-0.071	-0.027
-174.969	41.667	0.075	0.067
-173.954	-1.610	0.407	0.285
-172.939	-200.000	-0.003	-0.109
-171.925	159.198	-0.110	0.153
-170.910	-200.000	0.061	-0.458
-169.896	14.587	0.209	-0.162
-168.881	800.000	0.028	0.114
-167.866	78.220	0.309	0.328
-166.852	-48.268	0.268	-0.128
-165.837	-21.165	0.280	0.170
-164.823	718.108	-0.128	0.338
-163.808	-200.000	0.019	-0.143
-162.793	-200.000	-0.041	0.336
-161.779	1.744	0.102	-0.073
-160.764	800.000	0.083	0.265
-159.750	-73.745	-0.047	0.017
-158.735	800.000	0.036	-0.123
-157.720	-150.763	0.214	-0.016
-156.706	800.000	0.145	0.503
-155.691	-81.577	-0.116	-0.038
-154.677	-200.000	-0.024	-0.164
-153.662	-114.061	-0.314	-0.060
-152.647	-13.481	-0.198	-0.127
-151.633	-200.000	-0.019	0.167
-150.618	68.805	-0.276	-0.281
-149.604	800.000	-0.088	0.289
-148.589	-29.098	-0.185	0.105
-147.574	368.878	-0.105	0.210
-146.560	519.742	0.153	0.356
-145.545	-48.864	0.136	0.065
-144.531	-136.247	0.196	-0.023
-143.516	-1.285	-0.383	-0.268
-142.502	-177.287	0.283	0.007
-141.487	-200.000	0.043	0.245
-140.472	-200.000	0.038	-0.305
-139.458	-42.041	-0.142	-0.072
-138.443	-128.647	-0.067	0.009
-137.429	1.619	-0.205	-0.146
-136.414	800.000	0.142	-0.463
-135.399	800.000	-0.041	-0.123
-134.385	800.000	0.017	-0.049
-133.370	800.000	0.022	0.071
-132.356	250.542	0.129	0.217
-131.341	59.926	0.136	0.133
-130.326	-13.314	0.371	0.238
-129.312	399.449	-0.088	0.183
-128.297	-200.000	0.016	0.100
-127.283	-116.783	0.239	0.043
-126.268	59.850	0.155	0.151
-125.253	244.239	-0.208	-0.347
-124.239	-104.482	0.326	0.075
-123.224	277.110	-0.034	-0.060
-122.210	-58.835	-0.256	0.110
-121.195	41.766	-0.241	0.216
-120.180	-163.879	0.068	-0.003
-119.166	800.000	-0.041	-0.153
-118.151	-90.850	-0.267	0.076
-117.137	-200.000	0.001	0.235
-116.122	-24.984	0.206	0.121
-115.107	-200.000	-0.060	-0.261
-114.093	185.925	-0.202	0.297
-113.078	-153.218	0.369	0.026
-112.064	-12.328	0.137	-0.089
-111.049	-80.621	-0.093	0.031
-110.034	-200.000	0.011	0.066
-109.020	-200.000	-0.019	-0.093
-108.005	-13.860	0.266	-0.170
-106.991	800.000	0.099	-0.284
-105.976	-126.622	-0.292	0.043
-104.962	-73.525	-0.177	-0.064
-103.947	18.904	-0.312	0.248
-102.932	-77.657	0.170	-0.058
-101.918	213.255	0.181	-0.284
-100.903	416.245	0.109	-0.230
-99.889	-169.446	0.212	0.008
-98.874	-4.560	-0.114	0.078
-97.859	-200.000	-0.056	0.272
-96.845	207.600	0.205	-0.317
-95.830	-200.000	0.020	0.123
-94.816	800.000	-0.010	-0.033
-93.801	-129.222	-0.265	-0.037
-92.786	-20.640	-0.124	0.075
-91.772	238.689	0.149	0.244
-90.757	67.985	0.021	-0.021
-89.743	-84.862	0.232	0.072
-88.728	185.949	-0.102	-0.150
-87.713	-200.000	-0.032	0.279
-86.699	67.975	-0.105	-0.106
-85.684	-62.301	0.208	-0.086
-84.670	-200.000	-0.062	0.378
-83.655	329.673	0.065	-0.125
-82.640	-200.000	0.001	-0.481
-81.626	-122.755	-0.042	-0.007
-80.611	26.641	-0.249	-0.207
-79.597	401.644	-0.069	0.144
-78.582	-164.599	-0.190	0.009
-77.567	193.475	-0.217	0.325
-76.553	603.392	0.132	0.325
-75.538	151.059	0.188	0.252
-74.524	-55.166	0.285	0.127
-73.509	-11.721	0.089	-0.058
-72.494	39.196	0.124	-0.109
-71.480	290.602	0.171	0.308
-70.465	47.252	-0.084	0.077
-69.451	60.287	0.234	0.228
-68.436	71.491	0.111	-0.114
-67.422	359.662	-0.065	0.129
-66.407	9.224	0.234	-0.175
-65.392	-37.842	-0.138	-0.073
-64.378	242.718	0.091	-0.151
-63.363	-10.535	-0.339	0.222
-62.349	165.583	-0.031	-0.044
-61.334	-4.416	-0.637	-0.435
-60.319	5.675	0.364	0.266
-59.305	800.000	-0.244	-0.814
-58.290	8.668	1.192	0.887
-57.276	788.020	0.557	1.511
-56.261	-200.000	98.249	595.071
-55.246	611.584	1432.484	3539.184
-54.232	181.687	2640.955	3840.001
-53.217	118.001	2215.096	2696.509
-52.203	43.741	1742.727	1575.841
-51.188	36.411	1554.132	1354.095
-50.173	34.008	1527.376	1314.147
-49.159	53.662	1577.879	1496.060
-48.144	55.964	1596.326	1529.649
-47.130	36.781	1552.958	1355.453
-46.115	33.543	1537.467	1319.384
-45.100	33.385	1534.189	1315.420
-44.086	33.275	1532.473	1313.134
-43.071	33.321	1530.174	1311.432
-42.057	33.258	1528.463	1309.478
-41.042	33.339	1527.344	1309.025
-40.027	33.279	1525.843	1307.274
-39.013	33.200	1524.825	1305.806
-37.998	33.261	1523.415	1304.969
-36.984	33.249	1522.613	1304.144
-35.969	33.298	1520.748	1302.836
-34.954	33.237	1519.664	1301.434
-33.940	33.288	1518.079	1300.373
-32.925	33.320	1516.738	1299.392
-31.911	33.305	1515.258	1297.974
-30.896	33.280	1513.808	1296.503
-29.881	33.302	1512.670	1295.629
-28.867	33.321	1511.313	1294.546
-27.852	33.270	1510.004	1293.026
-26.838	33.275	1508.441	1291.669
-25.823	33.284	1506.888	1290.351
-24.809	33.241	1505.726	1289.011
-23.794	33.326	1503.559	1287.687
-22.779	33.287	1502.816	1286.729
-21.765	33.312	1501.768	1285.952
-20.750	33.292	1500.329	1284.535
-19.736	33.340	1499.275	1283.905
-18.721	33.276	1498.245	1282.541
-17.706	33.369	1496.895	1281.961
-16.692	33.178	1496.262	1280.077
-15.677	33.296	1494.852	1279.620
-14.663	33.305	1494.144	1279.024
-13.648	33.214	1493.503	1277.807
-12.633	33.262	1492.353	1277.095
-11.619	33.303	1491.571	1276.654
-10.604	33.212	1490.634	1275.186
-9.590	33.203	1489.418	1274.039
-8.575	33.275	1488.606	1273.774
-7.560	33.241	1488.124	1273.082
-6.546	33.267	1487.272	1272.480
-5.531	33.184	1486.203	1270.957
-4.517	33.207	1485.110	1270.125
-3.502	33.251	1484.006	1269.429
-2.487	33.209	1482.870	1268.119
-1.473	33.123	1482.419	1267.111
-0.458	33.119	1480.861	1265.700
0.556	35.493	1471.289	1256.887
1.571	32.561	1444.913	1215.362
2.586	28.765	1382.138	1138.972
3.600	26.913	1297.165	1058.066
4.615	24.729	1250.040	1007.252
5.629	20.774	1191.709	938.883
6.644	12.431	1105.635	829.077
7.659	5.729	1064.766	765.708
8.673	4.781	1058.595	756.597
9.688	4.557	1055.525	753.249
10.702	4.371	1053.961	751.168
11.717	4.472	1052.575	750.603
12.731	7.651	1055.762	768.198
13.746	16.127	1067.457	817.908
14.761	21.896	1074.517	851.328
15.775	22.293	1074.242	852.961
16.790	21.614	1072.988	848.599
17.804	20.570	1070.550	841.545
18.819	19.733	1068.516	835.826
19.834	19.211	1067.376	832.340
20.848	19.035	1066.645	830.847
21.863	19.061	1065.891	830.309
22.877	18.909	1065.341	829.076
23.892	18.696	1064.221	827.105
24.907	18.697	1063.664	826.603
25.921	18.697	1062.649	825.740
26.936	18.602	1062.133	824.812
27.950	18.526	1061.002	823.494
28.965	18.526	1060.207	822.805
29.980	18.638	1058.903	822.258
30.994	19.039	1057.440	822.964
32.009	19.023	1056.739	822.270
33.023	19.013	1056.548	822.002
34.038	18.991	1055.457	820.975
35.053	18.897	1054.686	819.853
36.067	18.716	1053.945	818.345
37.082	18.761	1052.641	817.474
38.096	18.779	1051.527	816.622
39.111	18.858	1051.434	816.853
40.126	18.897	1050.728	816.418
41.140	18.710	1049.594	814.576
42.155	18.578	1047.729	812.430
43.169	18.351	1046.902	810.642
44.184	18.254	1045.597	809.104
45.199	18.209	1044.940	808.311
46.213	18.305	1043.910	807.897
47.228	18.442	1042.877	807.670
48.242	18.704	1042.194	808.304
49.257	18.886	1041.535	808.575
50.271	18.674	1040.287	806.538
51.286	18.823	1039.574	806.617
52.301	18.880	1038.567	806.031
53.315	18.785	1038.194	805.226
54.330	18.732	1037.036	804.007
55.344	18.469	1036.315	802.146
56.359	18.387	1034.948	800.634
57.374	18.519	1033.995	800.442
58.388	18.442	1033.452	799.590
59.403	18.347	1032.739	798.527
60.417	18.269	1031.673	797.268
61.432	18.258	1030.889	796.539
62.447	18.253	1030.300	795.989
63.461	18.196	1029.489	795.030
64.476	18.237	1027.992	793.991
65.490	18.110	1027.187	792.712
66.505	18.181	1026.181	792.195
67.520	18.062	1025.829	791.303
68.534	18.256	1024.817	791.348
69.549	18.178	1024.069	790.339
70.563	18.253	1023.639	790.287
71.578	18.182	1022.638	789.116
72.593	18.059	1021.815	787.845
73.607	17.926	1020.763	786.350
74.622	17.880	1020.173	785.612
75.636	17.972	1018.942	785.020
76.651	18.200	1017.761	785.086
77.666	18.060	1017.652	784.288
78.680	18.036	1016.871	783.509
79.695	18.103	1016.036	783.102
80.709	18.097	1015.957	782.944
81.724	18.300	1015.050	783.106
82.739	18.356	1014.186	782.626
83.753	18.516	1013.530	782.781
84.768	18.571	1013.433	782.890
85.782	18.914	1012.596	783.734
86.797	19.094	1012.002	784.025
87.812	19.071	1011.497	783.461
88.826	18.843	1010.462	781.555
89.841	18.821	1009.909	780.957
90.855	18.855	1008.707	780.111
91.870	19.018	1008.067	780.291
92.884	19.117	1007.247	780.032
93.899	18.936	1006.812	778.808
94.914	19.052	1005.960	778.604
95.928	19.040	1005.199	777.890
96.943	19.104	1004.252	777.379
97.957	18.943	1003.551	776.041
98.972	18.763	1002.953	774.698
99.987	18.879	1001.998	774.418
101.001	19.001	1001.136	774.231
102.016	18.980	1000.356	773.466
103.030	18.889	999.272	772.147
104.045	18.876	998.587	771.493
105.060	19.015	997.299	771.050
106.074	18.700	996.577	769.015
107.089	18.538	995.569	767.442
108.103	18.404	994.276	765.779
109.118	18.400	992.854	764.599
110.133	18.380	992.215	763.950
111.147	18.346	991.495	763.178
112.162	18.222	991.009	762.184
113.176	18.285	989.801	761.466
114.191	18.359	989.090	761.180
115.206	18.463	988.435	761.072
116.220	18.429	987.505	760.137
117.235	18.316	986.426	758.740
118.249	18.335	986.043	758.463
119.264	18.266	984.960	757.256
120.279	18.300	984.179	756.737
121.293	18.236	983.173	755.615
122.308	18.163	982.659	754.830
123.322	18.163	981.519	753.890
124.337	17.928	980.561	752.053
125.352	17.877	979.344	750.829
126.366	18.097	977.683	750.453
127.381	18.061	976.942	749.661
128.395	17.985	976.040	748.568
129.410	18.020	975.455	748.207
130.424	18.158	974.308	747.866
131.439	18.136	973.690	747.229
132.454	18.131	973.522	747.010
133.468	18.356	972.674	747.277
134.483	18.413	972.001	746.943
135.497	18.639	970.631	746.805
136.512	18.414	970.037	745.306
137.527	18.358	969.694	744.731
138.541	18.380	968.687	743.991
139.556	18.342	968.530	743.636
140.570	18.399	967.565	743.078
141.585	18.565	966.823	743.162
142.600	18.998	965.869	744.237
143.614	19.002	965.321	743.764
144.629	19.019	964.475	743.123
145.643	19.081	964.082	743.020
146.658	18.933	963.577	741.926
147.673	18.761	962.136	740.009
148.687	18.538	961.321	738.357
149.702	18.445	960.477	737.245
150.716	18.442	959.052	736.071
151.731	18.530	958.173	735.711
152.746	18.385	957.955	734.854
153.760	18.473	957.167	734.565
154.775	18.515	956.101	733.861
155.789	18.687	955.346	733.951
156.804	18.710	954.781	733.549
157.819	18.704	953.821	732.722
158.833	18.672	953.411	732.206
159.848	18.852	952.865	732.489
160.862	18.938	952.489	732.503
161.877	18.935	951.531	731.688
162.892	18.667	950.382	729.599
163.906	18.445	948.993	727.526
164.921	18.281	948.740	726.574
165.935	18.424	947.391	726.083
166.950	18.445	946.799	725.654
167.964	18.565	945.977	725.465
168.979	18.746	944.425	724.974
169.994	18.545	943.604	723.435
171.008	18.550	942.865	722.823
172.023	18.606	941.592	722.022
173.037	18.777	941.420	722.544
174.052	18.894	940.675	722.399
175.067	18.895	940.469	722.182
176.081	18.669	938.885	719.953
177.096	18.414	938.207	718.299
178.110	18.497	937.367	717.943
179.125	18.443	936.931	717.318
180.140	18.611	935.870	717.143
181.154	18.717	934.952	716.822
182.169	18.746	934.805	716.766
183.183	18.898	934.291	716.943
184.198	18.999	933.497	716.691
185.213	19.009	932.816	716.145
186.227	19.006	932.116	715.533
187.242	18.908	932.153	715.088
188.256	19.097	931.140	715.034
189.271	19.261	930.398	715.082
190.286	19.221	929.697	714.316
191.300	18.884	928.944	712.278
192.315	18.597	927.697	710.069
193.329	18.170	927.037	707.734
194.344	18.465	926.229	708.274
195.359	18.467	925.838	707.922
196.373	18.707	925.357	708.481
197.388	18.752	925.003	708.331
198.402	18.969	924.736	708.961
199.417	19.074	924.193	708.914
200.432	19.316	923.791	709.540
201.446	19.447	923.340	709.667
202.461	19.495	923.212	709.704
203.475	19.495	923.042	709.514
204.490	19.437	922.060	708.457
205.504	19.366	920.495	706.901
206.519	19.022	920.034	705.073
207.534	19.111	918.819	704.443
208.548	19.061	918.159	703.670
209.563	18.987	918.001	703.187
210.577	19.042	917.279	702.793
211.592	19.120	916.487	702.446
212.607	19.242	916.169	702.636
213.621	19.368	915.901	702.883
214.636	19.386	915.125	702.298
215.650	19.321	914.308	701.343
216.665	19.290	913.704	700.694
217.680	19.464	912.857	700.686
218.694	19.404	913.037	700.522
219.709	19.509	912.225	700.260
220.723	19.459	911.683	699.579
221.738	19.471	910.869	698.941
222.753	19.453	909.962	698.112
223.767	19.300	909.495	697.072
224.782	19.465	908.593	696.986
225.796	19.549	907.999	696.809
226.811	19.698	907.257	696.777
227.826	19.704	906.382	696.069
228.840	19.372	905.916	694.314
229.855	19.386	905.294	693.830
230.869	19.375	904.425	693.061
231.884	19.287	904.156	692.439
232.899	19.372	902.777	691.662
233.913	19.208	902.419	690.669
234.928	19.178	901.523	689.802
235.942	19.174	901.013	689.335
236.957	19.126	899.901	688.232
237.972	19.102	899.859	688.040
238.986	19.205	898.728	687.527
240.001	19.104	898.431	686.836
241.015	19.231	897.576	686.627
242.030	19.415	897.373	687.146
243.045	19.288	896.887	686.205
244.059	19.395	896.123	685.986
245.074	19.410	895.558	685.555
246.088	19.563	894.829	685.541
247.103	19.595	894.265	685.177
248.117	19.647	893.835	684.992
249.132	19.772	893.555	685.214
250.147	19.936	893.384	685.671
251.161	20.309	892.672	686.540
252.176	20.223	891.934	685.571
253.190	20.461	891.146	685.847
254.205	20.360	890.920	685.210
255.220	20.269	890.673	684.600
256.234	20.299	889.602	683.837
257.249	20.314	889.070	683.427
258.263	20.225	888.630	682.675
259.278	20.295	887.742	682.209
260.293	20.304	887.204	681.771
261.307	20.358	886.975	681.746
262.322	20.383	886.221	681.206
263.336	20.345	886.431	681.157
264.351	20.596	884.824	680.845
265.366	20.494	884.531	680.160
266.380	20.540	883.553	679.529
267.395	20.508	882.907	678.845
268.409	20.284	882.230	677.392
269.424	20.153	881.902	676.569
270.439	20.216	880.893	675.981
271.453	20.325	879.796	675.502
272.468	20.080	879.293	674.104
273.482	20.110	878.543	673.585
274.497	20.122	878.290	673.380
275.512	20.207	877.109	672.741
276.526	20.128	876.562	671.958
277.541	20.127	875.815	671.321
278.555	20.313	875.077	671.417
279.570	20.446	874.864	671.708
280.585	20.633	874.418	672.030
281.599	20.544	874.101	671.383
282.614	20.444	873.410	670.405
283.628	20.242	872.558	668.911
284.643	20.201	872.132	668.370
285.657	20.453	871.351	668.682
286.672	20.342	870.873	667.828
287.687	20.367	870.519	667.596
288.701	20.435	869.871	667.299
289.716	20.367	869.170	666.444
290.730	20.440	868.592	666.219
291.745	20.372	868.270	665.655
292.760	20.511	867.096	665.226
293.774	20.278	867.168	664.331
294.789	20.665	866.390	665.157
295.803	20.601	866.348	664.819
296.818	20.567	865.055	663.640
297.833	20.433	863.886	662.174
298.847	20.254	863.830	661.390
299.862	20.417	863.211	661.477
300.876	20.387	862.662	660.884
301.891	20.607	861.840	661.032
302.906	20.700	861.436	661.016
303.920	20.707	861.009	660.658
304.935	20.856	860.334	660.647
305.949	21.028	859.766	660.803
306.964	21.029	858.859	660.050
307.979	20.922	857.757	658.740
308.993	20.850	857.636	658.317
310.008	20.844	857.568	658.186
311.022	20.946	856.807	657.929
312.037	20.941	856.329	657.486
313.052	20.771	855.721	656.317
314.066	20.613	854.771	654.938
315.081	20.468	853.908	653.673
316.095	20.404	854.052	653.483
317.110	20.365	853.438	652.808
318.125	20.478	852.639	652.565
319.139	20.463	852.454	652.311
320.154	20.485	851.553	651.643
321.168	20.550	850.859	651.300
322.183	20.551	850.186	650.731
323.197	20.538	849.941	650.435
324.212	20.717	849.415	650.646
325.227	20.650	848.762	649.838
326.241	20.650	848.309	649.433
327.256	20.696	847.620	649.020
328.270	20.517	847.541	648.235
329.285	20.599	846.311	647.540
330.300	20.591	846.162	647.340
331.314	20.669	845.470	647.043
332.329	20.513	845.080	646.108
333.343	20.752	844.015	646.126
334.358	20.909	843.853	646.525
335.373	20.893	843.308	645.993
336.387	20.948	842.922	645.843
337.402	20.926	842.526	645.398
338.416	21.018	841.906	645.208
339.431	21.236	841.222	645.432
340.446	21.257	840.873	645.187
341.460	21.407	840.512	645.407
342.475	21.637	839.462	645.390
343.489	21.380	839.162	644.154
344.504	21.425	839.093	644.212
345.519	21.396	838.893	643.894
346.533	21.610	838.271	644.146
347.548	21.678	837.568	643.797
348.562	21.483	836.721	642.375
349.577	21.279	835.648	640.748
350.592	21.144	835.077	639.757
351.606	21.078	834.450	638.978
352.621	21.016	834.024	638.370
353.635	20.928	833.993	637.967
354.650	20.982	833.298	637.576
355.665	21.022	833.063	637.487
356.679	21.197	832.928	637.967
357.694	21.272	832.188	637.614
358.708	21.382	831.951	637.779
359.723	21.161	831.044	636.224
360.738	21.388	830.307	636.428
361.752	21.102	830.102	635.174
362.767	21.386	829.380	635.599
363.781	21.301	829.177	635.079
364.796	21.547	828.791	635.619
365.810	21.654	828.290	635.567
366.825	21.805	828.300	636.068
367.840	21.844	827.806	635.771
368.854	21.712	827.577	635.062
369.869	21.539	826.880	633.844
370.883	21.684	825.936	633.588
371.898	21.733	825.403	633.302
372.913	21.780	825.029	633.126
373.927	21.820	824.185	632.567
374.942	21.727	823.604	631.730
375.956	21.659	823.198	631.118
376.971	21.873	822.625	631.394
377.986	21.889	822.175	631.051
379.000	22.030	821.935	631.318
380.015	22.008	821.367	630.746
381.029	22.062	821.051	630.642
382.044	21.983	819.999	629.493
383.059	21.953	819.495	628.945
384.073	21.991	819.260	628.844
385.088	21.993	818.601	628.289
386.102	21.790	818.026	627.067
387.117	21.649	817.299	625.948
388.132	21.660	816.618	625.412
389.146	21.518	816.244	624.564
390.161	21.700	815.903	624.899
391.175	21.902	815.354	625.141
392.190	21.906	815.472	625.191
393.205	21.999	814.359	624.614
394.219	21.814	814.257	623.819
395.234	21.756	813.634	623.080
396.248	21.650	812.816	622.023
397.263	21.672	812.133	621.526
398.278	21.426	812.037	620.524
399.292	21.493	811.357	620.185
400.307	21.524	811.176	620.103
401.321	21.456	810.609	619.373
402.336	21.574	810.512	619.662
403.350	21.653	809.839	619.372
404.365	21.627	809.652	619.084
405.380	21.865	809.138	619.474
406.394	21.837	809.045	619.251
407.409	22.203	808.283	619.905
408.423	22.143	807.879	619.327
409.438	22.316	807.290	619.433
410.453	22.149	807.496	618.948
411.467	22.310	806.805	618.929
412.482	22.450	806.323	618.995
413.496	22.658	805.537	619.067
414.511	22.592	805.122	618.461
415.526	22.499	805.304	618.222
416.540	22.444	804.979	617.723
417.555	22.441	803.924	616.849
418.569	22.412	803.593	616.437
419.584	22.488	803.293	616.421
420.599	22.358	802.500	615.302
421.613	160.688	1368.967	1792.784
422.628	139.611	1451.519	1792.887
