DTS Sentinel unit serial number:	SN413079Multiplexer serial number:	ORYXHardware model number:	OX4-SRSoftware version number:	ORYX F/W v4.00 Oryx Data Collector v3.7.2.0data status	okinstallation	princeton_trtdifferential loss correction	single-endedforward channel	channel 3reverse channel	N/Adate	2019/09/12time	05:46:11forward acquisition time	60.00reverse acquisition time	0.00gamma	496.2192k internal	0.2321k external	0.2321temperature offset calibration	1.0032default loss term (dB/km)	0.3790temperature slope calibration	1.0000multiplexer offset coefficient	1.0000multiplexer slope coefficient	1.0000fibre end	0.00T internal ref (°C)	32.02T ext. ref 1 (°C)	1.58T ext. ref 2 (°C)	27.53length (m)	temperature (°C)	Stokes	anti-Stokes-747.200	27.475	-0.108	-0.091
-746.185	173.634	0.148	0.216
-745.171	-176.081	0.092	-0.002
-744.156	-25.532	-0.126	0.075
-743.142	-45.480	0.406	0.203
-742.127	56.671	-0.178	0.175
-741.112	71.690	-0.125	0.131
-740.098	-126.697	0.173	-0.026
-739.083	398.137	-0.096	-0.204
-738.069	-27.843	-0.251	0.147
-737.054	59.472	-0.178	-0.177
-736.039	137.396	-0.220	-0.291
-735.025	800.000	-0.035	0.141
-734.010	44.334	-0.079	-0.073
-732.996	2.457	-0.245	0.179
-731.981	692.866	0.087	0.229
-730.966	-148.040	-0.079	0.007
-729.952	800.000	-0.020	-0.077
-728.937	-82.089	-0.033	0.011
-727.923	-153.097	-0.107	0.008
-726.908	-200.000	0.016	-0.132
-725.894	-81.954	-0.315	-0.104
-724.879	-200.000	0.067	-0.317
-723.864	-131.015	0.139	-0.019
-722.850	89.786	-0.057	-0.065
-721.835	679.113	0.066	0.173
-720.821	-14.184	0.076	-0.049
-719.806	18.918	-0.133	-0.108
-718.791	37.424	0.320	-0.287
-717.777	-62.233	-0.162	-0.068
-716.762	-98.847	-0.352	0.090
-715.748	-200.000	-0.021	0.148
-714.733	-114.779	-0.162	0.031
-713.718	-200.000	-0.023	0.169
-712.704	800.000	0.069	-0.230
-711.689	55.798	-0.115	0.112
-710.675	151.258	-0.141	0.194
-709.660	-49.999	0.350	0.168
-708.645	-138.746	-0.149	-0.016
-707.631	53.282	-0.183	0.177
-706.616	27.270	-0.024	0.020
-705.602	1.993	-0.229	0.167
-704.587	21.416	0.243	-0.200
-703.572	97.301	0.249	-0.289
-702.558	-200.000	0.073	-0.325
-701.543	-28.805	0.390	-0.226
-700.529	253.388	-0.226	-0.389
-699.514	138.809	-0.109	0.145
-698.499	-66.913	0.289	-0.115
-697.485	243.869	-0.189	0.320
-696.470	-118.036	-0.209	0.038
-695.456	800.000	-0.047	-0.136
-694.441	-200.000	0.012	-0.373
-693.426	438.508	0.137	0.301
-692.412	800.000	0.074	-0.230
-691.397	139.555	-0.182	0.242
-690.383	315.697	-0.096	-0.182
-689.368	393.915	-0.089	-0.186
-688.354	37.732	-0.169	0.151
-687.339	-90.961	0.521	0.151
-686.324	-85.178	0.233	0.074
-685.310	-173.152	0.331	0.010
-684.295	8.605	0.275	-0.209
-683.281	526.603	-0.078	0.185
-682.266	800.000	0.104	0.408
-681.251	-9.780	0.132	-0.088
-680.237	741.753	-0.050	0.135
-679.222	295.107	0.046	0.085
-678.208	138.198	-0.066	-0.087
-677.193	-14.963	0.033	0.021
-676.178	106.070	0.103	-0.123
-675.164	51.179	-0.213	-0.204
-674.149	-200.000	-0.048	-0.227
-673.135	-108.835	0.306	-0.066
-672.120	-26.995	0.065	-0.038
-671.105	-200.000	-0.040	-0.223
-670.091	-136.786	0.084	-0.010
-669.076	640.510	0.045	-0.116
-668.062	-48.338	-0.329	0.160
-667.047	-13.091	0.247	0.162
-666.032	800.000	0.046	0.135
-665.018	61.731	-0.241	0.242
-664.003	145.930	0.119	-0.161
-662.989	-87.837	-0.072	0.022
-661.974	-105.312	0.155	-0.036
-660.959	-91.095	-0.063	-0.018
-659.945	-34.584	-0.318	-0.175
-658.930	-64.737	0.223	-0.091
-657.916	-200.000	-0.001	0.220
-656.901	392.642	0.078	-0.163
-655.886	-200.000	0.035	0.266
-654.872	-121.716	-0.146	-0.024
-653.857	800.000	-0.045	-0.195
-652.843	-120.510	0.152	-0.026
-651.828	190.412	0.018	0.026
-650.814	800.000	0.013	-0.049
-649.799	52.491	-0.249	-0.239
-648.784	120.139	0.127	0.158
-647.770	-102.461	0.146	-0.035
-646.755	-200.000	0.032	0.247
-645.741	-200.000	0.001	0.371
-644.726	-49.631	-0.076	0.037
-643.711	800.000	-0.018	0.055
-642.697	-64.909	0.302	-0.123
-641.682	262.517	0.085	0.149
-640.668	-107.030	-0.123	0.027
-639.653	-171.040	-0.449	-0.015
-638.638	648.701	0.063	-0.163
-637.624	-70.151	0.149	0.057
-636.609	17.012	-0.072	0.058
-635.595	270.683	0.195	0.346
-634.580	-34.173	-0.011	-0.006
-633.565	125.833	-0.170	0.216
-632.551	-198.785	-0.185	0.001
-631.536	212.686	0.156	-0.247
-630.522	-32.965	0.115	-0.065
-629.507	19.684	-0.147	0.119
-628.492	800.000	-0.093	0.293
-627.478	96.834	-0.149	0.171
-626.463	800.000	0.062	-0.262
-625.449	666.969	-0.144	-0.375
-624.434	800.000	-0.068	0.277
-623.419	-70.911	-0.224	0.085
-622.405	-28.099	-0.108	-0.063
-621.390	103.308	0.149	0.176
-620.376	-130.898	0.170	-0.023
-619.361	-25.747	0.046	-0.027
-618.346	25.589	0.106	0.089
-617.332	132.549	-0.148	0.193
-616.317	-24.037	0.344	-0.207
-615.303	-73.455	-0.240	0.088
-614.288	268.859	0.130	-0.229
-613.273	-118.291	0.438	0.078
-612.259	38.990	-0.210	0.189
-611.244	-200.000	0.026	-0.250
-610.230	275.699	-0.111	-0.198
-609.215	165.276	-0.094	0.133
-608.201	-200.000	0.008	0.077
-607.186	-200.000	-0.065	-0.384
-606.171	57.220	-0.120	-0.118
-605.157	-187.526	-0.094	0.001
-604.142	436.751	-0.021	0.047
-603.128	94.648	0.270	-0.309
-602.113	153.158	-0.135	-0.185
-601.098	221.744	0.021	-0.034
-600.084	-49.471	0.109	-0.052
-599.069	-200.000	-0.011	-0.343
-598.055	-71.004	-0.222	-0.084
-597.040	-162.756	-0.092	0.005
-596.025	-31.964	0.424	-0.238
-595.011	-164.378	0.169	-0.008
-593.996	-51.302	0.189	-0.089
-592.982	-40.213	-0.128	0.067
-591.967	-156.710	-0.067	-0.004
-590.952	-74.140	-0.319	-0.116
-589.938	-200.000	-0.016	0.425
-588.923	141.926	-0.176	0.235
-587.909	-117.112	-0.125	-0.023
-586.894	20.132	0.234	0.190
-585.879	189.844	0.162	0.245
-584.865	118.967	-0.237	-0.294
-583.850	-95.907	0.187	-0.050
-582.836	-6.786	-0.157	0.107
-581.821	-147.988	0.268	0.022
-580.806	-114.788	-0.114	-0.022
-579.792	800.000	0.075	-0.324
-578.777	125.599	-0.214	-0.272
-577.763	47.506	-0.162	-0.151
-576.748	21.378	-0.050	0.041
-575.733	271.385	0.128	-0.226
-574.719	27.989	0.632	-0.536
-573.704	-200.000	0.004	0.131
-572.690	-64.596	-0.149	0.061
-571.675	157.921	0.092	-0.128
-570.661	800.000	0.001	-0.006
-569.646	-126.639	0.092	-0.014
-568.631	32.499	0.165	-0.143
-567.617	-139.505	-0.185	-0.020
-566.602	25.995	0.042	-0.035
-565.588	-128.717	-0.092	-0.013
-564.573	-78.974	-0.327	-0.112
-563.558	-37.313	-0.117	0.063
-562.544	-34.568	0.416	-0.229
-561.529	-200.000	-0.008	0.353
-560.515	13.991	0.105	-0.082
-559.500	460.866	0.097	-0.217
-558.485	-187.671	0.152	0.002
-557.471	-138.451	-0.683	-0.076
-556.456	-118.954	0.133	0.023
-555.442	-3.576	0.155	-0.108
-554.427	15.558	-0.063	-0.049
-553.412	800.000	-0.078	-0.271
-552.398	-200.000	-0.050	0.304
-551.383	800.000	-0.168	0.486
-550.369	-79.121	0.105	0.036
-549.354	264.078	-0.021	-0.036
-548.339	-94.427	0.071	0.019
-547.325	14.934	-0.281	-0.220
-546.310	800.000	-0.101	-0.378
-545.296	800.000	0.027	0.118
-544.281	-200.000	-0.015	-0.247
-543.266	191.006	-0.191	-0.289
-542.252	738.210	-0.050	-0.135
-541.237	749.946	-0.033	0.089
-540.223	4.830	-0.274	0.202
-539.208	-5.613	0.035	-0.024
-538.193	-119.773	-0.278	0.048
-537.179	-40.783	-0.314	0.163
-536.164	-155.192	-0.137	0.009
-535.150	800.000	0.017	0.050
-534.135	64.244	-0.181	-0.183
-533.121	-103.417	-0.172	-0.040
-532.106	-30.993	-0.083	0.047
-531.091	-9.667	0.203	-0.136
-530.077	-38.794	0.090	-0.048
-529.062	41.799	0.123	-0.112
-528.048	-200.000	0.036	0.271
-527.033	-200.000	-0.021	-0.239
-526.018	56.030	-0.052	-0.051
-525.004	-60.874	-0.333	-0.141
-523.989	44.591	-0.020	-0.018
-522.975	-200.000	0.025	0.198
-521.960	111.619	-0.097	-0.118
-520.945	800.000	-0.050	-0.192
-519.931	552.820	-0.081	0.194
-518.916	-55.441	-0.231	-0.104
-517.902	-77.994	-0.162	-0.056
-516.887	63.148	0.166	0.167
-515.872	-125.996	0.229	-0.034
-514.858	144.021	-0.212	0.284
-513.843	178.384	-0.090	0.131
-512.829	243.110	-0.070	-0.118
-511.814	-200.000	0.045	0.256
-510.799	168.555	0.039	0.055
-509.785	-195.927	-0.116	0.001
-508.770	-17.734	0.024	-0.015
-507.756	307.123	0.161	0.301
-506.741	800.000	-0.085	0.348
-505.726	-200.000	-0.009	0.171
-504.712	184.328	-0.129	0.192
-503.697	-75.973	0.068	0.024
-502.683	-87.620	0.155	0.047
-501.668	-200.000	0.085	-0.394
-500.653	1.132	0.025	-0.018
-499.639	-3.974	0.117	-0.081
-498.624	-102.868	-0.400	-0.095
-497.610	-74.515	0.080	0.029
-496.595	-28.726	-0.172	-0.099
-495.581	88.258	0.170	-0.189
-494.566	-200.000	0.014	0.198
-493.551	521.503	-0.048	-0.112
-492.537	800.000	0.139	0.416
-491.522	107.397	-0.049	0.058
-490.508	54.617	0.304	-0.293
-489.493	12.929	0.138	-0.106
-488.478	-58.798	0.089	-0.039
-487.464	-10.176	-0.125	0.083
-486.449	800.000	-0.051	0.147
-485.435	-47.271	0.270	0.132
-484.420	-200.000	-0.024	0.326
-483.405	395.015	-0.040	0.084
-482.391	-74.230	0.006	0.002
-481.376	-38.020	0.088	0.047
-480.362	133.509	-0.247	-0.320
-479.347	39.116	0.009	-0.008
-478.332	66.940	0.237	0.241
-477.318	-30.748	0.299	0.169
-476.303	-113.714	-0.097	-0.019
-475.289	123.834	0.097	0.121
-474.274	800.000	-0.082	-0.244
-473.259	-117.597	0.060	0.011
-472.245	170.116	-0.156	0.223
-471.230	-83.437	-0.197	0.063
-470.216	249.449	-0.181	-0.307
-469.201	-157.380	-0.232	-0.014
-468.186	103.891	0.182	-0.214
-467.172	-183.317	-0.343	-0.006
-466.157	345.287	-0.073	-0.144
-465.143	91.494	-0.235	-0.264
-464.128	370.519	0.048	0.098
-463.113	116.272	-0.067	-0.083
-462.099	-90.388	0.205	0.059
-461.084	-200.000	0.021	0.379
-460.070	280.204	0.093	-0.167
-459.055	51.791	-0.242	0.230
-458.040	65.212	-0.176	-0.178
-457.026	-88.944	-0.239	-0.071
-456.011	-133.138	0.217	0.027
-454.997	800.000	-0.047	-0.156
-453.982	800.000	-0.105	-0.455
-452.968	-108.857	-0.175	0.037
-451.953	-200.000	0.073	-0.418
-450.938	98.058	-0.115	0.132
-449.924	469.081	-0.082	-0.183
-448.909	-176.153	0.059	0.002
-447.895	800.000	0.122	0.337
-446.880	-200.000	-0.010	0.123
-445.865	-122.853	-0.334	0.054
-444.851	239.588	0.108	0.179
-443.836	-58.700	-0.058	0.025
-442.822	-200.000	-0.038	-0.243
-441.807	-35.436	-0.207	0.112
-440.792	31.622	-0.201	0.172
-439.778	-102.971	0.357	-0.085
-438.763	432.397	0.079	-0.171
-437.749	260.980	-0.193	0.334
-436.734	110.494	-0.106	-0.127
-435.719	-200.000	-0.091	0.425
-434.705	-137.190	-0.032	-0.004
-433.690	-85.478	0.223	-0.069
-432.676	2.527	0.116	-0.084
-431.661	-105.583	-0.142	-0.032
-430.646	320.891	0.118	0.224
-429.632	-200.000	0.028	0.174
-428.617	-164.140	0.130	-0.006
-427.603	-95.846	0.187	-0.050
-426.588	-127.808	0.189	0.027
-425.573	-200.000	-0.003	0.317
-424.559	67.375	0.242	0.246
-423.544	328.764	-0.050	0.097
-422.530	800.000	0.029	0.084
-421.515	-89.037	-0.130	0.038
-420.500	190.525	0.095	-0.143
-419.486	2.987	0.256	-0.186
-418.471	-56.253	-0.119	0.053
-417.457	-153.269	0.209	-0.015
-416.442	-41.868	-0.260	-0.133
-415.428	800.000	-0.049	0.168
-414.413	-88.865	-0.291	0.086
-413.398	-142.383	0.155	-0.015
-412.384	800.000	0.074	0.301
-411.369	-151.481	-0.232	0.017
-410.355	247.254	0.158	-0.267
-409.340	-200.000	-0.012	0.134
-408.325	800.000	0.081	0.248
-407.311	-20.152	0.135	0.083
-406.296	465.834	0.153	-0.343
-405.282	-67.175	-0.436	-0.171
-404.267	-22.099	0.315	-0.191
-403.252	-150.855	-0.230	-0.017
-402.238	-200.000	-0.037	-0.253
-401.223	-130.983	-0.170	-0.023
-400.209	446.437	0.085	0.186
-399.194	-200.000	0.008	-0.051
-398.179	-84.577	0.422	-0.133
-397.165	320.392	0.052	0.099
-396.150	-156.598	-0.152	0.009
-395.136	-84.507	-0.022	-0.007
-394.121	411.683	-0.065	0.138
-393.106	800.000	0.085	-0.265
-392.092	-78.355	-0.191	0.065
-391.077	-200.000	0.010	0.122
-390.063	582.023	-0.062	0.153
-389.048	438.623	-0.032	-0.069
-388.033	175.687	0.085	0.123
-387.019	-68.292	0.153	-0.059
-386.004	-188.742	-0.066	-0.001
-384.990	-76.003	-0.226	-0.080
-383.975	-175.706	0.373	0.010
-382.960	-54.544	0.232	-0.105
-381.946	761.338	0.064	-0.174
-380.931	-15.985	0.140	-0.089
-379.917	-200.000	-0.004	-0.140
-378.902	-200.000	0.008	0.134
-377.888	26.973	-0.175	0.146
-376.873	486.173	0.035	-0.080
-375.858	-85.527	-0.237	0.074
-374.844	166.905	-0.083	0.117
-373.829	-41.479	0.321	-0.165
-372.815	-128.952	-0.022	-0.003
-371.800	186.652	0.050	-0.074
-370.785	181.556	0.035	0.051
-369.771	-17.553	0.203	0.127
-368.756	147.592	-0.036	0.049
-367.742	-19.253	0.131	0.081
-366.727	-25.081	0.221	-0.130
-365.712	449.541	0.103	0.226
-364.698	-87.798	0.072	-0.022
-363.683	170.929	-0.153	-0.218
-362.669	338.248	0.017	0.034
-361.654	-70.915	-0.226	0.085
-360.639	411.504	-0.081	0.171
-359.625	799.704	0.088	0.243
-358.610	-77.244	-0.028	0.010
-357.596	537.213	-0.114	-0.269
-356.581	147.665	0.222	-0.297
-355.566	665.103	0.102	0.262
-354.552	421.863	0.141	0.302
-353.537	-200.000	0.005	-0.028
-352.523	-124.336	-0.186	0.029
-351.508	174.107	0.252	0.363
-350.493	549.136	-0.084	0.199
-349.479	800.000	-0.065	-0.205
-348.464	2.508	0.113	-0.081
-347.450	225.652	-0.085	0.137
-346.435	800.000	-0.091	0.385
-345.420	256.965	-0.021	-0.036
-344.406	-81.827	0.334	0.109
-343.391	-15.713	-0.168	0.107
-342.377	504.952	-0.176	0.406
-341.362	91.327	0.102	-0.114
-340.348	-200.000	-0.019	-0.204
-339.333	-168.090	-0.281	-0.011
-338.318	35.362	0.236	0.206
-337.304	-200.000	-0.012	0.111
-336.289	-19.046	0.223	0.138
-335.275	232.560	0.175	0.286
-334.260	600.312	-0.098	0.243
-333.245	13.489	-0.056	-0.043
-332.231	177.252	-0.058	0.084
-331.216	-200.000	0.018	-0.095
-330.202	5.482	0.115	-0.085
-329.187	85.614	-0.154	-0.168
-328.172	-24.508	0.282	0.167
-327.158	-165.693	0.312	0.013
-326.143	-158.136	-0.064	-0.004
-325.129	73.920	0.174	-0.181
-324.114	2.304	0.188	0.135
-323.099	800.000	-0.077	-0.295
-322.085	40.679	-0.195	0.175
-321.070	-127.688	0.193	-0.028
-320.056	800.000	0.099	-0.306
-319.041	-57.996	0.315	0.137
-318.026	174.159	-0.314	0.451
-317.012	0.557	0.217	-0.154
-315.997	800.000	0.071	0.258
-314.983	288.137	0.119	-0.215
-313.968	88.814	0.110	0.121
-312.953	-67.483	-0.122	-0.048
-311.939	-200.000	0.018	0.139
-310.924	141.260	-0.067	-0.088
-309.910	-200.000	-0.009	-0.219
-308.895	800.000	0.022	0.094
-307.880	-11.767	0.129	0.084
-306.866	320.207	-0.052	0.098
-305.851	75.659	-0.211	0.221
-304.837	-118.699	0.076	0.013
-303.822	590.864	-0.123	0.301
-302.807	-200.000	-0.008	0.175
-301.793	-28.773	0.205	0.117
-300.778	396.347	-0.130	-0.270
-299.764	172.291	-0.124	0.178
-298.749	-200.000	0.012	0.106
-297.735	-200.000	-0.069	0.376
-296.720	136.669	0.102	0.133
-295.705	55.736	0.114	0.110
-294.691	-18.299	0.178	-0.111
-293.676	159.557	0.075	-0.104
-292.662	-25.799	-0.184	-0.108
-291.647	-200.000	0.032	-0.366
-290.632	-200.000	0.009	-0.227
-289.618	-200.000	0.025	-0.130
-288.603	-82.985	0.170	0.055
-287.589	-32.364	0.164	0.091
-286.574	694.454	0.058	-0.152
-285.559	135.922	0.163	-0.211
-284.545	-79.665	0.091	0.030
-283.530	-200.000	0.002	-0.341
-282.516	321.067	-0.057	0.108
-281.501	168.837	-0.196	-0.277
-280.486	32.612	0.050	0.043
-279.472	69.782	-0.175	0.179
-278.457	-116.372	0.478	0.088
-277.443	-95.086	-0.160	-0.043
-276.428	800.000	-0.038	0.144
-275.413	-79.045	-0.116	0.039
-274.399	-48.718	0.346	-0.165
-273.384	-41.733	0.121	-0.062
-272.370	91.123	-0.151	-0.168
-271.355	800.000	0.004	-0.012
-270.340	-131.408	-0.287	-0.038
-269.326	323.247	-0.048	0.090
-268.311	112.333	0.106	-0.128
-267.297	-55.340	0.342	-0.152
-266.282	710.380	-0.058	0.151
-265.267	181.422	0.102	0.149
-264.253	496.395	-0.096	0.220
-263.238	40.667	-0.231	-0.206
-262.224	-128.670	0.346	0.048
-261.209	18.928	0.060	-0.048
-260.195	-98.933	-0.083	0.021
-259.180	-200.000	-0.001	0.052
-258.165	-74.075	-0.233	0.084
-257.151	4.706	0.360	-0.262
-256.136	87.006	-0.092	-0.101
-255.122	-7.956	0.060	-0.040
-254.107	800.000	0.029	-0.107
-253.092	-24.056	-0.294	-0.174
-252.078	800.000	-0.065	-0.201
-251.063	65.674	0.079	-0.080
-250.049	800.000	-0.107	0.464
-249.034	330.429	-0.032	0.062
-248.019	114.878	-0.271	-0.328
-247.005	-200.000	0.006	-0.058
-245.990	182.280	0.120	0.176
-244.976	-28.069	-0.148	-0.085
-243.961	-51.541	-0.169	0.078
-242.946	-200.000	-0.027	0.282
-241.932	-159.566	-0.282	0.016
-240.917	800.000	-0.086	-0.320
-239.903	-86.020	0.131	-0.040
-238.888	-200.000	0.008	0.071
-237.873	-200.000	0.006	0.282
-236.859	317.953	-0.058	0.109
-235.844	800.000	-0.084	-0.323
-234.830	-23.728	0.295	0.175
-233.815	-1.214	-0.217	-0.152
-232.800	-75.877	-0.162	-0.057
-231.786	800.000	0.016	0.062
-230.771	396.500	0.081	0.167
-229.757	177.718	-0.169	-0.244
-228.742	-47.784	-0.143	-0.069
-227.727	-133.268	0.346	0.043
-226.713	-18.335	0.153	-0.095
-225.698	-151.547	-0.041	-0.003
-224.684	513.731	-0.098	-0.226
-223.669	-118.686	-0.349	-0.061
-222.655	-200.000	0.014	-0.176
-221.640	159.821	0.040	-0.055
-220.625	-104.535	0.451	-0.103
-219.611	-76.287	0.382	-0.133
-218.596	56.548	-0.176	0.169
-217.582	124.902	0.044	-0.055
-216.567	392.130	-0.128	-0.264
-215.552	-200.000	-0.021	-0.274
-214.538	495.176	0.057	0.129
-213.523	102.728	-0.103	0.120
-212.509	3.955	0.215	0.156
-211.494	-60.374	-0.222	0.094
-210.479	-10.425	0.119	0.078
-209.465	54.784	0.111	-0.106
-208.450	800.000	-0.076	-0.294
-207.436	-44.361	0.230	-0.114
-206.421	-182.322	-0.444	-0.008
-205.406	-59.299	0.318	-0.136
-204.392	800.000	0.049	-0.165
-203.377	187.849	0.074	0.109
-202.363	-175.166	-0.016	-0.000
-201.348	522.210	0.058	0.135
-200.333	-58.358	-0.165	0.071
-199.319	800.000	0.076	-0.223
-198.304	800.000	0.069	0.283
-197.290	-177.907	-0.097	-0.002
-196.275	211.052	0.104	0.161
-195.260	-54.845	0.151	-0.068
-194.246	-41.327	0.079	-0.040
-193.231	-200.000	0.030	0.330
-192.217	131.831	0.085	0.108
-191.202	50.397	-0.111	-0.104
-190.187	247.503	0.173	-0.290
-189.173	-123.018	0.321	-0.051
-188.158	-83.513	-0.293	-0.093
-187.144	197.956	0.191	-0.289
-186.129	-53.706	0.199	0.090
-185.114	2.613	-0.066	0.047
-184.100	-28.660	0.089	0.051
-183.085	-48.375	0.224	-0.107
-182.071	-1.065	0.111	-0.078
-181.056	-93.830	0.060	0.016
-180.042	-37.081	-0.082	-0.043
-179.027	-200.000	-0.031	0.401
-178.012	36.276	-0.226	-0.197
-176.998	13.304	0.035	0.026
-175.983	61.732	0.225	0.222
-174.969	88.041	-0.371	0.407
-173.954	-120.684	-0.070	0.012
-172.939	-123.202	-0.134	-0.021
-171.925	198.888	-0.063	0.096
-170.910	800.000	-0.124	0.415
-169.896	-31.515	0.142	-0.079
-168.881	254.550	-0.035	-0.059
-167.866	742.508	-0.092	0.245
-166.852	-200.000	0.005	0.238
-165.837	177.600	0.140	-0.202
-164.823	-112.796	0.110	0.022
-163.808	384.846	-0.073	-0.149
-162.793	-104.735	-0.148	0.034
-161.779	145.540	-0.241	-0.318
-160.764	-200.000	-0.000	0.121
-159.750	490.305	0.121	0.273
-158.735	4.682	-0.170	-0.123
-157.720	800.000	0.102	-0.341
-156.706	-31.891	-0.236	0.130
-155.691	152.877	0.090	0.122
-154.677	484.697	0.105	-0.237
-153.662	676.495	-0.090	-0.231
-152.647	-46.461	-0.162	0.078
-151.633	800.000	0.150	-0.538
-150.618	800.000	-0.095	0.335
-149.604	-59.128	0.248	0.106
-148.589	163.489	-0.181	0.251
-147.574	-58.367	0.085	-0.036
-146.560	191.056	-0.047	0.070
-145.545	-33.281	-0.069	0.038
-144.531	3.994	0.166	0.120
-143.516	-46.433	0.331	-0.160
-142.502	-166.704	0.143	0.006
-141.487	237.544	0.057	-0.094
-140.472	-35.151	0.151	0.081
-139.458	142.655	0.138	0.181
-138.443	-79.688	-0.139	-0.046
-137.429	-200.000	0.038	0.294
-136.414	-200.000	-0.010	-0.048
-135.399	168.842	-0.212	-0.299
-134.385	59.016	0.125	-0.122
-133.370	-39.111	-0.158	0.082
-132.356	-84.138	-0.127	-0.040
-131.341	80.924	0.218	0.232
-130.326	4.312	-0.164	0.119
-129.312	-200.000	0.007	-0.161
-128.297	326.638	0.142	-0.268
-127.283	800.000	-0.043	0.119
-126.268	-200.000	0.014	0.195
-125.253	-69.244	-0.306	0.116
-124.239	-92.867	0.348	0.096
-123.224	62.690	0.315	-0.311
-122.210	-200.000	-0.001	-0.336
-121.195	682.478	0.107	0.275
-120.180	-37.107	0.235	0.124
-119.166	-76.109	0.248	-0.086
-118.151	28.181	-0.182	0.152
-117.137	-45.194	0.343	-0.168
-116.122	46.805	0.102	-0.094
-115.107	88.484	0.095	-0.104
-114.093	442.653	-0.041	0.089
-113.078	-122.442	0.174	0.028
-112.064	127.580	-0.163	-0.205
-111.049	-200.000	-0.044	0.263
-110.034	25.782	-0.247	-0.203
-109.020	48.938	-0.216	0.200
-108.005	-123.370	-0.109	-0.017
-106.991	800.000	0.002	0.007
-105.976	800.000	0.079	-0.268
-104.962	151.480	-0.214	-0.287
-103.947	-84.537	-0.023	0.007
-102.932	-200.000	-0.072	-0.411
-101.918	-200.000	0.000	-0.179
-100.903	148.145	0.195	0.259
-99.889	199.663	-0.097	0.147
-98.874	800.000	0.164	0.516
-97.859	-200.000	-0.011	0.288
-96.845	195.806	-0.250	0.375
-95.830	-87.105	-0.115	0.034
-94.816	223.667	0.125	-0.200
-93.801	-200.000	-0.074	-0.386
-92.786	23.289	-0.238	-0.193
-91.772	0.838	-0.183	-0.129
-90.757	-14.171	-0.038	-0.024
-89.743	-99.172	0.191	-0.048
-88.728	127.935	0.140	-0.176
-87.713	-200.000	-0.003	-0.056
-86.699	800.000	0.086	-0.252
-85.684	-200.000	-0.008	-0.210
-84.670	-167.764	-0.270	0.011
-83.655	199.322	-0.138	-0.209
-82.640	-4.189	-0.039	0.027
-81.626	-200.000	0.005	-0.069
-80.611	-200.000	-0.068	0.386
-79.597	31.317	0.146	0.123
-78.582	800.000	-0.054	0.165
-77.567	302.980	-0.153	0.279
-76.553	-82.359	-0.107	0.034
-75.538	-200.000	0.030	0.213
-74.524	-109.829	-0.499	-0.103
-73.509	800.000	0.036	-0.099
-72.494	678.402	0.152	0.390
-71.480	-200.000	0.017	0.131
-70.465	-200.000	0.031	-0.344
-69.451	-135.289	-0.372	-0.044
-68.436	-7.889	0.070	-0.047
-67.422	-130.375	-0.183	-0.024
-66.407	83.620	0.041	-0.044
-65.392	-200.000	0.005	-0.172
-64.378	-141.086	-0.245	0.025
-63.363	137.168	0.181	0.233
-62.349	24.640	-0.092	0.075
-61.334	9.332	-0.984	-0.732
-60.319	107.962	0.439	0.515
-59.305	-200.000	-0.162	-1.162
-58.290	143.233	0.956	1.251
-57.276	484.199	0.784	1.756
-56.261	-200.000	96.262	596.895
-55.246	566.716	1369.860	3271.406
-54.232	161.375	2548.458	3507.174
-53.217	112.265	2161.293	2571.464
-52.203	42.697	1706.376	1528.855
-51.188	35.109	1519.770	1309.956
-50.173	32.934	1492.575	1271.832
-49.159	51.799	1541.543	1443.139
-48.144	53.554	1559.556	1471.969
-47.130	35.503	1519.064	1311.837
-46.115	32.332	1504.500	1277.707
-45.100	32.101	1501.185	1273.272
-44.086	32.072	1499.488	1271.589
-43.071	32.143	1497.197	1270.073
-42.057	31.987	1495.942	1267.904
-41.042	32.038	1494.612	1267.068
-40.027	32.047	1493.244	1265.918
-39.013	31.989	1492.014	1264.436
-37.998	31.985	1490.489	1263.065
-36.984	31.987	1489.635	1262.304
-35.969	32.006	1488.171	1261.141
-34.954	31.998	1486.491	1259.613
-33.940	32.024	1484.933	1258.424
-32.925	32.052	1483.565	1257.401
-31.911	32.084	1481.952	1256.195
-30.896	32.136	1480.820	1255.538
-29.881	32.121	1479.628	1254.371
-28.867	32.031	1478.262	1252.562
-27.852	32.142	1476.843	1252.052
-26.838	32.103	1475.117	1250.281
-25.823	31.977	1474.291	1248.691
-24.809	32.079	1472.062	1247.431
-23.794	32.006	1471.273	1246.232
-22.779	32.082	1469.535	1245.210
-21.765	32.081	1468.524	1244.300
-20.750	32.062	1467.394	1243.166
-19.736	31.946	1466.695	1241.761
-18.721	31.892	1465.431	1240.280
-17.706	32.013	1464.271	1240.051
-16.692	32.013	1462.945	1238.880
-15.677	32.014	1461.689	1237.772
-14.663	32.055	1460.442	1236.938
-13.648	32.048	1459.792	1236.288
-12.633	31.866	1459.215	1234.558
-11.619	32.046	1458.024	1234.684
-10.604	31.943	1457.495	1233.510
-9.590	31.956	1456.650	1232.829
-8.575	31.954	1455.913	1232.146
-7.560	32.027	1454.529	1231.403
-6.546	32.026	1453.527	1230.500
-5.531	32.028	1452.501	1229.593
-4.517	31.971	1451.593	1228.402
-3.502	31.982	1450.669	1227.645
-2.487	32.012	1449.527	1226.828
-1.473	32.009	1448.009	1225.474
-0.458	31.938	1447.267	1224.333
0.556	31.903	1438.022	1214.183
1.571	29.183	1413.421	1175.970
2.586	25.971	1357.694	1109.773
3.600	24.640	1278.405	1037.151
4.615	23.201	1231.918	991.297
5.629	19.487	1173.242	924.145
6.644	9.738	1085.988	806.794
7.659	2.632	1044.844	741.857
8.673	1.785	1039.402	733.847
9.688	1.612	1036.262	730.736
10.702	1.541	1034.467	729.065
11.717	1.393	1032.775	727.098
12.731	4.370	1035.845	743.471
13.746	14.081	1049.442	800.100
14.761	22.348	1060.123	848.192
15.775	24.634	1062.678	861.191
16.790	24.967	1062.345	862.450
17.804	24.833	1061.835	861.314
18.819	24.608	1060.922	859.412
19.834	24.630	1060.519	859.118
20.848	24.887	1060.057	859.903
21.863	24.987	1059.526	859.876
22.877	24.922	1059.128	859.166
23.892	24.858	1058.611	858.362
24.907	24.785	1057.894	857.355
25.921	24.901	1057.029	857.132
26.936	24.929	1056.248	856.560
27.950	24.835	1054.764	854.831
28.965	24.768	1054.252	854.019
29.980	24.779	1052.386	852.486
30.994	24.868	1050.914	851.640
32.009	24.889	1050.603	851.414
33.023	25.003	1049.850	851.269
34.038	24.814	1048.784	849.434
35.053	24.799	1048.013	848.662
36.067	24.993	1047.174	848.825
37.082	24.978	1046.367	848.026
38.096	24.961	1045.775	847.391
39.111	25.111	1045.603	847.887
40.126	25.167	1044.421	847.115
41.140	25.158	1043.329	846.115
42.155	24.767	1041.505	842.720
43.169	24.593	1040.336	840.878
44.184	24.510	1039.664	839.873
45.199	24.449	1038.959	838.942
46.213	24.418	1037.648	837.663
47.228	24.446	1036.877	837.099
48.242	24.654	1036.225	837.473
49.257	24.726	1035.577	837.209
50.271	24.756	1034.939	836.762
51.286	24.957	1033.667	836.597
52.301	24.992	1032.816	835.996
53.315	25.004	1032.368	835.619
54.330	24.901	1031.658	834.490
55.344	24.828	1030.978	833.526
56.359	24.998	1029.946	833.409
57.374	24.933	1029.008	832.273
58.388	24.747	1027.979	830.505
59.403	24.635	1027.829	829.788
60.417	24.641	1026.611	828.760
61.432	24.669	1025.347	827.796
62.447	24.487	1025.660	827.130
63.461	24.661	1024.747	827.127
64.476	24.686	1024.079	826.631
65.490	24.658	1022.968	825.533
66.505	24.568	1021.862	824.149
67.520	24.556	1021.222	823.508
68.534	24.657	1020.445	823.270
69.549	24.512	1019.689	821.922
70.563	24.242	1018.444	819.604
71.578	24.145	1017.991	818.722
72.593	24.160	1017.026	817.943
73.607	24.188	1015.556	816.815
74.622	24.045	1014.883	815.547
75.636	24.393	1014.392	816.673
76.651	24.455	1013.718	816.343
77.666	24.385	1012.459	814.936
78.680	24.181	1011.954	813.529
79.695	24.190	1011.836	813.403
80.709	24.389	1010.900	813.486
81.724	24.401	1010.362	813.036
82.739	24.563	1008.949	812.561
83.753	24.553	1007.754	811.480
84.768	24.658	1007.631	811.789
85.782	25.094	1007.161	813.317
86.797	25.227	1006.510	813.321
87.812	25.308	1005.207	812.563
88.826	25.066	1004.593	810.899
89.841	24.979	1004.074	810.017
90.855	25.250	1002.833	810.169
91.870	25.221	1002.440	809.649
92.884	25.057	1001.641	808.192
93.899	25.015	1000.640	807.123
94.914	24.926	999.548	805.772
95.928	25.026	999.318	805.965
96.943	24.993	998.325	804.941
97.957	24.726	997.276	802.828
98.972	24.614	995.750	801.026
99.987	24.431	994.577	799.192
101.001	24.616	993.990	799.479
102.016	24.963	993.428	800.506
103.030	24.967	992.972	800.086
104.045	24.800	991.623	798.182
105.060	24.680	990.212	796.443
106.074	24.512	989.101	794.731
107.089	24.514	988.537	794.214
108.103	24.950	988.399	795.973
109.118	24.926	987.123	794.768
110.133	24.636	986.296	792.746
111.147	24.565	984.999	791.318
112.162	24.509	983.784	790.024
113.176	24.251	983.013	788.197
114.191	24.380	982.398	788.202
115.206	24.586	980.844	787.796
116.220	24.175	980.622	785.736
117.235	24.063	979.293	784.106
118.249	24.229	978.774	784.351
119.264	24.340	977.756	783.954
120.279	24.189	977.444	782.973
121.293	24.183	976.402	782.043
122.308	24.284	975.771	781.910
123.322	24.308	974.631	781.030
124.337	24.258	973.766	780.052
125.352	24.233	972.384	778.767
126.366	23.879	970.731	775.827
127.381	23.435	969.437	772.790
128.395	23.944	969.519	775.006
129.410	24.720	969.080	777.963
130.424	24.840	968.453	777.914
131.439	24.717	967.375	776.444
132.454	24.876	966.322	776.222
133.468	24.706	965.811	775.006
134.483	24.681	965.025	774.198
135.497	24.720	964.203	773.639
136.512	25.007	963.665	774.379
137.527	24.973	963.269	773.844
138.541	24.934	962.330	772.853
139.556	25.028	961.530	772.548
140.570	25.064	960.472	771.783
141.585	24.880	959.921	770.482
142.600	25.064	959.259	770.674
143.614	25.113	957.841	769.674
144.629	25.126	957.866	769.684
145.643	25.417	957.084	770.235
146.658	25.127	956.289	768.284
147.673	25.057	954.612	766.570
148.687	24.919	953.981	765.407
149.702	24.864	952.744	764.113
150.716	24.633	952.129	762.564
151.731	24.760	951.070	762.188
152.746	24.888	949.955	761.774
153.760	25.034	949.535	761.992
154.775	25.181	948.808	761.965
155.789	25.285	948.082	761.756
156.804	25.370	946.845	761.055
157.819	25.232	945.698	759.482
158.833	25.230	945.284	759.072
159.848	25.266	944.974	758.910
160.862	25.338	943.905	758.286
161.877	25.154	942.894	756.632
162.892	25.047	942.414	755.728
163.906	25.125	941.549	755.297
164.921	25.078	940.487	754.181
165.935	24.998	939.320	752.840
166.950	25.240	938.224	752.913
167.964	25.213	937.482	752.136
168.979	25.151	936.544	751.059
169.994	25.105	935.273	749.782
171.008	25.005	934.303	748.520
172.023	25.198	933.435	748.563
173.037	25.405	933.042	749.046
174.052	25.167	931.787	746.981
175.067	24.859	930.783	744.827
176.081	24.969	929.523	744.211
177.096	25.006	929.186	744.029
178.110	24.994	928.371	743.260
179.125	24.816	927.546	741.795
180.140	24.550	926.396	739.709
181.154	24.423	925.784	738.627
182.169	24.608	925.020	738.718
183.183	24.997	924.373	739.745
184.198	25.261	924.391	740.781
185.213	25.090	924.155	739.824
186.227	25.072	922.868	738.653
187.242	25.000	922.546	738.031
188.256	25.012	922.182	737.728
189.271	25.160	921.137	737.432
190.286	25.324	920.520	737.548
191.300	25.168	919.705	736.190
192.315	24.564	918.260	732.493
193.329	23.862	916.842	728.422
194.344	23.423	915.235	725.281
195.359	24.039	916.145	728.462
196.373	24.796	916.462	731.748
197.388	25.118	916.081	732.694
198.402	25.098	915.464	732.056
199.417	25.025	914.994	731.313
200.432	24.963	914.746	730.799
201.446	24.865	913.757	729.544
202.461	24.649	913.035	728.025
203.475	24.712	912.346	727.669
204.490	24.317	910.927	724.865
205.504	23.156	908.974	718.537
206.519	23.581	908.667	719.954
207.534	24.460	909.348	723.998
208.548	24.712	908.252	724.080
209.563	24.998	908.335	725.242
210.577	24.991	907.561	724.532
211.592	24.750	906.631	722.751
212.607	25.256	906.541	724.657
213.621	25.270	906.289	724.451
214.636	25.232	905.384	723.509
215.650	25.230	904.768	722.943
216.665	25.230	904.094	722.341
217.680	25.218	903.571	721.814
218.694	25.325	903.196	721.878
219.709	24.957	902.479	719.762
220.723	24.596	901.485	717.459
221.738	25.008	900.705	718.427
222.753	25.092	900.437	718.484
223.767	24.853	899.924	717.055
224.782	24.985	899.490	717.174
225.796	25.333	898.409	717.642
226.811	25.353	897.894	717.244
227.826	24.933	896.886	714.701
228.840	24.142	895.275	710.202
229.855	24.063	894.761	709.417
230.869	24.206	894.919	710.047
231.884	24.025	893.601	708.219
232.899	24.013	893.165	707.764
233.913	24.778	893.417	710.943
234.928	24.977	893.015	711.349
235.942	24.973	891.938	710.412
236.957	24.983	891.357	709.926
237.972	24.571	890.795	707.783
238.986	24.580	889.696	706.883
240.001	24.802	889.240	707.339
241.015	24.723	888.507	706.381
242.030	24.807	887.938	706.198
243.045	25.109	887.448	706.936
244.059	24.978	887.059	706.048
245.074	25.156	886.869	706.535
246.088	25.081	886.040	705.516
247.103	24.642	885.235	703.085
248.117	24.763	884.497	702.911
249.132	25.454	884.264	705.380
250.147	25.673	884.680	706.508
251.161	25.817	883.791	706.301
252.176	25.930	883.402	706.371
253.190	25.987	882.491	705.804
254.205	25.947	882.409	705.519
255.220	26.122	882.169	705.946
256.234	26.149	881.153	705.178
257.249	26.087	880.365	704.243
258.263	25.834	879.965	702.875
259.278	25.946	878.738	702.268
260.293	25.998	878.781	702.443
261.307	25.909	878.487	701.798
262.322	25.878	877.604	700.909
263.336	25.890	876.936	700.363
264.351	25.307	875.586	696.959
265.366	24.190	874.027	691.326
266.380	23.778	872.554	688.502
267.395	24.785	873.013	692.706
268.409	25.485	873.235	695.530
269.424	25.451	872.799	694.990
270.439	25.726	872.034	695.382
271.453	25.901	871.024	695.190
272.468	25.683	870.520	693.885
273.482	25.666	870.774	693.962
274.497	26.066	870.285	695.051
275.512	25.744	869.380	693.029
276.526	25.216	867.718	689.613
277.541	25.446	867.291	690.095
278.555	25.790	867.639	691.634
279.570	25.671	866.491	690.200
280.585	25.608	865.498	689.105
281.599	25.603	865.359	688.916
282.614	25.612	864.918	688.537
283.628	25.196	863.488	685.750
284.643	24.764	862.986	683.639
285.657	25.170	862.633	684.850
286.672	25.232	861.646	684.242
287.687	24.682	860.928	681.517
288.701	24.988	861.321	682.931
289.716	25.397	860.769	683.991
290.730	24.983	859.906	681.673
291.745	24.960	859.228	680.987
292.760	24.771	857.944	679.191
293.774	24.718	857.650	678.699
294.789	25.717	858.148	682.821
295.803	26.166	858.650	684.866
296.818	26.212	857.995	684.456
297.833	26.340	857.446	684.441
298.847	25.955	856.488	682.159
299.862	25.768	855.128	680.309
300.876	25.867	854.694	680.278
301.891	26.415	854.299	681.973
302.906	26.416	853.633	681.384
303.920	25.914	852.898	678.845
304.935	25.770	852.417	677.862
305.949	26.221	852.049	679.206
306.964	26.185	851.835	678.840
307.979	25.877	851.120	677.054
308.993	25.957	850.118	676.496
310.008	26.311	850.036	677.696
311.022	26.521	849.830	678.260
312.037	26.197	849.043	676.360
313.052	26.088	847.903	674.983
314.066	26.078	847.630	674.668
315.081	25.167	846.586	670.377
316.095	24.416	844.954	666.221
317.110	25.001	845.520	668.794
318.125	25.953	845.447	672.228
319.139	25.509	844.340	669.635
320.154	24.372	842.618	663.981
321.168	23.978	841.267	661.394
322.183	24.490	841.937	663.766
323.197	25.351	842.490	667.343
324.212	25.724	842.104	668.365
325.227	25.886	841.905	668.748
326.241	26.075	841.019	668.685
327.256	26.020	840.566	668.063
328.270	25.845	840.173	667.044
329.285	25.912	839.121	666.398
330.300	25.595	838.389	664.587
331.314	25.328	837.540	662.868
332.329	25.530	836.781	662.954
333.343	25.877	836.592	664.026
334.358	26.113	836.865	665.051
335.373	26.007	836.221	664.091
336.387	26.183	835.423	664.047
337.402	26.421	835.326	664.784
338.416	26.595	834.887	665.015
339.431	26.645	834.028	664.456
340.446	26.686	833.656	664.250
341.460	26.826	833.603	664.663
342.475	26.726	832.789	663.589
343.489	26.542	831.970	662.206
344.504	26.453	831.612	661.536
345.519	26.837	830.916	662.325
346.533	26.929	830.942	662.623
347.548	27.124	830.536	662.954
348.562	26.930	830.082	661.825
349.577	26.949	829.197	661.129
350.592	26.963	828.443	660.521
351.606	26.887	828.269	660.047
352.621	26.836	827.659	659.317
353.635	26.874	826.698	658.632
354.650	26.816	826.527	658.225
355.665	26.444	825.601	656.083
356.679	25.436	823.917	651.035
357.694	25.256	823.541	650.028
358.708	25.938	823.556	652.454
359.723	25.648	823.148	651.021
360.738	25.882	822.885	651.603
361.752	26.362	822.905	653.295
362.767	26.512	822.357	653.343
363.781	26.916	822.198	654.621
364.796	27.069	822.340	655.224
365.810	27.384	821.567	655.686
366.825	27.326	821.388	655.276
367.840	27.303	821.128	654.930
368.854	27.068	820.128	653.227
369.869	26.653	819.283	651.006
370.883	26.542	818.811	650.176
371.898	26.621	818.478	650.137
372.913	26.727	817.291	649.516
373.927	26.628	816.816	648.725
374.942	26.717	816.634	648.842
375.956	26.873	815.389	648.355
376.971	26.990	814.969	648.381
377.986	27.034	814.974	648.486
379.000	27.262	814.567	648.918
380.015	27.307	813.986	648.557
381.029	26.982	813.384	646.862
382.044	27.106	812.642	646.655
383.059	27.118	812.203	646.292
384.073	27.228	811.651	646.186
385.088	27.127	811.306	645.495
386.102	27.256	810.335	645.125
387.117	26.921	809.998	643.613
388.132	26.909	809.718	643.290
389.146	26.775	808.920	642.124
390.161	26.293	807.362	639.125
391.175	26.341	807.138	639.061
392.190	26.812	807.798	641.192
393.205	26.812	806.947	640.460
394.219	25.959	805.206	636.015
395.234	24.295	802.943	628.312
396.248	23.508	802.048	624.784
397.263	24.500	803.045	629.005
398.278	26.489	804.017	636.716
399.292	26.912	803.811	637.984
400.307	26.500	803.533	636.260
401.321	26.386	802.902	635.302
402.336	26.554	802.705	635.680
403.350	26.843	802.411	636.407
404.365	27.045	802.908	637.452
405.380	27.645	802.168	638.912
406.394	27.853	802.034	639.477
407.409	27.946	801.687	639.470
408.423	27.874	801.176	638.754
409.438	27.832	800.444	637.967
410.453	27.891	800.200	637.924
411.467	27.916	799.993	637.787
412.482	27.857	799.259	636.941
413.496	27.890	798.489	636.385
414.511	27.977	798.396	636.557
415.526	27.983	798.023	636.224
416.540	27.956	797.560	635.705
417.555	27.785	796.996	634.607
418.569	27.584	796.112	633.147
419.584	27.450	796.103	632.620
420.599	27.601	795.336	632.478
421.613	110.327	1285.500	1459.176
422.628	94.990	1356.941	1459.303
