DTS Sentinel unit serial number:	SN413079Multiplexer serial number:	ORYXHardware model number:	OX4-SRSoftware version number:	ORYX F/W v4.00 Oryx Data Collector v3.7.2.0data status	okinstallation	princeton_trtdifferential loss correction	single-endedforward channel	channel 3reverse channel	N/Adate	2019/09/13time	01:04:35forward acquisition time	60.00reverse acquisition time	0.00gamma	496.2192k internal	0.2332k external	0.2332temperature offset calibration	1.0120default loss term (dB/km)	0.3790temperature slope calibration	1.0000multiplexer offset coefficient	1.0000multiplexer slope coefficient	1.0000fibre end	0.00T internal ref (°C)	28.02T ext. ref 1 (°C)	3.67T ext. ref 2 (°C)	22.56length (m)	temperature (°C)	Stokes	anti-Stokes-747.200	154.440	-0.170	0.235
-746.185	-181.406	-0.190	-0.004
-745.171	151.040	-0.053	0.073
-744.156	-75.640	-0.132	-0.047
-743.142	106.557	0.358	0.427
-742.127	-91.166	-0.217	0.063
-741.112	-80.538	-0.066	-0.022
-740.098	-185.434	-0.539	0.008
-739.083	550.862	-0.161	0.388
-738.069	44.319	-0.118	0.109
-737.054	800.000	0.095	0.312
-736.039	21.066	-0.221	-0.180
-735.025	6.620	0.314	0.234
-734.010	-26.208	-0.206	0.122
-732.996	59.016	-0.116	-0.114
-731.981	228.103	-0.125	0.205
-730.966	53.488	0.052	0.050
-729.952	800.000	-0.058	-0.221
-728.937	116.251	-0.098	0.120
-727.923	-72.135	0.066	0.025
-726.908	478.592	0.062	0.141
-725.894	488.922	-0.120	-0.276
-724.879	63.369	-0.138	0.139
-723.864	101.738	-0.400	-0.469
-722.850	-200.000	0.017	-0.248
-721.835	800.000	-0.106	-0.301
-720.821	-198.418	-0.194	0.001
-719.806	125.386	0.182	0.231
-718.791	-145.194	-0.302	-0.028
-717.777	800.000	0.019	-0.054
-716.762	-80.926	0.126	0.042
-715.748	36.179	0.211	-0.187
-714.733	800.000	-0.059	0.250
-713.718	16.373	0.205	-0.163
-712.704	800.000	-0.077	0.241
-711.689	800.000	-0.070	-0.231
-710.675	175.331	-0.056	-0.081
-709.660	-24.890	-0.099	0.059
-708.645	800.000	0.028	0.120
-707.631	22.623	-0.302	-0.248
-706.616	386.426	0.083	0.173
-705.602	-65.893	0.365	-0.147
-704.587	-90.926	-0.223	-0.064
-703.572	-19.010	0.168	0.105
-702.558	371.579	-0.072	-0.147
-701.543	173.385	-0.102	0.148
-700.529	-11.446	0.170	-0.112
-699.514	-103.888	-0.452	-0.106
-698.499	52.429	0.233	-0.224
-697.485	50.079	-0.135	-0.128
-696.470	226.313	-0.087	-0.143
-695.456	-200.000	-0.009	0.073
-694.441	-106.656	-0.183	0.041
-693.426	237.590	0.152	-0.253
-692.412	183.035	0.163	-0.242
-691.397	79.918	0.112	0.121
-690.383	1.622	-0.139	-0.100
-689.368	-126.116	0.228	0.034
-688.354	-199.044	0.205	-0.001
-687.339	800.000	0.074	-0.294
-686.324	88.203	-0.157	-0.175
-685.310	-147.352	-0.074	-0.006
-684.295	800.000	-0.064	-0.220
-683.281	405.673	-0.099	-0.210
-682.266	-87.263	0.092	-0.028
-681.251	-115.711	-0.114	0.021
-680.237	-1.829	0.030	-0.021
-679.222	128.840	-0.142	-0.182
-678.208	-116.597	-0.244	-0.045
-677.193	66.460	-0.061	0.063
-676.178	2.747	-0.241	0.176
-675.164	-26.367	-0.127	0.075
-674.149	-128.592	-0.327	0.046
-673.135	405.146	-0.061	-0.128
-672.120	31.739	-0.192	-0.166
-671.105	-52.521	-0.064	-0.030
-670.091	-80.645	-0.163	0.054
-669.076	554.190	0.018	0.043
-668.062	-200.000	0.001	-0.232
-667.047	-106.630	-0.373	-0.083
-666.032	-200.000	0.045	-0.248
-665.018	497.502	-0.083	-0.193
-664.003	800.000	-0.084	-0.325
-662.989	-5.927	0.214	-0.147
-661.974	-200.000	0.007	-0.069
-660.959	-200.000	-0.022	-0.278
-659.945	-51.541	-0.333	-0.156
-658.930	-200.000	-0.031	-0.271
-657.916	64.931	-0.356	-0.361
-656.901	-157.674	-0.209	-0.013
-655.886	-74.007	-0.071	-0.026
-654.872	241.935	0.024	0.040
-653.857	-29.954	-0.210	0.120
-652.843	-103.772	0.103	-0.024
-651.828	-25.500	0.373	0.221
-650.814	596.103	-0.022	0.055
-649.799	-49.409	-0.202	0.097
-648.784	-66.657	-0.169	-0.067
-647.770	-40.199	-0.253	-0.132
-646.755	-6.001	0.164	0.112
-645.741	800.000	0.054	0.214
-644.726	-200.000	0.009	0.088
-643.711	-26.076	0.310	-0.182
-642.697	-1.260	-0.274	-0.194
-641.682	-200.000	0.038	0.229
-640.668	676.863	-0.078	0.202
-639.653	446.990	-0.135	-0.298
-638.638	108.440	-0.034	-0.040
-637.624	-200.000	-0.035	-0.198
-636.609	-200.000	0.015	-0.104
-635.595	-63.192	0.054	-0.022
-634.580	114.545	0.210	0.256
-633.565	120.226	-0.086	-0.107
-632.551	1.770	-0.156	0.113
-631.536	-40.972	-0.130	-0.067
-630.522	-136.834	0.247	0.028
-629.507	-200.000	0.222	-0.001
-628.492	-23.013	-0.027	0.016
-627.478	-59.988	0.040	0.017
-626.463	800.000	-0.028	-0.108
-625.449	-41.200	0.409	-0.211
-624.434	68.931	0.150	-0.155
-623.419	207.875	0.121	-0.190
-622.405	-7.169	-0.136	0.093
-621.390	-121.107	-0.268	-0.045
-620.376	178.335	-0.145	-0.212
-619.361	-12.315	0.448	0.293
-618.346	-117.809	-0.167	-0.030
-617.332	121.314	-0.121	0.151
-616.317	-150.965	0.559	-0.042
-615.303	-184.517	0.151	0.002
-614.288	-94.786	-0.220	0.060
-613.273	-141.461	0.244	-0.025
-612.259	56.762	-0.098	0.095
-611.244	-150.683	0.178	-0.014
-610.230	800.000	-0.057	-0.216
-609.215	-14.915	0.019	0.012
-608.201	-156.956	-0.201	0.012
-607.186	-200.000	-0.002	0.030
-606.171	-91.421	0.272	-0.078
-605.157	91.159	0.227	0.255
-604.142	800.000	-0.072	-0.241
-603.128	-200.000	-0.010	0.120
-602.113	53.254	0.236	-0.227
-601.098	-98.925	-0.167	-0.042
-600.084	156.151	0.081	0.112
-599.069	-13.362	-0.147	0.095
-598.055	-171.236	0.237	0.008
-597.040	476.438	-0.017	0.039
-596.025	41.193	-0.383	0.346
-595.011	143.593	0.146	0.195
-593.996	-155.949	-0.078	-0.005
-592.982	-73.390	-0.355	0.130
-591.967	800.000	-0.139	-0.557
-590.952	-178.923	-0.128	-0.003
-589.938	158.411	-0.205	-0.284
-588.923	-200.000	-0.029	-0.338
-587.909	191.277	-0.038	-0.056
-586.894	-133.290	-0.120	-0.015
-585.879	-61.456	0.341	0.143
-584.865	112.795	-0.026	-0.031
-583.850	-100.533	0.232	-0.057
-582.836	28.926	0.142	0.120
-581.821	-200.000	-0.008	-0.418
-580.806	-55.041	0.229	-0.103
-579.792	24.474	-0.107	-0.089
-578.777	-102.746	-0.299	0.071
-577.763	-37.705	-0.104	0.055
-576.748	-65.523	0.392	0.157
-575.733	69.469	0.224	0.230
-574.719	9.884	-0.101	0.077
-573.704	423.772	0.051	0.110
-572.690	-27.216	0.092	0.054
-571.675	-195.845	0.329	0.002
-570.661	81.077	0.124	0.133
-569.646	510.824	-0.084	-0.196
-568.631	270.367	-0.082	-0.143
-567.617	276.130	0.057	-0.101
-566.602	-200.000	0.019	0.346
-565.588	-87.295	-0.095	0.029
-564.573	-200.000	-0.046	-0.250
-563.558	-107.210	-0.220	-0.048
-562.544	-78.229	-0.138	0.047
-561.529	-126.743	-0.258	0.038
-560.515	-127.819	-0.318	0.046
-559.500	72.463	-0.190	-0.197
-558.485	-90.936	-0.206	-0.059
-557.471	800.000	0.080	-0.319
-556.456	-95.622	-0.321	0.086
-555.442	-10.036	0.153	0.102
-554.427	-114.589	-0.411	0.079
-553.412	4.118	0.123	0.090
-552.398	2.446	-0.076	0.055
-551.383	800.000	-0.081	-0.258
-550.369	332.309	-0.011	0.022
-549.354	23.371	0.268	0.220
-548.339	-44.989	-0.173	0.086
-547.325	143.915	-0.019	-0.025
-546.310	-42.209	-0.249	0.127
-545.296	226.478	0.130	0.210
-544.281	135.036	-0.164	0.213
-543.266	-123.284	-0.341	-0.054
-542.252	535.278	0.090	0.214
-541.237	177.302	0.053	0.077
-540.223	166.513	-0.194	-0.275
-539.208	104.741	0.072	-0.085
-538.193	90.352	-0.020	-0.022
-537.179	-60.944	-0.367	-0.155
-536.164	-160.652	-0.382	-0.020
-535.150	-200.000	0.022	-0.222
-534.135	103.220	-0.141	-0.165
-533.121	756.106	0.042	-0.113
-532.106	-200.000	0.038	0.168
-531.091	101.031	0.082	-0.095
-530.077	-23.336	-0.135	-0.081
-529.062	11.635	-0.312	0.239
-528.048	96.697	-0.143	0.164
-527.033	-93.860	0.174	0.048
-526.018	-149.033	-0.044	-0.003
-525.004	93.882	0.237	-0.268
-523.989	-111.941	-0.183	-0.037
-522.975	323.402	0.183	0.348
-521.960	-180.629	0.258	0.005
-520.945	-136.967	-0.108	0.012
-519.931	-200.000	0.032	-0.200
-518.916	-95.249	-0.210	0.056
-517.902	364.942	0.010	0.021
-516.887	8.776	0.222	0.167
-515.872	-10.313	0.134	-0.089
-514.858	94.713	-0.163	-0.185
-513.843	95.115	0.161	0.183
-512.829	-154.791	0.166	0.011
-511.814	-15.004	-0.151	-0.096
-510.799	-53.305	0.048	0.022
-509.785	11.099	-0.201	-0.153
-508.770	-139.668	-0.150	0.016
-507.756	266.460	-0.150	-0.261
-506.741	265.239	0.101	0.176
-505.726	-51.140	-0.174	-0.081
-504.712	407.349	-0.114	0.241
-503.697	-17.498	-0.070	-0.044
-502.683	-100.968	0.077	0.019
-501.668	-200.000	-0.029	-0.304
-500.653	-44.400	-0.130	0.065
-499.639	-108.470	0.351	0.075
-498.624	194.829	-0.123	0.186
-497.610	110.790	-0.175	0.210
-496.595	9.802	-0.242	0.183
-495.581	-149.553	0.486	-0.038
-494.566	-47.336	0.186	-0.090
-493.551	90.974	-0.196	-0.219
-492.537	-156.031	-0.297	-0.019
-491.522	123.034	0.217	-0.271
-490.508	-24.251	0.075	-0.044
-489.493	48.883	-0.449	0.420
-488.478	553.190	0.073	-0.175
-487.464	7.352	-0.315	-0.234
-486.449	-117.710	-0.188	-0.034
-485.435	-76.291	0.117	0.041
-484.420	236.686	0.195	-0.321
-483.405	-200.000	-0.001	0.016
-482.391	96.069	0.201	-0.229
-481.376	-200.000	0.052	-0.256
-480.362	-93.349	-0.095	0.026
-479.347	-1.994	-0.299	-0.209
-478.332	581.072	-0.042	-0.102
-477.318	-200.000	-0.047	0.330
-476.303	352.836	-0.181	0.357
-475.289	-109.566	0.310	0.065
-474.274	800.000	-0.066	-0.200
-473.259	-61.731	-0.211	-0.088
-472.245	-53.801	0.131	-0.059
-471.230	48.421	0.112	-0.105
-470.216	163.483	0.177	-0.248
-469.201	-200.000	0.002	-0.368
-468.186	-200.000	0.005	-0.063
-467.172	-200.000	0.025	-0.126
-466.157	-79.354	-0.139	-0.047
-465.143	800.000	0.151	-0.463
-464.128	266.223	-0.140	-0.244
-463.113	609.402	-0.106	0.263
-462.099	-20.607	-0.173	0.105
-461.084	-141.943	-0.168	0.017
-460.070	-18.646	-0.288	0.179
-459.055	14.822	-0.209	-0.163
-458.040	-200.000	0.054	0.241
-457.026	172.906	-0.052	-0.074
-456.011	-74.899	0.463	-0.165
-454.997	18.134	0.135	-0.107
-453.982	-200.000	0.000	-0.152
-452.968	-200.000	-0.031	0.164
-451.953	0.078	-0.214	-0.152
-450.938	-135.886	-0.320	0.038
-449.924	-124.321	0.279	-0.043
-448.909	181.303	0.092	-0.135
-447.895	-200.000	-0.012	0.073
-446.880	-77.820	0.061	0.021
-445.865	-22.771	0.228	-0.137
-444.851	22.098	0.088	0.071
-443.836	174.403	0.208	0.299
-442.822	90.965	0.042	-0.047
-441.807	224.876	-0.079	0.128
-440.792	130.257	0.027	-0.035
-439.778	179.718	0.109	0.159
-438.763	-42.797	-0.328	0.166
-437.749	-93.039	-0.199	0.055
-436.734	-116.121	0.389	0.072
-435.719	58.063	-0.156	0.151
-434.705	-65.761	-0.295	0.118
-433.690	-200.000	0.007	-0.262
-432.676	-70.573	0.182	-0.068
-431.661	223.885	0.175	-0.281
-430.646	37.304	0.183	-0.161
-429.632	-160.800	0.080	-0.004
-428.617	-141.424	0.296	-0.030
-427.603	-51.390	-0.367	0.170
-426.588	113.845	0.134	-0.162
-425.573	-59.710	0.065	-0.028
-424.559	-200.000	-0.325	-0.001
-423.544	61.495	0.089	-0.088
-422.530	-200.000	0.024	-0.198
-421.515	205.632	0.036	-0.056
-420.500	265.024	0.163	0.282
-419.486	154.771	0.138	0.189
-418.471	2.132	0.103	0.074
-417.457	-81.758	0.409	0.133
-416.442	100.558	-0.063	0.073
-415.428	-200.000	-0.027	-0.143
-414.413	288.772	-0.139	-0.251
-413.398	89.117	-0.058	-0.064
-412.384	-74.724	-0.150	0.054
-411.369	-47.122	0.085	-0.041
-410.355	79.615	0.227	-0.242
-409.340	-1.203	-0.120	-0.084
-408.325	23.103	-0.231	-0.189
-407.311	-79.673	-0.287	0.096
-406.296	185.961	-0.133	-0.196
-405.282	282.817	-0.097	-0.172
-404.267	-200.000	-0.025	-0.174
-403.252	231.249	0.204	-0.332
-402.238	-200.000	-0.003	-0.231
-401.223	176.480	0.170	-0.245
-400.209	-200.000	0.010	-0.107
-399.194	-107.611	-0.098	0.021
-398.179	800.000	0.051	0.146
-397.165	635.038	-0.085	-0.213
-396.150	156.183	0.078	-0.106
-395.136	25.286	-0.359	-0.296
-394.121	49.418	-0.158	-0.147
-393.106	50.284	0.321	-0.301
-392.092	55.537	-0.138	-0.132
-391.077	-150.834	0.254	0.019
-390.063	-200.000	0.033	0.246
-389.048	-172.617	-0.399	0.012
-388.033	-66.730	0.121	0.048
-387.019	307.281	0.223	0.412
-386.004	-38.182	-0.166	-0.087
-384.990	18.567	-0.145	-0.115
-383.975	78.567	-0.056	-0.059
-382.960	144.756	0.063	-0.083
-381.946	505.898	-0.113	-0.259
-380.931	34.957	-0.162	0.141
-379.917	-128.505	-0.216	0.030
-378.902	34.976	-0.187	0.162
-377.888	-99.877	0.263	-0.065
-376.873	175.699	-0.070	-0.101
-375.858	359.872	-0.115	-0.228
-374.844	481.342	0.025	-0.057
-373.829	-42.243	0.034	0.017
-372.815	143.061	0.195	-0.257
-371.800	-200.000	0.023	-0.148
-370.785	-200.000	-0.004	-0.141
-369.771	-134.313	0.266	-0.032
-368.756	-63.926	-0.439	0.178
-367.742	-38.862	-0.106	0.055
-366.727	-200.000	0.024	0.299
-365.712	-101.513	0.117	0.028
-364.698	800.000	-0.099	0.299
-363.683	68.483	0.254	0.258
-362.669	84.032	0.118	0.128
-361.654	-136.933	0.120	-0.014
-360.639	-45.586	0.212	-0.104
-359.625	-200.000	0.028	-0.254
-358.610	-110.186	0.338	0.070
-357.596	800.000	0.022	-0.063
-356.581	27.231	-0.248	0.207
-355.566	-9.851	0.105	0.069
-354.552	-97.830	-0.319	-0.082
-353.537	-135.540	0.052	-0.006
-352.523	-60.552	0.169	0.071
-351.508	800.000	0.059	0.229
-350.493	-71.464	0.295	-0.109
-349.479	-123.572	0.352	-0.055
-348.464	180.958	-0.169	0.247
-347.450	-200.000	0.017	0.334
-346.435	646.193	0.057	0.145
-345.420	-44.024	0.185	0.092
-344.406	-200.000	0.050	-0.272
-343.391	-151.559	0.080	0.006
-342.377	-200.000	-0.006	0.168
-341.362	107.826	-0.102	0.121
-340.348	-3.644	0.130	0.090
-339.333	9.400	0.285	0.214
-338.318	-200.000	-0.029	-0.171
-337.304	305.798	0.087	0.161
-336.289	131.021	-0.222	0.282
-335.275	-94.450	-0.007	0.002
-334.260	141.499	0.110	0.144
-333.245	468.306	0.005	0.011
-332.231	0.974	0.258	0.183
-331.216	-79.984	0.168	-0.056
-330.202	-81.516	-0.032	-0.010
-329.187	-81.195	-0.337	0.110
-328.172	800.000	0.029	-0.081
-327.158	152.020	0.023	-0.031
-326.143	-82.844	-0.262	0.084
-325.129	696.830	0.110	-0.285
-324.114	-4.675	-0.141	-0.096
-323.099	9.042	-0.191	-0.143
-322.085	10.372	-0.091	-0.068
-321.070	-73.183	0.101	-0.037
-320.056	-200.000	-0.009	0.056
-319.041	-136.803	-0.242	-0.028
-318.026	736.931	0.091	0.242
-317.012	18.164	0.199	-0.157
-315.997	-68.136	-0.255	-0.098
-314.983	76.783	-0.253	0.265
-313.968	-11.764	-0.102	0.066
-312.953	-106.590	-0.254	-0.056
-311.939	56.315	0.223	0.215
-310.924	25.786	-0.348	-0.287
-309.910	-90.296	0.105	-0.030
-308.895	-172.873	0.201	-0.006
-307.880	800.000	-0.157	0.497
-306.866	224.407	0.127	0.203
-305.851	127.029	0.261	-0.328
-304.837	186.569	0.080	-0.118
-303.822	-55.269	0.277	0.123
-302.807	-199.267	-0.326	-0.002
-301.793	42.625	0.126	0.113
-300.778	-181.795	0.082	-0.002
-299.764	111.032	0.051	-0.060
-298.749	-200.000	-0.020	0.130
-297.735	-128.476	-0.473	-0.066
-296.720	-19.786	0.183	0.112
-295.705	15.454	-0.076	0.059
-294.691	129.940	-0.064	0.081
-293.676	800.000	-0.037	0.113
-292.662	800.000	0.026	-0.073
-291.647	22.099	0.153	-0.123
-290.632	-200.000	-0.006	0.062
-289.618	-174.550	0.346	0.010
-288.603	-85.123	0.120	-0.037
-287.589	-165.679	0.312	0.013
-286.574	800.000	-0.101	0.341
-285.559	125.986	0.154	-0.192
-284.545	-29.981	-0.188	0.106
-283.530	-86.027	-0.285	0.087
-282.516	-100.340	-0.286	-0.070
-281.501	-7.372	0.156	0.104
-280.486	152.461	0.094	0.127
-279.472	-138.636	0.360	-0.039
-278.457	-74.178	0.147	0.053
-277.443	-29.265	0.172	0.097
-276.428	-16.927	-0.310	0.194
-275.413	-51.389	-0.123	-0.057
-274.399	-159.815	0.144	-0.008
-273.384	-166.547	-0.281	0.012
-272.370	800.000	0.159	0.437
-271.355	-37.055	-0.051	0.027
-270.340	-50.593	0.019	-0.009
-269.326	-200.000	0.022	-0.180
-268.311	-191.610	-0.143	0.001
-267.297	335.875	-0.095	-0.182
-266.282	-74.612	0.175	-0.062
-265.267	-133.306	-0.144	0.018
-264.253	800.000	-0.040	0.109
-263.238	-200.000	0.035	0.404
-262.224	41.499	0.190	-0.170
-261.209	479.560	-0.137	0.306
-260.195	10.445	-0.084	0.063
-259.180	160.411	0.178	0.245
-258.165	772.450	-0.057	0.153
-257.151	2.398	-0.260	-0.185
-256.136	564.904	-0.010	0.023
-255.122	2.881	-0.092	-0.066
-254.107	-33.196	-0.143	-0.078
-253.092	-103.291	-0.296	0.069
-252.078	17.524	0.221	-0.174
-251.063	257.101	-0.075	0.127
-250.049	-91.237	0.125	-0.035
-249.034	-145.676	0.237	0.021
-248.019	-127.074	0.167	-0.024
-247.005	-200.000	-0.017	0.115
-245.990	-200.000	0.040	-0.357
-244.976	-200.000	0.092	-0.485
-243.961	230.096	0.040	0.064
-242.946	274.037	-0.090	-0.157
-241.932	321.937	0.180	0.337
-240.917	467.985	0.043	0.094
-239.903	390.827	0.043	-0.088
-238.888	353.500	0.108	0.212
-237.873	118.616	0.210	-0.256
-236.859	25.991	0.144	-0.119
-235.844	243.728	0.026	0.043
-234.830	173.800	-0.270	0.385
-233.815	-73.958	-0.292	0.105
-232.800	569.256	0.057	-0.138
-231.786	-132.855	0.360	-0.045
-230.771	800.000	-0.019	0.071
-229.757	-109.314	0.300	0.063
-228.742	800.000	0.020	0.061
-227.727	-85.451	-0.146	-0.045
-226.713	-24.225	-0.169	-0.099
-225.698	32.969	-0.173	0.148
-224.684	-14.637	-0.219	0.139
-223.669	332.330	0.100	-0.191
-222.655	-82.902	0.195	0.062
-221.640	182.427	0.150	-0.218
-220.625	170.068	0.238	0.335
-219.611	-55.221	-0.362	-0.160
-218.596	-175.444	0.034	-0.001
-217.582	-33.960	0.128	-0.069
-216.567	337.014	0.114	-0.218
-215.552	23.252	0.018	0.014
-214.538	-126.402	-0.291	-0.043
-213.523	16.292	0.184	0.143
-212.509	-88.221	0.221	-0.065
-211.494	218.146	0.182	0.286
-210.479	-155.180	0.436	0.028
-209.465	115.095	-0.093	0.112
-208.450	-200.000	-0.015	0.254
-207.436	1.122	0.188	-0.133
-206.421	-107.131	-0.288	-0.063
-205.406	-14.123	-0.124	-0.079
-204.392	800.000	0.075	-0.219
-203.377	161.486	0.160	0.220
-202.363	-131.658	-0.392	0.051
-201.348	800.000	-0.105	0.435
-200.333	520.164	0.052	0.120
-199.319	56.158	-0.100	0.096
-198.304	431.902	0.028	-0.060
-197.290	-11.594	-0.254	0.165
-196.275	-200.000	-0.034	0.185
-195.260	7.599	-0.201	0.148
-194.246	800.000	0.108	0.412
-193.231	-143.857	0.132	-0.012
-192.217	-75.931	0.158	0.055
-191.202	273.037	-0.146	0.254
-190.187	-200.000	0.026	0.148
-189.173	101.159	0.113	0.129
-188.158	497.797	0.078	-0.178
-187.144	-166.189	0.433	-0.018
-186.129	800.000	0.078	0.250
-185.114	-200.000	0.039	-0.171
-184.100	-200.000	0.019	-0.087
-183.085	-1.590	0.041	-0.029
-182.071	17.622	0.021	-0.017
-181.056	800.000	0.033	-0.102
-180.042	110.110	-0.306	-0.362
-179.027	440.896	0.171	0.368
-178.012	-200.000	0.014	-0.257
-176.998	-28.759	0.214	-0.121
-175.983	-90.100	-0.230	0.066
-174.969	800.000	0.012	0.033
-173.954	-24.581	-0.127	0.074
-172.939	-153.072	0.237	0.016
-171.925	-100.280	-0.180	-0.044
-170.910	-104.727	-0.191	0.043
-169.896	-100.812	0.231	0.056
-168.881	-23.615	0.158	-0.093
-167.866	-60.072	0.182	0.076
-166.852	99.009	-0.111	0.126
-165.837	22.823	0.241	0.195
-164.823	3.261	0.256	0.183
-163.808	-146.114	0.148	-0.013
-162.793	234.824	-0.123	0.199
-161.779	122.487	-0.046	0.057
-160.764	420.607	0.101	-0.212
-159.750	114.963	0.014	0.016
-158.735	-86.768	0.025	-0.008
-157.720	-200.000	-0.006	-0.156
-156.706	-65.983	-0.248	-0.097
-155.691	-71.686	-0.181	0.067
-154.677	-200.000	0.033	0.166
-153.662	727.965	0.061	0.159
-152.647	-57.116	0.199	-0.086
-151.633	800.000	-0.106	-0.356
-150.618	-88.058	0.166	-0.049
-149.604	-35.857	0.246	0.131
-148.589	66.113	-0.314	0.313
-147.574	800.000	0.042	-0.123
-146.560	-6.205	0.221	-0.148
-145.545	268.689	0.067	-0.116
-144.531	70.089	0.182	0.185
-143.516	-82.341	0.168	-0.054
-142.502	412.613	0.057	-0.118
-141.487	-200.000	-0.042	-0.195
-140.472	155.013	-0.156	-0.211
-139.458	-105.614	0.158	-0.035
-138.443	125.452	0.067	0.083
-137.429	-200.000	-0.054	0.275
-136.414	202.993	-0.082	0.125
-135.399	-127.807	-0.193	-0.027
-134.385	18.050	0.115	0.090
-133.370	-83.954	0.159	0.050
-132.356	25.421	0.280	-0.229
-131.341	-27.757	0.397	0.226
-130.326	304.345	-0.292	0.532
-129.312	-200.000	0.020	-0.095
-128.297	-45.948	-0.248	0.120
-127.283	-144.164	-0.067	-0.006
-126.268	-36.571	-0.132	-0.070
-125.253	-200.000	0.034	0.437
-124.239	94.143	0.080	0.089
-123.224	149.764	-0.115	0.153
-122.210	800.000	0.049	0.165
-121.195	-200.000	0.023	0.353
-120.180	-80.298	0.101	-0.033
-119.166	328.479	-0.128	-0.242
-118.151	-200.000	-0.015	0.253
-117.137	129.167	0.025	-0.032
-116.122	-101.395	0.241	0.058
-115.107	75.803	-0.227	0.236
-114.093	203.431	0.156	0.237
-113.078	-200.000	-0.039	-0.239
-112.064	800.000	-0.014	0.047
-111.049	-200.000	0.008	0.407
-110.034	-6.894	0.377	0.251
-109.020	391.494	0.163	-0.332
-108.005	-75.554	0.338	0.118
-106.991	-200.000	0.035	0.364
-105.976	800.000	-0.080	0.331
-104.962	-200.000	0.063	0.337
-103.947	-108.454	0.165	0.035
-102.932	-153.427	0.318	0.022
-101.918	-21.079	-0.264	0.159
-100.903	782.231	0.027	-0.074
-99.889	218.465	0.094	0.147
-98.874	-155.733	-0.277	-0.017
-97.859	292.354	-0.157	0.281
-96.845	40.247	-0.057	-0.051
-95.830	-132.766	-0.220	0.028
-94.816	-92.222	-0.116	-0.032
-93.801	70.286	0.244	-0.247
-92.786	-200.000	-0.036	0.219
-91.772	-68.206	0.231	0.088
-90.757	-24.989	0.153	-0.089
-89.743	81.213	-0.011	0.012
-88.728	100.604	0.040	-0.046
-87.713	48.131	-0.247	0.227
-86.699	-200.000	0.006	-0.092
-85.684	180.136	0.104	-0.150
-84.670	4.124	0.105	-0.075
-83.655	109.494	0.062	-0.073
-82.640	136.541	0.120	0.153
-81.626	0.200	-0.069	0.048
-80.611	-150.774	-0.413	-0.031
-79.597	186.273	0.213	0.311
-78.582	20.978	0.288	0.229
-77.567	-200.000	-0.037	-0.202
-76.553	-200.000	-0.043	0.210
-75.538	628.441	-0.126	0.312
-74.524	-124.589	-0.164	-0.025
-73.509	-14.517	-0.171	-0.108
-72.494	12.861	-0.110	-0.084
-71.480	-28.217	-0.235	0.133
-70.465	800.000	0.104	-0.296
-69.451	-200.000	0.044	-0.227
-68.436	750.501	0.063	0.168
-67.422	-36.151	0.116	0.061
-66.407	-129.131	-0.270	-0.037
-65.392	-200.000	0.008	0.046
-64.378	150.795	0.154	-0.205
-63.363	-200.000	-0.013	0.157
-62.349	606.305	-0.080	0.195
-61.334	32.673	-1.170	-0.991
-60.319	29.962	0.799	0.667
-59.305	421.665	-0.479	-1.007
-58.290	369.005	0.707	1.400
-57.276	498.865	0.643	1.451
-56.261	-200.000	113.161	647.385
-55.246	542.348	1516.238	3539.992
-54.232	179.757	2680.603	3844.908
-53.217	109.993	2168.645	2547.914
-52.203	38.397	1699.550	1482.698
-51.188	31.083	1519.481	1275.755
-50.173	28.850	1494.747	1239.897
-49.159	52.593	1552.763	1451.838
-48.144	51.303	1568.327	1457.476
-47.130	31.332	1524.288	1281.296
-46.115	28.236	1509.664	1247.883
-45.100	28.107	1506.625	1244.445
-44.086	28.057	1504.453	1242.265
-43.071	27.914	1503.036	1240.071
-42.057	28.077	1501.042	1239.484
-41.042	27.901	1499.894	1237.294
-40.027	27.990	1498.110	1236.376
-39.013	27.960	1496.719	1234.976
-37.998	27.933	1495.303	1233.578
-36.984	27.863	1494.575	1232.452
-35.969	27.966	1493.071	1231.859
-34.954	27.948	1491.571	1230.450
-33.940	27.985	1489.629	1229.052
-32.925	27.968	1488.646	1228.074
-31.911	27.973	1487.577	1227.179
-30.896	28.022	1486.248	1226.364
-29.881	28.075	1484.659	1225.355
-28.867	28.042	1483.343	1224.004
-27.852	28.055	1482.194	1223.090
-26.838	28.096	1480.899	1222.252
-25.823	28.008	1479.848	1220.748
-24.809	28.077	1478.054	1219.681
-23.794	28.120	1476.751	1218.842
-22.779	28.045	1475.653	1217.388
-21.765	28.082	1474.753	1216.846
-20.750	28.076	1473.449	1215.679
-19.736	28.127	1472.014	1214.785
-18.721	28.029	1471.003	1213.253
-17.706	28.092	1469.517	1212.398
-16.692	28.033	1468.825	1211.387
-15.677	28.058	1468.207	1210.996
-14.663	28.036	1467.136	1209.917
-13.648	27.951	1465.845	1208.240
-12.633	28.106	1465.035	1208.549
-11.619	27.993	1464.641	1207.428
-10.604	28.037	1463.282	1206.557
-9.590	27.985	1462.387	1205.428
-8.575	27.987	1461.100	1204.332
-7.560	28.081	1460.239	1204.188
-6.546	28.013	1459.944	1203.450
-5.531	27.949	1459.151	1202.328
-4.517	27.904	1458.243	1201.239
-3.502	28.077	1456.613	1200.981
-2.487	28.014	1456.229	1200.204
-1.473	27.964	1455.351	1199.103
-0.458	27.860	1454.360	1197.559
0.556	29.309	1444.230	1186.230
1.571	26.191	1419.290	1145.886
2.586	22.610	1361.346	1077.174
3.600	20.999	1278.907	1002.596
4.615	19.576	1232.750	958.431
5.629	17.132	1176.118	901.366
6.644	10.118	1093.867	803.515
7.659	4.655	1055.757	749.194
8.673	3.940	1050.507	741.974
9.688	3.705	1047.116	738.392
10.702	3.468	1045.484	736.042
11.717	3.578	1043.311	734.972
12.731	6.058	1045.917	748.571
13.746	13.628	1056.036	792.046
14.761	20.637	1064.872	832.259
15.775	22.717	1067.224	843.984
16.790	22.387	1065.630	841.074
17.804	21.436	1064.230	835.355
18.819	20.767	1062.191	830.488
19.834	20.408	1061.349	828.045
20.848	20.460	1060.286	827.390
21.863	20.359	1060.286	826.835
22.877	20.305	1059.620	825.989
23.892	20.150	1058.525	824.326
24.907	19.959	1058.325	823.190
25.921	19.922	1057.208	822.072
26.936	19.942	1055.820	821.014
27.950	19.975	1055.065	820.508
28.965	19.950	1054.238	819.676
29.980	20.005	1052.916	818.837
30.994	20.200	1051.484	818.570
32.009	20.397	1050.830	818.916
33.023	20.358	1050.390	818.318
34.038	20.429	1049.397	817.808
35.053	20.224	1048.755	816.270
36.067	20.080	1047.762	814.749
37.082	20.056	1046.640	813.691
38.096	20.081	1046.070	813.295
39.111	20.112	1045.743	813.113
40.126	20.284	1044.806	813.119
41.140	20.102	1043.724	811.350
42.155	19.854	1042.048	808.819
43.169	19.672	1041.128	807.182
44.184	19.528	1039.797	805.407
45.199	19.420	1038.982	804.201
46.213	19.509	1037.821	803.644
47.228	19.610	1037.208	803.568
48.242	19.862	1036.619	804.215
49.257	20.134	1036.312	805.166
50.271	20.152	1035.317	804.406
51.286	20.134	1034.852	803.888
52.301	20.303	1033.448	803.510
53.315	20.153	1033.516	802.800
54.330	20.099	1032.206	801.462
55.344	20.009	1030.870	799.935
56.359	19.746	1030.224	798.150
57.374	19.751	1029.122	797.248
58.388	19.828	1028.295	796.895
59.403	19.592	1027.969	795.485
60.417	19.608	1026.508	794.357
61.432	19.397	1026.344	793.186
62.447	19.515	1025.112	792.709
63.461	19.395	1024.701	791.767
64.476	19.267	1023.921	790.509
65.490	19.296	1022.802	789.709
66.505	19.313	1021.914	789.032
67.520	19.309	1021.182	788.377
68.534	19.335	1020.489	787.892
69.549	19.277	1019.937	787.131
70.563	19.300	1018.657	786.178
71.578	19.270	1018.323	785.712
72.593	19.096	1017.178	783.968
73.607	18.764	1016.423	781.808
74.622	18.932	1015.146	781.519
75.636	18.838	1014.986	780.899
76.651	18.950	1013.520	780.212
77.666	19.122	1012.764	780.340
78.680	19.121	1012.253	779.873
79.695	19.087	1012.099	779.531
80.709	19.124	1011.244	778.969
81.724	19.342	1010.620	779.405
82.739	19.485	1009.707	779.280
83.753	19.607	1008.989	779.207
84.768	19.891	1007.920	779.593
85.782	20.263	1008.348	781.530
86.797	20.591	1007.921	782.604
87.812	20.623	1006.896	781.886
88.826	20.431	1005.876	780.162
89.841	20.202	1005.365	778.666
90.855	20.590	1004.279	779.496
91.870	20.460	1004.141	778.737
92.884	20.439	1003.477	778.061
93.899	20.435	1002.627	777.316
94.914	20.396	1001.708	776.356
95.928	20.519	1000.601	775.982
96.943	20.424	1000.239	775.208
97.957	20.355	999.414	774.190
98.972	20.226	998.272	772.667
99.987	20.215	997.314	771.803
101.001	20.411	996.900	772.287
102.016	20.347	995.892	771.157
103.030	20.190	994.771	769.520
104.045	20.274	994.168	769.360
105.060	20.265	993.358	768.624
106.074	20.277	991.861	767.453
107.089	19.940	991.144	765.338
108.103	19.519	989.807	762.382
109.118	19.465	988.584	761.134
110.133	19.372	987.765	760.024
111.147	19.342	986.500	758.854
112.162	19.235	985.534	757.574
113.176	19.207	984.743	756.774
114.191	19.502	984.312	757.673
115.206	19.608	983.647	757.557
116.220	19.630	982.602	756.783
117.235	19.417	981.971	755.297
118.249	19.318	981.356	754.324
119.264	19.261	980.578	753.409
120.279	19.227	979.323	752.231
121.293	19.265	978.353	751.583
122.308	19.156	977.736	750.567
123.322	19.036	976.679	749.166
124.337	18.896	975.488	747.579
125.352	18.977	974.312	746.966
126.366	18.806	973.711	745.694
127.381	18.853	972.672	745.035
128.395	18.835	972.251	744.571
129.410	19.028	970.992	744.377
130.424	19.134	970.315	744.247
131.439	19.048	969.292	743.028
132.454	19.360	968.841	743.960
133.468	19.420	968.590	743.964
134.483	19.546	967.873	743.890
135.497	19.476	967.224	743.022
136.512	19.326	966.618	741.845
137.527	19.526	965.493	741.775
138.541	19.459	964.851	740.929
139.556	19.615	964.235	741.061
140.570	19.608	963.850	740.670
141.585	19.864	963.037	741.075
142.600	19.943	962.959	741.287
143.614	20.156	961.763	741.215
144.629	20.263	960.793	740.858
145.643	20.427	960.835	741.525
146.658	20.323	959.542	740.015
147.673	20.014	958.354	737.721
148.687	19.812	956.847	735.635
149.702	19.715	956.042	734.537
150.716	19.552	954.840	732.859
151.731	19.641	953.780	732.359
152.746	19.524	953.602	731.659
153.760	19.690	952.686	731.594
154.775	19.644	952.246	730.997
155.789	19.767	951.442	730.834
156.804	19.856	950.789	730.645
157.819	19.998	949.871	730.476
158.833	19.946	948.860	729.413
159.848	20.208	948.525	730.196
160.862	20.195	948.563	730.104
161.877	20.314	947.057	729.382
162.892	19.846	946.100	726.613
163.906	19.603	944.668	724.430
164.921	19.361	943.991	722.831
165.935	19.416	942.556	721.901
166.950	19.549	942.012	721.978
167.964	19.754	940.790	721.832
168.979	19.685	939.935	720.823
169.994	19.669	938.928	719.922
171.008	19.600	937.735	718.658
172.023	19.762	937.505	719.090
173.037	20.020	936.769	719.533
174.052	20.323	936.295	720.363
175.067	20.024	936.127	718.930
176.081	19.668	934.625	716.239
177.096	19.336	933.392	713.855
178.110	19.272	932.665	712.972
179.125	19.510	931.721	713.168
180.140	19.678	930.594	712.936
181.154	19.701	930.110	712.597
182.169	19.886	930.519	713.610
183.183	19.958	929.874	713.350
184.198	20.216	928.757	713.493
185.213	20.063	928.445	712.558
186.227	19.976	927.838	711.672
187.242	20.160	927.174	711.859
188.256	20.144	927.095	711.669
189.271	20.383	926.406	712.058
190.286	20.410	925.976	711.772
191.300	20.181	924.869	709.920
192.315	19.586	923.145	706.102
193.329	19.287	922.046	703.980
194.344	19.269	921.660	703.548
195.359	19.474	921.212	703.979
196.373	19.690	920.952	704.600
197.388	19.636	920.746	704.161
198.402	20.001	920.264	705.217
199.417	20.259	920.087	706.068
200.432	20.457	919.674	706.494
201.446	20.653	919.268	706.918
202.461	20.677	918.898	706.666
203.475	20.800	918.723	706.968
204.490	20.734	917.682	705.836
205.504	20.323	916.609	703.284
206.519	20.211	915.324	701.785
207.534	20.215	914.432	701.052
208.548	19.949	914.023	699.603
209.563	20.106	913.042	699.427
210.577	20.207	912.596	699.429
211.592	20.137	911.784	698.462
212.607	20.392	911.623	699.302
213.621	20.622	911.659	700.196
214.636	20.557	910.661	699.107
215.650	20.421	909.844	697.872
216.665	20.313	909.395	697.029
217.680	20.473	908.946	697.266
218.694	20.766	908.378	697.945
219.709	20.735	908.217	697.636
220.723	20.733	907.306	696.866
221.738	20.527	906.868	695.642
222.753	20.521	905.880	694.798
223.767	20.335	905.371	693.604
224.782	20.567	904.673	693.936
225.796	20.663	904.213	693.905
226.811	20.815	903.457	693.868
227.826	20.812	902.365	692.955
228.840	20.606	901.591	691.481
229.855	20.301	900.931	689.699
230.869	20.387	900.067	689.322
231.884	20.350	899.782	688.895
232.899	20.291	898.801	687.849
233.913	20.157	898.227	686.818
234.928	20.148	897.412	686.096
235.942	19.969	896.449	684.592
236.957	19.956	895.575	683.812
237.972	19.977	895.195	683.546
238.986	19.930	894.920	683.092
240.001	19.850	894.180	682.150
241.015	19.884	893.926	682.028
242.030	20.063	892.504	681.589
243.045	20.246	891.921	681.802
244.059	20.227	891.929	681.672
245.074	20.373	891.030	681.501
246.088	20.399	890.537	681.164
247.103	20.486	890.010	681.043
248.117	20.530	889.692	680.911
249.132	20.887	889.232	681.893
250.147	21.197	889.534	683.279
251.161	21.613	888.587	684.119
252.176	21.573	888.249	683.640
253.190	21.590	887.643	683.180
254.205	21.744	887.097	683.299
255.220	21.668	886.770	682.691
256.234	21.679	885.844	681.962
257.249	21.541	885.194	680.862
258.263	21.504	884.841	680.388
259.278	21.448	883.899	679.385
260.293	21.439	883.665	679.112
261.307	21.595	883.059	679.188
262.322	21.608	882.788	678.973
263.336	21.626	882.268	678.583
264.351	21.691	881.485	678.171
265.366	21.679	880.590	677.376
266.380	21.565	880.090	676.490
267.395	21.844	879.447	677.012
268.409	21.517	878.679	675.103
269.424	21.500	877.461	674.043
270.439	21.351	877.283	673.269
271.453	21.416	876.364	672.756
272.468	21.239	875.895	671.656
273.482	21.258	874.515	670.612
274.497	21.275	874.002	670.222
275.512	21.232	873.459	669.584
276.526	21.147	872.906	668.772
277.541	21.182	872.367	668.436
278.555	21.171	871.812	667.910
279.570	21.485	871.442	668.767
280.585	21.766	871.209	669.602
281.599	21.814	870.461	669.152
282.614	21.615	869.912	667.910
283.628	21.360	869.124	666.276
284.643	21.276	868.571	665.473
285.657	21.184	868.373	664.911
286.672	21.347	867.506	664.807
287.687	21.325	867.090	664.347
288.701	21.369	866.318	663.866
289.716	21.416	866.092	663.811
290.730	21.336	865.165	662.738
291.745	21.456	864.758	662.824
292.760	21.380	864.076	661.954
293.774	21.415	863.702	661.739
294.789	21.787	863.764	663.139
295.803	21.914	862.825	662.839
296.818	21.583	862.010	660.904
297.833	21.442	861.070	659.591
298.847	21.321	860.443	658.597
299.862	21.513	859.608	658.622
300.876	21.451	859.288	658.086
301.891	21.587	858.910	658.251
302.906	21.786	858.485	658.613
303.920	21.974	858.115	658.977
304.935	21.885	857.887	658.410
305.949	22.372	856.839	659.374
306.964	22.174	856.401	658.237
307.979	21.912	855.809	656.744
308.993	21.620	855.454	655.321
310.008	21.779	854.665	655.252
311.022	21.925	854.109	655.314
312.037	21.961	853.549	654.957
313.052	21.636	852.913	653.199
314.066	21.391	851.903	651.457
315.081	21.110	851.544	650.079
316.095	21.194	850.449	649.496
317.110	21.190	850.141	649.190
318.125	21.219	849.616	648.840
319.139	21.193	849.404	648.525
320.154	21.204	848.452	647.781
321.168	21.214	848.044	647.448
322.183	21.461	847.538	647.919
323.197	21.373	846.941	647.080
324.212	21.517	846.407	647.149
325.227	21.597	845.720	646.858
326.241	21.508	845.305	646.156
327.256	21.333	844.965	645.192
328.270	21.385	844.067	644.644
329.285	21.328	843.391	643.860
330.300	21.333	842.944	643.480
331.314	21.338	842.324	642.968
332.329	21.345	841.943	642.647
333.343	21.571	841.498	643.081
334.358	21.910	840.687	643.647
335.373	21.713	840.371	642.624
336.387	21.894	839.759	642.763
337.402	21.890	839.404	642.420
338.416	21.932	838.799	642.055
339.431	22.046	838.463	642.159
340.446	22.276	838.362	642.863
341.460	22.340	838.027	642.783
342.475	22.489	837.287	642.702
343.489	22.637	836.606	642.663
344.504	22.477	836.395	641.861
345.519	22.679	836.230	642.415
346.533	22.717	835.489	641.925
347.548	22.657	834.872	641.177
348.562	22.542	833.956	639.999
349.577	22.107	833.079	637.690
350.592	22.026	832.332	636.771
351.606	21.911	831.867	635.940
352.621	21.836	831.090	635.019
353.635	21.732	831.105	634.595
354.650	21.827	830.782	634.637
355.665	21.891	830.113	634.302
356.679	21.958	829.627	634.116
357.694	22.020	829.720	634.356
358.708	22.207	828.724	634.211
359.723	22.059	828.306	633.305
360.738	22.088	827.708	632.895
361.752	22.232	827.050	632.852
362.767	22.314	826.590	632.741
363.781	22.301	826.767	632.774
364.796	22.739	825.967	633.677
365.810	22.780	825.886	633.707
366.825	22.898	825.673	633.911
367.840	22.899	825.651	633.843
368.854	22.944	824.989	633.439
369.869	22.727	824.223	632.016
370.883	22.608	823.582	631.043
371.898	22.575	823.013	630.434
372.913	22.761	822.306	630.500
373.927	22.845	821.776	630.340
374.942	22.707	821.250	629.388
375.956	22.524	820.653	628.221
376.971	22.898	819.762	628.816
377.986	22.831	819.596	628.396
379.000	23.055	819.038	628.709
380.015	23.194	818.606	628.815
381.029	23.001	818.103	627.686
382.044	23.025	817.175	627.005
383.059	22.914	816.700	626.190
384.073	23.135	816.126	626.478
385.088	22.959	815.773	625.529
386.102	22.753	814.605	623.851
387.117	22.513	814.238	622.665
388.132	22.529	813.291	621.944
389.146	22.544	812.938	621.670
390.161	22.467	812.778	621.222
391.175	22.693	812.722	621.921
392.190	22.939	812.422	622.502
393.205	22.824	811.911	621.652
394.219	22.530	811.185	620.007
395.234	22.449	810.793	619.366
396.248	22.357	810.108	618.466
397.263	22.302	809.460	617.722
398.278	22.125	809.010	616.705
399.292	22.113	808.425	616.160
400.307	22.099	807.803	615.585
401.321	22.174	807.564	615.610
402.336	22.215	807.165	615.396
403.350	22.375	806.856	615.664
404.365	22.416	806.873	615.767
405.380	22.601	806.457	616.040
406.394	23.082	806.030	617.339
407.409	23.264	805.687	617.655
408.423	23.257	805.311	617.289
409.438	23.213	805.187	616.987
410.453	23.351	804.348	616.771
411.467	23.416	804.196	616.825
412.482	23.299	803.631	615.929
413.496	23.457	803.171	616.072
414.511	23.551	802.795	616.055
415.526	23.503	802.568	615.660
416.540	23.288	802.147	614.536
417.555	23.322	801.494	614.099
418.569	23.366	800.827	613.686
419.584	23.384	800.426	613.386
420.599	23.304	799.967	612.705
421.613	163.782	1371.084	1798.558
422.628	142.272	1454.302	1798.616
