DTS Sentinel unit serial number:	SN413079Multiplexer serial number:	ORYXHardware model number:	OX4-SRSoftware version number:	ORYX F/W v4.00 Oryx Data Collector v3.7.2.0data status	okinstallation	princeton_trtdifferential loss correction	single-endedforward channel	channel 3reverse channel	N/Adate	2019/09/16time	09:04:35forward acquisition time	60.00reverse acquisition time	0.00gamma	496.2192k internal	0.2324k external	0.2324temperature offset calibration	0.9952default loss term (dB/km)	0.3790temperature slope calibration	1.0000multiplexer offset coefficient	1.0000multiplexer slope coefficient	1.0000fibre end	0.00T internal ref (°C)	30.66T ext. ref 1 (°C)	12.07T ext. ref 2 (°C)	28.21length (m)	temperature (°C)	Stokes	anti-Stokes-747.200	-97.229	0.107	-0.028
-746.185	6.517	0.128	0.096
-745.171	-200.000	-0.048	0.392
-744.156	-139.344	-0.376	-0.041
-743.142	-200.000	-0.019	0.119
-742.127	329.244	-0.041	-0.080
-741.112	-10.523	-0.051	0.034
-740.098	77.078	0.024	-0.026
-739.083	-200.000	-0.014	-0.174
-738.069	800.000	0.052	-0.159
-737.054	93.469	-0.201	-0.229
-736.039	-26.077	-0.392	-0.232
-735.025	76.879	-0.148	0.158
-734.010	96.115	-0.029	0.034
-732.996	-109.983	0.372	-0.079
-731.981	2.689	0.015	0.011
-730.966	-32.583	-0.228	0.128
-729.952	35.902	0.131	0.116
-728.937	-200.000	-0.006	-0.080
-727.923	269.492	-0.154	0.272
-726.908	2.856	-0.265	0.194
-725.894	-82.458	-0.369	0.121
-724.879	-84.591	-0.113	-0.036
-723.864	-14.697	-0.202	-0.131
-722.850	-97.346	-0.394	-0.104
-721.835	-62.245	-0.234	-0.098
-720.821	800.000	0.018	-0.054
-719.806	146.140	0.176	0.238
-718.791	318.153	0.129	0.246
-717.777	121.958	0.181	-0.227
-716.762	112.439	0.070	-0.085
-715.748	333.522	-0.203	-0.396
-714.733	-45.591	-0.100	0.050
-713.718	-19.722	-0.186	0.116
-712.704	-125.505	-0.205	-0.031
-711.689	800.000	0.032	0.108
-710.675	110.688	-0.308	-0.374
-709.660	218.516	0.143	-0.231
-708.645	-172.101	0.117	0.004
-707.631	800.000	-0.007	-0.023
-706.616	800.000	-0.036	-0.127
-705.602	2.122	-0.276	0.201
-704.587	2.918	0.300	-0.220
-703.572	800.000	0.065	0.287
-702.558	-31.398	0.165	-0.094
-701.543	-56.093	-0.265	0.119
-700.529	-200.000	-0.006	-0.343
-699.514	142.507	-0.171	0.228
-698.499	800.000	-0.022	-0.077
-697.485	-200.000	0.001	-0.157
-696.470	-40.871	0.310	-0.162
-695.456	33.870	-0.027	0.024
-694.441	-200.000	0.010	0.126
-693.426	317.001	-0.139	-0.264
-692.412	-88.453	-0.137	-0.041
-691.397	-150.771	-0.491	0.038
-690.383	800.000	-0.043	-0.162
-689.368	-130.654	0.287	0.039
-688.354	-71.890	-0.093	0.035
-687.339	71.627	-0.197	-0.206
-686.324	75.389	-0.062	0.066
-685.310	-200.000	-0.062	-0.324
-684.295	300.140	0.178	-0.330
-683.281	-50.121	0.262	-0.125
-682.266	-68.092	-0.194	0.076
-681.251	-200.000	-0.066	-0.428
-680.237	-85.029	0.160	-0.050
-679.222	-200.000	0.017	0.148
-678.208	-14.485	-0.292	-0.189
-677.193	-108.937	0.254	-0.055
-676.178	-29.905	0.123	0.071
-675.164	-26.110	-0.131	-0.078
-674.149	-192.620	-0.196	-0.002
-673.135	150.354	0.054	-0.074
-672.120	-10.836	-0.182	-0.121
-671.105	-165.897	0.334	0.014
-670.091	800.000	0.022	-0.080
-669.076	1.547	-0.108	-0.078
-668.062	-104.207	-0.347	-0.081
-667.047	462.627	0.186	-0.419
-666.032	-149.100	-0.077	0.006
-665.018	-80.869	-0.171	0.057
-664.003	-200.000	-0.034	0.178
-662.989	19.659	0.060	-0.049
-661.974	-200.000	-0.018	-0.195
-660.959	65.766	0.041	0.042
-659.945	-151.846	-0.213	0.016
-658.930	166.264	-0.040	-0.056
-657.916	257.596	-0.210	-0.363
-656.901	-33.401	0.175	0.097
-655.886	155.505	0.143	0.198
-654.872	83.604	-0.163	0.178
-653.857	-13.023	0.189	0.124
-652.843	-136.073	-0.314	-0.037
-651.828	91.974	-0.257	0.291
-650.814	67.135	0.214	0.220
-649.799	-14.955	0.169	0.109
-648.784	-48.079	-0.335	0.163
-647.770	126.645	0.134	-0.170
-646.755	-47.094	0.215	0.105
-645.741	214.240	-0.089	-0.142
-644.726	-61.498	0.277	0.117
-643.711	-200.000	0.035	0.334
-642.697	800.000	0.060	-0.207
-641.682	-9.121	0.184	-0.124
-640.668	148.227	-0.146	-0.198
-639.653	-200.000	-0.026	-0.253
-638.638	-143.756	-0.112	-0.011
-637.624	-48.336	0.430	-0.209
-636.609	-139.646	-0.437	0.047
-635.595	-22.044	0.101	0.062
-634.580	-50.973	-0.298	-0.141
-633.565	-200.000	-0.099	0.547
-632.551	800.000	0.096	-0.318
-631.536	761.931	-0.040	0.108
-630.522	-11.912	-0.200	-0.132
-629.507	696.755	-0.098	0.258
-628.492	61.871	0.230	-0.230
-627.478	800.000	-0.042	0.137
-626.463	153.125	-0.087	-0.119
-625.449	800.000	0.048	0.179
-624.434	-59.824	-0.370	0.159
-623.419	-200.000	0.042	-0.190
-622.405	-91.492	0.106	0.030
-621.390	-29.862	0.140	0.080
-620.376	-99.425	-0.262	0.066
-619.361	756.503	0.084	-0.229
-618.346	-148.615	0.117	0.010
-617.332	-200.000	-0.034	0.466
-616.317	162.614	0.039	-0.055
-615.303	-144.418	0.302	0.028
-614.288	-123.753	-0.260	-0.041
-613.273	92.217	-0.152	-0.172
-612.259	-200.000	0.008	-0.277
-611.244	-119.772	-0.336	-0.058
-610.230	-70.876	0.094	-0.036
-609.215	-200.000	0.015	-0.167
-608.201	-179.202	0.256	-0.006
-607.186	51.859	-0.075	-0.072
-606.171	10.119	0.184	-0.140
-605.157	-181.079	-0.091	-0.002
-604.142	800.000	-0.015	0.062
-603.128	772.800	0.048	-0.132
-602.113	17.234	0.203	-0.162
-601.098	621.784	0.033	-0.084
-600.084	50.953	-0.106	0.101
-599.069	-200.000	0.014	0.126
-598.055	662.229	0.033	-0.086
-597.040	166.964	-0.195	-0.278
-596.025	-200.000	-0.000	-0.180
-595.011	800.000	0.110	-0.368
-593.996	92.424	0.216	-0.245
-592.982	193.209	-0.149	0.225
-591.967	-135.973	-0.258	0.030
-590.952	33.342	0.275	-0.239
-589.938	124.716	-0.126	0.160
-588.923	-116.043	-0.256	0.048
-587.909	41.770	0.040	0.037
-586.894	-106.076	0.274	-0.062
-585.879	-200.000	-0.080	-0.416
-584.865	-200.000	0.010	-0.078
-583.850	-21.668	-0.317	-0.194
-582.836	-200.000	0.054	-0.354
-581.821	-200.000	-0.019	-0.220
-580.806	85.833	-0.084	-0.093
-579.792	-50.843	0.301	-0.142
-578.777	-91.700	-0.242	-0.069
-577.763	-161.821	-0.142	-0.007
-576.748	-200.000	-0.020	0.339
-575.733	-127.180	-0.182	0.027
-574.719	26.512	0.116	-0.097
-573.704	-41.198	-0.221	0.114
-572.690	-18.647	-0.125	0.078
-571.675	-89.298	0.271	0.080
-570.661	662.272	-0.084	-0.218
-569.646	-200.000	-0.061	-0.379
-568.631	0.218	0.124	-0.089
-567.617	57.306	-0.307	-0.301
-566.602	-114.695	-0.179	0.034
-565.588	-111.001	0.254	-0.052
-564.573	-200.000	0.028	-0.146
-563.558	1.661	0.059	-0.043
-562.544	-18.187	-0.073	0.046
-561.529	-61.099	-0.232	0.098
-560.515	290.257	0.188	-0.341
-559.500	-104.882	-0.012	-0.003
-558.485	77.924	-0.102	0.109
-557.471	-51.067	0.159	0.075
-556.456	231.820	-0.075	0.123
-555.442	-105.201	0.051	-0.012
-554.427	-34.165	-0.070	-0.039
-553.412	106.642	-0.204	0.242
-552.398	800.000	0.077	0.214
-551.383	800.000	0.126	-0.456
-550.369	22.702	-0.268	-0.220
-549.354	-60.463	-0.081	-0.034
-548.339	-116.722	0.384	0.071
-547.325	-163.840	0.336	0.016
-546.310	-200.000	-0.024	0.243
-545.296	294.773	0.125	0.228
-544.281	253.977	-0.144	-0.246
-543.266	-180.765	-0.223	-0.005
-542.252	98.584	0.051	0.059
-541.237	-200.000	-0.080	0.400
-540.223	800.000	0.002	-0.005
-539.208	800.000	-0.016	-0.063
-538.193	-94.814	-0.266	-0.072
-537.179	800.000	0.108	0.317
-536.164	695.854	0.140	0.368
-535.150	22.077	0.118	-0.097
-534.135	800.000	0.016	-0.053
-533.121	0.404	0.247	0.177
-532.106	545.150	-0.105	-0.251
-531.091	-200.000	0.051	-0.246
-530.077	55.521	-0.069	-0.067
-529.062	92.717	0.184	0.208
-528.048	189.887	-0.184	-0.276
-527.033	46.252	0.131	-0.122
-526.018	-65.267	0.340	0.137
-525.004	-164.195	0.253	-0.012
-523.989	-200.000	0.013	-0.141
-522.975	800.000	-0.029	0.095
-521.960	552.316	-0.072	0.173
-520.945	-140.047	0.219	-0.023
-519.931	119.475	-0.158	0.195
-518.916	800.000	-0.083	-0.290
-517.902	-68.389	0.316	-0.123
-516.887	-177.316	0.086	0.002
-515.872	18.101	0.151	-0.121
-514.858	-30.478	-0.430	-0.244
-513.843	421.260	0.023	-0.049
-512.829	-105.015	-0.212	-0.049
-511.814	82.233	0.259	0.281
-510.799	-200.000	0.023	-0.411
-509.785	-75.489	-0.132	0.047
-508.770	-35.727	-0.251	-0.136
-507.756	16.310	-0.130	-0.102
-506.741	282.531	-0.160	0.287
-505.726	-168.801	0.058	0.002
-504.712	96.869	-0.190	0.218
-503.697	800.000	-0.075	-0.238
-502.683	-200.000	0.048	0.381
-501.668	-47.154	-0.061	0.030
-500.653	269.805	0.147	0.258
-499.639	-137.396	-0.251	0.028
-498.624	93.972	0.065	0.073
-497.610	76.678	-0.176	-0.186
-496.595	-34.630	0.103	-0.056
-495.581	-110.261	0.117	0.024
-494.566	800.000	0.065	-0.225
-493.551	-200.000	-0.016	-0.076
-492.537	66.577	-0.032	-0.032
-491.522	85.432	-0.170	0.187
-490.508	800.000	-0.067	-0.219
-489.493	-200.000	-0.024	-0.288
-488.478	-165.222	0.320	0.014
-487.464	-41.862	0.150	0.077
-486.449	455.206	0.153	-0.338
-485.435	-200.000	0.026	0.386
-484.420	-200.000	0.010	0.070
-483.405	-200.000	0.019	0.315
-482.391	-200.000	-0.022	-0.294
-481.376	800.000	0.107	-0.301
-480.362	345.878	0.058	-0.114
-479.347	800.000	-0.090	-0.257
-478.332	800.000	-0.072	0.235
-477.318	25.796	-0.313	-0.260
-476.303	-73.053	0.143	0.052
-475.289	800.000	-0.028	0.080
-474.274	-8.761	0.140	-0.094
-473.259	-162.341	0.186	-0.009
-472.245	183.952	-0.264	0.390
-471.230	-30.535	0.186	-0.105
-470.216	78.342	0.113	-0.121
-469.201	-132.235	0.098	-0.013
-468.186	-144.905	-0.198	-0.018
-467.172	-200.000	-0.011	0.177
-466.157	145.735	0.106	-0.142
-465.143	580.038	0.077	-0.188
-464.128	-200.000	-0.042	0.290
-463.113	500.277	0.156	-0.360
-462.099	-166.756	-0.044	0.002
-461.084	-100.160	0.080	0.020
-460.070	-200.000	0.051	-0.571
-459.055	-200.000	-0.034	-0.197
-458.040	800.000	0.091	-0.302
-457.026	20.755	-0.100	0.081
-456.011	240.074	-0.050	0.083
-454.997	-16.424	0.473	0.299
-453.982	117.183	-0.109	0.134
-452.968	800.000	0.158	0.465
-451.953	-200.000	-0.057	0.264
-450.938	-34.643	-0.209	-0.114
-449.924	-62.196	0.110	-0.046
-448.909	2.381	0.118	-0.085
-447.895	298.262	0.045	0.083
-446.880	-200.000	-0.041	-0.223
-445.865	12.480	-0.199	0.153
-444.851	800.000	-0.060	-0.216
-443.836	-80.130	0.213	0.071
-442.822	-200.000	0.008	-0.108
-441.807	379.209	0.130	0.266
-440.792	-0.358	0.093	0.066
-439.778	534.971	0.116	0.274
-438.763	556.384	0.084	0.201
-437.749	-200.000	-0.005	0.025
-436.734	-9.768	-0.226	-0.150
-435.719	-99.297	-0.185	-0.047
-434.705	692.769	0.052	0.135
-433.690	-200.000	0.022	0.252
-432.676	-44.012	0.013	-0.007
-431.661	-200.000	-0.027	0.208
-430.646	107.072	-0.247	0.292
-429.632	75.334	0.231	-0.243
-428.617	800.000	-0.037	0.138
-427.603	482.567	0.018	-0.042
-426.588	-131.206	0.141	-0.019
-425.573	800.000	0.056	0.166
-424.559	-11.203	-0.478	0.314
-423.544	-75.593	-0.171	-0.061
-422.530	23.256	0.162	-0.133
-421.515	291.113	-0.058	0.105
-420.500	747.770	0.049	0.131
-419.486	76.337	0.235	0.248
-418.471	800.000	-0.039	-0.153
-417.457	679.815	0.132	-0.342
-416.442	-146.779	-0.193	-0.017
-415.428	-118.659	0.333	0.059
-414.413	4.338	0.072	0.052
-413.398	-22.583	-0.102	-0.061
-412.384	73.320	-0.086	-0.090
-411.369	124.117	0.074	0.092
-410.355	-19.674	0.211	0.130
-409.340	-200.000	-0.027	-0.189
-408.325	668.080	0.059	-0.151
-407.311	2.596	0.176	0.127
-406.296	-134.907	-0.337	-0.041
-405.282	-137.832	-0.312	-0.035
-404.267	66.346	-0.125	0.126
-403.252	-200.000	0.019	0.108
-402.238	667.460	-0.100	-0.258
-401.223	-118.821	-0.214	0.038
-400.209	-15.515	-0.404	-0.257
-399.194	800.000	-0.124	-0.349
-398.179	-125.468	-0.239	0.036
-397.165	182.756	-0.101	0.148
-396.150	-32.864	-0.164	0.091
-395.136	-103.901	0.179	0.042
-394.121	210.449	0.186	-0.290
-393.106	-153.386	0.151	0.010
-392.092	-185.593	0.155	0.002
-391.077	351.084	0.096	0.190
-390.063	232.286	-0.095	0.155
-389.048	-129.955	-0.354	-0.048
-388.033	-74.875	-0.215	-0.077
-387.019	-38.757	0.404	0.212
-386.004	1.541	0.149	-0.106
-384.990	800.000	0.109	0.351
-383.975	800.000	0.032	0.097
-382.960	647.652	0.097	-0.247
-381.946	281.710	0.092	0.165
-380.931	408.680	0.131	0.275
-379.917	-200.000	0.012	0.202
-378.902	76.728	-0.261	0.276
-377.888	-93.468	-0.171	-0.047
-376.873	-74.614	-0.173	-0.062
-375.858	47.134	0.130	-0.121
-374.844	-56.020	-0.118	-0.052
-373.829	-175.568	-0.312	0.008
-372.815	247.179	0.014	0.023
-371.800	-200.000	0.002	-0.031
-370.785	37.427	-0.142	0.125
-369.771	156.911	-0.158	0.217
-368.756	-200.000	-0.021	0.249
-367.742	645.543	-0.059	0.149
-366.727	-123.274	0.293	0.047
-365.712	-41.224	-0.080	-0.041
-364.698	800.000	-0.026	-0.084
-363.683	-148.852	-0.265	0.021
-362.669	-103.307	-0.115	0.027
-361.654	800.000	0.053	-0.221
-360.639	197.458	-0.280	-0.425
-359.625	-200.000	0.036	-0.187
-358.610	410.434	-0.103	-0.218
-357.596	-58.281	0.333	-0.144
-356.581	380.062	-0.087	-0.178
-355.566	-78.318	0.173	-0.059
-354.552	-88.362	-0.161	-0.048
-353.537	-89.798	0.251	-0.073
-352.523	5.122	0.387	-0.283
-351.508	-13.048	-0.272	-0.176
-350.493	159.118	-0.063	0.087
-349.479	-171.751	-0.135	0.004
-348.464	291.623	0.274	-0.496
-347.450	800.000	0.042	-0.169
-346.435	-200.000	0.039	-0.177
-345.420	-0.714	-0.196	-0.138
-344.406	590.319	0.036	-0.089
-343.391	-182.138	0.196	0.004
-342.377	236.346	-0.097	0.160
-341.362	554.955	-0.226	0.540
-340.348	33.099	0.249	0.214
-339.333	270.835	-0.164	-0.287
-338.318	118.124	-0.077	0.094
-337.304	-102.940	0.235	0.055
-336.289	-200.000	0.025	0.119
-335.275	177.680	-0.104	-0.151
-334.260	90.385	-0.193	-0.215
-333.245	-33.711	0.319	0.175
-332.231	-128.091	0.408	0.058
-331.216	-108.751	0.424	-0.090
-330.202	107.915	0.191	0.226
-329.187	-124.242	0.204	0.032
-328.172	-53.530	-0.264	0.120
-327.158	531.240	-0.041	-0.097
-326.143	129.286	0.167	0.212
-325.129	800.000	0.066	-0.239
-324.114	-200.000	0.054	-0.258
-323.099	773.818	-0.143	0.387
-322.085	-5.004	-0.075	-0.051
-321.070	800.000	-0.098	0.329
-320.056	-200.000	-0.004	-0.189
-319.041	-144.909	-0.061	-0.006
-318.026	653.728	-0.077	-0.197
-317.012	-200.000	0.037	-0.175
-315.997	-137.275	0.377	-0.043
-314.983	140.833	-0.167	-0.219
-313.968	255.119	0.155	-0.263
-312.953	-144.128	0.173	-0.016
-311.939	-60.580	-0.224	0.094
-310.924	52.786	0.191	-0.182
-309.910	196.671	-0.152	0.230
-308.895	-164.375	-0.113	0.005
-307.880	1.597	-0.171	0.122
-306.866	-171.553	0.303	-0.010
-305.851	-51.351	-0.363	-0.169
-304.837	800.000	-0.065	0.196
-303.822	-100.006	-0.200	-0.049
-302.807	540.953	-0.089	0.210
-301.793	-172.544	0.315	-0.010
-300.778	800.000	0.064	-0.230
-299.764	800.000	0.058	0.187
-298.749	-76.156	-0.229	0.080
-297.735	-24.097	-0.259	0.153
-296.720	-200.000	0.003	0.545
-295.705	171.438	0.149	0.213
-294.691	254.101	0.058	0.099
-293.676	-123.676	0.439	-0.069
-292.662	415.578	-0.189	0.399
-291.647	-95.627	-0.182	0.048
-290.632	-78.539	-0.086	0.029
-289.618	-200.000	0.026	0.512
-288.603	218.726	0.131	0.208
-287.589	-200.000	-0.005	-0.041
-286.574	-36.563	0.191	-0.102
-285.559	-200.000	-0.008	-0.050
-284.545	37.151	-0.136	-0.120
-283.530	800.000	0.077	-0.323
-282.516	705.461	0.274	0.716
-281.501	32.533	-0.172	-0.148
-280.486	-200.000	-0.045	0.330
-279.472	-180.591	-0.150	-0.003
-278.457	-79.272	-0.162	0.054
-277.443	138.327	-0.216	0.281
-276.428	-119.325	0.302	-0.052
-275.413	-108.225	0.298	0.064
-274.399	58.032	0.240	0.233
-273.384	-200.000	0.044	-0.201
-272.370	485.223	-0.043	0.097
-271.355	171.288	-0.042	0.060
-270.340	222.105	0.018	-0.028
-269.326	-200.000	0.052	0.303
-268.311	130.208	-0.057	0.072
-267.297	415.415	0.032	-0.067
-266.282	-57.067	0.118	-0.052
-265.267	-15.888	0.173	0.109
-264.253	-200.000	0.008	0.036
-263.238	-35.464	0.114	-0.061
-262.224	-179.802	0.353	0.008
-261.209	12.188	-0.185	-0.141
-260.195	800.000	-0.019	0.058
-259.180	-4.373	0.324	-0.222
-258.165	-64.932	0.292	-0.117
-257.151	84.881	-0.113	0.123
-256.136	-200.000	-0.003	-0.039
-255.122	-103.124	0.328	-0.077
-254.107	98.667	-0.329	-0.376
-253.092	484.381	-0.134	0.302
-252.078	55.431	-0.167	0.160
-251.063	-19.265	-0.388	0.238
-250.049	136.332	0.109	0.140
-249.034	-88.186	-0.139	-0.041
-248.019	370.149	-0.062	0.125
-247.005	65.446	-0.097	0.098
-245.990	-195.630	0.386	0.003
-244.976	-114.342	-0.190	-0.036
-243.961	439.644	0.040	0.087
-242.946	-63.863	-0.144	0.058
-241.932	-200.000	-0.011	0.082
-240.917	-120.308	-0.083	0.014
-239.903	-162.775	0.218	-0.011
-238.888	-200.000	-0.017	0.096
-237.873	65.787	-0.054	0.054
-236.859	725.549	0.012	-0.032
-235.844	115.471	0.154	0.186
-234.830	-39.328	-0.356	0.185
-233.815	-200.000	-0.046	0.275
-232.800	92.235	0.032	0.035
-231.786	-200.000	-0.017	-0.138
-230.771	-200.000	0.016	0.443
-229.757	86.420	0.116	-0.127
-228.742	-25.972	-0.089	-0.052
-227.727	-143.452	0.157	-0.015
-226.713	5.701	-0.103	0.075
-225.698	-103.922	0.202	-0.047
-224.684	75.336	-0.227	-0.237
-223.669	-106.270	-0.218	-0.048
-222.655	-85.763	-0.136	0.042
-221.640	-200.000	0.009	0.099
-220.625	-6.379	0.335	0.226
-219.611	-69.531	-0.113	-0.043
-218.596	49.155	-0.209	0.194
-217.582	-104.960	0.106	0.024
-216.567	280.347	-0.096	-0.170
-215.552	85.513	-0.222	-0.241
-214.538	800.000	-0.051	-0.169
-213.523	-18.294	-0.226	0.140
-212.509	34.877	-0.128	-0.111
-211.494	27.745	-0.053	-0.045
-210.479	82.983	-0.121	0.130
-209.465	-120.244	-0.381	-0.064
-208.450	132.394	-0.020	0.025
-207.436	-75.788	0.200	-0.070
-206.421	800.000	0.036	-0.118
-205.406	-138.580	0.104	0.011
-204.392	-181.253	0.141	-0.003
-203.377	401.344	-0.108	0.223
-202.363	117.526	-0.214	-0.260
-201.348	-200.000	0.023	0.136
-200.333	-63.260	-0.081	0.033
-199.319	-30.354	-0.109	0.061
-198.304	2.441	-0.081	0.058
-197.290	-200.000	-0.002	-0.491
-196.275	-29.576	0.311	0.176
-195.260	-105.837	-0.086	0.019
-194.246	-70.402	-0.211	0.079
-193.231	-49.187	-0.296	-0.140
-192.217	-92.384	-0.263	0.073
-191.202	-9.492	-0.153	-0.101
-190.187	-200.000	-0.027	0.372
-189.173	-200.000	-0.011	0.221
-188.158	397.794	0.067	0.138
-187.144	474.829	0.022	0.049
-186.129	-36.967	0.302	0.160
-185.114	-167.301	0.440	-0.018
-184.100	800.000	0.067	0.200
-183.085	16.300	-0.186	-0.145
-182.071	800.000	0.069	0.212
-181.056	-200.000	0.172	0.000
-180.042	-200.000	-0.004	0.184
-179.027	109.939	0.142	0.168
-178.012	103.411	0.159	-0.184
-176.998	735.298	0.060	0.159
-175.983	199.872	0.234	0.355
-174.969	215.854	-0.062	0.097
-173.954	-73.223	0.144	0.052
-172.939	126.980	-0.142	0.178
-171.925	-105.483	0.216	0.049
-170.910	-53.956	0.170	-0.077
-169.896	-11.927	0.464	-0.301
-168.881	800.000	-0.043	-0.126
-167.866	800.000	0.099	-0.303
-166.852	-8.958	-0.030	-0.020
-165.837	32.383	-0.048	-0.041
-164.823	-106.315	-0.230	-0.051
-163.808	116.655	0.212	-0.257
-162.793	152.365	-0.044	-0.060
-161.779	-200.000	0.021	-0.090
-160.764	-52.757	0.072	-0.033
-159.750	67.647	-0.266	0.268
-158.735	-69.348	0.080	-0.030
-157.720	-200.000	-0.086	-0.373
-156.706	800.000	-0.068	-0.198
-155.691	120.877	0.129	-0.159
-154.677	81.404	-0.274	-0.292
-153.662	-200.000	0.046	0.218
-152.647	135.074	0.053	0.068
-151.633	-200.000	-0.007	-0.073
-150.618	-63.395	-0.271	-0.110
-149.604	34.203	0.378	-0.325
-148.589	182.268	-0.162	0.235
-147.574	800.000	-0.045	-0.136
-146.560	205.409	0.222	-0.339
-145.545	-107.060	-0.134	0.029
-144.531	-200.000	0.006	-0.236
-143.516	-147.257	-0.266	0.022
-142.502	75.270	-0.108	0.113
-141.487	-200.000	0.018	-0.125
-140.472	-24.222	-0.050	-0.030
-139.458	225.730	0.046	-0.074
-138.443	141.094	-0.174	0.227
-137.429	-200.000	0.019	0.406
-136.414	-200.000	0.051	0.265
-135.399	-172.081	-0.337	0.011
-134.385	-200.000	0.029	-0.521
-133.370	511.744	0.040	-0.092
-132.356	800.000	-0.027	-0.090
-131.341	96.067	0.087	0.099
-130.326	-200.000	0.017	0.086
-129.312	-200.000	-0.029	0.201
-128.297	800.000	0.056	0.186
-127.283	51.110	-0.289	-0.270
-126.268	136.311	-0.111	0.142
-125.253	-31.835	0.369	-0.204
-124.239	560.443	0.144	-0.343
-123.224	-19.232	0.149	0.091
-122.210	-200.000	0.045	-0.256
-121.195	-200.000	-0.014	-0.212
-120.180	-81.300	-0.186	0.060
-119.166	-197.069	0.078	0.000
-118.151	-68.401	0.169	0.065
-117.137	-115.046	0.066	-0.012
-116.122	-72.867	-0.204	-0.074
-115.107	30.673	0.072	0.061
-114.093	400.476	-0.071	0.146
-113.078	25.680	-0.252	0.207
-112.064	-80.693	0.183	-0.060
-111.049	105.721	0.280	0.326
-110.034	-86.462	0.377	0.114
-109.020	170.568	0.143	0.201
-108.005	90.884	-0.118	-0.130
-106.991	-200.000	-0.034	-0.228
-105.976	4.564	0.198	0.143
-104.962	226.039	0.089	-0.142
-103.947	-30.178	-0.411	0.230
-102.932	20.919	0.324	-0.258
-101.918	-0.898	0.202	-0.141
-100.903	-157.790	0.138	0.008
-99.889	42.424	0.161	0.144
-98.874	351.567	-0.046	0.090
-97.859	-140.524	0.158	-0.016
-96.845	26.713	0.145	0.119
-95.830	-69.609	-0.197	-0.074
-94.816	-49.322	0.390	0.183
-93.801	404.102	-0.214	0.444
-92.786	5.273	-0.130	0.094
-91.772	82.998	0.215	-0.230
-90.757	61.233	0.147	-0.143
-89.743	-46.701	-0.348	-0.168
-88.728	49.023	-0.325	-0.300
-87.713	-200.000	0.005	-0.073
-86.699	-108.756	-0.237	0.050
-85.684	-144.202	0.035	0.003
-84.670	18.800	-0.075	-0.059
-83.655	800.000	0.060	-0.167
-82.640	436.304	0.133	-0.285
-81.626	-1.187	0.122	0.085
-80.611	5.827	0.203	0.148
-79.597	-138.630	0.440	0.047
-78.582	-12.258	0.485	0.312
-77.567	800.000	0.054	-0.185
-76.553	-200.000	-0.009	-0.095
-75.538	-105.868	-0.174	0.039
-74.524	-200.000	0.002	-0.151
-73.509	-200.000	0.025	0.532
-72.494	15.208	0.171	-0.132
-71.480	-46.134	0.233	-0.113
-70.465	-110.343	0.039	0.008
-69.451	-60.968	-0.342	-0.142
-68.436	-200.000	0.062	0.369
-67.422	15.972	-0.307	0.237
-66.407	-134.691	0.435	-0.052
-65.392	-200.000	-0.014	0.383
-64.378	8.045	0.071	-0.053
-63.363	-200.000	0.002	0.233
-62.349	-200.000	0.039	-0.277
-61.334	43.593	-1.003	-0.902
-60.319	85.401	0.370	0.400
-59.305	800.000	-0.322	-1.032
-58.290	211.692	0.665	1.028
-57.276	599.941	0.634	1.546
-56.261	-200.000	99.207	585.183
-55.246	502.620	1419.104	3222.785
-54.232	154.110	2605.954	3512.144
-53.217	109.736	2187.850	2577.214
-52.203	41.539	1715.902	1526.274
-51.188	33.947	1523.448	1303.234
-50.173	31.442	1496.920	1263.585
-49.159	51.288	1548.298	1443.852
-48.144	52.435	1565.144	1467.388
-47.130	34.144	1524.686	1305.431
-46.115	30.992	1509.259	1270.729
-45.100	30.830	1505.804	1266.665
-44.086	30.750	1503.940	1264.504
-43.071	30.694	1502.307	1262.705
-42.057	30.703	1500.589	1261.267
-41.042	30.681	1498.897	1259.649
-40.027	30.717	1497.611	1258.764
-39.013	30.565	1496.346	1256.620
-37.998	30.622	1494.701	1255.572
-36.984	30.691	1493.797	1255.228
-35.969	30.627	1492.362	1253.546
-34.954	30.600	1490.788	1251.990
-33.940	30.557	1489.627	1250.677
-32.925	30.652	1487.926	1249.835
-31.911	30.733	1486.380	1249.033
-30.896	30.709	1485.256	1247.877
-29.881	30.709	1484.024	1246.793
-28.867	30.808	1482.466	1246.094
-27.852	30.658	1481.212	1243.987
-26.838	30.648	1479.848	1242.730
-25.823	30.704	1478.300	1241.754
-24.809	30.771	1476.592	1240.715
-23.794	30.758	1475.076	1239.303
-22.779	30.822	1473.560	1238.408
-21.765	30.720	1473.196	1237.375
-20.750	30.717	1472.107	1236.389
-19.736	30.693	1470.782	1235.069
-18.721	30.739	1469.646	1234.374
-17.706	30.642	1469.032	1233.166
-16.692	30.637	1467.964	1232.186
-15.677	30.647	1466.578	1231.042
-14.663	30.753	1465.232	1230.563
-13.648	30.695	1464.492	1229.512
-12.633	30.618	1463.585	1228.191
-11.619	30.503	1462.988	1226.879
-10.604	30.643	1461.308	1226.344
-9.590	30.624	1461.092	1225.994
-8.575	30.608	1460.550	1225.384
-7.560	30.571	1459.476	1224.191
-6.546	30.601	1458.600	1223.600
-5.531	30.503	1457.995	1222.403
-4.517	30.528	1456.728	1221.454
-3.502	30.644	1456.003	1221.564
-2.487	30.677	1454.203	1220.217
-1.473	30.617	1453.621	1219.288
-0.458	30.662	1452.421	1218.531
0.556	29.284	1443.733	1209.818
1.571	27.081	1419.595	1175.251
2.586	24.372	1359.742	1108.786
3.600	23.016	1277.986	1034.098
4.615	21.466	1233.386	989.163
5.629	20.096	1180.130	938.953
6.644	16.159	1101.597	856.441
7.659	12.708	1065.348	811.214
8.673	12.211	1059.941	804.592
9.688	12.115	1056.752	801.627
10.702	11.918	1055.515	799.659
11.717	12.036	1053.402	798.560
12.731	13.760	1053.675	807.089
13.746	17.321	1058.773	828.301
14.761	18.876	1060.130	836.870
15.775	18.171	1057.640	831.403
16.790	16.942	1055.967	824.044
17.804	15.937	1053.245	816.976
18.819	15.049	1051.696	811.402
19.834	14.515	1050.180	807.574
20.848	14.257	1048.801	805.196
21.863	13.929	1048.483	803.291
22.877	13.662	1047.678	801.313
23.892	13.458	1046.640	799.467
24.907	13.484	1045.727	798.822
25.921	13.483	1044.744	797.993
26.936	13.439	1044.524	797.542
27.950	13.545	1043.005	796.825
28.965	13.552	1042.163	796.146
29.980	13.476	1041.417	795.137
30.994	13.802	1039.870	795.453
32.009	13.665	1039.188	794.201
33.023	13.689	1038.052	793.379
34.038	13.703	1037.208	792.730
35.053	13.640	1036.640	791.924
36.067	13.627	1035.411	790.853
37.082	13.585	1034.822	790.132
38.096	13.603	1033.894	789.443
39.111	13.761	1032.950	789.404
40.126	13.661	1032.446	788.470
41.140	13.653	1031.154	787.379
42.155	13.453	1030.390	785.774
43.169	13.413	1029.378	784.744
44.184	13.431	1027.881	783.618
45.199	13.368	1026.953	782.545
46.213	13.255	1026.489	781.587
47.228	13.335	1025.198	780.911
48.242	13.495	1024.453	781.029
49.257	13.543	1023.194	780.229
50.271	13.444	1022.596	779.237
51.286	13.616	1021.284	778.977
52.301	13.720	1020.618	778.887
53.315	13.587	1019.655	777.462
54.330	13.443	1019.087	776.283
55.344	13.415	1018.351	775.521
56.359	13.435	1017.038	774.548
57.374	13.432	1016.270	773.881
58.388	13.339	1015.669	772.920
59.403	13.485	1014.392	772.558
60.417	13.346	1013.868	771.445
61.432	13.291	1013.520	770.855
62.447	13.270	1012.529	769.936
63.461	13.395	1011.283	769.501
64.476	13.292	1010.727	768.533
65.490	13.252	1009.676	767.478
66.505	13.388	1009.110	767.611
67.520	13.308	1008.470	766.687
68.534	13.342	1007.073	765.715
69.549	13.411	1006.646	765.640
70.563	13.252	1005.792	764.187
71.578	13.380	1004.897	764.030
72.593	13.272	1004.237	762.962
73.607	13.206	1003.406	761.962
74.622	13.223	1002.372	761.187
75.636	13.222	1001.759	760.651
76.651	13.250	1000.790	759.973
77.666	13.254	1000.247	759.514
78.680	13.160	999.533	758.471
79.695	13.305	998.407	758.215
80.709	13.341	998.240	758.185
81.724	13.339	997.480	757.531
82.739	13.567	996.251	757.574
83.753	13.584	995.652	757.130
84.768	13.614	994.823	756.568
85.782	13.673	994.301	756.376
86.797	13.728	993.447	755.911
87.812	13.662	992.679	754.960
88.826	13.573	991.828	753.840
89.841	13.514	990.923	752.818
90.855	13.511	990.363	752.309
91.870	13.548	989.780	751.967
92.884	13.528	989.179	751.357
93.899	13.628	988.338	751.102
94.914	13.495	987.971	750.158
95.928	13.663	986.852	750.001
96.943	13.695	986.028	749.453
97.957	13.627	985.380	748.586
98.972	13.626	984.133	747.568
99.987	13.647	983.582	747.176
101.001	13.696	982.806	746.743
102.016	13.592	982.295	745.821
103.030	13.516	981.289	744.647
104.045	13.568	980.392	744.134
105.060	13.667	979.051	743.497
106.074	13.640	978.244	742.695
107.089	13.403	977.922	741.325
108.103	13.362	976.622	740.091
109.118	13.364	975.590	739.253
110.133	13.324	974.985	738.549
111.147	13.348	973.892	737.761
112.162	13.325	973.335	737.174
113.176	13.411	972.198	736.628
114.191	13.494	971.640	736.510
115.206	13.487	970.696	735.700
116.220	13.453	969.851	734.841
117.235	13.375	969.586	734.231
118.249	13.491	968.299	733.703
119.264	13.545	967.630	733.372
120.279	13.568	966.495	732.549
121.293	13.380	965.688	731.041
122.308	13.468	965.050	730.882
123.322	13.372	964.195	729.747
124.337	13.207	963.265	728.254
125.352	13.274	962.306	727.755
126.366	13.290	961.443	727.112
127.381	13.296	959.874	725.888
128.395	13.406	958.746	725.450
129.410	13.490	957.870	725.092
130.424	13.338	957.150	723.819
131.439	13.398	956.367	723.426
132.454	13.377	955.660	722.734
133.468	13.436	954.738	722.229
134.483	13.505	954.142	722.017
135.497	13.550	953.319	721.524
136.512	13.555	952.624	720.958
137.527	13.469	952.054	720.089
138.541	13.581	950.733	719.513
139.556	13.599	950.208	719.129
140.570	13.544	949.888	718.584
141.585	13.638	949.012	718.265
142.600	13.611	948.221	717.488
143.614	13.683	947.787	717.404
144.629	13.600	946.828	716.257
145.643	13.622	946.068	715.714
146.658	13.716	945.168	715.376
147.673	13.731	944.167	714.619
148.687	13.543	943.411	713.174
149.702	13.569	942.559	712.580
150.716	13.403	941.934	711.329
151.731	13.555	940.888	711.130
152.746	13.629	940.179	710.847
153.760	13.649	939.203	710.132
154.775	13.533	938.950	709.384
155.789	13.720	937.798	709.247
156.804	13.586	937.742	708.571
157.819	13.758	936.177	708.059
158.833	13.682	935.689	707.305
159.848	13.755	935.218	707.196
160.862	13.697	934.687	706.487
161.877	13.782	933.781	706.100
162.892	13.713	932.901	705.077
163.906	13.794	931.965	704.655
164.921	13.647	931.260	703.434
165.935	13.760	929.609	702.604
166.950	13.589	929.391	701.650
167.964	13.689	928.223	701.131
168.979	13.638	927.482	700.295
169.994	13.862	926.121	700.148
171.008	13.642	925.760	698.888
172.023	13.608	925.286	698.323
173.037	13.787	923.693	697.811
174.052	13.825	923.522	697.781
175.067	13.724	922.746	696.710
176.081	13.768	922.126	696.363
177.096	13.726	920.890	695.195
178.110	13.784	920.116	694.792
179.125	13.631	919.592	693.692
180.140	13.875	918.768	694.030
181.154	13.768	918.217	693.104
182.169	13.881	917.546	693.011
183.183	13.840	917.078	692.423
184.198	13.848	916.293	691.804
185.213	13.921	915.511	691.454
186.227	14.033	914.753	691.288
187.242	13.937	914.921	690.952
188.256	13.940	914.121	690.300
189.271	14.152	913.159	690.392
190.286	14.094	912.152	689.331
191.300	13.879	911.646	687.997
192.315	13.838	911.122	687.370
193.329	13.644	910.561	686.083
194.344	13.805	909.458	685.857
195.359	13.796	909.073	685.467
196.373	13.938	908.628	685.657
197.388	14.012	907.837	685.307
198.402	14.027	907.434	685.002
199.417	14.189	906.751	685.095
200.432	14.215	906.630	685.050
201.446	14.216	906.443	684.849
202.461	14.285	905.987	684.729
203.475	14.307	905.176	684.146
204.490	14.342	904.490	683.713
205.504	14.269	903.643	682.713
206.519	14.100	902.957	681.442
207.534	14.235	902.123	681.301
208.548	14.194	901.378	680.512
209.563	14.158	900.966	679.995
210.577	14.197	899.938	679.317
211.592	14.140	899.785	678.909
212.607	14.228	898.977	678.598
213.621	14.496	898.381	679.179
214.636	14.381	897.822	678.229
215.650	14.236	897.518	677.350
216.665	14.450	896.397	677.315
217.680	14.421	895.862	676.729
218.694	14.505	895.534	676.764
219.709	14.489	895.090	676.304
220.723	14.562	894.093	675.787
221.738	14.460	893.786	675.083
222.753	14.422	892.960	674.245
223.767	14.320	892.273	673.253
224.782	14.514	891.055	673.059
225.796	14.650	890.381	673.037
226.811	14.648	889.917	672.618
227.826	14.530	889.632	671.869
228.840	14.565	888.940	671.430
229.855	14.510	888.387	670.729
230.869	14.566	887.482	670.214
231.884	14.586	886.767	669.695
232.899	14.523	885.998	668.802
233.913	14.558	885.153	668.243
234.928	14.390	884.830	667.268
235.942	14.571	884.017	667.322
236.957	14.486	883.505	666.535
237.972	14.345	882.901	665.458
238.986	14.615	881.855	665.685
240.001	14.469	881.372	664.683
241.015	14.478	880.865	664.278
242.030	14.616	879.959	664.081
243.045	14.761	879.375	664.159
244.059	14.598	879.538	663.578
245.074	14.562	878.617	662.678
246.088	14.694	877.568	662.353
247.103	14.578	877.610	661.865
248.117	14.726	876.617	661.644
249.132	14.878	876.024	661.741
250.147	14.828	875.666	661.214
251.161	14.899	874.977	660.915
252.176	15.100	873.552	660.573
253.190	15.095	873.386	660.371
254.205	15.073	872.785	659.769
255.220	15.235	872.049	659.793
256.234	15.156	871.293	658.855
257.249	15.172	870.758	658.452
258.263	15.134	870.546	658.086
259.278	15.136	869.785	657.461
260.293	15.293	869.067	657.474
261.307	15.079	869.104	656.604
262.322	15.287	868.454	656.871
263.336	15.214	867.959	656.154
264.351	15.256	867.138	655.636
265.366	15.229	866.288	654.832
266.380	15.192	866.026	654.430
267.395	15.273	865.404	654.221
268.409	15.251	864.710	653.551
269.424	15.306	863.495	652.791
270.439	15.199	863.197	652.090
271.453	15.282	862.358	651.720
272.468	15.190	861.535	650.686
273.482	15.364	860.863	650.794
274.497	15.358	860.543	650.472
275.512	15.239	860.062	649.589
276.526	15.228	859.420	649.005
277.541	15.210	858.589	648.248
278.555	15.410	857.792	648.364
279.570	15.422	857.131	647.853
280.585	15.361	856.824	647.328
281.599	15.498	856.166	647.303
282.614	15.405	855.914	646.695
283.628	15.434	855.078	646.120
284.643	15.382	854.343	645.306
285.657	15.421	853.727	644.934
286.672	15.560	853.039	644.890
287.687	15.459	852.912	644.350
288.701	15.523	852.546	644.261
289.716	15.456	852.027	643.554
290.730	15.449	851.516	643.084
291.745	15.472	850.679	642.483
292.760	15.538	849.653	641.905
293.774	15.499	849.334	641.458
294.789	15.632	848.826	641.525
295.803	15.657	848.155	641.056
296.818	15.533	847.669	640.162
297.833	15.693	846.608	639.911
298.847	15.706	846.024	639.461
299.862	15.766	845.492	639.231
300.876	15.752	844.734	638.550
301.891	15.690	844.400	638.006
302.906	15.663	844.030	637.568
303.920	15.877	842.975	637.523
304.935	15.798	842.420	636.749
305.949	15.890	841.842	636.605
306.964	15.892	841.022	635.935
307.979	15.891	840.455	635.445
308.993	15.874	839.832	634.853
310.008	15.914	839.663	634.821
311.022	15.959	839.012	634.443
312.037	15.876	838.510	633.695
313.052	15.872	838.164	633.359
314.066	15.885	837.208	632.630
315.081	15.752	836.893	631.838
316.095	15.773	836.398	631.487
317.110	15.784	835.899	631.096
318.125	15.809	835.276	630.665
319.139	15.867	834.635	630.342
320.154	15.897	834.099	629.994
321.168	15.870	833.563	629.431
322.183	15.850	832.978	628.860
323.197	15.982	832.609	629.016
324.212	15.921	832.297	628.499
325.227	15.942	831.360	627.815
326.241	15.869	831.190	627.357
327.256	15.984	830.079	626.892
328.270	15.921	829.543	626.199
329.285	15.956	828.982	625.848
330.300	16.007	828.469	625.594
331.314	16.000	827.929	625.107
332.329	16.082	827.375	624.938
333.343	16.036	826.515	624.060
334.358	16.029	826.400	623.893
335.373	16.131	825.776	623.746
336.387	16.206	824.956	623.347
337.402	16.222	824.457	622.975
338.416	16.314	824.037	622.939
339.431	16.249	823.752	622.430
340.446	16.328	823.325	622.342
341.460	16.308	822.538	621.621
342.475	16.394	821.938	621.427
343.489	16.391	821.394	620.949
344.504	16.416	820.978	620.672
345.519	16.465	820.357	620.329
346.533	16.369	819.986	619.641
347.548	16.579	819.257	619.805
348.562	16.391	819.103	618.945
349.577	16.388	818.372	618.327
350.592	16.362	817.691	617.662
351.606	16.238	817.115	616.721
352.621	16.397	817.170	617.289
353.635	16.325	816.624	616.556
354.650	16.363	816.107	616.250
355.665	16.503	815.421	616.190
356.679	16.365	815.463	615.662
357.694	16.506	814.764	615.596
358.708	16.539	814.101	615.160
359.723	16.461	813.465	614.339
360.738	16.574	813.023	614.364
361.752	16.572	812.761	614.103
362.767	16.533	812.099	613.407
363.781	16.523	811.669	612.991
364.796	16.592	811.627	613.156
365.810	16.742	810.781	613.006
366.825	16.916	810.408	613.300
367.840	16.775	810.014	612.438
368.854	16.833	809.536	612.230
369.869	16.856	809.120	611.946
370.883	16.685	808.930	611.130
371.898	16.770	808.112	610.763
372.913	16.809	807.464	610.362
373.927	16.894	806.880	610.170
374.942	16.973	806.138	609.839
375.956	16.786	805.615	608.718
376.971	16.867	804.954	608.455
377.986	16.912	804.669	608.348
379.000	17.012	803.835	608.021
380.015	17.004	803.532	607.712
381.029	16.982	803.235	607.356
382.044	17.045	802.525	606.988
383.059	17.077	802.125	606.746
384.073	17.013	801.486	605.980
385.088	17.027	800.849	605.495
386.102	16.915	800.621	604.868
387.117	16.938	800.125	604.522
388.132	16.996	799.500	604.204
389.146	16.981	799.113	603.805
390.161	17.077	798.658	603.748
391.175	17.086	798.387	603.525
392.190	17.158	798.296	603.655
393.205	17.115	797.735	603.028
394.219	17.020	797.027	602.102
395.234	16.982	796.533	601.541
396.248	17.038	796.023	601.301
397.263	16.991	795.574	600.743
398.278	17.094	794.879	600.527
399.292	16.890	794.311	599.325
400.307	17.027	793.994	599.517
401.321	16.959	793.625	598.943
402.336	16.991	793.684	599.047
403.350	17.214	792.706	599.043
404.365	17.078	792.625	598.451
405.380	17.228	792.254	598.647
406.394	17.209	791.962	598.305
407.409	17.256	791.056	597.733
408.423	17.351	790.490	597.587
409.438	17.354	790.516	597.563
410.453	17.393	790.149	597.371
411.467	17.373	789.504	596.759
412.482	17.559	788.735	596.777
413.496	17.446	788.720	596.318
414.511	17.576	788.275	596.383
415.526	17.654	787.873	596.300
416.540	17.592	787.299	595.595
417.555	17.601	786.529	594.991
418.569	17.438	786.724	594.516
419.584	17.534	786.305	594.482
420.599	17.529	785.866	594.081
421.613	108.917	1287.656	1464.175
422.628	93.374	1360.767	1464.265
