DTS Sentinel unit serial number:	SN413079Multiplexer serial number:	ORYXHardware model number:	OX4-SRSoftware version number:	ORYX F/W v4.00 Oryx Data Collector v3.7.2.0data status	okinstallation	princeton_trtdifferential loss correction	single-endedforward channel	channel 3reverse channel	N/Adate	2019/09/17time	20:08:35forward acquisition time	60.00reverse acquisition time	0.00gamma	496.2192k internal	0.2326k external	0.2326temperature offset calibration	0.9954default loss term (dB/km)	0.3790temperature slope calibration	1.0000multiplexer offset coefficient	1.0000multiplexer slope coefficient	1.0000fibre end	0.00T internal ref (°C)	32.47T ext. ref 1 (°C)	0.23T ext. ref 2 (°C)	22.45length (m)	temperature (°C)	Stokes	anti-Stokes-747.200	-121.126	0.307	0.052
-746.185	-200.000	0.035	0.346
-745.171	-200.000	0.167	-0.001
-744.156	-145.222	0.127	-0.012
-743.142	800.000	-0.050	-0.169
-742.127	-127.089	-0.490	0.072
-741.112	-200.000	-0.008	-0.097
-740.098	-110.156	-0.230	-0.048
-739.083	-9.644	-0.225	-0.151
-738.069	76.413	-0.153	0.164
-737.054	-28.737	0.025	0.014
-736.039	-52.687	-0.143	-0.067
-735.025	-35.800	0.026	-0.014
-734.010	-187.305	-0.566	-0.008
-732.996	-64.396	-0.167	-0.068
-731.981	-200.000	0.002	0.377
-730.966	267.694	0.068	0.120
-729.952	-44.019	-0.146	0.074
-728.937	-125.436	-0.223	0.034
-727.923	57.690	0.265	-0.262
-726.908	82.533	0.170	-0.186
-725.894	-51.291	-0.179	0.084
-724.879	-200.000	0.008	-0.211
-723.864	-200.000	0.017	-0.196
-722.850	800.000	0.187	-0.530
-721.835	442.101	-0.036	0.080
-720.821	-22.615	-0.230	0.140
-719.806	-200.000	-0.015	-0.138
-718.791	-167.828	0.085	0.003
-717.777	-200.000	0.040	-0.254
-716.762	153.076	0.199	-0.275
-715.748	-200.000	-0.243	-0.000
-714.733	59.755	-0.319	-0.317
-713.718	-53.049	-0.083	0.038
-712.704	175.494	-0.038	0.056
-711.689	-49.360	-0.242	0.116
-710.675	180.412	0.146	-0.216
-709.660	800.000	0.081	-0.246
-708.645	30.262	-0.113	0.097
-707.631	60.212	-0.232	-0.231
-706.616	-122.677	0.261	0.043
-705.602	-187.570	0.399	-0.005
-704.587	-73.604	-0.385	0.141
-703.572	-142.753	-0.254	0.025
-702.558	-31.674	-0.104	0.059
-701.543	147.411	-0.152	-0.206
-700.529	800.000	0.208	-0.603
-699.514	-104.261	-0.211	-0.049
-698.499	-94.360	0.051	0.014
-697.485	96.904	0.081	-0.094
-696.470	800.000	0.108	0.309
-695.456	296.680	0.068	-0.126
-694.441	-79.327	0.062	-0.021
-693.426	276.511	0.084	-0.150
-692.412	114.833	-0.231	0.284
-691.397	-93.755	-0.247	0.069
-690.383	-105.329	0.225	-0.052
-689.368	800.000	-0.051	-0.163
-688.354	23.143	-0.155	0.128
-687.339	720.373	0.062	-0.165
-686.324	-8.592	0.083	0.056
-685.310	138.577	-0.108	0.143
-684.295	3.905	-0.318	-0.234
-683.281	29.685	0.178	0.152
-682.266	-200.000	-0.033	0.223
-681.251	-102.620	0.476	0.114
-680.237	64.802	-0.201	-0.204
-679.222	-23.957	0.026	0.015
-678.208	119.419	-0.090	0.111
-677.193	127.575	-0.158	-0.202
-676.178	82.184	-0.065	-0.071
-675.164	800.000	0.077	-0.260
-674.149	55.693	0.222	-0.217
-673.135	-145.470	-0.171	-0.015
-672.120	716.127	0.021	-0.057
-671.105	-157.366	-0.333	0.020
-670.091	-96.403	-0.323	0.086
-669.076	15.527	-0.064	-0.050
-668.062	-107.308	-0.094	-0.021
-667.047	212.878	0.148	-0.234
-666.032	203.796	-0.208	0.323
-665.018	68.702	0.117	-0.121
-664.003	-33.786	-0.231	0.128
-662.989	-200.000	-0.017	-0.348
-661.974	-143.987	0.150	0.014
-660.959	800.000	-0.068	-0.210
-659.945	-200.000	0.032	-0.273
-658.930	800.000	-0.051	0.151
-657.916	-3.698	0.239	0.167
-656.901	28.790	0.029	-0.024
-655.886	-200.000	-0.075	-0.346
-654.872	-200.000	-0.012	0.178
-653.857	59.173	0.154	-0.152
-652.843	14.111	-0.109	-0.086
-651.828	371.358	0.040	-0.082
-650.814	800.000	-0.061	-0.220
-649.799	-44.400	-0.240	-0.121
-648.784	-30.642	0.088	0.050
-647.770	800.000	0.085	-0.295
-646.755	-200.000	-0.035	0.258
-645.741	78.621	-0.162	0.174
-644.726	-200.000	-0.039	-0.178
-643.711	180.260	0.167	0.247
-642.697	-31.120	-0.077	-0.043
-641.682	-200.000	-0.013	-0.419
-640.668	32.802	0.258	0.224
-639.653	-10.845	-0.089	-0.059
-638.638	-200.000	0.039	0.429
-637.624	-184.299	0.075	-0.001
-636.609	-200.000	0.043	0.427
-635.595	-104.137	0.178	0.041
-634.580	-103.661	0.153	0.036
-633.565	-200.000	0.058	-0.267
-632.551	-172.058	0.388	-0.013
-631.536	-200.000	-0.008	0.326
-630.522	452.009	-0.053	0.118
-629.507	120.577	0.170	0.213
-628.492	-67.018	-0.207	0.082
-627.478	800.000	0.061	0.247
-626.463	-21.041	0.152	-0.094
-625.449	-200.000	-0.024	-0.477
-624.434	800.000	-0.050	-0.201
-623.419	-47.916	0.114	-0.055
-622.405	800.000	0.056	0.237
-621.390	-200.000	0.002	-0.019
-620.376	-198.362	0.051	0.000
-619.361	-11.363	0.174	-0.115
-618.346	-18.339	-0.170	-0.107
-617.332	232.733	-0.234	0.386
-616.317	-10.831	-0.119	-0.079
-615.303	-59.444	0.131	0.056
-614.288	800.000	-0.011	-0.041
-613.273	222.698	-0.184	-0.297
-612.259	-200.000	0.002	-0.076
-611.244	-200.000	-0.014	-0.220
-610.230	-200.000	0.054	-0.296
-609.215	-17.984	-0.154	0.097
-608.201	-200.000	-0.001	0.144
-607.186	-200.000	-0.021	-0.106
-606.171	154.640	0.205	0.282
-605.157	800.000	0.046	0.142
-604.142	-200.000	0.052	0.301
-603.128	-23.251	-0.181	0.109
-602.113	800.000	-0.007	0.031
-601.098	-109.662	0.283	0.060
-600.084	-61.640	0.261	-0.110
-599.069	-84.556	0.103	0.033
-598.055	-134.498	0.232	-0.028
-597.040	-59.664	-0.302	-0.130
-596.025	250.463	0.196	-0.334
-595.011	-200.000	-0.004	0.158
-593.996	645.394	0.026	-0.067
-592.982	-69.412	-0.165	-0.064
-591.967	126.208	0.131	0.166
-590.952	-51.288	-0.258	-0.121
-589.938	152.549	0.162	-0.222
-588.923	-24.439	-0.139	0.083
-587.909	-83.165	-0.041	-0.013
-586.894	800.000	-0.060	0.209
-585.879	30.787	-0.092	-0.079
-584.865	-93.062	-0.119	0.033
-583.850	-21.688	0.047	0.029
-582.836	-133.291	-0.092	-0.012
-581.821	-200.000	-0.050	-0.320
-580.806	-186.626	-0.181	-0.003
-579.792	-111.767	0.396	-0.080
-578.777	250.038	0.045	0.077
-577.763	-200.000	0.029	0.166
-576.748	-200.000	0.011	0.099
-575.733	-93.869	0.039	-0.011
-574.719	-162.567	0.143	0.007
-573.704	-68.846	0.276	-0.107
-572.690	-200.000	-0.010	0.202
-571.675	-136.983	-0.293	-0.034
-570.661	-21.561	-0.193	0.118
-569.646	86.943	0.130	-0.144
-568.631	273.447	0.130	0.230
-567.617	-140.397	0.077	0.008
-566.602	-61.354	0.374	0.158
-565.588	787.587	0.027	-0.075
-564.573	60.363	-0.150	0.148
-563.558	37.878	0.139	-0.123
-562.544	-200.000	0.035	0.179
-561.529	-200.000	-0.054	0.401
-560.515	800.000	0.032	-0.099
-559.500	800.000	0.044	0.189
-558.485	800.000	0.053	0.151
-557.471	5.811	0.265	-0.197
-556.456	-42.252	-0.173	0.088
-555.442	-194.821	0.229	-0.002
-554.427	22.117	0.283	0.231
-553.412	800.000	0.045	-0.139
-552.398	-59.667	-0.335	-0.144
-551.383	48.894	0.088	-0.082
-550.369	-131.687	-0.245	-0.032
-549.354	-92.878	0.163	0.046
-548.339	442.236	0.071	0.156
-547.325	5.510	-0.130	0.096
-546.310	-37.780	-0.469	-0.250
-545.296	83.351	0.130	-0.142
-544.281	-200.000	-0.022	-0.405
-543.266	192.475	0.110	-0.167
-542.252	-200.000	0.001	-0.007
-541.237	-3.174	-0.093	0.065
-540.223	118.117	0.090	0.111
-539.208	-89.435	0.168	-0.050
-538.193	-125.000	-0.164	0.025
-537.179	98.336	-0.061	0.070
-536.164	-51.494	-0.170	-0.079
-535.150	-200.000	0.062	-0.302
-534.135	-166.836	-0.208	0.009
-533.121	86.324	-0.185	0.204
-532.106	-37.447	0.057	0.030
-531.091	-28.473	-0.294	-0.169
-530.077	-48.763	-0.150	0.072
-529.062	50.181	-0.337	-0.318
-528.048	-16.395	-0.161	-0.102
-527.033	14.196	0.248	0.193
-526.018	-80.856	-0.322	-0.107
-525.004	-139.211	-0.281	0.030
-523.989	85.009	0.123	-0.135
-522.975	682.645	0.045	0.117
-521.960	250.647	0.009	0.016
-520.945	-36.093	0.141	0.076
-519.931	-89.332	-0.071	0.021
-518.916	181.506	-0.060	0.088
-517.902	40.051	0.279	-0.250
-516.887	800.000	-0.019	-0.081
-515.872	38.607	0.153	0.136
-514.858	-60.049	-0.239	-0.102
-513.843	-200.000	0.073	0.460
-512.829	619.615	-0.129	-0.324
-511.814	-26.342	-0.117	-0.068
-510.799	-63.737	0.104	-0.043
-509.785	-200.000	0.003	0.186
-508.770	800.000	0.094	0.294
-507.756	-200.000	0.049	-0.372
-506.741	32.880	-0.057	-0.050
-505.726	800.000	0.033	0.107
-504.712	800.000	-0.057	0.158
-503.697	-75.007	0.137	-0.049
-502.683	-59.848	-0.188	0.081
-501.668	214.912	-0.109	0.172
-500.653	283.817	-0.159	-0.285
-499.639	-154.671	-0.191	-0.013
-498.624	-35.309	-0.376	-0.204
-497.610	-43.452	-0.157	0.079
-496.595	-68.755	0.154	-0.059
-495.581	-88.825	-0.180	0.054
-494.566	-97.827	0.074	-0.019
-493.551	62.295	-0.158	-0.157
-492.537	800.000	-0.047	0.134
-491.522	534.535	-0.058	0.137
-490.508	-200.000	-0.039	-0.197
-489.493	-28.068	-0.011	0.006
-488.478	29.723	0.102	-0.086
-487.464	-103.754	-0.104	-0.024
-486.449	310.472	-0.047	0.088
-485.435	-74.440	0.241	0.087
-484.420	800.000	-0.132	0.444
-483.405	745.222	0.137	0.368
-482.391	-200.000	-0.014	-0.113
-481.376	286.313	-0.118	0.212
-480.362	-125.451	-0.185	-0.028
-479.347	-108.105	0.509	-0.110
-478.332	-17.483	0.283	-0.178
-477.318	153.524	0.238	-0.325
-476.303	-39.308	0.162	-0.085
-475.289	-6.067	0.332	-0.226
-474.274	-61.659	0.302	-0.127
-473.259	-0.318	-0.180	-0.128
-472.245	550.911	0.085	0.204
-471.230	66.895	0.220	-0.223
-470.216	-200.000	0.075	0.355
-469.201	-200.000	0.001	-0.038
-468.186	181.420	-0.054	0.079
-467.172	547.001	0.031	0.073
-466.157	570.584	-0.035	-0.085
-465.143	-142.314	-0.293	-0.029
-464.128	64.664	0.150	-0.151
-463.113	-97.254	0.303	-0.079
-462.099	89.993	0.147	-0.163
-461.084	206.222	0.094	0.146
-460.070	118.292	0.169	0.208
-459.055	210.809	-0.032	0.051
-458.040	47.709	0.147	-0.137
-457.026	-190.621	-0.115	-0.001
-456.011	-200.000	0.032	0.252
-454.997	-200.000	-0.020	0.173
-453.982	232.473	0.148	-0.242
-452.968	56.243	-0.228	-0.221
-451.953	533.823	-0.093	0.220
-450.938	-40.122	-0.068	0.035
-449.924	-200.000	-0.043	-0.289
-448.909	800.000	-0.149	-0.492
-447.895	-187.867	0.080	-0.001
-446.880	236.438	0.058	-0.096
-445.865	800.000	0.080	0.284
-444.851	445.976	-0.087	-0.191
-443.836	69.167	-0.130	-0.133
-442.822	210.541	0.051	-0.080
-441.807	-87.994	-0.070	0.021
-440.792	10.788	0.040	0.031
-439.778	210.068	-0.149	-0.233
-438.763	800.000	-0.077	0.333
-437.749	0.319	0.197	-0.140
-436.734	126.632	-0.104	0.131
-435.719	800.000	0.088	-0.291
-434.705	593.381	-0.078	-0.193
-433.690	800.000	0.060	0.247
-432.676	511.815	0.153	0.355
-431.661	152.683	0.077	0.105
-430.646	700.035	0.077	0.202
-429.632	-81.230	0.178	-0.058
-428.617	441.066	-0.116	-0.253
-427.603	650.047	-0.085	-0.216
-426.588	320.738	0.104	-0.197
-425.573	73.945	-0.168	0.175
-424.559	800.000	-0.066	-0.195
-423.544	136.713	-0.189	0.246
-422.530	-127.095	0.113	-0.017
-421.515	-156.234	0.377	-0.024
-420.500	-91.956	-0.318	0.090
-419.486	800.000	0.108	-0.331
-418.471	96.498	-0.173	0.197
-417.457	421.651	0.035	0.075
-416.442	800.000	0.195	0.545
-415.428	-3.370	-0.298	0.206
-414.413	-64.015	0.189	-0.077
-413.398	5.067	-0.120	0.088
-412.384	-200.000	-0.013	-0.201
-411.369	285.655	-0.174	-0.312
-410.355	109.610	-0.252	-0.300
-409.340	208.539	0.055	0.086
-408.325	-110.983	0.217	0.044
-407.311	420.558	0.160	-0.341
-406.296	800.000	-0.097	0.272
-405.282	337.862	0.126	0.245
-404.267	-175.569	-0.178	-0.005
-403.252	800.000	0.059	0.195
-402.238	-43.293	0.085	0.043
-401.223	-62.918	-0.102	-0.042
-400.209	-200.000	0.002	-0.231
-399.194	454.518	0.052	-0.116
-398.179	-106.089	0.182	0.041
-397.165	-200.000	0.045	0.244
-396.150	66.166	-0.045	0.046
-395.136	-112.118	0.126	-0.025
-394.121	742.456	-0.071	-0.191
-393.106	21.710	-0.195	-0.158
-392.092	-200.000	0.031	-0.320
-391.077	-107.356	0.450	0.098
-390.063	-95.433	-0.169	0.045
-389.048	2.465	-0.073	-0.052
-388.033	428.868	-0.119	-0.256
-387.019	64.190	-0.116	-0.116
-386.004	-200.000	0.033	-0.309
-384.990	-162.306	0.159	-0.008
-383.975	800.000	-0.071	0.300
-382.960	-59.406	0.480	-0.205
-381.946	-200.000	0.029	0.177
-380.931	-62.174	0.124	-0.051
-379.917	-200.000	0.049	-0.257
-378.902	41.366	0.230	0.207
-377.888	800.000	-0.116	0.340
-376.873	-50.123	-0.267	-0.126
-375.858	0.035	-0.094	0.066
-374.844	10.524	0.181	-0.137
-373.829	-37.487	0.063	0.034
-372.815	-200.000	0.311	0.001
-371.800	233.001	-0.141	0.230
-370.785	-58.918	-0.276	-0.119
-369.771	-88.172	0.303	0.090
-368.756	141.901	0.104	0.137
-367.742	-99.151	0.152	-0.038
-366.727	360.040	-0.257	-0.511
-365.712	-80.654	-0.328	-0.108
-364.698	-200.000	-0.062	0.327
-363.683	-200.000	-0.026	-0.233
-362.669	800.000	0.074	-0.257
-361.654	-38.066	-0.100	-0.053
-360.639	14.996	0.147	0.114
-359.625	703.053	0.057	0.148
-358.610	-140.470	-0.313	-0.032
-357.596	-60.200	0.167	0.071
-356.581	102.956	-0.160	-0.187
-355.566	341.221	-0.155	-0.301
-354.552	-14.261	-0.456	-0.292
-353.537	5.119	0.114	0.083
-352.523	-64.506	0.157	-0.063
-351.508	19.980	0.279	-0.224
-350.493	247.691	0.168	-0.282
-349.479	662.624	-0.052	0.132
-348.464	0.324	0.016	-0.011
-347.450	-130.968	0.072	0.010
-346.435	800.000	0.015	0.061
-345.420	-200.000	-0.015	0.194
-344.406	-53.853	-0.270	0.122
-343.391	800.000	0.040	-0.171
-342.377	-38.090	-0.148	0.078
-341.362	-200.000	0.066	0.362
-340.348	-99.809	0.236	0.059
-339.333	-124.251	-0.045	0.007
-338.318	-139.680	-0.244	-0.026
-337.304	-2.060	-0.077	0.054
-336.289	-148.052	0.432	0.036
-335.275	-200.000	-0.026	-0.335
-334.260	145.213	-0.105	0.139
-333.245	70.346	0.129	0.132
-332.231	-94.847	-0.092	-0.025
-331.216	-79.149	0.119	-0.040
-330.202	168.234	-0.036	0.051
-329.187	-113.220	0.432	-0.084
-328.172	17.969	-0.188	0.149
-327.158	63.131	0.293	0.291
-326.143	242.698	0.161	-0.267
-325.129	-6.514	-0.414	-0.280
-324.114	-200.000	-0.040	-0.320
-323.099	417.043	-0.141	0.299
-322.085	-30.247	0.323	0.182
-321.070	-59.931	0.351	0.149
-320.056	214.835	-0.099	-0.156
-319.041	38.941	0.124	0.110
-318.026	91.230	-0.174	0.193
-317.012	-152.918	0.213	0.015
-315.997	-72.743	-0.111	-0.040
-314.983	569.510	0.137	-0.331
-313.968	-110.686	-0.126	-0.026
-312.953	144.011	-0.168	-0.222
-311.939	63.955	0.143	0.142
-310.924	14.057	0.155	-0.120
-309.910	69.874	0.106	0.108
-308.895	-159.341	-0.250	0.014
-307.880	-103.155	-0.228	-0.054
-306.866	-200.000	0.022	-0.240
-305.851	-103.763	0.126	0.029
-304.837	-32.041	-0.304	-0.168
-303.822	-14.248	-0.095	0.061
-302.807	23.206	-0.181	-0.148
-301.793	800.000	0.025	-0.093
-300.778	97.344	0.168	0.191
-299.764	800.000	-0.084	0.293
-298.749	-122.795	-0.203	-0.033
-297.735	-53.599	-0.299	0.136
-296.720	-75.235	-0.253	-0.090
-295.705	-200.000	0.002	0.305
-294.691	-20.696	0.200	-0.121
-293.676	144.727	-0.130	0.173
-292.662	83.484	-0.223	0.241
-291.647	-152.136	0.175	0.013
-290.632	247.995	-0.175	0.293
-289.618	800.000	-0.071	0.232
-288.603	122.872	0.111	-0.137
-287.589	-1.581	-0.124	-0.087
-286.574	647.839	0.095	-0.239
-285.559	-200.000	-0.035	-0.231
-284.545	15.625	0.269	-0.210
-283.530	800.000	0.022	0.062
-282.516	-200.000	0.009	0.062
-281.501	260.147	0.083	-0.141
-280.486	13.059	0.128	-0.098
-279.472	-99.352	-0.032	0.008
-278.457	224.233	0.060	0.096
-277.443	-109.202	-0.088	0.019
-276.428	12.939	-0.091	0.070
-275.413	-200.000	-0.038	0.237
-274.399	-17.276	0.303	-0.189
-273.384	-200.000	-0.003	-0.172
-272.370	6.896	0.243	0.179
-271.355	-2.826	-0.185	0.128
-270.340	-72.215	-0.358	-0.131
-269.326	800.000	-0.072	-0.234
-268.311	-200.000	-0.026	0.311
-267.297	800.000	-0.112	-0.352
-266.282	-35.196	0.271	-0.146
-265.267	155.326	-0.028	-0.038
-264.253	800.000	0.125	0.390
-263.238	-22.384	-0.273	-0.163
-262.224	-76.884	-0.153	0.053
-261.209	-64.891	0.268	-0.107
-260.195	-24.168	0.233	0.138
-259.180	-16.723	0.346	-0.217
-258.165	-33.882	0.180	0.098
-257.151	87.280	0.126	-0.138
-256.136	358.065	-0.192	-0.380
-255.122	183.196	0.105	-0.153
-254.107	-1.131	0.309	-0.216
-253.092	-200.000	0.012	-0.103
-252.078	-84.616	0.268	0.083
-251.063	-16.011	0.218	-0.137
-250.049	2.510	0.126	0.091
-249.034	219.118	-0.079	-0.125
-248.019	95.574	-0.328	-0.370
-247.005	75.230	-0.109	0.114
-245.990	125.280	-0.083	-0.103
-244.976	-200.000	-0.003	0.363
-243.961	-22.903	-0.028	-0.017
-242.946	-64.287	-0.169	-0.068
-241.932	-28.747	0.164	-0.093
-240.917	104.055	-0.090	-0.105
-239.903	8.042	0.120	-0.089
-238.888	106.780	-0.133	-0.156
-237.873	61.802	-0.195	0.192
-236.859	-12.018	0.306	0.198
-235.844	-11.041	0.235	-0.153
-234.830	267.449	-0.211	-0.364
-233.815	-120.873	0.049	0.008
-232.800	-118.958	-0.209	0.036
-231.786	-200.000	-0.027	-0.204
-230.771	-20.864	-0.493	-0.299
-229.757	257.106	-0.139	-0.236
-228.742	-108.983	-0.461	-0.097
-227.727	-113.406	0.131	0.025
-226.713	3.881	-0.099	-0.072
-225.698	-200.000	-0.072	0.326
-224.684	6.234	0.218	0.160
-223.669	800.000	-0.078	0.249
-222.655	-24.518	-0.285	0.168
-221.640	31.628	0.144	-0.123
-220.625	-200.000	0.005	0.030
-219.611	27.529	0.219	0.182
-218.596	321.676	-0.081	-0.152
-217.582	-25.099	0.127	0.075
-216.567	640.351	-0.203	0.509
-215.552	800.000	0.076	-0.252
-214.538	45.244	-0.194	0.176
-213.523	229.705	-0.133	-0.215
-212.509	-100.414	-0.199	0.049
-211.494	-126.777	-0.453	-0.066
-210.479	-113.865	-0.023	0.004
-209.465	22.475	0.202	0.163
-208.450	-74.348	0.278	0.099
-207.436	647.123	0.099	-0.249
-206.421	-33.946	-0.302	0.164
-205.406	-200.000	-0.035	-0.261
-204.392	-200.000	0.002	0.124
-203.377	-114.379	-0.370	0.070
-202.363	-96.832	-0.138	0.036
-201.348	-60.007	0.192	-0.081
-200.333	317.191	-0.137	-0.256
-199.319	261.477	0.047	-0.080
-198.304	-93.986	0.221	0.060
-197.290	-61.548	-0.180	-0.075
-196.275	103.416	-0.134	-0.155
-195.260	800.000	0.121	-0.398
-194.246	172.987	-0.026	-0.037
-193.231	282.320	-0.149	0.265
-192.217	3.685	-0.299	0.216
-191.202	-117.286	-0.362	0.065
-190.187	-87.547	-0.194	0.058
-189.173	454.621	0.112	0.245
-188.158	212.067	-0.221	0.344
-187.144	236.238	0.117	0.190
-186.129	800.000	-0.091	0.327
-185.114	-49.966	-0.198	0.093
-184.100	77.233	-0.145	0.152
-183.085	-98.034	0.329	0.084
-182.071	-43.015	-0.125	0.063
-181.056	378.342	-0.065	-0.132
-180.042	3.084	0.140	-0.101
-179.027	-18.612	0.160	-0.098
-178.012	-177.842	0.094	0.002
-176.998	-39.085	0.169	0.088
-175.983	800.000	-0.053	0.202
-174.969	-200.000	-0.034	0.166
-173.954	-76.096	0.438	0.153
-172.939	182.945	-0.026	-0.037
-171.925	-200.000	-0.004	0.031
-170.910	800.000	0.095	0.386
-169.896	101.385	-0.150	0.173
-168.881	-200.000	0.031	0.200
-167.866	-52.722	-0.038	0.017
-166.852	-101.298	0.251	0.060
-165.837	-55.095	0.277	0.123
-164.823	248.983	0.168	-0.281
-163.808	180.407	-0.058	-0.084
-162.793	362.567	-0.125	0.247
-161.779	165.889	-0.123	-0.171
-160.764	-85.236	-0.046	0.014
-159.750	12.789	0.292	0.222
-158.735	524.512	0.033	-0.076
-157.720	800.000	-0.055	0.154
-156.706	-200.000	0.016	0.367
-155.691	800.000	-0.031	-0.114
-154.677	194.786	-0.190	0.284
-153.662	274.844	-0.107	0.187
-152.647	212.730	0.099	-0.154
-151.633	179.940	-0.061	0.088
-150.618	-200.000	-0.069	0.358
-149.604	-200.000	-0.036	0.202
-148.589	-70.822	-0.172	0.064
-147.574	510.617	0.062	0.142
-146.560	637.181	0.108	0.272
-145.545	42.773	0.173	-0.156
-144.531	-200.000	0.001	0.208
-143.516	355.495	0.156	-0.305
-142.502	-74.666	0.263	-0.093
-141.487	-200.000	0.025	-0.314
-140.472	-182.397	0.405	0.007
-139.458	665.813	0.099	0.251
-138.443	135.441	0.148	-0.189
-137.429	-91.323	-0.113	-0.032
-136.414	75.429	0.201	0.209
-135.399	-200.000	-0.016	0.091
-134.385	547.005	-0.109	0.257
-133.370	-116.364	0.129	0.024
-132.356	-34.906	0.178	-0.096
-131.341	44.767	0.294	-0.267
-130.326	9.588	-0.290	-0.216
-129.312	-78.123	-0.253	0.086
-128.297	-17.989	-0.057	-0.035
-127.283	72.599	-0.131	0.134
-126.268	-63.059	0.340	0.138
-125.253	330.648	0.067	0.127
-124.239	-102.962	0.110	0.026
-123.224	634.411	0.066	0.165
-122.210	-32.616	0.042	-0.023
-121.195	251.641	0.096	-0.161
-120.180	-200.000	0.033	0.277
-119.166	-132.439	0.288	-0.036
-118.151	800.000	-0.052	0.153
-117.137	-200.000	0.006	0.266
-116.122	-156.139	0.317	0.020
-115.107	800.000	-0.174	0.655
-114.093	-200.000	0.111	0.515
-113.078	800.000	0.034	0.093
-112.064	5.896	0.186	-0.136
-111.049	-200.000	0.043	0.277
-110.034	-58.916	-0.272	-0.116
-109.020	134.071	-0.346	-0.441
-108.005	177.721	0.135	0.193
-106.991	-200.000	-0.033	-0.173
-105.976	-92.313	-0.520	-0.144
-104.962	-177.338	0.202	0.005
-103.947	-200.000	-0.002	0.192
-102.932	-200.000	-0.007	-0.069
-101.918	117.050	-0.231	-0.279
-100.903	-116.564	-0.093	-0.017
-99.889	-134.792	-0.227	-0.027
-98.874	-114.056	0.236	0.045
-97.859	57.470	-0.177	0.170
-96.845	800.000	0.024	-0.088
-95.830	-200.000	-0.017	0.201
-94.816	138.361	-0.103	-0.132
-93.801	88.366	-0.177	-0.193
-92.786	-200.000	-0.068	0.332
-91.772	-70.555	0.400	0.149
-90.757	193.545	-0.075	-0.112
-89.743	26.521	-0.235	0.194
-88.728	138.102	-0.152	-0.196
-87.713	-114.654	-0.060	-0.011
-86.699	42.213	0.124	-0.111
-85.684	-9.911	-0.318	-0.208
-84.670	-154.655	-0.256	0.017
-83.655	-147.895	-0.148	0.012
-82.640	-72.798	0.386	0.140
-81.626	195.536	-0.026	-0.039
-80.611	110.776	0.182	-0.215
-79.597	-200.000	0.049	0.398
-78.582	-200.000	-0.009	0.161
-77.567	209.904	0.108	0.167
-76.553	-200.000	-0.081	0.371
-75.538	-54.256	0.100	-0.045
-74.524	52.061	0.273	-0.256
-73.509	208.134	0.078	0.120
-72.494	522.247	-0.168	0.388
-71.480	-187.039	0.508	-0.007
-70.465	774.838	0.100	0.267
-69.451	515.850	0.190	0.435
-68.436	154.557	0.154	0.208
-67.422	800.000	-0.054	0.157
-66.407	-117.539	0.222	0.039
-65.392	-133.305	0.109	0.013
-64.378	308.961	0.155	-0.284
-63.363	-29.475	-0.200	-0.112
-62.349	-200.000	0.008	0.045
-61.334	69.779	-0.958	-0.970
-60.319	-38.280	0.536	0.279
-59.305	-200.000	-0.122	-0.819
-58.290	206.180	0.610	0.932
-57.276	-200.000	0.352	1.659
-56.261	-200.000	98.445	568.662
-55.246	496.053	1413.340	3189.528
-54.232	157.546	2583.497	3511.339
-53.217	110.022	2161.468	2546.458
-52.203	42.734	1701.600	1521.328
-51.188	35.683	1512.994	1304.996
-50.173	33.241	1485.786	1265.173
-49.159	52.571	1537.127	1440.881
-48.144	54.341	1554.388	1469.047
-47.130	35.753	1513.794	1305.958
-46.115	32.662	1499.055	1272.362
-45.100	32.448	1495.991	1268.270
-44.086	32.469	1493.883	1266.574
-43.071	32.457	1491.615	1264.523
-42.057	32.414	1490.742	1263.441
-41.042	32.310	1489.500	1261.641
-40.027	32.560	1486.876	1261.045
-39.013	32.439	1486.294	1259.691
-37.998	32.373	1484.453	1257.636
-36.984	32.449	1483.555	1257.334
-35.969	32.552	1481.685	1256.388
-34.954	32.514	1480.536	1255.110
-33.940	32.601	1479.134	1254.446
-32.925	32.516	1478.235	1253.072
-31.911	32.438	1477.065	1251.511
-30.896	32.537	1475.491	1250.789
-29.881	32.536	1474.376	1249.785
-28.867	32.527	1472.899	1248.421
-27.852	32.441	1471.942	1246.993
-26.838	32.573	1469.812	1246.012
-25.823	32.506	1468.746	1244.617
-24.809	32.540	1467.062	1243.366
-23.794	32.463	1465.734	1241.681
-22.779	32.402	1464.712	1240.364
-21.765	32.488	1463.586	1239.929
-20.750	32.507	1462.373	1238.979
-19.736	32.465	1461.279	1237.721
-18.721	32.421	1459.991	1236.291
-17.706	32.418	1459.054	1235.429
-16.692	32.548	1457.667	1235.059
-15.677	32.465	1456.913	1233.829
-14.663	32.460	1455.538	1232.585
-13.648	32.443	1454.962	1231.934
-12.633	32.500	1453.874	1231.338
-11.619	32.446	1452.959	1230.164
-10.604	32.462	1452.446	1229.781
-9.590	32.450	1451.438	1228.804
-8.575	32.349	1450.866	1227.611
-7.560	32.446	1449.502	1227.037
-6.546	32.455	1448.576	1226.268
-5.531	32.442	1448.035	1225.673
-4.517	32.417	1447.305	1224.845
-3.502	32.374	1446.454	1223.797
-2.487	32.406	1445.149	1222.851
-1.473	32.452	1443.754	1221.924
-0.458	32.425	1442.230	1220.409
0.556	30.293	1431.645	1205.069
1.571	25.638	1403.956	1151.932
2.586	20.386	1339.468	1066.750
3.600	17.733	1256.954	985.631
4.615	16.347	1211.318	942.037
5.629	14.128	1156.453	887.462
6.644	7.434	1074.439	791.168
7.659	1.356	1035.288	732.998
8.673	0.328	1029.607	723.976
9.688	0.259	1026.792	721.601
10.702	0.220	1025.431	720.393
11.717	0.113	1023.423	718.409
12.731	2.401	1024.596	730.093
13.746	9.442	1034.231	770.712
14.761	15.720	1041.619	806.341
15.775	17.172	1042.805	814.150
16.790	16.548	1041.243	809.873
17.804	15.486	1039.421	803.307
18.819	14.663	1037.286	797.654
19.834	14.233	1035.823	794.406
20.848	13.978	1035.055	792.531
21.863	13.662	1033.887	790.061
22.877	13.522	1033.549	789.065
23.892	13.272	1032.408	786.934
24.907	13.200	1031.425	785.772
25.921	13.193	1030.866	785.244
26.936	13.123	1030.669	784.690
27.950	13.147	1030.066	784.276
28.965	13.221	1029.103	783.825
29.980	13.195	1028.373	783.076
30.994	13.323	1027.476	782.931
32.009	13.388	1026.329	782.294
33.023	13.433	1025.667	781.935
34.038	13.414	1025.059	781.313
35.053	13.378	1024.014	780.276
36.067	13.318	1023.318	779.396
37.082	13.345	1022.037	778.478
38.096	13.426	1021.246	778.188
39.111	13.332	1021.145	777.596
40.126	13.393	1020.151	777.059
41.140	13.344	1018.953	775.847
42.155	13.265	1017.949	774.647
43.169	13.175	1017.119	773.521
44.184	13.108	1016.038	772.320
45.199	13.206	1014.735	771.719
46.213	13.337	1013.993	771.697
47.228	13.157	1013.350	770.300
48.242	13.216	1012.291	769.703
49.257	13.357	1011.222	769.475
50.271	13.264	1010.672	768.559
51.286	13.430	1009.216	768.155
52.301	13.349	1008.491	767.156
53.315	13.319	1008.100	766.654
54.330	13.325	1007.121	765.869
55.344	13.268	1006.213	764.846
56.359	13.180	1005.335	763.706
57.374	13.049	1004.641	762.507
58.388	13.216	1003.720	762.509
59.403	13.235	1002.597	761.675
60.417	13.055	1002.322	760.569
61.432	13.293	1000.766	760.419
62.447	13.112	1000.823	759.561
63.461	13.204	1000.037	759.320
64.476	13.110	998.940	757.989
65.490	13.122	998.027	757.284
66.505	13.151	997.556	756.991
67.520	13.170	996.575	756.268
68.534	13.212	996.229	756.129
69.549	13.105	995.274	754.850
70.563	13.140	994.845	754.619
71.578	13.130	993.676	753.617
72.593	13.020	993.086	752.601
73.607	13.104	992.444	752.430
74.622	13.155	990.844	751.384
75.636	13.037	990.448	750.479
76.651	13.152	989.569	750.270
77.666	13.012	988.937	749.092
78.680	13.151	988.044	748.979
79.695	13.168	987.645	748.688
80.709	13.166	986.895	748.041
81.724	13.120	985.961	747.060
82.739	13.210	985.742	747.237
83.753	13.213	984.778	746.453
84.768	13.263	983.596	745.715
85.782	13.497	982.820	746.113
86.797	13.355	982.479	745.153
87.812	13.349	981.846	744.579
88.826	13.223	981.071	743.360
89.841	13.339	979.880	742.910
90.855	13.407	979.173	742.615
91.870	13.359	978.296	741.670
92.884	13.397	977.899	741.470
93.899	13.307	977.392	740.619
94.914	13.457	976.275	740.380
95.928	13.496	975.918	740.216
96.943	13.477	974.923	739.310
97.957	13.452	974.067	738.484
98.972	13.278	973.446	737.172
99.987	13.438	972.593	737.173
101.001	13.394	971.961	736.432
102.016	13.300	971.260	735.418
103.030	13.267	970.425	734.577
104.045	13.410	968.898	733.990
105.060	13.432	968.327	733.590
106.074	13.326	967.231	732.225
107.089	13.295	966.413	731.405
108.103	13.383	965.668	731.162
109.118	13.247	964.508	729.622
110.133	13.136	964.175	728.815
111.147	13.310	963.030	728.651
112.162	13.112	962.467	727.289
113.176	13.279	961.209	727.010
114.191	13.304	960.409	726.450
115.206	13.346	959.444	725.839
116.220	13.396	958.681	725.415
117.235	13.379	958.041	724.792
118.249	13.317	956.993	723.666
119.264	13.464	956.035	723.520
120.279	13.219	955.972	722.338
121.293	13.337	954.644	721.785
122.308	13.272	953.993	720.945
123.322	13.291	953.267	720.418
124.337	13.262	952.192	719.412
125.352	13.175	951.289	718.291
126.366	13.555	949.450	718.486
127.381	13.226	949.316	716.896
128.395	13.179	948.234	715.811
129.410	13.366	946.931	715.570
130.424	13.265	946.462	714.717
131.439	13.226	945.776	713.969
132.454	13.327	944.698	713.529
133.468	13.277	944.195	712.868
134.483	13.413	943.538	712.894
135.497	13.329	942.910	711.996
136.512	13.437	941.771	711.538
137.527	13.283	941.279	710.439
138.541	13.400	940.158	710.034
139.556	13.400	939.602	709.548
140.570	13.515	938.655	709.265
141.585	13.373	938.412	708.410
142.600	13.403	937.641	707.895
143.614	13.423	936.633	707.155
144.629	13.377	935.864	706.316
145.643	13.588	935.332	706.752
146.658	13.520	934.228	705.568
147.673	13.431	933.615	704.662
148.687	13.537	932.525	704.229
149.702	13.504	931.673	703.383
150.716	13.410	930.950	702.376
151.731	13.371	930.405	701.736
152.746	13.421	929.615	701.290
153.760	13.459	929.083	700.988
154.775	13.407	928.482	700.252
155.789	13.469	927.379	699.620
156.804	13.552	926.680	699.381
157.819	13.406	926.288	698.407
158.833	13.627	925.296	698.530
159.848	13.537	924.990	697.859
160.862	13.491	924.439	697.186
161.877	13.640	923.328	696.914
162.892	13.609	922.452	696.061
163.906	13.589	921.613	695.281
164.921	13.408	921.118	694.089
165.935	13.668	919.463	693.870
166.950	13.553	918.577	692.657
167.964	13.700	917.629	692.493
168.979	13.655	916.830	691.644
169.994	13.642	915.855	690.793
171.008	13.583	915.201	689.991
172.023	13.687	914.371	689.738
173.037	13.691	913.756	689.227
174.052	13.596	912.857	688.096
175.067	13.744	912.244	688.189
176.081	13.707	911.623	687.505
177.096	13.638	910.576	686.370
178.110	13.668	909.795	685.841
179.125	13.737	909.195	685.613
180.140	13.753	908.468	685.071
181.154	13.661	908.020	684.292
182.169	13.792	907.094	684.075
183.183	13.909	906.160	683.794
184.198	13.848	905.868	683.259
185.213	13.895	904.922	682.681
186.227	13.884	904.346	682.139
187.242	13.931	903.874	681.918
188.256	13.868	903.327	681.186
189.271	14.007	902.109	680.774
190.286	13.906	901.820	680.084
191.300	13.846	900.926	679.102
192.315	13.682	900.496	678.050
193.329	13.669	899.548	677.223
194.344	13.685	898.978	676.797
195.359	13.766	898.395	676.631
196.373	13.812	897.970	676.437
197.388	13.797	897.516	675.976
198.402	13.791	897.202	675.654
199.417	13.952	896.452	675.685
200.432	14.118	895.624	675.672
201.446	14.103	895.446	675.420
202.461	14.098	895.111	675.085
203.475	14.087	894.303	674.371
204.490	14.129	893.948	674.218
205.504	13.977	893.439	673.158
206.519	14.016	892.536	672.575
207.534	14.157	891.282	672.141
208.548	14.087	890.540	671.239
209.563	14.104	890.040	670.872
210.577	14.086	889.141	670.062
211.592	14.230	888.999	670.476
212.607	14.166	888.575	669.838
213.621	14.194	887.895	669.377
214.636	14.190	887.087	668.697
215.650	14.162	886.642	668.188
216.665	14.263	886.175	668.180
217.680	14.183	885.539	667.321
218.694	14.280	885.053	667.286
219.709	14.380	884.354	667.100
220.723	14.317	883.699	666.294
221.738	14.266	882.880	665.414
222.753	14.313	882.335	665.133
223.767	14.264	881.507	664.253
224.782	14.314	880.650	663.749
225.796	14.593	879.487	663.922
226.811	14.373	879.955	663.341
227.826	14.493	879.060	663.088
228.840	14.462	878.047	662.140
229.855	14.387	877.462	661.343
230.869	14.384	876.948	660.887
231.884	14.505	876.047	660.625
232.899	14.255	875.703	659.320
233.913	14.377	874.736	659.017
234.928	14.363	874.234	658.523
235.942	14.356	873.277	657.718
236.957	14.338	872.709	657.161
237.972	14.440	872.066	657.020
238.986	14.491	871.635	656.840
240.001	14.380	870.920	655.805
241.015	14.495	870.238	655.686
242.030	14.542	869.735	655.435
243.045	14.461	868.765	654.326
244.059	14.644	868.246	654.593
245.074	14.610	867.563	653.887
246.088	14.716	867.001	653.823
247.103	14.659	866.870	653.443
248.117	14.616	866.168	652.685
249.132	14.662	865.667	652.432
250.147	14.824	865.002	652.506
251.161	14.759	864.355	651.705
252.176	14.875	863.500	651.455
253.190	14.836	862.881	650.777
254.205	14.926	862.231	650.582
255.220	14.929	861.508	649.991
256.234	14.836	861.040	649.218
257.249	14.994	860.434	649.317
258.263	14.929	860.371	648.960
259.278	14.998	859.192	648.280
260.293	15.037	859.036	648.256
261.307	15.057	858.369	647.773
262.322	15.112	857.582	647.336
263.336	15.028	857.265	646.712
264.351	15.043	856.950	646.475
265.366	15.038	855.968	645.660
266.380	15.086	855.361	645.328
267.395	15.115	854.733	644.912
268.409	15.162	854.016	644.495
269.424	15.155	853.584	644.083
270.439	15.039	852.725	642.931
271.453	15.126	852.014	642.674
272.468	15.205	851.131	642.254
273.482	15.167	850.602	641.651
274.497	15.242	849.933	641.375
275.512	15.173	849.381	640.641
276.526	15.120	848.984	640.081
277.541	15.184	848.045	639.562
278.555	15.035	847.694	638.672
279.570	15.215	846.978	638.761
280.585	15.358	846.427	638.836
281.599	15.386	845.632	638.285
282.614	15.409	845.119	637.927
283.628	15.293	844.568	637.014
284.643	15.317	844.089	636.690
285.657	15.197	843.772	635.939
286.672	15.353	843.409	636.198
287.687	15.347	842.911	635.745
288.701	15.339	842.614	635.432
289.716	15.380	841.461	634.662
290.730	15.487	841.181	634.801
291.745	15.463	840.453	634.103
292.760	15.426	839.818	633.428
293.774	15.462	839.190	633.035
294.789	15.512	838.708	632.803
295.803	15.526	838.192	632.411
296.818	15.503	837.617	631.835
297.833	15.637	836.407	631.370
298.847	15.583	836.194	630.952
299.862	15.574	835.263	630.159
300.876	15.564	835.054	629.907
301.891	15.521	834.417	629.209
302.906	15.738	833.453	629.242
303.920	15.701	832.955	628.669
304.935	15.811	832.206	628.458
305.949	15.816	831.707	628.047
306.964	15.720	831.141	627.206
307.979	15.642	830.523	626.392
308.993	15.782	829.791	626.305
310.008	15.803	829.441	626.064
311.022	15.853	828.867	625.763
312.037	15.828	828.962	625.685
313.052	15.812	827.782	624.679
314.066	15.810	827.427	624.351
315.081	15.818	826.777	623.832
316.095	15.756	826.143	623.069
317.110	15.761	825.425	622.490
318.125	15.859	825.235	622.658
319.139	15.746	824.878	621.915
320.154	15.810	824.080	621.495
321.168	15.849	823.408	621.074
322.183	15.845	823.308	620.931
323.197	15.916	822.308	620.382
324.212	15.933	821.837	620.037
325.227	15.947	821.265	619.601
326.241	15.942	821.226	619.498
327.256	15.847	820.557	618.590
328.270	15.940	819.895	618.378
329.285	15.968	818.926	617.693
330.300	15.886	818.745	617.201
331.314	15.959	818.424	617.172
332.329	15.889	817.766	616.365
333.343	16.062	817.076	616.423
334.358	15.874	816.675	615.378
335.373	16.010	815.965	615.289
336.387	16.113	815.504	615.260
337.402	16.051	814.937	614.552
338.416	16.073	814.308	614.103
339.431	16.167	813.747	613.971
340.446	16.215	812.971	613.505
341.460	16.144	812.767	613.039
342.475	16.306	812.052	613.030
343.489	16.251	811.516	612.376
344.504	16.394	810.787	612.287
345.519	16.296	810.814	611.897
346.533	16.465	809.840	611.721
347.548	16.448	809.477	611.332
348.562	16.433	808.714	610.648
349.577	16.325	808.394	609.959
350.592	16.372	807.832	609.653
351.606	16.249	807.829	609.154
352.621	16.227	807.571	608.825
353.635	16.375	806.720	608.661
354.650	16.209	806.433	607.795
355.665	16.333	806.153	607.976
356.679	16.317	805.461	607.342
357.694	16.281	805.137	606.916
358.708	16.449	804.089	606.673
359.723	16.484	803.875	606.587
360.738	16.439	803.429	606.032
361.752	16.444	802.781	605.509
362.767	16.527	802.146	605.272
363.781	16.437	802.013	604.799
364.796	16.568	801.626	604.920
365.810	16.679	801.068	604.842
366.825	16.724	800.471	604.501
367.840	16.557	800.698	604.020
368.854	16.527	800.142	603.441
369.869	16.555	799.428	602.948
370.883	16.653	799.141	603.029
371.898	16.690	798.447	602.583
372.913	16.683	797.761	601.988
373.927	16.677	797.063	601.384
374.942	16.782	796.514	601.290
375.956	16.705	795.812	600.434
376.971	16.817	795.273	600.372
377.986	16.801	794.866	599.954
379.000	16.920	794.415	599.981
380.015	16.860	793.944	599.361
381.029	16.991	793.224	599.226
382.044	16.859	792.649	598.273
383.059	16.980	792.075	598.214
384.073	16.899	791.937	597.772
385.088	17.074	791.572	598.059
386.102	16.898	790.886	596.868
387.117	16.912	790.184	596.336
388.132	16.895	789.704	595.862
389.146	16.989	789.478	595.969
390.161	16.910	789.289	595.497
391.175	16.932	788.890	595.220
392.190	17.094	788.386	595.356
393.205	16.888	788.255	594.480
394.219	17.113	787.180	594.405
395.234	16.978	786.832	593.618
396.248	16.944	786.460	593.164
397.263	17.098	785.971	593.282
398.278	16.986	785.457	592.449
399.292	17.058	784.891	592.220
400.307	16.939	784.797	591.685
401.321	17.041	784.063	591.431
402.336	16.943	784.124	591.085
403.350	17.072	783.541	591.042
404.365	17.140	783.071	590.871
405.380	17.053	782.699	590.236
406.394	17.284	782.073	590.516
407.409	17.310	781.589	590.189
408.423	17.328	780.932	589.701
409.438	17.244	780.540	589.062
410.453	17.299	780.247	588.981
411.467	17.369	779.796	588.828
412.482	17.319	779.276	588.213
413.496	17.414	779.013	588.291
414.511	17.358	779.081	588.094
415.526	17.516	778.064	587.820
416.540	17.345	778.111	587.214
417.555	17.482	777.490	587.168
418.569	17.477	776.657	586.468
419.584	17.440	776.382	586.083
420.599	17.454	775.955	585.754
421.613	108.967	1288.007	1463.390
422.628	93.131	1362.602	1463.485
