DTS Sentinel unit serial number:	SN413079Multiplexer serial number:	ORYXHardware model number:	OX4-SRSoftware version number:	ORYX F/W v4.00 Oryx Data Collector v3.7.2.0data status	okinstallation	princeton_trtdifferential loss correction	single-endedforward channel	channel 3reverse channel	N/Adate	2019/09/13time	15:40:35forward acquisition time	60.00reverse acquisition time	0.00gamma	496.2192k internal	0.2307k external	0.2307temperature offset calibration	1.0145default loss term (dB/km)	0.3790temperature slope calibration	1.0000multiplexer offset coefficient	1.0000multiplexer slope coefficient	1.0000fibre end	0.00T internal ref (°C)	34.87T ext. ref 1 (°C)	4.76T ext. ref 2 (°C)	29.11length (m)	temperature (°C)	Stokes	anti-Stokes-747.200	20.655	0.355	0.292
-746.185	-56.529	-0.131	0.059
-745.171	62.783	0.165	0.168
-744.156	387.758	0.070	-0.147
-743.142	103.666	0.077	-0.092
-742.127	-101.932	-0.285	0.070
-741.112	-96.299	0.221	0.060
-740.098	-83.956	-0.228	-0.074
-739.083	132.872	-0.159	0.209
-738.069	-200.000	-0.051	0.499
-737.054	-154.212	-0.125	-0.009
-736.039	-110.021	-0.397	0.085
-735.025	-89.968	0.201	0.060
-734.010	123.063	-0.064	-0.082
-732.996	281.685	-0.215	-0.391
-731.981	-200.000	0.010	-0.685
-730.966	81.215	-0.072	-0.079
-729.952	20.295	-0.210	-0.172
-728.937	-200.000	-0.013	-0.326
-727.923	-94.405	-0.112	-0.031
-726.908	-107.056	-0.157	0.035
-725.894	-46.033	-0.332	-0.167
-724.879	98.174	0.283	-0.331
-723.864	432.969	0.004	-0.009
-722.850	234.394	-0.094	0.158
-721.835	121.909	-0.130	-0.165
-720.821	91.852	0.129	-0.148
-719.806	98.702	0.182	0.213
-718.791	-112.366	-0.181	0.037
-717.777	-200.000	0.034	0.168
-716.762	800.000	-0.018	-0.064
-715.748	174.285	0.170	0.249
-714.733	20.899	0.229	0.189
-713.718	-93.623	0.215	0.060
-712.704	474.627	-0.025	0.057
-711.689	-136.258	-0.092	0.011
-710.675	-59.117	-0.032	-0.014
-709.660	170.535	0.076	-0.111
-708.645	-123.135	0.241	0.039
-707.631	-29.948	-0.276	-0.159
-706.616	-46.373	-0.288	0.144
-705.602	483.297	-0.167	0.385
-704.587	392.953	0.102	-0.216
-703.572	-100.271	-0.077	0.019
-702.558	-63.135	0.450	0.188
-701.543	-36.819	0.189	0.103
-700.529	800.000	-0.077	-0.265
-699.514	510.947	0.031	0.074
-698.499	81.105	-0.285	0.312
-697.485	183.719	0.050	0.075
-696.470	60.796	-0.170	-0.171
-695.456	-17.518	-0.178	-0.114
-694.441	-121.755	0.114	0.019
-693.426	42.654	0.089	-0.082
-692.412	41.394	0.100	-0.092
-691.397	262.302	-0.217	0.381
-690.383	289.831	-0.093	0.172
-689.368	3.276	-0.170	0.126
-688.354	1.178	0.180	0.131
-687.339	29.143	0.084	-0.072
-686.324	-137.880	0.115	0.013
-685.310	800.000	-0.067	-0.218
-684.295	304.563	0.053	0.099
-683.281	800.000	0.106	-0.350
-682.266	800.000	-0.027	-0.115
-681.251	-137.254	0.392	0.045
-680.237	520.258	0.149	0.355
-679.222	-46.931	0.287	0.142
-678.208	-78.209	0.118	0.041
-677.193	31.137	-0.085	0.074
-676.178	-65.411	-0.341	-0.139
-675.164	109.061	-0.160	0.194
-674.149	89.422	-0.093	0.105
-673.135	6.614	-0.288	-0.217
-672.120	266.462	-0.081	-0.144
-671.105	16.015	-0.146	0.116
-670.091	-200.000	0.027	-0.121
-669.076	-46.246	0.140	-0.070
-668.062	-127.413	-0.080	0.012
-667.047	65.800	-0.179	0.184
-666.032	800.000	-0.036	-0.104
-665.018	-200.000	-0.020	-0.325
-664.003	-63.288	-0.361	-0.151
-662.989	-83.110	-0.114	0.037
-661.974	285.159	0.115	-0.210
-660.959	-159.635	-0.181	-0.010
-659.945	-77.276	0.066	0.023
-658.930	8.565	0.305	-0.233
-657.916	16.538	-0.160	-0.128
-656.901	-89.045	0.208	0.062
-655.886	800.000	-0.090	-0.270
-654.872	800.000	-0.044	-0.141
-653.857	-43.955	-0.120	-0.061
-652.843	-200.000	-0.076	0.349
-651.828	99.018	0.090	-0.105
-650.814	331.393	-0.100	-0.196
-649.799	800.000	-0.094	0.272
-648.784	134.655	-0.132	0.173
-647.770	389.599	0.131	-0.276
-646.755	800.000	-0.072	-0.242
-645.741	-85.848	0.183	-0.058
-644.726	76.847	0.071	0.076
-643.711	5.547	-0.111	0.083
-642.697	140.892	-0.098	0.131
-641.682	-114.458	-0.127	-0.025
-640.668	-19.778	0.353	-0.221
-639.653	800.000	-0.114	0.378
-638.638	-200.000	-0.030	-0.163
-637.624	-0.108	0.172	-0.124
-636.609	168.991	0.178	-0.257
-635.595	-188.038	-0.081	0.001
-634.580	590.444	-0.099	0.248
-633.565	800.000	-0.113	-0.391
-632.551	-149.916	-0.128	-0.010
-631.536	800.000	0.048	-0.178
-630.522	-31.287	0.060	0.034
-629.507	-68.340	0.161	0.063
-628.492	-200.000	0.052	0.304
-627.478	-200.000	0.013	-0.090
-626.463	-86.665	0.288	0.089
-625.449	686.774	-0.055	0.146
-624.434	98.628	-0.012	-0.014
-623.419	-200.000	-0.046	0.245
-622.405	800.000	0.028	-0.122
-621.390	-7.490	-0.264	-0.181
-620.376	460.763	-0.185	0.417
-619.361	-135.901	0.103	0.012
-618.346	-200.000	0.015	-0.115
-617.332	-116.616	-0.179	-0.033
-616.317	-200.000	-0.068	0.351
-615.303	233.698	0.123	-0.205
-614.288	-200.000	0.052	0.232
-613.273	399.594	-0.252	-0.533
-612.259	-25.956	-0.251	0.149
-611.244	-200.000	-0.030	-0.269
-610.230	-8.418	-0.340	-0.231
-609.215	-77.187	-0.050	0.018
-608.201	-113.644	0.220	0.043
-607.186	303.577	-0.053	0.099
-606.171	429.919	0.086	0.188
-605.157	-100.923	0.232	-0.058
-604.142	-40.785	-0.169	0.088
-603.128	-57.052	0.135	-0.060
-602.113	128.762	-0.134	-0.173
-601.098	-1.659	-0.242	-0.172
-600.084	-60.680	0.150	-0.064
-599.069	-16.846	-0.140	0.089
-598.055	120.256	-0.108	-0.135
-597.040	800.000	0.067	0.209
-596.025	-194.344	-0.176	0.001
-595.011	-174.839	-0.083	-0.002
-593.996	80.686	-0.041	-0.045
-592.982	-5.491	0.131	0.091
-591.967	-42.563	-0.198	0.102
-590.952	-200.000	0.007	0.108
-589.938	-200.000	-0.062	0.315
-588.923	-123.846	0.159	-0.025
-587.909	522.025	0.101	-0.239
-586.894	540.451	0.055	0.133
-585.879	800.000	-0.022	0.080
-584.865	-3.638	0.032	-0.022
-583.850	800.000	-0.089	0.362
-582.836	176.907	-0.091	0.134
-581.821	-119.790	-0.193	-0.034
-580.806	133.036	-0.063	0.082
-579.792	330.997	-0.264	-0.514
-578.777	-104.639	-0.346	0.081
-577.763	800.000	-0.027	0.100
-576.748	-200.000	-0.080	-0.406
-575.733	133.905	0.096	-0.125
-574.719	800.000	0.076	-0.322
-573.704	150.090	0.057	0.078
-572.690	-200.000	-0.042	-0.348
-571.675	221.660	0.192	-0.311
-570.661	-71.063	-0.289	0.110
-569.646	446.024	0.030	0.067
-568.631	-51.173	-0.111	0.053
-567.617	-87.599	-0.310	0.094
-566.602	-200.000	-0.011	-0.073
-565.588	134.876	0.272	-0.356
-564.573	-112.570	-0.158	-0.032
-563.558	-200.000	-0.073	0.368
-562.544	-200.000	-0.030	0.167
-561.529	-200.000	-0.051	0.323
-560.515	-37.065	-0.251	0.136
-559.500	28.536	0.113	0.097
-558.485	314.739	-0.101	-0.193
-557.471	115.943	-0.148	0.182
-556.456	-178.076	0.235	-0.006
-555.442	28.058	0.252	-0.214
-554.427	7.329	0.057	0.043
-553.412	147.090	0.282	-0.383
-552.398	-90.084	0.278	0.082
-551.383	-124.046	-0.133	0.021
-550.369	800.000	-0.068	-0.240
-549.354	-71.685	0.088	0.033
-548.339	-171.530	0.190	-0.006
-547.325	72.266	0.082	-0.087
-546.310	643.383	0.167	-0.429
-545.296	-110.109	-0.160	0.034
-544.281	-136.374	0.066	0.008
-543.266	-1.414	-0.174	0.124
-542.252	-84.294	0.169	-0.054
-541.237	255.529	-0.106	0.184
-540.223	-71.528	-0.154	-0.058
-539.208	800.000	-0.040	0.172
-538.193	-17.632	-0.123	0.078
-537.179	285.250	-0.063	-0.114
-536.164	-56.787	-0.107	-0.048
-535.150	-70.023	-0.178	0.068
-534.135	-150.869	0.367	0.028
-533.121	-73.700	-0.405	-0.149
-532.106	-89.974	0.067	-0.020
-531.091	-13.514	-0.492	0.322
-530.077	-153.627	-0.438	0.030
-529.062	-108.701	-0.083	0.018
-528.048	35.148	0.150	-0.133
-527.033	263.670	0.057	0.100
-526.018	-111.230	-0.291	-0.060
-525.004	39.619	0.219	-0.198
-523.989	-52.151	0.212	-0.099
-522.975	-137.464	-0.128	-0.015
-521.960	255.779	-0.043	-0.074
-520.945	-179.690	0.181	0.004
-519.931	800.000	-0.017	-0.067
-518.916	-68.244	0.136	-0.053
-517.902	-200.000	0.012	0.149
-516.887	12.483	-0.056	0.043
-515.872	-56.709	-0.165	-0.073
-514.858	-37.090	0.183	-0.099
-513.843	564.178	0.028	-0.068
-512.829	-200.000	-0.034	-0.217
-511.814	800.000	0.030	0.104
-510.799	-60.213	-0.050	0.022
-509.785	29.836	0.117	-0.101
-508.770	179.394	0.020	-0.030
-507.756	419.211	-0.131	0.284
-506.741	-95.107	-0.354	-0.096
-505.726	258.045	-0.094	0.162
-504.712	800.000	0.104	0.321
-503.697	-200.000	-0.011	-0.067
-502.683	158.797	0.075	0.105
-501.668	464.363	-0.117	0.264
-500.653	145.341	0.219	0.295
-499.639	82.389	-0.054	0.059
-498.624	-79.289	-0.191	0.065
-497.610	82.826	0.268	0.293
-496.595	-168.494	-0.090	-0.003
-495.581	-3.735	-0.106	0.074
-494.566	800.000	0.053	-0.150
-493.551	143.286	-0.192	-0.257
-492.537	209.408	0.153	-0.242
-491.522	-18.267	0.059	-0.037
-490.508	-73.786	-0.228	-0.084
-489.493	521.145	0.155	0.366
-488.478	111.790	-0.146	0.178
-487.464	186.772	-0.084	-0.126
-486.449	-76.353	0.227	-0.081
-485.435	336.215	-0.089	0.173
-484.420	800.000	0.110	-0.325
-483.405	170.990	0.097	-0.141
-482.391	800.000	-0.065	0.204
-481.376	-186.409	-0.091	-0.001
-480.362	162.051	-0.089	0.125
-479.347	-200.000	0.027	-0.127
-478.332	-68.640	0.162	0.063
-477.318	-200.000	0.005	-0.024
-476.303	282.328	0.049	-0.088
-475.289	-102.319	0.110	0.027
-474.274	800.000	-0.033	0.127
-473.259	800.000	-0.076	-0.233
-472.245	-200.000	0.005	-0.068
-471.230	-27.131	0.323	-0.189
-470.216	-8.002	-0.027	-0.018
-469.201	-105.353	0.316	0.072
-468.186	-26.084	0.366	0.216
-467.172	-144.755	0.351	-0.032
-466.157	-81.828	-0.209	0.069
-465.143	-50.185	0.057	0.027
-464.128	-43.642	0.291	0.147
-463.113	598.248	0.119	0.297
-462.099	319.141	0.162	-0.308
-461.084	-98.102	0.275	-0.071
-460.070	-72.425	-0.130	0.048
-459.055	-92.433	-0.140	-0.040
-458.040	-200.000	0.042	-0.193
-457.026	87.002	0.265	0.294
-456.011	800.000	0.127	-0.470
-454.997	167.674	-0.206	0.295
-453.982	800.000	0.045	-0.184
-452.968	337.089	0.050	-0.098
-451.953	-84.129	-0.355	-0.113
-450.938	-52.019	-0.184	-0.086
-449.924	-116.604	-0.310	0.057
-448.909	-200.000	0.043	-0.263
-447.895	-48.292	0.197	0.096
-446.880	800.000	-0.103	0.305
-445.865	800.000	-0.054	-0.165
-444.851	-83.661	-0.079	-0.026
-443.836	-200.000	0.001	-0.051
-442.822	-38.474	0.085	-0.045
-441.807	-88.960	0.121	-0.036
-440.792	-52.019	0.255	0.119
-439.778	-90.566	0.313	-0.091
-438.763	227.807	-0.261	-0.426
-437.749	-56.978	-0.035	-0.015
-436.734	-1.607	-0.012	0.008
-435.719	119.872	-0.090	0.112
-434.705	800.000	0.040	-0.116
-433.690	149.082	0.172	-0.234
-432.676	195.557	-0.181	0.276
-431.661	800.000	0.074	0.233
-430.646	-122.603	-0.145	0.024
-429.632	-200.000	0.008	-0.065
-428.617	-200.000	-0.030	-0.226
-427.603	503.963	-0.074	0.171
-426.588	-134.872	-0.046	-0.006
-425.573	-200.000	0.015	0.101
-424.559	126.643	-0.232	-0.295
-423.544	-142.971	-0.264	-0.026
-422.530	403.837	0.072	-0.152
-421.515	-200.000	-0.015	-0.098
-420.500	-154.192	-0.230	0.016
-419.486	800.000	0.060	-0.202
-418.471	257.629	0.091	0.157
-417.457	800.000	-0.052	0.196
-416.442	381.170	0.094	0.194
-415.428	-200.000	-0.054	0.263
-414.413	-200.000	-0.021	0.233
-413.398	-101.031	0.192	-0.047
-412.384	489.136	0.023	0.052
-411.369	122.155	-0.194	-0.243
-410.355	265.120	0.080	0.139
-409.340	722.635	-0.081	-0.216
-408.325	238.010	-0.079	0.131
-407.311	-13.369	0.107	0.070
-406.296	-200.000	-0.025	-0.241
-405.282	800.000	0.092	0.264
-404.267	-117.732	0.096	0.017
-403.252	800.000	-0.041	-0.176
-402.238	-200.000	0.024	0.178
-401.223	399.516	-0.067	0.140
-400.209	22.333	-0.096	0.079
-399.194	800.000	0.024	-0.074
-398.179	213.270	0.177	0.280
-397.165	-200.000	-0.043	0.195
-396.150	-69.273	-0.074	-0.029
-395.136	-151.060	0.126	-0.010
-394.121	800.000	0.013	-0.039
-393.106	-200.000	-0.003	0.091
-392.092	112.484	0.250	0.303
-391.077	102.103	0.403	0.472
-390.063	-131.128	-0.123	-0.016
-389.048	-92.897	-0.071	0.020
-388.033	147.976	0.009	-0.013
-387.019	-90.814	0.096	0.028
-386.004	336.138	-0.041	-0.079
-384.990	-57.042	-0.205	-0.091
-383.975	-22.588	0.125	-0.076
-382.960	135.135	-0.174	-0.227
-381.946	-1.383	0.329	-0.233
-380.931	100.936	-0.104	0.121
-379.917	-55.260	-0.379	-0.171
-378.902	-62.129	-0.097	0.041
-377.888	-12.747	-0.123	-0.080
-376.873	37.516	0.223	-0.199
-375.858	246.246	-0.037	0.062
-374.844	-200.000	-0.017	-0.374
-373.829	-200.000	-0.001	-0.294
-372.815	-79.005	0.288	0.098
-371.800	-86.049	-0.209	0.065
-370.785	-200.000	0.051	-0.368
-369.771	599.578	-0.027	-0.066
-368.756	103.464	-0.060	0.071
-367.742	90.852	0.106	-0.119
-366.727	382.111	-0.153	-0.314
-365.712	200.675	0.085	-0.130
-364.698	706.495	0.063	0.166
-363.683	130.162	-0.087	0.112
-362.669	800.000	-0.020	-0.080
-361.654	38.488	-0.281	-0.251
-360.639	5.994	0.111	0.082
-359.625	46.372	0.269	-0.250
-358.610	-200.000	0.011	0.209
-357.596	-68.108	-0.183	0.072
-356.581	-95.310	-0.140	0.038
-355.566	90.649	0.043	-0.048
-354.552	-200.000	0.009	-0.122
-353.537	800.000	-0.085	-0.307
-352.523	-74.510	0.084	-0.030
-351.508	-10.721	0.220	-0.146
-350.493	-200.000	-0.000	-0.061
-349.479	63.648	0.135	-0.136
-348.464	-81.891	-0.098	0.032
-347.450	279.969	0.061	-0.109
-346.435	-18.303	-0.287	-0.180
-345.420	188.028	-0.057	-0.085
-344.406	-138.766	-0.329	-0.036
-343.391	-200.000	0.031	-0.192
-342.377	-134.153	-0.084	-0.010
-341.362	-54.932	0.213	0.096
-340.348	14.425	-0.067	0.052
-339.333	-200.000	0.070	0.338
-338.318	131.148	0.037	0.048
-337.304	-142.995	0.035	0.003
-336.289	14.852	0.138	-0.108
-335.275	-158.289	-0.087	0.005
-334.260	-200.000	0.039	0.212
-333.245	243.385	0.125	0.209
-332.231	25.401	0.142	-0.118
-331.216	-52.327	0.120	-0.056
-330.202	-66.704	0.074	-0.029
-329.187	-94.291	-0.252	-0.069
-328.172	-116.518	-0.089	-0.017
-327.158	-176.741	-0.180	-0.005
-326.143	187.073	-0.140	-0.209
-325.129	-200.000	-0.120	-0.000
-324.114	-155.116	0.309	-0.020
-323.099	227.691	-0.143	-0.233
-322.085	-115.665	0.285	-0.053
-321.070	57.003	0.236	0.231
-320.056	-133.193	0.235	-0.030
-319.041	590.873	-0.092	-0.227
-318.026	-75.331	-0.071	-0.025
-317.012	-2.862	-0.310	0.216
-315.997	533.587	-0.074	0.175
-314.983	317.218	-0.094	0.179
-313.968	-58.249	0.254	-0.111
-312.953	130.573	0.209	0.267
-311.939	533.832	-0.049	0.116
-310.924	-116.804	-0.328	-0.060
-309.910	-200.000	-0.007	0.142
-308.895	-83.932	-0.160	0.051
-307.880	-82.328	0.378	0.123
-306.866	-8.033	0.213	0.144
-305.851	70.555	0.187	0.193
-304.837	-200.000	-0.026	-0.336
-303.822	-74.636	-0.202	0.073
-302.807	-200.000	-0.012	0.255
-301.793	-80.291	0.123	0.041
-300.778	-200.000	0.028	0.241
-299.764	-28.748	-0.148	0.085
-298.749	-10.916	0.249	-0.164
-297.735	-11.833	0.270	-0.177
-296.720	170.441	0.072	0.103
-295.705	-77.076	-0.363	-0.126
-294.691	-200.000	-0.007	-0.120
-293.676	-200.000	0.079	-0.497
-292.662	800.000	-0.034	-0.127
-291.647	800.000	-0.089	0.287
-290.632	88.063	-0.065	-0.072
-289.618	-200.000	0.031	-0.192
-288.603	-37.679	0.307	-0.163
-287.589	-28.633	-0.243	-0.140
-286.574	-139.167	-0.076	0.008
-285.559	11.846	-0.184	-0.141
-284.545	-98.555	0.170	0.043
-283.530	-200.000	0.166	0.000
-282.516	-84.155	0.166	-0.053
-281.501	800.000	0.012	0.040
-280.486	-200.000	0.016	-0.080
-279.472	21.227	0.211	-0.171
-278.457	-130.268	0.253	-0.034
-277.443	29.558	-0.144	-0.122
-276.428	13.749	-0.136	-0.106
-275.413	-161.770	0.133	0.007
-274.399	490.833	-0.114	0.260
-273.384	-200.000	0.012	0.322
-272.370	-20.036	0.092	0.057
-271.355	128.901	0.217	0.276
-270.340	-24.371	0.206	-0.122
-269.326	-200.000	0.082	-0.550
-268.311	-148.118	0.154	-0.013
-267.297	-200.000	-0.000	0.390
-266.282	537.334	-0.056	-0.132
-265.267	326.367	0.078	-0.149
-264.253	140.131	-0.107	-0.140
-263.238	4.706	0.098	-0.072
-262.224	-163.465	-0.166	0.008
-261.209	-174.083	-0.120	0.004
-260.195	278.998	-0.040	0.071
-259.180	-187.164	-0.167	-0.002
-258.165	800.000	-0.060	0.204
-257.151	800.000	0.100	0.407
-256.136	-200.000	-0.016	-0.082
-255.122	-137.870	0.115	0.013
-254.107	225.580	-0.190	0.307
-253.092	-200.000	-0.025	-0.156
-252.078	800.000	-0.119	-0.429
-251.063	257.018	0.146	-0.250
-250.049	800.000	0.104	0.291
-249.034	-200.000	-0.016	0.089
-248.019	-129.465	-0.404	0.056
-247.005	800.000	-0.040	0.171
-245.990	158.510	-0.192	0.265
-244.976	800.000	0.097	0.311
-243.961	-200.000	0.070	-0.308
-242.946	150.358	-0.232	0.315
-241.932	223.966	-0.084	0.135
-240.917	14.495	-0.290	-0.226
-239.903	8.473	-0.108	0.081
-238.888	75.641	0.160	-0.169
-237.873	-173.135	-0.295	-0.009
-236.859	173.798	-0.095	0.136
-235.844	-3.874	-0.250	0.173
-234.830	53.139	-0.216	-0.206
-233.815	-200.000	0.035	-0.238
-232.800	-60.950	-0.172	0.072
-231.786	-200.000	-0.005	-0.194
-230.771	-4.421	0.198	-0.137
-229.757	12.261	-0.190	-0.146
-228.742	68.910	0.140	-0.144
-227.727	-200.000	-0.025	-0.192
-226.713	25.045	0.306	-0.253
-225.698	-104.125	-0.116	0.027
-224.684	-146.012	-0.256	-0.023
-223.669	32.943	-0.183	0.158
-222.655	-157.420	0.407	0.024
-221.640	384.014	0.170	0.349
-220.625	345.473	0.010	0.020
-219.611	-138.123	0.251	0.028
-218.596	63.583	-0.084	-0.084
-217.582	24.493	-0.131	0.108
-216.567	-99.131	0.173	0.044
-215.552	24.064	-0.058	0.048
-214.538	-200.000	0.023	0.112
-213.523	13.327	0.375	0.289
-212.509	132.690	0.079	-0.102
-211.494	733.751	0.053	-0.140
-210.479	800.000	-0.015	0.060
-209.465	72.178	0.321	0.333
-208.450	-200.000	-0.006	-0.072
-207.436	68.329	-0.179	-0.182
-206.421	454.113	-0.075	-0.165
-205.406	-13.085	-0.080	0.052
-204.392	498.509	-0.057	0.130
-203.377	248.481	0.151	0.254
-202.363	-87.440	-0.273	-0.082
-201.348	179.115	0.078	0.114
-200.333	-113.404	0.078	0.015
-199.319	-35.097	-0.179	-0.097
-198.304	362.927	0.090	-0.179
-197.290	242.950	-0.055	-0.092
-196.275	-200.000	0.008	0.171
-195.260	-18.432	0.147	-0.092
-194.246	-200.000	-0.004	-0.126
-193.231	-200.000	0.015	0.078
-192.217	-90.178	-0.030	0.009
-191.202	-50.025	0.503	-0.237
-190.187	2.306	-0.245	-0.176
-189.173	366.747	-0.157	0.315
-188.158	800.000	-0.107	0.346
-187.144	-200.000	0.009	-0.105
-186.129	60.715	-0.042	-0.042
-185.114	800.000	-0.076	0.249
-184.100	191.180	0.119	0.179
-183.085	-156.790	0.276	-0.017
-182.071	102.485	-0.186	0.216
-181.056	130.797	-0.057	-0.072
-180.042	18.140	0.169	-0.134
-179.027	800.000	-0.089	0.272
-178.012	62.395	0.228	0.226
-176.998	-139.745	0.269	-0.028
-175.983	-131.781	0.202	-0.026
-174.969	-200.000	0.059	0.433
-173.954	-33.717	0.042	0.023
-172.939	-200.000	0.012	-0.079
-171.925	-108.120	-0.326	0.070
-170.910	58.224	0.192	0.187
-169.896	41.171	0.163	-0.147
-168.881	-53.873	-0.178	0.081
-167.866	-97.174	0.175	0.045
-166.852	152.241	0.197	0.268
-165.837	141.286	0.060	-0.079
-164.823	-71.036	-0.036	-0.013
-163.808	-64.215	-0.120	0.048
-162.793	128.680	0.134	0.170
-161.779	-61.508	0.129	-0.054
-160.764	137.960	0.069	-0.089
-159.750	-30.673	-0.160	-0.090
-158.735	255.408	-0.018	-0.030
-157.720	-20.455	-0.081	0.050
-156.706	-200.000	0.040	0.206
-155.691	-200.000	0.007	0.212
-154.677	53.578	0.259	-0.247
-153.662	106.992	-0.053	-0.062
-152.647	-200.000	0.039	0.183
-151.633	158.324	0.119	0.164
-150.618	25.839	-0.131	-0.108
-149.604	-93.908	0.206	0.056
-148.589	182.035	-0.101	0.148
-147.574	-200.000	0.008	-0.135
-146.560	-32.903	0.114	0.063
-145.545	438.836	-0.132	0.287
-144.531	264.856	0.048	-0.083
-143.516	211.579	-0.133	0.208
-142.502	800.000	0.036	0.157
-141.487	800.000	-0.029	0.090
-140.472	-66.735	0.357	0.140
-139.458	51.641	0.097	0.091
-138.443	246.108	0.026	0.044
-137.429	-200.000	-0.005	0.649
-136.414	280.871	0.099	0.177
-135.399	-61.586	0.356	-0.149
-134.385	512.788	-0.131	-0.304
-133.370	-108.314	0.201	0.043
-132.356	42.655	-0.248	-0.224
-131.341	95.092	0.195	-0.220
-130.326	-94.643	0.336	0.091
-129.312	-21.340	-0.102	0.062
-128.297	-57.441	-0.166	-0.073
-127.283	277.109	0.075	-0.133
-126.268	3.241	-0.088	-0.063
-125.253	123.973	0.121	0.151
-124.239	-8.593	0.078	0.052
-123.224	-2.681	-0.184	-0.128
-122.210	-81.153	-0.480	0.157
-121.195	74.455	-0.138	0.144
-120.180	457.316	0.157	0.346
-119.166	-200.000	-0.006	0.188
-118.151	-64.823	-0.194	0.078
-117.137	36.472	-0.061	-0.053
-116.122	272.397	-0.058	0.102
-115.107	-192.866	-0.483	-0.004
-114.093	63.625	0.075	-0.075
-113.078	66.986	-0.111	-0.112
-112.064	-200.000	-0.044	0.269
-111.049	340.940	-0.116	0.225
-110.034	-168.868	0.310	-0.012
-109.020	-124.954	-0.237	0.036
-108.005	-96.397	-0.273	-0.072
-106.991	-59.652	-0.342	-0.145
-105.976	800.000	-0.032	-0.105
-104.962	-200.000	-0.007	0.155
-103.947	23.512	-0.296	0.242
-102.932	-74.209	0.066	-0.024
-101.918	-131.838	0.095	-0.012
-100.903	154.924	-0.030	0.041
-99.889	-68.367	0.030	-0.012
-98.874	-200.000	0.081	0.356
-97.859	-200.000	-0.039	0.188
-96.845	-59.290	-0.248	0.106
-95.830	254.141	0.149	-0.253
-94.816	154.206	-0.122	-0.166
-93.801	266.494	0.162	-0.281
-92.786	-13.085	-0.200	-0.129
-91.772	37.429	-0.132	-0.116
-90.757	-7.754	-0.171	-0.115
-89.743	120.558	-0.091	0.112
-88.728	-139.246	0.101	0.011
-87.713	1.961	-0.093	0.067
-86.699	-45.104	-0.238	-0.118
-85.684	189.232	0.270	-0.401
-84.670	800.000	-0.074	-0.227
-83.655	177.573	0.071	-0.103
-82.640	800.000	-0.064	-0.188
-81.626	-164.795	-0.136	-0.006
-80.611	15.788	0.186	0.145
-79.597	337.621	-0.020	-0.038
-78.582	-74.773	0.265	-0.094
-77.567	800.000	0.059	-0.229
-76.553	-135.448	0.298	0.035
-75.538	-13.958	0.182	0.116
-74.524	-200.000	-0.037	0.272
-73.509	3.440	0.096	0.069
-72.494	21.873	0.192	0.155
-71.480	-200.000	-0.033	-0.249
-70.465	51.812	-0.139	0.131
-69.451	151.839	-0.083	-0.112
-68.436	-200.000	0.002	-0.038
-67.422	34.509	0.125	0.108
-66.407	-200.000	0.228	-0.001
-65.392	-161.540	-0.272	0.014
-64.378	354.397	0.065	0.127
-63.363	-67.857	-0.299	-0.116
-62.349	-143.470	-0.180	0.017
-61.334	-7.603	-1.112	-0.745
-60.319	181.829	0.185	0.270
-59.305	333.123	-0.406	-0.777
-58.290	434.673	0.557	1.198
-57.276	800.000	0.467	1.489
-56.261	-200.000	97.900	583.183
-55.246	644.391	1396.129	3526.545
-54.232	185.719	2608.327	3837.045
-53.217	122.530	2201.927	2725.332
-52.203	45.559	1734.930	1586.153
-51.188	38.044	1545.320	1360.615
-50.173	35.648	1517.376	1319.531
-49.159	54.386	1568.706	1495.465
-48.144	58.253	1588.180	1540.968
-47.130	38.351	1542.889	1360.394
-46.115	35.047	1527.385	1323.866
-45.100	34.932	1523.786	1319.905
-44.086	34.985	1521.555	1318.282
-43.071	34.856	1520.289	1316.244
-42.057	34.822	1518.258	1314.201
-41.042	34.844	1516.956	1313.176
-40.027	34.898	1515.396	1312.141
-39.013	34.921	1514.120	1311.143
-37.998	34.832	1513.112	1309.607
-36.984	34.952	1511.510	1308.994
-35.969	34.938	1510.069	1307.598
-34.954	34.919	1509.006	1306.490
-33.940	34.795	1508.156	1304.860
-32.925	34.788	1506.397	1303.236
-31.911	34.979	1504.901	1303.191
-30.896	34.981	1503.492	1301.930
-29.881	34.960	1502.228	1300.643
-28.867	34.970	1500.827	1299.450
-27.852	34.891	1499.378	1297.609
-26.838	34.841	1498.534	1296.488
-25.823	34.900	1496.280	1294.883
-24.809	34.911	1494.861	1293.677
-23.794	34.892	1493.723	1292.513
-22.779	34.870	1492.661	1291.391
-21.765	34.961	1491.231	1290.719
-20.750	34.977	1489.984	1289.698
-19.736	34.896	1489.417	1288.609
-18.721	34.905	1487.928	1287.328
-17.706	34.901	1486.873	1286.343
-16.692	34.931	1485.677	1285.459
-15.677	34.845	1484.961	1284.210
-14.663	34.868	1483.812	1283.316
-13.648	34.797	1482.624	1281.760
-12.633	34.789	1481.850	1280.992
-11.619	34.853	1481.054	1280.681
-10.604	34.770	1480.300	1279.423
-9.590	34.769	1479.623	1278.777
-8.575	34.851	1478.505	1278.310
-7.560	34.770	1478.019	1277.298
-6.546	34.807	1476.876	1276.507
-5.531	34.965	1475.204	1276.065
-4.517	34.807	1474.916	1274.709
-3.502	34.902	1473.957	1274.465
-2.487	34.787	1472.869	1272.709
-1.473	34.796	1471.616	1271.634
-0.458	34.861	1470.120	1270.725
0.556	36.835	1460.786	1259.306
1.571	33.146	1433.190	1211.818
2.586	28.605	1368.417	1129.080
3.600	26.330	1283.729	1045.963
4.615	24.195	1236.264	995.287
5.629	20.596	1179.993	930.677
6.644	12.585	1095.318	823.856
7.659	6.041	1053.943	761.048
8.673	4.971	1048.498	751.892
9.688	4.683	1045.142	748.032
10.702	4.620	1043.574	746.542
11.717	4.757	1042.319	746.236
12.731	7.760	1045.300	762.723
13.746	15.850	1056.545	809.939
14.761	21.624	1063.790	843.310
15.775	22.161	1063.002	845.196
16.790	21.351	1061.659	840.161
17.804	20.244	1059.379	832.970
18.819	19.416	1057.676	827.587
19.834	19.040	1055.766	824.220
20.848	18.778	1054.847	822.173
21.863	18.569	1054.613	820.917
22.877	18.538	1054.175	820.355
23.892	18.430	1052.654	818.583
24.907	18.264	1052.158	817.336
25.921	18.149	1051.600	816.280
26.936	18.179	1050.650	815.614
27.950	18.354	1049.568	815.532
28.965	18.132	1048.764	813.780
29.980	18.308	1047.852	813.839
30.994	18.539	1046.143	813.533
32.009	18.488	1045.834	812.981
33.023	18.622	1044.953	812.858
34.038	18.685	1044.301	812.576
35.053	18.479	1043.312	810.761
36.067	18.459	1042.155	809.698
37.082	18.410	1041.481	808.868
38.096	18.391	1040.796	808.177
39.111	18.535	1040.112	808.254
40.126	18.579	1039.300	807.758
41.140	18.441	1038.324	806.277
42.155	18.199	1036.773	803.864
43.169	18.113	1035.719	802.575
44.184	18.017	1034.329	800.977
45.199	17.840	1034.057	799.865
46.213	18.033	1032.420	799.430
47.228	18.094	1031.658	799.057
48.242	18.272	1030.949	799.266
49.257	18.466	1030.053	799.406
50.271	18.432	1029.174	798.496
51.286	18.514	1028.319	798.142
52.301	18.383	1027.813	797.068
53.315	18.499	1026.759	796.720
54.330	18.333	1025.949	795.248
55.344	18.175	1025.027	793.733
56.359	18.099	1023.864	792.410
57.374	18.108	1022.722	791.495
58.388	18.119	1022.526	791.325
59.403	18.041	1021.501	790.104
60.417	17.980	1021.025	789.382
61.432	17.921	1020.192	788.395
62.447	17.968	1019.227	787.797
63.461	17.935	1017.822	786.488
64.476	17.944	1017.156	785.946
65.490	17.924	1016.111	784.979
66.505	17.889	1015.126	783.988
67.520	17.863	1014.938	783.652
68.534	17.959	1013.919	783.239
69.549	17.819	1013.544	782.236
70.563	17.857	1012.469	781.511
71.578	17.700	1012.262	780.562
72.593	17.702	1010.990	779.522
73.607	17.638	1010.083	778.464
74.622	17.616	1008.795	777.301
75.636	17.546	1008.246	776.491
76.651	17.589	1007.612	776.127
77.666	17.799	1006.429	776.105
78.680	17.742	1006.217	775.613
79.695	17.693	1005.748	774.961
80.709	17.659	1005.128	774.261
81.724	17.942	1003.942	774.559
82.739	18.000	1003.448	774.376
83.753	18.026	1002.618	773.784
84.768	18.203	1002.375	774.327
85.782	18.546	1001.646	775.248
86.797	18.733	1000.961	775.492
87.812	18.670	1000.023	774.413
88.826	18.402	999.109	772.430
89.841	18.394	998.130	771.570
90.855	18.550	997.070	771.384
91.870	18.437	997.056	770.796
92.884	18.722	996.025	771.211
93.899	18.652	994.756	769.844
94.914	18.572	994.751	769.417
95.928	18.638	994.120	769.156
96.943	18.758	992.920	768.694
97.957	18.559	992.226	767.197
98.972	18.516	991.313	766.231
99.987	18.397	990.655	765.125
101.001	18.621	989.915	765.484
102.016	18.641	989.117	764.889
103.030	18.511	988.425	763.706
104.045	18.501	987.165	762.622
105.060	18.590	986.407	762.367
106.074	18.344	985.639	760.612
107.089	18.250	984.264	759.065
108.103	18.081	983.219	757.442
109.118	17.757	982.348	755.270
110.133	17.945	981.313	755.240
111.147	17.942	980.347	754.417
112.162	17.822	979.442	753.123
113.176	18.026	978.179	752.987
114.191	18.037	978.055	752.870
115.206	18.172	977.321	752.835
116.220	18.055	976.688	751.763
117.235	18.066	975.467	750.809
118.249	17.910	974.687	749.455
119.264	18.076	973.615	749.292
120.279	18.000	972.853	748.310
121.293	17.963	971.816	747.281
122.308	17.840	971.665	746.563
123.322	17.749	970.523	745.223
124.337	17.619	969.760	744.003
125.352	17.642	968.546	743.104
126.366	17.734	967.151	742.369
127.381	17.592	966.624	741.280
128.395	17.644	965.315	740.436
129.410	17.704	964.584	740.071
130.424	17.707	963.806	739.421
131.439	17.900	963.124	739.670
132.454	17.980	962.624	739.566
133.468	18.029	961.557	738.893
134.483	18.075	961.080	738.659
135.497	18.133	960.503	738.401
136.512	18.020	959.886	737.376
137.527	18.111	958.871	736.921
138.541	18.139	958.332	736.562
139.556	18.185	957.482	736.045
140.570	18.164	956.573	735.187
141.585	18.245	955.649	734.762
142.600	18.320	955.643	735.013
143.614	18.406	955.102	734.901
144.629	18.579	953.870	734.629
145.643	18.536	953.366	733.994
146.658	18.538	952.604	733.349
147.673	18.441	951.346	731.903
148.687	18.319	950.245	730.468
149.702	18.263	949.377	729.497
150.716	18.103	948.523	728.095
151.731	18.125	947.548	727.377
152.746	18.076	947.115	726.773
153.760	18.227	946.409	726.808
154.775	18.168	945.828	726.047
155.789	18.385	944.963	726.240
156.804	18.284	944.252	725.201
157.819	18.434	943.361	725.089
158.833	18.483	942.336	724.440
159.848	18.370	942.660	724.150
160.862	18.515	941.806	724.043
161.877	18.567	940.640	723.299
162.892	18.440	939.659	721.945
163.906	18.187	938.795	720.155
164.921	18.143	937.666	719.040
165.935	18.093	936.988	718.245
166.950	18.314	935.755	718.165
167.964	18.300	935.099	717.538
168.979	18.352	933.721	716.636
169.994	18.187	933.104	715.408
171.008	18.178	932.158	714.584
172.023	18.294	931.226	714.290
173.037	18.405	930.601	714.207
174.052	18.557	930.034	714.343
175.067	18.586	929.291	713.831
176.081	18.376	928.392	712.203
177.096	18.137	927.669	710.592
178.110	18.061	926.773	709.528
179.125	18.118	926.232	709.288
180.140	18.132	925.839	708.981
181.154	18.349	924.549	708.831
182.169	18.376	924.016	708.472
183.183	18.498	923.869	708.799
184.198	18.613	923.169	708.674
185.213	18.656	922.077	707.949
186.227	18.506	921.942	707.164
187.242	18.621	921.313	707.097
188.256	18.757	920.890	707.267
189.271	18.795	919.993	706.672
190.286	18.881	919.162	706.324
191.300	18.618	918.288	704.510
192.315	18.201	917.103	701.830
193.329	17.910	916.357	700.003
194.344	18.116	915.653	700.247
195.359	18.175	915.561	700.359
196.373	18.317	915.134	700.552
197.388	18.629	914.036	700.920
198.402	18.559	914.340	700.806
199.417	18.686	913.838	700.880
200.432	18.957	913.347	701.544
201.446	19.017	912.590	701.146
202.461	19.001	912.562	700.998
203.475	19.210	911.991	701.350
204.490	19.107	911.373	700.390
205.504	18.871	910.709	698.859
206.519	18.834	909.721	697.889
207.534	18.638	909.103	696.558
208.548	18.712	907.816	695.811
209.563	18.696	907.512	695.450
210.577	18.708	906.870	694.948
211.592	18.657	906.426	694.339
212.607	18.934	905.877	694.975
213.621	19.001	905.656	695.016
214.636	19.033	904.557	694.241
215.650	19.069	903.468	693.488
216.665	18.932	903.608	692.984
217.680	18.938	903.164	692.604
218.694	19.117	902.425	692.696
219.709	19.291	902.253	693.202
220.723	19.025	901.700	691.647
221.738	19.032	901.075	691.137
222.753	18.998	900.076	690.170
223.767	19.125	899.114	689.883
224.782	19.165	898.407	689.438
225.796	19.292	898.007	689.577
226.811	19.191	897.452	688.687
227.826	19.145	896.634	687.817
228.840	19.172	895.674	687.127
229.855	19.045	895.049	686.078
230.869	18.953	894.690	685.376
231.884	19.055	893.947	685.152
232.899	19.066	892.882	684.320
233.913	18.996	892.032	683.330
234.928	18.960	891.431	682.666
235.942	18.776	890.951	681.508
236.957	18.814	890.061	680.918
237.972	18.718	889.737	680.228
238.986	18.880	888.368	679.762
240.001	18.961	888.195	679.889
241.015	18.856	887.602	678.962
242.030	18.861	886.811	678.315
243.045	19.117	886.339	678.904
244.059	19.122	885.782	678.437
245.074	19.162	885.318	678.182
246.088	19.101	884.543	677.285
247.103	19.170	884.380	677.373
248.117	19.153	883.855	676.845
249.132	19.461	883.128	677.436
250.147	19.594	883.089	677.870
251.161	19.861	882.240	678.204
252.176	19.879	881.940	677.985
253.190	19.866	881.667	677.662
254.205	19.935	881.025	677.380
255.220	20.061	880.090	677.095
256.234	20.046	879.433	676.471
257.249	20.071	878.743	675.976
258.263	20.062	878.397	675.614
259.278	19.919	877.809	674.547
260.293	19.825	877.705	674.040
261.307	19.931	876.389	673.382
262.322	20.019	876.136	673.471
263.336	20.043	875.802	673.249
264.351	20.136	874.937	672.885
265.366	20.070	874.350	672.115
266.380	20.238	873.473	672.036
267.395	20.251	872.883	671.573
268.409	20.031	872.135	670.085
269.424	19.880	871.501	668.957
270.439	19.905	870.719	668.393
271.453	19.891	870.139	667.836
272.468	19.817	869.312	666.856
273.482	19.808	868.274	665.966
274.497	19.744	868.317	665.695
275.512	19.769	867.258	664.917
276.526	19.989	866.639	665.232
277.541	19.854	866.171	664.294
278.555	19.925	865.299	663.839
279.570	20.032	865.036	663.988
280.585	20.210	864.389	664.116
281.599	20.103	864.487	663.721
282.614	20.112	863.624	663.034
283.628	19.877	862.825	661.465
284.643	19.923	862.280	661.163
285.657	19.976	861.438	660.663
286.672	20.017	860.757	660.238
287.687	20.016	860.547	660.014
288.701	20.078	860.563	660.202
289.716	20.020	859.838	659.370
290.730	19.995	859.106	658.652
291.745	20.112	858.069	658.244
292.760	20.074	857.844	657.869
293.774	20.107	857.065	657.339
294.789	20.249	856.510	657.392
295.803	20.259	856.150	657.095
296.818	20.144	855.288	655.944
297.833	20.121	854.591	655.264
298.847	20.084	853.900	654.537
299.862	20.241	853.193	654.528
300.876	20.202	852.377	653.697
301.891	20.155	852.286	653.391
302.906	20.310	851.861	653.593
303.920	20.545	850.559	653.418
304.935	20.543	850.354	653.195
305.949	20.638	850.313	653.462
306.964	20.523	849.373	652.252
307.979	20.494	848.472	651.394
308.993	20.442	848.003	650.783
310.008	20.601	847.534	650.958
311.022	20.723	846.724	650.736
312.037	20.418	846.566	649.417
313.052	20.377	846.131	648.872
314.066	20.344	845.184	647.963
315.081	20.251	844.180	646.790
316.095	20.119	843.999	646.102
317.110	20.274	843.352	646.128
318.125	20.363	842.537	645.776
319.139	20.173	842.059	644.646
320.154	20.205	842.005	644.668
321.168	20.223	841.567	644.341
322.183	20.394	840.406	644.031
323.197	20.350	840.406	643.809
324.212	20.485	839.638	643.667
325.227	20.377	839.481	643.088
326.241	20.254	839.074	642.265
327.256	20.215	838.216	641.407
328.270	20.413	837.393	641.451
329.285	20.346	837.189	640.992
330.300	20.430	836.153	640.450
331.314	20.357	835.709	639.784
332.329	20.273	835.332	639.132
333.343	20.573	834.410	639.470
334.358	20.572	834.235	639.278
335.373	20.654	833.686	639.103
336.387	20.653	833.333	638.770
337.402	20.757	832.617	638.546
338.416	20.781	832.151	638.220
339.431	20.666	832.377	637.916
340.446	20.930	831.382	638.065
341.460	21.014	831.056	638.064
342.475	21.081	830.461	637.797
343.489	21.148	829.912	637.563
344.504	21.043	829.331	636.675
345.519	21.203	829.069	637.001
346.533	21.260	828.162	636.456
347.548	21.334	827.498	636.161
348.562	21.124	826.838	634.831
349.577	20.904	826.272	633.542
350.592	20.757	825.657	632.480
351.606	20.633	825.262	631.670
352.621	20.527	824.914	630.967
353.635	20.780	824.332	631.383
354.650	20.804	823.747	630.965
355.665	20.918	823.752	631.325
356.679	20.938	823.217	630.933
357.694	21.033	822.743	630.857
358.708	21.007	822.041	630.170
359.723	21.102	821.242	629.845
360.738	20.903	821.077	628.941
361.752	21.005	820.022	628.447
362.767	21.095	819.939	628.650
363.781	21.098	820.025	628.674
364.796	21.301	819.582	629.007
365.810	21.294	819.163	628.606
366.825	21.490	818.773	628.954
367.840	21.453	818.470	628.533
368.854	21.552	817.838	628.348
369.869	21.413	817.440	627.487
370.883	21.338	816.708	626.602
371.898	21.315	816.081	625.983
372.913	21.344	815.809	625.822
373.927	21.333	815.584	625.557
374.942	21.473	814.666	625.297
375.956	21.363	813.902	624.263
376.971	21.482	813.025	623.961
377.986	21.729	812.573	624.439
379.000	21.580	812.666	623.922
380.015	21.731	811.569	623.561
381.029	21.747	811.452	623.475
382.044	21.663	810.560	622.436
383.059	21.651	810.113	621.995
384.073	21.698	809.582	621.700
385.088	21.653	808.980	621.020
386.102	21.412	808.528	619.766
387.117	21.368	807.623	618.861
388.132	21.333	807.098	618.278
389.146	21.260	807.092	617.961
390.161	21.440	806.631	618.190
391.175	21.662	805.998	618.436
392.190	21.711	805.804	618.405
393.205	21.630	805.478	617.813
394.219	21.416	804.944	616.595
395.234	21.451	804.310	616.177
396.248	21.395	804.072	615.745
397.263	21.272	803.350	614.706
398.278	21.394	802.477	614.410
399.292	21.293	802.124	613.732
400.307	21.207	801.772	613.106
401.321	21.194	801.546	612.834
402.336	21.320	801.197	612.954
403.350	21.224	800.947	612.370
404.365	21.459	800.250	612.606
405.380	21.572	800.195	612.908
406.394	21.676	799.924	613.008
407.409	21.853	799.057	612.908
408.423	22.004	798.545	612.990
409.438	21.909	798.022	612.203
410.453	21.968	798.065	612.387
411.467	22.015	797.601	612.141
412.482	22.126	796.979	611.997
413.496	22.192	796.442	611.758
414.511	22.223	796.394	611.777
415.526	22.233	796.063	611.503
416.540	22.160	795.250	610.571
417.555	21.990	795.087	609.800
418.569	22.077	794.051	609.254
419.584	22.118	793.920	609.241
420.599	22.138	793.665	609.062
421.613	159.251	1368.605	1789.307
422.628	138.025	1452.379	1789.454
