DTS Sentinel unit serial number:	SN413079Multiplexer serial number:	ORYXHardware model number:	OX4-SRSoftware version number:	ORYX F/W v4.00 Oryx Data Collector v3.7.2.0data status	okinstallation	princeton_trtdifferential loss correction	single-endedforward channel	channel 3reverse channel	N/Adate	2019/09/15time	16:16:35forward acquisition time	60.00reverse acquisition time	0.00gamma	496.2192k internal	0.2288k external	0.2288temperature offset calibration	0.9930default loss term (dB/km)	0.3790temperature slope calibration	1.0000multiplexer offset coefficient	1.0000multiplexer slope coefficient	1.0000fibre end	0.00T internal ref (°C)	43.45T ext. ref 1 (°C)	5.45T ext. ref 2 (°C)	40.17length (m)	temperature (°C)	Stokes	anti-Stokes-747.200	-87.367	-0.247	0.077
-746.185	800.000	0.080	0.314
-745.171	-124.302	0.089	0.014
-744.156	300.558	0.166	0.313
-743.142	-200.000	0.035	-0.383
-742.127	314.074	-0.021	0.041
-741.112	800.000	0.026	-0.104
-740.098	-200.000	-0.043	0.378
-739.083	-97.137	0.162	-0.043
-738.069	-81.750	-0.090	0.030
-737.054	-32.688	-0.018	-0.010
-736.039	-51.618	-0.093	0.044
-735.025	-165.825	-0.075	0.003
-734.010	64.598	-0.112	0.116
-732.996	-200.000	-0.010	-0.072
-731.981	167.586	-0.051	0.074
-730.966	-95.231	-0.193	-0.053
-729.952	-126.817	-0.092	-0.014
-728.937	-200.000	0.204	0.000
-727.923	800.000	0.033	-0.117
-726.908	96.154	0.145	-0.170
-725.894	165.749	-0.114	-0.166
-724.879	-125.440	0.192	-0.030
-723.864	-75.243	0.219	0.080
-722.850	42.812	-0.041	-0.038
-721.835	-93.196	-0.273	-0.078
-720.821	-4.356	-0.202	-0.143
-719.806	263.859	0.014	-0.025
-718.791	65.974	-0.140	-0.145
-717.777	-11.794	0.142	0.096
-716.762	170.557	-0.115	-0.168
-715.748	7.411	-0.082	-0.063
-714.733	-200.000	0.028	-0.435
-713.718	-97.830	0.255	0.067
-712.704	50.689	-0.046	0.045
-711.689	-62.320	-0.363	0.155
-710.675	-106.501	0.389	-0.089
-709.660	-200.000	0.036	0.244
-708.645	-66.964	0.229	-0.093
-707.631	192.652	0.067	0.104
-706.616	-41.243	0.253	-0.134
-705.602	-95.902	0.389	0.106
-704.587	-79.024	0.137	-0.048
-703.572	-100.375	0.106	0.027
-702.558	-124.598	-0.392	-0.062
-701.543	326.595	-0.108	-0.213
-700.529	-85.050	0.130	-0.042
-699.514	-200.000	-0.032	-0.275
-698.499	67.390	0.196	-0.205
-697.485	-75.605	0.168	-0.061
-696.470	800.000	-0.048	-0.139
-695.456	513.662	0.124	0.296
-694.441	593.636	0.020	-0.051
-693.426	368.842	-0.070	0.145
-692.412	96.393	0.280	-0.328
-691.397	322.219	0.134	-0.260
-690.383	245.725	-0.095	0.163
-689.368	-200.000	-0.033	0.460
-688.354	-41.883	-0.113	-0.059
-687.339	-60.695	0.207	0.090
-686.324	-122.063	0.204	-0.034
-685.310	14.170	-0.263	-0.210
-684.295	251.481	0.035	-0.060
-683.281	28.230	-0.112	0.097
-682.266	-200.000	0.030	-0.198
-681.251	800.000	-0.036	-0.150
-680.237	0.867	0.165	0.121
-679.222	-135.635	0.214	0.026
-678.208	-200.000	-0.002	0.032
-677.193	800.000	-0.016	0.069
-676.178	-147.857	0.214	0.018
-675.164	223.308	-0.031	-0.051
-674.149	159.092	-0.153	0.217
-673.135	-161.876	-0.250	0.013
-672.120	800.000	0.060	0.223
-671.105	-200.000	0.037	-0.247
-670.091	-159.165	-0.284	-0.016
-669.076	-44.074	-0.217	-0.111
-668.062	-200.000	-0.012	0.113
-667.047	-200.000	-0.024	0.351
-666.032	-52.831	0.207	0.097
-665.018	782.470	-0.063	-0.177
-664.003	143.404	-0.061	0.082
-662.989	662.931	0.060	0.159
-661.974	-200.000	0.018	0.167
-660.959	800.000	0.109	-0.343
-659.945	62.821	0.183	-0.187
-658.930	-200.000	-0.024	-0.233
-657.916	-136.083	0.276	0.033
-656.901	235.158	0.154	-0.260
-655.886	-113.729	0.417	-0.083
-654.872	-97.560	-0.130	0.034
-653.857	451.113	-0.131	-0.296
-652.843	-200.000	0.008	0.111
-651.828	-140.816	0.091	0.010
-650.814	427.779	0.051	-0.112
-649.799	-7.826	-0.072	0.050
-648.784	637.182	-0.066	0.172
-647.770	-200.000	0.052	0.263
-646.755	1.824	0.167	0.123
-645.741	-83.275	0.290	0.095
-644.726	335.355	-0.152	-0.301
-643.711	-200.000	0.003	-0.359
-642.697	-27.084	-0.469	-0.280
-641.682	65.118	0.118	0.122
-640.668	-135.517	0.206	-0.025
-639.653	-200.000	0.003	-0.287
-638.638	258.890	0.090	-0.158
-637.624	731.276	-0.067	0.182
-636.609	76.251	0.056	0.061
-635.595	-77.215	-0.205	0.073
-634.580	-92.172	-0.256	-0.074
-633.565	-200.000	-0.003	0.109
-632.551	-103.858	-0.271	0.065
-631.536	-152.284	-0.297	-0.022
-630.522	65.533	-0.073	-0.076
-629.507	47.248	-0.052	0.050
-628.492	-97.440	-0.188	0.050
-627.478	800.000	0.069	0.233
-626.463	-105.426	-0.309	-0.072
-625.449	-56.696	0.116	-0.053
-624.434	-16.283	0.205	0.133
-623.419	-200.000	0.079	0.431
-622.405	499.101	-0.123	0.289
-621.390	-121.985	-0.388	-0.065
-620.376	116.874	0.168	-0.211
-619.361	567.400	0.119	-0.296
-618.346	-12.932	-0.101	-0.067
-617.332	131.962	0.131	-0.172
-616.317	-200.000	-0.032	0.195
-615.303	62.679	-0.072	-0.073
-614.288	-81.271	-0.105	0.035
-613.273	-200.000	-0.056	-0.271
-612.259	800.000	0.048	0.211
-611.244	482.382	0.050	-0.116
-610.230	-200.000	0.042	0.209
-609.215	-120.148	-0.297	-0.052
-608.201	323.712	-0.051	-0.100
-607.186	34.934	0.126	0.113
-606.171	-91.622	-0.371	0.108
-605.157	800.000	0.093	-0.286
-604.142	0.104	-0.133	-0.096
-603.128	-93.077	-0.329	-0.093
-602.113	-83.847	0.139	-0.045
-601.098	-55.527	0.458	-0.209
-600.084	-119.508	-0.478	0.085
-599.069	-79.343	-0.093	0.032
-598.055	-200.000	0.013	-0.170
-597.040	800.000	-0.013	0.052
-596.025	-117.489	-0.106	-0.020
-595.011	800.000	0.038	0.141
-593.996	68.792	0.028	-0.030
-592.982	-200.000	0.007	0.147
-591.967	-70.599	0.105	0.040
-590.952	58.786	-0.158	0.158
-589.938	-157.722	-0.260	0.016
-588.923	-152.983	0.129	0.009
-587.909	-79.493	0.355	-0.122
-586.894	-110.118	0.113	-0.024
-585.879	800.000	0.013	-0.051
-584.865	-118.485	-0.244	-0.044
-583.850	55.106	0.183	-0.180
-582.836	-200.000	-0.027	-0.351
-581.821	147.964	-0.117	-0.161
-580.806	-200.000	0.012	0.159
-579.792	-136.018	-0.169	-0.020
-578.777	180.519	-0.073	0.109
-577.763	-3.677	0.108	0.076
-576.748	800.000	0.065	-0.211
-575.733	-200.000	-0.051	-0.303
-574.719	-200.000	-0.035	-0.222
-573.704	-200.000	-0.037	-0.191
-572.690	-30.991	-0.288	0.166
-571.675	46.509	0.157	0.148
-570.661	8.703	0.125	0.096
-569.646	-174.895	-0.386	0.011
-568.631	-148.634	0.085	0.007
-567.617	-200.000	-0.012	-0.312
-566.602	94.184	-0.108	0.125
-565.588	-200.000	-0.046	0.314
-564.573	-200.000	-0.009	-0.394
-563.558	440.403	-0.109	-0.244
-562.544	800.000	0.051	0.183
-561.529	25.048	-0.097	0.082
-560.515	-128.802	-0.174	-0.025
-559.500	131.530	0.154	-0.201
-558.485	-94.763	-0.140	0.039
-557.471	-111.608	-0.463	0.096
-556.456	-35.797	-0.226	0.124
-555.442	-94.962	0.309	0.085
-554.427	-59.870	-0.192	-0.084
-553.412	34.380	-0.238	-0.211
-552.398	-128.086	-0.309	0.045
-551.383	-87.250	0.142	-0.044
-550.369	-9.795	0.149	0.101
-549.354	74.048	-0.084	0.089
-548.339	-63.252	-0.167	-0.070
-547.325	186.867	0.094	-0.142
-546.310	-200.000	0.025	0.146
-545.296	-200.000	0.004	-0.018
-544.281	-200.000	-0.025	-0.237
-543.266	-55.239	-0.292	-0.134
-542.252	239.156	-0.137	-0.232
-541.237	276.770	0.066	-0.120
-540.223	-72.325	-0.123	-0.046
-539.208	-117.052	0.225	0.042
-538.193	800.000	-0.065	0.262
-537.179	800.000	0.064	0.205
-536.164	218.808	-0.109	0.176
-535.150	17.835	-0.167	-0.135
-534.135	-51.329	-0.110	0.052
-533.121	-76.243	0.194	0.069
-532.106	27.152	0.164	0.140
-531.091	769.092	0.030	0.083
-530.077	800.000	-0.080	0.242
-529.062	-60.495	-0.335	-0.145
-528.048	-57.234	-0.237	0.106
-527.033	-128.424	-0.047	0.007
-526.018	49.581	0.192	0.184
-525.004	-76.888	0.086	0.031
-523.989	-200.000	0.003	0.058
-522.975	7.739	-0.093	0.071
-521.960	-26.439	-0.292	0.174
-520.945	132.500	-0.195	0.255
-519.931	-200.000	0.021	0.308
-518.916	-200.000	-0.222	0.001
-517.902	-96.920	0.115	-0.031
-516.887	-20.645	-0.300	0.187
-515.872	2.203	0.157	0.115
-514.858	699.868	-0.038	-0.101
-513.843	-15.327	-0.211	0.137
-512.829	-34.110	-0.152	0.085
-511.814	-0.139	0.224	0.162
-510.799	-200.000	-0.005	0.395
-509.785	800.000	-0.063	-0.208
-508.770	744.200	-0.086	-0.235
-507.756	-200.000	-0.074	-0.384
-506.741	-0.650	-0.213	-0.153
-505.726	-59.854	-0.128	-0.056
-504.712	134.093	0.068	-0.090
-503.697	578.352	0.040	0.099
-502.683	800.000	0.047	-0.164
-501.668	800.000	0.078	0.293
-500.653	800.000	0.041	0.124
-499.639	145.820	0.157	0.213
-498.624	-200.000	0.004	-0.257
-497.610	30.592	0.339	0.294
-496.595	800.000	-0.086	-0.255
-495.581	-63.775	0.028	0.012
-494.566	20.266	0.246	0.202
-493.551	800.000	0.192	-0.575
-492.537	39.999	0.079	-0.072
-491.522	22.184	0.151	-0.125
-490.508	-99.524	0.310	0.079
-489.493	-200.000	0.010	0.308
-488.478	-200.000	0.053	0.393
-487.464	-41.289	-0.199	-0.104
-486.449	-119.631	-0.109	0.019
-485.435	21.019	-0.182	-0.150
-484.420	-200.000	-0.056	0.277
-483.405	-22.543	-0.279	0.171
-482.391	154.711	0.099	0.138
-481.376	38.957	0.049	0.044
-480.362	343.010	0.139	0.276
-479.347	707.632	0.065	0.174
-478.332	-44.436	-0.053	0.027
-477.318	55.308	-0.210	0.206
-476.303	-98.530	0.055	-0.014
-475.289	137.207	-0.047	0.063
-474.274	-79.703	-0.284	0.097
-473.259	-200.000	0.014	0.211
-472.245	5.615	0.061	-0.046
-471.230	-152.399	0.139	0.010
-470.216	-200.000	-0.016	0.090
-469.201	-118.015	0.261	0.047
-468.186	-148.427	0.097	-0.008
-467.172	-22.613	-0.327	-0.201
-466.157	51.777	0.158	0.152
-465.143	441.149	0.072	0.159
-464.128	-55.419	-0.227	-0.103
-463.113	36.113	-0.200	-0.179
-462.099	-142.198	-0.194	-0.020
-461.084	-71.317	0.184	-0.070
-460.070	16.092	-0.200	-0.159
-459.055	144.473	0.146	-0.198
-458.040	-66.063	0.167	0.068
-457.026	8.416	-0.155	0.118
-456.011	315.918	0.097	0.186
-454.997	-200.000	0.005	-0.078
-453.982	-200.000	-0.051	-0.430
-452.968	-7.641	-0.092	0.063
-451.953	522.301	0.053	-0.127
-450.938	-113.956	0.070	0.014
-449.924	-117.608	0.150	0.027
-448.909	-42.029	-0.193	0.100
-447.895	-138.255	-0.178	-0.020
-446.880	-118.389	0.097	0.017
-445.865	123.251	0.136	-0.173
-444.851	142.600	-0.141	-0.190
-443.836	-200.000	0.039	-0.191
-442.822	537.967	0.064	0.154
-441.807	800.000	-0.030	0.089
-440.792	-118.277	0.204	0.037
-439.778	-200.000	0.001	-0.327
-438.763	-153.520	0.136	0.010
-437.749	-57.115	0.270	-0.121
-436.734	-109.602	0.091	-0.020
-435.719	422.796	0.078	-0.169
-434.705	800.000	0.026	0.107
-433.690	-200.000	-0.013	0.107
-432.676	401.161	0.177	-0.377
-431.661	53.983	-0.160	-0.156
-430.646	174.787	0.063	0.092
-429.632	-155.221	0.284	-0.019
-428.617	-155.074	-0.274	0.018
-427.603	456.415	-0.104	-0.235
-426.588	-200.000	-0.005	-0.230
-425.573	-200.000	-0.015	-0.314
-424.559	800.000	-0.088	-0.361
-423.544	115.942	-0.118	0.146
-422.530	74.299	-0.034	0.036
-421.515	-119.942	-0.123	0.021
-420.500	-78.164	0.208	0.073
-419.486	-152.228	-0.118	0.009
-418.471	-41.427	0.176	-0.092
-417.457	800.000	-0.052	-0.214
-416.442	-200.000	0.011	-0.181
-415.428	-200.000	-0.008	0.057
-414.413	-145.679	0.373	-0.034
-413.398	57.710	0.163	0.161
-412.384	551.985	-0.133	0.322
-411.369	-200.000	-0.010	-0.223
-410.355	800.000	0.074	-0.235
-409.340	-89.555	-0.224	-0.067
-408.325	-27.966	0.217	0.127
-407.311	225.080	0.081	-0.133
-406.296	57.605	0.326	-0.322
-405.282	800.000	0.071	0.296
-404.267	-45.860	-0.154	0.077
-403.252	800.000	0.067	-0.260
-402.238	-156.790	0.299	-0.019
-401.223	214.516	-0.100	0.161
-400.209	-50.161	0.174	-0.084
-399.194	9.228	-0.219	-0.167
-398.179	-200.000	-0.017	-0.113
-397.165	-200.000	-0.025	-0.225
-396.150	348.107	0.176	0.352
-395.136	21.769	0.166	0.137
-394.121	101.050	0.089	-0.104
-393.106	800.000	0.077	-0.268
-392.092	-78.255	-0.218	-0.076
-391.077	-200.000	0.005	0.135
-390.063	-81.585	-0.148	-0.049
-389.048	-200.000	0.015	0.163
-388.033	23.744	-0.139	0.116
-387.019	372.017	-0.138	-0.284
-386.004	-129.765	-0.294	0.041
-384.990	-11.476	0.190	-0.127
-383.975	41.997	-0.189	-0.173
-382.960	130.336	-0.065	0.084
-381.946	54.721	0.092	0.090
-380.931	5.674	0.300	0.224
-379.917	-143.041	0.151	-0.015
-378.902	-133.679	0.279	-0.035
-377.888	800.000	0.110	-0.456
-376.873	33.445	0.195	-0.171
-375.858	-150.737	0.059	0.005
-374.844	-131.520	0.113	-0.015
-373.829	-102.303	-0.494	-0.120
-372.815	800.000	0.099	-0.344
-371.800	-83.459	-0.129	-0.042
-370.785	-200.000	0.025	0.225
-369.771	736.410	-0.082	0.223
-368.756	137.365	-0.215	-0.284
-367.742	184.845	0.071	-0.107
-366.727	51.422	0.302	0.290
-365.712	-200.000	-0.005	-0.123
-364.698	-200.000	-0.051	-0.316
-363.683	-39.537	-0.097	-0.052
-362.669	249.478	-0.026	-0.044
-361.654	247.088	-0.049	-0.083
-360.639	63.166	-0.276	0.280
-359.625	800.000	0.090	-0.262
-358.610	523.054	0.046	-0.109
-357.596	-61.208	0.182	0.077
-356.581	-34.138	0.328	0.182
-355.566	-22.428	-0.115	-0.070
-354.552	20.645	0.249	-0.203
-353.537	800.000	-0.075	-0.242
-352.523	-107.849	-0.321	-0.071
-351.508	117.297	-0.141	-0.174
-350.493	230.082	-0.056	0.093
-349.479	800.000	-0.043	0.134
-348.464	311.339	-0.061	0.115
-347.450	-97.812	-0.127	0.033
-346.435	800.000	0.038	0.151
-345.420	-34.091	0.146	-0.081
-344.406	-26.541	-0.192	0.114
-343.391	-170.714	0.253	0.009
-342.377	-141.896	-0.343	-0.035
-341.362	14.202	0.063	0.049
-340.348	-185.675	0.374	0.006
-339.333	-57.550	0.612	0.271
-338.318	786.310	-0.084	0.232
-337.304	758.689	-0.089	-0.244
-336.289	-58.974	-0.119	-0.052
-335.275	37.045	-0.445	0.397
-334.260	-69.714	-0.230	0.089
-333.245	800.000	-0.024	-0.089
-332.231	216.316	0.177	0.283
-331.216	-200.000	-0.038	0.276
-330.202	24.980	0.196	0.164
-329.187	-200.000	0.012	0.077
-328.172	78.717	-0.025	-0.027
-327.158	69.408	-0.158	-0.164
-326.143	80.390	-0.199	-0.216
-325.129	800.000	-0.092	-0.273
-324.114	-54.820	0.220	0.100
-323.099	-23.351	-0.132	0.080
-322.085	-45.245	0.457	0.229
-321.070	-156.306	-0.463	0.029
-320.056	-124.369	-0.133	-0.021
-319.041	-34.465	0.232	-0.128
-318.026	-108.433	0.263	-0.057
-317.012	-112.907	0.254	0.051
-315.997	651.353	0.079	0.204
-314.983	218.884	-0.217	-0.349
-313.968	-43.105	-0.385	0.197
-312.953	-60.472	-0.397	0.170
-311.939	-20.755	-0.302	-0.187
-310.924	531.627	-0.056	0.134
-309.910	-113.400	0.037	0.007
-308.895	-171.685	-0.114	-0.004
-307.880	96.486	-0.036	0.041
-306.866	11.694	0.123	0.095
-305.851	121.578	-0.136	0.171
-304.837	169.400	-0.116	-0.167
-303.822	-158.186	0.356	0.021
-302.807	-200.000	-0.021	0.138
-301.793	-200.000	0.008	-0.300
-300.778	41.907	-0.176	-0.161
-299.764	266.492	0.191	0.336
-298.749	800.000	-0.089	0.375
-297.735	63.751	0.069	0.070
-296.720	350.351	-0.097	0.193
-295.705	800.000	0.080	0.283
-294.691	24.412	0.227	0.189
-293.676	225.087	-0.140	0.227
-292.662	-110.375	0.109	0.023
-291.647	800.000	0.100	0.398
-290.632	419.337	-0.048	0.104
-289.618	-71.453	0.285	-0.107
-288.603	-40.115	-0.204	-0.107
-287.589	6.341	-0.181	-0.135
-286.574	-200.000	-0.024	0.335
-285.559	-200.000	0.032	0.264
-284.545	-91.326	0.417	-0.120
-283.530	-200.000	-0.025	-0.218
-282.516	-200.000	0.021	-0.304
-281.501	-200.000	-0.020	0.249
-280.486	95.944	-0.021	-0.025
-279.472	46.680	-0.267	-0.250
-278.457	287.364	-0.116	-0.212
-277.443	-112.833	0.155	0.031
-276.428	800.000	0.023	-0.075
-275.413	726.228	0.055	-0.147
-274.399	-64.392	-0.203	0.083
-273.384	170.343	0.236	0.340
-272.370	-133.505	-0.098	0.012
-271.355	29.874	-0.218	0.187
-270.340	800.000	-0.094	0.321
-269.326	-19.206	0.253	0.158
-268.311	71.280	-0.188	-0.196
-267.297	424.083	-0.023	0.049
-266.282	458.479	0.129	0.288
-265.267	-87.163	0.065	-0.020
-264.253	-61.547	0.311	0.131
-263.238	97.256	0.268	0.309
-262.224	-200.000	0.009	-0.133
-261.209	-91.142	0.227	0.065
-260.195	-200.000	0.029	-0.233
-259.180	272.094	0.118	0.209
-258.165	800.000	0.016	0.055
-257.151	-74.904	0.056	-0.020
-256.136	88.915	0.232	0.259
-255.122	800.000	-0.035	0.144
-254.107	800.000	-0.111	-0.310
-253.092	327.265	0.159	0.308
-252.078	-54.416	-0.126	-0.057
-251.063	233.940	0.143	0.237
-250.049	-200.000	0.035	-0.250
-249.034	-38.845	0.131	0.069
-248.019	-104.563	0.276	0.064
-247.005	-160.926	-0.038	-0.002
-245.990	117.405	-0.060	0.075
-244.976	-24.173	0.230	0.138
-243.961	521.160	-0.066	0.156
-242.946	-158.358	0.073	-0.004
-241.932	65.233	-0.151	-0.153
-240.917	-131.433	0.108	0.014
-239.903	-98.664	0.133	0.034
-238.888	-200.000	-0.031	0.163
-237.873	184.503	0.102	-0.152
-236.859	-147.571	-0.159	-0.013
-235.844	-200.000	-0.053	0.378
-234.830	36.079	-0.197	0.174
-233.815	74.973	0.262	-0.277
-232.800	36.193	0.132	-0.117
-231.786	800.000	0.063	0.191
-230.771	249.707	-0.147	-0.250
-229.757	-21.653	0.169	-0.103
-228.742	-127.319	0.202	0.030
-227.727	800.000	-0.052	0.201
-226.713	800.000	-0.054	-0.210
-225.698	112.268	-0.087	0.106
-224.684	-200.000	0.005	0.167
-223.669	-134.992	0.032	-0.004
-222.655	-91.467	0.285	0.082
-221.640	409.844	0.147	-0.314
-220.625	42.869	-0.180	0.165
-219.611	-63.170	-0.221	-0.092
-218.596	-162.291	-0.170	0.009
-217.582	166.918	0.128	0.182
-216.567	-164.472	0.235	-0.011
-215.552	26.414	0.104	-0.087
-214.538	-200.000	-0.025	0.219
-213.523	-73.402	-0.184	-0.067
-212.509	-31.141	0.323	-0.183
-211.494	-62.558	0.347	0.145
-210.479	800.000	0.078	-0.236
-209.465	444.012	0.088	-0.195
-208.450	687.578	-0.067	0.176
-207.436	-200.000	-0.008	0.132
-206.421	703.584	-0.100	-0.264
-205.406	255.079	-0.199	-0.342
-204.392	-200.000	-0.037	-0.279
-203.377	-14.165	-0.244	-0.158
-202.363	800.000	-0.063	-0.197
-201.348	-152.922	0.059	0.004
-200.333	87.208	-0.235	-0.260
-199.319	37.135	0.274	-0.244
-198.304	-90.547	0.227	0.066
-197.290	800.000	-0.035	0.141
-196.275	30.063	-0.016	-0.014
-195.260	220.784	0.090	0.144
-194.246	-22.622	-0.168	0.102
-193.231	297.803	0.038	0.069
-192.217	-200.000	-0.032	-0.154
-191.202	130.630	0.074	0.096
-190.187	81.272	0.173	0.187
-189.173	622.714	-0.069	-0.174
-188.158	-200.000	-0.049	0.238
-187.144	-60.642	0.595	-0.253
-186.129	33.853	-0.157	0.137
-185.114	-200.000	-0.017	-0.203
-184.100	122.272	-0.121	0.151
-183.085	501.566	-0.046	-0.106
-182.071	-6.191	0.348	-0.238
-181.056	19.441	-0.150	0.121
-180.042	-200.000	-0.017	0.425
-179.027	193.742	-0.165	0.250
-178.012	29.481	0.360	-0.307
-176.998	-200.000	0.001	0.492
-175.983	99.754	-0.243	-0.283
-174.969	105.304	-0.118	-0.140
-173.954	-0.593	-0.106	-0.075
-172.939	-105.248	0.189	-0.043
-171.925	800.000	0.071	-0.310
-170.910	29.654	0.089	0.076
-169.896	-156.635	-0.309	-0.019
-168.881	-124.306	0.142	-0.022
-167.866	800.000	-0.016	0.044
-166.852	-154.243	0.238	0.016
-165.837	437.762	0.156	-0.341
-164.823	-55.721	0.172	0.077
-163.808	-36.213	0.042	0.023
-162.793	-142.165	0.058	-0.006
-161.779	-92.480	0.153	-0.043
-160.764	-49.532	-0.114	-0.054
-159.750	-72.609	0.226	0.084
-158.735	-123.250	0.476	0.076
-157.720	-200.000	0.002	0.107
-156.706	10.632	0.176	-0.135
-155.691	-200.000	-0.039	-0.413
-154.677	-44.111	0.123	0.062
-153.662	-127.290	0.276	-0.040
-152.647	80.480	-0.198	0.214
-151.633	-50.575	-0.133	-0.063
-150.618	-200.000	-0.020	0.425
-149.604	519.273	0.068	0.159
-148.589	-28.701	0.127	-0.073
-147.574	-104.342	0.400	-0.093
-146.560	-6.073	-0.281	0.192
-145.545	-200.000	0.077	0.360
-144.531	-22.216	-0.074	0.045
-143.516	183.144	-0.184	-0.272
-142.502	-187.416	-0.072	-0.001
-141.487	-177.870	0.342	0.008
-140.472	-87.068	-0.339	0.103
-139.458	-50.944	-0.078	0.037
-138.443	-19.386	0.190	-0.118
-137.429	-200.000	-0.014	-0.092
-136.414	524.664	-0.178	-0.419
-135.399	107.014	0.095	0.112
-134.385	-200.000	0.070	-0.459
-133.370	-139.217	0.083	-0.009
-132.356	330.327	-0.129	-0.249
-131.341	-200.000	-0.018	-0.173
-130.326	-28.132	0.180	-0.104
-129.312	-200.000	0.030	-0.188
-128.297	-200.000	-0.030	0.193
-127.283	28.579	-0.296	-0.250
-126.268	-200.000	0.005	-0.101
-125.253	-65.414	0.255	-0.102
-124.239	14.302	0.115	0.090
-123.224	445.191	0.094	0.206
-122.210	-12.657	0.306	0.199
-121.195	47.847	0.120	0.113
-120.180	-83.634	0.397	0.127
-119.166	24.660	-0.041	-0.034
-118.151	121.578	-0.122	0.152
-117.137	268.851	0.138	-0.242
-116.122	87.124	0.195	-0.215
-115.107	131.083	0.203	-0.261
-114.093	-200.000	-0.057	-0.257
-113.078	163.711	-0.106	0.150
-112.064	-20.620	-0.145	0.089
-111.049	-59.764	0.160	-0.068
-110.034	151.809	-0.344	0.469
-109.020	25.679	-0.180	0.150
-108.005	-156.179	-0.173	0.011
-106.991	260.433	-0.099	-0.172
-105.976	49.144	0.168	-0.158
-104.962	-25.077	0.357	0.211
-103.947	102.587	-0.146	0.171
-102.932	800.000	-0.062	-0.218
-101.918	800.000	-0.027	-0.112
-100.903	319.414	0.167	-0.316
-99.889	56.266	-0.110	-0.107
-98.874	57.617	-0.180	0.176
-97.859	202.588	-0.142	-0.220
-96.845	280.019	0.051	0.090
-95.830	-200.000	0.002	0.183
-94.816	-138.107	0.445	-0.049
-93.801	-200.000	0.058	-0.303
-92.786	215.508	-0.019	-0.029
-91.772	80.590	0.258	-0.278
-90.757	103.473	0.165	-0.193
-89.743	-93.382	0.088	-0.024
-88.728	-40.992	0.126	0.065
-87.713	-116.996	-0.328	0.060
-86.699	-79.350	0.171	-0.058
-85.684	183.605	-0.194	-0.287
-84.670	197.677	-0.132	0.202
-83.655	134.933	0.048	0.062
-82.640	577.641	-0.074	0.182
-81.626	127.863	0.164	-0.208
-80.611	-150.468	0.204	-0.016
-79.597	584.064	0.068	-0.167
-78.582	165.499	0.105	0.148
-77.567	116.378	-0.168	-0.205
-76.553	22.974	-0.137	0.112
-75.538	278.733	0.100	0.178
-74.524	-200.000	0.002	-0.053
-73.509	-91.762	0.315	-0.089
-72.494	-79.018	0.233	0.079
-71.480	-11.130	-0.371	0.244
-70.465	63.999	0.094	0.094
-69.451	800.000	0.096	0.306
-68.436	-200.000	0.034	0.306
-67.422	219.802	0.113	0.181
-66.407	-200.000	-0.027	-0.330
-65.392	174.150	-0.055	-0.080
-64.378	518.324	0.054	0.126
-63.363	-80.633	0.213	0.071
-62.349	-45.109	0.135	-0.067
-61.334	103.940	-0.701	-0.822
-60.319	-135.906	0.287	0.034
-59.305	-200.000	0.067	-0.414
-58.290	205.885	0.374	0.580
-57.276	800.000	0.445	1.343
-56.261	-200.000	71.115	537.942
-55.246	578.264	1288.580	3145.757
-54.232	140.513	2539.493	3345.723
-53.217	121.080	2264.726	2812.295
-52.203	55.269	1781.045	1718.546
-51.188	47.175	1572.451	1460.378
-50.173	44.187	1542.144	1411.437
-49.159	59.909	1575.992	1552.854
-48.144	67.630	1596.369	1626.866
-47.130	47.526	1560.847	1451.831
-46.115	43.808	1545.804	1411.919
-45.100	43.615	1542.274	1407.297
-44.086	43.532	1541.020	1405.516
-43.071	43.339	1538.999	1402.283
-42.057	43.427	1536.956	1400.974
-41.042	43.369	1535.310	1399.017
-40.027	43.405	1534.362	1398.347
-39.013	43.461	1532.192	1396.697
-37.998	43.400	1531.352	1395.455
-36.984	43.425	1530.299	1394.613
-35.969	43.506	1528.397	1393.381
-34.954	43.522	1527.256	1392.395
-33.940	43.527	1525.660	1390.922
-32.925	43.438	1524.551	1389.243
-31.911	43.639	1522.368	1388.582
-30.896	43.587	1521.429	1387.311
-29.881	43.512	1520.162	1385.590
-28.867	43.549	1518.143	1383.946
-27.852	43.472	1517.349	1382.642
-26.838	43.544	1515.435	1381.333
-25.823	43.528	1513.751	1379.636
-24.809	43.461	1512.305	1377.806
-23.794	43.533	1510.895	1376.952
-22.779	43.398	1509.827	1375.012
-21.765	43.494	1508.510	1374.405
-20.750	43.405	1507.591	1372.909
-19.736	43.543	1506.203	1372.528
-18.721	43.464	1505.234	1371.055
-17.706	43.440	1503.869	1369.597
-16.692	43.417	1502.794	1368.408
-15.677	43.401	1501.901	1367.433
-14.663	43.347	1501.122	1366.301
-13.648	43.407	1499.681	1365.341
-12.633	43.488	1498.693	1364.936
-11.619	43.364	1498.228	1363.618
-10.604	43.452	1496.910	1362.959
-9.590	43.340	1496.268	1361.567
-8.575	43.295	1495.270	1360.303
-7.560	43.501	1494.324	1360.774
-6.546	43.349	1493.634	1359.069
-5.531	43.443	1492.080	1358.233
-4.517	43.517	1490.751	1357.465
-3.502	43.331	1490.771	1356.182
-2.487	43.514	1488.443	1355.238
-1.473	43.292	1488.209	1353.477
-0.458	43.353	1487.408	1353.108
0.556	41.586	1478.318	1344.501
1.571	39.491	1450.735	1305.430
2.586	35.495	1386.067	1221.762
3.600	32.563	1301.580	1129.637
4.615	29.988	1252.492	1072.054
5.629	25.723	1194.705	998.891
6.644	15.597	1104.524	871.182
7.659	7.089	1057.228	791.417
8.673	5.786	1050.364	779.730
9.688	5.478	1048.151	776.493
10.702	5.277	1046.451	774.170
11.717	5.260	1044.832	772.816
12.731	8.613	1049.039	792.490
13.746	16.884	1061.007	842.740
14.761	20.607	1064.105	863.653
15.775	18.410	1059.981	849.348
16.790	16.735	1057.400	838.917
17.804	15.707	1054.860	831.746
18.819	14.799	1052.679	825.465
19.834	14.303	1051.163	821.755
20.848	13.942	1050.157	819.119
21.863	13.723	1049.678	817.592
22.877	13.463	1048.804	815.557
23.892	13.259	1048.075	813.915
24.907	13.154	1047.503	812.882
25.921	13.277	1046.534	812.662
26.936	13.356	1045.523	812.196
27.950	13.270	1044.755	811.105
28.965	13.197	1043.847	809.970
29.980	13.349	1042.347	809.479
30.994	13.362	1041.771	809.024
32.009	13.479	1040.331	808.404
33.023	13.573	1039.434	808.096
34.038	13.510	1038.667	807.117
35.053	13.513	1037.842	806.423
36.067	13.417	1036.537	804.872
37.082	13.394	1036.039	804.297
38.096	13.359	1035.274	803.465
39.111	13.494	1034.777	803.663
40.126	13.431	1033.466	802.270
41.140	13.455	1032.359	801.457
42.155	13.301	1031.310	799.823
43.169	13.177	1030.315	798.385
44.184	13.178	1029.829	797.941
45.199	13.085	1028.270	796.212
46.213	13.160	1027.329	795.774
47.228	13.197	1026.680	795.382
48.242	13.372	1025.368	795.133
49.257	13.233	1024.886	794.022
50.271	13.232	1023.876	793.167
51.286	13.351	1022.800	792.832
52.301	13.347	1022.036	792.151
53.315	13.411	1021.022	791.599
54.330	13.339	1019.991	790.389
55.344	13.142	1019.543	789.030
56.359	13.169	1018.309	788.133
57.374	13.250	1017.543	787.859
58.388	13.272	1016.766	787.290
59.403	13.154	1015.712	785.841
60.417	13.180	1015.388	785.648
61.432	13.129	1014.381	784.553
62.447	13.137	1013.795	784.072
63.461	13.163	1012.747	783.315
64.476	13.081	1012.179	782.420
65.490	13.025	1011.247	781.362
66.505	12.931	1010.782	780.488
67.520	13.126	1009.456	780.319
68.534	13.098	1008.981	779.748
69.549	13.096	1008.199	779.067
70.563	13.130	1007.354	778.503
71.578	13.073	1006.997	777.891
72.593	13.101	1005.703	776.954
73.607	12.934	1004.964	775.530
74.622	13.024	1003.750	774.948
75.636	13.006	1003.013	774.223
76.651	12.952	1002.162	773.249
77.666	12.898	1001.666	772.542
78.680	12.972	1000.752	772.116
79.695	12.938	1000.384	771.606
80.709	12.980	999.847	771.316
81.724	13.169	998.754	771.291
82.739	13.123	998.043	770.457
83.753	13.180	997.816	770.478
84.768	13.341	996.439	770.099
85.782	13.446	995.974	770.157
86.797	13.529	994.833	769.594
87.812	13.417	994.535	768.776
88.826	13.369	993.586	767.749
89.841	13.323	992.765	766.835
90.855	13.225	992.186	765.864
91.870	13.437	991.395	766.168
92.884	13.362	990.645	765.173
93.899	13.478	989.594	764.832
94.914	13.446	989.112	764.244
95.928	13.543	988.355	764.040
96.943	13.574	987.419	763.389
97.957	13.455	986.888	762.366
98.972	13.375	986.163	761.368
99.987	13.481	985.288	761.113
101.001	13.464	984.568	760.413
102.016	13.491	983.611	759.727
103.030	13.450	982.556	758.657
104.045	13.433	981.487	757.686
105.060	13.396	980.852	756.963
106.074	13.432	979.339	755.891
107.089	13.253	979.105	754.828
108.103	13.226	978.025	753.804
109.118	13.070	977.183	752.376
110.133	13.157	976.359	752.075
111.147	13.097	975.560	751.116
112.162	13.085	974.544	750.214
113.176	13.193	974.072	750.274
114.191	13.312	973.082	749.986
115.206	13.200	972.242	748.765
116.220	13.383	971.210	748.732
117.235	13.373	970.536	748.101
118.249	13.320	969.549	747.036
119.264	13.222	968.830	745.974
120.279	13.192	968.465	745.489
121.293	13.242	967.114	744.611
122.308	13.199	966.243	743.679
123.322	13.128	965.876	743.010
124.337	13.153	964.734	742.181
125.352	13.087	963.545	740.902
126.366	13.126	962.704	740.367
127.381	13.117	961.681	739.474
128.395	13.167	960.443	738.682
129.410	13.145	959.609	737.876
130.424	13.078	959.095	737.113
131.439	13.183	957.860	736.570
132.454	13.195	957.424	736.222
133.468	13.274	956.368	735.698
134.483	13.327	955.645	735.311
135.497	13.392	955.133	735.142
136.512	13.397	954.431	734.557
137.527	13.382	953.738	733.893
138.541	13.352	952.892	733.043
139.556	13.395	952.292	732.708
140.570	13.299	951.618	731.702
141.585	13.364	950.841	731.324
142.600	13.567	950.072	731.565
143.614	13.326	949.431	729.945
144.629	13.562	948.901	730.511
145.643	13.579	947.944	729.785
146.658	13.640	946.870	729.164
147.673	13.459	945.591	727.319
148.687	13.510	944.698	726.792
149.702	13.546	943.545	725.997
150.716	13.281	943.301	724.586
151.731	13.309	942.522	724.045
152.746	13.472	941.727	724.082
153.760	13.302	941.074	722.773
154.775	13.368	940.530	722.577
155.789	13.540	939.373	722.378
156.804	13.539	938.508	721.643
157.819	13.516	938.224	721.260
158.833	13.459	938.117	720.866
159.848	13.600	937.107	720.640
160.862	13.531	936.618	719.902
161.877	13.567	935.836	719.390
162.892	13.473	935.006	718.281
163.906	13.361	934.106	717.041
164.921	13.427	933.212	716.576
165.935	13.414	932.409	715.841
166.950	13.395	931.375	714.902
167.964	13.459	930.410	714.375
168.979	13.541	929.529	713.988
169.994	13.437	928.663	712.813
171.008	13.355	927.864	711.785
172.023	13.573	926.924	711.937
173.037	13.567	926.300	711.370
174.052	13.596	925.736	710.995
175.067	13.689	924.885	710.680
176.081	13.569	924.100	709.498
177.096	13.520	923.095	708.456
178.110	13.601	922.184	708.039
179.125	13.530	921.628	707.247
180.140	13.526	921.392	706.985
181.154	13.531	920.141	705.983
182.169	13.530	919.648	705.541
183.183	13.473	919.690	705.268
184.198	13.500	918.607	704.489
185.213	13.630	917.863	704.406
186.227	13.814	917.183	704.605
187.242	13.848	916.684	704.304
188.256	13.936	915.851	703.973
189.271	13.868	914.983	702.956
190.286	13.821	914.294	702.169
191.300	13.705	913.757	701.199
192.315	13.557	912.590	699.618
193.329	13.629	911.626	699.124
194.344	13.460	911.555	698.295
195.359	13.530	910.978	698.084
196.373	13.621	910.103	697.735
197.388	13.597	910.062	697.541
198.402	13.806	909.553	697.966
199.417	13.776	909.230	697.531
200.432	13.967	908.993	698.090
201.446	14.064	908.000	697.676
202.461	14.066	907.407	697.163
203.475	14.057	907.377	697.042
204.490	14.139	906.267	696.472
205.504	14.006	905.535	695.290
206.519	13.956	904.777	694.437
207.534	13.951	903.838	693.634
208.548	14.027	903.055	693.289
209.563	14.038	902.343	692.728
210.577	14.035	901.747	692.196
211.592	14.221	900.739	692.133
212.607	13.981	901.170	691.407
213.621	14.143	900.181	691.260
214.636	14.178	899.721	690.989
215.650	14.133	898.637	689.910
216.665	14.272	898.036	689.965
217.680	14.175	897.853	689.360
218.694	14.188	897.078	688.758
219.709	14.205	897.103	688.788
220.723	14.231	896.046	688.023
221.738	14.267	895.318	687.552
222.753	14.217	894.381	686.564
223.767	14.231	893.795	686.112
224.782	14.329	892.931	685.793
225.796	14.383	892.196	685.388
226.811	14.440	891.766	685.232
227.826	14.349	891.311	684.448
228.840	14.328	890.399	683.600
229.855	14.325	889.875	683.124
230.869	14.386	889.078	682.701
231.884	14.369	888.460	682.099
232.899	14.199	887.670	680.737
233.913	14.302	886.823	680.446
234.928	14.405	885.677	679.927
235.942	14.218	885.533	678.994
236.957	14.243	884.785	678.462
237.972	14.277	884.134	678.043
238.986	14.388	883.446	677.906
240.001	14.308	882.792	677.020
241.015	14.392	882.248	676.884
242.030	14.344	881.490	676.048
243.045	14.309	881.169	675.599
244.059	14.393	880.272	675.192
245.074	14.493	879.863	675.222
246.088	14.447	879.065	674.364
247.103	14.576	878.234	674.187
248.117	14.593	877.652	673.749
249.132	14.494	877.792	673.400
250.147	14.609	876.870	673.097
251.161	14.719	876.640	673.305
252.176	14.706	875.673	672.449
253.190	14.801	874.738	672.055
254.205	14.814	874.354	671.750
255.220	14.913	873.574	671.492
256.234	15.002	872.852	671.231
257.249	14.991	872.365	670.754
258.263	14.891	871.823	669.878
259.278	14.880	871.349	669.411
260.293	15.089	870.931	669.865
261.307	14.964	870.360	668.869
262.322	14.971	869.710	668.340
263.336	15.021	869.356	668.205
264.351	15.181	868.562	668.175
265.366	15.129	867.815	667.334
266.380	15.096	867.591	666.973
267.395	14.949	867.008	665.878
268.409	14.899	866.139	664.955
269.424	15.014	865.384	664.770
270.439	15.037	864.938	664.461
271.453	15.070	863.449	663.389
272.468	14.940	862.912	662.403
273.482	14.951	862.263	661.893
274.497	15.128	861.289	661.782
275.512	15.080	860.945	661.273
276.526	15.135	860.135	660.809
277.541	15.136	859.280	660.096
278.555	15.158	859.022	659.928
279.570	15.130	858.510	659.365
280.585	15.127	858.241	659.086
281.599	15.314	857.373	659.099
282.614	15.261	856.635	658.265
283.628	15.267	856.237	657.923
284.643	15.166	855.449	656.863
285.657	15.189	855.248	656.741
286.672	15.288	854.820	656.742
287.687	15.347	854.107	656.368
288.701	15.254	853.654	655.598
289.716	15.254	853.183	655.177
290.730	15.351	852.469	654.950
291.745	15.367	851.646	654.325
292.760	15.322	851.143	653.705
293.774	15.299	850.466	653.035
294.789	15.405	850.433	653.366
295.803	15.375	849.756	652.672
296.818	15.220	849.397	651.736
297.833	15.427	848.274	651.619
298.847	15.319	847.498	650.547
299.862	15.414	846.987	650.463
300.876	15.502	846.083	650.054
301.891	15.356	845.628	649.080
302.906	15.567	845.112	649.443
303.920	15.562	844.277	648.727
304.935	15.581	843.963	648.502
305.949	15.666	843.036	648.057
306.964	15.744	842.424	647.829
307.979	15.583	842.266	647.032
308.993	15.683	841.455	646.735
310.008	15.678	841.089	646.378
311.022	15.784	840.355	646.167
312.037	15.698	840.237	645.687
313.052	15.631	839.532	644.831
314.066	15.652	838.631	644.162
315.081	15.603	838.244	643.621
316.095	15.545	838.004	643.158
317.110	15.513	837.052	642.247
318.125	15.635	836.569	642.286
319.139	15.620	835.953	641.699
320.154	15.575	835.556	641.164
321.168	15.718	835.027	641.249
322.183	15.568	834.371	640.117
323.197	15.704	833.914	640.228
324.212	15.874	833.008	640.119
325.227	15.791	832.668	639.488
326.241	15.794	832.174	639.065
327.256	15.756	831.279	638.177
328.270	15.610	831.328	637.602
329.285	15.769	830.332	637.385
330.300	15.738	830.230	637.131
331.314	15.898	829.280	636.950
332.329	15.916	828.213	636.145
333.343	15.831	828.054	635.645
334.358	15.765	827.849	635.182
335.373	15.982	826.830	635.161
336.387	15.939	826.511	634.699
337.402	15.887	826.149	634.168
338.416	16.079	825.411	634.268
339.431	16.124	824.922	634.008
340.446	16.201	824.194	633.678
341.460	16.177	823.748	633.191
342.475	16.204	823.530	633.066
343.489	16.121	822.891	632.209
344.504	16.188	822.735	632.285
345.519	16.167	822.099	631.664
346.533	16.317	821.103	631.401
347.548	16.369	820.749	631.269
348.562	16.274	820.511	630.673
349.577	16.176	819.822	629.722
350.592	16.136	819.275	629.097
351.606	16.024	819.203	628.569
352.621	16.036	818.771	628.227
353.635	16.062	818.242	627.860
354.650	16.208	817.327	627.649
355.665	16.309	817.011	627.724
356.679	16.227	816.284	626.805
357.694	16.294	815.988	626.773
358.708	16.262	815.659	626.347
359.723	16.351	814.834	625.987
360.738	16.318	814.642	625.660
361.752	16.364	814.073	625.337
362.767	16.370	813.641	624.972
363.781	16.590	813.068	625.293
364.796	16.359	812.914	624.263
365.810	16.455	812.319	624.108
366.825	16.521	811.867	623.949
367.840	16.539	811.701	623.832
368.854	16.499	811.204	623.245
369.869	16.596	810.424	622.951
370.883	16.577	809.741	622.299
371.898	16.496	809.263	621.578
372.913	16.666	808.694	621.711
373.927	16.588	808.637	621.327
374.942	16.594	807.708	620.579
375.956	16.694	807.216	620.513
376.971	16.649	806.806	619.977
377.986	16.739	806.170	619.766
379.000	16.838	805.703	619.711
380.015	16.854	805.021	619.191
381.029	16.916	804.216	618.744
382.044	16.817	803.992	618.154
383.059	16.915	803.214	617.860
384.073	16.808	802.858	617.140
385.088	16.904	802.362	617.053
386.102	16.891	801.633	616.394
387.117	16.739	801.309	615.537
388.132	16.869	800.997	615.715
389.146	16.735	800.368	614.690
390.161	16.849	799.971	614.745
391.175	16.833	799.935	614.604
392.190	16.949	799.332	614.505
393.205	16.726	799.073	613.446
394.219	16.794	798.797	613.425
395.234	16.880	798.089	613.139
396.248	16.756	797.555	612.226
397.263	16.661	797.046	611.439
398.278	16.542	796.836	610.793
399.292	16.648	796.103	610.557
400.307	16.671	795.672	610.260
401.321	16.689	795.146	609.864
402.336	16.983	794.527	610.394
403.350	16.867	794.506	609.907
404.365	16.712	794.445	609.249
405.380	17.010	793.584	609.606
406.394	16.997	793.058	609.101
407.409	17.172	792.506	609.252
408.423	17.200	792.340	609.168
409.438	17.129	791.906	608.526
410.453	17.144	791.474	608.194
411.467	17.335	791.004	608.465
412.482	17.230	790.410	607.579
413.496	17.332	789.956	607.539
414.511	17.108	790.346	606.986
415.526	17.318	789.662	607.154
416.540	17.294	789.094	606.579
417.555	17.237	788.949	606.212
418.569	17.193	788.156	605.390
419.584	17.297	787.525	605.222
420.599	17.428	787.019	605.247
421.613	80.855	1242.690	1297.632
422.628	68.219	1309.116	1297.762
