DTS Sentinel unit serial number:	SN413079Multiplexer serial number:	ORYXHardware model number:	OX4-SRSoftware version number:	ORYX F/W v4.00 Oryx Data Collector v3.7.2.0data status	okinstallation	princeton_trtdifferential loss correction	single-endedforward channel	channel 3reverse channel	N/Adate	2019/09/10time	21:06:11forward acquisition time	60.00reverse acquisition time	0.00gamma	496.2192k internal	0.2328k external	0.2328temperature offset calibration	0.9917default loss term (dB/km)	0.3790temperature slope calibration	1.0000multiplexer offset coefficient	1.0000multiplexer slope coefficient	1.0000fibre end	0.00T internal ref (°C)	31.55T ext. ref 1 (°C)	-0.30T ext. ref 2 (°C)	24.63length (m)	temperature (°C)	Stokes	anti-Stokes-747.200	560.409	0.204	0.497
-746.185	800.000	0.011	0.048
-745.171	-173.416	0.210	0.006
-744.156	-99.018	0.138	-0.035
-743.142	800.000	0.098	-0.294
-742.127	53.909	-0.096	0.093
-741.112	800.000	-0.028	-0.090
-740.098	159.724	-0.132	0.186
-739.083	233.814	0.101	-0.167
-738.069	37.771	0.043	-0.038
-737.054	800.000	0.090	0.324
-736.039	173.840	0.035	-0.052
-735.025	-200.000	0.026	0.302
-734.010	-56.115	0.057	-0.026
-732.996	-90.094	-0.153	-0.045
-731.981	-45.684	-0.281	0.140
-730.966	-2.806	-0.019	-0.013
-729.952	-81.920	-0.079	-0.026
-728.937	122.471	-0.241	-0.304
-727.923	-47.183	-0.123	0.061
-726.908	-19.547	0.063	0.039
-725.894	106.921	0.166	-0.198
-724.879	8.591	0.133	-0.101
-723.864	-61.311	-0.197	0.084
-722.850	-97.273	-0.276	-0.072
-721.835	-43.256	-0.391	-0.199
-720.821	210.120	0.194	-0.307
-719.806	76.863	0.207	-0.221
-718.791	-53.420	-0.173	-0.080
-717.777	-147.293	-0.358	-0.031
-716.762	800.000	-0.024	-0.079
-715.748	216.145	-0.085	0.135
-714.733	-200.000	0.026	0.170
-713.718	-73.592	-0.218	0.080
-712.704	63.261	0.264	-0.267
-711.689	-126.054	-0.120	0.018
-710.675	-131.866	-0.233	-0.031
-709.660	142.817	0.118	-0.157
-708.645	573.418	-0.072	-0.177
-707.631	789.774	0.051	-0.140
-706.616	544.458	-0.058	0.139
-705.602	143.131	0.080	0.107
-704.587	-51.532	0.343	0.161
-703.572	-108.517	-0.237	-0.051
-702.558	-23.511	0.160	0.097
-701.543	-200.000	0.039	-0.455
-700.529	108.236	0.188	-0.226
-699.514	69.629	0.051	-0.053
-698.499	-200.000	0.049	-0.234
-697.485	-200.000	0.013	-0.064
-696.470	225.272	-0.116	-0.188
-695.456	-90.930	-0.331	-0.096
-694.441	-108.350	-0.266	-0.058
-693.426	578.913	-0.043	0.105
-692.412	77.116	0.063	0.067
-691.397	-134.247	0.421	-0.052
-690.383	354.540	0.143	-0.285
-689.368	-32.510	0.080	-0.045
-688.354	163.706	0.127	0.180
-687.339	-200.000	-0.018	-0.216
-686.324	176.194	-0.246	-0.360
-685.310	442.834	0.022	-0.049
-684.295	141.904	-0.277	0.369
-683.281	-172.103	-0.244	0.008
-682.266	361.107	-0.158	-0.318
-681.251	-83.974	-0.222	-0.071
-680.237	800.000	-0.143	0.459
-679.222	64.723	-0.217	0.220
-678.208	800.000	0.078	-0.340
-677.193	-23.129	0.202	0.122
-676.178	245.180	0.078	-0.132
-675.164	-60.608	-0.208	0.089
-674.149	800.000	-0.024	-0.070
-673.135	-21.564	-0.149	0.091
-672.120	800.000	-0.016	0.049
-671.105	498.597	-0.106	-0.245
-670.091	800.000	-0.014	0.049
-669.076	-182.406	-0.171	0.003
-668.062	445.048	-0.062	0.137
-667.047	175.076	-0.084	-0.122
-666.032	-200.000	-0.011	0.206
-665.018	-30.859	0.045	-0.026
-664.003	27.233	0.083	-0.070
-662.989	61.820	0.129	0.129
-661.974	-35.911	-0.292	-0.159
-660.959	-200.000	0.031	-0.149
-659.945	239.811	-0.051	0.086
-658.930	-43.780	0.093	-0.047
-657.916	-92.835	-0.049	-0.014
-656.901	-124.931	-0.261	-0.040
-655.886	-200.000	0.010	-0.210
-654.872	-200.000	0.041	-0.223
-653.857	68.568	-0.085	-0.087
-652.843	281.070	0.149	-0.267
-651.828	-200.000	-0.019	-0.228
-650.814	7.718	-0.260	-0.196
-649.799	106.387	0.090	-0.107
-648.784	-53.423	-0.035	-0.016
-647.770	-199.721	0.090	0.000
-646.755	181.058	-0.190	-0.281
-645.741	-19.268	-0.127	0.079
-644.726	238.830	0.128	-0.214
-643.711	287.375	-0.104	-0.188
-642.697	0.367	0.115	0.082
-641.682	13.775	-0.096	0.075
-640.668	-52.353	0.128	0.060
-639.653	-200.000	0.009	0.062
-638.638	-27.540	-0.191	-0.111
-637.624	-108.570	0.198	0.043
-636.609	108.582	0.106	-0.127
-635.595	509.418	-0.089	0.207
-634.580	76.523	0.115	0.123
-633.565	-84.221	-0.081	-0.026
-632.551	-52.482	0.209	-0.097
-631.536	535.078	-0.130	0.310
-630.522	-36.424	0.222	0.120
-629.507	-184.184	-0.260	0.004
-628.492	438.514	0.187	-0.409
-627.478	-98.075	-0.237	0.061
-626.463	-16.937	0.395	-0.250
-625.449	-200.000	-0.001	0.066
-624.434	70.895	-0.044	0.045
-623.419	514.944	-0.180	-0.422
-622.405	105.011	0.128	-0.151
-621.390	-92.198	-0.349	-0.099
-620.376	323.197	0.075	0.143
-619.361	-33.233	-0.262	0.145
-618.346	216.272	-0.015	0.024
-617.332	-71.561	-0.193	-0.072
-616.317	800.000	-0.028	-0.111
-615.303	800.000	0.064	-0.248
-614.288	397.074	0.132	-0.277
-613.273	-106.026	-0.349	0.079
-612.259	-15.798	-0.312	-0.199
-611.244	-200.000	0.053	-0.444
-610.230	-174.941	0.336	-0.009
-609.215	282.639	-0.096	0.173
-608.201	-36.265	-0.213	0.115
-607.186	551.468	0.062	-0.150
-606.171	-34.701	0.044	0.024
-605.157	615.174	0.097	0.243
-604.142	111.629	0.139	0.168
-603.128	-8.729	0.080	0.054
-602.113	-51.057	0.162	0.076
-601.098	248.334	0.201	-0.341
-600.084	166.017	-0.094	0.133
-599.069	-200.000	0.002	0.342
-598.055	800.000	-0.037	0.132
-597.040	-127.100	-0.389	-0.057
-596.025	86.712	-0.115	-0.127
-595.011	-30.793	-0.052	-0.030
-593.996	41.299	-0.061	-0.055
-592.982	-125.400	0.273	0.042
-591.967	55.569	-0.155	-0.151
-590.952	800.000	0.017	0.053
-589.938	-200.000	-0.061	-0.296
-588.923	-200.000	0.000	0.217
-587.909	131.398	-0.127	0.163
-586.894	-123.957	-0.142	-0.022
-585.879	-50.968	-0.220	0.103
-584.865	312.705	0.106	0.200
-583.850	-39.907	0.306	0.160
-582.836	800.000	0.041	0.126
-581.821	-185.235	-0.214	0.003
-580.806	-87.358	-0.364	-0.110
-579.792	262.144	-0.108	-0.188
-578.777	-29.133	-0.091	0.053
-577.763	-112.143	0.224	0.045
-576.748	110.383	0.226	0.272
-575.733	-36.980	0.156	0.084
-574.719	-100.194	0.228	-0.057
-573.704	-40.096	-0.584	-0.305
-572.690	340.076	0.148	0.288
-571.675	131.872	-0.153	0.197
-570.661	-129.495	-0.170	0.024
-569.646	83.380	-0.135	0.148
-568.631	-76.925	0.167	-0.059
-567.617	352.109	-0.152	0.301
-566.602	800.000	-0.051	-0.163
-565.588	-200.000	0.028	0.173
-564.573	379.746	-0.036	-0.074
-563.558	-200.000	-0.036	0.315
-562.544	-15.908	-0.020	-0.013
-561.529	110.069	0.039	0.046
-560.515	-12.553	-0.123	0.081
-559.500	-200.000	-0.019	0.402
-558.485	-123.121	-0.471	0.076
-557.471	-105.023	0.105	0.024
-556.456	-23.939	0.167	0.100
-555.442	331.540	-0.179	0.345
-554.427	75.276	-0.024	-0.026
-553.412	8.131	0.074	0.055
-552.398	-147.892	0.071	-0.006
-551.383	504.584	-0.114	0.263
-550.369	102.921	-0.179	-0.210
-549.354	-124.202	-0.200	0.031
-548.339	102.398	0.234	-0.274
-547.325	-4.686	0.141	-0.098
-546.310	-200.000	-0.046	0.261
-545.296	-24.603	-0.225	0.134
-544.281	-15.055	-0.028	-0.018
-543.266	800.000	0.136	-0.453
-542.252	185.620	0.026	0.039
-541.237	-65.915	0.202	0.081
-540.223	-155.269	0.187	0.012
-539.208	-127.426	0.101	-0.015
-538.193	-200.000	0.005	0.109
-537.179	-90.900	0.296	0.085
-536.164	800.000	0.023	-0.067
-535.150	-200.000	-0.011	0.166
-534.135	690.568	0.075	-0.196
-533.121	410.402	0.040	0.086
-532.106	800.000	-0.106	0.312
-531.091	-83.594	0.272	-0.087
-530.077	14.692	0.088	-0.068
-529.062	-200.000	0.036	-0.201
-528.048	800.000	0.046	0.153
-527.033	-8.930	-0.257	-0.172
-526.018	-109.659	-0.082	0.017
-525.004	79.359	-0.187	-0.200
-523.989	219.139	0.082	-0.132
-522.975	-77.313	-0.285	-0.099
-521.960	642.390	-0.172	-0.437
-520.945	21.851	0.121	0.098
-519.931	-45.149	-0.290	0.144
-518.916	-59.356	-0.238	-0.102
-517.902	152.893	-0.151	-0.207
-516.887	-118.165	0.458	0.082
-515.872	12.704	-0.100	0.077
-514.858	101.118	0.100	0.116
-513.843	-161.427	-0.385	-0.020
-512.829	800.000	0.099	-0.280
-511.814	44.484	-0.321	0.294
-510.799	-66.626	-0.276	0.109
-509.785	-200.000	-0.004	0.294
-508.770	800.000	0.114	-0.441
-507.756	-200.000	0.045	0.212
-506.741	-200.000	0.007	0.090
-505.726	-101.348	0.090	0.022
-504.712	800.000	0.045	0.190
-503.697	-120.917	0.219	0.037
-502.683	-200.000	-0.025	0.150
-501.668	-18.492	-0.090	-0.056
-500.653	213.865	-0.105	-0.165
-499.639	800.000	0.088	0.246
-498.624	214.766	-0.176	-0.278
-497.610	-200.000	0.012	-0.195
-496.595	196.294	-0.060	0.092
-495.581	-200.000	0.067	0.394
-494.566	-46.238	-0.140	0.069
-493.551	-200.000	0.075	0.485
-492.537	-200.000	0.040	0.226
-491.522	-45.125	0.226	0.112
-490.508	-21.032	-0.077	-0.047
-489.493	-44.498	0.296	0.148
-488.478	502.616	0.052	-0.120
-487.464	265.595	0.058	-0.102
-486.449	184.223	-0.046	0.068
-485.435	-54.895	-0.317	-0.143
-484.420	-47.378	0.278	0.135
-483.405	220.962	-0.089	-0.143
-482.391	67.767	-0.133	0.135
-481.376	54.351	-0.254	-0.244
-480.362	-135.937	0.411	-0.048
-479.347	-160.505	-0.253	-0.013
-478.332	-200.000	-0.021	-0.279
-477.318	207.379	-0.127	0.198
-476.303	475.915	-0.018	-0.040
-475.289	800.000	-0.114	-0.393
-474.274	184.979	-0.049	-0.072
-473.259	800.000	-0.013	-0.039
-472.245	800.000	-0.059	0.205
-471.230	13.270	-0.227	-0.176
-470.216	119.291	-0.179	0.220
-469.201	-200.000	0.039	0.265
-468.186	-118.717	-0.081	0.014
-467.172	-81.154	-0.372	-0.122
-466.157	464.582	-0.062	0.139
-465.143	663.960	0.165	0.423
-464.128	580.531	0.111	-0.271
-463.113	-200.000	-0.062	0.301
-462.099	-68.928	-0.343	-0.132
-461.084	800.000	-0.019	0.061
-460.070	166.786	-0.182	0.257
-459.055	-28.255	0.347	0.200
-458.040	-200.000	0.004	0.030
-457.026	113.520	0.213	0.257
-456.011	34.343	-0.083	-0.072
-454.997	32.984	-0.071	-0.062
-453.982	-128.603	-0.066	-0.009
-452.968	800.000	0.056	0.182
-451.953	-158.968	0.151	-0.009
-450.938	-169.395	-0.098	0.004
-449.924	-55.225	-0.242	0.108
-448.909	207.586	-0.110	-0.171
-447.895	230.346	-0.196	0.319
-446.880	-200.000	0.032	-0.252
-445.865	-200.000	-0.037	-0.262
-444.851	166.201	-0.169	-0.239
-443.836	415.034	-0.042	-0.089
-442.822	800.000	0.054	-0.167
-441.807	10.423	-0.101	0.077
-440.792	35.888	-0.149	0.131
-439.778	-59.535	-0.096	-0.041
-438.763	57.767	0.284	0.277
-437.749	156.134	-0.136	-0.187
-436.734	219.662	-0.105	0.167
-435.719	800.000	0.122	0.344
-434.705	-200.000	0.024	-0.165
-433.690	-200.000	0.126	0.000
-432.676	124.499	0.124	0.155
-431.661	-59.327	-0.242	-0.104
-430.646	800.000	-0.020	-0.071
-429.632	-2.868	-0.212	0.147
-428.617	201.084	-0.186	-0.285
-427.603	800.000	-0.147	0.405
-426.588	800.000	-0.055	-0.175
-425.573	70.856	-0.075	0.077
-424.559	-200.000	0.040	-0.202
-423.544	160.270	-0.070	-0.097
-422.530	-170.789	0.070	0.002
-421.515	539.365	-0.066	0.156
-420.500	180.383	0.105	0.154
-419.486	629.355	0.042	0.106
-418.471	-200.000	0.000	0.274
-417.457	-100.676	-0.165	0.040
-416.442	-77.404	0.200	0.069
-415.428	54.394	-0.391	-0.375
-414.413	-86.524	0.120	-0.037
-413.398	30.501	0.078	-0.066
-412.384	377.230	0.239	0.486
-411.369	-56.092	-0.149	-0.066
-410.355	-200.000	0.042	-0.184
-409.340	192.699	0.110	0.165
-408.325	-200.000	-0.012	-0.261
-407.311	375.724	0.139	0.282
-406.296	-200.000	-0.048	0.328
-405.282	-44.288	0.325	0.162
-404.267	-118.669	0.021	0.004
-403.252	-107.671	-0.276	0.060
-402.238	1.811	0.301	0.216
-401.223	-117.295	0.144	-0.026
-400.209	800.000	-0.060	-0.169
-399.194	264.098	-0.099	0.171
-398.179	-200.000	0.024	0.138
-397.165	-200.000	0.001	0.084
-396.150	-23.490	0.168	-0.100
-395.136	800.000	-0.035	-0.119
-394.121	30.137	-0.091	0.078
-393.106	-200.000	-0.020	-0.122
-392.092	-37.257	0.141	-0.075
-391.077	48.803	0.227	0.212
-390.063	800.000	0.111	0.328
-389.048	25.549	-0.196	-0.162
-388.033	99.800	-0.169	-0.195
-387.019	219.367	-0.052	-0.083
-386.004	5.148	-0.368	-0.269
-384.990	800.000	-0.071	0.263
-383.975	-6.906	0.263	0.177
-382.960	-200.000	0.000	-0.330
-381.946	590.454	-0.057	0.139
-380.931	-46.497	0.218	-0.106
-379.917	-6.150	0.166	0.112
-378.902	-95.536	0.376	-0.100
-377.888	-200.000	-0.023	-0.273
-376.873	607.948	-0.001	0.002
-375.858	-200.000	0.053	0.260
-374.844	-88.188	0.067	-0.020
-373.829	-200.000	-0.023	-0.106
-372.815	38.948	0.104	0.092
-371.800	331.051	-0.127	-0.243
-370.785	261.739	-0.128	0.221
-369.771	-155.844	0.054	0.003
-368.756	-85.796	-0.138	-0.043
-367.742	40.838	0.097	-0.087
-366.727	-56.340	0.058	-0.025
-365.712	-200.000	0.019	-0.339
-364.698	-128.355	0.192	0.027
-363.683	-200.000	0.042	0.241
-362.669	-200.000	-0.001	0.111
-361.654	-150.573	-0.602	0.046
-360.639	104.272	0.085	0.099
-359.625	-83.048	0.311	-0.099
-358.610	-184.645	-0.488	-0.008
-357.596	800.000	0.102	0.322
-356.581	-105.005	-0.522	-0.119
-355.566	46.155	0.274	-0.252
-354.552	145.739	-0.123	-0.164
-353.537	637.995	-0.070	0.177
-352.523	276.310	0.050	-0.087
-351.508	391.380	0.058	-0.119
-350.493	-115.488	-0.180	-0.034
-349.479	-38.184	0.206	-0.109
-348.464	18.834	0.039	-0.031
-347.450	-200.000	-0.009	0.147
-346.435	168.282	-0.069	-0.097
-345.420	-159.059	-0.198	-0.011
-344.406	-53.391	0.082	0.037
-343.391	-182.594	0.081	-0.001
-342.377	459.166	-0.028	-0.063
-341.362	241.012	0.166	-0.276
-340.348	-66.480	-0.130	0.051
-339.333	-57.485	-0.228	-0.099
-338.318	129.683	0.151	0.191
-337.304	218.004	0.103	-0.163
-336.289	131.226	-0.085	0.109
-335.275	-200.000	-0.018	0.162
-334.260	800.000	-0.030	0.124
-333.245	-115.931	-0.320	-0.059
-332.231	-200.000	-0.001	-0.092
-331.216	608.542	0.072	0.178
-330.202	-117.546	0.367	-0.066
-329.187	52.578	-0.170	-0.161
-328.172	722.600	-0.186	0.491
-327.158	87.660	0.120	0.131
-326.143	-200.000	-0.021	-0.330
-325.129	-56.795	0.237	-0.104
-324.114	-200.000	-0.022	-0.264
-323.099	800.000	-0.105	-0.395
-322.085	-200.000	-0.040	-0.204
-321.070	-156.868	0.224	0.014
-320.056	-200.000	0.015	0.263
-319.041	-200.000	0.037	0.267
-318.026	800.000	0.040	-0.156
-317.012	-76.824	-0.065	0.022
-315.997	800.000	0.112	-0.342
-314.983	-176.478	0.092	-0.002
-313.968	-200.000	0.010	-0.048
-312.953	133.175	-0.223	-0.286
-311.939	-61.507	0.148	0.062
-310.924	-80.613	-0.115	-0.038
-309.910	-200.000	0.013	0.089
-308.895	-200.000	-0.040	-0.399
-307.880	590.736	0.093	-0.228
-306.866	800.000	-0.174	0.601
-305.851	3.025	0.207	-0.149
-304.837	800.000	0.135	-0.452
-303.822	-55.787	0.157	-0.070
-302.807	707.295	0.088	0.230
-301.793	-43.341	0.293	-0.147
-300.778	-200.000	0.021	-0.274
-299.764	-165.443	0.166	-0.007
-298.749	309.170	0.134	-0.249
-297.735	-200.000	0.003	-0.161
-296.720	224.885	-0.154	-0.246
-295.705	-200.000	-0.011	-0.213
-294.691	286.063	0.137	0.246
-293.676	-12.547	-0.118	0.076
-292.662	-19.144	0.291	-0.179
-291.647	671.862	0.063	0.162
-290.632	-68.813	-0.220	-0.084
-289.618	9.633	0.203	0.152
-288.603	-200.000	-0.006	-0.224
-287.589	-15.548	-0.052	0.033
-286.574	-200.000	0.008	0.117
-285.559	-7.644	0.128	0.086
-284.545	-29.117	0.170	0.097
-283.530	158.223	0.165	0.227
-282.516	147.771	0.155	0.207
-281.501	-185.537	0.292	-0.004
-280.486	-129.544	0.140	0.019
-279.472	363.454	-0.160	-0.318
-278.457	306.014	0.078	-0.143
-277.443	800.000	-0.133	-0.410
-276.428	280.182	0.221	0.390
-275.413	-83.441	-0.248	-0.079
-274.399	-169.122	-0.395	-0.015
-273.384	-128.512	-0.198	0.028
-272.370	94.646	0.331	0.372
-271.355	-200.000	0.020	0.348
-270.340	333.673	-0.098	0.188
-269.326	-200.000	-0.011	-0.456
-268.311	-64.586	-0.083	0.033
-267.297	-143.888	0.193	0.018
-266.282	353.846	-0.121	0.238
-265.267	747.108	0.077	0.204
-264.253	800.000	-0.017	-0.072
-263.238	-126.908	0.107	0.016
-262.224	-35.653	0.239	-0.128
-261.209	-22.488	-0.074	0.044
-260.195	-31.104	-0.029	-0.016
-259.180	-200.000	0.007	0.356
-258.165	-200.000	0.017	0.098
-257.151	5.524	0.344	0.251
-256.136	312.311	0.160	0.296
-255.122	328.244	-0.024	-0.045
-254.107	-200.000	0.020	-0.247
-253.092	-89.348	-0.117	-0.034
-252.078	-92.490	0.107	-0.030
-251.063	800.000	-0.063	0.258
-250.049	5.421	0.041	-0.030
-249.034	743.123	-0.147	-0.392
-248.019	-200.000	-0.046	0.245
-247.005	-35.649	-0.251	0.135
-245.990	-114.994	-0.387	-0.073
-244.976	46.991	-0.063	0.058
-243.961	-200.000	-0.017	-0.095
-242.946	-64.395	-0.206	0.083
-241.932	1.920	0.127	0.090
-240.917	10.030	0.114	0.086
-239.903	206.928	-0.163	0.251
-238.888	-39.151	-0.161	0.084
-237.873	-200.000	-0.023	-0.417
-236.859	-63.896	-0.307	0.124
-235.844	-138.573	-0.192	0.021
-234.830	357.933	0.049	-0.096
-233.815	-200.000	0.002	-0.378
-232.800	212.324	-0.125	0.195
-231.786	115.825	-0.094	0.114
-230.771	-12.907	0.212	-0.137
-229.757	-63.459	0.249	-0.101
-228.742	-62.546	0.668	0.274
-227.727	-200.000	-0.033	-0.434
-226.713	159.178	0.067	-0.092
-225.698	23.686	-0.086	-0.070
-224.684	800.000	-0.067	0.197
-223.669	256.992	0.021	0.035
-222.655	270.978	0.085	-0.147
-221.640	-179.457	0.186	0.004
-220.625	17.796	0.258	-0.203
-219.611	-115.254	0.287	-0.054
-218.596	-146.885	-0.128	0.011
-217.582	-200.000	0.004	-0.108
-216.567	208.567	0.071	0.109
-215.552	-133.994	0.069	0.008
-214.538	41.377	-0.161	0.144
-213.523	26.539	0.043	0.035
-212.509	64.756	0.159	0.158
-211.494	-200.000	-0.011	-0.164
-210.479	-132.472	-0.260	-0.033
-209.465	262.518	0.142	0.243
-208.450	208.608	-0.060	-0.092
-207.436	86.730	0.145	-0.157
-206.421	-101.794	0.059	-0.014
-205.406	-85.973	-0.158	-0.048
-204.392	302.844	0.100	0.182
-203.377	800.000	0.112	0.434
-202.363	-29.916	-0.232	0.130
-201.348	139.285	0.189	-0.245
-200.333	-96.012	0.357	-0.094
-199.319	-200.000	0.035	-0.378
-198.304	-71.268	0.169	0.062
-197.290	-105.145	-0.226	0.051
-196.275	-200.000	-0.043	-0.274
-195.260	769.276	0.161	-0.431
-194.246	-200.000	-0.004	-0.078
-193.231	-200.000	-0.004	0.052
-192.217	-73.310	0.178	-0.064
-191.202	-188.966	0.151	0.002
-190.187	-76.510	-0.258	0.089
-189.173	-50.361	-0.041	-0.019
-188.158	-200.000	0.069	0.376
-187.144	5.394	-0.053	0.038
-186.129	-200.000	-0.003	-0.074
-185.114	-151.457	-0.277	-0.020
-184.100	366.778	0.046	-0.092
-183.085	195.091	-0.110	-0.164
-182.071	211.939	0.169	-0.262
-181.056	-200.000	0.010	0.206
-180.042	-46.573	-0.084	-0.040
-179.027	-165.804	0.496	-0.021
-178.012	644.944	0.117	-0.295
-176.998	183.321	0.216	-0.314
-175.983	-97.913	0.417	-0.106
-174.969	-153.179	0.209	0.014
-173.954	-200.000	0.007	-0.129
-172.939	-46.492	-0.102	0.049
-171.925	331.208	-0.120	-0.228
-170.910	-71.317	-0.110	0.041
-169.896	-75.510	-0.289	-0.101
-168.881	-200.000	-0.003	-0.105
-167.866	-84.153	0.199	0.062
-166.852	-200.000	-0.008	0.098
-165.837	-200.000	-0.035	0.286
-164.823	320.483	0.243	0.454
-163.808	188.999	-0.094	-0.139
-162.793	-18.446	-0.094	0.058
-161.779	20.188	-0.143	0.114
-160.764	-200.000	0.049	-0.357
-159.750	320.188	0.187	-0.350
-158.735	350.508	0.204	-0.397
-157.720	-93.848	0.093	0.025
-156.706	-80.452	0.163	0.054
-155.691	-78.753	0.133	0.045
-154.677	22.440	-0.087	-0.070
-153.662	349.155	-0.067	0.131
-152.647	163.618	-0.012	0.017
-151.633	4.260	0.287	-0.207
-150.618	800.000	0.059	0.164
-149.604	-21.461	-0.092	-0.055
-148.589	110.235	-0.058	-0.068
-147.574	171.300	0.053	-0.075
-146.560	140.041	0.090	0.116
-145.545	-200.000	0.020	-0.428
-144.531	52.267	0.131	0.123
-143.516	-98.261	-0.216	-0.055
-142.502	11.605	0.263	0.198
-141.487	374.388	0.023	-0.045
-140.472	116.237	-0.050	0.060
-139.458	329.044	0.016	-0.029
-138.443	-200.000	-0.014	-0.088
-137.429	-66.955	0.335	0.130
-136.414	304.094	0.157	-0.287
-135.399	-85.455	-0.070	-0.022
-134.385	-9.030	0.197	0.130
-133.370	484.017	-0.069	0.154
-132.356	-2.483	0.378	-0.261
-131.341	77.005	-0.207	-0.216
-130.326	-200.000	0.001	-0.316
-129.312	118.594	0.060	0.073
-128.297	74.908	0.119	-0.123
-127.283	-116.655	-0.137	-0.025
-126.268	315.838	-0.169	0.314
-125.253	-148.091	-0.217	0.018
-124.239	-200.000	0.022	0.144
-123.224	-200.000	0.054	-0.379
-122.210	-200.000	0.028	-0.176
-121.195	25.838	0.420	-0.344
-120.180	190.042	0.246	-0.363
-119.166	-200.000	0.029	0.300
-118.151	-30.199	0.208	0.116
-117.137	508.926	0.097	0.222
-116.122	-104.824	0.229	-0.052
-115.107	262.164	0.071	-0.121
-114.093	-50.746	0.210	0.097
-113.078	206.676	-0.056	0.086
-112.064	12.563	0.224	0.170
-111.049	46.720	-0.064	0.058
-110.034	267.400	-0.034	0.058
-109.020	-2.400	0.176	0.121
-108.005	498.003	0.052	-0.117
-106.991	91.143	-0.158	0.174
-105.976	-200.000	0.005	-0.235
-104.962	153.721	-0.046	0.061
-103.947	-117.260	0.311	-0.056
-102.932	579.732	0.047	-0.112
-101.918	-200.000	0.015	-0.374
-100.903	157.574	-0.087	-0.118
-99.889	179.354	0.125	0.179
-98.874	6.144	0.150	-0.110
-97.859	72.412	-0.247	-0.253
-96.845	-85.269	0.152	-0.047
-95.830	165.077	-0.243	-0.337
-94.816	-100.097	0.163	0.040
-93.801	4.442	-0.213	-0.153
-92.786	235.326	0.084	0.136
-91.772	-178.879	0.279	-0.006
-90.757	552.180	-0.089	0.210
-89.743	-125.432	0.145	-0.022
-88.728	-181.695	0.279	-0.005
-87.713	-25.728	0.341	0.198
-86.699	0.100	0.144	-0.100
-85.684	-104.473	-0.304	-0.069
-84.670	800.000	-0.017	-0.051
-83.655	-35.808	0.102	-0.054
-82.640	-15.986	0.047	0.029
-81.626	97.320	-0.082	0.092
-80.611	576.460	-0.056	0.134
-79.597	-200.000	0.014	0.135
-78.582	-200.000	-0.034	0.267
-77.567	-200.000	-0.004	0.086
-76.553	-200.000	0.071	0.316
-75.538	-122.885	-0.363	0.057
-74.524	-1.207	0.182	0.126
-73.509	227.810	-0.054	0.086
-72.494	22.257	0.159	0.127
-71.480	16.599	0.349	0.271
-70.465	-151.738	0.260	0.019
-69.451	-161.074	-0.237	0.012
-68.436	-200.000	-0.052	0.559
-67.422	51.237	0.093	-0.087
-66.407	-147.526	0.271	0.022
-65.392	800.000	-0.078	0.210
-64.378	-37.935	0.267	-0.139
-63.363	153.912	0.058	0.077
-62.349	-200.000	0.009	0.097
-61.334	56.347	-1.096	-1.045
-60.319	526.290	0.354	0.818
-59.305	444.408	-0.436	-0.939
-58.290	411.649	0.407	0.847
-57.276	268.265	0.813	1.397
-56.261	-200.000	97.773	603.777
-55.246	599.686	1398.728	3404.603
-54.232	193.072	2591.806	3842.232
-53.217	116.545	2165.117	2604.188
-52.203	42.366	1702.506	1517.917
-51.188	34.741	1515.451	1299.476
-50.173	32.472	1488.282	1260.947
-49.159	51.527	1539.453	1434.649
-48.144	53.297	1556.987	1463.005
-47.130	34.923	1515.620	1300.649
-46.115	31.797	1501.133	1267.077
-45.100	31.598	1498.003	1263.041
-44.086	31.660	1495.751	1261.507
-43.071	31.537	1494.143	1259.273
-42.057	31.519	1492.351	1257.589
-41.042	31.546	1490.778	1256.396
-40.027	31.580	1489.376	1255.395
-39.013	31.515	1487.789	1253.575
-37.998	31.565	1486.074	1252.411
-36.984	31.505	1485.333	1251.333
-35.969	31.518	1483.985	1250.240
-34.954	31.579	1482.619	1249.443
-33.940	31.506	1481.211	1247.721
-32.925	31.538	1480.163	1247.004
-31.911	31.567	1478.719	1245.930
-30.896	31.618	1477.380	1245.090
-29.881	31.723	1475.703	1244.324
-28.867	31.584	1474.584	1242.410
-27.852	31.564	1473.316	1241.162
-26.838	31.622	1471.652	1240.094
-25.823	31.639	1470.079	1238.831
-24.809	31.568	1468.555	1237.027
-23.794	31.627	1467.172	1236.204
-22.779	31.605	1465.605	1234.692
-21.765	31.566	1464.839	1233.736
-20.750	31.568	1464.033	1233.027
-19.736	31.601	1462.698	1232.066
-18.721	31.521	1461.367	1230.373
-17.706	31.626	1460.209	1230.039
-16.692	31.561	1459.103	1228.632
-15.677	31.480	1458.577	1227.610
-14.663	31.537	1456.605	1226.274
-13.648	31.527	1456.467	1226.045
-12.633	31.497	1455.759	1225.203
-11.619	31.450	1454.965	1224.175
-10.604	31.534	1453.682	1223.594
-9.590	31.509	1453.045	1222.846
-8.575	31.535	1452.112	1222.185
-7.560	31.527	1451.189	1221.308
-6.546	31.506	1450.489	1220.531
-5.531	31.436	1450.325	1219.887
-4.517	31.389	1449.277	1218.652
-3.502	31.412	1447.883	1217.585
-2.487	31.531	1446.110	1216.815
-1.473	31.469	1445.679	1216.004
-0.458	31.503	1444.432	1215.125
0.556	29.140	1434.463	1203.222
1.571	25.886	1408.170	1160.153
2.586	22.251	1346.111	1086.510
3.600	20.687	1264.186	1011.213
4.615	19.582	1219.485	969.171
5.629	16.785	1164.604	910.462
6.644	8.199	1079.943	801.241
7.659	0.799	1039.572	735.338
8.673	-0.117	1033.299	726.409
9.688	-0.325	1030.700	723.514
10.702	-0.339	1028.713	721.989
11.717	-0.418	1026.801	720.204
12.731	2.524	1030.077	736.603
13.746	11.341	1042.963	788.537
14.761	17.973	1050.821	826.609
15.775	18.940	1051.475	831.730
16.790	19.015	1050.804	831.490
17.804	18.856	1049.650	829.732
18.819	18.567	1048.758	827.563
19.834	18.688	1048.333	827.734
20.848	18.710	1047.922	827.443
21.863	18.754	1047.487	827.240
22.877	18.721	1047.404	826.943
23.892	18.692	1046.331	825.884
24.907	18.726	1044.922	824.861
25.921	18.621	1044.653	824.073
26.936	18.747	1043.916	824.020
27.950	18.837	1042.574	823.321
28.965	18.678	1041.184	821.387
29.980	18.622	1039.997	820.111
30.994	18.569	1038.332	818.475
32.009	18.713	1037.330	818.298
33.023	18.852	1036.509	818.241
34.038	18.527	1035.507	815.832
35.053	18.485	1035.208	815.320
36.067	18.825	1034.192	816.068
37.082	18.756	1033.292	814.954
38.096	18.851	1032.589	814.778
39.111	18.868	1031.813	814.177
40.126	18.894	1031.072	813.641
41.140	19.019	1029.018	812.540
42.155	18.838	1027.894	810.728
43.169	18.332	1027.177	807.702
44.184	18.457	1026.043	807.327
45.199	18.450	1024.887	806.314
46.213	18.491	1023.529	805.365
47.228	18.452	1022.828	804.562
48.242	18.447	1021.947	803.773
49.257	18.606	1020.817	803.559
50.271	18.683	1020.204	803.366
51.286	18.799	1019.244	803.082
52.301	18.707	1018.734	802.179
53.315	18.779	1017.357	801.361
54.330	18.796	1016.582	800.758
55.344	18.772	1016.141	800.228
56.359	18.787	1014.788	799.158
57.374	18.696	1014.455	798.404
58.388	18.646	1012.646	796.679
59.403	18.627	1012.210	796.175
60.417	18.615	1011.440	795.444
61.432	18.571	1010.478	794.414
62.447	18.444	1009.699	793.144
63.461	18.651	1009.266	793.688
64.476	18.659	1007.763	792.475
65.490	18.547	1007.262	791.494
66.505	18.580	1005.962	790.554
67.520	18.594	1005.496	790.184
68.534	18.562	1004.786	789.407
69.549	18.485	1003.958	788.335
70.563	18.412	1002.487	786.772
71.578	18.099	1002.125	784.982
72.593	18.301	1001.354	785.236
73.607	18.135	1000.068	783.396
74.622	18.157	999.087	782.662
75.636	18.306	998.828	783.070
76.651	18.576	997.665	783.323
77.666	18.218	996.902	781.021
78.680	18.305	996.259	780.844
79.695	18.324	995.455	780.230
80.709	18.413	994.861	780.103
81.724	18.540	994.027	779.957
82.739	18.442	993.095	778.713
83.753	18.555	992.117	778.386
84.768	18.642	991.491	778.222
85.782	18.928	990.904	778.988
86.797	19.032	990.145	778.796
87.812	18.843	989.070	777.027
88.826	18.803	988.561	776.378
89.841	18.848	987.514	775.686
90.855	18.912	986.607	775.195
91.870	18.918	985.806	774.525
92.884	18.947	984.842	773.827
93.899	18.905	984.054	772.954
94.914	18.709	983.313	771.422
95.928	18.869	982.497	771.433
96.943	18.970	981.504	771.035
97.957	18.738	980.243	768.937
98.972	18.530	979.105	767.045
99.987	18.222	978.055	764.780
101.001	18.368	977.390	764.844
102.016	18.641	976.889	765.606
103.030	18.657	976.133	765.014
104.045	18.541	975.075	763.600
105.060	18.445	973.840	762.140
106.074	18.276	972.387	760.183
107.089	18.408	971.799	760.244
108.103	18.810	971.251	761.529
109.118	18.901	970.667	761.406
110.133	18.730	969.403	759.591
111.147	18.706	967.999	758.318
112.162	18.615	966.987	757.056
113.176	18.321	966.027	754.945
114.191	18.416	965.138	754.601
115.206	18.526	964.452	754.482
116.220	18.208	963.141	751.992
117.235	18.183	962.063	750.971
118.249	18.258	961.362	750.688
119.264	18.448	960.217	750.562
120.279	18.346	958.936	749.048
121.293	18.352	958.477	748.648
122.308	18.361	958.545	748.677
123.322	18.461	957.268	748.048
124.337	18.364	956.261	746.771
125.352	18.265	954.674	745.035
126.366	18.071	952.791	742.655
127.381	17.581	951.878	739.752
128.395	18.208	951.076	741.784
129.410	18.694	950.588	743.441
130.424	18.862	949.704	743.411
131.439	18.856	948.821	742.627
132.454	18.723	947.507	740.962
133.468	18.799	946.678	740.576
134.483	18.781	945.649	739.628
135.497	18.820	945.256	739.421
136.512	19.062	944.359	739.693
137.527	19.040	943.911	739.184
138.541	18.987	943.310	738.419
139.556	18.921	942.851	737.714
140.570	18.994	941.754	737.103
141.585	19.086	940.450	736.407
142.600	18.891	940.060	735.205
143.614	18.949	939.014	734.571
144.629	18.804	938.630	733.585
145.643	19.158	937.639	734.256
146.658	19.111	936.433	733.048
147.673	19.052	935.318	731.859
148.687	18.868	934.545	730.408
149.702	18.948	933.301	729.707
150.716	18.841	932.324	728.425
151.731	18.761	931.761	727.584
152.746	18.829	931.280	727.433
153.760	19.006	930.488	727.497
154.775	19.139	929.431	727.167
155.789	19.163	928.523	726.496
156.804	18.999	928.144	725.442
157.819	19.025	926.260	724.015
158.833	19.058	925.738	723.680
159.848	19.119	925.102	723.379
160.862	19.260	923.710	722.814
161.877	18.926	923.544	721.221
162.892	19.000	922.298	720.493
163.906	19.134	921.830	720.626
164.921	19.206	920.662	719.949
165.935	19.255	919.643	719.292
166.950	19.203	918.912	718.442
167.964	19.201	917.581	717.330
168.979	19.071	916.987	716.259
169.994	19.098	915.786	715.371
171.008	18.983	914.666	713.954
172.023	19.154	914.264	714.287
173.037	19.327	913.168	714.083
174.052	18.862	912.345	711.455
175.067	18.720	911.208	709.915
176.081	18.849	910.642	709.946
177.096	19.012	909.686	709.812
178.110	18.998	909.150	709.272
179.125	18.830	907.999	707.618
180.140	18.674	906.774	705.960
181.154	18.577	906.335	705.157
182.169	18.710	905.713	705.158
183.183	19.006	904.889	705.668
184.198	19.154	904.569	705.963
185.213	19.151	903.763	705.258
186.227	19.044	903.347	704.435
187.242	19.223	902.371	704.344
188.256	19.224	901.964	703.967
189.271	19.113	901.171	702.833
190.286	19.022	900.632	701.977
191.300	18.986	899.866	701.171
192.315	18.681	898.311	698.656
193.329	18.151	896.915	695.355
194.344	17.707	895.904	692.707
195.359	18.303	896.267	695.349
196.373	18.827	896.741	697.784
197.388	19.147	896.043	698.478
198.402	19.058	895.231	697.419
199.417	18.825	894.403	695.772
200.432	18.932	893.862	695.722
201.446	18.814	893.121	694.605
202.461	18.567	892.229	692.851
203.475	18.617	891.907	692.744
204.490	18.144	890.282	689.512
205.504	17.218	888.448	684.306
206.519	17.692	888.333	686.061
207.534	18.562	888.727	689.810
208.548	18.786	887.927	690.024
209.563	18.960	887.803	690.565
210.577	19.031	887.078	690.226
211.592	18.776	886.109	688.389
212.607	19.061	885.949	689.345
213.621	19.230	884.987	689.212
214.636	19.237	884.450	688.763
215.650	19.185	883.658	687.875
216.665	19.047	883.337	687.013
217.680	19.304	882.680	687.467
218.694	19.234	882.466	686.964
219.709	18.859	881.250	684.461
220.723	18.660	880.249	682.832
221.738	18.897	880.050	683.561
222.753	19.013	879.317	683.390
223.767	18.886	879.152	682.699
224.782	19.032	877.853	682.206
225.796	19.217	876.961	682.185
226.811	19.270	876.476	681.959
227.826	18.859	875.451	679.477
228.840	18.255	873.735	675.701
229.855	18.295	873.224	675.402
230.869	18.395	873.199	675.720
231.884	18.099	872.205	673.721
232.899	18.132	871.507	673.252
233.913	18.916	871.371	676.172
234.928	19.027	871.205	676.423
235.942	19.131	870.238	676.018
236.957	19.120	869.891	675.646
237.972	18.802	868.730	673.438
238.986	18.760	867.699	672.416
240.001	18.919	867.474	672.803
241.015	18.991	866.537	672.298
242.030	18.957	865.844	671.570
243.045	19.096	865.284	671.617
244.059	18.981	865.208	671.050
245.074	19.270	864.522	671.586
246.088	19.193	863.849	670.703
247.103	18.814	862.699	668.279
248.117	18.774	862.237	667.706
249.132	19.175	862.425	669.351
250.147	19.478	862.115	670.226
251.161	19.568	861.134	669.754
252.176	19.712	860.461	669.728
253.190	19.729	859.441	668.941
254.205	19.692	859.519	668.799
255.220	19.930	858.529	668.891
256.234	19.866	857.905	668.101
257.249	19.899	857.008	667.469
258.263	19.758	856.707	666.633
259.278	19.841	856.126	666.440
260.293	19.989	855.822	666.716
261.307	19.777	855.221	665.373
262.322	19.878	854.170	664.883
263.336	19.601	853.828	663.495
264.351	19.215	851.974	660.516
265.366	18.089	850.289	654.839
266.380	17.735	849.163	652.559
267.395	18.644	849.295	656.079
268.409	19.488	849.567	659.458
269.424	19.474	848.820	658.767
270.439	19.535	848.536	658.721
271.453	19.681	847.931	658.750
272.468	19.714	847.263	658.300
273.482	19.845	846.997	658.533
274.497	19.967	846.264	658.370
275.512	19.851	845.593	657.347
276.526	19.199	844.046	653.614
277.541	19.417	843.646	654.073
278.555	19.774	843.180	655.005
279.570	19.456	841.879	652.734
280.585	19.347	841.120	651.676
281.599	19.470	841.053	652.032
282.614	19.608	840.121	651.771
283.628	19.412	839.084	650.172
284.643	19.051	838.460	648.271
285.657	19.318	838.547	649.287
286.672	19.251	837.309	648.018
287.687	18.712	836.873	645.598
288.701	19.046	836.942	646.850
289.716	19.434	836.382	647.818
290.730	19.142	835.228	645.770
291.745	18.925	834.759	644.536
292.760	18.813	833.447	643.048
293.774	18.759	832.955	642.408
294.789	19.602	833.673	646.062
295.803	20.099	833.696	647.879
296.818	20.219	832.720	647.511
297.833	20.385	832.151	647.632
298.847	20.201	830.994	645.989
299.862	19.756	830.136	643.606
300.876	19.880	830.131	644.009
301.891	20.102	829.602	644.365
302.906	19.988	829.437	643.756
303.920	19.815	827.383	641.463
304.935	19.697	826.833	640.545
305.949	19.862	826.792	641.068
306.964	20.136	826.230	641.589
307.979	19.893	825.585	640.133
308.993	19.793	825.242	639.442
310.008	20.241	824.878	640.759
311.022	20.397	824.665	641.110
312.037	20.030	824.114	639.272
313.052	20.077	823.197	638.676
314.066	19.860	822.427	637.222
315.081	19.241	821.115	633.875
316.095	18.523	820.279	630.535
317.110	19.058	820.636	632.719
318.125	20.043	819.984	635.778
319.139	19.719	818.971	633.749
320.154	18.708	817.177	628.603
321.168	18.153	816.809	626.233
322.183	18.779	817.243	628.803
323.197	19.528	817.458	631.655
324.212	19.831	816.532	631.990
325.227	20.022	816.198	632.374
326.241	20.163	815.795	632.519
327.256	20.014	815.152	631.421
328.270	19.943	814.447	630.563
329.285	19.969	813.697	630.020
330.300	19.771	813.387	629.005
331.314	19.530	812.203	627.158
332.329	19.706	811.466	627.172
333.343	19.934	811.376	627.874
334.358	20.194	811.021	628.484
335.373	20.128	810.323	627.651
336.387	20.179	810.067	627.579
337.402	20.497	809.407	628.165
338.416	20.526	809.404	628.211
339.431	20.520	808.279	627.260
340.446	20.527	807.661	626.750
341.460	20.657	807.569	627.090
342.475	20.572	806.694	626.050
343.489	20.456	806.038	625.070
344.504	20.463	805.745	624.813
345.519	20.584	805.637	625.109
346.533	20.751	805.263	625.363
347.548	20.942	804.602	625.477
348.562	20.949	804.167	625.111
349.577	20.919	803.729	624.606
350.592	20.842	802.872	623.612
351.606	20.873	802.503	623.380
352.621	21.029	801.927	623.435
353.635	20.803	801.731	622.419
354.650	20.626	801.263	621.369
355.665	20.385	800.064	619.526
356.679	19.439	798.672	615.021
357.694	19.278	798.029	613.896
358.708	19.870	797.892	615.845
359.723	19.697	797.636	614.978
360.738	20.085	796.890	615.729
361.752	20.520	796.911	617.233
362.767	20.709	796.155	617.264
363.781	20.856	796.335	617.870
364.796	21.099	795.990	618.410
365.810	21.097	795.611	618.054
366.825	21.282	795.243	618.369
367.840	21.135	794.837	617.478
368.854	21.094	794.046	616.665
369.869	20.710	793.347	614.710
370.883	20.501	793.034	613.676
371.898	20.663	792.431	613.725
372.913	20.645	791.243	612.687
373.927	20.553	790.586	611.802
374.942	20.701	790.126	611.912
375.956	20.817	789.896	612.089
376.971	20.917	789.282	611.907
377.986	20.917	788.851	611.520
379.000	21.172	788.253	611.895
380.015	21.148	788.278	611.777
381.029	21.044	787.541	610.789
382.044	20.885	787.053	609.797
383.059	21.064	786.242	609.743
384.073	20.992	785.789	609.086
385.088	21.282	785.222	609.603
386.102	21.100	784.781	608.572
387.117	21.083	784.285	608.074
388.132	20.901	783.662	606.904
389.146	20.929	783.015	606.448
390.161	20.365	782.265	603.852
391.175	20.479	782.060	604.035
392.190	20.704	781.880	604.625
393.205	20.873	781.232	604.657
394.219	20.025	779.939	600.664
395.234	18.581	777.726	593.910
396.248	17.912	776.990	590.980
397.263	19.013	777.487	595.119
398.278	20.802	778.635	602.136
399.292	21.005	778.460	602.647
400.307	20.649	778.142	601.120
401.321	20.658	777.426	600.543
402.336	20.835	777.050	600.809
403.350	20.986	777.131	601.340
404.365	21.361	776.569	602.143
405.380	21.676	776.427	603.065
406.394	21.812	776.268	603.356
407.409	21.908	775.717	603.204
408.423	21.746	775.220	602.208
409.438	21.813	774.596	601.902
410.453	21.768	774.382	601.526
411.467	21.803	774.158	601.420
412.482	21.778	773.486	600.760
413.496	21.698	773.005	600.059
414.511	21.815	772.590	600.083
415.526	21.847	772.358	599.959
416.540	21.786	771.918	599.356
417.555	21.800	771.120	598.733
418.569	21.441	770.419	596.909
419.584	21.404	769.640	596.128
420.599	21.603	769.081	596.318
421.613	157.721	1360.560	1795.406
422.628	135.957	1446.732	1795.503
