DTS Sentinel unit serial number:	SN413079Multiplexer serial number:	ORYXHardware model number:	OX4-SRSoftware version number:	ORYX F/W v4.00 Oryx Data Collector v3.7.2.0data status	okinstallation	princeton_trtdifferential loss correction	single-endedforward channel	channel 3reverse channel	N/Adate	2019/09/17time	04:36:34forward acquisition time	60.00reverse acquisition time	0.00gamma	496.2192k internal	0.2324k external	0.2324temperature offset calibration	0.9943default loss term (dB/km)	0.3790temperature slope calibration	1.0000multiplexer offset coefficient	1.0000multiplexer slope coefficient	1.0000fibre end	0.00T internal ref (°C)	29.67T ext. ref 1 (°C)	0.13T ext. ref 2 (°C)	24.07length (m)	temperature (°C)	Stokes	anti-Stokes-747.200	800.000	0.053	0.217
-746.185	446.091	-0.130	0.288
-745.171	-200.000	0.000	-0.163
-744.156	5.693	0.193	0.144
-743.142	-200.000	0.020	-0.107
-742.127	-173.229	-0.390	0.012
-741.112	-44.525	-0.134	-0.068
-740.098	-200.000	-0.009	-0.059
-739.083	-166.975	-0.159	0.007
-738.069	580.591	-0.179	0.443
-737.054	-128.997	0.217	-0.031
-736.039	-63.663	-0.374	-0.155
-735.025	-110.946	0.341	-0.071
-734.010	-200.000	-0.114	-0.532
-732.996	800.000	-0.112	-0.356
-731.981	-2.694	-0.163	-0.115
-730.966	-89.146	0.168	0.050
-729.952	309.080	0.108	0.205
-728.937	-101.928	-0.376	-0.092
-727.923	-36.038	-0.147	0.080
-726.908	739.178	0.026	-0.070
-725.894	-35.316	-0.163	-0.090
-724.879	-18.080	-0.035	-0.022
-723.864	145.637	-0.253	-0.342
-722.850	155.693	-0.061	0.085
-721.835	9.047	-0.244	0.186
-720.821	-126.667	0.183	-0.027
-719.806	746.929	-0.064	-0.173
-718.791	-200.000	-0.030	-0.297
-717.777	48.748	-0.075	0.071
-716.762	14.360	0.172	-0.136
-715.748	-200.000	0.045	-0.289
-714.733	173.900	-0.121	-0.176
-713.718	141.480	-0.124	-0.166
-712.704	198.716	0.139	-0.214
-711.689	800.000	-0.065	0.187
-710.675	536.739	0.068	-0.163
-709.660	173.263	0.226	0.328
-708.645	-34.977	-0.213	0.117
-707.631	-80.698	-0.159	-0.053
-706.616	-161.724	0.455	-0.023
-705.602	-200.000	0.056	-0.260
-704.587	-76.851	0.294	-0.104
-703.572	-19.465	0.128	-0.080
-702.558	-20.329	0.082	-0.051
-701.543	-145.352	-0.236	-0.021
-700.529	43.533	-0.148	-0.136
-699.514	-200.000	-0.025	0.147
-698.499	800.000	-0.052	0.210
-697.485	68.587	-0.178	-0.184
-696.470	27.779	0.080	-0.068
-695.456	120.912	0.078	0.098
-694.441	144.207	-0.213	0.286
-693.426	-48.070	0.251	0.122
-692.412	-200.000	0.004	0.043
-691.397	231.098	0.134	0.222
-690.383	72.405	-0.219	0.230
-689.368	183.523	0.194	0.288
-688.354	147.391	0.089	-0.121
-687.339	109.476	-0.208	0.251
-686.324	439.704	-0.090	-0.198
-685.310	-74.506	-0.237	-0.086
-684.295	-156.906	-0.355	-0.022
-683.281	1.816	-0.214	-0.156
-682.266	714.026	-0.060	-0.160
-681.251	216.721	0.153	0.244
-680.237	627.422	-0.058	-0.146
-679.222	-80.407	0.144	-0.048
-678.208	-177.505	-0.139	0.003
-677.193	-53.004	-0.313	-0.145
-676.178	-81.277	0.116	0.038
-675.164	-143.945	-0.041	-0.004
-674.149	125.164	-0.183	-0.233
-673.135	-131.266	-0.208	0.028
-672.120	-42.599	0.115	-0.059
-671.105	715.027	0.125	0.335
-670.091	431.716	-0.056	0.121
-669.076	-105.631	-0.337	0.077
-668.062	-200.000	-0.059	-0.311
-667.047	-177.655	0.297	-0.007
-666.032	-200.000	-0.002	-0.025
-665.018	141.997	-0.020	-0.027
-664.003	-1.381	0.032	-0.023
-662.989	-46.339	-0.198	0.098
-661.974	-18.656	-0.398	0.250
-660.959	-58.404	-0.055	0.024
-659.945	286.965	0.016	0.029
-658.930	71.085	0.188	0.196
-657.916	-90.659	0.337	-0.098
-656.901	32.021	-0.292	-0.253
-655.886	-200.000	0.008	-0.150
-654.872	-200.000	-0.010	0.207
-653.857	-163.912	-0.377	0.018
-652.843	-67.401	0.244	0.097
-651.828	-14.054	-0.113	-0.073
-650.814	-200.000	-0.062	-0.365
-649.799	23.731	-0.271	-0.224
-648.784	211.020	0.149	-0.235
-647.770	32.531	0.376	-0.327
-646.755	-200.000	-0.041	-0.307
-645.741	-108.995	0.333	-0.071
-644.726	800.000	-0.036	0.111
-643.711	-112.575	-0.250	0.050
-642.697	800.000	0.099	0.378
-641.682	98.413	0.274	0.318
-640.668	91.575	-0.104	-0.118
-639.653	185.143	0.124	-0.185
-638.638	-113.806	-0.274	-0.054
-637.624	125.381	-0.110	-0.139
-636.609	-118.522	-0.140	0.025
-635.595	218.871	0.107	-0.172
-634.580	800.000	0.036	-0.127
-633.565	-66.282	0.254	0.102
-632.551	407.358	0.101	-0.216
-631.536	-11.071	0.270	-0.179
-630.522	-83.515	0.181	-0.058
-629.507	-23.721	0.149	0.090
-628.492	800.000	0.039	-0.126
-627.478	-17.628	-0.088	0.056
-626.463	-169.202	0.084	0.003
-625.449	5.079	0.043	-0.032
-624.434	-4.484	0.264	0.183
-623.419	-200.000	-0.071	-0.000
-622.405	800.000	0.066	-0.281
-621.390	-104.931	0.225	0.052
-620.376	800.000	0.018	0.054
-619.361	-181.845	0.318	0.006
-618.346	-200.000	0.006	-0.250
-617.332	291.200	-0.184	-0.336
-616.317	-44.850	0.225	-0.113
-615.303	-15.682	-0.189	-0.121
-614.288	138.291	0.299	-0.395
-613.273	121.352	0.214	-0.268
-612.259	-200.000	0.022	0.112
-611.244	80.580	-0.223	-0.242
-610.230	800.000	-0.093	0.259
-609.215	-69.352	0.276	-0.106
-608.201	-29.375	-0.357	-0.205
-607.186	-152.261	0.205	0.015
-606.171	-8.322	-0.083	0.056
-605.157	800.000	-0.021	0.084
-604.142	-94.060	-0.179	-0.049
-603.128	-200.000	0.019	0.188
-602.113	-71.897	-0.077	-0.029
-601.098	20.880	-0.399	-0.324
-600.084	252.444	-0.094	-0.161
-599.069	-41.993	0.139	0.071
-598.055	-200.000	-0.003	-0.277
-597.040	-119.055	-0.121	-0.021
-596.025	129.474	0.047	0.060
-595.011	-50.994	0.137	-0.065
-593.996	-200.000	0.268	-0.000
-592.982	32.972	-0.184	-0.160
-591.967	257.788	0.067	-0.115
-590.952	414.384	-0.128	-0.273
-589.938	-83.842	-0.194	0.062
-588.923	67.495	-0.122	0.125
-587.909	54.167	-0.084	0.081
-586.894	800.000	0.032	0.106
-585.879	800.000	-0.046	0.171
-584.865	-200.000	0.026	-0.188
-583.850	86.578	0.120	-0.133
-582.836	-100.489	0.162	-0.040
-581.821	8.573	-0.061	0.046
-580.806	501.228	-0.104	0.240
-579.792	-108.137	-0.285	0.062
-578.777	22.850	-0.143	0.118
-577.763	668.317	-0.071	0.184
-576.748	50.661	-0.047	-0.045
-575.733	85.889	0.188	0.207
-574.719	51.159	0.208	-0.198
-573.704	-104.369	-0.314	-0.073
-572.690	800.000	-0.057	-0.169
-571.675	121.811	-0.158	-0.198
-570.661	-40.815	-0.185	-0.096
-569.646	-97.784	0.221	0.057
-568.631	689.268	-0.120	-0.314
-567.617	-200.000	-0.025	-0.159
-566.602	71.543	-0.133	0.139
-565.588	-75.509	0.223	0.080
-564.573	533.996	-0.153	-0.364
-563.558	800.000	-0.110	-0.336
-562.544	130.797	-0.343	0.442
-561.529	115.299	-0.096	0.118
-560.515	439.733	-0.088	-0.193
-559.500	-200.000	-0.048	-0.227
-558.485	-146.119	-0.301	0.027
-557.471	201.284	-0.269	0.416
-556.456	-33.457	0.174	-0.096
-555.442	-51.165	-0.133	0.062
-554.427	34.640	-0.145	0.127
-553.412	-70.132	-0.181	-0.069
-552.398	-200.000	-0.000	-0.087
-551.383	-60.870	-0.134	0.057
-550.369	-50.527	-0.205	0.097
-549.354	359.552	-0.112	0.225
-548.339	-67.007	-0.121	-0.048
-547.325	-200.000	0.036	0.337
-546.310	643.338	0.119	0.304
-545.296	-97.534	-0.328	-0.085
-544.281	-79.622	-0.392	-0.133
-543.266	68.680	0.243	0.250
-542.252	63.452	-0.125	0.126
-541.237	141.506	0.174	-0.231
-540.223	-77.752	-0.090	-0.031
-539.208	49.656	-0.303	0.286
-538.193	-200.000	0.013	0.116
-537.179	-24.233	-0.275	-0.164
-536.164	-28.468	0.226	0.131
-535.150	148.846	0.223	0.302
-534.135	-200.000	-0.009	0.043
-533.121	14.269	0.146	0.114
-532.106	-57.988	-0.062	0.027
-531.091	30.286	0.079	-0.068
-530.077	-51.648	-0.261	0.122
-529.062	-81.717	-0.103	0.034
-528.048	-15.513	-0.268	0.171
-527.033	-96.005	-0.208	-0.055
-526.018	-145.055	-0.100	0.009
-525.004	800.000	0.054	0.222
-523.989	162.596	-0.201	0.283
-522.975	83.876	-0.220	0.241
-521.960	-19.096	-0.226	-0.141
-520.945	-112.128	-0.198	-0.040
-519.931	33.476	0.222	0.193
-518.916	50.226	0.104	0.098
-517.902	-21.279	-0.103	0.063
-516.887	118.705	0.251	0.311
-515.872	244.138	-0.113	-0.190
-514.858	-68.508	0.003	-0.001
-513.843	141.967	0.172	-0.228
-512.829	-111.729	0.187	0.038
-511.814	-59.321	0.389	-0.167
-510.799	443.288	0.085	0.187
-509.785	57.047	0.091	-0.089
-508.770	800.000	0.087	0.335
-507.756	-200.000	-0.018	0.184
-506.741	800.000	-0.133	-0.414
-505.726	547.955	0.134	0.320
-504.712	800.000	-0.046	0.196
-503.697	-200.000	-0.187	0.001
-502.683	376.858	0.116	-0.236
-501.668	506.187	-0.051	0.118
-500.653	-119.770	-0.313	-0.054
-499.639	-37.905	-0.104	0.055
-498.624	-69.966	0.077	-0.029
-497.610	-102.694	-0.108	-0.026
-496.595	-160.016	-0.335	0.018
-495.581	-96.834	-0.392	-0.103
-494.566	-80.991	0.152	-0.050
-493.551	-11.993	0.066	-0.043
-492.537	800.000	-0.028	-0.116
-491.522	24.869	0.238	0.197
-490.508	-200.000	-0.003	0.306
-489.493	147.293	-0.123	0.166
-488.478	84.143	-0.123	-0.134
-487.464	800.000	0.077	-0.217
-486.449	65.743	0.089	0.090
-485.435	-116.950	-0.088	0.016
-484.420	-200.000	0.009	-0.085
-483.405	-200.000	-0.005	-0.074
-482.391	800.000	-0.067	-0.198
-481.376	-14.487	0.145	0.093
-480.362	-40.070	-0.314	-0.164
-479.347	29.938	-0.108	0.092
-478.332	800.000	0.068	-0.282
-477.318	800.000	0.033	-0.118
-476.303	367.331	-0.120	0.241
-475.289	-150.739	-0.121	0.009
-474.274	124.962	-0.202	-0.254
-473.259	-165.343	-0.237	0.010
-472.245	507.794	-0.029	0.068
-471.230	163.641	-0.149	0.210
-470.216	-200.000	-0.037	-0.172
-469.201	10.921	0.208	0.159
-468.186	452.764	0.123	-0.271
-467.172	2.184	-0.344	0.248
-466.157	800.000	-0.075	0.322
-465.143	65.853	0.098	0.099
-464.128	-38.233	0.035	0.018
-463.113	124.910	0.163	-0.205
-462.099	-150.084	0.162	-0.013
-461.084	800.000	-0.086	0.303
-460.070	414.046	0.090	-0.192
-459.055	-77.405	0.139	-0.048
-458.040	-83.711	0.383	-0.122
-457.026	360.819	-0.113	-0.226
-456.011	800.000	-0.066	0.205
-454.997	-107.295	-0.076	-0.017
-453.982	239.081	-0.080	0.133
-452.968	6.880	-0.134	-0.100
-451.953	148.740	0.076	-0.102
-450.938	-147.177	-0.288	0.024
-449.924	-113.632	0.268	0.052
-448.909	800.000	0.065	0.191
-447.895	-91.138	-0.133	-0.038
-446.880	-34.528	0.105	-0.057
-445.865	800.000	-0.135	-0.379
-444.851	-73.435	-0.037	-0.014
-443.836	-200.000	-0.036	0.177
-442.822	350.492	-0.116	-0.229
-441.807	44.821	-0.302	0.277
-440.792	-80.199	0.115	-0.038
-439.778	-91.347	0.157	-0.045
-438.763	-70.730	-0.208	-0.078
-437.749	-200.000	0.027	0.337
-436.734	-146.819	-0.060	-0.005
-435.719	-49.189	0.075	-0.036
-434.705	-162.311	0.331	-0.016
-433.690	-133.672	0.175	-0.022
-432.676	-96.945	0.286	0.075
-431.661	-200.000	-0.018	-0.222
-430.646	-78.546	-0.103	-0.035
-429.632	-200.000	-0.008	-0.155
-428.617	-162.519	-0.109	0.005
-427.603	-73.889	-0.195	0.071
-426.588	-112.377	0.288	-0.057
-425.573	-193.933	0.302	-0.003
-424.559	41.396	-0.126	-0.114
-423.544	-84.565	-0.226	0.071
-422.530	-126.642	0.083	0.012
-421.515	-200.000	-0.001	-0.167
-420.500	-59.689	0.313	-0.134
-419.486	800.000	0.040	-0.132
-418.471	-5.007	-0.104	0.071
-417.457	-139.665	-0.360	-0.038
-416.442	243.133	-0.127	0.212
-415.428	-56.199	-0.135	-0.060
-414.413	605.746	0.069	0.170
-413.398	800.000	-0.048	-0.208
-412.384	800.000	-0.004	0.012
-411.369	-200.000	0.050	0.272
-410.355	-26.944	0.210	0.122
-409.340	-138.798	-0.385	-0.042
-408.325	-80.654	-0.154	0.051
-407.311	68.984	-0.016	0.016
-406.296	800.000	0.061	0.218
-405.282	-136.479	0.294	0.034
-404.267	-82.480	-0.052	-0.017
-403.252	55.656	-0.176	0.170
-402.238	-91.606	0.138	0.039
-401.223	-137.716	0.557	-0.062
-400.209	-83.761	-0.359	-0.114
-399.194	-110.657	-0.206	-0.042
-398.179	-200.000	-0.050	-0.246
-397.165	154.998	0.158	0.216
-396.150	-57.268	0.122	0.053
-395.136	-71.280	-0.229	-0.086
-394.121	231.128	0.081	-0.133
-393.106	-114.038	-0.055	0.011
-392.092	-200.000	0.019	0.145
-391.077	0.165	-0.123	-0.087
-390.063	-86.165	-0.278	0.085
-389.048	800.000	-0.020	0.084
-388.033	148.920	-0.200	-0.269
-387.019	81.327	0.267	0.287
-386.004	4.140	-0.035	0.026
-384.990	-67.295	0.093	0.036
-383.975	13.082	0.173	0.133
-382.960	13.972	0.080	0.062
-381.946	273.479	0.115	-0.202
-380.931	-98.809	0.228	0.058
-379.917	-200.000	0.030	0.345
-378.902	132.573	-0.214	-0.275
-377.888	-179.832	0.147	0.003
-376.873	-122.601	0.356	0.058
-375.858	-62.775	0.267	-0.110
-374.844	152.163	-0.074	-0.100
-373.829	54.342	-0.291	-0.279
-372.815	-113.110	0.033	0.006
-371.800	-15.002	0.124	0.079
-370.785	-28.482	0.141	-0.081
-369.771	1.551	-0.185	0.132
-368.756	21.502	0.051	0.041
-367.742	-103.930	-0.278	0.065
-366.727	800.000	0.089	-0.314
-365.712	800.000	0.101	0.349
-364.698	-87.543	0.290	0.087
-363.683	-8.430	-0.158	-0.105
-362.669	-81.389	-0.372	0.122
-361.654	98.624	-0.128	0.147
-360.639	-1.798	-0.146	0.102
-359.625	-172.436	0.165	0.005
-358.610	-101.466	-0.013	-0.003
-357.596	-76.317	0.069	0.024
-356.581	61.458	0.180	-0.178
-355.566	800.000	0.095	0.369
-354.552	227.227	0.147	-0.238
-353.537	298.880	-0.235	0.430
-352.523	-66.757	0.235	-0.093
-351.508	-90.337	0.067	0.019
-350.493	-200.000	-0.027	-0.266
-349.479	-36.365	0.096	0.051
-348.464	76.253	-0.080	-0.084
-347.450	800.000	-0.027	-0.098
-346.435	-175.049	0.172	0.005
-345.420	800.000	-0.049	0.200
-344.406	-115.747	0.175	-0.033
-343.391	328.353	-0.086	0.164
-342.377	-60.243	0.434	0.184
-341.362	634.235	-0.109	-0.274
-340.348	65.288	-0.159	-0.160
-339.333	752.961	0.043	-0.115
-338.318	-133.590	-0.235	0.029
-337.304	179.732	-0.097	-0.142
-336.289	-131.624	-0.426	-0.056
-335.275	800.000	0.024	-0.075
-334.260	-63.681	-0.073	0.030
-333.245	-185.859	0.219	-0.003
-332.231	226.649	0.175	0.282
-331.216	-150.069	0.393	-0.030
-330.202	-76.949	-0.123	-0.043
-329.187	-46.701	-0.295	0.143
-328.172	59.739	-0.199	0.195
-327.158	-44.856	-0.194	0.096
-326.143	-200.000	0.031	0.270
-325.129	49.101	0.179	0.167
-324.114	-164.564	-0.075	-0.003
-323.099	136.691	-0.169	-0.219
-322.085	800.000	0.088	-0.342
-321.070	-200.000	0.011	-0.089
-320.056	17.979	0.332	0.263
-319.041	-121.316	0.317	-0.052
-318.026	262.628	-0.150	0.258
-317.012	38.215	0.196	0.174
-315.997	-110.443	-0.337	-0.070
-314.983	59.674	0.182	-0.178
-313.968	-115.405	-0.215	-0.040
-312.953	31.395	-0.102	0.087
-311.939	34.385	0.142	0.123
-310.924	800.000	-0.083	-0.303
-309.910	24.791	0.283	0.232
-308.895	-63.996	-0.208	0.084
-307.880	-92.996	-0.184	-0.051
-306.866	-81.041	0.098	0.032
-305.851	2.422	-0.167	0.120
-304.837	-35.982	-0.130	0.070
-303.822	344.815	0.148	-0.288
-302.807	30.121	-0.220	-0.186
-301.793	-57.909	-0.233	-0.101
-300.778	-65.269	0.216	0.086
-299.764	800.000	-0.071	0.253
-298.749	-200.000	0.004	0.036
-297.735	678.017	0.036	0.093
-296.720	-200.000	-0.006	-0.337
-295.705	87.849	0.122	0.134
-294.691	509.219	-0.064	-0.148
-293.676	-27.762	-0.262	0.151
-292.662	290.706	0.076	0.137
-291.647	691.170	-0.123	-0.321
-290.632	25.065	-0.250	0.206
-289.618	-55.235	-0.202	0.090
-288.603	271.225	0.120	0.210
-287.589	665.489	-0.231	0.591
-286.574	40.747	-0.084	-0.075
-285.559	157.490	-0.045	0.062
-284.545	267.346	0.101	0.175
-283.530	77.743	-0.143	0.152
-282.516	-147.808	-0.179	0.015
-281.501	-28.654	-0.166	0.095
-280.486	170.308	0.225	-0.319
-279.472	133.496	0.198	-0.254
-278.457	543.105	-0.099	-0.233
-277.443	-103.218	0.287	0.067
-276.428	800.000	-0.028	0.087
-275.413	-123.032	0.259	0.041
-274.399	557.867	0.129	-0.309
-273.384	-72.154	0.092	-0.034
-272.370	800.000	0.021	-0.085
-271.355	-105.819	0.385	0.086
-270.340	-200.000	-0.069	0.526
-269.326	-111.185	0.075	-0.015
-268.311	-16.287	0.429	-0.270
-267.297	380.826	0.082	0.166
-266.282	-118.868	-0.236	-0.041
-265.267	91.032	0.329	0.366
-264.253	-27.324	0.304	0.175
-263.238	800.000	-0.077	-0.292
-262.224	-200.000	0.034	-0.244
-261.209	354.183	-0.042	0.083
-260.195	-66.056	-0.179	0.071
-259.180	-160.160	0.532	-0.029
-258.165	-89.224	-0.148	-0.043
-257.151	-118.295	0.237	0.042
-256.136	219.369	0.187	-0.297
-255.122	477.951	-0.020	-0.044
-254.107	-200.000	-0.026	0.180
-253.092	800.000	0.088	-0.298
-252.078	167.891	0.065	0.091
-251.063	-200.000	0.028	-0.215
-250.049	-110.164	0.136	-0.028
-249.034	-200.000	0.020	-0.109
-248.019	-38.161	0.119	0.062
-247.005	-111.770	-0.215	-0.043
-245.990	-121.846	0.257	-0.042
-244.976	21.930	-0.113	-0.091
-243.961	-118.488	-0.137	-0.024
-242.946	-131.103	-0.081	0.011
-241.932	-30.224	0.354	0.199
-240.917	-125.364	-0.335	0.051
-239.903	-101.058	-0.295	-0.072
-238.888	552.982	0.111	-0.264
-237.873	158.683	0.132	0.181
-236.859	86.801	0.180	0.197
-235.844	30.598	-0.134	0.114
-234.830	221.436	-0.087	0.138
-233.815	-114.189	-0.254	-0.049
-232.800	-191.059	-0.374	-0.004
-231.786	-123.151	-0.320	0.051
-230.771	800.000	-0.098	0.280
-229.757	-86.499	0.286	0.087
-228.742	-200.000	-0.012	-0.388
-227.727	128.793	0.178	0.224
-226.713	-11.420	-0.079	0.051
-225.698	-200.000	0.033	-0.210
-224.684	-168.173	0.363	-0.014
-223.669	137.309	0.240	0.311
-222.655	-40.783	-0.384	0.197
-221.640	15.150	-0.138	0.107
-220.625	-200.000	-0.001	-0.011
-219.611	-64.222	0.335	0.135
-218.596	766.613	-0.045	-0.120
-217.582	-75.304	0.146	-0.051
-216.567	157.122	0.084	-0.114
-215.552	-60.928	-0.167	-0.070
-214.538	547.081	0.105	-0.248
-213.523	372.208	0.074	0.149
-212.509	228.028	0.188	0.303
-211.494	-200.000	0.046	-0.345
-210.479	-200.000	-0.009	0.071
-209.465	84.405	0.319	0.345
-208.450	-76.244	0.253	0.088
-207.436	-99.216	-0.145	-0.036
-206.421	-21.799	0.194	0.117
-205.406	9.286	0.168	0.126
-204.392	-25.019	0.110	-0.064
-203.377	-60.930	-0.259	0.108
-202.363	-22.736	-0.272	0.162
-201.348	800.000	0.044	0.166
-200.333	10.944	-0.092	0.070
-199.319	-143.927	0.226	-0.021
-198.304	38.202	-0.416	-0.366
-197.290	-124.689	0.029	0.004
-196.275	65.263	0.098	-0.098
-195.260	644.828	-0.096	0.243
-194.246	-89.795	0.103	0.030
-193.231	-200.000	0.065	0.312
-192.217	-29.626	0.101	-0.057
-191.202	-200.000	-0.052	-0.382
-190.187	391.811	0.105	0.216
-189.173	43.787	0.161	0.146
-188.158	131.269	0.164	0.208
-187.144	324.030	-0.164	-0.308
-186.129	-61.547	0.257	0.107
-185.114	-119.850	0.258	-0.044
-184.100	112.555	0.080	0.096
-183.085	-200.000	0.385	-0.002
-182.071	38.806	0.090	-0.079
-181.056	-104.441	-0.254	0.058
-180.042	164.455	0.076	0.106
-179.027	800.000	-0.038	-0.127
-178.012	338.384	0.177	-0.340
-176.998	-82.141	0.103	-0.033
-175.983	-157.026	-0.096	-0.006
-174.969	-164.788	0.066	-0.003
-173.954	-143.269	0.285	0.027
-172.939	800.000	-0.009	0.028
-171.925	58.292	0.382	-0.370
-170.910	209.926	0.152	-0.236
-169.896	-1.242	-0.151	-0.105
-168.881	-200.000	0.013	-0.234
-167.866	-116.649	0.150	0.027
-166.852	33.876	-0.117	0.100
-165.837	128.559	-0.338	-0.425
-164.823	-162.308	0.106	0.005
-163.808	6.810	0.323	-0.237
-162.793	165.862	-0.132	-0.184
-161.779	-200.000	0.021	-0.101
-160.764	-200.000	0.125	-0.001
-159.750	52.080	-0.220	0.206
-158.735	-70.626	-0.115	-0.043
-157.720	-120.093	0.150	0.025
-156.706	-126.837	0.071	-0.010
-155.691	-119.368	-0.322	0.055
-154.677	34.782	0.146	0.126
-153.662	-200.000	-0.032	0.191
-152.647	800.000	-0.125	-0.372
-151.633	23.997	-0.098	0.079
-150.618	218.362	0.086	-0.135
-149.604	-73.266	0.283	0.102
-148.589	-13.968	0.053	0.034
-147.574	-200.000	0.014	-0.368
-146.560	800.000	-0.061	-0.194
-145.545	-134.026	0.334	0.041
-144.531	27.117	0.172	0.142
-143.516	-61.264	0.053	0.022
-142.502	-73.530	0.343	0.124
-141.487	37.820	-0.236	0.207
-140.472	-200.000	0.002	-0.294
-139.458	800.000	0.038	0.110
-138.443	-76.543	-0.335	-0.116
-137.429	208.189	-0.104	-0.160
-136.414	51.298	-0.115	0.108
-135.399	45.983	0.143	0.130
-134.385	-157.715	-0.040	-0.002
-133.370	-200.000	0.020	-0.141
-132.356	130.070	0.091	0.115
-131.341	-27.563	0.281	-0.161
-130.326	173.180	0.412	-0.585
-129.312	-72.647	0.209	0.076
-128.297	-200.000	0.000	-0.156
-127.283	-133.605	0.217	0.027
-126.268	93.082	-0.179	0.199
-125.253	-48.736	-0.175	0.083
-124.239	-153.096	-0.176	0.012
-123.224	-150.879	0.316	0.024
-122.210	-200.000	0.029	0.144
-121.195	422.452	0.113	0.240
-120.180	271.035	-0.147	0.255
-119.166	-200.000	-0.003	0.065
-118.151	7.616	-0.234	-0.172
-117.137	-73.413	0.130	0.047
-116.122	189.924	-0.094	0.139
-115.107	-38.826	-0.086	-0.044
-114.093	414.775	0.018	-0.038
-113.078	-200.000	-0.046	-0.286
-112.064	47.619	0.095	-0.087
-111.049	454.889	-0.147	0.320
-110.034	54.282	-0.097	0.092
-109.020	11.641	0.193	0.145
-108.005	245.946	0.117	-0.195
-106.991	60.557	-0.298	0.291
-105.976	-125.385	-0.105	0.016
-104.962	-113.317	0.294	-0.057
-103.947	800.000	-0.123	-0.439
-102.932	800.000	-0.059	0.225
-101.918	-17.547	0.164	-0.101
-100.903	33.354	-0.123	0.105
-99.889	12.288	0.069	-0.052
-98.874	-94.542	0.362	-0.097
-97.859	136.875	-0.204	0.262
-96.845	7.838	-0.265	0.195
-95.830	687.198	-0.128	0.329
-94.816	475.515	0.105	-0.234
-93.801	-158.347	0.291	0.017
-92.786	177.129	0.112	0.161
-91.772	-150.841	-0.054	0.004
-90.757	-117.070	0.197	-0.035
-89.743	142.739	0.188	0.245
-88.728	-91.874	0.285	0.079
-87.713	-103.646	0.324	-0.075
-86.699	-200.000	0.026	-0.482
-85.684	357.075	0.105	-0.207
-84.670	-132.818	-0.092	-0.012
-83.655	-200.000	0.019	-0.126
-82.640	-200.000	0.022	-0.243
-81.626	189.893	0.136	0.200
-80.611	360.866	0.130	0.257
-79.597	-200.000	0.004	0.041
-78.582	239.434	-0.020	-0.033
-77.567	-200.000	0.026	-0.287
-76.553	473.011	0.083	0.184
-75.538	-126.213	0.148	0.022
-74.524	428.118	-0.045	0.097
-73.509	-118.304	0.163	0.028
-72.494	33.165	-0.208	-0.177
-71.480	7.546	0.232	-0.171
-70.465	40.461	-0.102	-0.090
-69.451	800.000	-0.094	0.356
-68.436	-85.681	-0.098	0.030
-67.422	-81.625	-0.140	0.045
-66.407	232.476	-0.265	-0.428
-65.392	-185.581	-0.260	0.004
-64.378	33.031	0.130	-0.110
-63.363	-48.415	0.251	0.119
-62.349	-200.000	-0.020	-0.108
-61.334	56.581	-0.778	-0.744
-60.319	-31.645	0.554	0.306
-59.305	800.000	-0.288	-0.953
-58.290	258.536	0.661	1.120
-57.276	281.417	0.743	1.308
-56.261	-200.000	108.376	591.219
-55.246	446.877	1479.261	3197.605
-54.232	146.658	2663.950	3517.611
-53.217	105.073	2181.419	2529.317
-52.203	39.789	1712.248	1509.896
-51.188	32.752	1526.177	1297.555
-50.173	30.396	1500.074	1259.354
-49.159	50.972	1555.053	1448.216
-48.144	51.468	1571.324	1466.738
-47.130	32.877	1528.285	1300.005
-46.115	30.012	1513.463	1267.769
-45.100	29.711	1509.991	1262.757
-44.086	29.662	1508.116	1260.803
-43.071	29.668	1505.489	1258.595
-42.057	29.674	1503.982	1257.327
-41.042	29.611	1503.042	1256.060
-40.027	29.616	1501.350	1254.635
-39.013	29.743	1499.026	1253.499
-37.998	29.665	1498.794	1252.727
-36.984	29.651	1497.679	1251.655
-35.969	29.614	1496.280	1250.185
-34.954	29.615	1494.769	1248.876
-33.940	29.677	1493.351	1248.064
-32.925	29.593	1492.166	1246.453
-31.911	29.640	1490.755	1245.546
-30.896	29.711	1489.368	1244.812
-29.881	29.679	1488.066	1243.463
-28.867	29.742	1486.730	1242.719
-27.852	29.708	1485.267	1241.221
-26.838	29.728	1484.286	1240.486
-25.823	29.821	1482.318	1239.416
-24.809	29.721	1481.056	1237.637
-23.794	29.712	1479.736	1236.426
-22.779	29.877	1477.765	1235.832
-21.765	29.684	1477.468	1234.246
-20.750	29.716	1476.372	1233.496
-19.736	29.681	1474.449	1231.606
-18.721	29.663	1473.925	1231.004
-17.706	29.664	1472.837	1230.049
-16.692	29.677	1471.444	1228.924
-15.677	29.657	1470.175	1227.686
-14.663	29.623	1470.057	1227.308
-13.648	29.635	1468.510	1226.048
-12.633	29.711	1467.670	1225.801
-11.619	29.662	1466.878	1224.770
-10.604	29.684	1466.200	1224.296
-9.590	29.671	1465.063	1223.216
-8.575	29.657	1464.657	1222.732
-7.560	29.603	1463.276	1221.174
-6.546	29.594	1462.737	1220.621
-5.531	29.596	1462.167	1220.107
-4.517	29.607	1460.976	1219.137
-3.502	29.566	1459.691	1217.749
-2.487	29.615	1458.948	1217.399
-1.473	29.538	1457.611	1215.731
-0.458	29.593	1456.171	1214.846
0.556	27.896	1445.731	1203.716
1.571	24.696	1420.545	1161.881
2.586	21.234	1358.561	1089.528
3.600	19.510	1275.421	1012.661
4.615	18.395	1230.577	970.653
5.629	16.022	1174.360	913.382
6.644	8.102	1089.623	807.424
7.659	1.353	1049.120	744.342
8.673	0.289	1043.167	734.866
9.688	0.088	1040.360	731.846
10.702	0.020	1038.802	730.356
11.717	0.134	1036.408	729.162
12.731	2.641	1039.015	743.097
13.746	10.808	1050.117	790.856
14.761	16.869	1057.452	825.926
15.775	17.469	1057.584	828.879
16.790	16.507	1055.026	822.128
17.804	15.488	1052.988	815.520
18.819	14.586	1051.031	809.555
19.834	14.087	1049.906	806.199
20.848	13.901	1048.868	804.431
21.863	13.550	1048.081	802.055
22.877	13.320	1047.653	800.543
23.892	13.211	1046.411	798.995
24.907	13.174	1045.225	797.840
25.921	13.020	1045.061	796.901
26.936	13.103	1044.697	796.956
27.950	13.060	1044.015	796.159
28.965	13.084	1043.042	795.462
29.980	13.306	1041.587	795.349
30.994	13.403	1040.502	794.914
32.009	13.353	1039.857	794.110
33.023	13.365	1039.443	793.784
34.038	13.339	1038.530	792.893
35.053	13.400	1037.712	792.489
36.067	13.215	1037.106	791.072
37.082	13.206	1036.168	790.240
38.096	13.299	1035.146	789.838
39.111	13.333	1034.445	789.395
40.126	13.203	1033.559	788.027
41.140	13.294	1032.233	787.382
42.155	13.147	1031.260	785.870
43.169	13.131	1030.634	785.246
44.184	13.144	1029.417	784.313
45.199	13.149	1028.476	783.549
46.213	13.130	1027.575	782.704
47.228	13.045	1026.900	781.720
48.242	13.241	1025.397	781.432
49.257	13.168	1024.857	780.606
50.271	13.260	1023.779	780.150
51.286	13.265	1022.894	779.432
52.301	13.246	1021.798	778.434
53.315	13.210	1021.380	777.880
54.330	13.267	1021.000	777.789
55.344	13.097	1019.946	776.121
56.359	13.128	1018.996	775.475
57.374	13.239	1017.673	774.917
58.388	13.271	1017.033	774.513
59.403	13.124	1016.279	773.183
60.417	13.108	1015.561	772.492
61.432	13.111	1015.188	772.152
62.447	13.150	1014.438	771.695
63.461	13.087	1013.036	770.269
64.476	13.052	1012.096	769.323
65.490	12.908	1011.527	768.151
66.505	13.011	1010.213	767.562
67.520	13.016	1009.681	767.116
68.534	13.139	1009.559	767.526
69.549	13.136	1008.259	766.458
70.563	13.119	1007.405	765.661
71.578	13.024	1006.822	764.708
72.593	12.979	1005.783	763.643
73.607	12.855	1004.902	762.334
74.622	12.897	1004.248	761.963
75.636	13.050	1003.019	761.673
76.651	12.950	1002.128	760.467
77.666	13.024	1001.798	760.490
78.680	13.107	1000.990	760.191
79.695	12.890	1000.629	758.853
80.709	12.917	1000.155	758.549
81.724	12.993	999.019	757.967
82.739	13.019	998.619	757.718
83.753	13.123	997.767	757.482
84.768	13.208	996.906	757.150
85.782	13.315	996.472	757.246
86.797	13.356	995.521	756.642
87.812	13.391	994.522	755.972
88.826	13.265	994.046	754.970
89.841	13.178	993.094	753.784
90.855	13.171	992.258	753.053
91.870	13.318	991.603	753.155
92.884	13.320	991.128	752.737
93.899	13.406	990.161	752.330
94.914	13.279	989.670	751.311
95.928	13.336	988.814	750.855
96.943	13.320	987.980	750.081
97.957	13.365	987.294	749.700
98.972	13.369	986.435	748.997
99.987	13.384	985.640	748.397
101.001	13.314	985.044	747.559
102.016	13.349	984.294	747.085
103.030	13.391	983.438	746.558
104.045	13.275	982.415	745.193
105.060	13.287	981.483	744.475
106.074	13.339	980.905	744.203
107.089	13.277	979.645	742.903
108.103	13.170	978.792	741.707
109.118	13.215	977.494	740.863
110.133	13.139	977.026	740.102
111.147	13.246	975.707	739.514
112.162	13.091	975.375	738.505
113.176	13.167	974.755	738.311
114.191	13.152	973.731	737.401
115.206	13.221	972.864	736.988
116.220	13.226	972.043	736.325
117.235	13.216	971.282	735.636
118.249	13.135	970.422	734.559
119.264	13.278	969.071	734.109
120.279	13.185	968.230	732.993
121.293	13.183	967.390	732.283
122.308	13.196	966.773	731.810
123.322	13.146	966.252	731.128
124.337	13.091	964.983	729.860
125.352	13.043	964.162	728.961
126.366	13.074	962.950	728.121
127.381	13.119	961.870	727.437
128.395	13.179	960.635	726.702
129.410	13.156	960.418	726.374
130.424	13.015	959.508	725.002
131.439	13.136	958.304	724.555
132.454	13.242	957.523	724.366
133.468	13.306	956.437	723.763
134.483	13.303	956.065	723.402
135.497	13.278	955.554	722.842
136.512	13.163	955.072	721.911
137.527	13.237	953.806	721.214
138.541	13.235	952.837	720.409
139.556	13.127	952.474	719.602
140.570	13.207	951.603	719.225
141.585	13.292	950.840	718.956
142.600	13.419	950.053	718.849
143.614	13.396	949.429	718.216
144.629	13.412	948.534	717.541
145.643	13.446	947.971	717.200
146.658	13.287	946.852	715.604
147.673	13.378	945.963	715.262
148.687	13.355	945.235	714.547
149.702	13.331	944.317	713.686
150.716	13.284	943.195	712.573
151.731	13.272	942.806	712.166
152.746	13.328	941.990	711.728
153.760	13.362	941.271	711.264
154.775	13.301	940.229	710.153
155.789	13.485	939.450	710.292
156.804	13.394	938.843	709.380
157.819	13.344	938.001	708.465
158.833	13.455	937.264	708.322
159.848	13.530	936.720	708.170
160.862	13.453	936.266	707.434
161.877	13.423	935.429	706.612
162.892	13.470	934.422	705.990
163.906	13.382	933.647	704.967
164.921	13.397	933.332	704.729
165.935	13.384	931.946	703.563
166.950	13.562	930.641	703.275
167.964	13.383	930.228	702.139
168.979	13.438	929.373	701.665
169.994	13.403	928.204	700.573
171.008	13.527	927.251	700.317
172.023	13.581	926.153	699.652
173.037	13.516	925.925	699.146
174.052	13.610	924.880	698.690
175.067	13.530	924.527	698.023
176.081	13.472	923.769	697.144
177.096	13.432	922.716	696.122
178.110	13.612	921.678	696.032
179.125	13.492	921.199	695.106
180.140	13.533	920.446	694.647
181.154	13.586	919.782	694.305
182.169	13.559	919.431	693.868
183.183	13.715	917.948	693.339
184.198	13.562	917.677	692.434
185.213	13.743	917.106	692.698
186.227	13.681	916.465	691.894
187.242	13.615	916.167	691.330
188.256	13.723	915.445	691.177
189.271	13.835	914.423	690.811
190.286	13.922	913.507	690.416
191.300	13.728	912.993	689.161
192.315	13.618	912.450	688.236
193.329	13.531	911.804	687.325
194.344	13.492	911.162	686.621
195.359	13.749	910.555	687.164
196.373	13.588	909.966	685.995
197.388	13.690	909.491	685.996
198.402	13.830	908.915	686.082
199.417	13.848	908.750	685.969
200.432	13.923	908.036	685.680
201.446	14.077	907.262	685.671
202.461	14.092	906.821	685.338
203.475	14.008	906.440	684.645
204.490	14.078	905.953	684.502
205.504	14.049	904.928	683.548
206.519	13.947	904.136	682.473
207.534	13.906	903.680	681.897
208.548	13.913	902.905	681.283
209.563	13.913	902.181	680.673
210.577	13.912	901.535	680.125
211.592	13.994	900.755	679.809
212.607	14.155	900.144	679.947
213.621	14.098	899.769	679.373
214.636	14.163	898.965	678.970
215.650	13.944	898.738	677.843
216.665	14.011	898.178	677.636
217.680	14.263	897.308	677.947
218.694	14.220	896.991	677.469
219.709	14.129	896.588	676.737
220.723	14.184	895.821	676.322
221.738	14.221	894.738	675.591
222.753	14.136	894.146	674.741
223.767	14.216	893.815	674.757
224.782	14.320	892.687	674.266
225.796	14.219	892.294	673.499
226.811	14.203	891.832	673.028
227.826	14.221	891.004	672.416
228.840	14.334	890.043	672.090
229.855	14.234	889.808	671.447
230.869	14.162	888.847	670.373
231.884	14.224	888.332	670.173
232.899	14.400	887.682	670.332
233.913	14.271	886.822	669.108
234.928	14.220	886.147	668.335
235.942	14.308	885.518	668.154
236.957	14.198	885.076	667.320
237.972	14.232	884.472	666.941
238.986	14.275	883.767	666.523
240.001	14.303	883.256	666.190
241.015	14.304	882.285	665.404
242.030	14.325	881.504	664.837
243.045	14.364	881.010	664.564
244.059	14.450	880.326	664.331
245.074	14.422	879.600	663.611
246.088	14.524	878.863	663.402
247.103	14.388	879.141	663.015
248.117	14.497	878.255	662.721
249.132	14.412	877.771	661.960
250.147	14.545	877.108	661.928
251.161	14.643	876.581	661.860
252.176	14.722	875.668	661.425
253.190	14.763	874.869	660.923
254.205	14.760	874.516	660.589
255.220	14.799	873.882	660.206
256.234	14.772	873.325	659.620
257.249	14.902	872.521	659.467
258.263	14.728	872.408	658.637
259.278	14.979	871.462	658.851
260.293	14.836	871.248	658.069
261.307	14.973	870.396	657.905
262.322	14.847	870.263	657.250
263.336	14.883	869.403	656.687
264.351	14.915	868.874	656.354
265.366	15.110	867.568	656.073
266.380	14.883	867.656	655.192
267.395	15.185	866.448	655.404
268.409	15.028	865.900	654.316
269.424	15.013	865.334	653.774
270.439	14.920	864.914	653.036
271.453	15.005	864.000	652.617
272.468	14.917	863.269	651.664
273.482	15.028	862.780	651.669
274.497	15.083	862.072	651.291
275.512	15.072	861.502	650.760
276.526	15.003	860.656	649.797
277.541	15.077	859.548	649.188
278.555	15.027	859.551	648.942
279.570	15.212	858.627	648.901
280.585	15.156	858.434	648.482
281.599	15.194	858.138	648.348
282.614	15.259	857.019	647.697
283.628	15.097	856.655	646.737
284.643	15.159	856.045	646.460
285.657	15.069	855.603	645.722
286.672	15.240	854.884	645.780
287.687	15.229	854.512	645.400
288.701	15.363	853.445	645.053
289.716	15.325	853.066	644.564
290.730	15.419	852.623	644.533
291.745	15.313	852.257	643.792
292.760	15.341	851.462	643.242
293.774	15.343	851.091	642.913
294.789	15.406	850.519	642.665
295.803	15.450	849.805	642.236
296.818	15.522	849.029	641.870
297.833	15.449	848.041	640.788
298.847	15.445	847.863	640.578
299.862	15.289	847.355	639.543
300.876	15.427	846.594	639.437
301.891	15.434	845.878	638.869
302.906	15.419	845.148	638.203
303.920	15.526	844.428	638.010
304.935	15.480	844.006	637.459
305.949	15.486	843.510	637.052
306.964	15.618	842.724	636.901
307.979	15.467	842.753	636.296
308.993	15.703	841.952	636.527
310.008	15.690	841.121	635.793
311.022	15.704	840.569	635.372
312.037	15.491	840.575	634.518
313.052	15.522	839.790	633.987
314.066	15.585	839.089	633.637
315.081	15.562	838.528	633.073
316.095	15.497	838.033	632.396
317.110	15.712	837.050	632.406
318.125	15.648	836.462	631.665
319.139	15.505	836.412	631.035
320.154	15.721	835.813	631.339
321.168	15.600	835.295	630.439
322.183	15.728	834.277	630.094
323.197	15.929	833.943	630.539
324.212	15.578	833.668	628.961
325.227	15.752	832.864	628.950
326.241	15.749	832.539	628.638
327.256	15.725	831.709	627.865
328.270	15.582	831.503	627.121
329.285	15.806	831.082	627.583
330.300	15.767	830.263	626.765
331.314	15.783	829.314	626.050
332.329	15.879	829.266	626.317
333.343	15.887	828.374	625.616
334.358	15.862	828.196	625.334
335.373	15.843	827.236	624.484
336.387	15.855	826.947	624.254
337.402	16.014	826.557	624.493
338.416	15.943	825.778	623.588
339.431	16.003	825.181	623.303
340.446	15.992	824.639	622.797
341.460	16.091	823.867	622.525
342.475	16.164	823.487	622.454
343.489	16.021	822.842	621.382
344.504	16.085	822.503	621.308
345.519	16.085	821.876	620.779
346.533	16.251	821.127	620.769
347.548	16.184	820.832	620.246
348.562	16.112	820.502	619.677
349.577	16.146	819.638	619.093
350.592	16.132	819.173	618.636
351.606	16.060	819.180	618.322
352.621	16.182	818.263	618.021
353.635	16.112	818.108	617.595
354.650	16.063	817.586	616.967
355.665	16.189	816.855	616.821
356.679	16.163	816.667	616.530
357.694	16.255	816.268	616.510
358.708	16.266	815.241	615.719
359.723	16.226	814.863	615.235
360.738	16.266	814.465	615.023
361.752	16.272	814.058	614.684
362.767	16.280	813.738	614.418
363.781	16.234	813.642	614.124
364.796	16.377	812.700	613.879
365.810	16.401	812.365	613.659
366.825	16.348	812.045	613.170
367.840	16.480	812.030	613.582
368.854	16.405	811.308	612.710
369.869	16.454	810.714	612.386
370.883	16.525	810.327	612.295
371.898	16.496	809.777	611.723
372.913	16.526	808.948	611.149
373.927	16.581	808.303	610.808
374.942	16.686	807.497	610.524
375.956	16.524	807.287	609.726
376.971	16.566	806.730	609.402
377.986	16.567	806.122	608.895
379.000	16.705	805.474	608.847
380.015	16.637	804.914	608.125
381.029	16.674	804.829	608.141
382.044	16.710	804.232	607.762
383.059	16.714	803.414	607.104
384.073	16.688	803.099	606.722
385.088	16.798	802.343	606.491
386.102	16.876	801.619	606.167
387.117	16.645	801.151	604.935
388.132	16.822	800.721	605.189
389.146	16.744	800.446	604.651
390.161	16.658	800.390	604.246
391.175	16.769	799.986	604.285
392.190	16.797	799.704	604.117
393.205	16.840	799.058	603.728
394.219	16.799	798.508	603.115
395.234	16.786	797.802	602.481
396.248	16.732	797.383	601.920
397.263	16.658	796.810	601.172
398.278	16.750	796.662	601.332
399.292	16.771	795.907	600.783
400.307	16.727	795.798	600.493
401.321	16.787	795.185	600.188
402.336	16.889	794.888	600.272
403.350	16.767	794.703	599.650
404.365	16.841	794.182	599.465
405.380	17.087	793.481	599.751
406.394	17.090	792.947	599.306
407.409	17.227	792.162	599.141
408.423	17.126	791.854	598.500
409.438	17.121	791.618	598.249
410.453	17.109	791.126	597.784
411.467	17.320	790.578	598.059
412.482	17.347	790.379	597.950
413.496	17.262	789.929	597.257
414.511	17.340	789.591	597.225
415.526	17.240	789.129	596.472
416.540	17.146	789.180	596.125
417.555	17.285	788.241	595.851
418.569	17.143	788.260	595.317
419.584	17.263	787.205	594.886
420.599	17.390	786.748	594.931
421.613	108.717	1291.982	1469.752
422.628	93.142	1365.586	1469.846
