DTS Sentinel unit serial number:	SN413079Multiplexer serial number:	ORYXHardware model number:	OX4-SRSoftware version number:	ORYX F/W v4.00 Oryx Data Collector v3.7.2.0data status	okinstallation	princeton_trtdifferential loss correction	single-endedforward channel	channel 3reverse channel	N/Adate	2019/09/13time	16:36:34forward acquisition time	60.00reverse acquisition time	0.00gamma	496.2192k internal	0.2304k external	0.2304temperature offset calibration	1.0144default loss term (dB/km)	0.3790temperature slope calibration	1.0000multiplexer offset coefficient	1.0000multiplexer slope coefficient	1.0000fibre end	0.00T internal ref (°C)	35.06T ext. ref 1 (°C)	4.90T ext. ref 2 (°C)	29.96length (m)	temperature (°C)	Stokes	anti-Stokes-747.200	800.000	0.073	0.304
-746.185	-106.580	0.243	0.055
-745.171	0.225	0.273	0.199
-744.156	16.297	0.069	-0.056
-743.142	98.312	0.302	-0.355
-742.127	800.000	0.010	0.032
-741.112	598.402	0.104	0.263
-740.098	-35.917	0.487	0.268
-739.083	-43.685	0.325	0.167
-738.069	-36.938	-0.095	-0.052
-737.054	-200.000	-0.017	-0.209
-736.039	72.214	0.179	0.189
-735.025	320.584	0.141	0.273
-734.010	-109.712	-0.047	0.010
-732.996	-200.000	0.003	-0.260
-731.981	143.256	0.160	-0.217
-730.966	350.840	-0.046	-0.093
-729.952	-159.411	-0.161	0.009
-728.937	-148.428	-0.448	-0.037
-727.923	-136.216	0.228	0.027
-726.908	113.906	-0.245	-0.303
-725.894	82.804	-0.216	-0.239
-724.879	-63.680	-0.132	-0.055
-723.864	-136.669	0.023	-0.003
-722.850	800.000	-0.036	-0.155
-721.835	393.478	0.055	0.116
-720.821	-60.889	0.406	0.175
-719.806	57.213	0.116	-0.116
-718.791	-143.181	-0.127	0.012
-717.777	1.406	0.297	-0.217
-716.762	-138.483	-0.100	-0.011
-715.748	-200.000	0.013	0.247
-714.733	778.198	-0.063	0.176
-713.718	-147.548	-0.596	-0.051
-712.704	-200.000	0.023	0.491
-711.689	-136.837	-0.246	-0.029
-710.675	7.703	-0.160	-0.122
-709.660	23.889	-0.063	0.052
-708.645	-138.875	0.131	0.015
-707.631	106.013	0.102	-0.123
-706.616	616.834	-0.106	-0.271
-705.602	800.000	-0.056	-0.172
-704.587	153.245	-0.159	-0.221
-703.572	-15.351	-0.002	0.001
-702.558	26.350	-0.257	0.218
-701.543	-40.409	-0.088	0.046
-700.529	-200.000	0.026	-0.127
-699.514	473.308	0.027	0.062
-698.499	341.478	0.133	-0.265
-697.485	471.783	0.108	-0.246
-696.470	-200.000	-0.050	-0.327
-695.456	-170.026	-0.244	0.009
-694.441	-110.726	0.207	0.043
-693.426	-31.783	0.085	0.048
-692.412	53.272	-0.112	-0.109
-691.397	-13.015	0.064	0.042
-690.383	-29.235	0.411	-0.240
-689.368	800.000	-0.021	-0.065
-688.354	-81.581	0.101	-0.034
-687.339	-36.798	0.123	-0.067
-686.324	-101.412	0.073	-0.018
-685.310	11.553	-0.184	-0.143
-684.295	-200.000	0.020	-0.160
-683.281	-179.049	0.301	-0.007
-682.266	46.994	0.164	0.155
-681.251	69.339	0.155	-0.162
-680.237	800.000	-0.018	0.078
-679.222	-200.000	0.056	0.000
-678.208	-200.000	0.016	0.428
-677.193	105.381	-0.114	-0.137
-676.178	-169.531	0.233	-0.009
-675.164	535.769	-0.018	-0.042
-674.149	-38.784	0.052	0.028
-673.135	51.589	-0.056	0.055
-672.120	800.000	-0.143	-0.409
-671.105	179.419	-0.075	-0.111
-670.091	-54.434	0.452	-0.208
-669.076	83.784	-0.212	-0.235
-668.062	-115.302	-0.168	0.032
-667.047	312.843	0.091	0.173
-666.032	-145.144	-0.040	-0.004
-665.018	800.000	0.110	0.317
-664.003	27.580	0.156	-0.133
-662.989	5.671	-0.119	-0.089
-661.974	800.000	0.080	-0.230
-660.959	-127.874	0.054	-0.008
-659.945	111.188	0.031	-0.038
-658.930	34.993	0.081	0.072
-657.916	800.000	0.032	-0.112
-656.901	26.094	0.330	0.279
-655.886	-17.509	-0.018	0.011
-654.872	11.594	0.291	0.226
-653.857	-9.620	-0.136	0.092
-652.843	-3.268	-0.148	0.105
-651.828	22.023	-0.137	-0.113
-650.814	101.913	-0.043	-0.051
-649.799	45.359	0.081	-0.076
-648.784	17.033	-0.267	0.215
-647.770	-171.705	-0.195	0.007
-646.755	-0.405	-0.054	0.039
-645.741	-78.193	-0.057	0.020
-644.726	-25.518	0.026	-0.015
-643.711	32.960	-0.106	0.093
-642.697	65.088	-0.148	0.152
-641.682	492.600	0.091	-0.211
-640.668	577.733	0.146	-0.363
-639.653	283.431	-0.085	0.155
-638.638	-95.366	-0.172	0.047
-637.624	99.928	0.301	0.353
-636.609	204.002	0.168	-0.265
-635.595	800.000	-0.050	-0.171
-634.580	-200.000	-0.007	0.185
-633.565	-113.380	-0.220	-0.044
-632.551	608.854	0.035	0.088
-631.536	3.314	0.160	0.118
-630.522	-87.271	0.337	0.104
-629.507	-82.872	-0.336	-0.110
-628.492	59.195	0.131	-0.131
-627.478	-83.358	-0.140	0.045
-626.463	800.000	0.079	0.240
-625.449	144.413	-0.073	-0.098
-624.434	475.875	-0.027	-0.062
-623.419	-116.429	-0.129	-0.024
-622.405	-102.519	-0.347	-0.084
-621.390	-164.939	0.328	-0.015
-620.376	22.894	0.123	0.102
-619.361	-76.897	0.026	-0.009
-618.346	92.278	-0.146	-0.166
-617.332	-144.992	-0.371	-0.034
-616.317	-200.000	0.003	0.047
-615.303	-121.927	-0.074	-0.012
-614.288	-161.358	-0.293	0.015
-613.273	-200.000	-0.015	-0.133
-612.259	69.123	0.140	-0.146
-611.244	84.583	-0.147	-0.163
-610.230	-121.242	-0.095	0.016
-609.215	-200.000	-0.032	0.173
-608.201	95.436	-0.238	-0.275
-607.186	-79.622	-0.280	-0.096
-606.171	-22.064	0.268	0.165
-605.157	171.993	-0.065	0.095
-604.142	-82.655	-0.184	0.060
-603.128	359.426	-0.137	-0.277
-602.113	-200.000	-0.028	-0.186
-601.098	-99.658	-0.226	0.058
-600.084	440.684	-0.068	0.150
-599.069	308.297	-0.078	-0.147
-598.055	116.278	0.203	-0.252
-597.040	491.650	-0.077	0.179
-596.025	40.679	-0.291	0.265
-595.011	-151.250	0.270	0.020
-593.996	-200.000	0.029	0.186
-592.982	270.372	-0.072	-0.128
-591.967	499.178	0.123	-0.287
-590.952	226.904	0.024	-0.040
-589.938	-187.385	0.127	0.002
-588.923	-121.339	0.379	-0.064
-587.909	11.441	0.186	-0.144
-586.894	164.149	-0.090	0.128
-585.879	-135.797	0.245	0.029
-584.865	103.127	-0.179	-0.212
-583.850	38.050	0.136	0.122
-582.836	489.128	-0.039	-0.090
-581.821	6.255	-0.165	0.124
-580.806	213.331	0.044	-0.070
-579.792	-76.676	-0.079	-0.028
-578.777	-105.929	-0.115	0.026
-577.763	-200.000	-0.028	0.164
-576.748	-46.220	-0.036	0.018
-575.733	-141.888	0.294	0.030
-574.719	-91.008	-0.202	-0.059
-573.704	-102.202	-0.383	0.093
-572.690	-144.181	-0.176	0.017
-571.675	-94.281	0.101	0.028
-570.661	105.537	-0.180	-0.215
-569.646	800.000	-0.052	-0.225
-568.631	96.273	0.031	0.036
-567.617	291.965	-0.117	0.215
-566.602	-200.000	-0.023	0.223
-565.588	-200.000	-0.034	0.265
-564.573	29.593	0.247	0.213
-563.558	-113.006	-0.247	-0.049
-562.544	-200.000	-0.025	-0.217
-561.529	-72.386	-0.131	0.049
-560.515	-58.568	-0.282	0.124
-559.500	-200.000	-0.039	-0.174
-558.485	-168.721	0.062	-0.002
-557.471	-200.000	-0.087	0.443
-556.456	157.692	0.126	-0.176
-555.442	58.891	0.226	0.224
-554.427	168.781	0.142	0.205
-553.412	-18.411	0.047	-0.029
-552.398	-99.604	-0.218	-0.055
-551.383	-168.072	-0.416	-0.016
-550.369	50.309	0.151	-0.144
-549.354	800.000	-0.084	0.278
-548.339	16.205	-0.319	0.254
-547.325	-200.000	0.026	0.142
-546.310	124.117	0.186	0.236
-545.296	800.000	0.017	0.060
-544.281	158.834	0.017	-0.024
-543.266	197.011	0.155	-0.239
-542.252	522.896	-0.089	0.211
-541.237	-68.266	-0.197	0.077
-540.223	228.779	-0.008	0.012
-539.208	163.749	-0.073	-0.103
-538.193	-79.535	-0.437	-0.149
-537.179	282.297	-0.133	-0.241
-536.164	-9.705	-0.189	0.127
-535.150	800.000	-0.046	-0.167
-534.135	-84.265	0.240	0.077
-533.121	800.000	0.048	-0.169
-532.106	200.269	0.062	-0.096
-531.091	98.217	-0.264	-0.307
-530.077	-53.185	-0.248	-0.115
-529.062	-58.876	-0.315	0.138
-528.048	448.309	-0.078	-0.172
-527.033	800.000	-0.074	0.216
-526.018	-5.033	-0.190	-0.132
-525.004	-37.199	-0.167	0.090
-523.989	-125.365	0.143	0.022
-522.975	596.315	0.027	-0.068
-521.960	-164.619	-0.321	-0.015
-520.945	-110.163	0.342	-0.072
-519.931	-20.088	0.159	0.099
-518.916	-8.249	0.169	0.115
-517.902	-200.000	0.046	-0.394
-516.887	800.000	0.050	0.141
-515.872	-65.148	0.156	0.063
-514.858	-176.613	0.202	-0.005
-513.843	800.000	-0.055	-0.205
-512.829	40.060	0.184	-0.167
-511.814	-49.306	0.440	0.212
-510.799	123.945	0.379	0.480
-509.785	78.878	0.080	-0.086
-508.770	-54.775	0.313	0.142
-507.756	25.360	0.212	0.178
-506.741	78.722	-0.108	-0.116
-505.726	160.009	0.037	0.052
-504.712	-29.615	0.219	-0.126
-503.697	-78.296	0.033	0.012
-502.683	-146.055	0.209	-0.019
-501.668	-46.076	-0.101	0.050
-500.653	103.106	0.153	0.181
-499.639	595.148	0.118	-0.295
-498.624	335.176	0.151	-0.294
-497.610	249.594	-0.112	-0.191
-496.595	15.030	0.160	0.127
-495.581	-200.000	-0.000	0.349
-494.566	-200.000	0.000	-0.237
-493.551	408.816	-0.138	-0.295
-492.537	800.000	-0.109	0.378
-491.522	477.077	-0.095	-0.217
-490.508	-200.000	-0.022	0.309
-489.493	75.015	0.284	-0.301
-488.478	-113.262	-0.290	0.057
-487.464	-200.000	0.048	0.418
-486.449	97.460	0.120	-0.139
-485.435	-137.013	-0.049	-0.006
-484.420	204.684	-0.077	0.120
-483.405	-69.899	0.062	0.024
-482.391	151.393	-0.228	0.313
-481.376	-107.973	0.145	0.032
-480.362	-122.993	0.082	-0.013
-479.347	239.404	0.189	-0.317
-478.332	-64.394	0.070	-0.029
-477.318	-140.392	0.354	0.037
-476.303	104.850	0.213	0.253
-475.289	-32.259	0.156	0.088
-474.274	-13.537	0.134	0.087
-473.259	-200.000	-0.036	0.200
-472.245	800.000	0.031	0.123
-471.230	-123.382	-0.254	-0.041
-470.216	-8.626	-0.048	-0.032
-469.201	350.825	-0.142	-0.282
-468.186	488.362	0.078	-0.181
-467.172	-7.679	-0.406	-0.277
-466.157	-91.734	-0.298	0.085
-465.143	18.401	-0.188	-0.151
-464.128	-125.018	0.271	0.042
-463.113	-43.185	-0.235	0.120
-462.099	-70.570	0.212	0.081
-461.084	-19.922	-0.464	-0.288
-460.070	-42.048	0.296	-0.152
-459.055	-200.000	0.047	-0.389
-458.040	-200.000	0.011	-0.242
-457.026	-200.000	-0.001	0.210
-456.011	118.420	-0.164	0.204
-454.997	800.000	0.020	-0.061
-453.982	-72.940	0.073	-0.027
-452.968	-155.156	0.271	-0.018
-451.953	-13.407	-0.081	-0.053
-450.938	-53.719	0.079	0.036
-449.924	371.369	-0.042	0.085
-448.909	1.222	0.166	-0.120
-447.895	-64.856	-0.234	-0.095
-446.880	292.629	0.147	0.270
-445.865	140.822	0.191	0.254
-444.851	-131.059	-0.092	0.012
-443.836	-95.417	-0.408	-0.110
-442.822	800.000	-0.038	-0.118
-441.807	16.537	0.287	-0.228
-440.792	356.029	-0.040	0.080
-439.778	351.300	-0.126	0.252
-438.763	-55.915	0.023	-0.010
-437.749	22.323	0.274	0.225
-436.734	-200.000	0.032	-0.218
-435.719	800.000	-0.055	0.153
-434.705	-9.574	-0.151	0.102
-433.690	602.630	0.051	-0.129
-432.676	-164.569	-0.152	0.007
-431.661	241.471	-0.149	0.250
-430.646	-167.776	0.157	-0.006
-429.632	-145.915	-0.396	-0.035
-428.617	121.046	-0.129	-0.161
-427.603	-60.157	0.340	0.146
-426.588	800.000	-0.020	-0.069
-425.573	-84.513	0.237	0.075
-424.559	-200.000	-0.018	0.085
-423.544	800.000	0.098	0.370
-422.530	800.000	-0.040	0.164
-421.515	-13.764	0.372	-0.242
-420.500	-200.000	-0.045	0.309
-419.486	-5.559	0.268	-0.185
-418.471	-95.296	-0.238	-0.065
-417.457	-3.159	-0.146	-0.102
-416.442	-191.903	-0.062	-0.001
-415.428	-200.000	-0.031	0.404
-414.413	800.000	-0.077	-0.277
-413.398	87.630	-0.293	-0.326
-412.384	800.000	-0.035	0.152
-411.369	17.482	0.151	-0.120
-410.355	1.265	-0.347	0.250
-409.340	-187.892	0.390	-0.005
-408.325	-32.825	-0.188	0.105
-407.311	-121.816	-0.184	0.030
-406.296	-124.770	0.231	0.036
-405.282	-55.010	0.415	-0.188
-404.267	193.638	-0.087	-0.132
-403.252	23.945	-0.028	0.023
-402.238	41.421	-0.047	-0.043
-401.223	800.000	-0.065	0.181
-400.209	-28.167	0.141	-0.082
-399.194	-49.215	0.277	-0.133
-398.179	191.050	-0.041	-0.061
-397.165	-56.345	-0.415	0.185
-396.150	-200.000	0.030	-0.293
-395.136	249.245	0.093	-0.159
-394.121	-61.522	-0.253	-0.107
-393.106	90.219	-0.209	-0.235
-392.092	-120.424	0.320	-0.055
-391.077	11.622	-0.102	0.078
-390.063	-200.000	0.001	0.031
-389.048	800.000	0.086	-0.262
-388.033	154.597	0.087	0.120
-387.019	-200.000	-0.009	0.083
-386.004	616.374	-0.120	0.302
-384.990	189.927	-0.013	-0.020
-383.975	-200.000	-0.025	-0.251
-382.960	105.739	-0.121	-0.143
-381.946	22.935	-0.172	-0.141
-380.931	800.000	0.023	-0.089
-379.917	-200.000	-0.011	0.138
-378.902	113.796	0.185	-0.225
-377.888	-27.876	0.162	0.094
-376.873	18.365	0.062	0.050
-375.858	800.000	0.087	-0.272
-374.844	-123.816	-0.331	-0.052
-373.829	800.000	0.171	0.476
-372.815	-108.749	0.135	0.029
-371.800	-122.549	0.199	0.032
-370.785	-105.168	0.067	0.015
-369.771	748.855	-0.022	0.059
-368.756	-76.884	0.025	0.009
-367.742	-200.000	0.011	-0.117
-366.727	308.595	-0.031	0.057
-365.712	-146.357	0.034	0.003
-364.698	-117.342	0.065	-0.012
-363.683	800.000	0.048	0.194
-362.669	-122.815	0.048	-0.008
-361.654	-62.920	0.224	-0.093
-360.639	177.108	-0.260	0.380
-359.625	-200.000	0.014	0.134
-358.610	-200.000	0.067	-0.360
-357.596	377.693	0.118	-0.241
-356.581	43.584	-0.146	-0.134
-355.566	37.990	-0.077	0.069
-354.552	-2.269	-0.073	-0.051
-353.537	406.337	-0.138	-0.293
-352.523	-188.213	-0.182	0.002
-351.508	-148.197	0.102	-0.008
-350.493	-180.225	0.335	0.007
-349.479	17.136	0.192	-0.153
-348.464	171.778	-0.066	-0.094
-347.450	-15.963	-0.190	0.121
-346.435	135.910	-0.091	0.119
-345.420	191.140	0.078	-0.117
-344.406	800.000	-0.011	-0.043
-343.391	-172.727	0.231	0.007
-342.377	-200.000	-0.030	-0.197
-341.362	800.000	-0.068	0.293
-340.348	-51.297	-0.356	0.167
-339.333	800.000	0.075	0.235
-338.318	381.353	-0.107	-0.221
-337.304	-200.000	-0.001	-0.447
-336.289	-99.821	-0.370	-0.093
-335.275	-200.000	0.056	0.252
-334.260	7.815	0.142	0.107
-333.245	364.195	-0.095	0.192
-332.231	800.000	-0.030	0.111
-331.216	-78.851	0.104	-0.036
-330.202	-200.000	0.002	-0.202
-329.187	280.990	-0.206	0.369
-328.172	29.390	0.178	-0.152
-327.158	-85.286	-0.118	0.037
-326.143	59.902	0.095	-0.094
-325.129	297.529	0.111	-0.204
-324.114	-148.831	0.350	-0.028
-323.099	-6.622	-0.170	0.116
-322.085	797.935	-0.037	0.101
-321.070	-87.896	-0.128	0.039
-320.056	215.506	-0.090	0.143
-319.041	-36.845	-0.039	0.021
-318.026	-142.933	-0.089	-0.009
-317.012	800.000	0.012	-0.038
-315.997	91.598	0.049	0.055
-314.983	-121.259	-0.267	-0.045
-313.968	152.291	0.092	0.126
-312.953	-141.004	-0.147	0.015
-311.939	400.067	-0.098	-0.206
-310.924	132.342	-0.036	-0.047
-309.910	241.532	-0.187	-0.313
-308.895	246.814	0.103	0.173
-307.880	-16.265	0.234	-0.149
-306.866	286.922	0.117	0.212
-305.851	-32.556	-0.219	0.122
-304.837	-126.827	0.126	-0.019
-303.822	-200.000	-0.010	0.410
-302.807	-200.000	0.000	0.115
-301.793	-20.276	-0.203	-0.125
-300.778	-8.087	-0.250	-0.168
-299.764	-95.825	0.016	-0.004
-298.749	-200.000	0.014	0.194
-297.735	-157.717	0.163	-0.010
-296.720	800.000	0.044	0.178
-295.705	-200.000	-0.010	0.207
-294.691	-200.000	0.023	0.183
-293.676	800.000	-0.099	-0.394
-292.662	-200.000	-0.001	-0.013
-291.647	-37.397	-0.033	0.018
-290.632	56.909	0.071	0.069
-289.618	72.423	0.130	0.136
-288.603	235.883	0.118	0.195
-287.589	346.688	0.187	-0.367
-286.574	-14.010	0.137	-0.089
-285.559	-143.768	-0.319	0.030
-284.545	-200.000	0.055	0.358
-283.530	-54.276	-0.157	0.071
-282.516	800.000	0.058	-0.239
-281.501	-171.274	0.178	-0.006
-280.486	111.288	0.211	-0.254
-279.472	-200.000	-0.011	0.257
-278.457	92.097	0.120	0.135
-277.443	-200.000	0.007	0.195
-276.428	-200.000	-0.022	-0.167
-275.413	365.192	0.033	-0.067
-274.399	-200.000	0.044	0.249
-273.384	-11.020	-0.248	-0.163
-272.370	58.061	0.193	0.189
-271.355	-101.970	-0.334	-0.081
-270.340	338.797	0.061	-0.119
-269.326	191.430	0.148	-0.222
-268.311	462.343	0.208	0.463
-267.297	261.338	0.051	-0.089
-266.282	800.000	-0.066	0.256
-265.267	304.270	0.083	0.154
-264.253	-200.000	-0.001	-0.448
-263.238	-31.186	-0.277	-0.156
-262.224	800.000	0.178	0.546
-261.209	800.000	-0.097	0.325
-260.195	-102.857	-0.247	-0.059
-259.180	502.301	-0.096	-0.221
-258.165	-72.561	-0.083	0.031
-257.151	188.066	0.165	0.247
-256.136	800.000	0.056	0.181
-255.122	-147.215	0.112	-0.010
-254.107	35.598	-0.162	-0.142
-253.092	-156.335	-0.215	0.013
-252.078	800.000	0.067	-0.202
-251.063	83.444	-0.243	0.264
-250.049	-91.506	-0.064	-0.018
-249.034	176.800	0.149	0.216
-248.019	36.296	0.177	-0.156
-247.005	1.403	-0.172	-0.123
-245.990	42.191	0.112	-0.101
-244.976	-58.592	-0.181	0.079
-243.961	-151.196	0.204	0.015
-242.946	-62.535	0.093	-0.039
-241.932	-145.684	0.409	-0.036
-240.917	-69.922	0.195	0.074
-239.903	-65.734	-0.159	-0.064
-238.888	158.139	-0.118	-0.163
-237.873	-200.000	-0.019	0.088
-236.859	126.950	-0.037	0.047
-235.844	-200.000	0.028	-0.165
-234.830	-45.791	-0.371	-0.183
-233.815	-52.175	0.361	0.167
-232.800	646.649	-0.103	-0.263
-231.786	-152.577	0.173	-0.012
-230.771	-96.712	0.153	-0.040
-229.757	-111.975	0.467	-0.094
-228.742	521.320	0.066	-0.155
-227.727	-200.000	-0.019	0.194
-226.713	-60.878	0.219	-0.092
-225.698	-200.000	0.032	0.195
-224.684	54.971	0.198	0.191
-223.669	-48.485	0.207	0.099
-222.655	-106.740	-0.135	0.030
-221.640	-200.000	-0.032	-0.276
-220.625	-52.259	0.128	0.059
-219.611	800.000	0.074	0.273
-218.596	76.136	-0.246	-0.259
-217.582	67.988	0.101	-0.103
-216.567	169.996	-0.019	-0.027
-215.552	-60.537	-0.294	0.125
-214.538	-200.000	0.104	-0.519
-213.523	242.519	-0.140	0.234
-212.509	800.000	0.101	0.339
-211.494	-200.000	-0.005	0.318
-210.479	479.839	-0.038	0.086
-209.465	-45.696	0.139	-0.069
-208.450	58.779	-0.313	-0.306
-207.436	-19.264	-0.223	-0.138
-206.421	800.000	0.038	-0.154
-205.406	800.000	-0.055	-0.238
-204.392	-81.208	-0.537	0.177
-203.377	122.925	-0.208	0.260
-202.363	-109.849	-0.188	0.039
-201.348	110.531	0.093	-0.111
-200.333	-200.000	0.041	0.222
-199.319	85.690	0.128	0.141
-198.304	-68.817	-0.196	0.075
-197.290	-83.207	0.195	0.063
-196.275	3.755	-0.072	-0.052
-195.260	22.881	0.207	-0.169
-194.246	-17.165	-0.106	0.067
-193.231	109.248	-0.135	-0.161
-192.217	35.473	0.320	-0.280
-191.202	304.302	0.152	-0.281
-190.187	277.545	0.014	0.024
-189.173	18.422	-0.085	0.068
-188.158	706.601	0.074	-0.194
-187.144	-4.752	0.089	-0.061
-186.129	47.933	-0.163	0.152
-185.114	-160.840	-0.262	0.014
-184.100	-200.000	-0.037	0.244
-183.085	51.787	0.208	0.197
-182.071	408.004	0.099	0.209
-181.056	800.000	-0.031	-0.109
-180.042	-146.974	0.315	-0.027
-179.027	-15.788	0.255	0.162
-178.012	-83.906	0.495	-0.157
-176.998	159.508	0.104	-0.144
-175.983	-35.935	0.267	-0.144
-174.969	800.000	0.039	-0.128
-173.954	77.191	-0.032	-0.034
-172.939	-23.533	-0.245	0.147
-171.925	-160.622	0.153	0.008
-170.910	-34.825	-0.392	-0.213
-169.896	-90.785	0.385	-0.111
-168.881	24.989	0.151	0.125
-167.866	-48.448	0.280	0.134
-166.852	87.418	0.166	0.183
-165.837	-185.443	-0.257	-0.004
-164.823	-200.000	0.034	-0.203
-163.808	-200.000	-0.049	0.289
-162.793	-51.252	-0.094	0.044
-161.779	15.403	-0.351	-0.275
-160.764	52.965	0.218	-0.207
-159.750	-200.000	-0.032	-0.253
-158.735	-82.756	-0.186	0.060
-157.720	-40.350	-0.395	-0.205
-156.706	-131.019	0.352	-0.047
-155.691	-85.264	0.244	-0.076
-154.677	-55.796	-0.218	0.097
-153.662	-164.263	0.307	0.014
-152.647	27.245	0.220	-0.184
-151.633	-178.018	0.278	-0.007
-150.618	-200.000	0.000	0.064
-149.604	-97.426	0.061	0.016
-148.589	15.454	0.133	-0.104
-147.574	-22.968	0.288	0.173
-146.560	1.331	0.233	0.166
-145.545	-200.000	0.035	-0.179
-144.531	-200.000	0.011	-0.072
-143.516	-78.297	-0.263	-0.090
-142.502	-84.810	0.295	0.092
-141.487	-185.019	0.184	-0.003
-140.472	-15.406	0.138	-0.088
-139.458	121.623	-0.285	0.353
-138.443	-97.688	0.028	0.007
-137.429	-156.688	0.154	0.009
-136.414	697.392	0.025	0.066
-135.399	-69.950	0.185	0.070
-134.385	800.000	-0.097	0.278
-133.370	85.044	0.249	0.272
-132.356	-96.317	-0.093	-0.024
-131.341	127.659	-0.157	0.199
-130.326	-200.000	0.026	0.174
-129.312	-37.321	0.096	-0.051
-128.297	-107.111	-0.312	0.069
-127.283	-0.867	0.132	-0.093
-126.268	-200.000	0.383	0.001
-125.253	-200.000	-0.013	0.088
-124.239	78.877	0.166	-0.176
-123.224	800.000	0.036	-0.126
-122.210	15.650	0.293	0.229
-121.195	-86.715	-0.120	-0.036
-120.180	-156.641	-0.147	0.009
-119.166	-14.195	0.243	-0.155
-118.151	-155.032	0.082	-0.005
-117.137	-114.803	-0.222	0.042
-116.122	800.000	-0.081	0.237
-115.107	-157.413	0.060	-0.004
-114.093	800.000	0.095	0.344
-113.078	328.723	0.073	0.138
-112.064	114.457	-0.070	-0.085
-111.049	12.607	0.134	0.103
-110.034	-200.000	0.016	0.179
-109.020	-114.928	-0.199	-0.038
-108.005	136.810	0.059	-0.076
-106.991	446.449	-0.039	-0.086
-105.976	124.721	0.286	0.358
-104.962	800.000	-0.072	0.273
-103.947	800.000	0.027	0.111
-102.932	800.000	-0.071	-0.286
-101.918	-35.817	0.397	0.213
-100.903	-22.282	-0.311	-0.187
-99.889	-71.015	0.409	-0.153
-98.874	45.513	0.256	-0.235
-97.859	-30.118	-0.152	-0.086
-96.845	383.816	0.105	-0.214
-95.830	-138.864	0.581	-0.063
-94.816	-200.000	-0.004	0.034
-93.801	-44.804	0.332	-0.164
-92.786	-126.566	-0.079	0.012
-91.772	-8.225	0.428	-0.286
-90.757	8.208	-0.142	-0.106
-89.743	-52.835	-0.257	-0.117
-88.728	-48.727	-0.119	0.057
-87.713	114.581	0.083	-0.100
-86.699	-200.000	-0.020	0.278
-85.684	-148.534	0.205	-0.017
-84.670	-89.400	0.234	0.068
-83.655	-160.747	0.104	0.005
-82.640	800.000	-0.148	0.568
-81.626	-17.030	-0.238	0.149
-80.611	-41.633	0.050	-0.025
-79.597	-200.000	-0.035	0.248
-78.582	-179.103	0.124	0.003
-77.567	-127.955	0.104	-0.015
-76.553	57.654	0.140	0.136
-75.538	-127.194	0.071	-0.010
-74.524	-139.135	-0.287	-0.031
-73.509	-200.000	-0.044	-0.299
-72.494	57.169	0.251	-0.243
-71.480	288.500	-0.091	-0.163
-70.465	11.786	0.348	-0.265
-69.451	-1.773	-0.048	-0.033
-68.436	-200.000	0.029	0.231
-67.422	800.000	0.098	-0.278
-66.407	-200.000	-0.022	-0.254
-65.392	114.899	-0.166	-0.201
-64.378	-50.668	-0.306	-0.143
-63.363	47.577	-0.018	0.016
-62.349	-200.000	-0.037	0.175
-61.334	53.699	-0.754	-0.718
-60.319	-45.096	0.620	0.306
-59.305	-200.000	-0.048	-1.141
-58.290	618.151	0.384	0.955
-57.276	619.998	0.543	1.354
-56.261	-200.000	95.424	568.873
-55.246	649.447	1381.094	3503.042
-54.232	186.811	2597.155	3834.942
-53.217	122.471	2204.365	2731.053
-52.203	45.701	1738.926	1592.784
-51.188	38.174	1549.315	1366.648
-50.173	35.755	1521.199	1325.152
-49.159	53.911	1571.611	1496.696
-48.144	57.851	1590.588	1542.317
-47.130	38.589	1545.917	1366.332
-46.115	35.352	1530.270	1330.049
-45.100	35.149	1527.098	1325.834
-44.086	35.109	1525.448	1324.068
-43.071	35.065	1523.257	1321.810
-42.057	34.991	1521.861	1320.036
-41.042	35.090	1520.371	1319.373
-40.027	35.058	1518.850	1317.784
-39.013	35.085	1517.685	1316.902
-37.998	35.158	1515.860	1315.767
-36.984	35.088	1515.174	1314.638
-35.969	35.078	1513.686	1313.232
-34.954	35.004	1512.578	1311.709
-33.940	35.004	1511.103	1310.377
-32.925	35.104	1509.614	1309.720
-31.911	35.109	1508.366	1308.620
-30.896	35.113	1506.796	1307.234
-29.881	35.073	1505.702	1305.960
-28.867	35.097	1504.274	1304.833
-27.852	35.201	1502.350	1303.816
-26.838	35.134	1500.968	1302.113
-25.823	35.076	1499.891	1300.729
-24.809	35.073	1497.958	1298.981
-23.794	35.112	1496.588	1298.007
-22.779	35.158	1495.607	1297.419
-21.765	35.123	1494.490	1296.161
-20.750	35.143	1493.065	1295.008
-19.736	35.170	1492.234	1294.420
-18.721	35.033	1491.379	1292.698
-17.706	35.046	1490.124	1291.646
-16.692	35.032	1488.832	1290.385
-15.677	35.022	1487.843	1289.410
-14.663	35.132	1486.421	1288.861
-13.648	34.970	1486.116	1287.460
-12.633	34.981	1484.754	1286.302
-11.619	35.027	1484.069	1285.964
-10.604	35.026	1483.094	1285.066
-9.590	35.020	1482.227	1284.219
-8.575	35.013	1481.407	1283.410
-7.560	34.936	1480.563	1282.116
-6.546	35.030	1479.532	1281.800
-5.531	34.984	1479.135	1281.094
-4.517	35.002	1477.942	1280.134
-3.502	35.070	1476.912	1279.643
-2.487	35.019	1475.950	1278.416
-1.473	34.969	1474.814	1277.049
-0.458	35.073	1473.443	1276.508
0.556	37.047	1464.392	1265.490
1.571	33.689	1436.152	1219.438
2.586	29.337	1370.980	1137.227
3.600	26.911	1286.202	1052.756
4.615	24.542	1238.705	1000.536
5.629	20.791	1182.094	934.632
6.644	12.832	1096.960	827.439
7.659	6.146	1055.476	763.689
8.673	5.147	1049.656	754.581
9.688	4.894	1046.500	751.028
10.702	4.603	1044.983	748.473
11.717	4.956	1043.540	749.070
12.731	7.907	1047.001	765.699
13.746	15.742	1058.343	811.885
14.761	21.590	1064.782	845.063
15.775	22.021	1064.207	846.614
16.790	21.307	1062.301	841.584
17.804	20.215	1060.074	834.494
18.819	19.317	1058.432	828.812
19.834	18.850	1057.196	825.529
20.848	18.754	1055.839	823.935
21.863	18.650	1055.712	823.264
22.877	18.392	1055.002	821.401
23.892	18.147	1054.159	819.497
24.907	18.054	1053.159	818.203
25.921	18.239	1052.229	818.291
26.936	18.151	1051.673	817.365
27.950	18.190	1050.746	816.758
28.965	18.169	1049.697	815.771
29.980	18.266	1048.575	815.289
30.994	18.373	1047.314	814.748
32.009	18.469	1046.819	814.745
33.023	18.622	1045.881	814.668
34.038	18.739	1044.528	814.099
35.053	18.465	1043.758	812.130
36.067	18.364	1043.069	811.044
37.082	18.230	1042.208	809.666
38.096	18.186	1041.268	808.657
39.111	18.351	1041.217	809.327
40.126	18.517	1039.959	809.058
41.140	18.370	1038.978	807.534
42.155	18.131	1037.884	805.485
43.169	17.955	1036.471	803.491
44.184	17.924	1035.717	802.686
45.199	17.887	1034.217	801.278
46.213	17.929	1033.379	800.759
47.228	17.995	1032.744	800.504
48.242	18.155	1031.838	800.478
49.257	18.254	1031.721	800.779
50.271	18.192	1029.967	799.060
51.286	18.227	1029.447	798.749
52.301	18.344	1028.797	798.721
53.315	18.226	1027.946	797.439
54.330	18.161	1027.149	796.446
55.344	18.165	1025.779	795.332
56.359	18.054	1024.589	793.821
57.374	18.093	1023.582	793.152
58.388	18.035	1023.164	792.491
59.403	17.907	1022.566	791.366
60.417	17.761	1021.340	789.669
61.432	17.819	1020.524	789.240
62.447	17.848	1020.205	789.055
63.461	17.840	1019.200	788.172
64.476	17.665	1018.233	786.545
65.490	17.720	1017.407	786.094
66.505	17.657	1016.813	785.273
67.520	17.799	1015.365	784.739
68.534	17.822	1015.054	784.533
69.549	17.841	1013.788	783.574
70.563	17.810	1013.707	783.298
71.578	17.644	1013.008	781.929
72.593	17.664	1011.455	780.752
73.607	17.584	1010.880	779.874
74.622	17.477	1009.945	778.593
75.636	17.465	1009.015	777.751
76.651	17.731	1007.960	778.085
77.666	17.483	1007.543	776.561
78.680	17.665	1007.190	777.053
79.695	17.621	1006.094	775.935
80.709	17.631	1005.697	775.606
81.724	17.697	1005.103	775.381
82.739	17.915	1004.127	775.549
83.753	17.999	1002.983	774.978
84.768	18.192	1002.605	775.494
85.782	18.365	1002.075	775.798
86.797	18.484	1001.529	775.847
87.812	18.571	1000.550	775.414
88.826	18.174	1000.150	773.239
89.841	18.224	998.910	772.439
90.855	18.292	998.136	772.076
91.870	18.307	997.495	771.581
92.884	18.504	996.687	771.776
93.899	18.520	995.941	771.201
94.914	18.434	995.553	770.444
95.928	18.576	994.225	769.989
96.943	18.670	993.433	769.726
97.957	18.447	992.838	768.199
98.972	18.405	992.077	767.353
99.987	18.347	991.338	766.457
101.001	18.341	990.514	765.725
102.016	18.236	990.354	765.063
103.030	18.520	988.686	764.975
104.045	18.488	987.517	763.858
105.060	18.378	986.829	762.769
106.074	18.373	985.505	761.657
107.089	18.109	985.146	760.139
108.103	17.801	984.097	757.891
109.118	17.933	982.293	757.020
110.133	17.842	981.462	755.913
111.147	17.722	980.979	754.940
112.162	17.637	980.063	753.791
113.176	17.927	979.142	754.301
114.191	17.861	978.587	753.512
115.206	17.967	977.774	753.291
116.220	18.057	976.842	752.899
117.235	17.929	976.382	751.914
118.249	17.780	975.504	750.520
119.264	17.925	974.395	750.233
120.279	17.907	973.733	749.579
121.293	17.745	972.747	748.046
122.308	17.702	972.175	747.347
123.322	17.609	971.395	746.277
124.337	17.643	970.334	745.545
125.352	17.521	968.947	743.880
126.366	17.519	968.188	743.224
127.381	17.505	966.986	742.171
128.395	17.544	966.205	741.678
129.410	17.623	965.184	741.172
130.424	17.825	964.117	741.165
131.439	17.842	963.173	740.446
132.454	17.783	963.294	740.219
133.468	17.929	962.193	739.940
134.483	18.028	961.499	739.768
135.497	18.038	961.182	739.502
136.512	18.034	960.652	739.014
137.527	17.889	959.910	737.750
138.541	17.904	958.903	736.973
139.556	17.945	958.166	736.521
140.570	17.984	957.544	736.147
141.585	18.014	956.966	735.763
142.600	18.208	956.074	735.847
143.614	18.376	955.384	735.974
144.629	18.416	954.215	735.182
145.643	18.513	953.968	735.340
146.658	18.432	952.935	734.133
147.673	18.181	952.389	732.571
148.687	18.038	950.950	730.789
149.702	17.941	949.975	729.560
150.716	17.906	949.170	728.727
151.731	18.044	947.614	728.060
152.746	18.081	947.342	727.943
153.760	17.963	946.968	727.087
154.775	17.971	946.137	726.419
155.789	18.059	945.559	726.286
156.804	18.339	944.235	726.392
157.819	18.383	943.808	726.188
158.833	18.323	943.213	725.408
159.848	18.370	943.050	725.421
160.862	18.564	941.983	725.354
161.877	18.425	941.573	724.387
162.892	18.256	940.419	722.721
163.906	18.007	939.276	720.731
164.921	17.978	938.352	719.833
165.935	17.970	937.414	719.019
166.950	18.059	936.344	718.506
167.964	18.126	935.498	718.076
168.979	18.065	934.667	717.120
169.994	18.085	933.674	716.378
171.008	17.958	932.749	715.072
172.023	18.080	932.184	715.086
173.037	18.349	930.966	715.214
174.052	18.386	930.623	715.042
175.067	18.287	929.925	714.027
176.081	18.102	929.303	712.715
177.096	17.961	928.059	711.110
178.110	17.967	927.493	710.640
179.125	18.032	926.733	710.265
180.140	18.285	925.204	710.078
181.154	18.171	925.155	709.504
182.169	18.335	924.428	709.567
183.183	18.300	924.302	709.263
184.198	18.408	923.876	709.319
185.213	18.469	922.896	708.757
186.227	18.443	922.171	708.031
187.242	18.447	922.055	707.895
188.256	18.570	921.012	707.538
189.271	18.545	920.667	707.108
190.286	18.717	919.598	706.934
191.300	18.567	918.480	705.394
192.315	18.083	917.576	702.647
193.329	17.909	917.071	701.484
194.344	17.922	916.438	700.989
195.359	18.039	915.492	700.684
196.373	18.106	915.521	700.921
197.388	18.385	914.869	701.502
198.402	18.509	914.423	701.606
199.417	18.569	914.215	701.631
200.432	18.795	913.744	702.127
201.446	18.747	913.673	701.815
202.461	19.042	912.954	702.405
203.475	18.893	913.036	701.797
204.490	18.913	912.184	701.163
205.504	18.758	910.863	699.456
206.519	18.764	909.758	698.568
207.534	18.635	909.306	697.637
208.548	18.561	908.524	696.672
209.563	18.788	907.922	697.072
210.577	18.623	907.258	695.832
211.592	18.543	906.656	694.984
212.607	18.704	906.233	695.248
213.621	19.053	905.554	696.077
214.636	18.910	905.080	695.074
215.650	18.798	904.280	693.945
216.665	18.813	904.010	693.737
217.680	18.928	903.524	693.767
218.694	18.875	903.421	693.414
219.709	19.173	902.524	693.866
220.723	19.138	901.488	692.865
221.738	18.999	900.950	691.834
222.753	18.964	900.433	691.234
223.767	18.835	899.509	689.944
224.782	18.954	898.602	689.666
225.796	19.033	897.903	689.386
226.811	19.240	897.391	689.758
227.826	19.154	896.872	688.955
228.840	18.927	896.191	687.464
229.855	18.900	895.370	686.667
230.869	18.921	894.770	686.228
231.884	18.909	894.310	685.765
232.899	18.752	893.532	684.483
233.913	18.810	892.840	684.126
234.928	18.812	892.013	683.440
235.942	18.659	891.373	682.279
236.957	18.752	890.356	681.811
237.972	18.683	889.996	681.200
238.986	18.785	889.270	680.989
240.001	18.788	888.552	680.391
241.015	18.857	888.012	680.191
242.030	18.749	887.710	679.472
243.045	18.909	886.875	679.405
244.059	18.925	886.230	678.912
245.074	19.008	885.585	678.687
246.088	18.990	884.725	677.896
247.103	19.005	884.642	677.830
248.117	19.153	883.619	677.571
249.132	19.323	883.075	677.763
250.147	19.357	883.584	678.227
251.161	19.754	882.440	678.848
252.176	19.825	882.102	678.804
253.190	19.669	881.483	677.656
254.205	19.715	880.666	677.148
255.220	19.901	880.202	677.459
256.234	19.793	879.646	676.551
257.249	19.727	878.957	675.701
258.263	19.723	878.655	675.394
259.278	19.670	877.830	674.496
260.293	19.768	877.252	674.372
261.307	19.845	876.642	674.144
262.322	19.919	876.037	673.908
263.336	19.952	875.974	673.927
264.351	19.812	875.388	672.871
265.366	20.018	874.267	672.753
266.380	20.001	873.680	672.176
267.395	20.123	873.085	672.129
268.409	19.920	872.201	670.603
269.424	19.801	871.357	669.436
270.439	19.807	871.209	669.286
271.453	19.862	869.711	668.288
272.468	19.693	869.293	667.254
273.482	19.551	868.722	666.209
274.497	19.649	868.067	666.027
275.512	19.822	867.401	666.122
276.526	19.640	866.406	664.600
277.541	19.719	866.046	664.569
278.555	19.685	865.621	664.054
279.570	19.859	865.125	664.283
280.585	19.947	864.860	664.358
281.599	20.106	864.356	664.521
282.614	19.972	863.608	663.373
283.628	19.919	862.219	662.045
284.643	19.801	862.032	661.394
285.657	19.853	861.467	661.099
286.672	19.862	861.219	660.885
287.687	19.801	860.989	660.416
288.701	19.765	860.416	659.781
289.716	19.899	859.309	659.385
290.730	19.926	859.234	659.371
291.745	19.944	858.684	658.959
292.760	19.994	857.633	658.285
293.774	19.916	857.114	657.531
294.789	20.095	856.697	657.833
295.803	20.171	856.052	657.568
296.818	20.049	855.495	656.618
297.833	20.026	854.516	655.724
298.847	20.009	853.968	655.180
299.862	20.085	853.302	654.899
300.876	20.034	852.864	654.312
301.891	20.183	851.968	654.129
302.906	20.221	851.479	653.839
303.920	20.382	850.949	653.982
304.935	20.325	850.491	653.354
305.949	20.541	849.620	653.443
306.964	20.424	848.991	652.458
307.979	20.348	848.299	651.586
308.993	20.228	848.051	650.888
310.008	20.472	847.752	651.515
311.022	20.444	847.025	650.793
312.037	20.420	846.632	650.344
313.052	20.199	846.302	649.207
314.066	20.035	845.490	647.912
315.081	20.098	844.474	647.311
316.095	20.091	843.900	646.790
317.110	20.058	843.612	646.386
318.125	20.184	842.990	646.322
319.139	20.084	842.447	645.478
320.154	20.218	842.082	645.641
321.168	20.103	841.502	644.709
322.183	20.116	840.836	644.189
323.197	20.160	840.429	643.986
324.212	20.160	840.103	643.679
325.227	20.160	839.733	643.337
326.241	20.393	838.673	643.333
327.256	20.303	838.068	642.480
328.270	20.269	837.535	641.886
329.285	20.300	837.025	641.555
330.300	20.151	836.364	640.439
331.314	20.158	835.621	639.840
332.329	20.168	835.404	639.656
333.343	20.407	834.889	640.086
334.358	20.287	834.597	639.360
335.373	20.538	833.587	639.455
336.387	20.490	833.198	638.925
337.402	20.591	832.572	638.756
338.416	20.713	832.182	638.849
339.431	20.566	831.868	638.015
340.446	20.915	831.322	638.817
341.460	20.827	830.465	637.780
342.475	20.890	830.152	637.713
343.489	20.919	830.033	637.673
344.504	21.088	829.050	637.478
345.519	20.952	828.833	636.759
346.533	21.240	827.983	637.101
347.548	21.156	827.767	636.571
348.562	20.942	826.718	634.927
349.577	20.735	826.295	633.795
350.592	20.641	825.787	633.007
351.606	20.602	825.347	632.470
352.621	20.483	824.806	631.567
353.635	20.513	824.403	631.311
354.650	20.576	824.068	631.227
355.665	20.686	823.537	631.164
356.679	20.709	823.285	630.998
357.694	20.757	822.835	630.771
358.708	20.938	821.767	630.552
359.723	20.745	821.733	629.773
360.738	20.768	821.032	629.261
361.752	20.987	820.043	629.240
362.767	20.957	820.083	629.107
363.781	20.961	819.975	628.982
364.796	21.032	819.274	628.643
365.810	21.228	819.171	629.216
366.825	21.253	818.911	629.051
367.840	21.286	818.611	628.884
368.854	21.451	818.163	629.079
369.869	21.213	817.375	627.562
370.883	21.173	816.916	627.008
371.898	21.105	816.222	626.178
372.913	21.181	815.622	625.932
373.927	21.373	814.716	625.871
374.942	21.307	814.649	625.528
375.956	21.158	813.996	624.436
376.971	21.339	813.216	624.432
377.986	21.438	812.654	624.299
379.000	21.535	812.305	624.319
380.015	21.649	811.802	624.283
381.029	21.492	811.554	623.479
382.044	21.460	810.988	622.876
383.059	21.533	810.080	622.383
384.073	21.527	809.655	621.979
385.088	21.466	809.040	621.237
386.102	21.368	808.525	620.438
387.117	21.248	807.956	619.520
388.132	21.277	806.824	618.700
389.146	21.237	806.638	618.360
390.161	21.260	806.622	618.375
391.175	21.303	806.462	618.351
392.190	21.500	805.841	618.517
393.205	21.406	805.325	617.732
394.219	21.309	804.738	616.886
395.234	21.288	803.980	616.176
396.248	21.363	803.648	616.133
397.263	21.091	802.898	614.543
398.278	21.045	802.957	614.371
399.292	21.128	802.323	614.125
400.307	21.029	801.705	613.249
401.321	21.137	801.219	613.202
402.336	20.932	801.463	612.616
403.350	21.257	800.796	613.191
404.365	21.316	800.762	613.318
405.380	21.455	799.944	613.126
406.394	21.562	799.690	613.250
407.409	21.746	798.884	613.224
408.423	21.702	798.735	612.899
409.438	21.822	798.525	613.105
410.453	21.692	798.031	612.216
411.467	21.909	797.229	612.306
412.482	21.979	796.919	612.257
413.496	21.958	796.585	611.873
414.511	22.063	796.226	611.910
415.526	22.085	795.960	611.726
416.540	22.031	795.463	611.101
417.555	21.994	794.861	610.457
418.569	21.933	794.368	609.813
419.584	21.777	794.186	609.079
420.599	21.924	793.564	609.058
421.613	158.458	1368.087	1787.253
422.628	137.302	1451.820	1787.355
