DTS Sentinel unit serial number:	SN413079Multiplexer serial number:	ORYXHardware model number:	OX4-SRSoftware version number:	ORYX F/W v4.00 Oryx Data Collector v3.7.2.0data status	okinstallation	princeton_trtdifferential loss correction	single-endedforward channel	channel 3reverse channel	N/Adate	2019/09/19time	11:04:34forward acquisition time	60.00reverse acquisition time	0.00gamma	496.2192k internal	0.2342k external	0.2342temperature offset calibration	0.9984default loss term (dB/km)	0.3790temperature slope calibration	1.0000multiplexer offset coefficient	1.0000multiplexer slope coefficient	1.0000fibre end	0.00T internal ref (°C)	24.94T ext. ref 1 (°C)	0.75T ext. ref 2 (°C)	20.49length (m)	temperature (°C)	Stokes	anti-Stokes-747.200	-200.000	0.047	-0.255
-746.185	50.271	-0.129	0.122
-745.171	800.000	-0.064	-0.214
-744.156	-200.000	-0.012	0.219
-743.142	-71.746	0.281	0.105
-742.127	-132.501	0.140	0.018
-741.112	-10.549	-0.119	0.079
-740.098	-200.000	-0.000	0.139
-739.083	-13.317	0.074	-0.048
-738.069	-9.397	0.234	0.157
-737.054	60.729	-0.131	-0.130
-736.039	59.923	-0.281	0.278
-735.025	123.293	0.172	0.216
-734.010	800.000	-0.036	-0.140
-732.996	-87.746	-0.138	0.042
-731.981	-175.480	-0.222	0.006
-730.966	96.308	-0.244	0.279
-729.952	-65.772	-0.327	0.131
-728.937	278.818	0.075	0.135
-727.923	675.325	-0.177	0.461
-726.908	-97.921	-0.027	-0.007
-725.894	-95.954	-0.084	0.023
-724.879	-70.314	-0.279	-0.106
-723.864	136.072	-0.069	0.090
-722.850	-89.427	0.047	-0.014
-721.835	-131.850	-0.158	0.021
-720.821	48.814	0.259	0.243
-719.806	-109.674	-0.157	0.033
-718.791	268.835	-0.093	-0.164
-717.777	143.324	-0.091	0.121
-716.762	30.974	0.118	0.101
-715.748	800.000	-0.057	0.185
-714.733	-136.000	-0.197	0.023
-713.718	138.316	0.135	-0.177
-712.704	800.000	-0.082	-0.282
-711.689	-121.450	0.164	-0.027
-710.675	-200.000	-0.003	0.338
-709.660	304.750	0.163	-0.303
-708.645	489.097	-0.012	0.028
-707.631	1.641	-0.282	0.203
-706.616	-86.845	0.171	0.052
-705.602	297.524	-0.125	0.229
-704.587	-119.794	0.348	0.060
-703.572	-30.928	-0.258	-0.146
-702.558	-60.573	0.158	-0.067
-701.543	183.994	0.036	0.054
-700.529	-80.839	-0.170	0.057
-699.514	251.539	0.225	-0.383
-698.499	-68.784	0.034	0.013
-697.485	-35.770	0.185	0.100
-696.470	-131.851	0.179	0.023
-695.456	-91.519	0.107	-0.030
-694.441	-200.000	-0.011	0.090
-693.426	127.774	-0.063	0.080
-692.412	119.831	0.144	-0.178
-691.397	-200.000	0.010	0.278
-690.383	-200.000	0.020	0.370
-689.368	-120.312	-0.116	0.020
-688.354	-132.412	-0.272	0.035
-687.339	-2.692	-0.323	-0.226
-686.324	110.973	0.032	0.039
-685.310	800.000	-0.105	-0.371
-684.295	406.627	-0.092	-0.194
-683.281	296.557	-0.096	0.176
-682.266	-68.423	-0.211	-0.082
-681.251	-21.790	-0.016	-0.010
-680.237	-55.534	-0.207	0.093
-679.222	17.765	0.139	-0.110
-678.208	-200.000	-0.050	0.411
-677.193	97.390	0.141	-0.161
-676.178	348.884	-0.046	-0.090
-675.164	142.301	0.149	-0.197
-674.149	-59.585	0.414	-0.177
-673.135	-200.000	-0.054	-0.296
-672.120	800.000	-0.048	0.145
-671.105	-200.000	-0.022	0.138
-670.091	-200.000	0.228	0.001
-669.076	121.415	0.260	-0.324
-668.062	14.892	-0.099	-0.078
-667.047	54.886	0.114	0.110
-666.032	800.000	-0.068	-0.204
-665.018	684.182	-0.057	-0.149
-664.003	-40.672	0.126	-0.065
-662.989	-7.787	0.241	0.162
-661.974	756.711	0.144	-0.389
-660.959	181.506	-0.158	-0.232
-659.945	412.372	0.040	-0.084
-658.930	-200.000	-0.020	0.131
-657.916	800.000	0.088	0.365
-656.901	-98.230	-0.173	0.044
-655.886	800.000	-0.032	-0.132
-654.872	-115.285	-0.124	0.023
-653.857	-80.250	0.224	0.075
-652.843	34.621	-0.206	0.180
-651.828	-48.026	-0.432	-0.208
-650.814	41.192	-0.087	-0.078
-649.799	-119.830	0.216	-0.037
-648.784	-169.343	-0.096	0.004
-647.770	800.000	0.041	0.146
-646.755	-98.978	0.095	-0.024
-645.741	502.197	-0.076	0.175
-644.726	800.000	-0.073	0.225
-643.711	-40.369	-0.230	0.119
-642.697	339.711	-0.104	0.202
-641.682	-120.913	-0.252	0.042
-640.668	21.802	0.299	0.243
-639.653	-200.000	-0.008	-0.107
-638.638	-15.887	-0.144	0.091
-637.624	-15.665	0.274	-0.175
-636.609	45.984	0.018	-0.017
-635.595	398.725	0.086	-0.180
-634.580	325.995	-0.013	-0.024
-633.565	800.000	0.186	-0.538
-632.551	-103.675	0.319	0.075
-631.536	20.736	-0.323	0.261
-630.522	53.464	-0.151	-0.144
-629.507	-47.273	0.249	-0.121
-628.492	24.064	0.112	-0.093
-627.478	-77.923	0.319	0.110
-626.463	157.142	0.113	0.156
-625.449	110.813	-0.167	0.200
-624.434	497.078	-0.135	-0.310
-623.419	-55.592	-0.060	-0.027
-622.405	-75.556	0.091	-0.032
-621.390	129.028	-0.146	0.185
-620.376	-66.777	0.133	0.053
-619.361	266.172	0.049	-0.085
-618.346	105.024	-0.097	-0.114
-617.332	56.131	-0.152	0.148
-616.317	38.789	0.085	-0.076
-615.303	-29.174	-0.298	0.170
-614.288	800.000	-0.049	-0.169
-613.273	-82.251	-0.258	0.084
-612.259	25.492	-0.105	0.087
-611.244	800.000	-0.214	-0.669
-610.230	-200.000	0.013	-0.205
-609.215	9.703	-0.221	-0.167
-608.201	800.000	-0.116	-0.341
-607.186	-78.204	-0.077	0.026
-606.171	73.677	-0.151	-0.157
-605.157	-12.646	-0.311	-0.202
-604.142	-200.000	-0.012	-0.166
-603.128	167.519	-0.236	0.334
-602.113	-200.000	-0.054	0.286
-601.098	790.180	-0.054	0.148
-600.084	78.626	0.213	0.227
-599.069	-115.887	0.161	0.030
-598.055	156.891	-0.099	0.136
-597.040	-35.961	0.125	-0.067
-596.025	-103.435	-0.286	-0.067
-595.011	381.802	-0.168	0.343
-593.996	52.398	-0.228	-0.217
-592.982	-47.746	0.318	-0.154
-591.967	303.291	0.092	-0.169
-590.952	-55.647	0.123	-0.055
-589.938	121.994	0.107	-0.133
-588.923	166.925	0.118	-0.166
-587.909	74.227	0.165	-0.172
-586.894	562.424	-0.076	-0.182
-585.879	-88.594	0.051	0.015
-584.865	-200.000	-0.038	0.197
-583.850	171.714	0.190	0.271
-582.836	40.619	-0.264	-0.237
-581.821	-120.780	0.123	0.021
-580.806	95.673	0.146	-0.166
-579.792	-200.000	-0.028	0.243
-578.777	219.120	-0.032	-0.051
-577.763	-73.278	-0.134	-0.049
-576.748	-85.728	0.043	-0.013
-575.733	-200.000	0.007	0.266
-574.719	284.950	-0.078	-0.139
-573.704	-200.000	0.078	-0.356
-572.690	-59.720	-0.274	0.117
-571.675	800.000	0.024	0.078
-570.661	-185.080	0.170	-0.003
-569.646	44.822	0.094	-0.086
-568.631	-156.529	0.165	-0.010
-567.617	-145.480	0.070	-0.006
-566.602	-74.221	-0.213	-0.077
-565.588	-128.678	0.138	-0.019
-564.573	-200.000	-0.017	-0.125
-563.558	-106.786	0.107	0.024
-562.544	-200.000	-0.012	-0.188
-561.529	800.000	0.078	0.238
-560.515	-179.780	0.285	0.006
-559.500	-58.555	-0.255	-0.110
-558.485	-27.148	0.128	-0.074
-557.471	-16.448	-0.120	-0.076
-556.456	-200.000	-0.034	0.150
-555.442	330.124	-0.012	0.024
-554.427	-200.000	0.041	0.195
-553.412	-2.256	-0.387	0.270
-552.398	4.073	0.020	0.015
-551.383	-200.000	-0.045	0.353
-550.369	-173.178	-0.191	0.006
-549.354	101.753	-0.084	0.097
-548.339	-78.085	0.088	-0.030
-547.325	499.503	0.015	-0.035
-546.310	-126.878	-0.140	0.020
-545.296	45.847	0.197	-0.181
-544.281	366.488	-0.078	0.156
-543.266	-200.000	0.008	-0.188
-542.252	-200.000	-0.050	0.261
-541.237	-120.971	0.169	0.028
-540.223	-200.000	-0.058	0.255
-539.208	-200.000	-0.057	0.270
-538.193	800.000	0.048	0.195
-537.179	23.107	0.262	0.214
-536.164	566.524	0.072	-0.174
-535.150	-74.035	0.342	0.123
-534.135	546.771	-0.056	0.133
-533.121	-120.742	0.205	-0.034
-532.106	21.584	0.209	0.169
-531.091	-116.296	-0.109	-0.020
-530.077	-175.847	0.208	0.006
-529.062	-9.925	-0.255	-0.168
-528.048	310.206	0.032	-0.060
-527.033	38.232	-0.287	0.254
-526.018	62.968	0.118	0.118
-525.004	37.009	-0.153	-0.135
-523.989	43.027	0.206	-0.187
-522.975	-45.671	-0.272	-0.133
-521.960	149.727	0.102	-0.137
-520.945	1.513	-0.296	-0.212
-519.931	-95.530	-0.322	-0.086
-518.916	761.075	-0.035	-0.094
-517.902	777.801	0.145	0.394
-516.887	-88.816	0.202	-0.060
-515.872	65.050	-0.076	-0.076
-514.858	67.731	-0.146	0.148
-513.843	42.904	0.166	0.150
-512.829	683.432	-0.080	-0.206
-511.814	-31.311	0.172	0.096
-510.799	-10.142	0.183	0.120
-509.785	-80.031	0.525	-0.175
-508.770	-74.649	-0.152	-0.054
-507.756	-104.635	-0.430	0.098
-506.741	14.349	-0.045	-0.035
-505.726	800.000	-0.062	-0.232
-504.712	435.172	0.062	0.133
-503.697	-200.000	0.073	0.405
-502.683	72.989	0.168	-0.174
-501.668	151.945	-0.274	0.370
-500.653	281.433	-0.146	-0.260
-499.639	261.548	0.070	-0.121
-498.624	-130.477	-0.236	0.032
-497.610	800.000	0.104	-0.363
-496.595	-158.017	-0.066	0.004
-495.581	-0.886	0.087	-0.061
-494.566	-86.497	-0.125	0.038
-493.551	123.447	-0.037	-0.046
-492.537	-58.234	-0.283	0.122
-491.522	58.126	0.204	-0.198
-490.508	-97.945	-0.150	0.038
-489.493	-95.412	0.390	0.104
-488.478	-75.616	-0.132	0.047
-487.464	94.512	0.255	0.288
-486.449	-127.784	-0.170	-0.024
-485.435	170.190	0.168	0.238
-484.420	421.869	-0.066	-0.141
-483.405	166.955	0.123	0.172
-482.391	-146.752	-0.290	0.025
-481.376	-39.352	0.234	0.121
-480.362	800.000	-0.055	-0.168
-479.347	278.266	0.106	-0.187
-478.332	43.769	0.098	-0.089
-477.318	78.382	-0.062	-0.066
-476.303	-21.776	-0.357	0.215
-475.289	-200.000	-0.013	-0.175
-474.274	800.000	-0.063	-0.241
-473.259	-139.216	-0.135	0.014
-472.245	-105.553	0.377	-0.085
-471.230	27.350	0.199	-0.165
-470.216	-90.358	-0.157	0.045
-469.201	46.067	-0.137	0.126
-468.186	-127.642	0.162	0.023
-467.172	26.902	-0.204	-0.169
-466.157	81.065	-0.190	0.203
-465.143	800.000	-0.054	0.152
-464.128	-18.342	0.106	0.066
-463.113	216.773	0.098	-0.155
-462.099	11.421	-0.183	0.139
-461.084	800.000	-0.067	-0.208
-460.070	88.572	0.133	0.146
-459.055	143.719	0.009	0.011
-458.040	79.419	0.082	0.087
-457.026	-118.752	0.238	0.042
-456.011	800.000	-0.034	-0.141
-454.997	-138.234	0.255	-0.028
-453.982	-67.536	-0.229	-0.089
-452.968	576.204	0.072	-0.173
-451.953	310.012	-0.126	-0.233
-450.938	-171.565	-0.091	0.003
-449.924	124.360	0.217	-0.270
-448.909	-200.000	-0.064	-0.327
-447.895	-10.471	0.105	-0.069
-446.880	-113.810	0.188	-0.036
-445.865	-200.000	0.010	0.395
-444.851	189.539	0.117	0.174
-443.836	-200.000	0.010	0.258
-442.822	105.099	-0.249	0.291
-441.807	161.780	0.018	-0.025
-440.792	-200.000	-0.006	-0.489
-439.778	252.445	0.201	0.339
-438.763	-124.674	-0.282	0.043
-437.749	322.733	0.111	0.209
-436.734	-44.178	-0.273	-0.136
-435.719	-76.066	0.079	-0.027
-434.705	-133.188	-0.325	-0.041
-433.690	19.347	-0.251	0.200
-432.676	-200.000	-0.015	-0.244
-431.661	-52.479	-0.525	-0.240
-430.646	65.385	-0.245	0.246
-429.632	-56.523	-0.338	-0.148
-428.617	-48.455	-0.179	0.085
-427.603	3.510	0.345	-0.249
-426.588	-200.000	-0.006	0.083
-425.573	-57.151	0.242	0.106
-424.559	68.740	0.120	0.122
-423.544	-200.000	-0.026	0.120
-422.530	-200.000	0.004	-0.111
-421.515	299.970	-0.126	0.230
-420.500	800.000	0.096	0.282
-419.486	-13.885	-0.271	0.173
-418.471	-42.760	-0.206	0.104
-417.457	-26.703	-0.038	0.022
-416.442	5.014	0.142	-0.103
-415.428	-41.478	-0.270	0.137
-414.413	-124.625	0.393	0.060
-413.398	37.351	-0.035	-0.031
-412.384	-200.000	0.065	-0.440
-411.369	268.638	-0.173	-0.299
-410.355	675.970	-0.067	-0.173
-409.340	800.000	0.033	0.101
-408.325	-146.361	0.248	-0.021
-407.311	596.305	0.125	0.306
-406.296	-121.437	-0.027	0.004
-405.282	359.449	0.088	-0.175
-404.267	-21.777	0.170	-0.102
-403.252	-98.254	-0.307	-0.078
-402.238	-200.000	0.007	-0.445
-401.223	-90.241	0.383	0.110
-400.209	-10.964	-0.185	-0.121
-399.194	301.012	-0.096	-0.176
-398.179	-200.000	0.001	0.056
-397.165	787.948	0.085	0.232
-396.150	-156.372	0.231	0.014
-395.136	303.906	0.086	-0.157
-394.121	174.400	0.054	0.077
-393.106	34.883	0.270	0.234
-392.092	123.048	-0.056	-0.069
-391.077	-61.596	0.233	0.097
-390.063	611.411	0.095	0.235
-389.048	473.714	0.084	-0.186
-388.033	-120.543	-0.485	0.081
-387.019	-43.601	0.343	0.171
-386.004	303.950	0.059	0.109
-384.990	800.000	-0.020	-0.073
-383.975	-32.137	-0.256	-0.141
-382.960	-78.412	-0.247	0.084
-381.946	-163.252	0.153	-0.007
-380.931	134.786	-0.187	-0.240
-379.917	367.781	0.047	-0.093
-378.902	240.904	-0.225	-0.371
-377.888	186.762	-0.234	0.344
-376.873	130.934	0.145	0.183
-375.858	-152.854	0.471	0.033
-374.844	73.333	-0.160	-0.165
-373.829	-87.260	-0.094	-0.028
-372.815	-84.186	-0.115	0.036
-371.800	-200.000	-0.051	-0.242
-370.785	-127.199	0.061	0.009
-369.771	-200.000	0.006	-0.044
-368.756	128.029	-0.034	-0.043
-367.742	-200.000	-0.028	-0.242
-366.727	514.385	0.061	0.140
-365.712	-6.992	0.069	0.046
-364.698	-93.076	-0.329	-0.090
-363.683	-106.650	-0.094	-0.021
-362.669	54.296	-0.182	-0.173
-361.654	76.927	-0.061	-0.063
-360.639	-144.030	-0.091	0.008
-359.625	137.484	0.063	-0.081
-358.610	-50.285	-0.271	-0.126
-357.596	697.120	0.103	0.268
-356.581	40.353	0.078	0.069
-355.566	58.301	-0.128	0.124
-354.552	-165.609	-0.072	0.003
-353.537	800.000	-0.019	0.076
-352.523	212.493	0.171	0.267
-351.508	-101.389	-0.198	-0.048
-350.493	800.000	0.043	-0.184
-349.479	-200.000	-0.029	-0.171
-348.464	669.105	0.036	0.091
-347.450	800.000	0.030	-0.126
-346.435	-93.311	0.362	0.099
-345.420	-200.000	0.040	-0.205
-344.406	144.770	0.225	-0.297
-343.391	-139.483	-0.167	-0.018
-342.377	383.518	-0.086	-0.175
-341.362	-82.805	0.234	0.074
-340.348	30.450	0.172	0.145
-339.333	247.955	0.127	-0.211
-338.318	-200.000	0.024	-0.151
-337.304	800.000	-0.086	0.352
-336.289	-165.277	0.315	-0.014
-335.275	73.089	0.202	0.208
-334.260	158.368	-0.147	-0.201
-333.245	-200.000	0.014	0.207
-332.231	800.000	-0.072	0.200
-331.216	-200.000	-0.029	0.223
-330.202	-80.979	0.487	-0.159
-329.187	-69.397	0.154	0.058
-328.172	-151.793	0.076	-0.006
-327.158	-190.794	-0.225	-0.002
-326.143	-200.000	0.001	0.188
-325.129	51.624	0.183	-0.172
-324.114	19.213	-0.088	0.069
-323.099	208.828	0.133	0.204
-322.085	-100.890	0.456	-0.110
-321.070	72.811	-0.194	-0.200
-320.056	-46.664	-0.116	-0.056
-319.041	300.644	0.074	0.134
-318.026	193.268	0.078	0.116
-317.012	-177.959	0.178	0.004
-315.997	-11.643	-0.151	-0.098
-314.983	651.716	-0.056	-0.142
-313.968	-200.000	-0.024	-0.137
-312.953	-200.000	-0.064	0.295
-311.939	-200.000	0.035	0.282
-310.924	63.031	0.095	-0.094
-309.910	125.960	-0.071	0.088
-308.895	-71.880	-0.169	-0.062
-307.880	44.945	0.163	-0.148
-306.866	-200.000	0.010	-0.262
-305.851	-200.000	0.072	0.340
-304.837	-33.069	-0.280	0.153
-303.822	196.231	-0.223	-0.334
-302.807	-164.376	-0.177	-0.008
-301.793	800.000	-0.163	0.569
-300.778	42.513	-0.073	-0.066
-299.764	-138.107	-0.317	0.035
-298.749	144.569	0.117	0.153
-297.735	-68.600	-0.077	0.029
-296.720	174.857	0.090	-0.128
-295.705	327.325	0.208	-0.393
-294.691	800.000	-0.023	-0.067
-293.676	-200.000	0.001	-0.218
-292.662	800.000	-0.014	0.058
-291.647	-200.000	0.015	-0.076
-290.632	800.000	0.078	0.240
-289.618	-6.764	0.137	-0.091
-288.603	-52.240	-0.244	0.111
-287.589	-200.000	-0.054	0.293
-286.574	40.055	-0.057	0.050
-285.559	-200.000	-0.012	-0.062
-284.545	800.000	0.067	0.236
-283.530	-188.865	0.027	-0.000
-282.516	179.950	0.233	0.336
-281.501	41.078	0.191	0.170
-280.486	800.000	-0.067	-0.252
-279.472	-16.531	0.387	-0.241
-278.457	-5.628	-0.063	0.042
-277.443	-116.930	-0.154	-0.028
-276.428	-52.171	-0.155	-0.071
-275.413	-76.812	0.214	0.074
-274.399	272.011	0.026	0.046
-273.384	-200.000	-0.017	0.095
-272.370	33.212	-0.173	-0.148
-271.355	-173.996	0.257	-0.007
-270.340	110.696	0.137	0.162
-269.326	-200.000	-0.025	0.212
-268.311	-36.564	-0.157	-0.083
-267.297	69.305	0.329	-0.333
-266.282	-200.000	-0.000	-0.588
-265.267	300.112	0.106	-0.192
-264.253	-200.000	0.008	-0.209
-263.238	800.000	0.004	0.013
-262.224	-28.554	-0.175	-0.099
-261.209	-200.000	0.014	0.079
-260.195	130.540	0.154	-0.194
-259.180	-145.818	0.049	-0.004
-258.165	199.251	0.065	-0.098
-257.151	115.890	0.225	-0.271
-256.136	-50.786	0.144	-0.066
-255.122	139.413	-0.170	-0.220
-254.107	7.264	0.215	0.158
-253.092	-200.000	-0.029	-0.221
-252.078	-172.539	-0.287	0.009
-251.063	-134.148	-0.036	-0.004
-250.049	-137.323	-0.123	0.014
-249.034	800.000	-0.053	0.146
-248.019	500.983	-0.048	0.109
-247.005	80.697	-0.091	0.097
-245.990	-200.000	-0.069	0.317
-244.976	12.504	-0.165	-0.125
-243.961	-139.554	0.266	-0.028
-242.946	42.804	0.287	0.257
-241.932	800.000	-0.108	-0.405
-240.917	-71.007	-0.228	-0.084
-239.903	121.819	-0.218	0.267
-238.888	68.663	-0.161	0.162
-237.873	-56.865	-0.064	-0.028
-236.859	-200.000	-0.006	-0.090
-235.844	-200.000	0.039	-0.183
-234.830	-91.877	0.295	-0.082
-233.815	76.860	-0.213	0.222
-232.800	-5.222	-0.038	0.026
-231.786	-200.000	0.035	0.333
-230.771	-113.153	-0.381	0.074
-229.757	-18.858	0.121	0.074
-228.742	-31.401	0.116	0.064
-227.727	-136.498	-0.166	-0.019
-226.713	-94.371	0.185	-0.050
-225.698	21.453	-0.165	0.132
-224.684	147.016	0.157	0.207
-223.669	-200.000	0.002	0.116
-222.655	-200.000	-0.031	-0.173
-221.640	-87.541	-0.196	-0.058
-220.625	-3.712	-0.067	0.046
-219.611	-36.565	0.198	0.105
-218.596	-200.000	0.004	-0.177
-217.582	-130.692	0.434	0.057
-216.567	617.011	-0.061	0.149
-215.552	488.308	0.067	-0.151
-214.538	-23.105	0.102	0.060
-213.523	-118.631	-0.194	-0.034
-212.509	491.186	0.093	0.208
-211.494	-156.196	0.314	-0.019
-210.479	40.397	-0.141	-0.125
-209.465	52.920	-0.174	0.163
-208.450	-200.000	0.000	-0.091
-207.436	-0.284	-0.101	-0.071
-206.421	-103.762	0.202	-0.046
-205.406	-200.000	0.000	-0.073
-204.392	-18.795	-0.241	-0.147
-203.377	-200.000	0.002	0.173
-202.363	800.000	-0.097	0.328
-201.348	-55.758	0.240	0.105
-200.333	-110.800	0.194	-0.039
-199.319	-131.611	-0.483	0.062
-198.304	119.176	-0.171	0.207
-197.290	-200.000	0.005	0.205
-196.275	800.000	-0.037	-0.157
-195.260	-14.141	0.204	0.129
-194.246	800.000	0.101	0.295
-193.231	800.000	0.047	0.189
-192.217	-25.504	-0.277	-0.160
-191.202	27.367	-0.007	0.006
-190.187	-67.588	0.169	0.065
-189.173	800.000	0.043	-0.159
-188.158	-93.293	0.190	-0.052
-187.144	800.000	-0.035	0.138
-186.129	-200.000	-0.001	-0.092
-185.114	-200.000	-0.033	-0.447
-184.100	-200.000	-0.047	0.000
-183.085	-183.342	-0.123	0.002
-182.071	314.643	-0.095	0.176
-181.056	246.829	0.033	-0.055
-180.042	-140.998	0.122	0.012
-179.027	175.478	0.086	0.121
-178.012	155.827	0.174	-0.235
-176.998	800.000	-0.093	0.339
-175.983	-102.308	0.457	0.107
-174.969	-173.626	-0.141	-0.004
-173.954	160.588	0.091	-0.125
-172.939	-18.602	-0.329	-0.201
-171.925	-194.727	-0.042	-0.000
-170.910	654.554	-0.111	0.278
-169.896	-104.446	0.232	-0.053
-168.881	296.033	0.031	0.055
-167.866	459.652	-0.141	0.306
-166.852	-85.660	0.143	0.043
-165.837	353.139	-0.154	0.299
-164.823	66.276	-0.149	-0.148
-163.808	800.000	0.027	-0.079
-162.793	-200.000	0.018	0.271
-161.779	104.795	-0.132	-0.153
-160.764	107.946	0.052	-0.060
-159.750	-200.000	0.016	-0.183
-158.735	-60.167	0.313	-0.130
-157.720	141.881	0.102	-0.132
-156.706	441.939	0.066	0.142
-155.691	205.654	-0.110	0.168
-154.677	110.218	0.210	-0.246
-153.662	-84.274	0.148	-0.046
-152.647	435.946	0.249	-0.530
-151.633	-62.450	-0.038	-0.015
-150.618	-171.856	0.176	-0.006
-149.604	115.540	-0.168	0.201
-148.589	-46.684	0.314	0.151
-147.574	800.000	-0.069	0.247
-146.560	78.501	0.076	0.080
-145.545	169.492	-0.164	-0.230
-144.531	98.529	0.261	0.294
-143.516	-200.000	-0.021	-0.105
-142.502	800.000	-0.095	0.291
-141.487	113.525	0.203	-0.241
-140.472	673.940	-0.093	-0.235
-139.458	6.832	-0.144	-0.105
-138.443	-38.165	0.310	0.161
-137.429	-30.218	0.311	0.173
-136.414	36.030	-0.130	-0.112
-135.399	5.966	0.026	0.019
-134.385	120.194	0.079	0.096
-133.370	-8.582	-0.098	-0.065
-132.356	37.278	0.233	0.202
-131.341	800.000	0.008	0.034
-130.326	-15.123	-0.327	-0.205
-129.312	292.934	0.034	0.061
-128.297	800.000	-0.057	-0.169
-127.283	-200.000	-0.040	-0.179
-126.268	-81.055	0.219	-0.071
-125.253	800.000	-0.090	-0.266
-124.239	534.930	-0.051	-0.119
-123.224	-133.304	-0.301	-0.037
-122.210	51.518	0.165	-0.153
-121.195	-104.294	-0.089	0.020
-120.180	-120.429	0.200	-0.033
-119.166	187.366	-0.165	0.240
-118.151	-141.533	0.187	0.018
-117.137	-82.502	-0.175	-0.055
-116.122	-85.731	-0.120	0.036
-115.107	-180.872	0.239	0.005
-114.093	2.993	0.167	-0.118
-113.078	-11.636	-0.311	-0.200
-112.064	-160.330	0.377	-0.020
-111.049	158.428	-0.105	-0.143
-110.034	113.823	0.017	-0.020
-109.020	-200.000	-0.020	-0.298
-108.005	-123.061	0.286	0.045
-106.991	-200.000	0.001	-0.083
-105.976	-136.721	-0.125	0.014
-104.962	-180.030	0.123	-0.003
-103.947	-87.391	-0.341	-0.101
-102.932	-122.164	-0.274	-0.044
-101.918	146.357	0.166	0.218
-100.903	-97.885	-0.259	0.065
-99.889	58.996	0.127	0.122
-98.874	-167.996	-0.137	-0.005
-97.859	43.255	-0.178	-0.158
-96.845	408.325	-0.204	0.421
-95.830	544.334	0.139	0.324
-94.816	800.000	-0.043	0.174
-93.801	-61.176	-0.146	0.060
-92.786	346.997	0.090	0.173
-91.772	800.000	0.055	0.185
-90.757	800.000	-0.144	0.530
-89.743	-61.303	0.234	-0.096
-88.728	83.387	0.087	0.093
-87.713	-127.991	0.250	-0.035
-86.699	800.000	0.104	0.344
-85.684	-34.088	-0.105	0.056
-84.670	227.476	-0.064	0.101
-83.655	-14.721	0.203	0.127
-82.640	800.000	-0.051	-0.197
-81.626	800.000	-0.066	-0.177
-80.611	433.528	-0.123	0.261
-79.597	521.468	-0.024	0.054
-78.582	800.000	-0.234	0.739
-77.567	106.167	0.236	-0.273
-76.553	70.330	-0.011	-0.012
-75.538	128.291	-0.148	-0.184
-74.524	-200.000	-0.023	0.263
-73.509	-74.082	-0.395	-0.140
-72.494	800.000	0.037	0.106
-71.480	-200.000	-0.013	-0.316
-70.465	191.006	0.147	0.215
-69.451	343.246	-0.108	-0.207
-68.436	-200.000	-0.013	-0.434
-67.422	-83.533	-0.394	-0.123
-66.407	-14.169	-0.182	-0.115
-65.392	800.000	0.058	0.180
-64.378	800.000	-0.027	0.099
-63.363	166.121	-0.063	0.088
-62.349	-182.303	0.268	0.005
-61.334	59.616	-1.098	-1.056
-60.319	536.846	0.147	0.340
-59.305	800.000	-0.369	-1.341
-58.290	108.500	0.853	0.993
-57.276	-200.000	0.236	1.615
-56.261	-200.000	121.193	614.799
-55.246	382.859	1582.465	3173.273
-54.232	139.243	2754.982	3533.556
-53.217	95.042	2211.648	2455.040
-52.203	35.415	1721.089	1472.393
-51.188	28.058	1534.418	1262.082
-50.173	25.927	1509.751	1227.255
-49.159	48.195	1575.512	1436.702
-48.144	46.532	1590.102	1438.348
-47.130	28.134	1541.486	1268.222
-46.115	25.269	1525.333	1235.197
-45.100	25.036	1522.291	1231.086
-44.086	25.047	1520.134	1229.363
-43.071	24.906	1518.785	1227.261
-42.057	24.948	1516.989	1226.049
-41.042	24.969	1515.605	1225.026
-40.027	24.976	1513.619	1223.417
-39.013	24.971	1512.408	1222.358
-37.998	24.908	1511.093	1220.819
-36.984	24.906	1509.802	1219.710
-35.969	24.907	1508.459	1218.581
-34.954	24.901	1507.201	1217.476
-33.940	24.951	1505.715	1216.566
-32.925	24.950	1504.626	1215.631
-31.911	24.953	1502.944	1214.250
-30.896	24.951	1501.435	1212.966
-29.881	24.998	1500.921	1212.823
-28.867	24.968	1499.375	1211.322
-27.852	25.029	1497.801	1210.414
-26.838	24.971	1496.245	1208.718
-25.823	25.088	1493.993	1207.638
-24.809	24.873	1493.314	1205.592
-23.794	24.997	1491.551	1204.958
-22.779	24.939	1490.311	1203.519
-21.765	24.925	1489.380	1202.622
-20.750	25.008	1488.334	1202.286
-19.736	25.008	1486.913	1201.095
-18.721	24.911	1486.849	1200.345
-17.706	24.951	1485.544	1199.508
-16.692	25.004	1484.451	1198.932
-15.677	24.948	1483.571	1197.798
-14.663	24.905	1482.292	1196.432
-13.648	24.802	1481.653	1195.180
-12.633	24.869	1480.599	1194.732
-11.619	24.949	1479.661	1194.461
-10.604	24.921	1478.783	1193.516
-9.590	24.830	1478.122	1192.333
-8.575	24.896	1476.721	1191.595
-7.560	24.923	1476.215	1191.320
-6.546	25.053	1474.801	1190.989
-5.531	24.929	1474.340	1189.747
-4.517	24.926	1473.181	1188.747
-3.502	24.899	1472.067	1187.620
-2.487	24.824	1471.584	1186.689
-1.473	24.896	1470.530	1186.268
-0.458	25.051	1468.384	1185.513
0.556	23.990	1459.721	1175.166
1.571	21.176	1435.017	1136.877
2.586	17.734	1371.957	1065.356
3.600	16.339	1285.937	990.294
4.615	14.944	1242.034	948.494
5.629	13.077	1185.167	894.879
6.644	6.812	1101.917	800.285
7.659	1.560	1064.880	747.554
8.673	0.779	1059.595	739.958
9.688	0.739	1056.506	737.540
10.702	0.822	1054.570	736.526
11.717	0.680	1052.950	734.638
12.731	2.753	1054.021	745.402
13.746	9.329	1062.745	783.639
14.761	15.139	1070.086	817.416
15.775	17.029	1072.344	828.300
16.790	16.860	1071.729	826.927
17.804	15.951	1069.033	820.350
18.819	15.121	1067.050	814.715
19.834	14.688	1065.717	811.526
20.848	14.321	1065.115	809.211
21.863	14.114	1064.109	807.373
22.877	13.865	1063.162	805.371
23.892	13.860	1062.065	804.444
24.907	13.704	1061.184	802.951
25.921	13.645	1060.547	802.112
26.936	13.553	1060.416	801.500
27.950	13.665	1059.323	801.143
28.965	13.756	1058.492	800.884
29.980	13.704	1058.104	800.269
30.994	13.744	1056.373	799.082
32.009	13.805	1055.887	798.938
33.023	13.813	1055.370	798.513
34.038	13.902	1054.177	797.966
35.053	13.870	1053.305	797.084
36.067	13.740	1052.903	796.082
37.082	13.692	1051.868	795.001
38.096	13.781	1050.844	794.581
39.111	13.727	1050.294	793.836
40.126	13.867	1049.086	793.525
41.140	13.674	1048.109	791.793
42.155	13.654	1046.969	790.767
43.169	13.757	1046.118	790.545
44.184	13.616	1045.250	789.149
45.199	13.679	1044.053	788.475
46.213	13.583	1043.360	787.422
47.228	13.768	1042.211	787.366
48.242	13.667	1041.029	785.921
49.257	13.690	1040.241	785.368
50.271	13.638	1039.533	784.519
51.286	13.652	1038.687	783.875
52.301	13.685	1037.823	783.313
53.315	13.722	1036.849	782.679
54.330	13.621	1036.242	781.679
55.344	13.819	1035.239	781.786
56.359	13.675	1034.017	780.116
57.374	13.707	1033.577	779.864
58.388	13.613	1032.943	778.875
59.403	13.529	1032.173	777.831
60.417	13.757	1030.870	777.851
61.432	13.610	1030.403	776.741
62.447	13.561	1029.877	776.045
63.461	13.491	1029.129	775.087
64.476	13.489	1028.172	774.285
65.490	13.600	1026.897	773.777
66.505	13.532	1026.165	772.837
67.520	13.601	1025.911	772.903
68.534	13.578	1024.690	771.805
69.549	13.651	1023.790	771.400
70.563	13.733	1023.080	771.179
71.578	13.740	1022.954	771.049
72.593	13.634	1021.426	769.337
73.607	13.579	1020.104	768.014
74.622	13.686	1019.605	768.067
75.636	13.680	1018.324	767.005
76.651	13.601	1017.877	766.237
77.666	13.507	1017.646	765.563
78.680	13.588	1016.544	765.039
79.695	13.524	1016.245	764.451
80.709	13.513	1015.644	763.879
81.724	13.599	1014.607	763.428
82.739	13.585	1013.598	762.536
83.753	13.706	1012.908	762.506
84.768	13.726	1011.994	761.843
85.782	13.732	1011.300	761.279
86.797	13.827	1010.761	761.244
87.812	13.789	1009.763	760.252
88.826	13.585	1009.351	758.938
89.841	13.757	1008.047	758.677
90.855	13.667	1007.451	757.751
91.870	13.835	1006.274	757.564
92.884	13.959	1005.783	757.692
93.899	13.874	1004.950	756.612
94.914	13.918	1004.179	756.166
95.928	13.862	1003.676	755.466
96.943	13.763	1003.230	754.612
97.957	13.765	1002.402	753.932
98.972	13.790	1001.681	753.434
99.987	13.911	1000.381	752.941
101.001	13.901	999.439	752.118
102.016	13.847	999.025	751.499
103.030	13.858	997.729	750.504
104.045	13.811	997.090	749.748
105.060	13.809	996.503	749.230
106.074	13.780	995.276	748.108
107.089	13.841	994.408	747.665
108.103	13.672	993.953	746.496
109.118	13.791	992.816	746.110
110.133	13.711	992.172	745.204
111.147	13.792	990.938	744.574
112.162	13.681	990.316	743.542
113.176	13.653	989.470	742.717
114.191	13.715	988.455	742.167
115.206	13.865	987.267	741.880
116.220	13.793	986.736	741.093
117.235	13.811	986.163	740.677
118.249	13.795	984.928	739.613
119.264	13.781	983.965	738.759
120.279	13.712	983.106	737.744
121.293	13.726	982.451	737.248
122.308	13.716	981.553	736.467
123.322	13.745	980.984	736.102
124.337	13.660	979.777	734.753
125.352	13.851	978.151	734.314
126.366	13.771	977.467	733.386
127.381	13.745	976.457	732.444
128.395	13.637	975.439	731.140
129.410	13.769	974.206	730.736
130.424	13.770	973.358	730.039
131.439	13.793	972.436	729.383
132.454	13.744	971.474	728.380
133.468	13.953	970.190	728.270
134.483	13.802	970.258	727.596
135.497	13.758	969.819	727.010
136.512	13.696	969.354	726.326
137.527	13.759	967.964	725.492
138.541	13.691	967.296	724.632
139.556	13.795	966.518	724.441
140.570	13.755	965.486	723.425
141.585	13.825	964.848	723.192
142.600	13.934	964.298	723.187
143.614	13.955	963.258	722.434
144.629	13.951	962.431	721.735
145.643	13.984	962.007	721.495
146.658	13.861	961.247	720.329
147.673	14.050	960.050	720.187
148.687	13.926	959.176	718.931
149.702	13.885	958.364	718.079
150.716	13.829	957.537	717.155
151.731	13.903	956.510	716.642
152.746	13.995	955.769	716.420
153.760	13.879	955.676	715.786
154.775	13.843	954.400	714.615
155.789	13.936	953.750	714.466
156.804	13.822	953.294	713.571
157.819	14.026	952.419	713.728
158.833	14.018	951.330	712.815
159.848	14.157	950.754	712.915
160.862	14.032	950.329	711.999
161.877	14.131	949.452	711.701
162.892	14.087	948.509	710.743
163.906	13.968	947.674	709.545
164.921	14.192	946.562	709.605
165.935	13.971	946.200	708.331
166.950	14.091	945.071	707.933
167.964	14.057	944.227	707.095
168.979	14.183	942.757	706.464
169.994	14.066	942.093	705.407
171.008	14.038	941.613	704.867
172.023	14.121	940.610	704.407
173.037	14.200	939.655	703.961
174.052	14.108	938.879	702.930
175.067	14.160	938.418	702.745
176.081	14.216	937.438	702.182
177.096	14.191	936.548	701.351
178.110	13.992	936.211	700.196
179.125	14.201	935.134	700.209
180.140	14.183	934.414	699.532
181.154	14.098	933.794	698.648
182.169	14.258	933.315	698.900
183.183	14.268	932.386	698.187
184.198	14.284	931.572	697.579
185.213	14.290	931.367	697.391
186.227	14.293	930.740	696.871
187.242	14.347	929.793	696.326
188.256	14.439	929.450	696.394
189.271	14.500	928.324	695.741
190.286	14.394	928.200	695.145
191.300	14.283	927.225	693.890
192.315	14.336	926.423	693.448
193.329	14.129	925.887	692.126
194.344	14.375	925.137	692.525
195.359	14.311	924.848	691.983
196.373	14.274	924.264	691.332
197.388	14.401	923.591	691.294
198.402	14.442	923.091	691.027
199.417	14.464	922.818	690.855
200.432	14.654	921.925	690.913
201.446	14.538	921.848	690.314
202.461	14.568	921.225	689.909
203.475	14.598	920.535	689.455
204.490	14.710	919.650	689.192
205.504	14.718	918.824	688.545
206.519	14.558	918.541	687.613
207.534	14.531	917.841	686.916
208.548	14.565	916.355	685.885
209.563	14.648	916.239	686.080
210.577	14.642	915.768	685.642
211.592	14.733	914.854	685.268
212.607	14.730	913.857	684.450
213.621	14.728	913.758	684.304
214.636	14.659	913.576	683.825
215.650	14.737	912.476	683.260
216.665	14.808	911.828	683.007
217.680	14.759	911.229	682.295
218.694	14.689	911.073	681.833
219.709	14.821	910.321	681.748
220.723	14.761	910.027	681.222
221.738	14.916	909.063	681.074
222.753	14.847	908.428	680.257
223.767	14.917	907.597	679.860
224.782	14.855	906.936	679.050
225.796	14.846	906.122	678.343
226.811	15.094	905.183	678.589
227.826	14.921	904.895	677.610
228.840	15.015	903.785	677.102
229.855	14.864	903.526	676.237
230.869	14.971	902.803	676.067
231.884	15.056	901.946	675.707
232.899	14.931	901.428	674.759
233.913	14.962	900.661	674.246
234.928	14.938	899.944	673.555
235.942	14.925	899.186	672.877
236.957	14.920	898.277	672.117
237.972	14.857	897.977	671.580
238.986	14.978	897.363	671.547
240.001	14.828	896.916	670.549
241.015	14.985	896.162	670.554
242.030	15.051	895.374	670.172
243.045	15.090	894.469	669.588
244.059	15.119	893.999	669.296
245.074	15.084	893.377	668.632
246.088	15.168	892.606	668.329
247.103	15.125	892.038	667.675
248.117	15.184	891.314	667.309
249.132	15.179	891.331	667.242
250.147	15.265	890.460	666.874
251.161	15.263	890.129	666.556
252.176	15.366	888.991	666.055
253.190	15.391	888.455	665.696
254.205	15.425	887.550	665.091
255.220	15.492	887.343	665.143
256.234	15.429	886.642	664.309
257.249	15.320	886.102	663.414
258.263	15.474	885.369	663.418
259.278	15.491	884.640	662.879
260.293	15.548	883.956	662.533
261.307	15.685	883.499	662.673
262.322	15.362	883.113	661.052
263.336	15.576	882.738	661.554
264.351	15.666	881.974	661.277
265.366	15.667	881.211	660.649
266.380	15.608	880.271	659.655
267.395	15.672	879.236	659.074
268.409	15.514	879.401	658.519
269.424	15.509	878.568	657.816
270.439	15.671	877.783	657.805
271.453	15.716	877.100	657.410
272.468	15.760	875.842	656.583
273.482	15.736	875.498	656.172
274.497	15.724	874.889	655.609
275.512	15.689	874.495	655.121
276.526	15.710	873.518	654.415
277.541	15.756	872.854	654.036
278.555	15.803	872.610	653.980
279.570	15.708	871.770	652.923
280.585	15.879	870.985	652.941
281.599	15.892	870.505	652.574
282.614	15.840	870.293	652.154
283.628	15.886	869.148	651.416
284.643	15.845	868.886	651.003
285.657	15.909	868.539	650.932
286.672	15.937	867.615	650.293
287.687	15.940	867.459	650.129
288.701	15.980	866.797	649.731
289.716	15.917	866.523	649.222
290.730	15.969	865.728	648.772
291.745	15.927	865.079	648.065
292.760	16.035	864.005	647.619
293.774	15.969	863.906	647.233
294.789	16.033	863.003	646.745
295.803	16.126	862.457	646.636
296.818	16.071	862.016	646.036
297.833	16.015	861.235	645.180
298.847	16.223	860.316	645.228
299.862	16.218	859.610	644.625
300.876	16.026	859.189	643.519
301.891	16.019	858.534	642.945
302.906	16.250	857.518	643.006
303.920	16.204	857.292	642.604
304.935	16.266	856.200	641.966
305.949	16.274	855.667	641.541
306.964	16.271	855.307	641.201
307.979	16.225	855.213	640.900
308.993	16.182	854.448	640.106
310.008	16.188	853.711	639.522
311.022	16.392	852.788	639.544
312.037	16.416	852.780	639.572
313.052	16.417	851.963	638.908
314.066	16.388	851.420	638.335
315.081	16.369	850.478	637.501
316.095	16.315	850.165	637.003
317.110	16.383	849.737	636.886
318.125	16.358	849.233	636.357
319.139	16.410	848.688	636.088
320.154	16.395	847.946	635.417
321.168	16.321	847.545	634.782
322.183	16.544	846.958	635.126
323.197	16.547	846.281	634.571
324.212	16.609	845.492	634.157
325.227	16.557	845.076	633.594
326.241	16.490	844.792	633.075
327.256	16.390	844.099	632.126
328.270	16.444	843.683	631.960
329.285	16.370	843.028	631.136
330.300	16.556	842.725	631.548
331.314	16.498	842.074	630.787
332.329	16.660	841.246	630.714
333.343	16.555	840.575	629.765
334.358	16.626	840.263	629.740
335.373	16.636	839.701	629.302
336.387	16.689	838.690	628.683
337.402	16.624	838.672	628.374
338.416	16.582	838.289	627.876
339.431	16.763	837.448	627.862
340.446	16.746	836.987	627.397
341.460	16.671	836.628	626.793
342.475	16.760	835.864	626.497
343.489	16.943	835.078	626.527
344.504	16.849	834.647	625.803
345.519	16.830	834.100	625.268
346.533	16.990	833.517	625.363
347.548	16.998	832.887	624.865
348.562	16.972	832.551	624.462
349.577	16.906	832.095	623.821
350.592	16.949	831.218	623.267
351.606	16.906	830.873	622.797
352.621	16.950	830.351	622.509
353.635	16.770	830.224	621.699
354.650	16.935	829.932	622.031
355.665	16.926	829.743	621.801
356.679	17.046	828.816	621.491
357.694	17.060	828.301	621.100
358.708	17.141	827.648	620.852
359.723	16.998	827.196	619.938
360.738	16.987	826.411	619.253
361.752	17.125	825.882	619.306
362.767	17.071	825.747	618.953
363.781	17.029	825.469	618.535
364.796	17.124	825.083	618.539
365.810	17.173	824.169	617.977
366.825	17.191	823.946	617.819
367.840	17.071	823.455	616.962
368.854	17.241	823.301	617.407
369.869	17.196	823.024	616.982
370.883	17.241	822.233	616.498
371.898	17.320	821.364	616.080
372.913	17.427	820.766	615.961
373.927	17.373	820.117	615.225
374.942	17.343	819.997	614.973
375.956	17.287	819.069	614.019
376.971	17.464	818.291	614.023
377.986	17.303	818.028	613.191
379.000	17.437	817.431	613.170
380.015	17.527	817.081	613.177
381.029	17.553	816.509	612.789
382.044	17.379	816.080	611.787
383.059	17.441	815.614	611.606
384.073	17.647	814.711	611.615
385.088	17.406	814.404	610.466
386.102	17.418	814.068	610.201
387.117	17.500	813.035	609.667
388.132	17.511	812.757	609.444
389.146	17.469	812.607	609.127
390.161	17.535	812.076	608.910
391.175	17.657	811.742	609.043
392.190	17.584	811.554	608.588
393.205	17.647	810.861	608.239
394.219	17.641	810.284	607.731
395.234	17.570	809.870	607.112
396.248	17.628	809.523	607.006
397.263	17.562	808.759	606.145
398.278	17.615	808.558	606.130
399.292	17.531	808.115	605.444
400.307	17.593	807.648	605.261
401.321	17.643	807.381	605.184
402.336	17.862	806.884	605.537
403.350	17.619	806.810	604.564
404.365	17.579	806.223	603.928
405.380	17.726	805.524	603.872
406.394	17.739	804.903	603.400
407.409	17.881	804.256	603.362
408.423	17.855	803.847	602.911
409.438	17.702	803.795	602.279
410.453	17.800	803.730	602.522
411.467	17.909	802.881	602.219
412.482	17.952	802.254	601.846
413.496	17.916	802.032	601.499
414.511	18.005	801.621	601.451
415.526	18.058	801.320	601.357
416.540	17.991	800.677	600.587
417.555	18.051	800.261	600.434
418.569	18.066	799.752	600.052
419.584	18.087	799.515	599.892
420.599	18.025	798.623	598.952
421.613	114.635	1296.336	1486.342
422.628	98.856	1368.824	1486.410
