DTS Sentinel unit serial number:	SN413079Multiplexer serial number:	ORYXHardware model number:	OX4-SRSoftware version number:	ORYX F/W v4.00 Oryx Data Collector v3.7.2.0data status	okinstallation	princeton_trtdifferential loss correction	single-endedforward channel	channel 3reverse channel	N/Adate	2019/09/11time	07:26:11forward acquisition time	60.00reverse acquisition time	0.00gamma	496.2192k internal	0.2326k external	0.2326temperature offset calibration	0.9901default loss term (dB/km)	0.3790temperature slope calibration	1.0000multiplexer offset coefficient	1.0000multiplexer slope coefficient	1.0000fibre end	0.00T internal ref (°C)	30.92T ext. ref 1 (°C)	-0.04T ext. ref 2 (°C)	27.52length (m)	temperature (°C)	Stokes	anti-Stokes-747.200	-64.535	-0.191	0.078
-746.185	402.995	-0.025	-0.054
-745.171	-57.586	0.157	0.069
-744.156	-73.238	-0.104	0.038
-743.142	-31.865	-0.165	0.093
-742.127	314.747	-0.127	0.241
-741.112	-122.560	0.312	-0.051
-740.098	-200.000	0.057	-0.274
-739.083	58.225	0.178	0.176
-738.069	-200.000	0.005	0.080
-737.054	6.652	0.364	-0.273
-736.039	-23.228	-0.331	0.201
-735.025	102.197	0.105	0.124
-734.010	-40.452	-0.222	-0.117
-732.996	126.500	0.125	-0.159
-731.981	248.289	0.103	-0.175
-730.966	-117.809	0.106	0.019
-729.952	161.688	-0.121	-0.171
-728.937	-200.000	0.008	0.097
-727.923	766.104	-0.056	0.154
-726.908	299.832	-0.168	-0.311
-725.894	-93.686	-0.219	-0.061
-724.879	-50.892	-0.254	0.120
-723.864	49.155	0.269	0.255
-722.850	-83.322	-0.434	0.141
-721.835	-200.000	-0.006	0.241
-720.821	-0.149	-0.368	0.264
-719.806	395.278	-0.058	0.122
-718.791	38.353	0.145	-0.130
-717.777	800.000	0.019	-0.055
-716.762	-200.000	-0.079	-0.392
-715.748	800.000	0.048	0.160
-714.733	-156.986	0.190	-0.012
-713.718	73.524	-0.166	0.175
-712.704	-81.251	-0.312	0.104
-711.689	-200.000	0.040	0.392
-710.675	-158.319	0.142	-0.008
-709.660	-200.000	-0.002	-0.108
-708.645	800.000	0.042	-0.135
-707.631	-200.000	0.026	-0.127
-706.616	-11.392	-0.174	0.115
-705.602	-128.237	0.198	0.028
-704.587	726.490	0.067	0.181
-703.572	-121.838	0.101	0.017
-702.558	-48.617	0.101	0.049
-701.543	-3.195	-0.097	0.068
-700.529	-98.746	-0.669	0.172
-699.514	-111.127	-0.101	0.021
-698.499	-36.381	0.093	0.051
-697.485	46.082	-0.266	-0.248
-696.470	123.513	0.069	-0.087
-695.456	-119.145	0.279	-0.049
-694.441	547.420	-0.111	-0.267
-693.426	370.244	-0.044	-0.089
-692.412	39.291	-0.143	-0.129
-691.397	-163.792	-0.011	0.001
-690.383	-200.000	-0.035	-0.272
-689.368	25.725	-0.056	0.047
-688.354	-61.147	0.317	0.134
-687.339	-200.000	0.037	0.206
-686.324	-121.574	0.138	-0.023
-685.310	-10.577	-0.428	0.285
-684.295	-67.702	-0.234	-0.092
-683.281	-109.480	-0.081	-0.017
-682.266	25.235	-0.176	-0.147
-681.251	-154.298	-0.323	0.022
-680.237	-1.955	0.045	-0.032
-679.222	57.337	-0.112	-0.110
-678.208	-111.606	0.212	0.043
-677.193	4.459	0.230	0.170
-676.178	29.718	-0.259	0.222
-675.164	-112.956	0.238	0.047
-674.149	-200.000	0.011	-0.092
-673.135	800.000	-0.023	0.085
-672.120	-200.000	0.005	0.258
-671.105	330.301	0.079	-0.153
-670.091	-25.529	-0.316	-0.187
-669.076	4.621	-0.303	-0.224
-668.062	423.919	-0.152	0.330
-667.047	257.718	0.037	0.065
-666.032	95.746	0.395	-0.453
-665.018	-54.961	0.245	0.111
-664.003	80.269	-0.403	-0.436
-662.989	-85.417	-0.455	-0.143
-661.974	15.673	0.210	-0.166
-660.959	-118.233	-0.229	0.041
-659.945	-6.774	-0.158	0.108
-658.930	122.425	-0.146	-0.183
-657.916	-141.398	0.220	-0.022
-656.901	-200.000	-0.046	0.331
-655.886	-155.858	0.211	0.014
-654.872	293.748	0.095	-0.175
-653.857	88.483	0.159	-0.178
-652.843	-144.962	-0.216	-0.020
-651.828	311.584	-0.075	0.142
-650.814	150.916	0.277	0.379
-649.799	-61.758	-0.153	-0.064
-648.784	69.339	-0.347	-0.359
-647.770	-55.844	0.326	-0.146
-646.755	-200.000	0.015	-0.389
-645.741	-200.000	0.072	-0.342
-644.726	800.000	-0.014	0.058
-643.711	52.505	0.277	-0.265
-642.697	345.248	-0.157	-0.310
-641.682	-98.056	-0.193	-0.050
-640.668	800.000	-0.024	-0.105
-639.653	85.498	-0.116	0.128
-638.638	-200.000	0.030	0.146
-637.624	234.188	0.055	0.091
-636.609	185.702	0.349	-0.521
-635.595	-138.924	0.088	-0.010
-634.580	10.119	-0.172	0.132
-633.565	-158.896	0.145	-0.008
-632.551	-162.650	0.185	0.009
-631.536	-200.000	-0.023	-0.170
-630.522	79.246	-0.108	-0.117
-629.507	45.139	0.137	0.127
-628.492	50.881	0.090	0.086
-627.478	-120.922	-0.232	-0.039
-626.463	800.000	-0.053	-0.187
-625.449	-118.007	-0.160	-0.029
-624.434	24.526	-0.224	-0.186
-623.419	-21.185	-0.165	0.101
-622.405	800.000	-0.039	0.161
-621.390	-193.803	0.157	-0.001
-620.376	800.000	0.050	-0.138
-619.361	-200.000	0.047	-0.433
-618.346	-128.805	0.245	-0.035
-617.332	139.268	0.059	-0.078
-616.317	-200.000	0.001	-0.297
-615.303	-31.470	0.017	-0.010
-614.288	-200.000	-0.010	0.182
-613.273	241.328	0.058	0.098
-612.259	800.000	-0.020	0.078
-611.244	-162.849	0.015	0.001
-610.230	178.728	0.120	0.175
-609.215	-127.974	-0.261	-0.038
-608.201	800.000	-0.082	0.236
-607.186	-125.834	-0.115	0.017
-606.171	-78.069	-0.441	-0.152
-605.157	-123.845	-0.250	0.040
-604.142	-144.633	0.096	0.009
-603.128	-26.632	0.286	0.168
-602.113	-57.265	-0.058	-0.026
-601.098	242.314	0.094	0.157
-600.084	-41.231	0.193	-0.100
-599.069	800.000	-0.005	-0.017
-598.055	89.272	0.319	-0.356
-597.040	-100.938	-0.055	-0.014
-596.025	-200.000	-0.043	0.270
-595.011	-200.000	0.031	0.150
-593.996	111.410	0.216	0.261
-592.982	401.087	-0.120	-0.252
-591.967	-47.628	-0.105	-0.051
-590.952	800.000	-0.082	0.350
-589.938	-200.000	-0.044	-0.199
-588.923	-9.239	0.178	0.119
-587.909	112.664	-0.041	0.049
-586.894	-200.000	0.017	-0.333
-585.879	37.233	-0.206	-0.183
-584.865	57.704	0.179	0.175
-583.850	126.595	0.107	0.135
-582.836	-130.813	0.109	0.015
-581.821	-200.000	-0.000	-0.117
-580.806	-56.474	0.232	-0.103
-579.792	7.641	-0.095	0.071
-578.777	-200.000	0.008	-0.268
-577.763	800.000	-0.027	0.086
-576.748	-163.307	0.149	-0.007
-575.733	-200.000	0.041	0.259
-574.719	224.119	-0.192	-0.310
-573.704	719.478	-0.053	-0.140
-572.690	681.633	0.027	-0.071
-571.675	56.536	0.254	0.248
-570.661	-200.000	-0.011	-0.210
-569.646	59.342	-0.050	0.050
-568.631	-2.656	-0.053	0.037
-567.617	196.088	-0.116	-0.177
-566.602	-200.000	0.008	0.106
-565.588	-62.949	-0.252	0.104
-564.573	-86.656	-0.337	0.103
-563.558	800.000	0.037	0.104
-562.544	-138.963	-0.231	0.025
-561.529	169.948	0.221	0.316
-560.515	-143.386	-0.394	0.038
-559.500	99.692	0.208	-0.241
-558.485	-200.000	0.038	-0.203
-557.471	580.259	-0.118	0.289
-556.456	-86.220	-0.318	0.098
-555.442	-176.779	-0.020	-0.001
-554.427	-50.077	0.342	-0.162
-553.412	800.000	-0.032	-0.088
-552.398	55.872	-0.291	0.283
-551.383	-200.000	0.067	0.439
-550.369	0.768	0.012	0.009
-549.354	-94.319	-0.450	-0.123
-548.339	648.171	-0.125	-0.319
-547.325	-129.310	0.044	-0.006
-546.310	-200.000	-0.013	-0.128
-545.296	-200.000	-0.005	-0.067
-544.281	-150.815	0.090	-0.007
-543.266	-200.000	0.007	0.030
-542.252	-46.262	0.235	0.116
-541.237	32.434	0.064	-0.055
-540.223	-64.782	0.113	0.046
-539.208	-35.830	-0.165	-0.090
-538.193	-93.073	-0.200	-0.056
-537.179	-47.823	-0.232	-0.113
-536.164	-19.343	-0.251	0.156
-535.150	-29.348	-0.084	-0.048
-534.135	725.839	-0.019	-0.052
-533.121	800.000	0.030	-0.130
-532.106	-127.640	-0.101	-0.015
-531.091	107.171	-0.037	0.044
-530.077	25.367	0.101	0.084
-529.062	-82.774	0.127	-0.041
-528.048	-62.402	-0.224	0.093
-527.033	-200.000	0.047	-0.281
-526.018	-200.000	0.002	0.084
-525.004	-106.259	0.261	0.058
-523.989	-35.654	-0.056	-0.030
-522.975	122.263	-0.164	0.205
-521.960	-51.137	-0.141	-0.066
-520.945	113.501	0.135	0.164
-519.931	381.575	-0.086	0.176
-518.916	736.175	-0.070	0.188
-517.902	6.820	-0.045	-0.034
-516.887	684.046	-0.142	-0.370
-515.872	800.000	0.046	-0.161
-514.858	-200.000	-0.142	0.000
-513.843	77.111	-0.178	-0.190
-512.829	800.000	0.018	0.062
-511.814	-70.608	-0.170	0.064
-510.799	800.000	0.012	0.048
-509.785	289.104	0.091	-0.164
-508.770	-55.995	-0.082	-0.036
-507.756	-73.538	-0.046	0.017
-506.741	-200.000	0.029	-0.141
-505.726	-79.439	0.262	0.089
-504.712	-47.072	0.127	0.062
-503.697	-200.000	0.057	0.417
-502.683	-30.046	-0.168	0.095
-501.668	685.689	0.005	0.014
-500.653	-60.995	-0.308	-0.130
-499.639	154.239	-0.056	0.077
-498.624	235.963	0.079	-0.131
-497.610	-75.581	-0.364	-0.129
-496.595	96.386	0.229	0.262
-495.581	55.286	0.152	0.147
-494.566	-44.157	-0.182	0.091
-493.551	101.444	-0.090	0.104
-492.537	-89.246	-0.237	-0.070
-491.522	22.789	-0.081	-0.066
-490.508	-59.124	-0.226	0.097
-489.493	-200.000	-0.008	0.147
-488.478	324.278	-0.091	0.174
-487.464	23.374	0.285	0.234
-486.449	-200.000	0.019	0.138
-485.435	800.000	-0.140	0.486
-484.420	90.459	0.080	-0.089
-483.405	800.000	0.077	-0.271
-482.391	115.469	-0.090	-0.110
-481.376	258.659	-0.147	0.253
-480.362	-200.000	-0.009	-0.117
-479.347	43.713	-0.069	-0.063
-478.332	393.712	-0.159	0.330
-477.318	5.463	-0.133	0.098
-476.303	-200.000	-0.009	0.069
-475.289	-137.684	-0.175	0.020
-474.274	-35.673	-0.114	0.062
-473.259	547.123	0.084	0.201
-472.245	800.000	0.080	0.239
-471.230	-130.333	0.314	-0.042
-470.216	24.978	0.073	0.060
-469.201	-120.403	-0.194	-0.033
-468.186	119.698	0.023	-0.028
-467.172	314.864	0.048	0.090
-466.157	101.903	-0.174	0.203
-465.143	-43.064	-0.338	-0.171
-464.128	800.000	-0.054	0.171
-463.113	534.549	0.052	-0.123
-462.099	259.150	-0.134	-0.231
-461.084	318.917	0.042	-0.079
-460.070	-98.908	-0.188	0.048
-459.055	800.000	-0.041	0.146
-458.040	-112.529	0.108	0.021
-457.026	800.000	0.094	0.359
-456.011	23.530	-0.137	0.112
-454.997	-200.000	-0.015	-0.099
-453.982	-92.072	0.288	-0.081
-452.968	-15.717	-0.297	0.189
-451.953	626.424	0.081	-0.205
-450.938	706.207	-0.089	0.233
-449.924	131.108	0.104	0.133
-448.909	118.751	-0.184	-0.227
-447.895	445.600	-0.098	0.215
-446.880	-200.000	-0.002	0.193
-445.865	-150.354	0.249	0.019
-444.851	786.733	0.071	-0.194
-443.836	-200.000	-0.024	0.213
-442.822	253.306	0.168	-0.286
-441.807	166.819	0.229	0.324
-440.792	-83.506	0.137	0.044
-439.778	-120.433	0.265	-0.045
-438.763	-124.168	0.157	-0.024
-437.749	371.985	-0.149	-0.301
-436.734	90.179	-0.058	-0.065
-435.719	90.336	-0.117	-0.130
-434.705	5.079	0.270	-0.198
-433.690	-200.000	0.008	-0.223
-432.676	23.505	-0.233	0.191
-431.661	88.851	-0.155	0.172
-430.646	-200.000	-0.005	-0.051
-429.632	-27.815	-0.432	-0.249
-428.617	-25.011	0.171	0.101
-427.603	-103.843	-0.030	0.007
-426.588	-200.000	0.032	-0.171
-425.573	185.160	0.176	-0.260
-424.559	667.935	0.030	-0.077
-423.544	245.242	-0.189	-0.317
-422.530	-82.910	-0.369	-0.119
-421.515	-192.953	0.108	-0.001
-420.500	-200.000	-0.015	-0.155
-419.486	529.231	0.094	-0.220
-418.471	-200.000	0.000	0.160
-417.457	-134.966	-0.213	-0.026
-416.442	66.024	0.235	0.237
-415.428	800.000	-0.061	-0.175
-414.413	-127.162	0.453	0.066
-413.398	438.172	-0.074	-0.161
-412.384	-117.562	-0.114	0.021
-411.369	74.608	0.108	0.113
-410.355	-200.000	-0.030	-0.206
-409.340	-200.000	-0.040	0.243
-408.325	-179.764	0.263	0.006
-407.311	252.086	-0.129	0.219
-406.296	78.988	0.070	-0.075
-405.282	800.000	0.055	-0.219
-404.267	-66.579	-0.217	0.086
-403.252	130.326	-0.139	0.177
-402.238	-200.000	0.058	0.261
-401.223	-15.502	0.098	-0.062
-400.209	800.000	-0.047	-0.133
-399.194	-100.421	0.120	0.029
-398.179	-115.577	-0.082	0.015
-397.165	-168.610	-0.183	-0.007
-396.150	-135.830	0.234	0.027
-395.136	-165.130	0.278	-0.012
-394.121	-6.166	-0.221	0.150
-393.106	449.871	0.053	-0.116
-392.092	800.000	0.043	-0.120
-391.077	51.811	-0.154	-0.146
-390.063	-112.863	0.298	-0.059
-389.048	214.757	-0.100	-0.158
-388.033	-72.267	-0.099	-0.037
-387.019	-159.135	0.290	-0.016
-386.004	158.549	-0.183	0.253
-384.990	800.000	-0.062	-0.209
-383.975	349.928	0.114	-0.224
-382.960	-9.561	0.140	-0.093
-381.946	-200.000	-0.022	-0.151
-380.931	-11.753	0.085	-0.055
-379.917	88.580	-0.213	0.235
-378.902	-41.626	0.067	0.034
-377.888	96.969	-0.277	0.315
-376.873	-171.555	0.137	0.005
-375.858	-51.142	0.031	-0.014
-374.844	-45.385	0.228	0.112
-373.829	180.774	-0.142	0.207
-372.815	-126.256	-0.153	0.023
-371.800	-200.000	0.019	0.156
-370.785	-17.232	0.076	0.048
-369.771	-6.134	-0.196	-0.133
-368.756	66.428	0.123	-0.124
-367.742	-200.000	0.004	-0.021
-366.727	106.567	-0.319	-0.377
-365.712	299.699	-0.043	-0.078
-364.698	18.600	0.346	0.275
-363.683	-200.000	-0.012	0.076
-362.669	247.715	0.019	0.032
-361.654	-77.513	0.125	0.043
-360.639	-85.068	-0.039	-0.012
-359.625	-66.796	-0.370	-0.145
-358.610	-91.893	0.218	-0.062
-357.596	-200.000	-0.013	0.246
-356.581	454.180	0.150	0.330
-355.566	333.083	0.074	-0.142
-354.552	-66.451	0.191	-0.075
-353.537	-54.368	0.261	0.117
-352.523	800.000	-0.089	0.380
-351.508	-200.000	0.007	0.267
-350.493	16.295	-0.155	0.122
-349.479	89.758	-0.160	0.177
-348.464	800.000	-0.088	0.274
-347.450	-200.000	0.006	0.281
-346.435	-78.839	0.119	-0.040
-345.420	-200.000	0.039	-0.256
-344.406	-89.754	0.111	-0.032
-343.391	-175.465	0.099	0.003
-342.377	-115.239	0.227	-0.043
-341.362	-3.300	0.311	0.215
-340.348	-141.398	-0.563	0.057
-339.333	800.000	0.073	0.238
-338.318	800.000	0.088	-0.366
-337.304	-200.000	-0.035	-0.176
-336.289	-31.801	-0.060	0.034
-335.275	17.946	0.480	0.380
-334.260	800.000	-0.048	-0.175
-333.245	-7.870	0.189	0.127
-332.231	-46.177	0.195	-0.095
-331.216	-49.029	-0.171	-0.081
-330.202	800.000	-0.118	0.356
-329.187	-144.259	-0.239	-0.022
-328.172	114.163	0.211	-0.255
-327.158	37.208	0.243	0.213
-326.143	132.623	0.185	-0.237
-325.129	104.425	-0.085	-0.100
-324.114	385.160	0.072	0.147
-323.099	1.679	0.194	0.138
-322.085	-200.000	0.063	-0.329
-321.070	-137.743	0.132	0.015
-320.056	26.776	-0.184	-0.153
-319.041	800.000	-0.044	0.146
-318.026	19.490	-0.098	0.078
-317.012	107.474	-0.260	0.307
-315.997	-132.309	0.361	0.046
-314.983	-200.000	0.016	-0.179
-313.968	-19.116	-0.323	-0.199
-312.953	-35.240	0.289	-0.156
-311.939	-25.203	0.263	0.154
-310.924	800.000	0.038	-0.106
-309.910	-82.345	0.072	0.023
-308.895	-78.749	0.267	0.090
-307.880	-17.636	-0.262	0.163
-306.866	-179.499	-0.240	0.005
-305.851	136.637	-0.229	0.296
-304.837	-26.844	-0.146	-0.084
-303.822	206.257	-0.199	-0.307
-302.807	228.614	0.138	0.223
-301.793	100.436	-0.226	-0.260
-300.778	57.080	-0.313	-0.303
-299.764	85.848	-0.215	0.234
-298.749	9.270	0.156	0.117
-297.735	9.174	0.233	-0.174
-296.720	800.000	0.083	0.298
-295.705	575.792	0.091	0.221
-294.691	116.412	-0.108	-0.132
-293.676	407.612	0.077	0.162
-292.662	-140.049	-0.166	-0.017
-291.647	-40.633	0.139	-0.071
-290.632	-128.393	-0.083	0.012
-289.618	-200.000	0.020	-0.119
-288.603	-80.956	-0.209	0.069
-287.589	33.727	0.353	0.304
-286.574	-200.000	0.030	-0.195
-285.559	50.287	0.190	-0.177
-284.545	-4.048	-0.225	0.154
-283.530	24.396	-0.169	-0.138
-282.516	-32.094	0.360	-0.199
-281.501	81.390	0.183	0.196
-280.486	121.938	0.271	-0.335
-279.472	-15.301	0.330	-0.209
-278.457	19.859	0.187	-0.149
-277.443	800.000	-0.080	0.252
-276.428	-134.909	-0.088	0.011
-275.413	27.799	0.137	-0.114
-274.399	-71.432	-0.109	0.040
-273.384	-115.505	-0.408	0.076
-272.370	-58.962	-0.163	0.070
-271.355	800.000	-0.077	-0.282
-270.340	346.323	-0.236	-0.459
-269.326	-115.402	-0.173	-0.032
-268.311	91.388	-0.127	-0.141
-267.297	-44.544	0.150	0.074
-266.282	-48.292	0.180	0.086
-265.267	800.000	-0.098	-0.299
-264.253	-151.260	-0.090	0.007
-263.238	-138.268	0.121	0.013
-262.224	-200.000	0.061	-0.310
-261.209	-66.485	0.020	0.008
-260.195	-73.594	-0.306	-0.110
-259.180	-200.000	0.036	0.271
-258.165	-200.000	0.007	-0.172
-257.151	-97.396	-0.035	-0.009
-256.136	-93.724	0.340	-0.093
-255.122	-81.206	0.257	0.084
-254.107	19.206	0.147	-0.117
-253.092	-122.256	0.076	-0.012
-252.078	-145.653	0.254	0.022
-251.063	800.000	0.030	0.085
-250.049	-115.498	-0.064	-0.012
-249.034	-90.024	-0.202	0.058
-248.019	-93.541	0.307	-0.084
-247.005	382.439	-0.052	-0.106
-245.990	-200.000	-0.064	-0.316
-244.976	155.547	0.105	-0.143
-243.961	132.037	0.161	0.205
-242.946	602.847	0.104	-0.255
-241.932	21.042	0.235	0.188
-240.917	-38.374	0.391	-0.205
-239.903	800.000	0.083	0.291
-238.888	240.332	-0.135	0.222
-237.873	-40.645	0.375	0.192
-236.859	17.232	0.058	0.045
-235.844	-92.898	-0.275	0.076
-234.830	-38.703	0.268	0.140
-233.815	414.740	0.068	-0.143
-232.800	147.452	0.024	0.032
-231.786	-40.173	0.067	0.034
-230.771	-200.000	0.016	0.303
-229.757	-165.268	0.198	-0.009
-228.742	-102.466	0.092	0.022
-227.727	800.000	-0.032	-0.136
-226.713	800.000	0.013	0.042
-225.698	-21.923	0.100	0.060
-224.684	800.000	0.154	0.468
-223.669	-7.000	0.155	-0.104
-222.655	-66.676	0.112	0.044
-221.640	800.000	0.058	-0.236
-220.625	-37.415	-0.067	0.036
-219.611	20.599	-0.405	-0.324
-218.596	118.887	-0.096	-0.117
-217.582	138.476	0.114	0.148
-216.567	-13.582	-0.153	-0.098
-215.552	-200.000	0.035	-0.202
-214.538	-200.000	0.025	0.136
-213.523	-156.849	0.325	-0.020
-212.509	-97.410	0.235	0.060
-211.494	-53.566	0.206	0.093
-210.479	-200.000	-0.007	-0.335
-209.465	-143.727	0.219	-0.020
-208.450	800.000	-0.100	0.277
-207.436	106.997	-0.247	-0.289
-206.421	-92.239	-0.190	-0.053
-205.406	-48.709	-0.087	0.041
-204.392	-200.000	-0.016	-0.372
-203.377	45.679	0.234	-0.214
-202.363	-60.484	-0.292	0.122
-201.348	-115.581	-0.222	0.041
-200.333	-200.000	-0.020	-0.233
-199.319	800.000	0.087	0.279
-198.304	-8.062	-0.275	0.183
-197.290	-200.000	-0.034	0.200
-196.275	-121.965	0.176	0.029
-195.260	-63.358	0.208	-0.084
-194.246	476.406	0.049	-0.109
-193.231	-123.690	0.460	0.072
-192.217	2.795	0.054	0.039
-191.202	-200.000	-0.028	-0.414
-190.187	42.247	0.172	0.154
-189.173	380.868	-0.157	-0.318
-188.158	-9.049	0.178	0.118
-187.144	-200.000	0.013	0.153
-186.129	655.929	-0.056	0.143
-185.114	-200.000	0.016	0.361
-184.100	-200.000	0.019	-0.215
-183.085	-140.682	-0.047	0.005
-182.071	-200.000	0.002	0.085
-181.056	-11.326	-0.106	0.069
-180.042	800.000	0.077	-0.283
-179.027	-200.000	-0.005	-0.145
-178.012	-200.000	0.001	0.168
-176.998	379.889	0.090	-0.182
-175.983	-16.160	0.084	0.053
-174.969	236.347	-0.220	0.359
-173.954	728.354	0.048	0.127
-172.939	368.987	-0.117	-0.234
-171.925	-200.000	-0.015	0.304
-170.910	800.000	0.028	-0.077
-169.896	530.078	0.090	0.209
-168.881	-50.530	-0.184	-0.086
-167.866	438.708	0.126	-0.272
-166.852	-200.000	0.016	0.155
-165.837	90.198	-0.186	0.205
-164.823	8.817	0.114	0.085
-163.808	-36.343	-0.262	0.139
-162.793	245.768	0.082	-0.136
-161.779	-200.000	-0.006	-0.164
-160.764	262.423	-0.092	-0.157
-159.750	-200.000	-0.023	0.157
-158.735	257.813	0.131	0.222
-157.720	137.012	-0.143	-0.184
-156.706	-102.731	-0.051	0.012
-155.691	423.902	-0.126	0.268
-154.677	-108.936	-0.255	0.054
-153.662	147.536	-0.124	0.165
-152.647	-165.468	-0.321	-0.014
-151.633	-68.539	0.206	-0.079
-150.618	-24.460	0.303	-0.178
-149.604	800.000	-0.049	0.187
-148.589	59.876	-0.039	0.038
-147.574	247.366	-0.127	-0.211
-146.560	5.079	-0.050	-0.036
-145.545	216.156	0.096	0.151
-144.531	800.000	-0.120	0.372
-143.516	-112.363	0.271	0.053
-142.502	8.109	-0.317	0.234
-141.487	160.585	-0.070	0.096
-140.472	186.595	-0.061	0.090
-139.458	800.000	-0.129	-0.437
-138.443	-39.599	-0.160	-0.082
-137.429	-87.604	0.340	-0.101
-136.414	-200.000	-0.005	-0.148
-135.399	58.707	0.172	-0.166
-134.385	10.612	-0.240	0.180
-133.370	-200.000	-0.065	0.340
-132.356	-200.000	0.019	0.236
-131.341	800.000	0.026	0.079
-130.326	-42.911	-0.140	0.070
-129.312	665.532	0.077	0.195
-128.297	340.265	-0.097	-0.187
-127.283	-200.000	0.036	0.224
-126.268	128.092	-0.049	0.062
-125.253	147.410	0.129	-0.171
-124.239	-175.508	-0.311	0.008
-123.224	-33.267	0.380	0.207
-122.210	-26.526	0.092	-0.053
-121.195	-95.765	0.157	-0.041
-120.180	-200.000	-0.002	0.349
-119.166	538.610	0.117	0.274
-118.151	-5.099	-0.148	0.100
-117.137	-200.000	-0.008	0.219
-116.122	-200.000	0.008	0.038
-115.107	-68.691	0.128	-0.049
-114.093	-150.891	-0.327	0.024
-113.078	361.438	-0.023	-0.046
-112.064	-59.939	-0.201	-0.084
-111.049	278.822	0.082	-0.143
-110.034	800.000	0.040	0.147
-109.020	-160.210	-0.091	0.005
-108.005	-19.153	0.168	0.103
-106.991	648.602	-0.048	-0.120
-105.976	-200.000	0.201	0.000
-104.962	86.761	-0.126	-0.136
-103.947	456.749	-0.126	-0.274
-102.932	-137.793	0.262	0.029
-101.918	-200.000	0.006	-0.069
-100.903	59.296	0.103	0.100
-99.889	183.129	0.057	0.083
-98.874	-40.741	0.194	0.099
-97.859	-118.947	0.349	0.060
-96.845	69.356	-0.217	-0.220
-95.830	-200.000	0.003	-0.171
-94.816	115.250	-0.065	0.079
-93.801	4.699	0.175	-0.127
-92.786	-200.000	0.054	0.342
-91.772	-105.536	-0.542	0.121
-90.757	-200.000	0.038	-0.280
-89.743	800.000	0.056	0.171
-88.728	-40.422	0.226	0.115
-87.713	-200.000	-0.006	0.047
-86.699	-38.489	-0.068	-0.035
-85.684	49.248	0.094	0.086
-84.670	800.000	-0.075	0.211
-83.655	375.617	0.114	0.229
-82.640	-3.021	-0.313	0.215
-81.626	-200.000	0.001	-0.080
-80.611	-48.708	-0.331	-0.156
-79.597	112.867	-0.120	-0.143
-78.582	138.059	0.089	-0.114
-77.567	-129.235	-0.176	-0.024
-76.553	-38.541	-0.196	0.102
-75.538	-163.331	-0.221	-0.010
-74.524	-31.792	0.154	-0.085
-73.509	800.000	-0.038	0.148
-72.494	-48.835	0.491	0.231
-71.480	800.000	0.057	-0.233
-70.465	-200.000	-0.009	-0.091
-69.451	-103.187	0.333	-0.077
-68.436	-19.432	0.145	0.088
-67.422	42.949	-0.134	-0.120
-66.407	800.000	0.001	0.004
-65.392	800.000	0.101	0.386
-64.378	28.065	-0.414	0.343
-63.363	800.000	-0.104	-0.301
-62.349	-30.207	0.287	-0.160
-61.334	70.352	-0.965	-0.980
-60.319	380.694	0.299	0.602
-59.305	-200.000	-0.217	-0.940
-58.290	800.000	0.296	1.000
-57.276	800.000	0.502	1.428
-56.261	-200.000	98.144	607.373
-55.246	599.451	1422.346	3465.188
-54.232	187.963	2620.191	3842.792
-53.217	115.750	2183.384	2622.076
-52.203	41.955	1715.315	1527.798
-51.188	34.019	1528.209	1306.831
-50.173	31.680	1501.613	1268.218
-49.159	51.356	1552.765	1447.408
-48.144	52.648	1569.462	1471.813
-47.130	34.381	1528.252	1309.148
-46.115	31.254	1513.380	1275.044
-45.100	31.002	1510.466	1270.821
-44.086	30.909	1508.820	1268.755
-43.071	30.964	1506.208	1266.882
-42.057	31.016	1504.555	1265.793
-41.042	30.996	1502.921	1264.233
-40.027	30.914	1502.329	1263.124
-39.013	30.871	1500.298	1261.080
-37.998	30.878	1499.493	1260.399
-36.984	30.866	1497.836	1258.875
-35.969	30.860	1496.784	1257.900
-34.954	30.955	1494.846	1256.865
-33.940	30.978	1493.126	1255.523
-32.925	30.958	1491.628	1254.078
-31.911	31.034	1490.714	1253.770
-30.896	30.979	1489.374	1252.227
-29.881	31.095	1487.948	1251.754
-28.867	30.977	1487.405	1250.454
-27.852	30.974	1485.742	1248.988
-26.838	30.971	1483.717	1247.213
-25.823	31.017	1482.128	1246.141
-24.809	30.928	1481.061	1244.599
-23.794	30.927	1479.238	1243.007
-22.779	30.897	1478.184	1241.875
-21.765	30.936	1477.492	1241.501
-20.750	30.995	1476.270	1240.819
-19.736	31.038	1474.933	1239.933
-18.721	30.846	1473.952	1237.784
-17.706	30.904	1472.865	1237.204
-16.692	30.919	1471.597	1236.191
-15.677	30.992	1470.468	1235.681
-14.663	30.869	1469.287	1233.823
-13.648	30.866	1468.859	1233.398
-12.633	30.889	1467.890	1232.681
-11.619	30.967	1466.550	1232.028
-10.604	30.847	1466.576	1231.204
-9.590	30.853	1465.463	1230.262
-8.575	30.793	1464.806	1229.262
-7.560	30.925	1463.340	1228.853
-6.546	30.912	1462.467	1227.986
-5.531	30.857	1461.676	1226.916
-4.517	30.853	1460.544	1225.891
-3.502	30.834	1459.964	1225.229
-2.487	30.716	1458.954	1223.552
-1.473	30.825	1457.352	1222.877
-0.458	30.775	1456.132	1221.481
0.556	28.497	1447.322	1213.013
1.571	26.103	1422.333	1176.382
2.586	23.244	1363.185	1109.478
3.600	21.880	1282.270	1035.480
4.615	20.563	1236.117	990.625
5.629	17.932	1180.694	931.786
6.644	9.189	1095.421	819.966
7.659	1.548	1053.353	750.790
8.673	0.157	1047.448	739.684
9.688	-0.080	1044.427	736.323
10.702	-0.135	1042.642	734.730
11.717	-0.082	1040.878	733.680
12.731	3.508	1045.097	754.164
13.746	12.501	1058.148	807.869
14.761	19.224	1066.661	847.483
15.775	20.676	1068.526	856.039
16.790	21.062	1067.794	857.275
17.804	20.901	1067.078	855.835
18.819	20.804	1065.669	854.153
19.834	20.878	1065.440	854.254
20.848	20.981	1065.255	854.537
21.863	20.985	1064.716	854.049
22.877	20.945	1064.442	853.556
23.892	20.970	1063.752	853.050
24.907	20.752	1062.691	851.058
25.921	20.849	1062.001	850.902
26.936	20.969	1061.164	850.745
27.950	20.864	1060.356	849.509
28.965	20.817	1058.849	847.996
29.980	20.612	1057.669	845.981
30.994	20.836	1055.574	845.315
32.009	20.866	1054.924	844.867
33.023	21.033	1053.843	844.734
34.038	20.711	1052.938	842.376
35.053	20.730	1052.283	841.870
36.067	20.907	1051.569	842.078
37.082	20.893	1050.918	841.418
38.096	21.145	1049.698	841.578
39.111	21.095	1049.328	840.966
40.126	21.356	1048.167	841.221
41.140	21.050	1047.183	838.886
42.155	20.884	1045.461	836.634
43.169	20.517	1044.813	834.279
44.184	20.716	1043.217	833.884
45.199	20.730	1042.260	833.114
46.213	20.579	1041.516	831.720
47.228	20.537	1040.640	830.748
48.242	20.675	1039.987	830.814
49.257	20.768	1038.724	830.174
50.271	20.785	1038.165	829.733
51.286	20.976	1037.675	830.179
52.301	21.054	1036.694	829.694
53.315	20.963	1035.901	828.552
54.330	21.090	1034.836	828.231
55.344	20.881	1034.451	826.854
56.359	20.887	1033.742	826.247
57.374	20.981	1032.327	825.484
58.388	20.788	1031.580	823.904
59.403	20.807	1030.453	823.021
60.417	20.855	1029.768	822.624
61.432	20.615	1028.830	820.673
62.447	20.735	1028.555	820.943
63.461	20.670	1027.693	819.880
64.476	20.705	1027.232	819.601
65.490	20.759	1026.038	818.831
66.505	20.669	1024.957	817.475
67.520	20.610	1024.417	816.696
68.534	20.695	1023.545	816.323
69.549	20.576	1022.279	814.683
70.563	20.307	1021.566	812.785
71.578	20.233	1020.681	811.663
72.593	20.334	1019.653	811.246
73.607	20.119	1018.642	809.365
74.622	20.251	1017.605	809.084
75.636	20.600	1017.024	810.178
76.651	20.667	1016.496	809.999
77.666	20.423	1015.801	808.239
78.680	20.396	1014.158	806.732
79.695	20.392	1014.167	806.651
80.709	20.506	1013.530	806.603
81.724	20.623	1012.633	806.359
82.739	20.658	1011.669	805.684
83.753	20.513	1011.139	804.516
84.768	20.762	1010.598	805.167
85.782	20.987	1009.726	805.441
86.797	21.202	1009.086	805.850
87.812	21.266	1007.716	804.984
88.826	21.066	1007.277	803.638
89.841	21.102	1006.238	802.902
90.855	21.060	1005.790	802.283
91.870	21.233	1004.947	802.336
92.884	21.190	1004.095	801.387
93.899	21.206	1002.943	800.467
94.914	20.956	1002.070	798.558
95.928	21.068	1001.648	798.661
96.943	21.036	1000.665	797.661
97.957	20.862	998.826	795.330
98.972	20.637	997.962	793.546
99.987	20.573	996.952	792.380
101.001	20.507	996.487	791.638
102.016	20.802	996.317	792.778
103.030	20.918	995.125	792.289
104.045	20.862	993.914	790.999
105.060	20.652	992.643	788.966
106.074	20.488	991.731	787.425
107.089	20.399	991.385	786.678
108.103	20.880	990.953	788.445
109.118	20.993	989.753	787.932
110.133	20.665	988.885	785.690
111.147	20.745	987.610	784.967
112.162	20.608	986.670	783.533
113.176	20.590	984.850	781.940
114.191	20.570	984.310	781.351
115.206	20.690	983.480	781.160
116.220	20.285	982.322	778.353
117.235	20.349	981.156	777.649
118.249	20.293	980.631	776.914
119.264	20.403	979.738	776.631
120.279	20.295	978.794	775.330
121.293	20.211	978.626	774.752
122.308	20.400	977.809	774.883
123.322	20.534	976.453	774.336
124.337	20.403	975.595	773.001
125.352	20.411	973.938	771.657
126.366	19.998	972.182	768.364
127.381	19.595	971.293	765.809
128.395	20.139	971.047	767.959
129.410	20.896	970.528	770.830
130.424	20.979	969.858	770.596
131.439	20.954	969.057	769.781
132.454	20.925	967.794	768.583
133.468	20.945	966.769	767.786
134.483	20.775	966.577	766.820
135.497	20.829	965.666	766.265
136.512	21.036	965.180	766.722
137.527	21.158	964.213	766.421
138.541	21.128	963.329	765.522
139.556	21.107	962.580	764.764
140.570	21.057	961.698	763.779
141.585	21.182	960.828	763.568
142.600	21.118	960.376	762.859
143.614	21.067	959.301	761.714
144.629	21.088	958.648	761.222
145.643	21.273	958.002	761.446
146.658	21.131	956.800	759.807
147.673	21.187	955.310	758.799
148.687	21.090	954.270	757.487
149.702	21.145	952.946	756.608
150.716	20.923	952.453	755.184
151.731	20.966	951.186	754.300
152.746	20.951	950.763	753.833
153.760	21.132	950.420	754.276
154.775	21.182	949.495	753.691
155.789	21.305	948.513	753.378
156.804	21.268	947.686	752.491
157.819	21.212	946.244	751.040
158.833	21.137	946.173	750.595
159.848	21.327	945.086	750.484
160.862	21.432	944.096	750.081
161.877	21.169	943.281	748.239
162.892	21.262	942.138	747.663
163.906	21.364	941.506	747.532
164.921	21.311	940.753	746.644
165.935	21.291	939.362	745.385
166.950	21.172	938.659	744.257
167.964	21.223	937.516	743.504
168.979	21.117	936.965	742.547
169.994	21.202	935.074	741.345
171.008	21.005	934.285	739.817
172.023	21.188	933.746	740.100
173.037	21.427	932.807	740.302
174.052	21.132	931.632	738.056
175.067	21.023	930.823	736.890
176.081	20.894	930.557	736.069
177.096	21.072	929.493	735.916
178.110	21.117	928.538	735.282
179.125	20.859	927.433	733.257
180.140	20.573	926.478	731.235
181.154	20.660	925.477	730.744
182.169	20.749	925.052	730.720
183.183	20.988	925.058	731.662
184.198	21.232	924.788	732.407
185.213	21.177	923.946	731.444
186.227	21.003	923.098	729.981
187.242	21.242	922.736	730.629
188.256	21.297	921.898	730.131
189.271	21.171	921.110	728.918
190.286	21.240	920.397	728.577
191.300	21.323	919.026	727.771
192.315	20.735	917.810	724.298
193.329	19.987	916.259	719.901
194.344	19.745	915.046	717.882
195.359	20.198	915.872	720.348
196.373	20.973	915.570	723.260
197.388	21.163	915.866	724.219
198.402	21.082	914.775	722.956
199.417	20.927	914.215	721.810
200.432	21.272	913.476	722.588
201.446	20.969	912.998	720.897
202.461	20.672	912.101	718.896
203.475	20.719	911.749	718.748
204.490	20.418	909.999	716.064
205.504	19.338	907.860	709.875
206.519	19.653	908.057	711.264
207.534	20.468	908.704	715.061
208.548	20.687	907.568	715.004
209.563	20.970	907.858	716.334
210.577	21.009	906.834	715.620
211.592	20.826	906.120	714.244
212.607	21.293	906.070	716.057
213.621	21.286	905.513	715.524
214.636	21.255	904.431	714.478
215.650	21.353	903.805	714.321
216.665	21.171	903.305	713.119
217.680	21.235	903.160	713.205
218.694	21.265	902.238	712.534
219.709	20.892	901.635	710.474
220.723	20.562	900.558	708.220
221.738	20.876	899.869	708.893
222.753	21.012	899.542	709.124
223.767	21.014	898.650	708.366
224.782	21.136	897.982	708.273
225.796	21.168	898.046	708.390
226.811	21.343	896.926	708.154
227.826	21.091	895.500	705.945
228.840	20.199	894.184	701.242
229.855	20.081	894.177	700.697
230.869	20.461	893.634	701.746
231.884	20.094	892.273	699.134
232.899	20.164	891.736	698.931
233.913	21.007	891.791	702.308
234.928	21.218	891.211	702.640
235.942	21.085	890.759	701.687
236.957	21.090	890.358	701.329
237.972	20.632	889.481	698.739
238.986	20.626	888.372	697.778
240.001	20.734	888.042	697.893
241.015	20.899	887.127	697.771
242.030	20.699	886.859	696.697
243.045	21.160	886.119	697.901
244.059	21.049	885.929	697.245
245.074	21.282	884.909	697.310
246.088	21.172	884.523	696.507
247.103	20.883	883.497	694.484
248.117	20.833	882.799	693.677
249.132	21.395	883.247	696.204
250.147	21.721	882.572	696.906
251.161	21.765	882.106	696.652
252.176	21.937	881.588	696.866
253.190	21.809	881.165	695.962
254.205	21.987	880.283	695.908
255.220	22.200	880.054	696.510
256.234	22.246	879.171	695.932
257.249	22.073	878.484	694.642
258.263	21.832	878.051	693.285
259.278	21.888	877.255	692.818
260.293	21.895	877.446	692.936
261.307	21.933	876.386	692.185
262.322	21.986	875.416	691.567
263.336	21.858	874.931	690.619
264.351	21.347	873.241	687.216
265.366	20.227	871.653	681.506
266.380	19.602	870.756	678.290
267.395	20.674	871.137	682.736
268.409	21.563	870.917	685.988
269.424	21.620	870.237	685.618
270.439	21.546	869.993	685.075
271.453	21.722	869.224	685.098
272.468	21.808	868.908	685.124
273.482	21.958	868.513	685.335
274.497	22.085	868.257	685.567
275.512	22.000	866.476	683.772
276.526	21.308	865.524	680.265
277.541	21.465	865.093	680.477
278.555	21.903	864.831	681.916
279.570	21.732	863.824	680.398
280.585	21.428	863.332	678.769
281.599	21.470	862.992	678.603
282.614	21.723	862.479	679.122
283.628	21.314	861.126	676.413
284.643	21.054	860.113	674.554
285.657	21.363	860.356	675.878
286.672	21.235	859.660	674.778
287.687	20.714	858.706	671.958
288.701	21.007	859.070	673.316
289.716	21.362	858.350	674.060
290.730	21.128	857.536	672.461
291.745	20.960	856.795	671.171
292.760	20.828	855.729	669.771
293.774	20.737	855.111	668.879
294.789	21.739	855.788	673.201
295.803	22.365	855.538	675.348
296.818	22.211	855.497	674.663
297.833	22.353	854.747	674.558
298.847	22.105	853.503	672.567
299.862	21.802	852.540	670.589
300.876	21.881	852.002	670.406
301.891	22.339	851.906	672.022
302.906	22.315	851.058	671.202
303.920	21.888	850.077	668.744
304.935	21.827	849.412	667.926
305.949	22.003	849.390	668.520
306.964	22.252	848.807	668.949
307.979	22.134	848.151	667.926
308.993	21.953	847.745	666.861
310.008	22.121	847.574	667.306
311.022	22.439	846.968	667.975
312.037	22.479	845.904	667.228
313.052	22.187	845.426	665.687
314.066	21.923	844.966	664.264
315.081	21.254	843.376	660.428
316.095	20.684	841.929	657.084
317.110	21.202	842.134	659.143
318.125	21.931	842.599	662.202
319.139	21.551	841.530	659.871
320.154	20.485	839.698	654.361
321.168	20.073	839.028	652.230
322.183	20.625	838.830	654.095
323.197	21.472	839.659	657.874
324.212	21.886	838.976	658.835
325.227	21.957	838.544	658.704
326.241	22.164	837.888	658.905
327.256	22.093	837.911	658.598
328.270	21.903	837.204	657.272
329.285	21.885	836.507	656.599
330.300	21.781	835.465	655.336
331.314	21.522	834.353	653.440
332.329	21.653	834.050	653.631
333.343	22.003	833.782	654.668
334.358	22.129	833.555	654.904
335.373	22.267	833.100	655.003
336.387	22.322	832.296	654.516
337.402	22.481	831.988	654.808
338.416	22.595	831.729	654.970
339.431	22.580	830.962	654.252
340.446	22.645	830.405	653.996
341.460	22.719	829.971	653.870
342.475	22.670	829.729	653.441
343.489	22.648	828.206	652.102
344.504	22.552	828.002	651.529
345.519	22.811	828.101	652.507
346.533	22.992	827.450	652.605
347.548	22.938	827.527	652.409
348.562	23.060	826.820	652.244
349.577	22.934	826.150	651.191
350.592	23.178	825.351	651.403
351.606	23.025	824.669	650.244
352.621	23.072	824.294	650.063
353.635	22.755	823.973	648.590
354.650	22.690	823.381	647.827
355.665	22.542	822.251	646.338
356.679	21.468	820.735	641.156
357.694	21.440	820.116	640.513
358.708	21.927	820.183	642.291
359.723	21.832	819.722	641.524
360.738	22.252	819.412	642.763
361.752	22.607	819.470	644.045
362.767	22.754	818.892	644.074
363.781	22.891	819.018	644.615
364.796	23.079	818.973	645.209
365.810	23.150	818.379	644.940
366.825	23.368	817.512	644.994
367.840	23.304	817.513	644.706
368.854	23.270	816.585	643.793
369.869	22.598	815.964	640.805
370.883	22.589	815.141	640.069
371.898	22.775	814.829	640.442
372.913	22.554	813.985	638.922
373.927	22.726	812.923	638.653
374.942	22.630	812.769	638.127
375.956	22.834	812.366	638.494
376.971	22.826	811.920	638.057
377.986	22.868	811.690	637.974
379.000	23.239	811.198	638.868
380.015	23.229	810.568	638.281
381.029	23.054	809.548	636.791
382.044	23.006	809.233	636.314
383.059	23.206	808.898	636.712
384.073	23.135	808.330	635.955
385.088	23.218	808.176	636.074
386.102	23.319	807.042	635.490
387.117	22.972	806.920	634.090
388.132	22.972	806.166	633.442
389.146	22.826	805.382	632.249
390.161	22.151	804.563	629.133
391.175	22.539	804.008	630.031
392.190	22.776	804.487	631.198
393.205	22.976	803.509	631.090
394.219	21.803	801.787	625.498
395.234	20.252	799.839	618.400
396.248	19.645	798.903	615.460
397.263	20.706	799.428	619.589
398.278	22.528	801.096	627.320
399.292	23.020	800.725	628.726
400.307	22.780	799.991	627.241
401.321	22.451	799.551	625.672
402.336	22.436	799.403	625.448
403.350	22.942	799.049	626.909
404.365	23.306	798.890	628.022
405.380	23.625	798.597	628.866
406.394	23.846	798.654	629.639
407.409	24.008	798.214	629.809
408.423	23.946	797.804	629.210
409.438	23.849	796.873	628.078
410.453	23.907	796.389	627.846
411.467	23.962	796.240	627.867
412.482	23.966	795.454	627.206
413.496	24.036	795.021	627.054
414.511	23.992	794.610	626.520
415.526	23.893	794.604	626.110
416.540	23.817	794.041	625.345
417.555	23.889	793.431	625.063
418.569	23.504	792.750	623.117
419.584	23.726	792.038	623.284
420.599	23.750	791.587	622.957
421.613	155.607	1365.121	1796.038
422.628	134.712	1448.703	1796.121
