DTS Sentinel unit serial number:	SN413079Multiplexer serial number:	ORYXHardware model number:	OX4-SRSoftware version number:	ORYX F/W v4.00 Oryx Data Collector v3.7.2.0data status	okinstallation	princeton_trtdifferential loss correction	single-endedforward channel	channel 3reverse channel	N/Adate	2019/09/14time	10:04:34forward acquisition time	60.00reverse acquisition time	0.00gamma	496.2192k internal	0.2312k external	0.2312temperature offset calibration	1.0055default loss term (dB/km)	0.3790temperature slope calibration	1.0000multiplexer offset coefficient	1.0000multiplexer slope coefficient	1.0000fibre end	0.00T internal ref (°C)	33.30T ext. ref 1 (°C)	4.03T ext. ref 2 (°C)	32.30length (m)	temperature (°C)	Stokes	anti-Stokes-747.200	-110.391	0.414	0.087
-746.185	-94.029	0.070	-0.019
-745.171	-133.005	0.245	0.032
-744.156	800.000	-0.036	-0.141
-743.142	-200.000	-0.053	-0.235
-742.127	800.000	0.103	0.347
-741.112	-107.815	0.101	-0.022
-740.098	356.628	-0.012	-0.023
-739.083	-122.874	0.352	-0.058
-738.069	374.890	-0.137	0.283
-737.054	-10.304	0.131	0.088
-736.039	48.253	-0.235	-0.224
-735.025	800.000	-0.172	0.483
-734.010	95.508	0.104	-0.120
-732.996	-83.652	-0.170	-0.055
-731.981	389.608	-0.121	-0.255
-730.966	5.031	-0.356	-0.266
-729.952	265.611	0.037	0.066
-728.937	-118.102	-0.329	0.060
-727.923	697.040	-0.087	-0.231
-726.908	-200.000	-0.055	-0.395
-725.894	-200.000	-0.007	0.054
-724.879	328.079	-0.094	0.184
-723.864	45.215	0.091	-0.085
-722.850	-200.000	-0.038	-0.183
-721.835	800.000	-0.060	-0.243
-720.821	127.949	-0.154	-0.198
-719.806	-200.000	0.018	0.118
-718.791	-53.522	0.577	0.268
-717.777	156.583	0.167	-0.234
-716.762	-113.633	0.146	-0.029
-715.748	99.939	0.067	0.078
-714.733	232.297	-0.075	0.125
-713.718	205.127	-0.146	-0.230
-712.704	267.215	-0.084	0.149
-711.689	-62.701	0.230	-0.097
-710.675	105.950	0.145	-0.174
-709.660	386.500	-0.103	-0.216
-708.645	273.491	-0.044	-0.079
-707.631	-200.000	0.065	-0.316
-706.616	-28.923	0.116	0.068
-705.602	800.000	-0.089	-0.323
-704.587	-200.000	0.007	0.256
-703.572	-200.000	0.008	-0.197
-702.558	454.208	-0.068	-0.153
-701.543	-87.976	0.280	-0.085
-700.529	-67.154	0.107	-0.043
-699.514	-200.000	0.018	-0.299
-698.499	236.219	-0.100	-0.167
-697.485	-200.000	0.076	-0.414
-696.470	-119.717	-0.081	0.014
-695.456	-124.895	-0.128	-0.020
-694.441	610.162	0.046	-0.115
-693.426	278.059	0.108	-0.195
-692.412	-200.000	-0.026	0.211
-691.397	-25.840	-0.027	-0.016
-690.383	118.392	0.087	-0.108
-689.368	77.181	-0.294	-0.317
-688.354	-108.965	0.216	0.047
-687.339	-60.733	0.255	-0.109
-686.324	57.172	-0.266	-0.263
-685.310	93.022	-0.087	-0.099
-684.295	-63.697	0.104	0.043
-683.281	212.771	-0.116	0.185
-682.266	-43.407	0.203	-0.104
-681.251	-12.877	-0.266	0.175
-680.237	-28.354	-0.109	-0.064
-679.222	-45.048	0.105	0.053
-678.208	-200.000	-0.037	-0.247
-677.193	-200.000	0.024	-0.258
-676.178	-12.755	0.105	-0.070
-675.164	-11.823	-0.244	-0.162
-674.149	-69.076	-0.279	0.109
-673.135	-200.000	0.012	0.093
-672.120	-200.000	0.022	0.183
-671.105	275.898	-0.107	0.192
-670.091	388.176	-0.079	0.166
-669.076	90.973	-0.112	-0.127
-668.062	-149.284	-0.061	-0.005
-667.047	266.236	-0.056	0.099
-666.032	-108.950	-0.104	0.023
-665.018	-200.000	0.048	-0.290
-664.003	703.935	-0.016	-0.042
-662.989	599.769	-0.088	-0.220
-661.974	-190.421	0.148	-0.002
-660.959	-51.111	-0.188	-0.089
-659.945	800.000	0.106	-0.305
-658.930	-200.000	-0.017	-0.147
-657.916	-4.870	0.325	-0.226
-656.901	-113.917	0.396	-0.078
-655.886	-41.276	-0.135	0.071
-654.872	-102.582	0.230	-0.056
-653.857	285.510	-0.141	0.258
-652.843	-33.379	0.088	-0.049
-651.828	-90.428	-0.160	0.047
-650.814	-77.320	-0.391	-0.137
-649.799	524.006	0.116	0.276
-648.784	-165.384	0.282	-0.012
-647.770	43.380	-0.052	0.048
-646.755	800.000	-0.075	-0.297
-645.741	465.093	-0.063	0.144
-644.726	-100.126	-0.378	0.095
-643.711	-163.602	-0.137	0.007
-642.697	259.470	0.228	0.397
-641.682	-90.596	0.148	-0.043
-640.668	37.394	0.110	-0.098
-639.653	56.869	0.049	0.048
-638.638	12.983	0.106	0.083
-637.624	-53.449	0.129	0.060
-636.609	-43.360	0.327	-0.167
-635.595	57.215	0.202	0.199
-634.580	6.343	0.069	0.052
-633.565	800.000	-0.071	-0.295
-632.551	-98.623	-0.323	-0.083
-631.536	280.915	-0.042	-0.077
-630.522	62.076	0.128	0.129
-629.507	-200.000	-0.015	-0.211
-628.492	-200.000	0.005	0.150
-627.478	-7.388	0.214	0.147
-626.463	-123.340	0.085	-0.014
-625.449	25.804	-0.115	0.097
-624.434	-130.070	-0.181	0.025
-623.419	-80.406	0.050	0.017
-622.405	-117.514	0.183	0.033
-621.390	350.174	0.084	0.168
-620.376	267.333	0.207	-0.366
-619.361	-96.956	0.048	0.013
-618.346	74.681	-0.032	-0.034
-617.332	648.383	-0.103	-0.265
-616.317	-114.762	0.203	-0.039
-615.303	-116.507	-0.377	0.070
-614.288	-115.863	-0.160	0.030
-613.273	-17.897	-0.102	0.065
-612.259	-94.911	-0.058	-0.016
-611.244	-63.064	0.301	-0.125
-610.230	-200.000	0.042	-0.375
-609.215	89.516	0.145	-0.163
-608.201	225.855	-0.047	0.077
-607.186	329.162	-0.125	-0.242
-606.171	-163.159	-0.350	0.017
-605.157	-154.019	-0.322	0.022
-604.142	-200.000	-0.018	-0.117
-603.128	-200.000	0.021	0.194
-602.113	800.000	-0.106	-0.357
-601.098	107.793	0.159	0.191
-600.084	-22.790	-0.323	0.197
-599.069	800.000	-0.026	-0.114
-598.055	-200.000	-0.031	0.208
-597.040	-150.867	0.089	-0.007
-596.025	-33.608	-0.040	-0.022
-595.011	117.012	-0.141	0.175
-593.996	-36.277	0.126	0.069
-592.982	-116.216	-0.146	0.027
-591.967	38.238	-0.057	0.051
-590.952	40.715	-0.093	0.085
-589.938	264.164	-0.136	0.238
-588.923	125.119	0.158	0.201
-587.909	161.567	-0.223	0.315
-586.894	33.264	0.105	0.091
-585.879	-200.000	0.014	0.366
-584.865	38.634	-0.266	-0.240
-583.850	-46.412	0.121	-0.060
-582.836	94.743	0.093	-0.106
-581.821	151.492	-0.132	-0.181
-580.806	-113.928	-0.274	-0.054
-579.792	184.617	-0.012	0.018
-578.777	95.988	0.034	0.039
-577.763	774.798	-0.036	-0.099
-576.748	-200.000	0.063	0.510
-575.733	36.355	-0.037	-0.033
-574.719	-101.464	-0.195	0.048
-573.704	-145.643	-0.087	0.008
-572.690	218.342	0.040	0.064
-571.675	403.061	-0.021	-0.044
-570.661	-191.153	0.143	0.001
-569.646	39.782	-0.322	0.291
-568.631	800.000	0.150	0.447
-567.617	-4.851	-0.157	-0.109
-566.602	-35.628	-0.222	0.122
-565.588	54.397	-0.076	0.074
-564.573	277.063	0.123	-0.220
-563.558	33.705	-0.228	-0.200
-562.544	-200.000	0.037	-0.270
-561.529	-200.000	-0.017	0.125
-560.515	38.318	-0.039	-0.035
-559.500	606.717	-0.016	0.040
-558.485	162.866	0.160	-0.226
-557.471	26.634	0.191	-0.161
-556.456	48.319	0.208	0.196
-555.442	-200.000	-0.026	-0.294
-554.427	-41.629	-0.190	-0.098
-553.412	-200.000	-0.064	-0.331
-552.398	-200.000	0.092	-0.415
-551.383	800.000	0.011	-0.042
-550.369	-42.879	0.090	0.046
-549.354	-185.711	-0.193	0.003
-548.339	340.970	-0.076	-0.150
-547.325	-127.890	-0.219	0.032
-546.310	347.392	0.063	0.125
-545.296	-200.000	-0.015	0.296
-544.281	176.419	0.059	-0.086
-543.266	-96.243	0.275	-0.073
-542.252	-47.341	-0.283	-0.139
-541.237	-165.346	0.355	0.016
-540.223	188.220	-0.125	-0.187
-539.208	-60.359	-0.350	-0.150
-538.193	-200.000	-0.005	0.026
-537.179	157.896	0.041	0.057
-536.164	-200.000	0.119	0.636
-535.150	-133.868	0.111	0.014
-534.135	49.402	-0.078	0.074
-533.121	-103.315	-0.120	-0.029
-532.106	241.876	0.095	-0.160
-531.091	-89.328	-0.259	-0.077
-530.077	80.307	-0.057	0.062
-529.062	-92.934	-0.223	0.063
-528.048	-148.249	-0.282	0.023
-527.033	-47.799	0.250	0.122
-526.018	-200.000	-0.019	0.140
-525.004	-141.452	0.281	0.029
-523.989	148.992	0.124	0.168
-522.975	-181.167	0.098	-0.002
-521.960	-91.515	-0.260	-0.075
-520.945	35.431	0.301	0.265
-519.931	800.000	0.071	0.220
-518.916	-117.107	0.060	-0.011
-517.902	-115.445	0.332	-0.063
-516.887	800.000	-0.135	0.423
-515.872	110.337	0.190	-0.230
-514.858	-145.149	-0.139	0.013
-513.843	111.747	0.078	0.094
-512.829	-70.247	0.212	-0.081
-511.814	51.041	0.083	0.079
-510.799	15.319	0.178	-0.140
-509.785	-128.706	0.092	-0.013
-508.770	-10.970	0.381	-0.253
-507.756	2.503	-0.170	-0.124
-506.741	-126.604	-0.113	0.017
-505.726	-31.970	0.140	0.079
-504.712	-106.968	-0.322	-0.072
-503.697	-200.000	-0.016	-0.174
-502.683	14.907	0.103	0.081
-501.668	99.016	-0.302	0.351
-500.653	800.000	0.016	-0.055
-499.639	-128.816	-0.156	-0.022
-498.624	-46.850	0.086	0.042
-497.610	33.939	0.178	0.156
-496.595	-48.489	-0.297	-0.144
-495.581	-50.349	-0.200	-0.095
-494.566	66.545	-0.281	-0.287
-493.551	-120.627	0.289	0.049
-492.537	800.000	-0.068	0.195
-491.522	-63.628	-0.118	0.049
-490.508	-130.401	0.263	0.036
-489.493	-200.000	0.034	0.152
-488.478	-4.466	0.255	-0.177
-487.464	-113.402	0.245	0.048
-486.449	250.392	0.055	-0.093
-485.435	-163.467	-0.233	0.011
-484.420	-200.000	0.007	-0.173
-483.405	328.764	-0.121	0.233
-482.391	-108.928	0.210	-0.045
-481.376	800.000	-0.038	0.123
-480.362	-83.791	0.125	0.040
-479.347	-5.495	-0.243	-0.167
-478.332	-105.028	-0.025	-0.006
-477.318	59.861	0.090	0.089
-476.303	167.192	-0.206	0.294
-475.289	-200.000	-0.032	-0.250
-474.274	409.212	-0.100	0.212
-473.259	195.083	0.096	0.146
-472.245	800.000	-0.144	-0.429
-471.230	800.000	0.076	-0.309
-470.216	-200.000	-0.005	0.290
-469.201	-123.959	-0.259	-0.041
-468.186	-200.000	0.027	-0.327
-467.172	-200.000	-0.028	0.136
-466.157	-200.000	-0.063	0.299
-465.143	-50.457	0.110	0.052
-464.128	104.485	-0.335	-0.396
-463.113	-184.861	0.167	0.003
-462.099	488.203	0.080	-0.183
-461.084	-200.000	-0.014	-0.245
-460.070	-123.722	-0.273	-0.043
-459.055	-200.000	-0.042	-0.288
-458.040	800.000	0.013	-0.048
-457.026	88.002	0.071	-0.079
-456.011	-200.000	0.002	0.302
-454.997	-184.952	-0.234	0.004
-453.982	-77.091	0.286	0.100
-452.968	-96.580	0.112	0.030
-451.953	800.000	0.044	-0.156
-450.938	-112.732	-0.424	-0.085
-449.924	52.176	-0.228	0.218
-448.909	-136.817	0.221	0.026
-447.895	-42.558	-0.220	-0.113
-446.880	439.551	0.119	0.260
-445.865	287.956	-0.020	-0.037
-444.851	-131.186	-0.374	0.050
-443.836	-22.295	0.264	-0.160
-442.822	800.000	0.045	-0.126
-441.807	800.000	-0.086	-0.318
-440.792	-98.702	-0.292	-0.075
-439.778	800.000	-0.090	0.345
-438.763	259.130	0.109	0.188
-437.749	-11.876	-0.153	-0.100
-436.734	800.000	-0.014	0.052
-435.719	-96.211	-0.119	0.032
-434.705	-70.899	0.297	0.112
-433.690	-28.030	-0.243	-0.141
-432.676	-200.000	-0.010	-0.291
-431.661	34.073	-0.021	0.018
-430.646	554.190	0.046	0.111
-429.632	-200.000	0.015	0.097
-428.617	-38.450	0.142	0.075
-427.603	109.485	-0.152	0.183
-426.588	18.238	0.201	0.161
-425.573	193.349	-0.048	-0.072
-424.559	-80.996	-0.106	-0.035
-423.544	129.571	-0.125	-0.161
-422.530	-51.841	0.148	-0.069
-421.515	-104.288	0.039	0.009
-420.500	317.995	-0.118	-0.223
-419.486	-64.437	-0.161	0.066
-418.471	-164.050	0.252	-0.012
-417.457	-103.997	-0.226	0.053
-416.442	130.961	-0.174	-0.223
-415.428	-123.103	-0.476	0.076
-414.413	195.312	0.215	0.327
-413.398	-200.000	-0.041	0.187
-412.384	800.000	0.042	-0.182
-411.369	-106.725	-0.274	0.061
-410.355	-92.027	0.220	-0.062
-409.340	-51.514	-0.070	-0.033
-408.325	543.481	-0.109	0.260
-407.311	-149.128	-0.171	0.014
-406.296	111.873	0.210	-0.253
-405.282	27.060	0.097	-0.082
-404.267	94.029	0.044	-0.050
-403.252	-106.052	-0.221	0.050
-402.238	-1.617	0.125	0.089
-401.223	-98.122	0.306	-0.079
-400.209	800.000	-0.094	0.385
-399.194	-1.935	-0.142	0.100
-398.179	662.345	0.130	0.335
-397.165	-70.146	0.232	0.088
-396.150	-200.000	0.047	-0.348
-395.136	157.773	-0.137	-0.191
-394.121	147.318	-0.052	-0.071
-393.106	-200.000	-0.029	0.182
-392.092	-200.000	-0.001	0.044
-391.077	7.891	0.293	-0.220
-390.063	28.019	-0.347	0.293
-389.048	239.492	0.077	-0.128
-388.033	278.501	-0.199	-0.355
-387.019	44.165	-0.275	0.252
-386.004	-9.182	0.096	0.064
-384.990	285.570	0.138	0.249
-383.975	90.050	-0.097	-0.108
-382.960	-144.312	-0.456	0.043
-381.946	17.082	-0.217	-0.172
-380.931	206.318	0.266	0.414
-379.917	450.188	-0.075	0.166
-378.902	268.716	0.114	-0.199
-377.888	122.322	0.142	-0.177
-376.873	-49.997	-0.105	0.050
-375.858	-136.297	-0.266	-0.031
-374.844	800.000	0.059	0.242
-373.829	-200.000	-0.017	0.112
-372.815	506.719	-0.030	0.069
-371.800	-55.410	-0.093	0.042
-370.785	464.367	0.070	0.156
-369.771	81.230	-0.052	-0.056
-368.756	-73.975	0.163	0.059
-367.742	64.473	0.133	0.134
-366.727	151.852	-0.122	-0.166
-365.712	-200.000	0.022	0.202
-364.698	60.583	-0.063	0.063
-363.683	109.337	0.065	-0.077
-362.669	47.604	0.108	-0.100
-361.654	-149.400	0.063	-0.005
-360.639	-200.000	-0.008	-0.072
-359.625	-167.531	-0.256	-0.010
-358.610	167.020	0.134	-0.190
-357.596	329.895	0.041	0.079
-356.581	-116.597	0.180	-0.033
-355.566	-76.939	-0.386	0.135
-354.552	259.416	0.007	-0.011
-353.537	-129.152	0.233	-0.032
-352.523	-81.844	0.443	-0.145
-351.508	774.318	-0.117	-0.319
-350.493	112.094	0.096	-0.116
-349.479	116.586	-0.139	-0.170
-348.464	236.906	0.264	0.437
-347.450	-13.065	0.140	0.091
-346.435	-120.793	0.160	-0.027
-345.420	129.209	-0.072	-0.091
-344.406	105.511	0.164	-0.194
-343.391	-200.000	-0.042	0.200
-342.377	21.856	-0.208	0.170
-341.362	159.871	-0.113	0.157
-340.348	-144.684	0.364	0.033
-339.333	-98.712	0.237	-0.060
-338.318	-200.000	-0.043	-0.358
-337.304	-200.000	0.050	0.308
-336.289	29.788	0.271	-0.230
-335.275	-200.000	0.051	0.274
-334.260	-69.240	0.409	-0.157
-333.245	-45.991	-0.010	0.005
-332.231	-6.488	-0.087	0.059
-331.216	-124.314	-0.028	-0.004
-330.202	558.306	0.119	-0.286
-329.187	478.507	-0.119	0.270
-328.172	-161.598	-0.387	0.020
-327.158	-200.000	-0.005	-0.403
-326.143	-144.009	0.456	0.043
-325.129	-200.000	-0.022	0.191
-324.114	-95.799	-0.368	0.098
-323.099	-20.813	-0.042	0.026
-322.085	709.489	0.094	-0.247
-321.070	289.137	0.254	-0.460
-320.056	49.269	-0.316	0.297
-319.041	-60.583	0.104	0.044
-318.026	-112.785	0.205	-0.041
-317.012	-75.404	0.459	-0.163
-315.997	689.690	-0.079	0.205
-314.983	335.720	0.044	-0.085
-313.968	-11.374	0.082	0.054
-312.953	-126.749	-0.281	-0.041
-311.939	143.141	0.212	-0.281
-310.924	151.257	-0.200	-0.272
-309.910	-182.578	0.177	0.003
-308.895	800.000	0.079	0.238
-307.880	285.989	0.044	0.080
-306.866	-200.000	-0.050	0.270
-305.851	-200.000	0.008	-0.096
-304.837	-33.630	-0.309	-0.170
-303.822	3.136	0.105	0.076
-302.807	-200.000	-0.019	0.200
-301.793	256.571	0.079	0.136
-300.778	315.518	-0.140	0.263
-299.764	-3.459	0.030	-0.021
-298.749	37.812	0.135	0.120
-297.735	-132.867	-0.200	0.025
-296.720	-21.254	-0.047	0.029
-295.705	-169.545	-0.080	0.003
-294.691	-117.738	-0.160	0.029
-293.676	800.000	0.132	-0.415
-292.662	-31.242	0.336	-0.189
-291.647	708.534	0.058	0.152
-290.632	163.546	0.124	-0.174
-289.618	-200.000	-0.023	0.147
-288.603	800.000	0.053	-0.159
-287.589	-55.837	0.195	0.087
-286.574	-96.591	-0.090	-0.024
-285.559	-200.000	0.064	0.288
-284.545	-200.000	-0.034	-0.341
-283.530	800.000	0.029	-0.097
-282.516	-200.000	0.006	-0.183
-281.501	-107.054	-0.072	0.016
-280.486	-0.751	0.132	0.093
-279.472	-52.555	-0.023	-0.011
-278.457	347.514	-0.024	-0.047
-277.443	-200.000	0.011	0.185
-276.428	-140.990	0.303	-0.031
-275.413	487.324	-0.091	-0.208
-274.399	-96.749	0.212	-0.056
-273.384	-47.674	0.279	-0.135
-272.370	-200.000	0.079	-0.382
-271.355	72.928	0.270	-0.281
-270.340	-91.640	0.192	0.054
-269.326	-7.799	-0.157	-0.106
-268.311	-200.000	0.041	0.227
-267.297	-200.000	0.002	0.197
-266.282	91.013	0.206	-0.230
-265.267	720.122	0.050	0.132
-264.253	-200.000	0.029	0.240
-263.238	109.466	-0.166	-0.198
-262.224	-19.389	0.151	0.093
-261.209	-140.884	-0.493	0.051
-260.195	-77.869	0.275	-0.094
-259.180	-113.421	0.204	0.040
-258.165	-142.710	0.227	-0.022
-257.151	-79.602	0.309	-0.104
-256.136	-49.298	0.265	-0.126
-255.122	-113.998	-0.134	-0.026
-254.107	800.000	0.116	0.334
-253.092	-143.877	0.270	0.025
-252.078	-200.000	0.008	-0.245
-251.063	-6.138	0.205	0.140
-250.049	739.986	0.113	0.302
-249.034	69.138	-0.016	-0.016
-248.019	800.000	0.045	0.144
-247.005	800.000	-0.081	0.246
-245.990	368.062	-0.092	-0.186
-244.976	130.625	0.128	-0.164
-243.961	721.162	-0.109	-0.289
-242.946	-68.141	0.208	-0.080
-241.932	-200.000	-0.015	-0.137
-240.917	-133.570	-0.189	0.024
-239.903	46.150	-0.076	0.070
-238.888	-42.564	0.317	0.161
-237.873	-119.727	-0.059	0.010
-236.859	-88.075	-0.052	0.016
-235.844	11.065	0.101	-0.077
-234.830	-200.000	0.015	0.159
-233.815	433.460	-0.045	0.096
-232.800	21.938	-0.197	0.160
-231.786	-76.265	0.086	0.030
-230.771	-120.079	-0.278	-0.047
-229.757	-69.600	0.195	-0.074
-228.742	-102.699	-0.232	-0.055
-227.727	756.924	-0.083	0.223
-226.713	56.026	0.102	-0.098
-225.698	307.081	0.031	-0.058
-224.684	-135.221	0.295	-0.035
-223.669	-200.000	0.061	-0.290
-222.655	27.100	-0.092	0.077
-221.640	18.686	-0.197	0.157
-220.625	25.929	-0.293	0.243
-219.611	-84.357	-0.363	0.114
-218.596	23.356	0.131	-0.107
-217.582	366.459	-0.086	0.173
-216.567	528.742	-0.111	0.262
-215.552	4.364	-0.142	-0.104
-214.538	120.140	0.179	0.221
-213.523	-173.063	0.179	-0.005
-212.509	-22.179	0.243	-0.146
-211.494	215.661	0.245	-0.387
-210.479	-83.772	-0.431	0.137
-209.465	605.805	-0.121	0.299
-208.450	-200.000	-0.002	-0.138
-207.436	-58.362	-0.223	-0.096
-206.421	223.482	-0.134	0.216
-205.406	800.000	-0.032	-0.135
-204.392	-200.000	0.029	-0.129
-203.377	-71.812	-0.113	-0.042
-202.363	75.794	0.145	-0.152
-201.348	90.924	0.088	-0.098
-200.333	282.314	-0.088	0.157
-199.319	-200.000	0.009	-0.049
-198.304	-74.483	-0.144	0.052
-197.290	-71.070	-0.390	0.146
-196.275	527.674	0.048	0.112
-195.260	-53.329	-0.203	-0.092
-194.246	147.970	-0.048	0.064
-193.231	-15.648	-0.325	0.206
-192.217	3.360	0.167	0.121
-191.202	760.986	0.035	0.094
-190.187	-25.454	-0.089	-0.052
-189.173	-149.117	0.311	-0.025
-188.158	800.000	-0.106	-0.332
-187.144	-200.000	-0.048	0.248
-186.129	768.182	-0.035	-0.094
-185.114	-95.183	-0.107	0.029
-184.100	20.935	0.162	0.131
-183.085	-153.590	0.476	0.033
-182.071	97.495	0.312	-0.355
-181.056	180.415	-0.160	-0.234
-180.042	609.135	0.040	0.100
-179.027	339.012	-0.152	0.294
-178.012	35.321	-0.032	0.028
-176.998	-200.000	-0.014	-0.261
-175.983	-200.000	-0.011	-0.367
-174.969	711.018	0.092	-0.241
-173.954	260.146	-0.138	-0.237
-172.939	-200.000	-0.002	-0.065
-171.925	-97.785	0.099	-0.025
-170.910	127.166	-0.231	-0.291
-169.896	-200.000	0.131	0.001
-168.881	800.000	0.030	-0.101
-167.866	369.110	0.158	0.317
-166.852	-96.762	-0.225	0.059
-165.837	-170.767	-0.285	0.010
-164.823	335.010	0.088	0.169
-163.808	160.872	0.170	-0.236
-162.793	-92.966	0.116	-0.032
-161.779	800.000	0.108	0.319
-160.764	-37.103	-0.112	-0.060
-159.750	456.913	0.106	0.233
-158.735	-24.116	0.080	-0.047
-157.720	-96.105	-0.118	0.031
-156.706	666.740	0.076	-0.195
-155.691	-27.671	-0.105	-0.060
-154.677	-154.943	-0.377	0.025
-153.662	329.357	0.160	-0.304
-152.647	77.493	0.104	-0.110
-151.633	-200.000	-0.016	0.116
-150.618	-12.093	0.382	-0.248
-149.604	476.505	-0.043	0.095
-148.589	-77.279	-0.312	0.108
-147.574	-200.000	-0.055	-0.275
-146.560	800.000	0.071	-0.276
-145.545	800.000	0.104	-0.315
-144.531	107.454	0.198	-0.234
-143.516	-200.000	-0.352	0.001
-142.502	-200.000	0.012	0.061
-141.487	800.000	-0.067	0.185
-140.472	-60.181	0.155	-0.066
-139.458	-89.470	0.169	-0.049
-138.443	-200.000	0.001	0.059
-137.429	218.532	0.198	-0.313
-136.414	-138.616	0.415	0.045
-135.399	-196.750	-0.152	0.001
-134.385	169.348	-0.065	-0.092
-133.370	-200.000	-0.002	0.065
-132.356	-9.460	0.322	0.213
-131.341	-73.773	-0.177	-0.064
-130.326	-31.128	0.109	0.061
-129.312	93.532	-0.293	-0.329
-128.297	-200.000	-0.007	-0.162
-127.283	-70.693	-0.027	-0.010
-126.268	-175.567	-0.127	0.003
-125.253	18.564	0.107	-0.085
-124.239	-51.177	0.048	-0.022
-123.224	-200.000	-0.061	0.374
-122.210	112.181	-0.108	-0.129
-121.195	800.000	-0.116	-0.455
-120.180	-139.643	-0.238	-0.025
-119.166	477.221	0.095	-0.213
-118.151	397.967	0.083	-0.171
-117.137	-19.824	-0.423	-0.259
-116.122	242.985	0.156	0.258
-115.107	258.117	0.154	0.262
-114.093	44.392	-0.026	0.024
-113.078	-125.095	-0.049	0.008
-112.064	510.952	0.100	-0.229
-111.049	800.000	0.072	0.208
-110.034	-100.165	0.211	0.052
-109.020	-200.000	0.016	0.299
-108.005	-10.854	-0.157	0.103
-106.991	-200.000	0.009	-0.076
-105.976	289.684	-0.161	-0.290
-104.962	87.509	0.193	0.212
-103.947	-9.958	-0.157	-0.103
-102.932	-78.360	0.257	0.087
-101.918	-200.000	-0.029	0.180
-100.903	800.000	-0.044	-0.154
-99.889	78.835	0.033	0.035
-98.874	-160.814	0.301	-0.016
-97.859	79.993	0.035	-0.037
-96.845	29.058	-0.290	-0.244
-95.830	172.081	-0.114	0.163
-94.816	39.553	-0.111	-0.098
-93.801	613.133	-0.101	0.249
-92.786	-1.430	0.103	-0.072
-91.772	365.386	-0.184	0.367
-90.757	-132.344	0.468	-0.060
-89.743	-175.543	0.149	0.004
-88.728	452.691	-0.095	-0.209
-87.713	-200.000	0.013	-0.061
-86.699	-28.975	0.235	0.133
-85.684	391.435	-0.138	0.283
-84.670	-47.940	0.200	0.096
-83.655	611.323	0.060	-0.149
-82.640	-200.000	0.019	0.148
-81.626	-23.847	-0.063	-0.037
-80.611	800.000	-0.080	-0.295
-79.597	336.030	0.120	-0.231
-78.582	17.921	0.294	0.232
-77.567	800.000	-0.065	-0.194
-76.553	-6.997	0.118	-0.079
-75.538	-109.993	-0.056	-0.012
-74.524	800.000	-0.040	-0.160
-73.509	800.000	-0.014	-0.052
-72.494	-200.000	0.073	0.344
-71.480	-117.627	0.426	-0.076
-70.465	20.775	0.140	0.112
-69.451	-83.411	0.215	-0.068
-68.436	131.082	-0.221	0.281
-67.422	173.234	0.162	0.231
-66.407	-157.323	0.201	0.012
-65.392	-9.690	0.435	0.286
-64.378	596.164	0.033	-0.080
-63.363	167.199	0.199	0.279
-62.349	69.192	-0.170	-0.173
-61.334	42.804	-1.042	-0.938
-60.319	171.940	0.282	0.401
-59.305	-200.000	0.080	-1.009
-58.290	341.750	0.570	1.101
-57.276	800.000	0.388	1.623
-56.261	-200.000	97.774	592.098
-55.246	621.268	1428.509	3550.433
-54.232	179.750	2651.537	3836.974
-53.217	119.254	2229.015	2724.138
-52.203	44.171	1753.916	1589.132
-51.188	36.419	1564.204	1362.766
-50.173	34.059	1536.532	1322.225
-49.159	53.099	1588.342	1501.856
-48.144	56.489	1606.608	1543.014
-47.130	36.719	1562.197	1362.911
-46.115	33.617	1545.805	1326.897
-45.100	33.346	1542.793	1322.370
-44.086	33.379	1540.967	1320.980
-43.071	33.299	1538.875	1318.578
-42.057	33.312	1537.538	1317.473
-41.042	33.381	1535.654	1316.285
-40.027	33.290	1534.809	1314.874
-39.013	33.317	1533.114	1313.557
-37.998	33.331	1531.962	1312.619
-36.984	33.315	1531.102	1311.719
-35.969	33.327	1529.235	1310.149
-34.954	33.281	1527.883	1308.620
-33.940	33.228	1526.778	1307.251
-32.925	33.349	1524.987	1306.502
-31.911	33.288	1524.016	1305.202
-30.896	33.417	1522.225	1304.504
-29.881	33.515	1520.628	1303.759
-28.867	33.397	1519.914	1302.285
-27.852	33.364	1518.081	1300.435
-26.838	33.382	1516.770	1299.383
-25.823	33.307	1515.796	1297.980
-24.809	33.376	1513.965	1296.833
-23.794	33.338	1512.407	1295.187
-22.779	33.344	1511.095	1294.052
-21.765	33.248	1509.987	1292.397
-20.750	33.452	1508.288	1292.286
-19.736	33.290	1508.071	1290.945
-18.721	33.291	1506.641	1289.676
-17.706	33.304	1505.712	1288.916
-16.692	33.207	1504.698	1287.334
-15.677	33.237	1503.621	1286.571
-14.663	33.308	1502.416	1285.970
-13.648	33.205	1501.923	1284.793
-12.633	33.177	1501.258	1283.987
-11.619	33.288	1499.715	1283.370
-10.604	33.271	1498.603	1282.250
-9.590	33.247	1497.973	1281.497
-8.575	33.234	1497.596	1281.035
-7.560	33.218	1496.631	1280.052
-6.546	33.302	1495.620	1279.701
-5.531	33.167	1494.710	1277.962
-4.517	33.200	1493.674	1277.246
-3.502	33.100	1492.897	1275.860
-2.487	33.176	1491.230	1274.894
-1.473	33.325	1490.342	1275.092
-0.458	33.105	1489.991	1273.257
0.556	33.947	1480.615	1265.821
1.571	31.848	1454.844	1229.928
2.586	29.033	1393.202	1159.995
3.600	27.496	1309.499	1081.093
4.615	25.611	1261.705	1030.756
5.629	21.372	1202.818	959.350
6.644	12.076	1114.344	841.220
7.659	5.078	1071.833	774.417
8.673	4.022	1065.511	764.568
9.688	4.025	1062.998	762.711
10.702	4.061	1061.599	761.818
11.717	4.023	1059.733	760.225
12.731	6.657	1062.259	774.919
13.746	15.165	1074.821	826.137
14.761	20.594	1081.156	857.789
15.775	20.195	1078.873	853.940
16.790	19.168	1077.207	847.492
17.804	18.111	1075.024	840.506
18.819	17.140	1073.399	834.395
19.834	16.705	1071.964	831.068
20.848	16.539	1070.791	829.273
21.863	16.241	1070.262	827.331
22.877	15.967	1069.823	825.572
23.892	15.940	1068.575	824.405
24.907	15.820	1067.847	823.182
25.921	15.924	1066.859	822.856
26.936	15.823	1066.410	821.947
27.950	15.908	1065.293	821.426
28.965	15.891	1064.044	820.306
29.980	15.880	1063.360	819.654
30.994	16.025	1062.050	819.275
32.009	16.183	1061.090	819.232
33.023	16.144	1060.300	818.359
34.038	16.132	1059.371	817.512
35.053	16.031	1058.652	816.394
36.067	16.068	1057.801	815.848
37.082	16.022	1056.532	814.571
38.096	15.964	1056.125	813.905
39.111	16.023	1055.378	813.545
40.126	16.059	1054.827	813.223
41.140	16.043	1053.314	811.907
42.155	15.749	1052.415	809.725
43.169	15.710	1050.842	808.257
44.184	15.776	1049.777	807.684
45.199	15.710	1048.524	806.331
46.213	15.672	1047.962	805.644
47.228	15.752	1047.195	805.365
48.242	15.854	1046.198	805.015
49.257	15.936	1045.582	804.861
50.271	15.918	1044.343	803.751
51.286	15.859	1043.714	802.917
52.301	15.981	1042.707	802.654
53.315	15.882	1042.321	801.810
54.330	15.946	1041.346	801.297
55.344	15.776	1040.019	799.397
56.359	15.794	1039.099	798.705
57.374	15.708	1038.822	798.013
58.388	15.854	1037.456	797.583
59.403	15.679	1036.856	796.224
60.417	15.673	1035.976	795.447
61.432	15.656	1035.352	794.819
62.447	15.600	1034.479	793.815
63.461	15.661	1033.611	793.366
64.476	15.648	1032.166	792.124
65.490	15.514	1031.451	790.874
66.505	15.630	1030.562	790.668
67.520	15.518	1030.164	789.769
68.534	15.708	1028.970	789.673
69.549	15.642	1028.454	788.898
70.563	15.735	1027.090	788.218
71.578	15.678	1026.832	787.686
72.593	15.453	1025.794	785.766
73.607	15.396	1024.823	784.685
74.622	15.402	1024.295	784.241
75.636	15.387	1023.551	783.527
76.651	15.428	1022.308	782.701
77.666	15.393	1021.528	781.870
78.680	15.466	1020.884	781.648
79.695	15.435	1020.574	781.198
80.709	15.720	1019.760	781.831
81.724	15.699	1019.402	781.387
82.739	15.660	1018.238	780.247
83.753	15.723	1017.371	779.807
84.768	15.859	1016.706	779.857
85.782	16.013	1016.008	779.967
86.797	16.088	1015.425	779.796
87.812	16.186	1014.404	779.396
88.826	15.946	1014.085	777.972
89.841	15.854	1013.168	776.777
90.855	16.011	1011.780	776.366
91.870	16.060	1011.722	776.477
92.884	16.032	1010.833	775.599
93.899	16.063	1010.117	775.126
94.914	16.188	1009.201	774.926
95.928	16.238	1008.233	774.343
96.943	16.247	1007.606	773.835
97.957	16.137	1006.555	772.455
98.972	16.025	1005.829	771.317
99.987	16.003	1005.309	770.750
101.001	16.047	1004.565	770.314
102.016	16.122	1003.234	769.568
103.030	16.017	1003.075	768.899
104.045	16.005	1001.930	767.898
105.060	16.054	1000.580	767.019
106.074	15.940	999.828	765.856
107.089	15.877	999.274	765.078
108.103	15.697	998.439	763.554
109.118	15.616	997.015	762.027
110.133	15.618	996.122	761.289
111.147	15.689	995.128	760.780
112.162	15.606	994.333	759.733
113.176	15.573	993.669	759.007
114.191	15.643	992.862	758.639
115.206	15.769	992.268	758.686
116.220	15.780	991.298	757.928
117.235	15.871	990.257	757.475
118.249	15.566	990.105	755.920
119.264	15.672	988.796	755.328
120.279	15.626	987.803	754.296
121.293	15.689	986.903	753.828
122.308	15.680	986.021	753.047
123.322	15.638	985.315	752.251
124.337	15.579	984.400	751.221
125.352	15.434	983.497	749.820
126.366	15.482	982.339	749.086
127.381	15.462	981.455	748.253
128.395	15.519	980.212	747.496
129.410	15.474	979.466	746.660
130.424	15.592	978.580	746.442
131.439	15.618	977.682	745.805
132.454	15.683	977.108	745.592
133.468	15.668	976.445	744.952
134.483	15.741	975.501	744.489
135.497	15.853	974.710	744.317
136.512	15.823	974.004	743.576
137.527	15.820	973.197	742.882
138.541	15.837	972.115	742.065
139.556	15.708	971.752	741.154
140.570	15.685	971.203	740.568
141.585	15.795	970.650	740.565
142.600	15.983	969.656	740.570
143.614	16.083	968.584	740.123
144.629	16.099	968.171	739.813
145.643	16.116	967.340	739.187
146.658	16.082	966.211	738.110
147.673	16.005	965.499	737.163
148.687	15.847	964.857	735.916
149.702	15.913	963.721	735.275
150.716	15.729	962.958	733.826
151.731	15.695	961.967	732.856
152.746	15.865	961.054	732.834
153.760	15.748	960.747	732.026
154.775	15.879	960.093	732.033
155.789	16.028	959.269	731.989
156.804	16.033	958.502	731.362
157.819	15.921	957.874	730.332
158.833	16.055	957.074	730.238
159.848	16.070	956.593	729.870
160.862	16.193	955.757	729.701
161.877	16.091	955.026	728.635
162.892	15.893	954.152	727.049
163.906	15.857	953.022	725.970
164.921	15.830	952.403	725.315
165.935	15.847	951.101	724.334
166.950	15.956	950.147	724.012
167.964	16.083	949.057	723.665
168.979	16.102	948.224	723.045
169.994	15.991	947.199	721.723
171.008	16.039	946.326	721.199
172.023	16.024	945.707	720.601
173.037	16.094	945.094	720.370
174.052	16.156	944.300	719.963
175.067	16.063	943.837	719.152
176.081	15.997	942.637	717.893
177.096	15.795	942.042	716.517
178.110	15.870	941.036	716.006
179.125	15.977	940.311	715.846
180.140	15.956	939.161	714.817
181.154	16.012	938.560	714.533
182.169	15.968	938.639	714.344
183.183	16.096	938.142	714.445
184.198	16.250	937.247	714.353
185.213	16.231	936.707	713.798
186.227	16.173	935.516	712.582
187.242	16.268	935.023	712.543
188.256	16.338	934.529	712.401
189.271	16.360	933.361	711.541
190.286	16.512	932.774	711.669
191.300	16.268	931.962	709.962
192.315	16.098	930.866	708.347
193.329	15.838	930.014	706.547
194.344	15.943	929.347	706.417
195.359	16.039	928.777	706.322
196.373	16.106	928.835	706.586
197.388	16.171	928.457	706.507
198.402	16.316	927.940	706.657
199.417	16.568	927.373	707.219
200.432	16.462	927.205	706.584
201.446	16.478	926.766	706.253
202.461	16.697	926.307	706.755
203.475	16.764	925.340	706.236
204.490	16.748	924.860	705.741
205.504	16.649	923.687	704.369
206.519	16.546	922.814	703.213
207.534	16.454	922.371	702.432
208.548	16.524	921.166	701.744
209.563	16.600	920.954	701.835
210.577	16.458	920.175	700.592
211.592	16.385	919.806	699.943
212.607	16.543	919.329	700.174
213.621	16.549	918.410	699.435
214.636	16.626	917.960	699.351
215.650	16.591	916.733	698.210
216.665	16.475	916.990	697.864
217.680	16.790	915.947	698.309
218.694	16.797	916.008	698.323
219.709	16.845	915.013	697.698
220.723	16.855	914.295	697.129
221.738	16.795	913.532	696.239
222.753	16.714	912.975	695.421
223.767	16.685	912.350	694.765
224.782	16.821	911.481	694.599
225.796	16.685	910.936	693.567
226.811	16.909	910.072	693.764
227.826	16.785	909.701	692.912
228.840	16.764	908.929	692.175
229.855	16.782	908.088	691.548
230.869	16.638	907.450	690.413
231.884	16.809	906.593	690.398
232.899	16.679	905.850	689.244
233.913	16.750	905.474	689.184
234.928	16.629	904.609	687.972
235.942	16.652	903.938	687.492
236.957	16.585	903.089	686.515
237.972	16.496	902.870	685.926
238.986	16.737	901.594	685.873
240.001	16.721	901.039	685.327
241.015	16.752	900.295	684.824
242.030	16.907	899.860	685.061
243.045	16.738	899.045	683.695
244.059	16.933	898.858	684.280
245.074	16.958	897.527	683.310
246.088	16.814	897.338	682.523
247.103	16.867	897.159	682.541
248.117	16.947	896.692	682.448
249.132	17.111	895.636	682.241
250.147	17.104	895.302	681.900
251.161	17.358	894.832	682.501
252.176	17.478	894.076	682.342
253.190	17.457	893.397	681.679
254.205	17.488	892.655	681.177
255.220	17.486	892.179	680.748
256.234	17.495	891.549	680.242
257.249	17.481	891.101	679.783
258.263	17.503	890.602	679.433
259.278	17.482	890.037	678.857
260.293	17.462	889.215	678.089
261.307	17.501	888.711	677.801
262.322	17.577	888.453	677.847
263.336	17.768	887.238	677.619
264.351	17.593	887.110	676.766
265.366	17.605	886.539	676.317
266.380	17.648	885.201	675.407
267.395	17.862	884.500	675.658
268.409	17.684	883.957	674.482
269.424	17.619	883.511	673.825
270.439	17.665	882.563	673.224
271.453	17.511	882.165	672.251
272.468	17.526	881.125	671.460
273.482	17.499	880.679	670.955
274.497	17.593	880.125	670.842
275.512	17.532	879.110	669.770
276.526	17.496	878.637	669.209
277.541	17.562	877.944	668.882
278.555	17.567	877.338	668.379
279.570	17.597	877.219	668.347
280.585	17.771	876.380	668.329
281.599	17.916	875.707	668.327
282.614	17.776	875.497	667.559
283.628	17.618	874.689	666.265
284.643	17.675	873.677	665.657
285.657	17.719	873.280	665.469
286.672	17.619	872.970	664.783
287.687	17.778	872.165	664.731
288.701	17.804	871.824	664.514
289.716	17.697	871.264	663.612
290.730	17.596	871.212	663.122
291.745	17.762	870.224	662.956
292.760	17.885	868.785	662.280
293.774	17.990	868.537	662.438
294.789	17.944	868.363	662.066
295.803	17.991	867.520	661.550
296.818	17.965	866.969	660.970
297.833	17.839	866.212	659.846
298.847	17.890	865.776	659.651
299.862	17.997	864.984	659.403
300.876	17.820	864.375	658.198
301.891	17.902	863.534	657.817
302.906	18.027	863.100	657.907
303.920	18.141	862.449	657.791
304.935	18.193	861.478	657.193
305.949	18.069	861.576	656.734
306.964	18.247	860.665	656.664
307.979	18.102	860.126	655.637
308.993	18.090	859.237	654.858
310.008	18.177	858.945	654.908
311.022	18.165	858.392	654.384
312.037	18.198	857.978	654.136
313.052	18.067	857.189	652.976
314.066	18.074	856.402	652.348
315.081	17.910	855.869	651.258
316.095	17.958	855.592	651.172
317.110	18.089	855.222	651.333
318.125	18.012	854.341	650.310
319.139	18.114	853.784	650.217
320.154	18.021	853.496	649.588
321.168	18.034	853.352	649.468
322.183	18.101	852.579	649.076
323.197	17.954	852.019	648.037
324.212	18.082	851.506	648.075
325.227	18.138	850.499	647.463
326.241	18.118	850.008	646.955
327.256	18.174	849.123	646.437
328.270	18.070	849.094	645.962
329.285	18.149	848.043	645.404
330.300	18.060	847.887	644.893
331.314	18.134	847.532	644.847
332.329	18.133	846.641	644.108
333.343	18.404	845.716	644.367
334.358	18.409	845.103	643.862
335.373	18.438	844.817	643.694
336.387	18.333	844.442	642.958
337.402	18.473	843.845	642.972
338.416	18.298	843.751	642.184
339.431	18.497	842.682	642.062
340.446	18.510	842.678	642.050
341.460	18.632	841.851	641.817
342.475	18.627	841.369	641.376
343.489	18.722	840.794	641.235
344.504	18.846	839.943	640.994
345.519	18.652	839.979	640.241
346.533	18.956	839.269	640.774
347.548	18.888	838.578	639.936
348.562	18.718	838.253	638.999
349.577	18.647	837.194	637.871
350.592	18.663	836.620	637.437
351.606	18.503	836.280	636.529
352.621	18.505	835.931	636.215
353.635	18.422	836.062	635.950
354.650	18.532	835.048	635.531
355.665	18.622	834.734	635.567
356.679	18.665	834.407	635.423
357.694	18.711	833.604	634.923
358.708	18.792	832.617	634.417
359.723	18.776	832.204	633.985
360.738	18.750	831.833	633.551
361.752	18.814	831.408	633.407
362.767	18.830	830.778	632.931
363.781	18.996	830.410	633.207
364.796	19.011	830.332	633.143
365.810	18.968	829.894	632.598
366.825	19.141	829.225	632.665
367.840	18.963	829.244	631.969
368.854	19.142	828.659	632.127
369.869	19.162	828.015	631.653
370.883	18.840	827.999	630.402
371.898	18.914	827.252	630.050
372.913	19.079	826.269	629.849
373.927	19.119	825.723	629.526
374.942	19.070	825.014	628.748
375.956	19.060	824.795	628.492
376.971	19.198	823.909	628.260
377.986	19.278	823.282	628.019
379.000	19.322	822.829	627.779
380.015	19.397	822.712	627.905
381.029	19.223	822.199	626.828
382.044	19.177	821.617	626.161
383.059	19.333	821.078	626.262
384.073	19.415	820.350	625.947
385.088	19.285	819.803	625.004
386.102	19.077	819.337	623.839
387.117	19.152	818.310	623.273
388.132	18.969	817.991	622.315
389.146	19.101	817.753	622.553
390.161	19.208	817.361	622.589
391.175	19.208	816.974	622.237
392.190	19.431	816.350	622.512
393.205	19.314	816.100	621.845
394.219	19.269	815.430	621.116
395.234	19.246	815.036	620.680
396.248	19.304	813.958	620.012
397.263	19.042	813.656	618.785
398.278	19.093	813.167	618.543
399.292	19.200	812.912	618.678
400.307	19.015	812.585	617.710
401.321	19.101	811.901	617.443
402.336	19.054	811.913	617.231
403.350	19.101	811.439	616.985
404.365	19.259	811.057	617.203
405.380	19.284	810.618	616.906
406.394	19.522	809.959	617.200
407.409	19.559	809.407	616.857
408.423	19.510	809.163	616.440
409.438	19.713	808.495	616.602
410.453	19.671	808.172	616.150
411.467	19.824	807.833	616.383
412.482	19.787	807.268	615.766
413.496	19.758	807.332	615.658
414.511	19.883	806.574	615.468
415.526	19.765	806.522	614.955
416.540	19.843	806.109	614.864
417.555	19.715	805.915	614.207
418.569	19.743	804.915	613.488
419.584	19.929	804.183	613.536
420.599	19.707	803.995	612.553
421.613	156.100	1371.011	1789.426
422.628	135.470	1453.642	1789.551
