DTS Sentinel unit serial number:	SN413079Multiplexer serial number:	ORYXHardware model number:	OX4-SRSoftware version number:	ORYX F/W v4.00 Oryx Data Collector v3.7.2.0data status	okinstallation	princeton_trtdifferential loss correction	single-endedforward channel	channel 3reverse channel	N/Adate	2019/09/17time	04:28:35forward acquisition time	60.00reverse acquisition time	0.00gamma	496.2192k internal	0.2324k external	0.2324temperature offset calibration	0.9946default loss term (dB/km)	0.3790temperature slope calibration	1.0000multiplexer offset coefficient	1.0000multiplexer slope coefficient	1.0000fibre end	0.00T internal ref (°C)	29.72T ext. ref 1 (°C)	0.14T ext. ref 2 (°C)	24.17length (m)	temperature (°C)	Stokes	anti-Stokes-747.200	-17.737	-0.112	0.071
-746.185	-128.568	-0.178	0.025
-745.171	120.303	-0.126	0.158
-744.156	-74.817	0.175	-0.064
-743.142	16.614	-0.171	0.137
-742.127	-24.646	-0.323	0.194
-741.112	-105.505	0.232	0.053
-740.098	-74.025	-0.177	0.065
-739.083	-48.664	0.415	-0.201
-738.069	19.244	-0.218	0.177
-737.054	161.707	0.096	-0.136
-736.039	-11.802	0.325	-0.215
-735.025	-0.129	0.089	-0.064
-734.010	-77.888	-0.287	0.100
-732.996	-200.000	0.021	-0.174
-731.981	-200.000	0.022	0.124
-730.966	-52.297	-0.349	0.163
-729.952	-77.390	-0.446	-0.156
-728.937	-24.686	0.077	-0.046
-727.923	629.592	-0.047	0.120
-726.908	-200.000	-0.032	-0.444
-725.894	51.844	0.161	-0.154
-724.879	787.737	-0.070	0.194
-723.864	398.733	-0.093	0.196
-722.850	300.866	0.065	-0.122
-721.835	-55.922	0.329	-0.148
-720.821	-121.446	-0.198	0.033
-719.806	-15.111	0.228	0.148
-718.791	-200.000	0.040	-0.206
-717.777	369.819	0.220	-0.449
-716.762	-200.000	-0.001	0.118
-715.748	-95.636	-0.346	0.093
-714.733	-25.248	-0.370	-0.221
-713.718	-44.167	-0.151	-0.076
-712.704	66.266	0.403	-0.412
-711.689	800.000	-0.045	0.147
-710.675	-200.000	0.016	-0.449
-709.660	-133.509	-0.258	-0.033
-708.645	-133.379	0.216	-0.027
-707.631	730.420	0.107	0.288
-706.616	-163.701	0.242	0.011
-705.602	-147.456	0.469	0.040
-704.587	800.000	-0.099	0.383
-703.572	438.185	0.031	-0.069
-702.558	-200.000	0.008	0.109
-701.543	-126.367	0.488	-0.073
-700.529	-145.107	-0.282	0.026
-699.514	12.401	-0.150	0.117
-698.499	191.817	0.128	-0.195
-697.485	-183.342	-0.121	0.002
-696.470	-200.000	0.027	0.275
-695.456	-143.636	0.193	0.018
-694.441	-9.597	-0.044	-0.030
-693.426	-61.859	0.071	0.030
-692.412	-14.099	-0.282	0.183
-691.397	-200.000	0.006	0.187
-690.383	-158.637	0.316	0.018
-689.368	800.000	-0.026	0.095
-688.354	184.038	-0.196	-0.292
-687.339	550.629	-0.075	0.181
-686.324	-200.000	0.000	0.134
-685.310	552.548	0.049	-0.118
-684.295	176.084	-0.092	-0.135
-683.281	-200.000	0.007	-0.460
-682.266	-200.000	-0.004	-0.227
-681.251	13.379	0.175	0.137
-680.237	229.811	-0.144	-0.236
-679.222	-94.173	0.084	0.023
-678.208	3.610	0.236	-0.173
-677.193	96.590	-0.076	-0.088
-676.178	-60.921	-0.492	-0.209
-675.164	57.147	-0.195	-0.192
-674.149	-200.000	0.025	-0.135
-673.135	791.197	-0.078	0.216
-672.120	-200.000	0.048	-0.249
-671.105	28.816	-0.151	-0.129
-670.091	-19.207	0.240	-0.150
-669.076	-6.761	-0.193	-0.132
-668.062	800.000	-0.060	-0.250
-667.047	-45.305	-0.306	0.153
-666.032	18.714	0.246	-0.198
-665.018	800.000	-0.017	-0.048
-664.003	-20.499	0.297	-0.184
-662.989	463.861	-0.086	-0.193
-661.974	-200.000	-0.023	0.293
-660.959	199.316	0.063	-0.096
-659.945	800.000	0.033	0.105
-658.930	-107.117	-0.342	-0.076
-657.916	13.241	0.267	-0.208
-656.901	457.811	0.077	0.172
-655.886	-200.000	-0.007	-0.207
-654.872	444.364	0.111	-0.244
-653.857	800.000	0.037	-0.139
-652.843	-200.000	0.002	0.099
-651.828	-67.033	-0.107	0.042
-650.814	-136.922	0.403	-0.047
-649.799	-131.629	-0.100	0.013
-648.784	23.698	0.099	0.082
-647.770	800.000	-0.043	-0.173
-646.755	134.027	-0.030	0.040
-645.741	-108.219	0.133	-0.029
-644.726	-156.723	0.233	-0.014
-643.711	80.237	-0.144	0.156
-642.697	32.280	-0.113	-0.098
-641.682	-122.122	-0.083	-0.014
-640.668	73.995	-0.211	0.222
-639.653	-200.000	-0.027	-0.206
-638.638	-103.724	-0.219	-0.052
-637.624	299.820	-0.180	-0.333
-636.609	27.413	0.025	-0.021
-635.595	220.834	-0.032	-0.051
-634.580	374.117	-0.083	0.170
-633.565	78.226	0.149	0.160
-632.551	-18.925	0.103	0.064
-631.536	-148.627	-0.464	-0.038
-630.522	-200.000	0.067	-0.294
-629.507	99.784	-0.120	-0.139
-628.492	-178.333	-0.141	0.003
-627.478	51.980	0.123	0.118
-626.463	800.000	0.047	0.143
-625.449	-16.985	-0.188	0.120
-624.434	-133.867	-0.257	0.032
-623.419	-102.222	-0.240	-0.058
-622.405	800.000	-0.027	-0.110
-621.390	-92.401	0.314	-0.089
-620.376	-200.000	-0.021	0.178
-619.361	103.048	0.138	-0.162
-618.346	-0.536	0.200	-0.142
-617.332	-100.420	0.305	-0.076
-616.317	-58.846	0.115	-0.050
-615.303	-56.047	-0.283	-0.127
-614.288	-115.916	0.271	0.051
-613.273	15.834	-0.201	-0.159
-612.259	-132.779	0.372	-0.048
-611.244	-3.838	0.106	0.074
-610.230	-200.000	-0.008	-0.298
-609.215	800.000	-0.153	0.487
-608.201	-200.000	-0.027	0.403
-607.186	-34.222	-0.280	0.154
-606.171	800.000	-0.061	0.173
-605.157	-200.000	0.022	-0.423
-604.142	12.151	-0.360	-0.278
-603.128	800.000	-0.175	0.577
-602.113	-94.804	0.332	0.090
-601.098	44.819	-0.133	-0.123
-600.084	383.907	0.136	0.282
-599.069	-200.000	-0.005	-0.216
-598.055	117.622	-0.245	-0.303
-597.040	800.000	0.071	-0.212
-596.025	324.069	0.110	0.211
-595.011	-23.802	-0.125	0.075
-593.996	149.141	-0.102	0.139
-592.982	-20.030	0.228	0.141
-591.967	-112.623	-0.380	-0.076
-590.952	800.000	0.098	-0.287
-589.938	-200.000	0.005	-0.146
-588.923	-52.598	-0.101	0.047
-587.909	662.167	-0.049	0.126
-586.894	113.636	-0.023	-0.029
-585.879	750.248	-0.061	0.166
-584.865	-200.000	0.069	-0.402
-583.850	800.000	0.049	0.155
-582.836	272.472	-0.083	0.147
-581.821	800.000	0.042	0.146
-580.806	-143.630	0.178	-0.017
-579.792	-88.099	-0.191	0.057
-578.777	-200.000	0.072	0.499
-577.763	-200.000	-0.047	0.362
-576.748	-65.615	-0.201	-0.081
-575.733	-200.000	0.027	-0.252
-574.719	1.758	-0.269	-0.195
-573.704	180.297	0.182	-0.268
-572.690	-184.234	-0.157	0.003
-571.675	297.765	-0.073	-0.135
-570.661	-200.000	-0.021	0.142
-569.646	-190.111	0.102	-0.001
-568.631	595.071	0.083	-0.206
-567.617	38.288	-0.177	-0.158
-566.602	662.341	-0.183	-0.474
-565.588	-105.925	0.103	0.023
-564.573	186.831	0.038	-0.057
-563.558	44.218	-0.099	-0.091
-562.544	355.071	-0.103	-0.205
-561.529	603.320	0.107	0.267
-560.515	-4.368	0.049	0.034
-559.500	110.871	0.092	0.111
-558.485	-81.932	0.121	0.040
-557.471	800.000	0.093	-0.277
-556.456	-200.000	0.021	0.100
-555.442	-133.712	-0.171	0.021
-554.427	25.460	0.096	-0.080
-553.412	-200.000	-0.027	0.139
-552.398	-136.091	-0.074	0.009
-551.383	-162.919	-0.385	0.019
-550.369	109.960	-0.095	0.114
-549.354	-94.129	0.224	-0.062
-548.339	305.053	0.072	-0.134
-547.325	-200.000	-0.050	-0.295
-546.310	800.000	0.024	-0.070
-545.296	50.203	-0.216	-0.204
-544.281	-87.432	0.166	0.050
-543.266	800.000	-0.078	-0.336
-542.252	-72.789	-0.077	-0.029
-541.237	-164.643	0.143	-0.006
-540.223	-45.563	0.237	0.118
-539.208	-200.000	-0.056	-0.282
-538.193	473.657	-0.105	-0.237
-537.179	-200.000	0.040	0.193
-536.164	399.755	-0.131	-0.276
-535.150	52.811	0.120	0.115
-534.135	-104.833	-0.207	-0.048
-533.121	159.684	0.164	-0.229
-532.106	-200.000	-0.040	0.447
-531.091	-55.799	-0.204	0.091
-530.077	800.000	0.191	-0.604
-529.062	472.258	0.215	-0.485
-528.048	-200.000	-0.012	0.147
-527.033	-52.837	0.118	-0.054
-526.018	243.857	0.181	0.305
-525.004	489.094	-0.102	0.232
-523.989	362.351	0.006	0.012
-522.975	-136.435	0.234	-0.027
-521.960	-135.823	-0.613	0.072
-520.945	63.764	0.205	0.206
-519.931	255.875	0.156	0.268
-518.916	-35.333	0.060	-0.032
-517.902	34.799	-0.237	-0.208
-516.887	-119.547	-0.291	-0.051
-515.872	-18.182	-0.242	-0.152
-514.858	-92.722	-0.237	-0.067
-513.843	31.661	-0.048	0.042
-512.829	-22.703	0.299	0.181
-511.814	-138.873	-0.156	0.017
-510.799	-112.550	-0.169	-0.034
-509.785	436.741	0.172	0.375
-508.770	-136.601	0.107	0.012
-507.756	156.771	-0.077	0.107
-506.741	233.205	0.130	-0.214
-505.726	-200.000	-0.044	-0.235
-504.712	-200.000	-0.139	0.000
-503.697	30.550	0.260	0.222
-502.683	366.001	0.099	0.199
-501.668	364.381	-0.181	0.363
-500.653	-76.492	0.230	-0.081
-499.639	156.205	-0.187	0.259
-498.624	-200.000	0.007	0.355
-497.610	-177.171	-0.265	-0.007
-496.595	47.754	0.105	-0.098
-495.581	-200.000	-0.010	0.247
-494.566	-200.000	-0.028	-0.350
-493.551	-93.072	0.292	0.081
-492.537	589.141	-0.072	0.178
-491.522	43.251	-0.093	0.084
-490.508	-5.201	-0.085	0.058
-489.493	-200.000	0.001	-0.231
-488.478	-21.750	-0.249	0.152
-487.464	-130.276	-0.229	-0.031
-486.449	11.887	0.168	-0.129
-485.435	-47.272	0.202	-0.099
-484.420	393.253	-0.148	-0.307
-483.405	-90.754	-0.302	0.087
-482.391	92.923	0.331	0.373
-481.376	-104.695	0.194	0.045
-480.362	-23.659	0.105	-0.063
-479.347	168.218	0.050	-0.071
-478.332	-135.725	0.176	-0.021
-477.318	-121.757	0.035	-0.006
-476.303	-200.000	-0.007	-0.044
-475.289	138.453	0.187	0.245
-474.274	-192.856	0.453	-0.004
-473.259	800.000	0.012	0.043
-472.245	-200.000	-0.019	0.110
-471.230	-200.000	-0.022	-0.240
-470.216	-48.711	-0.171	-0.082
-469.201	-28.001	-0.148	0.086
-468.186	231.386	-0.077	-0.127
-467.172	477.500	0.060	-0.135
-466.157	-200.000	-0.031	0.163
-465.143	-200.000	-0.005	0.051
-464.128	329.248	0.085	-0.163
-463.113	-126.238	-0.123	-0.018
-462.099	49.272	-0.101	-0.095
-461.084	800.000	0.033	0.109
-460.070	800.000	0.086	-0.274
-459.055	-200.000	-0.011	0.066
-458.040	-200.000	-0.105	-0.583
-457.026	-183.328	-0.021	-0.000
-456.011	-200.000	-0.068	-0.417
-454.997	800.000	0.041	0.148
-453.982	25.390	0.100	0.083
-452.968	151.812	0.082	0.112
-451.953	-16.619	0.091	0.057
-450.938	-114.059	-0.254	-0.049
-449.924	232.647	0.089	0.147
-448.909	18.827	-0.281	0.225
-447.895	-200.000	-0.011	0.332
-446.880	800.000	-0.035	0.100
-445.865	-44.719	-0.188	-0.094
-444.851	-140.310	-0.200	0.021
-443.836	425.581	0.140	-0.301
-442.822	147.803	0.162	0.218
-441.807	-105.960	0.271	0.061
-440.792	-173.945	-0.234	-0.007
-439.778	338.553	0.123	-0.239
-438.763	-81.637	-0.098	0.032
-437.749	383.636	0.030	0.061
-436.734	28.404	0.288	0.243
-435.719	76.251	-0.132	0.140
-434.705	-4.272	0.147	0.102
-433.690	800.000	-0.047	-0.141
-432.676	800.000	-0.109	0.303
-431.661	800.000	0.078	-0.230
-430.646	4.678	0.195	0.143
-429.632	800.000	-0.040	-0.161
-428.617	-54.870	0.345	-0.155
-427.603	-200.000	-0.005	0.163
-426.588	30.964	0.140	0.120
-425.573	313.536	-0.039	-0.073
-424.559	-69.717	0.018	0.007
-423.544	59.479	0.245	0.241
-422.530	800.000	-0.066	0.210
-421.515	800.000	-0.108	0.462
-420.500	-200.000	-0.010	0.070
-419.486	44.726	0.329	-0.301
-418.471	-116.873	-0.177	0.032
-417.457	138.500	-0.085	0.111
-416.442	800.000	0.025	0.095
-415.428	-104.336	-0.106	-0.025
-414.413	800.000	0.083	-0.240
-413.398	-58.639	0.233	-0.101
-412.384	70.758	-0.134	0.138
-411.369	-21.619	-0.134	-0.082
-410.355	65.993	-0.036	0.036
-409.340	-161.127	0.264	-0.014
-408.325	238.888	0.083	-0.138
-407.311	800.000	-0.054	0.166
-406.296	720.240	-0.082	-0.216
-405.282	330.952	-0.098	0.189
-404.267	137.702	0.106	0.139
-403.252	-103.152	-0.317	-0.075
-402.238	-126.395	0.154	0.023
-401.223	800.000	-0.116	0.370
-400.209	-200.000	0.022	0.135
-399.194	127.265	0.055	-0.070
-398.179	-172.975	-0.257	-0.008
-397.165	79.173	0.086	-0.092
-396.150	-200.000	-0.025	0.318
-395.136	-64.609	0.224	-0.090
-394.121	112.915	0.165	-0.199
-393.106	-30.075	0.379	0.214
-392.092	-200.000	-0.062	0.298
-391.077	136.888	0.113	-0.147
-390.063	-200.000	0.053	-0.299
-389.048	-189.848	-0.083	0.001
-388.033	-200.000	-0.035	0.161
-387.019	-92.701	0.138	0.038
-386.004	54.090	-0.120	-0.115
-384.990	62.006	0.081	-0.080
-383.975	-114.854	0.106	0.020
-382.960	84.058	-0.253	0.275
-381.946	-87.495	0.253	-0.076
-380.931	800.000	0.009	-0.027
-379.917	696.993	0.074	-0.193
-378.902	34.048	-0.239	0.207
-377.888	-62.359	-0.099	-0.041
-376.873	4.693	0.106	0.077
-375.858	-120.201	0.140	0.024
-374.844	39.682	0.106	-0.095
-373.829	-108.977	0.212	0.045
-372.815	501.966	-0.130	-0.298
-371.800	-200.000	-0.008	-0.148
-370.785	159.168	-0.100	0.138
-369.771	125.574	0.123	-0.155
-368.756	9.894	-0.120	0.091
-367.742	338.003	-0.164	-0.317
-366.727	-200.000	0.051	0.403
-365.712	-54.599	-0.270	-0.122
-364.698	348.448	-0.109	0.214
-363.683	112.921	-0.199	0.240
-362.669	59.048	0.250	-0.244
-361.654	-200.000	-0.027	0.257
-360.639	-14.495	-0.196	0.126
-359.625	-120.891	0.056	-0.009
-358.610	-20.106	0.219	0.134
-357.596	160.518	-0.185	-0.257
-356.581	-33.837	0.015	0.008
-355.566	-87.431	0.114	0.034
-354.552	-146.788	-0.196	-0.017
-353.537	800.000	0.058	-0.229
-352.523	-125.078	-0.030	0.005
-351.508	160.306	0.126	-0.175
-350.493	-133.321	-0.273	-0.034
-349.479	216.273	0.079	-0.125
-348.464	800.000	-0.049	0.154
-347.450	-10.587	0.061	0.040
-346.435	-100.470	0.221	0.054
-345.420	-200.000	0.018	-0.140
-344.406	-200.000	-0.032	0.161
-343.391	-95.878	-0.126	0.033
-342.377	800.000	-0.044	-0.166
-341.362	-99.291	0.343	-0.086
-340.348	558.168	-0.091	0.218
-339.333	-156.612	-0.194	0.012
-338.318	-2.363	-0.291	-0.203
-337.304	161.190	0.141	-0.196
-336.289	385.821	0.262	-0.538
-335.275	208.289	0.103	-0.160
-334.260	-141.122	0.116	-0.012
-333.245	-48.784	-0.035	-0.017
-332.231	125.115	-0.105	0.132
-331.216	-157.001	0.096	-0.006
-330.202	-200.000	0.049	0.241
-329.187	84.419	-0.107	-0.116
-328.172	-142.856	-0.139	-0.013
-327.158	107.969	0.096	0.114
-326.143	800.000	-0.037	0.139
-325.129	65.947	-0.155	0.156
-324.114	-83.629	-0.078	-0.025
-323.099	200.922	-0.078	0.120
-322.085	-200.000	-0.044	-0.217
-321.070	-35.386	0.186	-0.100
-320.056	-200.000	0.006	0.074
-319.041	241.890	0.015	-0.025
-318.026	0.800	0.142	0.101
-317.012	800.000	0.028	-0.115
-315.997	583.905	-0.075	0.182
-314.983	-138.523	0.339	-0.037
-313.968	800.000	0.009	0.038
-312.953	-200.000	0.044	-0.444
-311.939	153.692	0.109	-0.148
-310.924	373.694	0.033	0.067
-309.910	-200.000	0.019	0.401
-308.895	-187.994	-0.249	-0.003
-307.880	-87.600	-0.154	0.046
-306.866	-76.047	0.157	-0.055
-305.851	272.104	0.145	-0.254
-304.837	-10.824	-0.088	0.058
-303.822	-200.000	-0.011	0.188
-302.807	-200.000	-0.019	0.170
-301.793	108.835	-0.095	-0.113
-300.778	280.598	-0.093	-0.165
-299.764	-134.574	-0.358	0.043
-298.749	-80.097	0.044	-0.015
-297.735	-200.000	-0.019	0.229
-296.720	130.586	-0.171	0.218
-295.705	-17.919	0.034	0.021
-294.691	-25.613	-0.179	0.105
-293.676	118.982	0.149	0.183
-292.662	105.963	-0.087	0.102
-291.647	-49.216	0.280	0.132
-290.632	-146.711	-0.091	0.008
-289.618	54.126	0.128	0.122
-288.603	800.000	0.083	-0.246
-287.589	-51.525	-0.358	0.166
-286.574	255.566	-0.089	-0.151
-285.559	-109.455	0.116	0.024
-284.545	105.610	0.118	0.139
-283.530	77.386	-0.155	0.163
-282.516	135.430	0.167	-0.215
-281.501	358.598	-0.177	0.350
-280.486	170.383	-0.024	0.033
-279.472	-26.659	-0.192	-0.112
-278.457	-200.000	0.008	0.193
-277.443	-200.000	-0.001	-0.008
-276.428	-4.513	-0.091	0.063
-275.413	663.711	0.040	0.101
-274.399	16.287	0.291	-0.228
-273.384	-36.175	0.096	-0.052
-272.370	236.168	-0.045	-0.074
-271.355	100.594	0.100	-0.115
-270.340	800.000	-0.028	0.115
-269.326	-46.725	-0.324	0.157
-268.311	384.633	-0.105	0.213
-267.297	800.000	0.120	-0.466
-266.282	-62.623	-0.037	0.015
-265.267	800.000	-0.016	-0.046
-264.253	-97.507	0.204	0.053
-263.238	39.247	-0.214	-0.190
-262.224	-153.714	0.060	0.004
-261.209	225.138	-0.083	0.133
-260.195	-17.943	-0.046	-0.029
-259.180	295.547	-0.164	-0.297
-258.165	165.975	0.196	-0.275
-257.151	9.177	0.142	-0.106
-256.136	800.000	0.067	0.257
-255.122	-112.470	0.179	0.035
-254.107	-0.342	0.155	0.109
-253.092	-47.877	-0.217	-0.104
-252.078	391.656	0.063	0.130
-251.063	-200.000	-0.011	0.111
-250.049	-131.730	0.198	0.026
-249.034	103.864	-0.127	-0.148
-248.019	289.497	0.118	-0.213
-247.005	-200.000	-0.023	-0.331
-245.990	-200.000	0.037	-0.250
-244.976	359.740	0.109	0.216
-243.961	-40.174	0.119	0.061
-242.946	-97.242	-0.243	-0.063
-241.932	-195.914	0.159	0.001
-240.917	-74.872	0.180	-0.064
-239.903	96.316	0.086	0.097
-238.888	-61.071	0.398	-0.166
-237.873	-78.159	0.296	-0.101
-236.859	340.092	0.165	-0.319
-235.844	274.460	-0.091	0.159
-234.830	-90.034	-0.355	0.102
-233.815	150.269	0.160	-0.215
-232.800	686.978	-0.066	0.171
-231.786	436.429	0.196	-0.422
-230.771	122.794	0.150	0.185
-229.757	776.521	-0.047	0.128
-228.742	-165.503	0.290	0.013
-227.727	-80.990	-0.155	-0.051
-226.713	-57.469	0.134	-0.058
-225.698	-40.950	-0.026	-0.013
-224.684	25.906	0.298	-0.246
-223.669	18.366	0.350	0.277
-222.655	24.104	0.337	0.275
-221.640	160.438	0.056	0.078
-220.625	-200.000	0.023	0.180
-219.611	-200.000	0.006	-0.182
-218.596	-65.455	-0.159	0.063
-217.582	-134.494	-0.296	0.036
-216.567	90.627	-0.057	-0.063
-215.552	-75.314	0.238	0.084
-214.538	-77.693	-0.094	-0.032
-213.523	30.256	0.135	0.114
-212.509	149.935	0.234	-0.314
-211.494	110.288	-0.058	-0.069
-210.479	-145.156	-0.215	0.019
-209.465	-49.488	0.502	-0.236
-208.450	-63.412	0.250	-0.102
-207.436	383.548	-0.122	-0.249
-206.421	18.206	-0.171	0.135
-205.406	51.717	-0.217	-0.204
-204.392	800.000	-0.062	0.240
-203.377	-180.475	-0.127	0.003
-202.363	10.551	-0.069	-0.052
-201.348	-200.000	-0.013	-0.075
-200.333	797.030	-0.013	-0.036
-199.319	-200.000	0.026	-0.237
-198.304	-6.641	0.076	-0.051
-197.290	29.731	-0.153	0.129
-196.275	-200.000	-0.011	-0.201
-195.260	800.000	0.100	0.413
-194.246	-97.814	-0.306	0.078
-193.231	-103.016	0.314	-0.074
-192.217	213.562	-0.037	0.058
-191.202	19.060	0.027	-0.021
-190.187	341.558	0.063	0.122
-189.173	-79.220	-0.249	0.084
-188.158	-163.555	-0.075	-0.004
-187.144	-127.911	0.401	-0.057
-186.129	99.511	-0.196	0.224
-185.114	-200.000	0.035	0.212
-184.100	-70.755	0.100	0.037
-183.085	26.276	-0.180	-0.149
-182.071	-135.191	0.071	-0.008
-181.056	-123.145	-0.131	-0.021
-180.042	149.597	0.052	-0.069
-179.027	-141.299	0.100	-0.010
-178.012	30.973	-0.302	-0.255
-176.998	-53.845	-0.221	0.099
-175.983	585.207	-0.095	0.230
-174.969	-126.889	0.161	0.023
-173.954	-200.000	0.023	0.124
-172.939	-81.164	-0.268	0.088
-171.925	-200.000	0.003	-0.224
-170.910	-200.000	-0.003	0.068
-169.896	-29.284	0.390	-0.220
-168.881	180.848	-0.187	0.272
-167.866	80.609	-0.203	0.216
-166.852	71.551	0.215	0.220
-165.837	619.078	-0.054	-0.134
-164.823	77.384	0.117	0.123
-163.808	-200.000	0.015	0.196
-162.793	-200.000	0.003	-0.153
-161.779	-147.919	-0.194	0.016
-160.764	13.392	0.067	-0.052
-159.750	-188.687	-0.126	0.002
-158.735	-131.612	-0.278	-0.036
-157.720	629.553	-0.051	0.126
-156.706	-163.074	0.238	0.011
-155.691	-200.000	0.006	-0.284
-154.677	-105.350	0.270	0.061
-153.662	170.053	-0.109	0.154
-152.647	-7.182	-0.241	0.161
-151.633	-200.000	-0.038	-0.315
-150.618	-200.000	0.024	0.162
-149.604	48.161	-0.107	0.099
-148.589	713.573	0.197	0.516
-147.574	282.243	0.187	0.330
-146.560	10.025	0.158	-0.118
-145.545	44.413	-0.311	-0.281
-144.531	317.537	-0.059	0.110
-143.516	-85.107	-0.163	0.050
-142.502	-126.710	0.068	0.010
-141.487	-84.708	-0.222	-0.069
-140.472	-200.000	0.023	0.201
-139.458	-13.005	-0.272	0.175
-138.443	-200.000	0.011	-0.091
-137.429	8.184	0.151	0.112
-136.414	800.000	-0.080	0.251
-135.399	-85.803	-0.460	0.141
-134.385	-89.505	0.088	0.025
-133.370	-200.000	0.013	0.065
-132.356	-39.035	0.115	0.060
-131.341	-2.984	-0.091	-0.063
-130.326	359.845	-0.071	-0.139
-129.312	-122.304	-0.183	0.029
-128.297	-200.000	0.006	0.122
-127.283	-7.118	-0.331	-0.221
-126.268	210.743	0.053	0.082
-125.253	800.000	-0.010	0.034
-124.239	800.000	0.027	0.087
-123.224	800.000	-0.137	-0.491
-122.210	113.290	0.059	0.070
-121.195	312.568	-0.092	0.171
-120.180	-30.898	0.072	-0.040
-119.166	-157.159	0.155	-0.009
-118.151	-177.478	-0.034	0.001
-117.137	-108.421	0.062	0.013
-116.122	-76.262	0.108	-0.038
-115.107	439.052	-0.084	-0.181
-114.093	-200.000	-0.036	-0.228
-113.078	15.583	0.135	0.104
-112.064	-200.000	-0.004	0.245
-111.049	-170.086	0.236	-0.008
-110.034	-155.342	0.351	0.022
-109.020	78.245	0.167	-0.176
-108.005	-105.932	0.137	0.030
-106.991	-36.853	-0.385	0.204
-105.976	-200.000	-0.007	-0.646
-104.962	-200.000	0.010	-0.410
-103.947	139.234	-0.256	-0.331
-102.932	442.088	0.103	0.221
-101.918	800.000	-0.069	0.268
-100.903	-176.326	0.172	-0.004
-99.889	-22.995	0.025	0.015
-98.874	6.810	0.184	-0.135
-97.859	-47.495	-0.144	0.069
-96.845	2.334	0.458	-0.326
-95.830	10.407	0.245	-0.184
-94.816	58.562	-0.329	0.318
-93.801	-128.707	0.467	-0.065
-92.786	-78.470	-0.207	0.070
-91.772	-200.000	0.005	-0.151
-90.757	249.188	-0.101	-0.169
-89.743	-147.570	0.242	-0.020
-88.728	-200.000	-0.016	-0.086
-87.713	600.883	-0.092	0.224
-86.699	59.464	0.133	-0.129
-85.684	115.749	-0.118	0.143
-84.670	155.421	0.256	-0.346
-83.655	-200.000	-0.013	0.139
-82.640	75.835	-0.117	-0.121
-81.626	172.951	-0.067	-0.095
-80.611	-125.177	-0.209	-0.032
-79.597	-36.220	-0.150	0.079
-78.582	-47.974	0.400	-0.190
-77.567	-200.000	0.016	0.185
-76.553	391.124	-0.177	0.361
-75.538	218.500	0.108	-0.169
-74.524	800.000	-0.054	-0.189
-73.509	-200.000	0.060	-0.259
-72.494	14.248	-0.239	0.183
-71.480	350.026	0.098	0.191
-70.465	-200.000	-0.006	0.055
-69.451	-33.793	-0.380	-0.206
-68.436	720.588	-0.102	-0.266
-67.422	-2.696	0.321	0.221
-66.407	-200.000	-0.010	0.164
-65.392	13.267	-0.107	-0.082
-64.378	-98.424	-0.188	-0.047
-63.363	-68.235	0.474	-0.181
-62.349	-200.000	0.012	-0.134
-61.334	29.493	-1.298	-1.085
-60.319	7.144	0.399	0.293
-59.305	800.000	-0.247	-1.047
-58.290	800.000	0.498	1.383
-57.276	242.614	0.847	1.394
-56.261	-200.000	108.052	588.790
-55.246	447.579	1475.368	3191.349
-54.232	147.312	2658.909	3517.438
-53.217	105.275	2181.698	2531.421
-52.203	39.912	1712.008	1510.635
-51.188	32.899	1525.351	1297.874
-50.173	30.434	1499.311	1258.984
-49.159	50.918	1553.833	1446.718
-48.144	51.330	1570.771	1465.280
-47.130	33.006	1527.213	1299.990
-46.115	30.032	1512.087	1266.762
-45.100	29.870	1508.509	1262.605
-44.086	29.909	1506.428	1261.077
-43.071	29.664	1505.038	1258.196
-42.057	29.709	1502.952	1256.712
-41.042	29.780	1501.768	1256.155
-40.027	29.723	1500.329	1254.513
-39.013	29.676	1498.570	1252.676
-37.998	29.734	1497.112	1251.799
-36.984	29.640	1496.358	1250.484
-35.969	29.788	1494.478	1249.859
-34.954	29.678	1493.525	1248.273
-33.940	29.661	1492.357	1247.130
-32.925	29.663	1490.837	1245.823
-31.911	29.688	1489.769	1245.053
-30.896	29.735	1488.329	1244.114
-29.881	29.878	1487.066	1243.968
-28.867	29.858	1485.503	1242.478
-27.852	29.813	1484.355	1241.170
-26.838	29.876	1483.012	1240.417
-25.823	29.694	1481.992	1238.295
-24.809	29.782	1479.628	1236.863
-23.794	29.687	1479.106	1235.740
-22.779	29.782	1477.009	1234.575
-21.765	29.774	1476.247	1233.834
-20.750	29.718	1475.286	1232.607
-19.736	29.833	1473.484	1231.821
-18.721	29.706	1472.927	1230.463
-17.706	29.765	1471.556	1229.661
-16.692	29.724	1470.562	1228.506
-15.677	29.560	1470.406	1227.236
-14.663	29.734	1468.413	1226.681
-13.648	29.650	1467.903	1225.647
-12.633	29.698	1466.963	1225.133
-11.619	29.758	1465.794	1224.505
-10.604	29.651	1464.862	1222.972
-9.590	29.741	1463.566	1222.436
-8.575	29.687	1463.701	1222.140
-7.560	29.731	1462.507	1221.389
-6.546	29.677	1461.818	1220.405
-5.531	29.629	1460.771	1219.167
-4.517	29.667	1459.355	1218.189
-3.502	29.714	1458.324	1217.591
-2.487	29.627	1457.616	1216.374
-1.473	29.676	1456.552	1215.765
-0.458	29.618	1455.373	1214.347
0.556	28.006	1445.012	1203.440
1.571	24.887	1419.454	1161.846
2.586	21.338	1357.956	1089.332
3.600	19.700	1274.719	1012.877
4.615	18.640	1229.820	971.122
5.629	16.157	1173.524	913.158
6.644	8.148	1088.611	806.639
7.659	1.361	1048.311	743.563
8.673	0.419	1042.290	734.642
9.688	0.166	1039.425	731.326
10.702	-0.045	1038.094	729.302
11.717	0.010	1035.811	727.900
12.731	2.722	1038.290	742.720
13.746	10.881	1049.489	790.472
14.761	16.901	1056.892	825.369
15.775	17.538	1056.256	827.899
16.790	16.574	1054.541	821.801
17.804	15.469	1051.960	814.358
18.819	14.567	1050.310	808.642
19.834	14.150	1049.437	805.877
20.848	13.943	1047.720	803.484
21.863	13.650	1047.280	801.660
22.877	13.369	1046.535	799.662
23.892	13.185	1045.281	797.744
24.907	13.148	1044.775	797.107
25.921	13.214	1043.929	796.708
26.936	13.154	1043.322	795.888
27.950	13.176	1042.590	795.364
28.965	13.337	1041.572	795.291
29.980	13.160	1041.198	794.084
30.994	13.268	1040.053	793.659
32.009	13.413	1039.197	793.630
33.023	13.400	1038.422	792.906
34.038	13.487	1037.736	792.728
35.053	13.319	1036.853	791.181
36.067	13.391	1036.099	790.879
37.082	13.298	1035.124	789.622
38.096	13.338	1034.274	789.097
39.111	13.351	1033.550	788.537
40.126	13.451	1032.110	787.843
41.140	13.444	1031.023	786.909
42.155	13.168	1031.016	785.522
43.169	13.195	1029.877	784.711
44.184	13.102	1029.089	783.603
45.199	13.071	1027.681	782.315
46.213	13.179	1026.772	782.063
47.228	13.101	1026.652	781.532
48.242	13.280	1024.670	780.802
49.257	13.248	1023.937	780.023
50.271	13.273	1022.764	779.178
51.286	13.348	1021.659	778.622
52.301	13.346	1021.236	778.219
53.315	13.295	1020.231	777.145
54.330	13.337	1019.313	776.577
55.344	13.216	1018.597	775.391
56.359	13.237	1017.215	774.372
57.374	13.166	1016.763	773.626
58.388	13.215	1016.392	773.506
59.403	13.219	1015.518	772.787
60.417	13.195	1014.296	771.680
61.432	13.194	1013.700	771.154
62.447	13.152	1013.189	770.499
63.461	13.199	1011.826	769.612
64.476	13.094	1011.626	768.906
65.490	13.100	1010.398	767.933
66.505	13.040	1009.520	766.919
67.520	13.145	1008.785	766.779
68.534	13.112	1008.357	766.231
69.549	13.176	1007.400	765.733
70.563	13.013	1006.887	764.522
71.578	13.031	1006.491	764.235
72.593	13.073	1005.083	763.294
73.607	12.996	1003.708	761.825
74.622	13.071	1003.019	761.583
75.636	13.131	1002.119	761.110
76.651	13.023	1001.553	760.114
77.666	12.835	1001.016	758.775
78.680	13.146	1000.045	759.400
79.695	13.130	999.659	758.965
80.709	13.020	999.264	758.093
81.724	13.114	998.410	757.809
82.739	13.064	997.381	756.733
83.753	13.207	996.849	756.916
84.768	13.185	995.929	756.051
85.782	13.278	995.267	755.906
86.797	13.459	994.200	755.857
87.812	13.439	993.456	755.132
88.826	13.435	992.368	754.222
89.841	13.156	992.206	752.758
90.855	13.157	991.987	752.531
91.870	13.332	990.306	751.984
92.884	13.361	989.853	751.708
93.899	13.460	988.836	751.315
94.914	13.396	988.495	750.703
95.928	13.414	987.502	749.961
96.943	13.546	986.831	749.983
97.957	13.505	986.323	749.345
98.972	13.328	985.576	747.913
99.987	13.443	984.757	747.745
101.001	13.236	984.181	746.307
102.016	13.397	982.975	746.051
103.030	13.483	981.889	745.546
104.045	13.294	981.670	744.463
105.060	13.433	980.563	744.185
106.074	13.368	979.698	743.172
107.089	13.303	978.814	742.142
108.103	13.286	978.188	741.524
109.118	13.306	976.793	740.492
110.133	13.185	976.462	739.634
111.147	13.215	975.354	738.864
112.162	13.328	974.141	738.386
113.176	13.250	973.573	737.540
114.191	13.259	972.953	737.047
115.206	13.256	972.024	736.262
116.220	13.301	970.937	735.572
117.235	13.297	970.163	734.904
118.249	13.329	969.397	734.402
119.264	13.174	968.790	733.191
120.279	13.237	967.631	732.526
121.293	13.227	967.007	731.947
122.308	13.258	966.112	731.341
123.322	13.340	964.858	730.688
124.337	13.158	964.535	729.575
125.352	13.231	963.029	728.693
126.366	13.201	962.250	727.909
127.381	13.158	961.215	726.870
128.395	13.167	960.512	726.314
129.410	13.201	959.255	725.450
130.424	13.279	958.296	725.004
131.439	13.318	957.209	724.286
132.454	13.157	957.053	723.399
133.468	13.322	955.981	723.245
134.483	13.307	955.461	722.723
135.497	13.256	954.873	721.990
136.512	13.235	954.136	721.277
137.527	13.219	953.656	720.783
138.541	13.290	952.499	720.152
139.556	13.257	951.343	719.073
140.570	13.196	951.180	718.620
141.585	13.252	950.354	718.178
142.600	13.438	949.446	718.234
143.614	13.452	948.838	717.771
144.629	13.461	948.140	717.221
145.643	13.518	946.973	716.520
146.658	13.492	946.181	715.742
147.673	13.334	945.244	714.289
148.687	13.440	944.439	714.077
149.702	13.249	943.707	712.636
150.716	13.343	942.535	712.093
151.731	13.324	942.006	711.546
152.746	13.386	941.016	711.001
153.760	13.278	940.636	710.188
154.775	13.508	939.197	710.026
155.789	13.445	938.967	709.520
156.804	13.399	938.207	708.683
157.819	13.521	937.116	708.320
158.833	13.469	936.606	707.652
159.848	13.550	935.908	707.404
160.862	13.519	935.523	706.918
161.877	13.496	934.540	706.015
162.892	13.490	933.736	705.323
163.906	13.493	932.910	704.649
164.921	13.455	932.285	703.950
165.935	13.596	930.683	703.276
166.950	13.485	930.001	702.230
167.964	13.548	928.939	701.633
168.979	13.488	927.951	700.570
169.994	13.466	927.551	700.114
171.008	13.368	926.868	699.123
172.023	13.581	925.616	699.015
173.037	13.600	924.827	698.437
174.052	13.553	924.285	697.767
175.067	13.602	923.723	697.490
176.081	13.693	922.608	696.968
177.096	13.587	921.738	695.803
178.110	13.426	920.935	694.459
179.125	13.455	920.802	694.419
180.140	13.661	919.357	694.130
181.154	13.558	919.043	693.399
182.169	13.604	918.369	693.023
183.183	13.748	917.634	693.008
184.198	13.669	917.088	692.205
185.213	13.732	916.343	691.847
186.227	13.707	915.775	691.252
187.242	13.716	915.490	691.012
188.256	13.848	914.143	690.486
189.271	13.887	913.635	690.200
190.286	13.769	913.258	689.367
191.300	13.819	912.631	689.037
192.315	13.654	911.603	687.514
193.329	13.446	911.117	686.225
194.344	13.518	910.531	686.021
195.359	13.536	909.732	685.435
196.373	13.715	909.268	685.764
197.388	13.771	908.605	685.436
198.402	13.865	907.949	685.267
199.417	13.892	907.598	685.055
200.432	13.953	907.112	684.878
201.446	13.962	906.905	684.698
202.461	14.046	906.366	684.579
203.475	14.087	905.984	684.398
204.490	14.004	905.167	683.379
205.504	14.004	904.540	682.843
206.519	13.903	903.897	681.882
207.534	13.970	902.495	681.042
208.548	14.078	901.530	680.691
209.563	14.100	901.028	680.346
210.577	14.033	900.469	679.590
211.592	14.095	899.709	679.210
212.607	14.104	899.645	679.136
213.621	14.152	899.086	678.848
214.636	14.088	898.357	677.977
215.650	14.171	897.565	677.660
216.665	14.118	897.178	677.091
217.680	14.147	896.591	676.706
218.694	14.199	895.906	676.342
219.709	14.197	895.587	676.031
220.723	14.126	895.007	675.247
221.738	14.179	894.336	674.895
222.753	14.353	892.991	674.525
223.767	14.300	892.497	673.879
224.782	14.268	891.957	673.281
225.796	14.287	891.289	672.794
226.811	14.270	890.736	672.248
227.826	14.385	889.788	671.935
228.840	14.327	889.178	671.181
229.855	14.373	888.179	670.553
230.869	14.306	887.894	670.010
231.884	14.298	887.548	669.658
232.899	14.318	886.430	668.837
233.913	14.257	886.248	668.394
234.928	14.282	885.411	667.803
235.942	14.348	884.535	667.350
236.957	14.389	883.562	666.720
237.972	14.318	883.071	666.007
238.986	14.390	882.190	665.570
240.001	14.398	882.110	665.482
241.015	14.285	881.311	664.370
242.030	14.519	880.238	664.436
243.045	14.479	879.901	663.963
244.059	14.512	879.544	663.767
245.074	14.559	878.469	663.083
246.088	14.530	878.001	662.558
247.103	14.430	877.790	661.942
248.117	14.537	877.341	661.968
249.132	14.685	876.437	661.814
250.147	14.630	876.147	661.321
251.161	14.752	875.160	660.998
252.176	14.791	874.493	660.591
253.190	14.740	874.152	660.075
254.205	14.870	873.294	659.881
255.220	14.815	873.065	659.431
256.234	14.883	872.228	659.009
257.249	14.850	871.595	658.340
258.263	14.912	870.935	658.030
259.278	14.894	870.756	657.763
260.293	14.822	870.371	657.132
261.307	14.964	869.454	656.941
262.322	14.824	868.808	655.845
263.336	14.994	868.258	656.038
264.351	14.998	867.601	655.501
265.366	15.015	867.096	655.128
266.380	14.967	866.776	654.640
267.395	14.990	865.920	654.023
268.409	14.998	865.078	653.362
269.424	15.077	864.356	653.066
270.439	15.044	863.837	652.490
271.453	15.161	862.447	651.836
272.468	15.000	862.324	651.059
273.482	15.039	861.658	650.650
274.497	15.144	860.649	650.240
275.512	15.116	860.004	649.583
276.526	14.953	859.625	648.611
277.541	15.121	859.204	648.885
278.555	15.024	858.552	647.960
279.570	14.977	858.161	647.427
280.585	15.155	857.702	647.710
281.599	15.374	856.632	647.689
282.614	15.219	856.219	646.724
283.628	15.345	855.791	646.828
284.643	15.274	854.794	645.742
285.657	15.286	854.399	645.434
286.672	15.108	854.192	644.536
287.687	15.279	853.181	644.374
288.701	15.335	852.776	644.225
289.716	15.360	852.176	643.812
290.730	15.310	851.718	643.217
291.745	15.311	851.144	642.731
292.760	15.452	850.081	642.410
293.774	15.412	849.658	641.881
294.789	15.483	849.374	641.881
295.803	15.385	848.971	641.146
296.818	15.546	847.777	640.802
297.833	15.460	847.300	640.054
298.847	15.503	846.483	639.547
299.862	15.519	846.016	639.197
300.876	15.439	845.605	638.524
301.891	15.579	845.008	638.552
302.906	15.611	844.136	637.957
303.920	15.550	843.400	637.112
304.935	15.640	843.481	637.458
305.949	15.588	842.683	636.600
306.964	15.801	841.672	636.587
307.979	15.731	840.878	635.668
308.993	15.727	840.751	635.500
310.008	15.713	840.248	635.009
311.022	15.593	839.719	634.100
312.037	15.712	839.495	634.326
313.052	15.776	838.453	633.722
314.066	15.679	837.852	632.846
315.081	15.573	837.288	631.965
316.095	15.514	836.800	631.321
317.110	15.754	836.279	631.771
318.125	15.773	835.682	631.336
319.139	15.670	835.313	630.616
320.154	15.736	834.560	630.238
321.168	15.715	833.806	629.535
322.183	15.741	833.584	629.411
323.197	15.775	832.995	629.036
324.212	15.654	832.784	628.369
325.227	15.717	831.965	627.929
326.241	15.793	831.734	627.985
327.256	15.788	830.986	627.346
328.270	15.812	830.409	626.943
329.285	15.814	830.159	626.705
330.300	15.756	829.170	625.689
331.314	15.830	828.682	625.541
332.329	15.922	827.650	625.049
333.343	15.878	827.535	624.742
334.358	15.841	826.963	624.118
335.373	16.026	826.392	624.317
336.387	15.932	825.983	623.604
337.402	15.899	825.378	622.971
338.416	15.921	824.942	622.666
339.431	16.123	824.205	622.803
340.446	15.996	823.941	622.080
341.460	16.192	823.439	622.370
342.475	16.109	822.515	621.309
343.489	16.181	821.903	621.056
344.504	16.204	821.525	620.801
345.519	16.184	821.009	620.283
346.533	16.110	820.622	619.665
347.548	16.218	820.218	619.701
348.562	16.132	819.965	619.138
349.577	16.175	819.145	618.621
350.592	16.201	818.175	617.930
351.606	16.301	817.832	617.983
352.621	16.059	817.682	616.929
353.635	16.203	817.023	616.903
354.650	16.262	816.702	616.822
355.665	16.275	816.179	616.420
356.679	16.350	815.719	616.293
357.694	16.349	815.249	615.878
358.708	16.228	815.016	615.207
359.723	16.248	814.420	614.775
360.738	16.277	813.986	614.500
361.752	16.465	812.818	614.246
362.767	16.388	812.782	613.885
363.781	16.391	812.646	613.738
364.796	16.298	812.171	612.986
365.810	16.486	811.643	613.216
366.825	16.460	811.334	612.836
367.840	16.571	810.855	612.821
368.854	16.559	810.541	612.485
369.869	16.410	809.942	611.442
370.883	16.602	809.266	611.569
371.898	16.594	808.930	611.233
372.913	16.537	807.887	610.186
373.927	16.641	807.496	610.211
374.942	16.660	806.943	609.806
375.956	16.864	806.048	609.810
376.971	16.675	805.360	608.555
377.986	16.746	805.344	608.745
379.000	16.742	804.617	608.129
380.015	16.861	803.997	608.033
381.029	16.675	803.882	607.226
382.044	16.718	803.588	607.105
383.059	16.655	802.816	606.241
384.073	16.689	802.157	605.810
385.088	16.811	801.400	605.622
386.102	16.919	800.904	605.579
387.117	16.721	800.292	604.355
388.132	16.776	800.119	604.367
389.146	16.810	799.595	604.039
390.161	16.855	799.391	603.994
391.175	16.828	798.819	603.413
392.190	17.034	798.231	603.648
393.205	16.867	798.178	602.961
394.219	16.926	797.371	602.505
395.234	16.897	797.083	602.133
396.248	16.856	796.447	601.451
397.263	16.785	796.042	600.841
398.278	16.828	795.938	600.864
399.292	16.807	795.127	600.125
400.307	16.819	794.863	599.912
401.321	16.891	794.228	599.636
402.336	16.948	794.074	599.667
403.350	16.916	793.549	599.106
404.365	16.968	792.912	598.757
405.380	17.021	792.507	598.584
406.394	17.174	792.085	598.750
407.409	16.877	792.106	597.667
408.423	17.134	791.348	597.946
409.438	17.059	791.095	597.439
410.453	17.156	790.454	597.242
411.467	17.353	790.016	597.553
412.482	17.232	789.395	596.605
413.496	17.169	789.202	596.182
414.511	17.224	789.029	596.192
415.526	17.381	788.336	596.167
416.540	17.315	788.035	595.657
417.555	17.320	787.699	595.366
418.569	17.217	787.496	594.801
419.584	17.419	786.579	594.762
420.599	17.378	786.306	594.360
421.613	108.892	1291.482	1469.571
422.628	93.302	1365.070	1469.673
