DTS Sentinel unit serial number:	SN413079Multiplexer serial number:	ORYXHardware model number:	OX4-SRSoftware version number:	ORYX F/W v4.00 Oryx Data Collector v3.7.2.0data status	okinstallation	princeton_trtdifferential loss correction	single-endedforward channel	channel 3reverse channel	N/Adate	2019/09/17time	20:36:34forward acquisition time	60.00reverse acquisition time	0.00gamma	496.2192k internal	0.2330k external	0.2330temperature offset calibration	0.9948default loss term (dB/km)	0.3790temperature slope calibration	1.0000multiplexer offset coefficient	1.0000multiplexer slope coefficient	1.0000fibre end	0.00T internal ref (°C)	30.19T ext. ref 1 (°C)	0.21T ext. ref 2 (°C)	20.91length (m)	temperature (°C)	Stokes	anti-Stokes-747.200	459.827	0.013	-0.029
-746.185	46.078	-0.227	0.212
-745.171	-45.936	0.424	0.211
-744.156	29.330	0.170	0.145
-743.142	-126.669	0.113	0.017
-742.127	800.000	0.094	0.324
-741.112	800.000	0.083	-0.240
-740.098	51.017	-0.145	0.138
-739.083	0.306	0.315	0.226
-738.069	-200.000	-0.044	0.284
-737.054	-200.000	-0.040	-0.182
-736.039	-57.758	0.299	-0.132
-735.025	226.996	0.214	0.349
-734.010	283.528	-0.155	0.281
-732.996	379.948	-0.091	-0.188
-731.981	-106.694	-0.213	-0.048
-730.966	79.785	-0.092	-0.099
-729.952	-66.255	-0.281	0.113
-728.937	107.513	-0.060	-0.072
-727.923	-200.000	0.032	0.203
-726.908	-83.308	-0.043	-0.014
-725.894	-100.138	-0.212	-0.053
-724.879	-36.474	0.262	-0.142
-723.864	123.438	0.027	0.035
-722.850	800.000	-0.087	0.291
-721.835	242.984	-0.099	0.166
-720.821	-120.378	-0.252	-0.043
-719.806	180.415	0.105	0.156
-718.791	-200.000	-0.016	0.291
-717.777	-148.516	0.127	0.010
-716.762	263.302	0.142	0.249
-715.748	94.742	0.094	-0.108
-714.733	-108.560	-0.053	-0.011
-713.718	563.931	0.063	0.153
-712.704	-2.167	-0.299	-0.211
-711.689	37.669	0.088	0.079
-710.675	-115.010	0.187	0.036
-709.660	475.990	0.038	-0.086
-708.645	186.329	-0.067	-0.100
-707.631	62.879	0.203	0.204
-706.616	-42.307	-0.114	0.059
-705.602	287.885	-0.121	-0.220
-704.587	-89.409	0.231	-0.068
-703.572	-89.856	-0.097	-0.028
-702.558	23.318	-0.008	0.006
-701.543	-200.000	-0.021	0.249
-700.529	-113.273	-0.191	-0.038
-699.514	-100.615	-0.111	0.027
-698.499	800.000	-0.027	0.088
-697.485	-200.000	-0.001	0.056
-696.470	-174.719	-0.185	0.005
-695.456	423.600	0.101	-0.217
-694.441	151.464	0.167	-0.228
-693.426	800.000	0.095	-0.272
-692.412	324.577	-0.075	-0.143
-691.397	-200.000	-0.007	-0.168
-690.383	-200.000	-0.009	-0.082
-689.368	246.941	-0.075	-0.127
-688.354	-174.877	0.255	0.007
-687.339	800.000	0.068	-0.213
-686.324	-118.502	0.107	0.019
-685.310	121.658	0.068	0.085
-684.295	-69.537	-0.277	0.107
-683.281	-23.982	0.288	-0.173
-682.266	580.671	0.131	-0.323
-681.251	56.221	-0.040	0.039
-680.237	149.598	0.100	0.137
-679.222	-59.480	-0.184	0.079
-678.208	-200.000	0.017	-0.299
-677.193	-47.045	-0.157	-0.077
-676.178	312.109	-0.110	0.207
-675.164	-78.472	0.116	-0.040
-674.149	-200.000	-0.064	-0.425
-673.135	-105.157	0.190	0.044
-672.120	800.000	-0.066	0.206
-671.105	303.494	0.046	0.086
-670.091	253.424	0.084	-0.144
-669.076	-125.139	0.151	0.023
-668.062	-6.347	-0.116	-0.079
-667.047	354.172	0.067	0.135
-666.032	137.911	-0.102	0.134
-665.018	436.897	-0.116	-0.253
-664.003	-200.000	0.004	-0.174
-662.989	219.844	0.040	0.064
-661.974	-34.803	-0.162	-0.089
-660.959	320.721	0.167	0.318
-659.945	-91.416	0.007	-0.002
-658.930	642.747	-0.105	0.269
-657.916	35.888	-0.088	-0.078
-656.901	-41.802	0.061	-0.032
-655.886	-53.954	-0.060	-0.027
-654.872	95.427	0.092	0.105
-653.857	10.401	-0.409	-0.312
-652.843	25.901	0.269	-0.225
-651.828	-200.000	-0.035	0.205
-650.814	-115.218	-0.120	-0.023
-649.799	756.405	-0.057	-0.154
-648.784	282.278	0.056	0.100
-647.770	2.794	-0.272	0.198
-646.755	-116.575	0.268	0.050
-645.741	354.375	0.033	0.065
-644.726	69.135	0.107	0.110
-643.711	-200.000	0.016	0.332
-642.697	495.799	-0.021	-0.048
-641.682	56.786	0.007	-0.006
-640.668	61.050	-0.206	-0.205
-639.653	-87.811	0.242	-0.073
-638.638	-149.156	-0.340	0.027
-637.624	800.000	-0.026	0.076
-636.609	-200.000	0.036	-0.166
-635.595	264.562	0.067	-0.118
-634.580	-200.000	0.004	0.073
-633.565	72.839	0.165	-0.172
-632.551	-84.435	0.265	0.084
-631.536	-151.116	-0.253	-0.019
-630.522	-73.388	0.244	-0.089
-629.507	-110.891	-0.274	0.056
-628.492	800.000	0.064	-0.198
-627.478	-81.137	0.347	0.115
-626.463	-198.783	-0.230	-0.001
-625.449	-122.063	0.445	-0.073
-624.434	800.000	-0.045	0.183
-623.419	800.000	0.022	0.070
-622.405	-49.642	-0.445	0.212
-621.390	47.656	0.034	0.032
-620.376	800.000	-0.043	-0.128
-619.361	-89.747	0.390	-0.114
-618.346	-92.133	0.294	0.083
-617.332	37.473	-0.049	0.044
-616.317	35.160	0.134	0.118
-615.303	515.948	-0.070	-0.164
-614.288	-200.000	-0.011	-0.401
-613.273	-56.087	-0.347	-0.155
-612.259	-200.000	-0.005	0.228
-611.244	800.000	-0.022	0.084
-610.230	-200.000	-0.026	0.190
-609.215	-200.000	-0.002	-0.398
-608.201	179.221	0.085	-0.125
-607.186	-107.565	0.291	-0.064
-606.171	142.435	-0.118	-0.157
-605.157	183.522	-0.084	-0.125
-604.142	-87.973	-0.424	-0.128
-603.128	-49.010	-0.132	-0.063
-602.113	800.000	0.046	-0.147
-601.098	-92.538	0.268	0.075
-600.084	59.001	0.140	-0.138
-599.069	58.207	0.198	-0.194
-598.055	-200.000	0.037	-0.171
-597.040	-200.000	0.011	-0.363
-596.025	-158.891	-0.300	0.017
-595.011	-134.117	-0.128	-0.016
-593.996	297.930	-0.040	-0.074
-592.982	800.000	0.031	0.115
-591.967	211.119	0.070	0.110
-590.952	20.690	-0.086	-0.070
-589.938	-177.319	0.052	-0.001
-588.923	800.000	-0.032	0.105
-587.909	-75.940	-0.192	-0.068
-586.894	18.275	0.067	-0.054
-585.879	-200.000	-0.006	0.119
-584.865	117.497	0.159	0.195
-583.850	523.089	0.070	-0.164
-582.836	216.462	0.056	0.089
-581.821	-91.949	0.269	0.076
-580.806	317.810	-0.200	-0.379
-579.792	-200.000	0.046	-0.220
-578.777	306.074	0.025	-0.047
-577.763	-200.000	0.009	0.184
-576.748	188.779	0.139	-0.209
-575.733	257.613	-0.105	0.181
-574.719	-130.483	-0.335	-0.045
-573.704	110.029	0.085	-0.102
-572.690	-12.216	-0.174	0.114
-571.675	-102.765	-0.164	0.039
-570.661	30.497	0.075	-0.064
-569.646	581.588	-0.101	-0.248
-568.631	79.018	-0.218	-0.233
-567.617	171.789	-0.157	-0.225
-566.602	-101.108	-0.344	-0.084
-565.588	-42.434	0.331	-0.169
-564.573	-200.000	-0.005	0.071
-563.558	-117.557	-0.116	-0.021
-562.544	-118.121	-0.125	-0.022
-561.529	601.046	0.035	-0.086
-560.515	-200.000	0.052	0.247
-559.500	800.000	-0.103	0.351
-558.485	-35.355	0.149	-0.081
-557.471	800.000	0.046	-0.183
-556.456	800.000	-0.027	-0.085
-555.442	-60.628	-0.246	0.104
-554.427	-200.000	0.026	-0.328
-553.412	22.081	-0.246	0.200
-552.398	487.200	0.117	-0.266
-551.383	191.262	0.246	0.370
-550.369	21.425	0.114	-0.092
-549.354	-50.220	0.215	0.102
-548.339	-200.000	0.022	0.313
-547.325	-200.000	0.021	0.154
-546.310	219.269	0.087	0.138
-545.296	-95.729	0.130	0.035
-544.281	-63.081	-0.283	-0.117
-543.266	340.505	0.176	0.344
-542.252	111.383	-0.033	0.039
-541.237	-59.987	-0.031	-0.013
-540.223	800.000	0.049	-0.201
-539.208	-200.000	0.017	-0.245
-538.193	-75.140	0.198	0.071
-537.179	-18.032	0.208	-0.130
-536.164	-53.036	-0.157	0.072
-535.150	711.159	0.029	0.078
-534.135	-70.740	-0.199	-0.075
-533.121	-200.000	0.273	0.001
-532.106	-17.057	-0.245	0.154
-531.091	-200.000	0.050	-0.256
-530.077	-200.000	0.018	0.237
-529.062	58.162	0.078	-0.076
-528.048	-200.000	-0.027	-0.171
-527.033	-103.796	0.274	0.064
-526.018	2.644	-0.178	-0.128
-525.004	-200.000	-0.018	0.156
-523.989	88.356	-0.201	0.223
-522.975	-86.059	0.222	-0.068
-521.960	800.000	-0.137	0.395
-520.945	107.105	-0.029	-0.035
-519.931	153.412	-0.071	0.097
-518.916	82.956	0.194	-0.210
-517.902	190.862	-0.153	0.229
-516.887	800.000	-0.121	-0.375
-515.872	355.111	0.181	-0.358
-514.858	-200.000	-0.004	-0.086
-513.843	132.791	-0.165	0.212
-512.829	-88.592	-0.203	0.060
-511.814	-200.000	0.007	-0.179
-510.799	-145.830	0.131	-0.012
-509.785	800.000	-0.061	-0.248
-508.770	-200.000	-0.016	0.100
-507.756	-7.380	-0.284	0.192
-506.741	84.454	0.202	-0.221
-505.726	347.864	-0.024	0.046
-504.712	-200.000	-0.052	0.237
-503.697	6.700	0.213	0.158
-502.683	-171.577	0.258	0.009
-501.668	200.813	-0.362	-0.556
-500.653	249.493	0.213	-0.361
-499.639	604.018	0.064	0.158
-498.624	-183.298	-0.014	-0.000
-497.610	-91.074	-0.272	-0.078
-496.595	800.000	0.074	-0.233
-495.581	-200.000	-0.043	-0.234
-494.566	-36.468	0.246	-0.132
-493.551	107.242	0.014	-0.016
-492.537	800.000	-0.060	-0.168
-491.522	-200.000	0.015	-0.230
-490.508	554.085	0.066	0.159
-489.493	-200.000	-0.030	0.226
-488.478	-102.916	0.114	-0.027
-487.464	-27.690	-0.087	0.050
-486.449	-43.061	0.127	-0.064
-485.435	800.000	0.039	-0.168
-484.420	-63.388	0.097	0.040
-483.405	-200.000	0.058	-0.361
-482.391	-135.526	-0.294	0.035
-481.376	-11.408	-0.157	-0.103
-480.362	487.903	0.121	-0.276
-479.347	368.785	0.109	-0.220
-478.332	-200.000	0.025	-0.381
-477.318	800.000	0.027	0.116
-476.303	102.436	0.210	-0.245
-475.289	39.604	-0.101	0.091
-474.274	426.205	-0.126	-0.270
-473.259	231.807	0.169	-0.276
-472.245	800.000	-0.054	0.148
-471.230	-200.000	0.016	-0.164
-470.216	141.505	-0.288	0.379
-469.201	494.417	0.110	-0.251
-468.186	-101.145	-0.188	-0.046
-467.172	-164.054	0.265	0.012
-466.157	-200.000	-0.008	-0.038
-465.143	-103.963	-0.087	-0.020
-464.128	-82.038	-0.390	0.127
-463.113	800.000	-0.023	-0.076
-462.099	127.796	-0.113	-0.142
-461.084	-55.410	0.203	-0.091
-460.070	-56.431	-0.313	0.138
-459.055	32.121	-0.235	-0.202
-458.040	-122.213	-0.200	-0.033
-457.026	-200.000	-0.067	-0.312
-456.011	-200.000	-0.029	0.210
-454.997	-200.000	0.019	-0.119
-453.982	628.059	-0.105	-0.265
-452.968	553.595	-0.041	-0.097
-451.953	230.186	-0.096	-0.156
-450.938	35.149	0.236	-0.205
-449.924	-21.370	0.143	-0.087
-448.909	448.448	0.111	0.244
-447.895	-99.764	-0.376	-0.094
-446.880	111.640	-0.338	0.406
-445.865	-57.562	-0.348	-0.152
-444.851	-61.762	0.473	-0.197
-443.836	426.975	0.098	-0.210
-442.822	-7.754	-0.123	0.082
-441.807	98.738	0.126	-0.144
-440.792	-200.000	0.001	-0.096
-439.778	307.421	-0.044	-0.082
-438.763	-67.360	-0.164	-0.064
-437.749	-77.629	-0.360	0.124
-436.734	800.000	-0.083	0.313
-435.719	-200.000	0.010	-0.102
-434.705	-38.041	-0.144	0.076
-433.690	48.299	0.087	-0.081
-432.676	-12.571	-0.161	-0.105
-431.661	-54.985	-0.090	-0.040
-430.646	358.686	0.064	-0.126
-429.632	-29.912	0.304	0.172
-428.617	-79.116	-0.326	0.110
-427.603	1.888	-0.252	-0.181
-426.588	-146.984	-0.423	-0.036
-425.573	93.000	-0.048	0.054
-424.559	-95.541	0.328	0.087
-423.544	-200.000	0.035	0.189
-422.530	260.483	0.201	0.345
-421.515	-102.674	0.025	-0.006
-420.500	-200.000	0.017	-0.166
-419.486	-17.262	-0.202	-0.126
-418.471	612.411	0.068	-0.168
-417.457	292.217	0.062	0.113
-416.442	95.890	-0.153	0.173
-415.428	299.968	0.133	-0.244
-414.413	-28.556	0.222	-0.127
-413.398	16.888	0.053	-0.041
-412.384	-100.454	-0.061	0.015
-411.369	185.263	-0.209	0.309
-410.355	-157.211	0.164	0.010
-409.340	-200.000	-0.002	0.064
-408.325	800.000	0.121	-0.487
-407.311	248.937	-0.223	-0.375
-406.296	-111.380	-0.250	0.051
-405.282	-200.000	0.022	0.116
-404.267	-52.358	-0.281	-0.129
-403.252	58.785	-0.152	-0.149
-402.238	-200.000	0.009	0.303
-401.223	-110.622	-0.097	0.020
-400.209	256.948	0.210	0.358
-399.194	800.000	-0.090	0.325
-398.179	18.592	-0.309	0.245
-397.165	375.783	-0.073	-0.147
-396.150	-141.162	0.115	0.012
-395.136	483.799	-0.059	0.134
-394.121	-60.129	-0.299	0.127
-393.106	-200.000	0.027	-0.189
-392.092	-127.019	-0.214	0.031
-391.077	-200.000	0.023	-0.184
-390.063	-25.140	0.235	0.138
-389.048	-200.000	0.032	-0.230
-388.033	-102.395	-0.198	-0.047
-387.019	15.300	0.119	-0.093
-386.004	-110.206	-0.064	0.013
-384.990	57.495	-0.106	0.103
-383.975	-200.000	-0.001	0.103
-382.960	711.639	0.094	-0.247
-381.946	-200.000	0.002	0.027
-380.931	800.000	0.057	0.235
-379.917	107.719	-0.166	-0.197
-378.902	800.000	0.051	0.152
-377.888	-59.857	0.279	0.118
-376.873	-88.355	-0.266	0.079
-375.858	68.817	-0.188	-0.192
-374.844	132.916	0.026	0.033
-373.829	94.587	-0.114	0.128
-372.815	-125.210	-0.230	-0.035
-371.800	126.563	-0.184	0.231
-370.785	-134.812	-0.192	-0.023
-369.771	-108.472	0.104	-0.022
-368.756	-38.607	-0.095	0.050
-367.742	-200.000	0.004	-0.065
-366.727	-50.535	0.088	0.041
-365.712	-137.125	-0.282	-0.032
-364.698	-148.285	-0.184	0.015
-363.683	252.210	-0.276	0.466
-362.669	-200.000	0.045	0.317
-361.654	800.000	-0.051	0.146
-360.639	-115.033	0.187	-0.035
-359.625	202.973	0.178	0.273
-358.610	-68.991	0.123	-0.047
-357.596	800.000	0.106	0.303
-356.581	-44.088	0.175	-0.087
-355.566	154.235	-0.130	0.176
-354.552	-76.318	0.128	0.045
-353.537	-200.000	0.036	-0.189
-352.523	162.466	0.051	-0.072
-351.508	800.000	-0.049	0.172
-350.493	276.900	-0.142	0.250
-349.479	-200.000	0.035	-0.468
-348.464	-200.000	-0.024	0.380
-347.450	-20.751	-0.109	0.067
-346.435	-11.911	0.196	-0.128
-345.420	-38.231	-0.189	0.099
-344.406	800.000	0.020	0.065
-343.391	-36.594	0.273	0.145
-342.377	246.035	0.200	0.334
-341.362	15.484	0.128	-0.099
-340.348	-200.000	-0.052	0.241
-339.333	-137.293	0.248	0.028
-338.318	-122.584	0.239	-0.038
-337.304	-124.872	-0.089	-0.014
-336.289	-37.830	-0.090	0.047
-335.275	800.000	0.057	-0.190
-334.260	276.511	0.049	0.086
-333.245	33.524	0.142	0.122
-332.231	123.643	0.206	-0.256
-331.216	-200.000	0.016	-0.108
-330.202	251.817	-0.114	0.192
-329.187	-177.952	-0.411	0.010
-328.172	609.013	-0.110	0.273
-327.158	-69.561	-0.080	-0.030
-326.143	-200.000	0.168	-0.001
-325.129	-155.641	0.561	-0.036
-324.114	800.000	-0.039	-0.124
-323.099	-200.000	0.010	-0.152
-322.085	-146.974	0.209	-0.018
-321.070	31.493	0.143	0.122
-320.056	45.561	0.180	0.165
-319.041	-200.000	0.000	0.127
-318.026	97.649	0.066	-0.075
-317.012	-140.344	-0.111	0.011
-315.997	-26.469	0.204	-0.118
-314.983	-72.002	0.199	0.073
-313.968	-179.079	0.216	0.005
-312.953	-20.509	0.142	-0.087
-311.939	800.000	-0.055	-0.223
-310.924	105.450	0.181	-0.212
-309.910	-200.000	-0.002	-0.139
-308.895	730.640	-0.069	-0.181
-307.880	-130.145	-0.170	0.023
-306.866	56.342	-0.082	-0.079
-305.851	68.724	0.173	0.176
-304.837	-200.000	-0.011	-0.069
-303.822	86.448	-0.248	0.271
-302.807	-39.190	0.165	-0.086
-301.793	26.606	0.159	0.131
-300.778	-138.609	-0.113	-0.012
-299.764	464.298	-0.074	0.163
-298.749	545.064	0.072	0.171
-297.735	-6.849	0.093	0.062
-296.720	-31.798	0.350	-0.194
-295.705	-200.000	-0.058	-0.323
-294.691	-200.000	0.017	0.108
-293.676	-200.000	-0.001	0.084
-292.662	121.208	-0.017	0.021
-291.647	-48.940	-0.254	0.120
-290.632	193.275	0.062	0.093
-289.618	-94.546	0.168	-0.045
-288.603	-8.854	-0.046	-0.031
-287.589	800.000	0.031	0.096
-286.574	8.286	-0.197	0.147
-285.559	-61.495	0.345	0.143
-284.545	-70.553	-0.192	-0.072
-283.530	-200.000	0.060	0.342
-282.516	-79.137	-0.188	0.063
-281.501	-181.267	-0.179	-0.004
-280.486	41.716	0.076	0.068
-279.472	-108.364	-0.087	0.019
-278.457	800.000	-0.024	0.070
-277.443	-40.112	0.173	-0.089
-276.428	-76.424	-0.224	-0.078
-275.413	-157.066	-0.400	0.024
-274.399	-200.000	-0.005	-0.166
-273.384	558.574	0.058	-0.138
-272.370	-69.516	0.388	-0.147
-271.355	-67.892	0.062	-0.024
-270.340	-69.816	-0.054	0.020
-269.326	-130.014	-0.133	0.018
-268.311	758.998	0.162	0.433
-267.297	-200.000	0.034	0.434
-266.282	-32.918	0.305	0.167
-265.267	11.052	0.202	0.153
-264.253	163.955	0.014	0.020
-263.238	-62.555	0.207	0.085
-262.224	690.862	-0.046	-0.120
-261.209	800.000	0.076	0.245
-260.195	173.148	0.201	0.287
-259.180	-61.685	-0.044	-0.018
-258.165	-121.886	0.081	-0.013
-257.151	781.427	-0.073	-0.198
-256.136	-26.193	0.080	0.046
-255.122	-182.424	-0.280	0.005
-254.107	-109.983	-0.122	-0.025
-253.092	-16.529	-0.028	0.017
-252.078	800.000	0.123	0.437
-251.063	-108.737	-0.131	0.028
-250.049	-73.849	0.291	0.104
-249.034	-200.000	0.002	0.326
-248.019	6.246	0.322	0.236
-247.005	55.899	-0.300	0.287
-245.990	-1.730	-0.238	0.165
-244.976	84.217	-0.134	-0.145
-243.961	-189.438	0.174	0.002
-242.946	322.819	-0.108	-0.203
-241.932	209.540	-0.051	-0.079
-240.917	-112.620	-0.262	0.052
-239.903	-104.995	-0.203	0.046
-238.888	-200.000	0.007	0.210
-237.873	399.380	0.064	-0.133
-236.859	800.000	-0.060	-0.188
-235.844	11.492	0.064	-0.048
-234.830	-116.334	0.166	-0.030
-233.815	83.402	0.138	-0.148
-232.800	369.798	0.047	-0.095
-231.786	-200.000	0.018	0.194
-230.771	-71.128	0.221	-0.082
-229.757	9.584	-0.142	0.106
-228.742	391.221	0.187	0.383
-227.727	-41.685	0.149	0.075
-226.713	150.462	-0.067	-0.090
-225.698	800.000	0.026	0.098
-224.684	800.000	-0.090	0.298
-223.669	-69.639	0.188	0.071
-222.655	-182.794	0.053	0.001
-221.640	90.297	0.294	0.324
-220.625	-200.000	-0.022	-0.138
-219.611	-48.522	-0.316	-0.150
-218.596	-99.994	0.110	-0.027
-217.582	800.000	0.033	-0.126
-216.567	-103.894	0.195	-0.045
-215.552	-113.741	0.243	0.047
-214.538	63.442	-0.116	-0.115
-213.523	800.000	0.034	0.112
-212.509	800.000	-0.042	-0.152
-211.494	359.695	-0.202	0.398
-210.479	-175.704	-0.238	-0.006
-209.465	-82.315	0.189	0.061
-208.450	499.986	0.050	-0.114
-207.436	198.854	0.125	0.189
-206.421	800.000	-0.080	0.296
-205.406	-200.000	0.005	-0.023
-204.392	-148.668	0.080	0.006
-203.377	176.014	-0.080	0.114
-202.363	179.269	0.060	-0.087
-201.348	-200.000	0.027	-0.278
-200.333	-200.000	0.089	-0.000
-199.319	-200.000	0.049	-0.294
-198.304	-200.000	0.001	-0.101
-197.290	800.000	0.108	-0.430
-196.275	129.015	0.298	0.375
-195.260	294.070	0.069	-0.125
-194.246	83.520	-0.107	0.115
-193.231	350.284	-0.141	0.274
-192.217	-109.111	0.270	0.057
-191.202	79.146	0.139	0.146
-190.187	-18.318	-0.090	-0.055
-189.173	800.000	-0.044	0.178
-188.158	-32.292	-0.046	-0.025
-187.144	-90.643	0.376	-0.107
-186.129	383.607	0.046	-0.093
-185.114	-92.788	-0.198	-0.054
-184.100	448.460	-0.059	0.128
-183.085	41.733	0.173	-0.154
-182.071	6.094	0.147	-0.108
-181.056	20.888	0.160	-0.128
-180.042	-64.235	0.227	-0.091
-179.027	70.153	-0.168	0.170
-178.012	-15.373	-0.313	0.197
-176.998	311.843	0.023	-0.042
-175.983	800.000	-0.053	0.180
-174.969	25.577	0.103	-0.084
-173.954	19.235	-0.049	-0.039
-172.939	335.408	-0.118	0.225
-171.925	194.842	-0.135	-0.202
-170.910	-3.731	-0.335	-0.229
-169.896	-92.881	0.447	0.123
-168.881	-160.629	-0.049	-0.003
-167.866	-58.494	-0.186	0.080
-166.852	-75.254	0.093	0.033
-165.837	67.730	0.189	-0.191
-164.823	-200.000	0.003	0.115
-163.808	-98.463	-0.112	-0.028
-162.793	-200.000	0.001	0.057
-161.779	239.383	0.222	0.363
-160.764	424.307	0.096	0.203
-159.750	-200.000	0.019	-0.578
-158.735	-200.000	0.052	-0.250
-157.720	-137.376	-0.292	-0.033
-156.706	-73.885	-0.113	-0.040
-155.691	-200.000	0.005	0.354
-154.677	-36.906	-0.098	0.052
-153.662	800.000	-0.046	-0.196
-152.647	527.513	0.122	0.283
-151.633	-85.067	-0.130	-0.040
-150.618	800.000	0.054	0.198
-149.604	-146.271	0.136	0.012
-148.589	-200.000	0.044	0.220
-147.574	-200.000	-0.016	-0.436
-146.560	-58.228	0.234	-0.100
-145.545	-24.106	0.036	0.021
-144.531	20.509	0.296	0.235
-143.516	-36.947	0.210	-0.111
-142.502	-37.838	0.165	-0.087
-141.487	-87.825	0.093	0.027
-140.472	-109.256	0.243	0.051
-139.458	61.907	-0.223	-0.218
-138.443	276.729	0.054	-0.094
-137.429	800.000	0.097	0.377
-136.414	800.000	0.127	0.352
-135.399	102.994	0.226	-0.261
-134.385	-65.541	0.379	0.150
-133.370	-72.946	0.425	0.154
-132.356	-146.043	0.170	-0.015
-131.341	-8.022	-0.115	-0.076
-130.326	-12.872	-0.175	0.112
-129.312	-45.331	-0.259	-0.126
-128.297	-200.000	-0.029	0.347
-127.283	54.594	-0.245	0.232
-126.268	-65.243	0.177	-0.070
-125.253	-124.778	-0.344	-0.052
-124.239	-50.864	0.122	-0.056
-123.224	202.352	-0.042	-0.063
-122.210	31.008	-0.098	0.082
-121.195	-86.899	0.123	-0.037
-120.180	-200.000	-0.008	0.174
-119.166	32.886	0.198	-0.169
-118.151	800.000	0.054	-0.211
-117.137	21.153	0.070	-0.056
-116.122	-52.785	-0.183	0.083
-115.107	342.799	-0.302	-0.581
-114.093	-200.000	0.010	-0.336
-113.078	-25.183	0.167	0.097
-112.064	-33.713	0.178	-0.097
-111.049	800.000	0.080	0.284
-110.034	-121.923	0.278	-0.045
-109.020	-73.910	-0.064	0.023
-108.005	-87.990	0.434	-0.128
-106.991	36.736	-0.155	0.135
-105.976	376.742	0.098	-0.197
-104.962	-63.785	0.150	-0.060
-103.947	-200.000	0.062	0.388
-102.932	-162.382	0.290	0.014
-101.918	447.510	0.138	0.298
-100.903	-81.195	0.138	-0.045
-99.889	-115.548	0.216	0.040
-98.874	85.062	-0.127	0.136
-97.859	89.917	-0.083	0.091
-96.845	292.338	0.122	0.219
-95.830	216.149	0.176	0.274
-94.816	-138.074	0.208	0.023
-93.801	-82.143	-0.019	-0.006
-92.786	800.000	0.053	0.166
-91.772	604.703	0.148	0.361
-90.757	800.000	-0.074	-0.237
-89.743	-51.913	-0.251	0.115
-88.728	-53.024	0.119	0.054
-87.713	-200.000	0.411	0.001
-86.699	53.507	0.140	-0.132
-85.684	-20.319	-0.327	0.197
-84.670	-200.000	-0.076	0.352
-83.655	772.722	-0.046	-0.122
-82.640	-200.000	0.015	-0.076
-81.626	-200.000	0.017	-0.131
-80.611	800.000	-0.067	0.245
-79.597	152.704	-0.108	-0.145
-78.582	-78.360	-0.124	-0.042
-77.567	800.000	0.009	-0.026
-76.553	257.662	0.081	0.136
-75.538	-200.000	0.005	-0.243
-74.524	-183.164	0.175	0.003
-73.509	-10.527	0.036	-0.024
-72.494	-29.132	0.121	-0.068
-71.480	221.331	0.092	-0.145
-70.465	-59.123	-0.083	0.035
-69.451	76.617	-0.074	-0.077
-68.436	215.664	-0.062	-0.096
-67.422	-142.170	0.228	-0.022
-66.407	800.000	0.039	0.147
-65.392	-200.000	-0.045	-0.226
-64.378	188.644	0.148	0.217
-63.363	-138.574	-0.403	0.043
-62.349	698.996	0.069	0.177
-61.334	135.430	-0.865	-1.103
-60.319	-13.011	0.813	0.518
-59.305	-200.000	-0.018	-0.906
-58.290	800.000	0.425	1.327
-57.276	-200.000	0.287	1.541
-56.261	-200.000	108.357	646.068
-55.246	486.613	1482.109	3312.263
-54.232	149.406	2651.625	3518.708
-53.217	109.357	2163.284	2538.458
-52.203	40.745	1700.005	1502.240
-51.188	33.411	1517.555	1291.196
-50.173	30.903	1491.605	1252.232
-49.159	55.733	1546.570	1468.566
-48.144	56.055	1563.390	1486.672
-47.130	33.708	1520.323	1295.372
-46.115	30.448	1505.524	1260.631
-45.100	30.228	1502.258	1256.354
-44.086	30.253	1500.382	1254.907
-43.071	30.223	1498.110	1252.752
-42.057	30.077	1496.832	1250.648
-41.042	30.231	1494.956	1250.070
-40.027	30.227	1493.678	1248.921
-39.013	30.029	1492.987	1246.966
-37.998	30.149	1491.390	1246.391
-36.984	30.112	1490.118	1245.029
-35.969	30.163	1488.526	1243.991
-34.954	30.127	1487.320	1242.689
-33.940	30.211	1485.790	1241.927
-32.925	30.132	1484.793	1240.514
-31.911	30.261	1483.088	1239.902
-30.896	30.203	1482.173	1238.704
-29.881	30.285	1480.654	1237.932
-28.867	30.300	1478.939	1236.548
-27.852	30.193	1477.556	1234.630
-26.838	30.222	1476.244	1233.676
-25.823	30.163	1475.207	1232.367
-24.809	30.289	1473.068	1231.373
-23.794	30.202	1472.057	1229.901
-22.779	30.284	1470.612	1229.183
-21.765	30.184	1469.845	1227.836
-20.750	30.149	1468.979	1226.832
-19.736	30.223	1467.367	1225.922
-18.721	30.196	1466.491	1224.965
-17.706	30.185	1465.237	1223.794
-16.692	30.240	1463.733	1222.853
-15.677	30.237	1462.569	1221.812
-14.663	30.225	1461.855	1221.090
-13.648	30.264	1461.196	1220.751
-12.633	30.157	1460.659	1219.550
-11.619	30.200	1459.583	1218.880
-10.604	30.225	1458.678	1218.239
-9.590	30.124	1458.005	1216.967
-8.575	30.120	1456.848	1215.928
-7.560	30.237	1455.989	1215.933
-6.546	30.105	1455.565	1214.664
-5.531	30.216	1454.342	1214.321
-4.517	30.139	1453.645	1213.189
-3.502	30.106	1452.588	1212.040
-2.487	30.121	1451.304	1211.017
-1.473	30.099	1450.634	1210.272
-0.458	30.034	1449.285	1208.669
0.556	28.043	1438.171	1194.517
1.571	23.735	1411.188	1144.311
2.586	18.832	1347.553	1062.373
3.600	16.517	1264.768	983.574
4.615	15.331	1219.806	941.866
5.629	13.219	1165.788	888.732
6.644	6.640	1084.292	793.529
7.659	1.027	1045.295	737.647
8.673	0.372	1039.696	730.457
9.688	0.170	1036.372	727.085
10.702	0.219	1034.844	726.181
11.717	0.079	1033.381	724.420
12.731	2.077	1034.985	735.105
13.746	9.063	1043.583	774.975
14.761	15.235	1051.864	811.008
15.775	16.867	1053.406	820.027
16.790	16.401	1051.662	816.345
17.804	15.476	1049.157	809.868
18.819	14.569	1047.612	804.233
19.834	14.104	1046.140	800.794
20.848	13.816	1045.499	798.846
21.863	13.650	1044.218	796.997
22.877	13.440	1043.600	795.444
23.892	13.174	1043.184	793.783
24.907	13.124	1042.087	792.635
25.921	13.265	1040.709	792.194
26.936	13.112	1040.746	791.419
27.950	13.052	1040.401	790.800
28.965	13.224	1039.298	790.714
29.980	13.298	1038.178	790.146
30.994	13.377	1037.238	789.736
32.009	13.299	1036.583	788.794
33.023	13.427	1035.743	788.699
34.038	13.304	1035.513	787.864
35.053	13.360	1034.532	787.314
36.067	13.266	1033.470	785.990
37.082	13.294	1032.624	785.412
38.096	13.333	1031.833	784.924
39.111	13.258	1031.699	784.396
40.126	13.320	1030.247	783.517
41.140	13.295	1029.141	782.491
42.155	13.129	1028.548	781.187
43.169	13.153	1027.269	780.257
44.184	13.130	1026.402	779.423
45.199	13.177	1025.258	778.707
46.213	13.057	1024.680	777.631
47.228	13.101	1023.973	777.232
48.242	13.224	1022.534	776.652
49.257	13.168	1021.843	775.797
50.271	13.113	1020.623	774.541
51.286	13.158	1019.850	774.099
52.301	13.287	1019.011	773.995
53.315	13.316	1018.490	773.669
54.330	13.165	1017.546	772.176
55.344	13.136	1016.845	771.443
56.359	13.233	1015.558	770.848
57.374	13.206	1014.927	770.176
58.388	13.126	1014.191	769.175
59.403	13.167	1013.173	768.525
60.417	13.081	1012.482	767.537
61.432	13.137	1012.049	767.398
62.447	13.077	1011.065	766.309
63.461	13.062	1010.365	765.639
64.476	13.083	1009.200	764.787
65.490	13.041	1008.212	763.774
66.505	13.064	1007.327	763.142
67.520	13.075	1007.034	762.907
68.534	13.094	1006.277	762.353
69.549	13.107	1005.467	761.731
70.563	13.261	1004.597	761.715
71.578	13.122	1003.927	760.499
72.593	13.115	1002.758	759.515
73.607	13.088	1002.256	758.942
74.622	12.904	1001.111	757.164
75.636	12.959	1000.540	756.917
76.651	12.991	999.705	756.365
77.666	13.007	999.031	755.860
78.680	13.056	998.077	755.295
79.695	13.043	997.562	754.779
80.709	12.973	997.054	754.008
81.724	13.021	996.176	753.496
82.739	13.086	995.440	753.171
83.753	13.193	994.313	752.736
84.768	13.125	993.860	752.018
85.782	13.291	993.102	752.136
86.797	13.285	992.010	751.214
87.812	13.266	991.313	750.532
88.826	13.223	990.760	749.853
89.841	13.309	989.658	749.340
90.855	13.249	988.812	748.365
91.870	13.298	988.119	747.997
92.884	13.145	987.780	746.979
93.899	13.226	986.751	746.503
94.914	13.286	986.103	746.217
95.928	13.369	985.553	746.108
96.943	13.435	984.609	745.623
97.957	13.378	984.206	744.999
98.972	13.375	982.940	743.958
99.987	13.376	982.266	743.387
101.001	13.349	981.531	742.645
102.016	13.188	981.037	741.484
103.030	13.287	979.840	740.955
104.045	13.264	979.120	740.242
105.060	13.210	978.387	739.382
106.074	13.379	976.685	738.787
107.089	13.156	976.644	737.693
108.103	13.124	975.422	736.560
109.118	13.125	974.460	735.775
110.133	13.229	973.605	735.528
111.147	13.192	973.016	734.854
112.162	13.190	972.046	734.044
113.176	13.262	971.453	733.854
114.191	13.327	970.386	733.269
115.206	13.218	969.809	732.285
116.220	13.231	968.674	731.423
117.235	13.284	967.770	730.909
118.249	12.982	967.874	729.587
119.264	13.190	966.416	729.343
120.279	13.148	965.292	728.247
121.293	13.205	964.394	727.754
122.308	13.153	964.022	727.178
123.322	13.270	962.853	726.749
124.337	12.999	962.327	725.094
125.352	13.169	960.738	724.580
126.366	13.136	959.891	723.732
127.381	13.200	958.661	723.022
128.395	13.197	958.208	722.602
129.410	13.166	957.299	721.716
130.424	13.244	956.129	721.112
131.439	13.205	955.431	720.351
132.454	13.216	954.471	719.613
133.468	13.287	953.975	719.482
134.483	13.182	953.364	718.502
135.497	13.297	952.613	718.373
136.512	13.275	951.821	717.614
137.527	13.185	950.895	716.464
138.541	13.221	950.209	716.041
139.556	13.093	949.646	714.997
140.570	13.254	948.403	714.696
141.585	13.286	948.127	714.561
142.600	13.247	947.520	713.872
143.614	13.158	946.777	712.864
144.629	13.336	945.688	712.749
145.643	13.414	944.945	712.463
146.658	13.388	944.190	711.721
147.673	13.278	943.491	710.656
148.687	13.292	942.431	709.856
149.702	13.322	941.784	709.435
150.716	13.240	940.717	708.216
151.731	13.282	939.862	707.690
152.746	13.394	939.037	707.483
153.760	13.426	938.239	706.957
154.775	13.321	937.696	706.037
155.789	13.297	937.262	705.548
156.804	13.350	936.305	704.989
157.819	13.501	935.674	705.093
158.833	13.429	934.888	704.134
159.848	13.487	934.093	703.719
160.862	13.395	933.597	702.891
161.877	13.444	932.775	702.421
162.892	13.556	931.629	701.969
163.906	13.499	930.787	701.031
164.921	13.470	930.378	700.539
165.935	13.461	929.353	699.667
166.950	13.452	928.144	698.656
167.964	13.608	927.162	698.513
168.979	13.607	926.201	697.722
169.994	13.663	925.585	697.430
171.008	13.493	924.496	695.834
172.023	13.505	923.817	695.315
173.037	13.536	923.190	694.912
174.052	13.606	922.710	694.781
175.067	13.593	922.055	694.171
176.081	13.528	921.328	693.290
177.096	13.529	920.392	692.528
178.110	13.463	919.661	691.642
179.125	13.519	918.819	691.180
180.140	13.480	917.995	690.339
181.154	13.580	916.966	689.919
182.169	13.738	916.283	690.003
183.183	13.603	916.361	689.437
184.198	13.625	915.808	689.052
185.213	13.626	914.717	688.173
186.227	13.711	914.086	687.990
187.242	13.787	913.689	687.948
188.256	13.816	913.164	687.611
189.271	13.732	912.380	686.612
190.286	13.880	911.123	686.218
191.300	13.881	910.199	685.466
192.315	13.639	910.018	684.269
193.329	13.523	909.299	683.188
194.344	13.660	908.417	683.031
195.359	13.735	907.858	682.858
196.373	13.625	907.279	681.909
197.388	13.652	907.326	681.997
198.402	13.824	906.262	681.843
199.417	13.886	906.004	681.843
200.432	13.951	905.353	681.559
201.446	13.929	905.238	681.322
202.461	14.127	904.101	681.217
203.475	14.078	903.943	680.838
204.490	14.009	903.437	680.114
205.504	14.011	902.587	679.420
206.519	14.065	901.324	678.631
207.534	14.006	900.934	678.035
208.548	13.980	900.229	677.341
209.563	13.973	899.502	676.707
210.577	14.046	898.904	676.494
211.592	13.898	898.421	675.466
212.607	14.073	897.979	675.785
213.621	14.197	897.267	675.695
214.636	14.144	896.383	674.756
215.650	13.973	895.939	673.665
216.665	14.192	895.116	673.875
217.680	14.061	895.008	673.203
218.694	14.241	893.924	673.058
219.709	14.180	893.696	672.579
220.723	14.232	892.780	672.039
221.738	14.214	892.136	671.424
222.753	14.252	891.236	670.841
223.767	14.196	890.890	670.293
224.782	14.290	889.904	669.871
225.796	14.337	889.130	669.417
226.811	14.404	888.689	669.296
227.826	14.385	888.011	668.652
228.840	14.292	887.270	667.662
229.855	14.210	887.044	667.101
230.869	14.235	886.327	666.602
231.884	14.432	885.582	666.773
232.899	14.124	884.954	665.010
233.913	14.197	884.101	664.600
234.928	14.288	883.518	664.470
235.942	14.217	883.007	663.740
236.957	14.286	881.812	663.058
237.972	14.369	881.295	662.944
238.986	14.422	880.327	662.368
240.001	14.254	879.896	661.318
241.015	14.410	879.577	661.637
242.030	14.295	878.676	660.445
243.045	14.476	877.864	660.494
244.059	14.363	877.513	659.721
245.074	14.266	877.215	659.058
246.088	14.558	876.308	659.472
247.103	14.542	875.561	658.788
248.117	14.440	875.302	658.134
249.132	14.712	874.493	658.537
250.147	14.707	873.594	657.782
251.161	14.595	873.552	657.253
252.176	14.715	872.775	657.082
253.190	14.753	871.909	656.522
254.205	14.797	871.194	656.098
255.220	14.780	870.754	655.640
256.234	14.698	870.331	654.941
257.249	14.851	869.289	654.702
258.263	14.864	869.141	654.580
259.278	14.800	868.183	653.553
260.293	14.861	867.911	653.527
261.307	14.901	867.209	653.098
262.322	14.935	866.457	652.605
263.336	15.023	866.004	652.549
264.351	15.038	865.421	652.111
265.366	14.941	864.935	651.312
266.380	14.959	864.449	650.955
267.395	14.957	863.986	650.541
268.409	15.110	862.872	650.241
269.424	14.969	862.274	649.185
270.439	14.943	861.803	648.672
271.453	15.089	860.833	648.451
272.468	15.069	860.111	647.770
273.482	14.970	859.319	646.735
274.497	15.010	858.878	646.502
275.512	14.933	858.107	645.567
276.526	14.975	857.584	645.279
277.541	15.056	856.648	644.828
278.555	15.182	855.849	644.652
279.570	15.139	855.532	644.195
280.585	15.063	855.482	643.805
281.599	15.109	854.703	643.338
282.614	15.186	854.047	643.085
283.628	15.193	853.385	642.556
284.643	15.330	852.721	642.525
285.657	15.103	852.731	641.603
286.672	15.273	851.841	641.529
287.687	15.180	851.556	640.903
288.701	15.267	850.700	640.535
289.716	15.346	850.382	640.538
290.730	15.236	850.140	639.882
291.745	15.372	848.943	639.441
292.760	15.417	848.063	638.892
293.774	15.310	847.882	638.294
294.789	15.385	847.315	638.094
295.803	15.422	846.691	637.708
296.818	15.552	845.709	637.405
297.833	15.316	845.277	636.130
298.847	15.475	844.520	636.106
299.862	15.276	844.101	634.979
300.876	15.435	843.187	634.838
301.891	15.434	842.733	634.435
302.906	15.604	841.912	634.402
303.920	15.483	841.435	633.532
304.935	15.575	840.755	633.309
305.949	15.769	840.174	633.547
306.964	15.759	839.432	632.895
307.979	15.469	839.307	631.651
308.993	15.541	838.830	631.508
310.008	15.843	837.883	631.873
311.022	15.745	837.164	630.908
312.037	15.675	837.101	630.541
313.052	15.502	836.463	629.357
314.066	15.703	835.816	629.566
315.081	15.656	835.075	628.778
316.095	15.545	834.826	628.120
317.110	15.536	834.236	627.586
318.125	15.609	833.718	627.414
319.139	15.647	833.313	627.196
320.154	15.617	832.807	626.649
321.168	15.763	832.259	626.724
322.183	15.817	831.453	626.263
323.197	15.769	831.200	625.836
324.212	15.739	830.503	625.145
325.227	15.679	829.861	624.387
326.241	15.764	829.489	624.367
327.256	15.747	828.873	623.784
328.270	15.788	828.331	623.472
329.285	15.739	828.155	623.104
330.300	15.730	827.175	622.276
331.314	15.715	826.399	621.583
332.329	15.743	825.843	621.214
333.343	15.922	824.987	621.174
334.358	16.004	824.615	621.142
335.373	15.905	824.280	620.471
336.387	16.096	823.642	620.637
337.402	16.016	823.206	619.959
338.416	16.054	822.913	619.825
339.431	16.117	821.837	619.192
340.446	15.971	821.654	618.462
341.460	16.087	820.959	618.311
342.475	16.180	820.308	618.104
343.489	16.129	820.161	617.753
344.504	16.165	819.384	617.245
345.519	16.187	818.976	616.962
346.533	16.232	818.348	616.601
347.548	16.163	818.055	616.074
348.562	16.195	817.257	615.534
349.577	16.256	816.764	615.332
350.592	16.143	816.467	614.639
351.606	16.168	815.950	614.289
352.621	16.232	815.536	614.155
353.635	16.188	815.265	613.735
354.650	16.140	814.706	613.088
355.665	16.119	814.219	612.591
356.679	16.189	813.926	612.569
357.694	16.164	813.542	612.134
358.708	16.295	812.395	611.692
359.723	16.413	812.035	611.794
360.738	16.180	811.524	610.513
361.752	16.328	810.942	610.555
362.767	16.254	811.007	610.284
363.781	16.320	810.739	610.267
364.796	16.441	809.984	610.079
365.810	16.499	809.306	609.724
366.825	16.442	809.205	609.391
367.840	16.533	808.874	609.415
368.854	16.638	807.831	608.951
369.869	16.601	807.548	608.554
370.883	16.493	807.390	607.991
371.898	16.606	806.766	607.873
372.913	16.602	805.788	607.068
373.927	16.663	805.416	606.953
374.942	16.526	805.208	606.251
375.956	16.530	804.353	605.569
376.971	16.660	803.503	605.340
377.986	16.612	803.233	604.912
379.000	16.706	802.587	604.707
380.015	16.720	802.340	604.517
381.029	16.794	801.762	604.290
382.044	16.749	801.371	603.784
383.059	16.777	800.394	603.094
384.073	16.760	800.027	602.705
385.088	16.765	799.444	602.227
386.102	16.822	798.943	602.000
387.117	16.802	798.541	601.574
388.132	16.792	797.977	601.058
389.146	16.664	797.714	600.352
390.161	16.877	796.996	600.517
391.175	16.794	797.076	600.228
392.190	16.851	796.757	600.137
393.205	17.002	795.906	599.979
394.219	16.801	795.530	598.932
395.234	16.777	795.070	598.445
396.248	16.939	794.538	598.563
397.263	16.866	794.000	597.847
398.278	16.833	793.762	597.500
399.292	16.817	792.967	596.793
400.307	16.940	792.426	596.766
401.321	16.977	792.368	596.798
402.336	17.006	792.222	596.739
403.350	16.887	791.659	595.844
404.365	16.823	791.529	595.467
405.380	16.941	790.527	595.076
406.394	17.164	789.980	595.394
407.409	17.173	789.711	595.168
408.423	17.186	789.490	594.993
409.438	17.163	788.549	594.152
410.453	17.246	788.366	594.252
411.467	17.165	788.147	593.751
412.482	17.210	787.475	593.349
413.496	17.298	786.981	593.233
414.511	17.417	786.769	593.433
415.526	17.305	786.362	592.687
416.540	17.408	785.778	592.553
417.555	17.314	785.706	592.117
418.569	17.301	785.466	591.839
419.584	17.377	784.576	591.380
420.599	17.412	783.887	590.931
421.613	109.883	1291.916	1470.736
422.628	94.136	1365.920	1470.835
