DTS Sentinel unit serial number:	SN413079Multiplexer serial number:	ORYXHardware model number:	OX4-SRSoftware version number:	ORYX F/W v4.00 Oryx Data Collector v3.7.2.0data status	okinstallation	princeton_trtdifferential loss correction	single-endedforward channel	channel 3reverse channel	N/Adate	2019/09/19time	10:44:34forward acquisition time	60.00reverse acquisition time	0.00gamma	496.2192k internal	0.2342k external	0.2342temperature offset calibration	0.9980default loss term (dB/km)	0.3790temperature slope calibration	1.0000multiplexer offset coefficient	1.0000multiplexer slope coefficient	1.0000fibre end	0.00T internal ref (°C)	24.62T ext. ref 1 (°C)	0.74T ext. ref 2 (°C)	20.12length (m)	temperature (°C)	Stokes	anti-Stokes-747.200	30.019	-0.075	-0.064
-746.185	-127.465	-0.115	-0.017
-745.171	75.526	0.258	0.273
-744.156	-91.518	0.449	-0.128
-743.142	-79.103	0.320	-0.109
-742.127	800.000	-0.037	-0.143
-741.112	-200.000	0.027	0.256
-740.098	-96.900	0.269	0.071
-739.083	-200.000	0.000	-0.147
-738.069	-200.000	-0.012	0.114
-737.054	-12.052	-0.239	-0.157
-736.039	257.589	-0.217	-0.374
-735.025	68.126	0.150	-0.154
-734.010	77.708	-0.188	-0.201
-732.996	-42.343	-0.175	-0.089
-731.981	-71.961	-0.284	0.106
-730.966	114.302	0.154	0.188
-729.952	-200.000	-0.034	0.224
-728.937	-91.363	0.257	0.073
-727.923	446.766	0.128	-0.282
-726.908	30.958	0.211	-0.181
-725.894	-12.198	-0.261	0.171
-724.879	-85.848	-0.170	-0.053
-723.864	-48.306	-0.034	-0.016
-722.850	-89.618	0.222	-0.065
-721.835	-78.365	-0.084	-0.029
-720.821	-18.438	0.284	-0.177
-719.806	-15.162	0.216	0.139
-718.791	-6.436	0.190	-0.129
-717.777	-200.000	-0.055	-0.383
-716.762	88.374	-0.141	-0.157
-715.748	-107.384	0.136	-0.030
-714.733	56.536	0.148	-0.144
-713.718	800.000	-0.028	-0.115
-712.704	1.851	-0.258	-0.186
-711.689	129.646	0.151	-0.193
-710.675	800.000	-0.067	-0.260
-709.660	-170.402	-0.501	0.018
-708.645	-200.000	-0.007	0.055
-707.631	-28.370	0.250	-0.144
-706.616	-91.022	0.208	0.060
-705.602	-200.000	-0.022	0.231
-704.587	-200.000	-0.007	-0.198
-703.572	295.772	0.133	-0.244
-702.558	29.278	-0.077	-0.065
-701.543	-95.194	-0.077	-0.021
-700.529	800.000	-0.100	-0.303
-699.514	-75.986	0.305	0.108
-698.499	-103.814	0.112	0.026
-697.485	67.082	-0.068	0.070
-696.470	800.000	-0.085	-0.263
-695.456	78.202	0.045	-0.048
-694.441	-103.525	0.229	0.054
-693.426	-143.345	-0.134	0.013
-692.412	320.604	0.238	-0.452
-691.397	800.000	0.035	-0.147
-690.383	-200.000	0.028	-0.163
-689.368	-161.656	0.379	-0.019
-688.354	-35.161	0.205	-0.111
-687.339	96.094	0.066	-0.075
-686.324	-107.680	-0.174	-0.038
-685.310	-75.071	0.213	0.076
-684.295	337.379	0.007	0.013
-683.281	-200.000	0.000	-0.015
-682.266	800.000	0.021	-0.070
-681.251	337.909	0.004	0.008
-680.237	-49.620	0.178	0.085
-679.222	-198.779	-0.140	0.001
-678.208	-122.683	-0.154	0.025
-677.193	89.594	-0.155	0.173
-676.178	63.765	-0.207	-0.208
-675.164	-200.000	-0.007	-0.193
-674.149	111.020	-0.046	-0.055
-673.135	-18.358	0.203	-0.127
-672.120	230.837	-0.096	-0.157
-671.105	95.456	0.161	-0.183
-670.091	-200.000	-0.018	-0.256
-669.076	-38.770	0.325	0.171
-668.062	-23.916	0.139	0.083
-667.047	-200.000	0.037	0.242
-666.032	142.197	0.198	0.262
-665.018	45.897	-0.034	0.031
-664.003	-200.000	0.060	0.273
-662.989	-108.219	-0.193	0.042
-661.974	-105.737	0.073	-0.016
-660.959	664.698	-0.021	-0.054
-659.945	-200.000	-0.008	0.093
-658.930	6.786	0.264	-0.196
-657.916	-200.000	0.084	-0.369
-656.901	63.920	0.144	-0.144
-655.886	214.816	-0.141	-0.223
-654.872	800.000	0.069	-0.291
-653.857	20.739	-0.108	-0.087
-652.843	56.893	-0.250	-0.243
-651.828	66.635	0.110	-0.112
-650.814	-200.000	-0.036	-0.250
-649.799	-200.000	0.057	0.432
-648.784	41.974	-0.454	-0.411
-647.770	80.110	0.104	-0.112
-646.755	-200.000	0.004	-0.065
-645.741	-127.188	0.123	0.018
-644.726	-71.022	0.195	-0.073
-643.711	642.706	0.013	0.034
-642.697	-143.650	0.202	0.019
-641.682	-24.100	-0.047	-0.028
-640.668	230.315	0.015	-0.025
-639.653	800.000	0.085	0.284
-638.638	693.233	0.028	0.073
-637.624	-200.000	-0.013	-0.201
-636.609	-200.000	0.080	-0.407
-635.595	173.920	0.172	0.248
-634.580	800.000	0.011	-0.043
-633.565	800.000	0.041	-0.168
-632.551	-65.195	-0.175	0.070
-631.536	172.589	0.084	0.121
-630.522	800.000	-0.087	-0.248
-629.507	63.529	0.049	-0.049
-628.492	800.000	-0.016	0.052
-627.478	-200.000	-0.080	-0.382
-626.463	800.000	-0.073	-0.218
-625.449	461.491	0.082	0.182
-624.434	-37.747	-0.271	0.144
-623.419	-136.994	-0.122	0.014
-622.405	-120.605	-0.474	0.080
-621.390	302.790	0.101	0.187
-620.376	-200.000	0.003	0.169
-619.361	-166.916	0.047	-0.002
-618.346	-7.769	0.216	-0.146
-617.332	-200.000	-0.004	-0.199
-616.317	-89.634	0.323	-0.094
-615.303	-200.000	-0.055	0.313
-614.288	483.184	-0.036	-0.082
-613.273	-122.584	-0.197	0.032
-612.259	-200.000	0.037	0.242
-611.244	-87.399	0.141	0.043
-610.230	-147.040	-0.218	0.019
-609.215	680.481	0.169	0.438
-608.201	57.252	-0.225	0.219
-607.186	800.000	0.031	-0.111
-606.171	-35.873	-0.119	0.064
-605.157	216.982	0.171	-0.271
-604.142	450.633	-0.078	-0.172
-603.128	-122.613	-0.271	-0.044
-602.113	-200.000	0.005	-0.051
-601.098	-79.987	0.292	0.098
-600.084	65.070	-0.184	0.185
-599.069	-23.781	-0.174	-0.104
-598.055	298.250	0.037	0.067
-597.040	309.145	0.122	-0.227
-596.025	-54.331	-0.240	0.108
-595.011	-35.843	-0.174	-0.094
-593.996	38.985	0.268	-0.238
-592.982	44.611	-0.230	0.210
-591.967	-120.303	0.121	0.021
-590.952	-94.813	0.238	0.064
-589.938	514.119	0.150	-0.348
-588.923	49.521	-0.142	-0.133
-587.909	439.391	-0.145	-0.315
-586.894	-75.328	-0.246	0.087
-585.879	800.000	0.056	-0.164
-584.865	-89.082	0.229	0.067
-583.850	-136.769	-0.229	-0.026
-582.836	-200.000	0.160	-0.000
-581.821	268.880	-0.169	-0.296
-580.806	530.271	-0.074	0.173
-579.792	-38.505	0.315	0.166
-578.777	378.408	-0.061	-0.124
-577.763	85.028	-0.035	0.039
-576.748	-200.000	-0.008	0.248
-575.733	-93.621	0.186	-0.051
-574.719	-145.982	-0.231	-0.020
-573.704	-132.258	0.194	-0.025
-572.690	-23.033	-0.211	0.127
-571.675	-200.000	-0.066	-0.327
-570.661	-200.000	0.045	-0.207
-569.646	-149.823	0.128	0.010
-568.631	-56.343	0.115	0.051
-567.617	7.972	0.224	0.167
-566.602	-200.000	0.001	0.085
-565.588	143.216	-0.166	0.220
-564.573	-200.000	-0.009	0.163
-563.558	800.000	0.043	0.170
-562.544	330.298	-0.084	-0.161
-561.529	10.006	-0.073	-0.055
-560.515	7.452	-0.203	0.151
-559.500	-69.712	-0.170	-0.065
-558.485	-36.592	0.167	-0.089
-557.471	-126.896	0.090	0.013
-556.456	-147.166	-0.432	-0.037
-555.442	-161.611	0.037	-0.002
-554.427	75.132	-0.130	-0.136
-553.412	314.644	-0.114	-0.214
-552.398	131.384	-0.269	0.344
-551.383	-17.262	0.116	0.072
-550.369	113.075	-0.236	0.284
-549.354	44.501	-0.132	0.121
-548.339	-76.624	-0.119	-0.042
-547.325	224.242	0.197	0.316
-546.310	234.911	-0.062	0.102
-545.296	116.920	-0.169	-0.206
-544.281	197.340	-0.128	-0.194
-543.266	-200.000	0.020	0.194
-542.252	-63.131	-0.246	-0.101
-541.237	238.262	-0.136	0.224
-540.223	-30.201	-0.301	0.170
-539.208	-200.000	-0.033	0.157
-538.193	577.546	0.061	-0.148
-537.179	-200.000	0.029	-0.409
-536.164	46.523	0.172	0.159
-535.150	379.382	-0.099	0.201
-534.135	-133.739	-0.305	-0.038
-533.121	800.000	0.010	-0.027
-532.106	8.034	0.199	0.148
-531.091	3.502	-0.297	-0.215
-530.077	68.901	-0.338	0.345
-529.062	-200.000	0.016	-0.179
-528.048	-100.219	0.208	-0.051
-527.033	22.088	-0.030	-0.025
-526.018	-38.336	0.041	-0.022
-525.004	406.954	0.109	-0.229
-523.989	51.723	0.149	-0.141
-522.975	-22.882	0.294	-0.176
-521.960	-23.158	-0.435	0.260
-520.945	78.714	0.089	-0.095
-519.931	800.000	-0.084	-0.277
-518.916	-105.970	-0.350	-0.078
-517.902	224.944	0.146	-0.234
-516.887	196.572	-0.119	-0.180
-515.872	52.313	-0.109	-0.103
-514.858	42.531	-0.036	-0.033
-513.843	-115.151	0.241	-0.045
-512.829	51.954	0.174	0.164
-511.814	-21.293	-0.248	-0.150
-510.799	800.000	-0.126	0.360
-509.785	-159.034	-0.256	-0.014
-508.770	85.792	0.175	0.191
-507.756	800.000	-0.063	-0.225
-506.741	122.816	-0.173	0.215
-505.726	-66.357	0.092	0.036
-504.712	163.020	0.327	0.456
-503.697	-180.011	0.169	-0.004
-502.683	-72.500	0.096	0.035
-501.668	388.326	0.096	0.197
-500.653	-200.000	0.011	0.169
-499.639	-115.955	0.104	-0.019
-498.624	31.235	0.208	-0.177
-497.610	-200.000	-0.007	-0.117
-496.595	414.502	-0.111	-0.234
-495.581	800.000	-0.106	-0.344
-494.566	9.777	0.076	-0.058
-493.551	83.963	0.176	0.190
-492.537	-62.195	0.343	-0.142
-491.522	-63.320	-0.200	-0.082
-490.508	-200.000	-0.029	-0.256
-489.493	353.871	-0.146	0.288
-488.478	316.238	0.018	-0.033
-487.464	349.947	-0.187	-0.366
-486.449	36.903	0.244	-0.214
-485.435	-106.790	-0.028	0.006
-484.420	-1.423	-0.011	0.008
-483.405	161.820	-0.135	-0.187
-482.391	-200.000	0.001	0.098
-481.376	-19.213	-0.425	0.262
-480.362	-200.000	0.003	-0.079
-479.347	360.339	-0.079	0.157
-478.332	-91.166	0.078	-0.022
-477.318	-35.493	-0.145	-0.078
-476.303	-200.000	-0.028	0.165
-475.289	-200.000	0.028	-0.201
-474.274	-128.515	-0.075	-0.010
-473.259	800.000	-0.047	-0.192
-472.245	111.700	-0.253	-0.302
-471.230	150.172	0.074	-0.099
-470.216	11.554	0.089	-0.068
-469.201	188.416	-0.301	0.446
-468.186	311.204	0.056	0.103
-467.172	-200.000	-0.002	-0.133
-466.157	-129.927	-0.123	0.017
-465.143	-28.218	0.127	-0.073
-464.128	72.213	0.104	-0.108
-463.113	193.401	-0.065	-0.098
-462.099	-181.229	-0.198	0.004
-461.084	800.000	-0.109	0.367
-460.070	-95.203	0.091	-0.024
-459.055	-87.970	-0.295	0.088
-458.040	5.273	-0.048	0.035
-457.026	-154.211	-0.051	0.003
-456.011	3.934	-0.154	-0.111
-454.997	775.581	0.092	-0.249
-453.982	-200.000	0.059	-0.332
-452.968	-200.000	-0.001	-0.105
-451.953	554.443	-0.118	-0.282
-450.938	-180.469	0.195	-0.004
-449.924	800.000	0.052	0.169
-448.909	181.618	0.059	-0.086
-447.895	103.806	0.153	0.178
-446.880	-200.000	-0.024	0.166
-445.865	-200.000	0.011	0.059
-444.851	-27.097	-0.394	-0.228
-443.836	175.228	0.158	0.227
-442.822	-21.068	-0.275	0.167
-441.807	-24.868	0.241	-0.142
-440.792	-5.348	0.210	0.143
-439.778	-140.728	-0.314	0.032
-438.763	599.752	-0.136	0.335
-437.749	155.577	-0.157	0.214
-436.734	800.000	-0.100	0.352
-435.719	271.413	-0.166	0.290
-434.705	-200.000	-0.012	-0.090
-433.690	106.607	0.241	0.282
-432.676	-71.856	0.440	0.162
-431.661	86.440	0.063	-0.068
-430.646	800.000	-0.090	-0.318
-429.632	-61.274	-0.095	-0.040
-428.617	-63.115	-0.276	0.113
-427.603	-114.071	0.135	-0.026
-426.588	66.500	-0.180	0.181
-425.573	-200.000	0.000	-0.212
-424.559	-200.000	-0.057	-0.317
-423.544	5.947	-0.194	-0.142
-422.530	-21.734	0.220	-0.133
-421.515	-200.000	0.031	-0.336
-420.500	-200.000	0.023	-0.098
-419.486	-200.000	0.043	-0.344
-418.471	175.185	0.070	-0.100
-417.457	800.000	0.041	-0.169
-416.442	72.849	0.147	-0.152
-415.428	-2.133	0.338	0.234
-414.413	45.996	0.258	0.236
-413.398	192.333	-0.219	0.326
-412.384	-130.469	-0.075	0.010
-411.369	257.624	-0.128	0.217
-410.355	2.799	-0.067	-0.048
-409.340	-28.891	-0.159	-0.090
-408.325	800.000	-0.075	-0.260
-407.311	-20.312	-0.291	-0.177
-406.296	-105.103	0.337	-0.076
-405.282	570.755	-0.068	-0.162
-404.267	-154.388	0.143	0.009
-403.252	242.382	0.285	-0.471
-402.238	-10.339	-0.211	-0.139
-401.223	800.000	0.009	0.033
-400.209	22.924	0.138	0.112
-399.194	800.000	0.044	0.189
-398.179	274.456	0.103	-0.181
-397.165	-200.000	-0.023	-0.167
-396.150	4.830	0.134	-0.097
-395.136	25.527	0.167	0.137
-394.121	90.600	0.257	0.284
-393.106	-106.812	0.103	-0.023
-392.092	38.413	0.243	-0.214
-391.077	70.367	-0.215	-0.219
-390.063	191.459	-0.234	0.348
-389.048	-107.269	0.386	0.084
-388.033	162.325	0.035	0.049
-387.019	161.074	-0.118	0.162
-386.004	415.232	0.056	0.117
-384.990	-23.179	-0.126	-0.075
-383.975	-21.156	0.164	-0.099
-382.960	69.323	0.211	0.214
-381.946	533.568	0.080	0.188
-380.931	303.809	0.033	-0.060
-379.917	-87.937	0.166	-0.049
-378.902	-102.312	-0.342	-0.081
-377.888	318.098	0.211	-0.395
-376.873	60.981	-0.104	0.102
-375.858	72.351	-0.087	-0.090
-374.844	322.157	0.139	-0.262
-373.829	-99.356	0.224	-0.056
-372.815	-160.532	-0.172	0.009
-371.800	-133.623	0.191	0.024
-370.785	-101.813	0.168	-0.040
-369.771	715.652	-0.101	-0.265
-368.756	-128.718	-0.176	0.025
-367.742	-37.014	0.266	0.140
-366.727	39.908	-0.172	-0.152
-365.712	167.063	0.153	-0.215
-364.698	25.572	-0.139	0.114
-363.683	-44.198	0.381	0.189
-362.669	644.303	-0.055	0.138
-361.654	183.533	-0.158	-0.231
-360.639	-7.213	0.229	0.153
-359.625	-52.400	-0.077	0.035
-358.610	276.936	0.017	0.030
-357.596	-43.381	0.379	-0.189
-356.581	772.984	-0.127	0.341
-355.566	23.956	0.089	0.072
-354.552	-112.882	0.171	0.033
-353.537	117.676	0.105	0.127
-352.523	-33.868	-0.245	0.133
-351.508	-77.378	0.150	-0.051
-350.493	26.623	-0.222	0.183
-349.479	61.064	-0.163	-0.160
-348.464	-163.651	0.167	0.008
-347.450	-200.000	0.025	-0.186
-346.435	298.599	0.044	-0.080
-345.420	342.674	-0.041	-0.079
-344.406	124.928	-0.031	-0.039
-343.391	-63.480	-0.176	-0.071
-342.377	-200.000	-0.010	0.089
-341.362	-84.835	-0.211	0.065
-340.348	-95.072	-0.389	-0.104
-339.333	-200.000	0.018	-0.176
-338.318	800.000	-0.046	-0.172
-337.304	-85.529	0.118	-0.036
-336.289	26.314	0.280	0.231
-335.275	20.548	-0.063	0.050
-334.260	16.696	-0.184	0.143
-333.245	-200.000	0.030	0.178
-332.231	-71.149	-0.313	0.116
-331.216	-200.000	0.018	-0.169
-330.202	800.000	-0.052	0.185
-329.187	-36.054	-0.141	0.075
-328.172	-200.000	0.018	0.192
-327.158	-200.000	0.025	0.664
-326.143	191.798	0.206	0.306
-325.129	56.586	-0.172	0.165
-324.114	800.000	0.058	-0.203
-323.099	52.509	0.159	-0.150
-322.085	800.000	-0.084	-0.296
-321.070	207.956	-0.041	0.063
-320.056	-200.000	0.033	-0.196
-319.041	290.961	0.082	-0.147
-318.026	10.875	-0.075	-0.057
-317.012	285.014	0.209	-0.371
-315.997	-154.725	-0.122	-0.008
-314.983	-155.648	-0.192	0.012
-313.968	-47.966	0.380	0.181
-312.953	800.000	-0.071	0.225
-311.939	-142.532	0.092	-0.009
-310.924	800.000	-0.106	-0.360
-309.910	152.201	-0.183	-0.246
-308.895	-56.080	0.423	0.186
-307.880	-200.000	-0.028	-0.185
-306.866	-118.393	0.175	0.031
-305.851	-160.967	-0.359	0.019
-304.837	800.000	0.068	0.215
-303.822	-88.681	-0.252	-0.074
-302.807	-3.991	0.240	0.164
-301.793	-200.000	-0.017	0.127
-300.778	-4.226	-0.106	0.072
-299.764	-74.864	0.071	0.025
-298.749	49.057	-0.191	-0.176
-297.735	15.007	0.095	0.073
-296.720	456.762	0.073	-0.160
-295.705	46.115	-0.095	-0.087
-294.691	162.161	0.164	0.226
-293.676	2.135	-0.069	0.049
-292.662	273.279	-0.109	-0.190
-291.647	-62.484	0.309	-0.126
-290.632	586.414	0.008	-0.018
-289.618	797.797	0.044	0.120
-288.603	-131.119	-0.096	-0.013
-287.589	26.346	-0.205	-0.169
-286.574	-37.803	0.077	-0.040
-285.559	188.337	0.225	0.331
-284.545	34.589	0.035	0.030
-283.530	-36.212	0.111	-0.059
-282.516	101.363	0.170	0.195
-281.501	165.012	0.084	0.116
-280.486	-200.000	0.014	0.275
-279.472	-150.931	-0.362	0.027
-278.457	-71.306	-0.153	0.056
-277.443	-78.168	0.029	-0.010
-276.428	60.117	0.249	-0.242
-275.413	-200.000	0.046	0.471
-274.399	800.000	0.069	0.228
-273.384	-66.425	-0.172	0.067
-272.370	-160.464	0.093	-0.005
-271.355	-155.674	-0.253	-0.016
-270.340	-200.000	0.023	-0.203
-269.326	88.412	-0.067	0.073
-268.311	-108.927	0.055	-0.012
-267.297	-67.534	-0.073	-0.028
-266.282	718.121	0.126	0.328
-265.267	-179.075	0.368	-0.008
-264.253	-200.000	0.053	0.271
-263.238	-165.062	-0.244	-0.011
-262.224	-139.825	-0.154	-0.016
-261.209	130.560	-0.130	-0.164
-260.195	186.154	-0.108	-0.157
-259.180	-36.697	0.101	0.053
-258.165	34.940	-0.048	0.041
-257.151	29.852	0.345	0.289
-256.136	351.344	-0.176	0.343
-255.122	-200.000	-0.009	-0.094
-254.107	199.439	-0.109	-0.164
-253.092	253.399	0.023	-0.038
-252.078	-32.084	-0.115	0.063
-251.063	-53.276	0.123	-0.055
-250.049	239.848	0.085	0.139
-249.034	-200.000	0.004	-0.048
-248.019	159.660	0.144	0.196
-247.005	-97.322	0.245	-0.063
-245.990	-33.361	0.115	-0.062
-244.976	490.967	0.149	0.335
-243.961	-200.000	0.004	-0.088
-242.946	-200.000	0.045	-0.444
-241.932	141.163	-0.239	0.310
-240.917	44.129	0.238	-0.215
-239.903	708.054	0.084	-0.217
-238.888	-78.459	-0.338	-0.114
-237.873	-200.000	-0.019	0.242
-236.859	-200.000	0.000	0.237
-235.844	136.620	0.076	0.097
-234.830	-200.000	0.042	-0.292
-233.815	800.000	0.038	0.135
-232.800	135.215	0.143	-0.183
-231.786	-52.203	-0.189	-0.086
-230.771	-200.000	-0.009	0.101
-229.757	-69.657	0.437	0.164
-228.742	-154.954	0.469	0.030
-227.727	29.179	0.117	-0.098
-226.713	114.838	-0.126	0.151
-225.698	-69.597	0.323	0.121
-224.684	495.960	0.071	-0.161
-223.669	473.600	0.076	-0.169
-222.655	112.652	0.203	0.241
-221.640	-14.205	0.210	-0.133
-220.625	172.629	-0.212	-0.299
-219.611	-65.124	0.185	-0.073
-218.596	-150.817	0.134	0.010
-217.582	159.953	-0.240	0.327
-216.567	800.000	0.077	0.209
-215.552	800.000	0.066	0.237
-214.538	58.529	0.198	-0.191
-213.523	120.476	0.108	-0.132
-212.509	110.112	-0.115	0.135
-211.494	-125.554	0.090	0.013
-210.479	-29.051	0.163	0.092
-209.465	301.525	0.027	0.050
-208.450	-200.000	-0.024	-0.113
-207.436	-74.059	0.072	0.026
-206.421	14.140	-0.089	-0.068
-205.406	-16.815	-0.081	-0.050
-204.392	38.876	-0.162	0.142
-203.377	-200.000	-0.024	-0.174
-202.363	-131.665	0.090	0.012
-201.348	103.540	-0.044	0.051
-200.333	-121.860	0.119	0.019
-199.319	-200.000	0.012	-0.230
-198.304	-200.000	0.019	0.346
-197.290	73.974	-0.093	-0.096
-196.275	800.000	0.153	0.422
-195.260	190.283	0.129	0.191
-194.246	307.136	0.182	0.333
-193.231	112.534	-0.125	-0.148
-192.217	800.000	0.051	0.213
-191.202	-89.278	-0.042	0.012
-190.187	671.093	0.038	-0.098
-189.173	50.112	-0.145	-0.134
-188.158	-200.000	-0.017	-0.244
-187.144	83.469	0.127	0.136
-186.129	-115.558	0.044	0.008
-185.114	255.339	-0.094	-0.158
-184.100	-200.000	0.036	0.259
-183.085	727.596	-0.161	-0.421
-182.071	168.153	-0.154	0.215
-181.056	16.600	0.040	0.031
-180.042	-97.268	0.151	0.039
-179.027	128.290	-0.108	-0.135
-178.012	-200.000	0.083	0.372
-176.998	-200.000	-0.026	0.165
-175.983	-25.922	0.268	0.154
-174.969	275.840	-0.331	-0.576
-173.954	-46.753	-0.444	0.213
-172.939	-167.451	0.250	-0.010
-171.925	-11.830	0.153	-0.098
-170.910	297.970	0.107	0.193
-169.896	24.351	0.104	-0.084
-168.881	64.579	-0.199	-0.197
-167.866	63.667	-0.100	0.099
-166.852	-200.000	0.013	-0.202
-165.837	-3.029	0.243	-0.166
-164.823	-200.000	0.011	0.071
-163.808	94.160	0.093	0.104
-162.793	47.455	-0.132	-0.121
-161.779	39.943	-0.207	-0.182
-160.764	-109.496	-0.266	-0.055
-159.750	141.166	0.025	0.032
-158.735	69.684	-0.032	-0.032
-157.720	124.235	0.180	-0.221
-156.706	254.406	0.247	-0.413
-155.691	800.000	-0.123	-0.344
-154.677	145.629	-0.179	0.234
-153.662	52.367	-0.048	0.045
-152.647	-81.534	0.235	0.076
-151.633	110.308	-0.247	0.291
-150.618	-200.000	-0.003	-0.138
-149.604	-0.178	-0.141	-0.098
-148.589	-200.000	0.017	-0.105
-147.574	30.922	-0.180	0.151
-146.560	77.906	-0.113	0.118
-145.545	-183.717	0.096	-0.002
-144.531	-116.458	-0.044	-0.008
-143.516	91.308	-0.064	0.071
-142.502	-200.000	0.030	0.192
-141.487	597.380	-0.138	0.333
-140.472	42.862	-0.080	0.071
-139.458	-136.521	0.140	0.016
-138.443	-200.000	0.029	-0.292
-137.429	-117.843	0.306	-0.054
-136.414	-47.330	0.319	0.152
-135.399	269.561	0.090	0.155
-134.385	-200.000	0.048	-0.318
-133.370	-136.699	-0.125	-0.014
-132.356	61.739	-0.046	0.045
-131.341	-200.000	0.022	0.385
-130.326	-43.456	-0.342	-0.169
-129.312	-64.330	-0.209	-0.083
-128.297	171.444	0.087	-0.122
-127.283	-200.000	-0.005	0.233
-126.268	241.836	-0.129	-0.212
-125.253	-105.722	-0.094	-0.021
-124.239	-115.036	0.462	-0.086
-123.224	-88.511	-0.183	0.053
-122.210	-128.560	0.156	-0.022
-121.195	262.826	0.085	-0.145
-120.180	150.046	0.140	0.186
-119.166	158.844	-0.124	-0.168
-118.151	-143.948	-0.282	0.026
-117.137	159.131	-0.125	-0.170
-116.122	48.681	0.313	-0.287
-115.107	-95.085	-0.282	0.074
-114.093	481.972	0.133	0.296
-113.078	-47.444	-0.176	0.084
-112.064	-200.000	0.052	-0.320
-111.049	126.476	0.068	-0.084
-110.034	-61.604	0.314	0.129
-109.020	-197.733	-0.144	-0.001
-108.005	-93.771	-0.077	-0.021
-106.991	8.213	-0.209	0.153
-105.976	800.000	0.066	-0.189
-104.962	-200.000	0.015	-0.237
-103.947	-135.235	0.148	-0.017
-102.932	-200.000	0.029	-0.306
-101.918	119.085	0.249	0.301
-100.903	-200.000	0.008	0.051
-99.889	-200.000	-0.013	0.176
-98.874	800.000	0.099	-0.344
-97.859	-86.199	-0.159	-0.048
-96.845	800.000	0.048	0.198
-95.830	-145.651	0.102	0.009
-94.816	-87.754	-0.305	-0.090
-93.801	88.556	0.169	-0.184
-92.786	800.000	-0.062	-0.251
-91.772	800.000	0.052	0.176
-90.757	-71.194	0.209	0.077
-89.743	-42.190	0.205	-0.102
-88.728	48.914	-0.223	-0.204
-87.713	89.117	0.278	0.302
-86.699	-91.678	0.112	0.031
-85.684	-95.555	-0.194	0.051
-84.670	-70.611	-0.257	-0.095
-83.655	-200.000	-0.003	0.067
-82.640	-200.000	-0.013	-0.225
-81.626	-79.649	0.245	0.081
-80.611	11.901	0.150	0.112
-79.597	-129.383	-0.284	0.039
-78.582	319.835	0.158	-0.293
-77.567	-79.016	0.121	-0.040
-76.553	800.000	0.022	-0.073
-75.538	-200.000	0.048	0.293
-74.524	800.000	0.070	-0.287
-73.509	-20.392	-0.101	-0.061
-72.494	93.164	-0.042	-0.046
-71.480	-42.174	0.168	0.084
-70.465	195.044	-0.192	-0.285
-69.451	-200.000	-0.007	0.106
-68.436	202.303	-0.086	-0.129
-67.422	-97.864	0.151	0.038
-66.407	-200.000	-0.041	0.219
-65.392	-200.000	-0.068	0.347
-64.378	102.373	0.245	0.279
-63.363	-102.848	0.262	0.061
-62.349	-46.900	0.337	0.160
-61.334	6.881	-1.422	-1.033
-60.319	97.329	0.678	0.759
-59.305	495.956	-0.452	-1.014
-58.290	78.875	0.979	1.022
-57.276	800.000	0.397	1.476
-56.261	-200.000	122.552	615.913
-55.246	378.458	1583.470	3158.498
-54.232	139.674	2752.512	3534.145
-53.217	94.241	2208.969	2444.395
-52.203	35.128	1719.889	1468.882
-51.188	27.726	1534.885	1259.930
-50.173	25.595	1510.546	1225.404
-49.159	47.476	1578.150	1433.851
-48.144	45.760	1592.166	1434.535
-47.130	27.722	1542.940	1266.311
-46.115	24.886	1526.745	1233.464
-45.100	24.633	1523.752	1229.253
-44.086	24.667	1521.082	1227.282
-43.071	24.660	1519.322	1225.769
-42.057	24.545	1518.016	1223.879
-41.042	24.593	1516.253	1222.737
-40.027	24.624	1514.744	1221.685
-39.013	24.677	1512.990	1220.583
-37.998	24.601	1511.702	1218.974
-36.984	24.525	1511.152	1217.967
-35.969	24.694	1509.173	1217.472
-34.954	24.686	1507.559	1216.066
-33.940	24.577	1506.901	1214.750
-32.925	24.619	1505.234	1213.642
-31.911	24.623	1504.201	1212.789
-30.896	24.749	1502.482	1212.207
-29.881	24.719	1501.353	1211.042
-28.867	24.669	1500.054	1209.609
-27.852	24.629	1498.869	1208.335
-26.838	24.664	1497.465	1207.395
-25.823	24.650	1495.483	1205.650
-24.809	24.597	1494.485	1204.444
-23.794	24.668	1492.459	1203.238
-22.779	24.536	1491.869	1201.826
-21.765	24.616	1490.839	1201.493
-20.750	24.659	1489.710	1200.824
-19.736	24.672	1488.655	1200.010
-18.721	24.625	1487.406	1198.642
-17.706	24.615	1486.151	1197.511
-16.692	24.610	1485.341	1196.783
-15.677	24.634	1483.880	1195.714
-14.663	24.595	1483.493	1195.098
-13.648	24.626	1482.488	1194.449
-12.633	24.599	1481.384	1193.329
-11.619	24.630	1480.728	1192.963
-10.604	24.621	1479.651	1191.988
-9.590	24.654	1478.774	1191.454
-8.575	24.671	1477.838	1190.763
-7.560	24.610	1476.766	1189.448
-6.546	24.614	1475.665	1188.542
-5.531	24.548	1475.466	1187.896
-4.517	24.601	1473.990	1187.011
-3.502	24.610	1473.101	1186.307
-2.487	24.583	1472.148	1185.312
-1.473	24.693	1470.949	1185.031
-0.458	24.673	1470.014	1184.094
0.556	23.667	1460.079	1173.618
1.571	20.673	1435.186	1134.025
2.586	17.346	1372.840	1063.888
3.600	15.648	1287.711	987.854
4.615	14.495	1243.798	947.532
5.629	12.731	1186.767	894.434
6.644	6.605	1103.424	800.535
7.659	1.433	1066.618	748.340
8.673	0.844	1061.113	741.526
9.688	0.723	1057.670	738.460
10.702	0.686	1056.468	737.379
11.717	0.687	1054.451	735.907
12.731	2.657	1056.201	746.669
13.746	9.071	1064.690	784.011
14.761	14.917	1072.109	818.079
15.775	17.023	1073.942	829.718
16.790	16.920	1072.391	827.944
17.804	15.942	1070.663	821.766
18.819	15.041	1068.799	815.873
19.834	14.470	1067.910	812.340
20.848	14.347	1066.869	810.876
21.863	14.077	1065.939	808.785
22.877	13.896	1064.941	807.076
23.892	13.674	1064.029	805.237
24.907	13.551	1063.243	803.972
25.921	13.542	1062.620	803.389
26.936	13.563	1061.771	802.777
27.950	13.624	1060.829	802.287
28.965	13.583	1060.228	801.566
29.980	13.656	1059.626	801.394
30.994	13.585	1058.757	800.321
32.009	13.807	1057.282	800.207
33.023	13.789	1057.307	800.068
34.038	13.756	1056.382	799.138
35.053	13.785	1055.283	798.373
36.067	13.798	1054.216	797.560
37.082	13.716	1053.533	796.580
38.096	13.744	1052.578	795.919
39.111	13.694	1051.861	795.068
40.126	13.693	1051.094	794.414
41.140	13.758	1049.734	793.625
42.155	13.673	1049.049	792.630
43.169	13.567	1047.919	791.202
44.184	13.504	1046.817	789.997
45.199	13.489	1045.704	789.015
46.213	13.587	1044.776	788.712
47.228	13.593	1044.014	788.099
48.242	13.694	1042.534	787.391
49.257	13.619	1041.683	786.319
50.271	13.655	1041.008	785.914
51.286	13.578	1039.943	784.673
52.301	13.614	1039.480	784.425
53.315	13.660	1038.349	783.722
54.330	13.659	1037.248	782.816
55.344	13.711	1036.536	782.452
56.359	13.520	1035.413	780.638
57.374	13.655	1034.662	780.637
58.388	13.536	1034.160	779.630
59.403	13.637	1033.135	779.262
60.417	13.533	1033.182	778.740
61.432	13.530	1032.092	777.835
62.447	13.565	1030.965	777.082
63.461	13.693	1029.839	776.762
64.476	13.434	1029.387	775.143
65.490	13.573	1028.119	774.770
66.505	13.501	1027.673	774.028
67.520	13.641	1026.235	773.530
68.534	13.615	1025.826	773.033
69.549	13.772	1024.839	772.949
70.563	13.652	1024.308	771.922
71.578	13.523	1023.984	771.012
72.593	13.556	1023.025	770.373
73.607	13.612	1021.978	769.777
74.622	13.573	1021.225	768.961
75.636	13.572	1019.916	767.902
76.651	13.385	1019.908	766.962
77.666	13.437	1018.601	766.152
78.680	13.408	1018.465	765.848
79.695	13.584	1017.478	765.849
80.709	13.472	1017.347	765.165
81.724	13.554	1015.720	764.253
82.739	13.486	1015.078	763.389
83.753	13.560	1014.533	763.252
84.768	13.714	1013.136	762.841
85.782	13.752	1012.620	762.560
86.797	13.783	1012.055	762.211
87.812	13.564	1011.595	760.793
88.826	13.607	1010.680	760.233
89.841	13.700	1009.259	759.521
90.855	13.661	1008.920	759.021
91.870	13.768	1008.170	758.882
92.884	13.769	1007.377	758.219
93.899	13.745	1006.478	757.369
94.914	13.759	1005.713	756.786
95.928	13.874	1005.013	756.721
96.943	13.790	1004.475	755.865
97.957	13.739	1003.747	755.018
98.972	13.839	1002.878	754.753
99.987	13.765	1001.933	753.640
101.001	13.925	1001.060	753.643
102.016	13.763	1000.600	752.491
103.030	13.784	999.454	751.659
104.045	13.883	998.208	751.105
105.060	13.854	997.366	750.272
106.074	13.805	996.540	749.365
107.089	13.793	995.695	748.606
108.103	13.757	994.898	747.780
109.118	13.674	994.318	746.904
110.133	13.546	993.744	745.833
111.147	13.706	992.327	745.422
112.162	13.582	991.422	744.119
113.176	13.724	990.609	744.081
114.191	13.745	989.343	743.158
115.206	13.671	988.971	742.479
116.220	13.780	987.960	742.143
117.235	13.695	987.269	741.178
118.249	13.751	986.124	740.502
119.264	13.768	985.254	739.861
120.279	13.617	984.959	738.897
121.293	13.629	984.021	738.186
122.308	13.701	982.786	737.514
123.322	13.628	982.176	736.667
124.337	13.727	981.173	736.287
125.352	13.667	979.908	735.008
126.366	13.730	978.767	734.366
127.381	13.624	977.967	733.232
128.395	13.697	976.762	732.584
129.410	13.677	975.618	731.573
130.424	13.649	974.761	730.744
131.439	13.600	974.334	730.144
132.454	13.626	973.429	729.514
133.468	13.755	972.353	729.212
134.483	13.739	972.065	728.859
135.497	13.747	970.718	727.820
136.512	13.807	970.206	727.636
137.527	13.840	969.528	727.208
138.541	13.870	968.578	726.560
139.556	13.743	968.235	725.684
140.570	13.812	967.328	725.240
141.585	13.749	966.383	724.195
142.600	13.861	965.731	724.130
143.614	13.858	964.939	723.460
144.629	13.843	964.380	722.908
145.643	13.933	963.554	722.621
146.658	13.919	962.939	722.034
147.673	13.915	961.700	721.021
148.687	14.028	960.605	720.627
149.702	13.931	959.699	719.466
150.716	13.829	959.125	718.530
151.731	13.990	958.126	718.412
152.746	13.949	957.667	717.827
153.760	13.890	956.779	716.845
154.775	13.791	956.205	715.924
155.789	13.926	955.489	715.906
156.804	14.042	954.322	715.466
157.819	13.989	953.500	714.562
158.833	14.118	952.988	714.669
159.848	14.101	953.007	714.544
160.862	14.028	952.244	713.598
161.877	14.045	951.204	712.828
162.892	14.000	950.396	711.967
163.906	13.858	949.869	710.900
164.921	14.035	948.279	710.404
165.935	14.049	947.969	710.169
166.950	13.970	947.325	709.287
167.964	14.086	945.371	708.254
168.979	14.000	944.672	707.302
169.994	14.030	943.892	706.782
171.008	14.085	942.978	706.270
172.023	14.109	942.189	705.717
173.037	13.978	941.870	704.863
174.052	14.073	940.882	704.462
175.067	14.103	939.891	703.783
176.081	14.118	939.359	703.388
177.096	14.079	938.335	702.392
178.110	13.999	937.679	701.502
179.125	14.176	936.604	701.383
180.140	14.194	935.777	700.776
181.154	14.103	935.402	700.050
182.169	14.085	934.796	699.462
183.183	14.038	934.284	698.817
184.198	14.370	932.981	699.174
185.213	14.366	932.324	698.603
186.227	14.269	932.389	698.183
187.242	14.326	931.867	697.971
188.256	14.430	930.791	697.539
189.271	14.380	930.097	696.747
190.286	14.416	929.378	696.295
191.300	14.345	928.455	695.248
192.315	14.185	927.953	694.142
193.329	14.237	927.277	693.791
194.344	14.357	926.266	693.473
195.359	14.434	925.814	693.394
196.373	14.365	925.620	692.902
197.388	14.396	924.932	692.454
198.402	14.295	924.912	691.960
199.417	14.440	924.042	691.847
200.432	14.489	923.676	691.714
201.446	14.461	923.197	691.180
202.461	14.526	922.619	690.956
203.475	14.612	922.128	690.881
204.490	14.618	921.323	690.243
205.504	14.532	920.725	689.379
206.519	14.534	919.800	688.634
207.534	14.514	919.265	688.088
208.548	14.567	918.234	687.474
209.563	14.511	917.328	686.506
210.577	14.530	917.087	686.343
211.592	14.593	916.111	685.812
212.607	14.625	915.732	685.597
213.621	14.677	915.079	685.259
214.636	14.587	914.800	684.620
215.650	14.677	913.838	684.209
216.665	14.787	913.002	683.974
217.680	14.622	913.057	683.278
218.694	14.739	912.370	683.183
219.709	14.760	911.341	682.437
220.723	14.858	910.776	682.353
221.738	14.786	909.854	681.310
222.753	14.842	909.484	681.200
223.767	14.805	908.586	680.318
224.782	14.879	907.745	679.929
225.796	14.866	907.353	679.523
226.811	14.735	906.622	678.383
227.826	14.933	905.822	678.528
228.840	14.935	904.978	677.844
229.855	14.913	904.432	677.286
230.869	14.875	903.965	676.720
231.884	14.819	903.156	675.831
232.899	14.951	901.861	675.333
233.913	14.930	901.648	675.029
234.928	14.784	900.934	673.845
235.942	14.948	900.219	673.913
236.957	14.850	899.797	673.144
237.972	14.865	899.165	672.672
238.986	14.906	898.104	671.982
240.001	15.170	897.455	672.498
241.015	14.959	897.212	671.410
242.030	14.935	896.379	670.629
243.045	14.971	895.792	670.276
244.059	15.046	895.051	669.963
245.074	15.194	894.009	669.715
246.088	15.102	893.793	669.127
247.103	15.002	893.706	668.603
248.117	15.124	892.774	668.332
249.132	15.132	892.108	667.807
250.147	15.135	891.556	667.347
251.161	15.130	890.741	666.659
252.176	15.316	889.639	666.511
253.190	15.331	889.170	666.163
254.205	15.327	888.710	665.743
255.220	15.435	888.167	665.705
256.234	15.373	887.534	664.926
257.249	15.329	887.035	664.319
258.263	15.380	886.167	663.813
259.278	15.230	886.213	663.193
260.293	15.409	885.062	662.983
261.307	15.557	884.457	663.055
262.322	15.542	884.037	662.620
263.336	15.489	883.352	661.841
264.351	15.741	882.458	662.102
265.366	15.521	881.967	660.812
266.380	15.586	881.311	660.515
267.395	15.669	880.330	660.047
268.409	15.639	879.855	659.516
269.424	15.514	879.550	658.741
270.439	15.514	878.813	658.130
271.453	15.568	878.115	657.760
272.468	15.476	877.407	656.810
273.482	15.555	876.870	656.658
274.497	15.695	876.202	656.647
275.512	15.697	875.543	656.102
276.526	15.593	874.636	654.962
277.541	15.496	874.408	654.354
278.555	15.749	873.513	654.612
279.570	15.729	872.702	653.870
280.585	15.929	871.970	654.038
281.599	15.855	871.970	653.694
282.614	15.817	871.452	653.100
283.628	15.750	870.870	652.345
284.643	15.725	870.152	651.654
285.657	15.790	869.632	651.458
286.672	15.889	869.023	651.328
287.687	15.830	868.506	650.657
288.701	15.942	867.880	650.561
289.716	15.846	867.502	649.850
290.730	15.968	866.641	649.618
291.745	16.032	865.934	649.275
292.760	15.868	865.605	648.340
293.774	15.898	864.957	647.912
294.789	16.065	864.254	647.971
295.803	15.963	863.955	647.296
296.818	15.956	863.119	646.588
297.833	16.087	862.277	646.401
298.847	16.154	861.376	645.924
299.862	15.948	861.116	644.884
300.876	16.157	860.373	645.071
301.891	16.105	860.040	644.564
302.906	16.126	859.104	643.885
303.920	16.089	858.282	643.074
304.935	16.078	857.921	642.701
305.949	16.196	857.042	642.438
306.964	16.208	856.619	642.110
307.979	16.223	855.999	641.645
308.993	16.195	855.620	641.198
310.008	16.395	855.141	641.542
311.022	16.435	854.412	641.087
312.037	16.324	854.044	640.335
313.052	16.318	853.466	639.823
314.066	16.237	852.665	638.858
315.081	16.354	852.255	638.938
316.095	16.243	852.052	638.311
317.110	16.297	851.138	637.772
318.125	16.271	850.783	637.352
319.139	16.319	850.131	636.988
320.154	16.204	849.704	636.178
321.168	16.358	848.694	635.944
322.183	16.366	848.236	635.574
323.197	16.269	847.886	634.892
324.212	16.316	847.438	634.678
325.227	16.363	846.856	634.361
326.241	16.400	846.191	633.947
327.256	16.382	845.686	633.444
328.270	16.421	844.880	632.932
329.285	16.392	844.774	632.688
330.300	16.405	843.997	632.099
331.314	16.416	843.570	631.765
332.329	16.426	842.626	631.036
333.343	16.516	841.809	630.707
334.358	16.449	841.585	630.231
335.373	16.466	841.022	629.818
336.387	16.733	840.332	630.238
337.402	16.718	839.904	629.806
338.416	16.576	839.350	628.809
339.431	16.683	838.840	628.768
340.446	16.803	837.951	628.491
341.460	16.704	837.484	627.719
342.475	16.751	837.127	627.570
343.489	16.720	836.705	627.081
344.504	16.823	836.081	626.940
345.519	16.813	835.756	626.604
346.533	16.805	834.855	625.846
347.548	16.867	834.465	625.724
348.562	16.895	833.936	625.376
349.577	16.961	833.742	625.421
350.592	16.815	833.079	624.327
351.606	16.829	832.370	623.793
352.621	16.795	831.955	623.304
353.635	16.816	831.649	623.095
354.650	16.877	831.124	622.872
355.665	16.916	830.527	622.512
356.679	16.959	830.143	622.328
357.694	16.836	829.825	621.582
358.708	16.945	829.041	621.340
359.723	17.056	828.466	621.259
360.738	17.005	827.790	620.509
361.752	16.990	827.531	620.208
362.767	16.896	827.079	619.470
363.781	17.045	826.648	619.635
364.796	17.128	826.223	619.566
365.810	17.059	825.686	618.857
366.825	17.149	825.515	619.000
367.840	17.251	824.732	618.732
368.854	17.134	824.351	617.964
369.869	17.031	824.430	617.595
370.883	17.124	823.510	617.187
371.898	17.228	822.948	617.091
372.913	17.342	822.214	616.900
373.927	17.254	821.946	616.324
374.942	17.097	821.310	615.222
375.956	17.391	820.449	615.586
376.971	17.284	820.134	614.909
377.986	17.374	819.219	614.494
379.000	17.338	818.984	614.135
380.015	17.522	818.175	614.138
381.029	17.478	817.681	613.555
382.044	17.480	816.883	612.907
383.059	17.346	816.878	612.367
384.073	17.546	815.907	612.304
385.088	17.496	815.606	611.846
386.102	17.411	815.168	611.156
387.117	17.386	814.720	610.676
388.132	17.288	814.067	609.783
389.146	17.361	813.674	609.695
390.161	17.503	813.536	610.047
391.175	17.466	812.649	609.194
392.190	17.699	812.751	610.054
393.205	17.392	812.324	608.579
394.219	17.448	811.480	608.095
395.234	17.516	811.081	607.982
396.248	17.578	810.684	607.851
397.263	17.510	810.174	607.174
398.278	17.531	809.708	606.846
399.292	17.466	809.236	606.209
400.307	17.493	808.972	606.052
401.321	17.454	808.835	605.757
402.336	17.666	808.042	605.863
403.350	17.563	807.423	604.980
404.365	17.541	807.603	604.983
405.380	17.675	806.386	604.494
406.394	17.810	805.864	604.525
407.409	17.920	805.406	604.518
408.423	17.704	805.573	603.824
409.438	17.753	804.916	603.453
410.453	17.773	804.557	603.203
411.467	17.748	804.163	602.765
412.482	17.926	803.210	602.626
413.496	17.805	803.059	602.029
414.511	17.903	802.245	601.713
415.526	17.826	802.387	601.494
416.540	17.976	801.724	601.471
417.555	18.064	801.586	601.625
418.569	17.961	801.023	600.786
419.584	18.043	800.414	600.568
420.599	17.946	800.131	599.961
421.613	114.510	1297.155	1487.048
422.628	98.781	1369.517	1487.141
