DTS Sentinel unit serial number:	SN413079Multiplexer serial number:	ORYXHardware model number:	OX4-SRSoftware version number:	ORYX F/W v4.00 Oryx Data Collector v3.7.2.0data status	okinstallation	princeton_trtdifferential loss correction	single-endedforward channel	channel 3reverse channel	N/Adate	2019/09/16time	23:12:35forward acquisition time	60.00reverse acquisition time	0.00gamma	496.2192k internal	0.2326k external	0.2326temperature offset calibration	0.9938default loss term (dB/km)	0.3790temperature slope calibration	1.0000multiplexer offset coefficient	1.0000multiplexer slope coefficient	1.0000fibre end	0.00T internal ref (°C)	30.14T ext. ref 1 (°C)	0.09T ext. ref 2 (°C)	23.81length (m)	temperature (°C)	Stokes	anti-Stokes-747.200	-45.536	-0.069	-0.034
-746.185	59.169	0.219	0.217
-745.171	-68.153	-0.086	0.034
-744.156	-200.000	0.040	0.436
-743.142	800.000	-0.048	0.188
-742.127	144.161	-0.129	0.174
-741.112	224.739	0.078	0.127
-740.098	79.238	0.150	0.162
-739.083	-129.959	0.083	0.011
-738.069	-200.000	0.030	0.239
-737.054	-13.416	-0.178	0.117
-736.039	139.915	-0.122	-0.162
-735.025	-75.833	-0.144	-0.051
-734.010	71.702	-0.181	0.190
-732.996	-50.408	-0.346	-0.165
-731.981	107.868	0.090	0.108
-730.966	669.047	-0.082	0.215
-729.952	-140.302	0.410	0.043
-728.937	-14.938	-0.144	-0.093
-727.923	-51.162	0.161	-0.076
-726.908	261.084	-0.154	-0.269
-725.894	-200.000	-0.017	0.150
-724.879	-102.590	-0.229	-0.055
-723.864	-200.000	0.017	-0.113
-722.850	294.620	-0.060	0.110
-721.835	-78.521	-0.021	-0.007
-720.821	-142.315	0.191	-0.019
-719.806	-80.237	0.231	-0.078
-718.791	-200.000	0.072	0.454
-717.777	91.317	0.052	-0.059
-716.762	-26.656	0.175	0.103
-715.748	800.000	-0.102	0.298
-714.733	150.086	-0.095	0.130
-713.718	174.340	0.082	0.119
-712.704	-200.000	-0.008	-0.246
-711.689	-120.861	0.135	-0.023
-710.675	-139.824	0.013	-0.001
-709.660	-101.953	-0.073	-0.018
-708.645	-200.000	0.001	-0.043
-707.631	-104.496	-0.283	0.066
-706.616	108.296	0.220	0.265
-705.602	255.458	-0.116	-0.201
-704.587	21.795	0.075	-0.061
-703.572	31.008	0.159	0.137
-702.558	284.188	-0.116	0.210
-701.543	-154.685	-0.142	0.010
-700.529	-200.000	0.016	0.125
-699.514	-200.000	-0.004	0.209
-698.499	408.801	0.056	-0.118
-697.485	251.871	0.102	-0.175
-696.470	-51.969	0.154	-0.072
-695.456	-200.000	0.003	0.254
-694.441	-94.066	0.210	-0.058
-693.426	80.054	0.033	-0.036
-692.412	-200.000	0.001	-0.199
-691.397	800.000	0.031	-0.121
-690.383	201.147	-0.117	-0.181
-689.368	800.000	0.046	-0.142
-688.354	800.000	0.162	-0.482
-687.339	436.655	-0.024	-0.052
-686.324	575.268	0.117	-0.287
-685.310	-76.589	-0.445	-0.157
-684.295	-105.886	-0.508	-0.115
-683.281	-55.714	-0.353	0.159
-682.266	-95.147	0.460	-0.125
-681.251	800.000	0.034	0.129
-680.237	-200.000	0.032	-0.205
-679.222	30.467	0.164	-0.141
-678.208	-93.075	-0.141	-0.040
-677.193	-68.053	-0.384	-0.150
-676.178	374.542	0.106	0.216
-675.164	-118.665	0.241	-0.043
-674.149	-19.696	-0.141	-0.088
-673.135	-125.028	-0.168	0.026
-672.120	207.200	0.117	-0.184
-671.105	262.685	0.036	-0.062
-670.091	185.570	-0.163	0.244
-669.076	205.382	0.111	-0.174
-668.062	723.838	0.086	-0.230
-667.047	41.543	-0.201	-0.183
-666.032	-102.848	-0.093	-0.022
-665.018	-69.688	0.178	0.068
-664.003	91.924	-0.139	0.157
-662.989	-200.000	0.014	0.277
-661.974	-108.811	-0.277	-0.060
-660.959	-104.498	-0.182	-0.042
-659.945	-112.073	0.326	0.066
-658.930	800.000	-0.028	0.101
-657.916	-200.000	-0.007	-0.145
-656.901	-91.109	-0.370	-0.107
-655.886	-200.000	0.012	-0.238
-654.872	49.288	-0.186	0.176
-653.857	86.438	-0.160	0.177
-652.843	31.846	-0.253	0.219
-651.828	-93.715	-0.376	-0.104
-650.814	-200.000	0.000	0.034
-649.799	266.967	0.133	-0.234
-648.784	800.000	-0.082	-0.291
-647.770	36.562	-0.182	0.162
-646.755	701.857	0.041	0.108
-645.741	-200.000	0.057	-0.322
-644.726	-153.065	0.166	0.012
-643.711	800.000	0.096	0.293
-642.697	225.719	-0.067	-0.109
-641.682	305.417	0.102	0.190
-640.668	-86.676	0.184	0.057
-639.653	-64.016	0.250	-0.103
-638.638	-0.532	-0.009	-0.006
-637.624	105.900	0.133	-0.158
-636.609	-151.719	-0.198	-0.015
-635.595	-77.041	-0.113	0.039
-634.580	735.010	0.120	-0.324
-633.565	22.165	-0.210	-0.172
-632.551	301.751	-0.231	-0.429
-631.536	-143.083	0.251	-0.024
-630.522	87.947	-0.261	0.290
-629.507	210.723	0.031	-0.049
-628.492	-125.891	-0.098	0.015
-627.478	-87.268	0.224	0.068
-626.463	-200.000	-0.018	-0.165
-625.449	-200.000	-0.018	0.088
-624.434	-116.113	0.367	0.068
-623.419	-135.793	-0.164	0.019
-622.405	107.095	-0.130	-0.155
-621.390	-87.631	-0.207	-0.063
-620.376	488.025	-0.218	0.501
-619.361	800.000	0.085	-0.261
-618.346	89.886	-0.083	0.093
-617.332	-121.531	-0.545	0.091
-616.317	287.908	-0.265	-0.482
-615.303	-152.843	-0.010	0.001
-614.288	-200.000	-0.009	0.200
-613.273	-76.506	-0.093	0.033
-612.259	-65.722	-0.341	0.137
-611.244	131.991	-0.243	-0.314
-610.230	106.961	0.274	0.326
-609.215	-200.000	0.003	0.232
-608.201	-200.000	-0.004	-0.306
-607.186	-200.000	-0.055	-0.291
-606.171	-86.280	0.318	-0.098
-605.157	266.904	0.057	-0.100
-604.142	129.564	-0.156	-0.200
-603.128	-85.580	-0.172	-0.054
-602.113	-29.429	-0.019	-0.011
-601.098	800.000	-0.081	-0.238
-600.084	162.105	-0.142	0.200
-599.069	-14.604	0.293	0.189
-598.055	-156.011	0.366	-0.023
-597.040	800.000	0.046	0.198
-596.025	-200.000	-0.014	-0.263
-595.011	800.000	-0.023	-0.097
-593.996	-89.165	-0.224	0.066
-592.982	69.850	0.258	0.267
-591.967	800.000	-0.110	0.334
-590.952	65.765	-0.308	-0.313
-589.938	325.878	-0.061	0.117
-588.923	-200.000	-0.005	0.306
-587.909	-136.198	-0.275	0.032
-586.894	800.000	0.127	-0.432
-585.879	-200.000	0.010	-0.065
-584.865	197.808	-0.131	-0.200
-583.850	492.186	0.149	-0.342
-582.836	-200.000	-0.021	-0.109
-581.821	-85.400	-0.160	0.050
-580.806	67.889	-0.150	0.154
-579.792	428.141	-0.032	0.070
-578.777	-200.000	0.021	0.225
-577.763	-127.292	0.240	-0.035
-576.748	118.287	0.101	-0.125
-575.733	2.981	0.102	-0.074
-574.719	61.018	0.349	0.347
-573.704	-105.380	-0.227	-0.052
-572.690	390.045	0.027	0.055
-571.675	37.855	0.183	0.163
-570.661	-200.000	0.060	-0.291
-569.646	-46.659	0.291	-0.143
-568.631	-200.000	0.012	-0.075
-567.617	166.873	0.065	-0.093
-566.602	-200.000	0.011	-0.205
-565.588	35.923	-0.215	0.189
-564.573	578.687	-0.077	-0.189
-563.558	-31.114	0.216	0.122
-562.544	135.094	-0.113	-0.148
-561.529	800.000	-0.080	-0.259
-560.515	13.919	-0.330	-0.257
-559.500	-82.864	0.084	-0.027
-558.485	-200.000	-0.223	0.001
-557.471	-94.881	0.095	0.026
-556.456	-200.000	-0.012	0.085
-555.442	-96.907	-0.110	-0.029
-554.427	46.392	-0.115	-0.107
-553.412	-120.648	0.262	0.044
-552.398	800.000	-0.085	0.351
-551.383	151.056	0.052	-0.071
-550.369	265.341	0.168	-0.293
-549.354	-21.297	0.044	-0.027
-548.339	775.127	-0.032	-0.089
-547.325	669.601	-0.075	0.194
-546.310	-200.000	-0.026	0.303
-545.296	83.611	-0.125	-0.137
-544.281	-200.000	0.011	-0.098
-543.266	-35.082	0.163	0.089
-542.252	-200.000	0.213	0.001
-541.237	-200.000	0.029	0.302
-540.223	-96.455	-0.229	-0.060
-539.208	701.600	-0.111	-0.293
-538.193	515.958	0.075	-0.176
-537.179	29.714	0.205	0.174
-536.164	-113.732	-0.168	0.033
-535.150	-132.704	0.042	0.005
-534.135	800.000	-0.082	-0.226
-533.121	800.000	0.057	0.213
-532.106	657.907	0.065	0.167
-531.091	-148.734	0.108	0.009
-530.077	218.507	-0.149	-0.238
-529.062	-193.589	0.159	0.001
-528.048	-158.243	0.166	-0.010
-527.033	800.000	0.041	0.116
-526.018	542.294	0.093	0.221
-525.004	-75.986	-0.254	0.090
-523.989	-10.568	-0.196	-0.130
-522.975	-200.000	-0.027	-0.120
-521.960	800.000	-0.093	-0.353
-520.945	-28.488	0.041	0.023
-519.931	224.554	0.151	-0.243
-518.916	-52.516	-0.130	0.060
-517.902	-26.591	-0.133	-0.078
-516.887	-40.624	0.148	0.077
-515.872	124.276	-0.154	0.193
-514.858	250.517	-0.063	-0.107
-513.843	-134.624	-0.103	0.013
-512.829	75.995	-0.184	-0.194
-511.814	-200.000	-0.028	0.127
-510.799	800.000	-0.102	-0.318
-509.785	-200.000	0.012	0.182
-508.770	-87.974	-0.101	0.030
-507.756	199.055	-0.164	0.251
-506.741	37.021	-0.304	-0.269
-505.726	433.634	0.105	-0.228
-504.712	12.604	-0.084	-0.065
-503.697	136.609	0.114	-0.149
-502.683	-33.748	0.012	0.006
-501.668	-88.634	-0.117	-0.035
-500.653	-10.470	0.335	0.222
-499.639	-116.442	0.290	-0.053
-498.624	800.000	-0.148	0.445
-497.610	9.263	-0.096	-0.072
-496.595	-94.843	-0.151	-0.041
-495.581	581.696	0.040	-0.098
-494.566	58.961	0.162	0.159
-493.551	-85.594	-0.061	-0.019
-492.537	800.000	-0.029	-0.081
-491.522	-131.176	-0.208	0.028
-490.508	-200.000	0.031	0.236
-489.493	224.354	0.200	0.324
-488.478	-49.107	0.180	0.086
-487.464	-11.757	-0.038	0.025
-486.449	-200.000	-0.013	-0.236
-485.435	-25.767	-0.174	-0.102
-484.420	-200.000	0.051	-0.254
-483.405	800.000	-0.070	-0.244
-482.391	-8.040	0.075	0.050
-481.376	412.985	0.098	0.208
-480.362	800.000	-0.052	0.194
-479.347	412.472	-0.047	0.101
-478.332	325.630	-0.110	-0.209
-477.318	-200.000	-0.065	0.440
-476.303	-52.256	0.209	0.097
-475.289	26.703	0.341	0.285
-474.274	33.541	0.315	0.273
-473.259	200.458	0.174	-0.268
-472.245	80.014	0.105	-0.112
-471.230	163.709	-0.044	0.062
-470.216	651.017	-0.118	-0.301
-469.201	-200.000	-0.033	0.188
-468.186	-10.958	0.116	-0.076
-467.172	-106.792	-0.157	0.035
-466.157	-106.612	-0.312	0.069
-465.143	-140.268	-0.122	-0.013
-464.128	87.937	-0.152	0.168
-463.113	155.062	0.053	-0.073
-462.099	33.883	-0.185	-0.161
-461.084	791.470	-0.055	-0.150
-460.070	6.047	0.173	0.128
-459.055	42.579	0.310	-0.281
-458.040	-101.585	-0.050	-0.012
-457.026	-200.000	-0.016	0.189
-456.011	-92.132	0.015	-0.004
-454.997	78.576	0.167	0.178
-453.982	127.643	0.160	-0.202
-452.968	-77.686	-0.180	-0.062
-451.953	-200.000	0.069	0.316
-450.938	-146.664	-0.335	-0.029
-449.924	-200.000	-0.045	-0.324
-448.909	800.000	-0.035	-0.095
-447.895	-79.340	-0.112	0.038
-446.880	-34.302	0.138	-0.076
-445.865	546.588	-0.063	-0.150
-444.851	218.366	0.096	0.153
-443.836	53.032	0.115	-0.110
-442.822	257.741	0.181	0.310
-441.807	-50.783	-0.072	-0.034
-440.792	107.536	-0.040	-0.048
-439.778	71.089	-0.326	-0.337
-438.763	30.199	0.285	-0.242
-437.749	-200.000	0.001	-0.274
-436.734	800.000	-0.080	-0.333
-435.719	-48.571	-0.069	0.033
-434.705	-200.000	0.031	0.269
-433.690	94.831	-0.069	-0.078
-432.676	748.204	0.085	0.229
-431.661	447.253	0.044	0.097
-430.646	800.000	0.017	0.047
-429.632	-169.149	0.193	0.007
-428.617	169.575	0.169	0.241
-427.603	356.574	0.069	-0.137
-426.588	-73.209	0.133	0.049
-425.573	746.157	-0.052	-0.140
-424.559	-77.830	-0.355	0.122
-423.544	253.792	0.104	-0.177
-422.530	427.748	-0.048	0.104
-421.515	-35.453	-0.196	0.106
-420.500	-33.804	-0.032	0.018
-419.486	-106.539	0.123	0.027
-418.471	57.631	0.070	-0.068
-417.457	287.455	0.078	-0.141
-416.442	-112.814	0.097	-0.019
-415.428	-162.585	-0.209	0.010
-414.413	800.000	-0.028	-0.114
-413.398	-46.520	0.149	0.073
-412.384	702.243	0.103	0.270
-411.369	281.092	-0.092	-0.163
-410.355	800.000	-0.100	0.319
-409.340	86.898	-0.164	-0.181
-408.325	-52.649	-0.154	0.071
-407.311	168.102	0.084	0.118
-406.296	-39.231	-0.224	0.117
-405.282	-88.615	-0.019	-0.006
-404.267	343.679	-0.067	-0.130
-403.252	-5.019	0.201	-0.138
-402.238	800.000	0.033	0.138
-401.223	-200.000	0.030	-0.362
-400.209	202.171	0.070	0.107
-399.194	-177.204	-0.233	-0.006
-398.179	22.694	-0.122	0.099
-397.165	-49.235	-0.251	-0.119
-396.150	127.748	0.094	-0.119
-395.136	-186.517	-0.302	-0.004
-394.121	327.695	-0.096	-0.184
-393.106	-110.177	-0.213	0.044
-392.092	-96.630	0.481	-0.126
-391.077	-200.000	-0.026	0.182
-390.063	395.689	0.168	-0.350
-389.048	-161.438	0.437	0.022
-388.033	-8.655	-0.162	0.108
-387.019	-9.841	0.262	-0.174
-386.004	-140.312	0.387	0.040
-384.990	451.818	-0.090	-0.198
-383.975	800.000	0.083	-0.333
-382.960	800.000	-0.036	0.109
-381.946	800.000	-0.028	-0.096
-380.931	-21.433	-0.194	-0.118
-379.917	181.138	-0.058	0.085
-378.902	420.268	0.127	0.270
-377.888	26.220	0.209	-0.173
-376.873	800.000	0.097	0.374
-375.858	380.400	-0.105	0.215
-374.844	-200.000	0.006	-0.060
-373.829	-200.000	-0.009	-0.194
-372.815	-200.000	0.001	-0.051
-371.800	-39.498	0.223	-0.116
-370.785	800.000	-0.093	-0.257
-369.771	345.294	-0.198	0.387
-368.756	19.918	0.139	0.111
-367.742	-200.000	-0.041	-0.450
-366.727	-112.992	0.293	-0.058
-365.712	800.000	0.053	0.181
-364.698	-200.000	0.041	-0.186
-363.683	800.000	-0.087	-0.265
-362.669	800.000	-0.023	0.068
-361.654	126.356	-0.250	0.315
-360.639	562.040	0.030	0.073
-359.625	-52.266	0.070	-0.032
-358.610	-166.819	-0.337	-0.014
-357.596	118.339	0.237	0.290
-356.581	-43.559	-0.207	-0.104
-355.566	475.332	-0.099	0.221
-354.552	-200.000	-0.003	0.063
-353.537	468.807	0.069	0.154
-352.523	196.968	-0.196	0.296
-351.508	-200.000	-0.026	-0.192
-350.493	-36.125	0.312	-0.167
-349.479	339.146	-0.030	-0.058
-348.464	-200.000	0.032	0.215
-347.450	1.936	-0.194	0.139
-346.435	60.473	-0.052	-0.051
-345.420	25.655	0.233	-0.192
-344.406	-200.000	-0.060	0.389
-343.391	-137.110	0.202	-0.023
-342.377	-189.577	0.455	0.005
-341.362	216.524	0.090	0.142
-340.348	-148.179	0.197	-0.016
-339.333	528.635	0.068	0.159
-338.318	26.386	-0.099	-0.083
-337.304	-43.764	-0.173	0.086
-336.289	286.944	-0.209	0.375
-335.275	800.000	-0.027	-0.082
-334.260	-130.500	-0.286	0.038
-333.245	-200.000	0.001	-0.041
-332.231	-104.390	-0.100	0.023
-331.216	-64.390	-0.089	0.036
-330.202	6.306	-0.210	-0.155
-329.187	478.595	-0.068	0.152
-328.172	34.525	0.072	-0.062
-327.158	134.441	-0.177	-0.227
-326.143	-200.000	0.017	-0.266
-325.129	61.191	-0.017	0.017
-324.114	-200.000	-0.084	0.435
-323.099	-17.488	-0.191	-0.119
-322.085	228.608	0.111	-0.180
-321.070	-200.000	-0.028	-0.291
-320.056	397.058	-0.082	0.171
-319.041	-40.333	0.211	0.109
-318.026	291.792	-0.067	0.121
-317.012	-78.971	-0.305	0.103
-315.997	140.056	0.201	0.263
-314.983	-200.000	0.029	0.159
-313.968	-105.408	0.276	-0.062
-312.953	-10.449	-0.099	-0.065
-311.939	11.272	-0.174	0.132
-310.924	122.852	-0.142	-0.176
-309.910	-89.262	0.110	-0.032
-308.895	-200.000	0.003	0.066
-307.880	-200.000	0.030	-0.208
-306.866	-98.135	0.198	0.050
-305.851	-115.221	0.323	-0.061
-304.837	-109.807	0.143	0.030
-303.822	-200.000	0.053	0.233
-302.807	-92.978	-0.086	-0.024
-301.793	-200.000	0.014	0.185
-300.778	-112.354	0.310	0.062
-299.764	-147.409	-0.069	-0.006
-298.749	-48.019	-0.254	0.122
-297.735	89.527	0.116	0.129
-296.720	-171.104	0.181	0.006
-295.705	33.752	-0.220	0.190
-294.691	-158.104	0.148	-0.009
-293.676	-140.860	-0.151	-0.015
-292.662	519.899	0.109	-0.252
-291.647	800.000	-0.023	0.075
-290.632	-84.260	0.295	0.093
-289.618	-180.836	-0.420	-0.008
-288.603	377.609	-0.069	0.139
-287.589	538.489	-0.091	0.215
-286.574	800.000	-0.101	0.389
-285.559	7.731	0.175	-0.130
-284.545	184.121	0.246	-0.360
-283.530	440.182	0.056	-0.121
-282.516	-200.000	-0.008	-0.059
-281.501	25.813	-0.090	-0.074
-280.486	800.000	0.018	0.055
-279.472	-126.067	-0.161	0.024
-278.457	800.000	0.064	0.181
-277.443	-102.548	-0.301	-0.071
-276.428	-200.000	0.016	-0.082
-275.413	-200.000	-0.024	-0.229
-274.399	-136.863	0.193	-0.022
-273.384	614.608	-0.031	-0.076
-272.370	-105.909	-0.232	0.052
-271.355	800.000	0.097	-0.334
-270.340	800.000	-0.082	-0.301
-269.326	-98.883	-0.205	0.052
-268.311	-39.187	-0.262	-0.136
-267.297	-120.560	0.317	-0.053
-266.282	26.324	-0.087	-0.072
-265.267	800.000	0.064	0.248
-264.253	-200.000	-0.008	0.254
-263.238	43.202	0.053	-0.048
-262.224	-72.051	-0.180	0.066
-261.209	800.000	-0.122	0.397
-260.195	800.000	-0.086	0.288
-259.180	800.000	-0.034	-0.119
-258.165	181.243	-0.143	-0.208
-257.151	-43.919	-0.134	-0.067
-256.136	-53.136	-0.133	-0.060
-255.122	39.829	-0.148	0.132
-254.107	-200.000	0.022	-0.167
-253.092	407.541	-0.012	-0.025
-252.078	-15.899	0.312	0.197
-251.063	567.277	0.090	-0.217
-250.049	124.720	0.170	0.212
-249.034	19.988	-0.191	-0.153
-248.019	-12.898	0.295	-0.190
-247.005	-200.000	0.031	-0.235
-245.990	284.411	-0.174	-0.310
-244.976	-43.597	-0.079	-0.039
-243.961	54.241	0.110	0.105
-242.946	-11.368	-0.182	-0.118
-241.932	15.100	0.030	-0.023
-240.917	800.000	0.052	0.174
-239.903	136.530	0.105	0.135
-238.888	7.078	0.127	0.094
-237.873	-101.792	0.320	-0.077
-236.859	-150.129	-0.176	-0.013
-235.844	-30.416	-0.345	-0.194
-234.830	-200.000	-0.017	-0.244
-233.815	11.451	-0.347	0.263
-232.800	-39.625	0.103	-0.053
-231.786	-29.336	-0.165	0.094
-230.771	-200.000	-0.051	0.228
-229.757	26.984	0.160	-0.133
-228.742	23.343	0.089	0.072
-227.727	-43.565	-0.152	-0.076
-226.713	258.029	-0.007	-0.012
-225.698	-83.967	-0.089	0.028
-224.684	-200.000	0.002	-0.175
-223.669	-126.294	0.190	0.028
-222.655	84.950	0.160	0.173
-221.640	30.236	-0.170	-0.144
-220.625	-30.223	0.357	0.200
-219.611	800.000	0.067	0.204
-218.596	-200.000	0.032	-0.300
-217.582	45.484	-0.133	-0.121
-216.567	650.398	0.106	-0.269
-215.552	-2.457	-0.092	0.063
-214.538	-200.000	-0.002	-0.319
-213.523	683.650	0.023	-0.059
-212.509	-18.032	0.074	-0.046
-211.494	128.321	-0.052	-0.065
-210.479	-30.754	0.114	-0.064
-209.465	63.441	-0.161	0.159
-208.450	-200.000	0.100	0.469
-207.436	-200.000	0.008	0.352
-206.421	278.014	0.111	0.195
-205.406	-67.498	-0.329	-0.128
-204.392	-200.000	0.015	0.210
-203.377	124.340	0.105	-0.130
-202.363	-78.822	0.178	-0.060
-201.348	-137.812	0.183	-0.020
-200.333	-200.000	-0.001	-0.070
-199.319	-141.934	0.128	-0.013
-198.304	-159.780	-0.164	0.009
-197.290	800.000	0.061	0.261
-196.275	-92.887	0.130	0.036
-195.260	65.017	-0.037	0.037
-194.246	-200.000	-0.010	0.222
-193.231	-129.210	0.216	-0.030
-192.217	35.699	0.234	0.203
-191.202	165.324	0.082	0.114
-190.187	-200.000	-0.003	-0.037
-189.173	-118.951	0.083	0.014
-188.158	-181.961	-0.350	0.007
-187.144	-81.550	-0.253	-0.082
-186.129	90.615	0.008	0.009
-185.114	44.956	-0.260	-0.236
-184.100	389.107	-0.100	0.205
-183.085	800.000	-0.039	-0.109
-182.071	399.445	0.101	-0.209
-181.056	-200.000	-0.090	0.000
-180.042	88.915	0.324	0.355
-179.027	-15.813	0.279	0.175
-178.012	-69.730	0.124	-0.047
-176.998	74.742	-0.102	0.106
-175.983	794.648	0.021	0.057
-174.969	-200.000	0.084	0.424
-173.954	278.704	-0.174	0.307
-172.939	637.805	0.025	0.064
-171.925	-200.000	0.027	0.144
-170.910	111.223	-0.124	-0.147
-169.896	-3.905	-0.118	0.081
-168.881	190.359	0.253	0.374
-167.866	-107.023	0.460	0.100
-166.852	-72.750	0.218	-0.079
-165.837	-114.290	0.242	0.046
-164.823	-200.000	-0.077	-0.427
-163.808	-200.000	0.018	-0.159
-162.793	237.685	0.198	-0.324
-161.779	-200.000	0.002	-0.191
-160.764	-91.901	0.197	0.055
-159.750	308.121	-0.171	0.314
-158.735	800.000	0.050	0.153
-157.720	-82.337	0.351	0.113
-156.706	15.718	-0.103	0.080
-155.691	332.758	-0.032	-0.061
-154.677	800.000	0.099	0.303
-153.662	-95.284	-0.142	-0.038
-152.647	266.946	0.081	0.139
-151.633	-162.091	-0.077	-0.004
-150.618	567.979	-0.080	-0.192
-149.604	171.025	-0.115	-0.162
-148.589	624.514	-0.120	0.298
-147.574	-125.069	-0.473	0.072
-146.560	-5.843	-0.189	0.128
-145.545	-75.945	0.181	0.063
-144.531	249.937	-0.043	-0.071
-143.516	800.000	0.065	-0.258
-142.502	800.000	-0.048	-0.133
-141.487	-200.000	0.044	0.413
-140.472	-200.000	-0.010	-0.345
-139.458	250.226	0.032	-0.054
-138.443	-200.000	-0.002	0.112
-137.429	-200.000	0.024	0.210
-136.414	800.000	0.034	-0.115
-135.399	189.096	0.137	0.203
-134.385	800.000	-0.066	-0.280
-133.370	33.978	-0.034	0.029
-132.356	-116.000	0.116	0.021
-131.341	-40.545	-0.051	0.026
-130.326	-200.000	-0.002	-0.091
-129.312	172.584	0.098	0.139
-128.297	5.417	-0.088	0.064
-127.283	87.451	-0.194	0.212
-126.268	800.000	0.109	0.451
-125.253	800.000	0.027	-0.111
-124.239	800.000	-0.049	0.206
-123.224	800.000	0.008	-0.022
-122.210	19.944	0.318	0.252
-121.195	800.000	0.089	0.273
-120.180	73.311	0.418	0.431
-119.166	-200.000	-0.011	0.071
-118.151	-3.127	0.167	-0.115
-117.137	257.600	-0.110	0.185
-116.122	-200.000	-0.045	0.472
-115.107	-137.863	0.520	-0.057
-114.093	-70.872	0.288	-0.107
-113.078	233.147	-0.169	0.273
-112.064	-84.191	0.068	-0.021
-111.049	-200.000	0.005	-0.078
-110.034	-61.284	-0.423	0.175
-109.020	800.000	-0.081	-0.280
-108.005	-189.244	-0.317	0.004
-106.991	646.518	-0.111	-0.279
-105.976	320.592	0.076	-0.142
-104.962	541.446	0.041	0.097
-103.947	6.208	0.212	0.155
-102.932	10.622	-0.126	-0.095
-101.918	-30.209	-0.081	0.045
-100.903	43.270	0.300	-0.270
-99.889	800.000	-0.120	-0.333
-98.874	320.686	0.123	0.230
-97.859	-30.191	-0.137	0.077
-96.845	-200.000	0.009	-0.315
-95.830	-70.720	0.332	0.123
-94.816	7.979	0.182	-0.134
-93.801	-200.000	-0.033	0.144
-92.786	-81.546	0.385	0.124
-91.772	-80.616	-0.141	0.046
-90.757	315.853	-0.128	-0.237
-89.743	-200.000	0.005	-0.236
-88.728	151.798	-0.092	0.123
-87.713	107.460	0.150	-0.176
-86.699	454.227	0.080	-0.175
-85.684	1.181	-0.162	-0.114
-84.670	800.000	0.016	0.049
-83.655	-108.917	0.246	-0.052
-82.640	141.791	-0.070	-0.091
-81.626	-86.280	0.142	0.043
-80.611	-200.000	-0.005	-0.062
-79.597	-104.314	-0.092	0.021
-78.582	206.407	-0.121	0.185
-77.567	160.021	0.136	0.186
-76.553	-101.331	0.290	0.069
-75.538	9.791	-0.107	0.080
-74.524	-200.000	-0.044	-0.275
-73.509	-200.000	0.122	0.594
-72.494	81.323	0.090	-0.096
-71.480	319.869	-0.036	-0.067
-70.465	-200.000	0.007	0.145
-69.451	144.931	0.324	0.426
-68.436	-43.823	-0.027	-0.013
-67.422	98.524	0.389	-0.440
-66.407	800.000	0.103	-0.329
-65.392	245.395	-0.128	0.212
-64.378	-107.591	0.162	0.035
-63.363	295.244	0.126	-0.227
-62.349	-105.011	-0.162	0.036
-61.334	91.296	-0.864	-0.953
-60.319	2.051	0.792	0.561
-59.305	800.000	-0.224	-0.714
-58.290	171.988	0.609	0.859
-57.276	303.217	0.681	1.238
-56.261	-200.000	106.746	588.223
-55.246	465.046	1459.934	3207.288
-54.232	150.277	2638.354	3516.414
-53.217	106.922	2169.114	2529.155
-52.203	40.412	1702.472	1504.830
-51.188	33.343	1515.909	1291.843
-50.173	30.913	1489.138	1252.670
-49.159	51.082	1543.208	1436.803
-48.144	51.884	1560.838	1458.653
-47.130	33.514	1517.244	1293.947
-46.115	30.446	1502.631	1260.653
-45.100	30.219	1499.055	1256.063
-44.086	30.152	1497.509	1254.262
-43.071	30.268	1494.828	1252.752
-42.057	30.109	1493.635	1250.631
-41.042	30.074	1492.121	1249.077
-40.027	30.106	1490.525	1247.909
-39.013	30.031	1489.152	1246.206
-37.998	30.174	1487.403	1245.649
-36.984	30.183	1486.092	1244.566
-35.969	30.090	1485.102	1243.061
-34.954	30.098	1483.945	1242.097
-33.940	30.143	1482.623	1241.244
-32.925	30.064	1481.546	1239.763
-31.911	30.227	1479.863	1239.397
-30.896	30.179	1478.895	1238.217
-29.881	30.265	1477.282	1237.390
-28.867	30.256	1475.786	1236.028
-27.852	30.183	1474.458	1234.380
-26.838	30.186	1473.354	1233.425
-25.823	30.141	1471.852	1231.822
-24.809	30.195	1470.188	1230.740
-23.794	30.134	1468.693	1229.031
-22.779	30.128	1467.822	1228.217
-21.765	30.175	1466.538	1227.403
-20.750	30.151	1465.827	1226.601
-19.736	30.193	1464.247	1225.504
-18.721	30.210	1462.763	1224.332
-17.706	30.108	1461.859	1222.851
-16.692	30.093	1460.921	1221.921
-15.677	30.242	1459.507	1221.668
-14.663	30.180	1458.969	1220.759
-13.648	30.212	1457.808	1219.955
-12.633	30.109	1457.383	1218.873
-11.619	30.129	1456.190	1217.954
-10.604	30.151	1455.379	1217.373
-9.590	30.100	1454.300	1216.086
-8.575	30.080	1453.913	1215.584
-7.560	30.053	1453.204	1214.766
-6.546	30.090	1451.601	1213.621
-5.531	30.065	1451.195	1213.072
-4.517	30.018	1450.614	1212.231
-3.502	30.215	1448.725	1211.888
-2.487	30.080	1448.197	1210.516
-1.473	30.037	1447.271	1209.417
-0.458	30.151	1445.367	1208.519
0.556	28.108	1436.245	1196.847
1.571	25.017	1410.688	1155.547
2.586	21.342	1350.167	1083.143
3.600	19.613	1268.378	1007.363
4.615	18.271	1223.049	963.724
5.629	15.881	1166.388	906.147
6.644	7.934	1082.059	800.733
7.659	1.325	1041.758	738.763
8.673	0.337	1035.801	729.691
9.688	0.090	1033.059	726.502
10.702	0.002	1031.594	724.982
11.717	-0.078	1029.827	723.292
12.731	2.392	1032.454	736.983
13.746	10.443	1042.884	783.406
14.761	16.720	1050.027	819.161
15.775	17.265	1050.124	821.796
16.790	16.452	1047.872	816.039
17.804	15.407	1045.674	809.220
18.819	14.528	1043.873	803.520
19.834	14.114	1042.495	800.397
20.848	13.851	1041.171	798.046
21.863	13.564	1040.777	796.293
22.877	13.285	1040.168	794.417
23.892	13.034	1039.507	792.634
24.907	13.055	1038.763	792.099
25.921	13.155	1037.417	791.482
26.936	13.114	1036.949	790.858
27.950	13.104	1036.665	790.525
28.965	13.187	1035.359	789.857
29.980	13.255	1034.800	789.684
30.994	13.248	1033.915	788.903
32.009	13.272	1033.118	788.341
33.023	13.396	1032.305	788.243
34.038	13.210	1031.858	786.944
35.053	13.299	1030.654	786.380
36.067	13.182	1029.742	785.058
37.082	13.238	1029.212	784.852
38.096	13.226	1028.351	784.070
39.111	13.371	1027.279	783.867
40.126	13.265	1026.503	782.704
41.140	13.207	1025.586	781.663
42.155	13.146	1024.541	780.509
43.169	13.049	1023.878	779.476
44.184	13.060	1022.348	778.294
45.199	13.062	1021.445	777.546
46.213	13.003	1020.510	776.488
47.228	12.989	1019.641	775.695
48.242	13.054	1018.656	775.182
49.257	13.235	1017.633	775.184
50.271	13.148	1016.758	774.041
51.286	13.198	1015.635	773.351
52.301	13.113	1015.468	772.759
53.315	13.132	1014.636	772.146
54.330	13.205	1013.599	771.628
55.344	13.136	1012.852	770.670
56.359	13.176	1012.134	770.244
57.374	13.084	1011.021	768.897
58.388	13.093	1010.212	768.256
59.403	13.085	1009.288	767.451
60.417	13.116	1008.258	766.741
61.432	13.019	1007.887	765.942
62.447	13.121	1006.880	765.583
63.461	12.995	1006.371	764.544
64.476	12.980	1005.198	763.517
65.490	13.008	1004.257	762.862
66.505	13.099	1003.402	762.567
67.520	13.028	1002.819	761.727
68.534	13.066	1002.038	761.244
69.549	13.036	1001.483	760.615
70.563	13.055	1000.663	760.011
71.578	13.011	1000.129	759.339
72.593	12.959	998.957	758.140
73.607	13.006	998.045	757.596
74.622	12.961	997.230	756.707
75.636	12.994	996.206	756.014
76.651	12.811	995.973	754.931
77.666	12.953	994.562	754.442
78.680	12.934	994.515	754.253
79.695	12.933	993.654	753.533
80.709	13.001	992.914	753.214
81.724	13.025	992.375	752.845
82.739	13.197	991.060	752.563
83.753	13.212	990.347	752.025
84.768	13.213	989.699	751.474
85.782	13.212	989.265	751.071
86.797	13.312	988.187	750.640
87.812	13.282	987.381	749.825
88.826	13.159	986.912	748.847
89.841	13.252	986.174	748.640
90.855	13.364	985.403	748.494
91.870	13.292	984.882	747.708
92.884	13.334	983.745	746.967
93.899	13.377	982.969	746.506
94.914	13.157	982.809	745.327
95.928	13.283	981.762	745.035
96.943	13.292	981.037	744.458
97.957	13.375	980.316	744.221
98.972	13.225	979.199	742.630
99.987	13.224	978.647	742.142
101.001	13.322	977.898	741.948
102.016	13.316	977.411	741.488
103.030	13.332	975.974	740.405
104.045	13.282	975.269	739.580
105.060	13.306	974.371	738.938
106.074	13.269	973.237	737.850
107.089	13.211	972.275	736.798
108.103	13.064	971.627	735.584
109.118	12.997	970.842	734.626
110.133	13.086	969.978	734.306
111.147	13.118	969.073	733.696
112.162	13.105	968.274	732.971
113.176	13.111	967.175	732.098
114.191	13.102	966.508	731.490
115.206	13.222	965.512	731.200
116.220	13.279	964.849	730.886
117.235	13.176	963.758	729.543
118.249	13.150	963.403	729.092
119.264	13.123	962.328	728.098
120.279	13.092	961.827	727.515
121.293	13.053	960.895	726.576
122.308	13.177	959.838	726.258
123.322	13.179	959.166	725.692
124.337	13.116	958.387	724.761
125.352	12.973	957.502	723.402
126.366	13.231	956.032	723.359
127.381	13.088	955.105	721.967
128.395	13.182	953.919	721.416
129.410	13.063	953.118	720.229
130.424	13.124	952.565	720.010
131.439	13.167	951.356	719.220
132.454	13.102	950.784	718.445
133.468	13.315	949.722	718.503
134.483	13.388	948.890	718.126
135.497	13.272	948.851	717.529
136.512	13.292	947.794	716.753
137.527	13.221	947.142	715.890
138.541	13.095	946.301	714.647
139.556	13.178	945.679	714.473
140.570	13.334	944.421	714.132
141.585	13.227	944.188	713.429
142.600	13.348	943.198	713.142
143.614	13.446	942.464	712.943
144.629	13.303	941.565	711.587
145.643	13.355	940.829	711.191
146.658	13.399	940.128	710.788
147.673	13.273	939.402	709.634
148.687	13.397	938.231	709.220
149.702	13.393	937.382	708.497
150.716	13.169	937.097	707.260
151.731	13.289	935.672	706.634
152.746	13.219	935.513	706.155
153.760	13.395	934.160	705.822
154.775	13.336	933.548	705.043
155.789	13.305	933.111	704.520
156.804	13.376	931.799	703.769
157.819	13.497	931.169	703.744
158.833	13.391	931.170	703.232
159.848	13.546	930.214	703.104
160.862	13.402	929.586	701.957
161.877	13.423	928.833	701.418
162.892	13.429	927.774	700.581
163.906	13.309	927.247	699.612
164.921	13.333	926.440	699.043
165.935	13.307	925.308	698.020
166.950	13.461	924.642	698.103
167.964	13.341	923.789	696.892
168.979	13.479	922.605	696.518
169.994	13.407	921.429	695.265
171.008	13.557	920.518	695.146
172.023	13.404	920.264	694.251
173.037	13.436	919.750	693.935
174.052	13.516	918.663	693.388
175.067	13.579	918.284	693.308
176.081	13.493	917.296	692.140
177.096	13.405	916.301	690.960
178.110	13.383	915.699	690.352
179.125	13.536	914.977	690.384
180.140	13.494	913.869	689.313
181.154	13.528	913.759	689.311
182.169	13.551	912.927	688.717
183.183	13.628	912.423	688.596
184.198	13.661	911.312	687.835
185.213	13.669	910.437	687.144
186.227	13.786	909.660	686.983
187.242	13.707	909.684	686.612
188.256	13.667	908.934	685.820
189.271	13.782	908.429	685.855
190.286	13.693	907.435	684.678
191.300	13.561	906.799	683.591
192.315	13.494	906.296	682.876
193.329	13.430	905.792	682.170
194.344	13.487	905.296	681.975
195.359	13.433	904.305	680.943
196.373	13.644	903.536	681.171
197.388	13.934	902.778	681.730
198.402	13.773	902.767	681.001
199.417	13.807	901.964	680.475
200.432	13.881	901.784	680.581
201.446	13.915	901.478	680.431
202.461	13.955	901.219	680.336
203.475	13.909	900.470	679.524
204.490	13.925	900.081	679.234
205.504	14.026	898.936	678.725
206.519	14.005	897.825	677.741
207.534	13.820	897.632	676.780
208.548	13.879	896.995	676.478
209.563	13.902	896.258	675.956
210.577	13.876	895.847	675.482
211.592	13.936	894.765	674.849
212.607	13.961	894.117	674.401
213.621	14.076	893.692	674.490
214.636	14.177	892.507	673.945
215.650	14.120	892.539	673.678
216.665	14.044	891.825	672.770
217.680	14.121	891.555	672.821
218.694	14.112	890.888	672.221
219.709	14.240	890.415	672.324
220.723	14.247	889.294	671.446
221.738	14.244	888.778	670.982
222.753	14.282	887.745	670.296
223.767	14.103	887.696	669.480
224.782	14.209	886.325	668.812
225.796	14.361	885.625	668.835
226.811	14.326	885.034	668.190
227.826	14.257	884.821	667.692
228.840	14.174	884.523	667.077
229.855	14.216	883.450	666.375
230.869	14.220	882.835	665.870
231.884	14.309	881.561	665.205
232.899	14.325	881.147	664.899
233.913	14.249	880.385	663.959
234.928	14.208	879.878	663.358
235.942	14.185	879.278	662.752
236.957	14.267	878.611	662.517
237.972	14.262	877.800	661.828
238.986	14.253	877.474	661.487
240.001	14.381	876.380	661.112
241.015	14.191	875.949	659.975
242.030	14.322	875.358	659.993
243.045	14.460	874.438	659.785
244.059	14.522	873.641	659.370
245.074	14.408	873.335	658.633
246.088	14.366	872.499	657.776
247.103	14.653	872.035	658.499
248.117	14.494	871.856	657.680
249.132	14.430	871.402	657.026
250.147	14.436	870.900	656.614
251.161	14.663	869.755	656.585
252.176	14.825	868.836	656.469
253.190	14.773	868.457	655.921
254.205	14.718	868.122	655.396
255.220	14.935	867.351	655.607
256.234	14.746	866.717	654.329
257.249	14.720	866.159	653.749
258.263	14.760	865.643	653.455
259.278	14.845	864.899	653.171
260.293	14.826	864.173	652.488
261.307	14.940	863.856	652.635
262.322	14.981	863.426	652.413
263.336	15.013	862.896	652.082
264.351	15.019	862.118	651.460
265.366	14.908	861.478	650.485
266.380	14.993	861.005	650.400
267.395	14.991	860.649	650.067
268.409	15.080	859.291	649.329
269.424	14.952	858.851	648.445
270.439	15.052	857.947	648.091
271.453	14.950	857.591	647.368
272.468	15.074	856.445	646.925
273.482	14.898	856.291	646.070
274.497	15.055	855.324	645.891
275.512	15.074	854.774	645.494
276.526	14.920	854.493	644.628
277.541	15.015	853.425	644.134
278.555	15.011	853.555	644.157
279.570	15.016	852.676	643.458
280.585	15.158	852.027	643.457
281.599	15.201	851.409	643.097
282.614	15.212	850.708	642.553
283.628	15.183	850.108	641.932
284.643	15.053	849.756	641.111
285.657	15.137	849.140	640.910
286.672	15.369	848.364	641.156
287.687	15.328	848.116	640.754
288.701	15.273	847.783	640.236
289.716	15.222	847.126	639.491
290.730	15.090	846.804	638.685
291.745	15.366	845.698	638.846
292.760	15.332	844.863	638.031
293.774	15.336	844.321	637.578
294.789	15.455	843.603	637.431
295.803	15.371	843.342	636.862
296.818	15.305	842.564	635.966
297.833	15.437	841.995	635.981
298.847	15.225	841.835	634.999
299.862	15.333	840.777	634.555
300.876	15.443	840.071	634.381
301.891	15.503	839.369	634.022
302.906	15.424	839.276	633.597
303.920	15.438	838.501	633.009
304.935	15.601	837.603	632.887
305.949	15.667	836.869	632.526
306.964	15.683	836.278	632.085
307.979	15.538	835.778	631.107
308.993	15.567	835.383	630.859
310.008	15.635	834.630	630.490
311.022	15.697	834.092	630.261
312.037	15.689	833.862	630.003
313.052	15.700	833.237	629.516
314.066	15.678	832.626	628.914
315.081	15.459	832.172	627.698
316.095	15.488	831.468	627.218
317.110	15.630	830.796	627.187
318.125	15.608	830.470	626.802
319.139	15.609	829.775	626.225
320.154	15.518	829.779	625.834
321.168	15.638	828.779	625.474
322.183	15.549	828.385	624.789
323.197	15.658	827.817	624.708
324.212	15.673	827.346	624.356
325.227	15.600	826.863	623.663
326.241	15.702	825.763	623.157
327.256	15.809	825.400	623.223
328.270	15.775	824.884	622.652
329.285	15.801	824.283	622.242
330.300	15.755	823.872	621.708
331.314	15.661	823.691	621.166
332.329	15.828	822.378	620.739
333.343	15.740	821.906	620.001
334.358	15.967	821.388	620.393
335.373	15.829	820.960	619.508
336.387	15.975	820.524	619.662
337.402	15.886	820.174	619.015
338.416	15.930	819.270	618.437
339.431	15.907	819.110	618.177
340.446	16.045	818.619	618.258
341.460	16.206	817.685	618.089
342.475	16.156	816.975	617.316
343.489	16.259	816.633	617.379
344.504	16.269	816.012	616.890
345.519	16.156	815.372	615.939
346.533	16.165	815.193	615.783
347.548	16.362	814.613	616.010
348.562	16.124	814.370	614.903
349.577	16.148	813.630	614.376
350.592	16.062	813.107	613.614
351.606	16.064	812.386	613.024
352.621	16.024	812.168	612.659
353.635	16.052	811.829	612.453
354.650	15.965	811.742	612.016
355.665	16.204	810.858	612.162
356.679	16.064	810.708	611.487
357.694	16.381	809.724	611.838
358.708	16.276	809.618	611.324
359.723	16.178	808.840	610.329
360.738	16.288	808.261	610.237
361.752	16.308	807.717	609.843
362.767	16.318	807.561	609.707
363.781	16.408	807.113	609.638
364.796	16.308	806.793	608.984
365.810	16.474	806.048	608.965
366.825	16.532	805.522	608.723
367.840	16.613	805.065	608.615
368.854	16.477	805.049	608.058
369.869	16.506	804.513	607.706
370.883	16.617	803.760	607.481
371.898	16.619	803.221	607.028
372.913	16.548	802.726	606.347
373.927	16.552	802.359	606.030
374.942	16.533	801.535	605.286
375.956	16.587	801.054	605.061
376.971	16.685	800.202	604.715
377.986	16.705	799.852	604.466
379.000	16.752	799.359	604.211
380.015	16.715	798.975	603.733
381.029	16.841	798.164	603.514
382.044	16.704	797.522	602.491
383.059	16.732	797.447	602.478
384.073	16.810	796.976	602.348
385.088	16.786	796.450	601.810
386.102	16.759	795.957	601.290
387.117	16.688	795.336	600.514
388.132	16.784	794.786	600.386
389.146	16.731	794.176	599.685
390.161	16.746	793.854	599.443
391.175	16.833	793.619	599.521
392.190	16.795	793.050	598.901
393.205	16.812	793.083	598.936
394.219	16.949	792.282	598.762
395.234	16.790	791.410	597.487
396.248	16.718	791.783	597.463
397.263	16.779	791.031	597.056
398.278	16.739	790.311	596.319
399.292	16.712	789.850	595.825
400.307	16.755	789.393	595.577
401.321	16.788	789.174	595.475
402.336	16.830	788.843	595.320
403.350	16.835	788.427	594.972
404.365	16.786	787.951	594.387
405.380	16.864	787.667	594.395
406.394	16.973	787.043	594.252
407.409	17.040	786.213	593.808
408.423	17.187	786.095	594.182
409.438	17.006	785.818	593.288
410.453	17.129	785.078	593.103
411.467	17.024	785.180	592.763
412.482	17.041	784.466	592.232
413.496	17.285	783.659	592.419
414.511	17.303	783.271	592.137
415.526	17.206	783.104	591.619
416.540	17.206	783.033	591.514
417.555	17.396	782.029	591.362
418.569	17.311	781.645	590.726
419.584	17.213	781.503	590.225
420.599	17.233	780.882	589.773
421.613	108.977	1290.158	1468.534
422.628	93.242	1364.352	1468.617
