DTS Sentinel unit serial number:	SN413079Multiplexer serial number:	ORYXHardware model number:	OX4-SRSoftware version number:	ORYX F/W v4.00 Oryx Data Collector v3.7.2.0data status	okinstallation	princeton_trtdifferential loss correction	single-endedforward channel	channel 3reverse channel	N/Adate	2019/09/14time	10:28:35forward acquisition time	60.00reverse acquisition time	0.00gamma	496.2192k internal	0.2304k external	0.2304temperature offset calibration	1.0052default loss term (dB/km)	0.3790temperature slope calibration	1.0000multiplexer offset coefficient	1.0000multiplexer slope coefficient	1.0000fibre end	0.00T internal ref (°C)	34.69T ext. ref 1 (°C)	4.17T ext. ref 2 (°C)	32.75length (m)	temperature (°C)	Stokes	anti-Stokes-747.200	62.760	0.193	-0.196
-746.185	-116.415	-0.266	0.050
-745.171	-31.404	0.360	0.206
-744.156	-14.385	-0.388	0.255
-743.142	-200.000	-0.020	0.252
-742.127	-173.873	0.153	-0.005
-741.112	-88.520	-0.136	-0.041
-740.098	-9.151	-0.091	-0.062
-739.083	-85.979	-0.115	-0.036
-738.069	-200.000	-0.030	0.575
-737.054	800.000	-0.050	-0.159
-736.039	91.873	-0.139	-0.159
-735.025	-200.000	-0.041	0.321
-734.010	200.200	-0.195	0.305
-732.996	-76.688	0.131	0.047
-731.981	30.976	0.096	0.084
-730.966	-176.576	0.230	0.006
-729.952	-98.547	0.286	-0.074
-728.937	-200.000	-0.020	-0.273
-727.923	-39.678	0.159	-0.084
-726.908	324.489	-0.180	-0.349
-725.894	-73.706	-0.159	-0.059
-724.879	-99.746	-0.088	0.022
-723.864	155.280	0.029	-0.040
-722.850	800.000	0.081	-0.297
-721.835	82.230	-0.075	-0.082
-720.821	161.120	0.177	0.251
-719.806	800.000	-0.048	-0.176
-718.791	800.000	0.060	-0.260
-717.777	-104.915	-0.294	0.069
-716.762	13.358	0.089	-0.070
-715.748	-167.337	0.246	0.010
-714.733	-132.123	0.381	0.050
-713.718	-25.458	-0.175	0.105
-712.704	71.521	0.077	0.081
-711.689	-54.185	0.209	0.097
-710.675	702.606	0.085	-0.227
-709.660	-72.010	-0.051	-0.019
-708.645	-101.089	-0.147	-0.037
-707.631	-95.509	0.101	0.028
-706.616	187.466	-0.204	0.309
-705.602	209.512	-0.280	0.447
-704.587	-65.294	0.232	-0.095
-703.572	50.369	-0.057	-0.054
-702.558	-75.096	-0.271	0.099
-701.543	-92.843	0.066	-0.019
-700.529	800.000	-0.069	-0.267
-699.514	109.798	0.083	-0.102
-698.499	110.920	-0.173	-0.211
-697.485	69.650	-0.195	-0.204
-696.470	32.820	-0.080	-0.071
-695.456	33.974	0.077	0.069
-694.441	800.000	0.120	-0.380
-693.426	-153.314	-0.289	0.020
-692.412	-73.790	-0.187	-0.069
-691.397	-107.264	0.049	-0.011
-690.383	-200.000	0.005	-0.196
-689.368	-32.984	0.096	0.054
-688.354	753.974	-0.064	-0.175
-687.339	800.000	0.058	0.189
-686.324	-200.000	0.046	0.289
-685.310	164.903	0.185	-0.265
-684.295	243.651	-0.102	-0.174
-683.281	-114.264	-0.080	0.016
-682.266	-200.000	-0.057	-0.411
-681.251	48.022	-0.219	-0.208
-680.237	800.000	-0.060	0.217
-679.222	-79.843	0.239	-0.082
-678.208	-170.707	-0.239	-0.008
-677.193	113.615	-0.177	-0.218
-676.178	105.333	-0.144	0.172
-675.164	-200.000	-0.062	-0.314
-674.149	112.131	-0.094	-0.115
-673.135	319.240	0.131	-0.252
-672.120	800.000	0.237	-0.738
-671.105	-136.887	0.388	-0.045
-670.091	34.771	0.145	-0.129
-669.076	-151.174	-0.220	-0.017
-668.062	47.919	0.192	0.182
-667.047	353.754	-0.144	-0.290
-666.032	-30.926	0.324	0.186
-665.018	-75.881	-0.097	-0.035
-664.003	387.568	0.060	0.125
-662.989	-65.881	-0.275	0.112
-661.974	-200.000	0.009	0.184
-660.959	-148.481	-0.316	-0.026
-659.945	-200.000	-0.044	-0.318
-658.930	-25.518	-0.212	0.127
-657.916	-129.037	0.142	-0.020
-656.901	-178.393	0.433	-0.010
-655.886	-65.986	-0.151	0.061
-654.872	-111.761	0.153	0.031
-653.857	-38.719	-0.085	0.045
-652.843	375.142	-0.094	-0.195
-651.828	44.468	0.218	0.203
-650.814	566.256	-0.005	-0.013
-649.799	262.431	-0.065	0.115
-648.784	-77.932	-0.314	0.110
-647.770	-200.000	-0.120	-0.582
-646.755	-200.000	-0.006	-0.137
-645.741	-200.000	-0.006	0.259
-644.726	414.935	-0.048	0.104
-643.711	-150.504	0.032	0.002
-642.697	-121.146	0.172	0.029
-641.682	-20.299	0.172	0.107
-640.668	218.027	-0.176	-0.285
-639.653	-200.000	0.044	-0.526
-638.638	-23.708	-0.104	-0.063
-637.624	-173.860	-0.353	0.011
-636.609	120.054	0.252	-0.317
-635.595	-93.830	-0.137	0.038
-634.580	800.000	0.038	-0.157
-633.565	586.618	0.080	0.200
-632.551	577.993	0.170	-0.423
-631.536	-200.000	-0.027	-0.181
-630.522	-200.000	0.035	0.156
-629.507	800.000	-0.082	0.238
-628.492	-112.227	-0.131	0.027
-627.478	48.561	-0.210	-0.199
-626.463	-13.080	-0.324	0.214
-625.449	-89.104	0.394	0.118
-624.434	-70.627	0.199	0.076
-623.419	145.161	0.065	0.088
-622.405	345.747	0.070	-0.140
-621.390	-200.000	-0.010	0.102
-620.376	-200.000	-0.022	0.214
-619.361	-15.487	0.347	0.224
-618.346	217.241	0.017	-0.027
-617.332	-69.782	0.124	-0.048
-616.317	106.952	0.122	-0.147
-615.303	-137.017	0.146	-0.017
-614.288	-200.000	0.001	-0.212
-613.273	39.407	0.246	0.223
-612.259	-200.000	0.008	-0.119
-611.244	-0.675	0.305	0.219
-610.230	800.000	0.074	0.235
-609.215	-161.677	-0.234	-0.012
-608.201	800.000	0.091	-0.361
-607.186	78.930	-0.231	-0.251
-606.171	166.412	-0.034	-0.049
-605.157	-9.239	-0.278	-0.188
-604.142	-54.305	-0.073	-0.034
-603.128	-132.325	0.243	0.032
-602.113	61.772	0.106	0.107
-601.098	-31.674	-0.283	-0.161
-600.084	-155.285	0.234	0.015
-599.069	-200.000	-0.027	0.309
-598.055	-63.625	0.276	-0.115
-597.040	-200.000	0.018	-0.295
-596.025	90.185	-0.148	-0.168
-595.011	2.622	-0.178	0.130
-593.996	800.000	-0.108	0.384
-592.982	-61.808	0.125	-0.053
-591.967	-73.999	-0.166	-0.061
-590.952	23.205	0.148	0.123
-589.938	-58.643	-0.282	0.124
-588.923	42.974	-0.359	0.332
-587.909	800.000	0.030	0.118
-586.894	145.064	-0.304	0.411
-585.879	-200.000	-0.033	0.293
-584.865	-105.566	0.088	0.020
-583.850	-100.670	-0.298	0.074
-582.836	-200.000	-0.039	-0.204
-581.821	60.081	0.137	0.137
-580.806	103.712	-0.109	-0.129
-579.792	81.049	-0.085	0.093
-578.777	-200.000	0.047	0.324
-577.763	-93.662	0.027	0.007
-576.748	115.332	0.099	-0.122
-575.733	-29.004	-0.132	-0.076
-574.719	-200.000	-0.016	0.222
-573.704	-200.000	0.015	-0.089
-572.690	-80.645	0.154	0.052
-571.675	149.279	0.094	-0.129
-570.661	-54.439	-0.197	0.090
-569.646	800.000	0.116	-0.342
-568.631	500.164	0.093	-0.218
-567.617	-81.354	-0.027	0.009
-566.602	-70.390	-0.286	0.110
-565.588	-58.200	0.188	0.083
-564.573	-102.462	0.062	0.015
-563.558	-200.000	0.008	-0.291
-562.544	-147.155	-0.403	-0.035
-561.529	102.483	0.265	-0.313
-560.515	-87.223	-0.435	0.134
-559.500	-63.961	-0.370	-0.153
-558.485	478.274	0.066	-0.150
-557.471	-200.000	0.053	0.272
-556.456	-97.226	0.249	0.066
-555.442	-200.000	-0.049	0.250
-554.427	-90.823	-0.182	0.053
-553.412	-164.824	-0.105	0.005
-552.398	-200.000	0.008	0.244
-551.383	-28.120	0.097	-0.057
-550.369	177.217	0.096	0.141
-549.354	358.092	-0.052	-0.105
-548.339	710.604	-0.024	0.064
-547.325	-107.044	0.248	0.055
-546.310	1.772	0.231	0.168
-545.296	800.000	-0.132	0.437
-544.281	-114.313	-0.072	0.014
-543.266	-21.258	0.212	0.131
-542.252	-70.778	0.158	0.060
-541.237	-200.000	0.016	-0.186
-540.223	-200.000	-0.001	0.174
-539.208	390.361	0.031	0.065
-538.193	-94.615	-0.211	0.058
-537.179	14.403	-0.081	0.064
-536.164	-93.523	-0.055	0.015
-535.150	224.692	0.065	0.106
-534.135	11.985	-0.169	0.131
-533.121	-131.575	0.158	0.021
-532.106	-60.523	-0.130	-0.056
-531.091	-117.256	-0.111	-0.020
-530.077	-4.083	-0.167	-0.117
-529.062	-160.472	0.192	-0.010
-528.048	800.000	0.019	-0.063
-527.033	139.787	-0.059	-0.079
-526.018	85.592	0.071	0.078
-525.004	-200.000	-0.034	-0.222
-523.989	55.747	-0.253	-0.248
-522.975	116.849	0.147	-0.182
-521.960	185.855	0.158	0.238
-520.945	-172.331	-0.295	0.009
-519.931	298.878	-0.272	-0.505
-518.916	152.124	0.077	0.106
-517.902	-21.128	-0.260	-0.161
-516.887	800.000	-0.028	-0.098
-515.872	-8.171	0.116	-0.079
-514.858	-200.000	0.015	0.265
-513.843	800.000	0.011	0.047
-512.829	-127.205	-0.123	-0.018
-511.814	-78.380	-0.110	0.038
-510.799	-145.202	-0.255	-0.023
-509.785	-78.956	-0.153	0.053
-508.770	-165.465	0.256	0.011
-507.756	31.070	-0.212	0.184
-506.741	129.258	0.123	0.159
-505.726	-105.290	0.089	0.021
-504.712	158.116	0.043	-0.060
-503.697	-97.357	0.346	-0.091
-502.683	-200.000	0.028	0.333
-501.668	86.466	0.117	-0.130
-500.653	800.000	0.059	-0.204
-499.639	57.080	-0.063	-0.062
-498.624	-79.003	-0.261	0.090
-497.610	800.000	0.038	0.135
-496.595	-64.408	0.212	0.087
-495.581	-116.919	-0.230	0.042
-494.566	242.354	0.106	-0.178
-493.551	2.126	0.190	0.139
-492.537	15.558	-0.178	0.141
-491.522	800.000	-0.063	-0.237
-490.508	-70.124	0.191	-0.073
-489.493	-86.222	0.207	-0.064
-488.478	-140.860	-0.043	0.004
-487.464	17.367	0.200	-0.160
-486.449	384.536	0.064	-0.132
-485.435	-200.000	0.054	-0.470
-484.420	-96.201	-0.250	-0.067
-483.405	800.000	-0.025	-0.074
-482.391	-200.000	-0.057	-0.284
-481.376	-86.876	0.052	0.016
-480.362	-102.533	-0.307	0.074
-479.347	800.000	0.021	0.082
-478.332	-200.000	0.005	0.070
-477.318	100.845	0.093	0.110
-476.303	-2.448	0.069	-0.049
-475.289	-200.000	0.038	0.229
-474.274	-41.555	-0.099	0.051
-473.259	-200.000	0.008	0.059
-472.245	7.776	0.161	-0.122
-471.230	-200.000	0.036	0.183
-470.216	800.000	-0.074	-0.221
-469.201	-182.502	-0.196	0.004
-468.186	-90.789	0.180	0.052
-467.172	57.363	0.026	0.026
-466.157	800.000	0.095	-0.279
-465.143	559.624	0.035	-0.086
-464.128	45.318	0.234	-0.217
-463.113	-200.000	0.020	-0.207
-462.099	-104.917	-0.270	-0.062
-461.084	-200.000	0.059	0.285
-460.070	-1.604	-0.062	-0.044
-459.055	-41.343	0.255	-0.133
-458.040	355.701	-0.149	0.299
-457.026	-71.906	0.221	0.083
-456.011	800.000	-0.113	-0.479
-454.997	-200.000	0.050	0.246
-453.982	93.517	0.127	-0.145
-452.968	-41.278	-0.104	0.054
-451.953	281.329	-0.079	0.142
-450.938	299.972	-0.029	0.054
-449.924	235.808	-0.062	0.103
-448.909	18.566	0.060	0.048
-447.895	-72.429	-0.238	0.089
-446.880	21.779	-0.242	0.198
-445.865	-118.944	-0.353	-0.062
-444.851	-135.699	-0.166	0.020
-443.836	-49.752	-0.160	-0.077
-442.822	298.063	-0.063	-0.116
-441.807	-194.840	-0.209	-0.002
-440.792	-85.749	0.151	0.047
-439.778	-4.173	-0.274	0.191
-438.763	800.000	0.009	-0.031
-437.749	175.591	-0.234	-0.341
-436.734	645.902	-0.050	0.128
-435.719	69.008	0.233	0.241
-434.705	-40.549	-0.278	0.145
-433.690	36.323	0.110	-0.098
-432.676	-49.121	0.229	-0.110
-431.661	63.139	-0.097	0.098
-430.646	31.921	0.050	0.043
-429.632	61.841	-0.245	-0.246
-428.617	-200.000	-0.016	0.075
-427.603	-40.981	0.064	-0.033
-426.588	314.095	0.325	-0.616
-425.573	251.043	-0.083	0.141
-424.559	-84.854	-0.314	0.099
-423.544	-200.000	0.030	0.381
-422.530	284.566	-0.052	0.094
-421.515	108.226	-0.108	-0.129
-420.500	30.761	0.237	0.204
-419.486	-200.000	0.035	-0.318
-418.471	-173.326	-0.206	0.006
-417.457	-54.414	-0.281	0.128
-416.442	-200.000	-0.003	-0.124
-415.428	345.836	-0.085	0.168
-414.413	-200.000	-0.006	0.105
-413.398	625.000	0.043	0.108
-412.384	-115.492	-0.165	-0.031
-411.369	155.669	0.152	0.210
-410.355	-42.765	0.106	0.054
-409.340	800.000	-0.101	0.282
-408.325	223.893	-0.086	0.140
-407.311	259.917	-0.136	-0.237
-406.296	-67.128	-0.292	0.116
-405.282	682.549	0.051	0.135
-404.267	25.808	-0.252	0.211
-403.252	-85.882	0.222	-0.069
-402.238	-31.711	0.031	0.017
-401.223	237.183	-0.101	0.168
-400.209	-45.215	-0.117	0.059
-399.194	-65.857	0.199	0.080
-398.179	-118.174	0.336	-0.060
-397.165	498.389	-0.071	0.165
-396.150	800.000	0.065	0.210
-395.136	-200.000	0.010	-0.142
-394.121	-97.781	0.372	-0.097
-393.106	-28.376	0.186	0.108
-392.092	321.868	0.144	0.276
-391.077	800.000	0.028	-0.114
-390.063	295.697	-0.177	-0.326
-389.048	1.381	0.264	-0.191
-388.033	126.501	0.214	-0.272
-387.019	-165.027	-0.046	0.002
-386.004	-112.693	0.531	-0.106
-384.990	-103.014	-0.127	-0.030
-383.975	273.577	-0.164	-0.292
-382.960	-200.000	-0.006	0.096
-381.946	800.000	0.100	0.406
-380.931	-11.705	-0.125	0.083
-379.917	-120.128	-0.061	0.010
-378.902	51.474	-0.224	0.214
-377.888	-68.216	0.201	0.079
-376.873	120.403	0.403	0.503
-375.858	16.874	0.112	-0.089
-374.844	-125.460	0.450	-0.069
-373.829	90.257	0.210	-0.235
-372.815	-106.098	-0.340	-0.077
-371.800	156.029	0.184	-0.254
-370.785	371.374	-0.054	-0.110
-369.771	-200.000	-0.041	-0.218
-368.756	-200.000	0.030	-0.221
-367.742	800.000	-0.030	-0.093
-366.727	800.000	0.061	-0.217
-365.712	-14.502	-0.069	0.044
-364.698	-64.460	-0.269	0.110
-363.683	-106.187	0.114	-0.026
-362.669	-200.000	-0.010	0.182
-361.654	81.944	0.163	-0.177
-360.639	-200.000	0.143	-0.001
-359.625	-117.129	0.298	0.054
-358.610	-200.000	0.007	0.136
-357.596	800.000	-0.069	0.280
-356.581	7.516	0.088	0.066
-355.566	-17.785	-0.056	0.036
-354.552	108.366	0.187	-0.224
-353.537	209.058	-0.169	0.265
-352.523	-77.653	0.226	0.078
-351.508	-200.000	-0.016	-0.295
-350.493	-200.000	0.037	0.167
-349.479	745.546	0.050	0.135
-348.464	21.992	-0.219	0.179
-347.450	-58.775	-0.157	-0.068
-346.435	800.000	-0.031	0.135
-345.420	-24.710	-0.252	0.150
-344.406	-129.305	0.088	0.012
-343.391	-200.000	0.009	-0.097
-342.377	-200.000	0.007	0.079
-341.362	-2.877	-0.430	-0.301
-340.348	-200.000	-0.056	-0.248
-339.333	67.028	0.288	-0.294
-338.318	-91.740	0.048	-0.014
-337.304	552.127	-0.112	-0.269
-336.289	-14.309	0.218	-0.141
-335.275	31.595	-0.030	0.026
-334.260	-114.408	-0.175	-0.034
-333.245	-200.000	0.052	-0.299
-332.231	-130.199	-0.138	-0.019
-331.216	77.413	0.131	0.139
-330.202	428.348	-0.091	-0.198
-329.187	-137.018	-0.178	0.020
-328.172	800.000	0.063	0.187
-327.158	-200.000	0.080	0.413
-326.143	-200.000	-0.022	-0.409
-325.129	74.425	-0.208	0.219
-324.114	688.617	-0.044	0.115
-323.099	3.446	-0.246	-0.180
-322.085	-13.759	0.139	0.090
-321.070	-129.373	-0.017	0.002
-320.056	793.220	-0.108	-0.299
-319.041	-148.980	-0.188	-0.015
-318.026	445.428	0.060	-0.132
-317.012	-68.377	-0.100	0.039
-315.997	27.182	0.074	0.062
-314.983	171.735	-0.104	-0.149
-313.968	-140.815	0.292	0.030
-312.953	151.412	-0.200	-0.272
-311.939	-21.219	-0.122	0.075
-310.924	107.375	-0.181	0.216
-309.910	147.549	0.078	0.106
-308.895	-83.967	0.201	-0.064
-307.880	-200.000	-0.018	0.292
-306.866	36.758	-0.212	-0.187
-305.851	202.797	-0.106	-0.165
-304.837	-200.000	-0.015	0.287
-303.822	-200.000	-0.030	0.168
-302.807	129.068	0.289	-0.369
-301.793	95.292	0.185	-0.211
-300.778	-200.000	-0.028	0.221
-299.764	-80.910	-0.227	0.075
-298.749	87.261	-0.224	-0.248
-297.735	115.749	-0.034	-0.041
-296.720	800.000	-0.106	0.339
-295.705	-28.822	0.270	0.155
-294.691	-62.735	0.290	-0.120
-293.676	800.000	0.082	0.286
-292.662	25.249	-0.143	-0.119
-291.647	800.000	0.050	0.161
-290.632	28.497	-0.367	0.310
-289.618	665.863	0.064	-0.165
-288.603	-158.252	-0.118	-0.007
-287.589	800.000	-0.028	0.118
-286.574	28.950	-0.050	-0.042
-285.559	-2.387	-0.232	-0.162
-284.545	390.076	0.154	0.320
-283.530	800.000	0.066	0.187
-282.516	-200.000	-0.022	-0.195
-281.501	36.707	0.194	0.172
-280.486	195.474	-0.180	0.274
-279.472	100.202	0.177	-0.206
-278.457	-14.375	-0.207	0.133
-277.443	-200.000	-0.005	-0.172
-276.428	-176.707	-0.055	-0.001
-275.413	-200.000	0.045	-0.293
-274.399	-45.524	0.403	0.199
-273.384	-64.817	0.109	0.044
-272.370	-186.071	-0.268	-0.004
-271.355	-200.000	-0.037	-0.275
-270.340	-40.940	-0.183	-0.094
-269.326	800.000	-0.026	-0.114
-268.311	241.032	-0.155	-0.258
-267.297	-140.609	-0.268	-0.028
-266.282	20.245	-0.096	-0.077
-265.267	19.594	0.186	-0.149
-264.253	-128.858	0.408	0.057
-263.238	-200.000	-0.009	-0.152
-262.224	282.395	-0.057	0.102
-261.209	-103.902	-0.113	-0.026
-260.195	250.353	0.070	-0.118
-259.180	108.507	0.095	-0.113
-258.165	-25.510	0.048	-0.028
-257.151	-72.510	-0.227	-0.084
-256.136	636.496	-0.149	-0.377
-255.122	-62.060	-0.087	0.036
-254.107	19.808	0.103	-0.083
-253.092	-70.622	-0.228	0.086
-252.078	-136.982	-0.099	-0.011
-251.063	413.255	-0.040	-0.084
-250.049	-200.000	-0.001	0.182
-249.034	-122.802	-0.341	-0.055
-248.019	-200.000	-0.025	-0.127
-247.005	-200.000	0.027	0.169
-245.990	129.780	-0.144	0.184
-244.976	-58.364	-0.374	-0.162
-243.961	240.360	0.043	-0.072
-242.946	-30.341	-0.244	0.139
-241.932	-18.613	0.145	0.091
-240.917	649.703	0.125	0.320
-239.903	-156.018	-0.189	-0.012
-238.888	135.129	-0.096	-0.124
-237.873	-121.016	0.090	-0.015
-236.859	-46.206	0.168	0.083
-235.844	-17.921	0.419	0.262
-234.830	289.081	0.176	0.318
-233.815	-99.066	-0.267	-0.067
-232.800	-167.048	-0.208	0.008
-231.786	58.859	0.179	-0.176
-230.771	800.000	0.102	-0.353
-229.757	800.000	0.099	0.351
-228.742	-200.000	0.001	-0.377
-227.727	102.221	-0.282	0.329
-226.713	-137.884	-0.222	0.025
-225.698	-200.000	-0.009	0.209
-224.684	-0.396	0.113	0.080
-223.669	79.635	-0.159	-0.170
-222.655	110.814	-0.077	0.092
-221.640	-200.000	0.007	0.040
-220.625	2.904	0.291	-0.211
-219.611	-59.709	-0.186	0.080
-218.596	-60.401	0.199	-0.084
-217.582	451.238	0.084	0.186
-216.567	-67.769	-0.288	0.112
-215.552	800.000	0.032	-0.120
-214.538	480.185	0.307	0.694
-213.523	108.561	0.150	0.179
-212.509	388.665	0.159	-0.328
-211.494	-56.906	0.079	-0.035
-210.479	-34.836	0.113	-0.062
-209.465	765.848	-0.028	-0.075
-208.450	-200.000	0.004	0.214
-207.436	-37.262	-0.127	-0.068
-206.421	-11.663	-0.130	-0.085
-205.406	800.000	-0.071	-0.244
-204.392	-200.000	-0.030	0.265
-203.377	660.678	-0.073	0.188
-202.363	-200.000	0.009	-0.174
-201.348	-62.028	0.264	-0.110
-200.333	67.662	-0.114	-0.116
-199.319	28.714	0.065	-0.054
-198.304	-153.419	-0.066	-0.005
-197.290	-200.000	0.100	-0.441
-196.275	-200.000	-0.029	0.190
-195.260	-85.881	0.519	0.160
-194.246	14.012	0.200	0.155
-193.231	-157.571	0.051	-0.003
-192.217	566.596	-0.043	0.105
-191.202	64.557	0.101	-0.102
-190.187	229.556	0.026	0.043
-189.173	-61.715	0.168	0.070
-188.158	-42.751	0.203	-0.103
-187.144	33.830	0.170	-0.148
-186.129	-200.000	0.002	0.076
-185.114	19.156	0.094	0.075
-184.100	-200.000	0.003	-0.073
-183.085	-126.089	0.254	-0.038
-182.071	-171.386	-0.437	-0.015
-181.056	-80.796	0.307	0.102
-180.042	-152.065	0.409	0.030
-179.027	-77.898	-0.316	-0.108
-178.012	145.170	-0.170	-0.227
-176.998	-97.512	0.278	-0.072
-175.983	96.465	0.099	0.113
-174.969	27.300	0.211	0.177
-173.954	140.896	0.146	0.193
-172.939	-85.262	-0.095	0.030
-171.925	-159.713	-0.105	-0.006
-170.910	-200.000	0.031	-0.274
-169.896	65.909	0.218	0.221
-168.881	-109.770	0.103	0.022
-167.866	9.412	-0.034	0.025
-166.852	800.000	0.118	-0.363
-165.837	76.247	0.137	-0.145
-164.823	496.303	-0.070	-0.159
-163.808	-200.000	0.060	0.420
-162.793	800.000	0.079	-0.242
-161.779	162.674	0.055	0.076
-160.764	-163.257	0.123	0.006
-159.750	-87.216	0.113	0.034
-158.735	-109.433	0.085	-0.018
-157.720	-200.000	0.035	-0.278
-156.706	332.696	0.048	-0.093
-155.691	45.872	0.192	0.176
-154.677	800.000	0.045	-0.186
-153.662	-84.888	0.210	0.066
-152.647	-36.350	-0.028	-0.015
-151.633	4.162	0.152	0.110
-150.618	-64.955	-0.432	0.174
-149.604	126.351	0.051	-0.064
-148.589	-200.000	0.024	0.189
-147.574	-64.926	0.042	-0.017
-146.560	-82.914	0.300	0.096
-145.545	153.236	-0.055	0.075
-144.531	110.691	-0.171	0.204
-143.516	-117.928	-0.326	-0.058
-142.502	-138.425	-0.094	0.010
-141.487	199.626	-0.099	0.152
-140.472	-38.511	-0.134	0.071
-139.458	65.658	0.227	-0.228
-138.443	-200.000	-0.449	-0.002
-137.429	117.632	-0.180	0.221
-136.414	124.432	0.043	-0.054
-135.399	-144.298	0.110	0.010
-134.385	-97.040	0.114	0.030
-133.370	-200.000	-0.003	0.049
-132.356	-200.000	0.070	0.385
-131.341	-200.000	-0.061	-0.393
-130.326	-40.507	0.321	0.166
-129.312	-78.167	0.204	0.070
-128.297	-3.427	0.192	-0.133
-127.283	26.166	0.085	0.071
-126.268	20.612	0.132	-0.106
-125.253	337.184	0.155	-0.300
-124.239	-78.879	0.189	-0.064
-123.224	69.576	-0.114	-0.116
-122.210	43.021	0.155	0.141
-121.195	-113.021	-0.154	-0.030
-120.180	-200.000	0.031	-0.294
-119.166	-140.988	0.247	0.025
-118.151	-200.000	0.096	-0.497
-117.137	48.538	-0.304	-0.283
-116.122	310.285	0.082	-0.152
-115.107	-198.213	-0.333	-0.002
-114.093	38.324	-0.089	-0.079
-113.078	-200.000	0.000	0.119
-112.064	-64.774	-0.242	-0.097
-111.049	67.316	0.044	0.045
-110.034	-200.000	-0.020	0.354
-109.020	-173.036	0.358	0.011
-108.005	-108.321	-0.379	0.081
-106.991	800.000	0.033	-0.141
-105.976	140.875	0.108	-0.141
-104.962	-12.470	0.065	0.042
-103.947	800.000	-0.079	-0.298
-102.932	326.130	-0.073	0.139
-101.918	-64.236	-0.249	-0.101
-100.903	23.828	-0.176	-0.144
-99.889	-200.000	0.003	-0.057
-98.874	333.942	0.146	0.281
-97.859	346.638	0.131	0.257
-96.845	800.000	0.036	0.119
-95.830	-64.128	-0.218	0.088
-94.816	-36.921	-0.152	0.081
-93.801	208.815	-0.169	0.262
-92.786	-200.000	0.046	0.281
-91.772	-54.964	-0.267	-0.119
-90.757	47.928	-0.226	0.210
-89.743	13.267	0.155	-0.119
-88.728	800.000	0.091	-0.301
-87.713	164.076	-0.181	0.253
-86.699	223.603	0.115	0.184
-85.684	238.650	-0.209	0.344
-84.670	-5.842	-0.173	-0.117
-83.655	-200.000	-0.007	-0.082
-82.640	-125.072	0.129	-0.020
-81.626	-200.000	0.032	-0.247
-80.611	-99.560	0.104	-0.026
-79.597	-200.000	-0.177	0.000
-78.582	-138.483	-0.287	-0.031
-77.567	-200.000	0.016	-0.342
-76.553	165.248	0.156	-0.219
-75.538	-34.123	-0.119	-0.065
-74.524	-200.000	0.012	0.184
-73.509	-31.227	0.086	-0.048
-72.494	92.961	0.058	-0.065
-71.480	-155.719	0.319	0.020
-70.465	-139.166	0.240	0.026
-69.451	-13.864	-0.155	0.099
-68.436	-200.000	-0.029	0.497
-67.422	-46.936	-0.251	-0.122
-66.407	800.000	-0.017	0.056
-65.392	-107.004	0.241	0.053
-64.378	-90.467	0.433	-0.124
-63.363	-200.000	-0.008	-0.193
-62.349	-50.598	0.100	0.047
-61.334	41.099	-1.018	-0.911
-60.319	-5.789	0.393	0.266
-59.305	800.000	0.199	-0.707
-58.290	103.987	0.680	0.792
-57.276	800.000	0.535	1.488
-56.261	-200.000	92.798	539.228
-55.246	597.127	1384.982	3400.660
-54.232	182.814	2622.252	3835.028
-53.217	117.904	2240.329	2734.872
-52.203	45.035	1766.850	1612.871
-51.188	37.821	1573.845	1385.586
-50.173	35.291	1546.008	1343.326
-49.159	52.769	1594.702	1510.427
-48.144	56.282	1613.935	1553.602
-47.130	38.120	1570.835	1384.832
-46.115	34.972	1554.371	1348.131
-45.100	34.771	1551.439	1344.120
-44.086	34.670	1549.940	1342.059
-43.071	34.616	1548.208	1340.124
-42.057	34.714	1546.114	1338.946
-41.042	34.620	1544.840	1337.131
-40.027	34.677	1542.848	1335.753
-39.013	34.676	1541.276	1334.329
-37.998	34.707	1540.156	1333.526
-36.984	34.799	1539.081	1333.182
-35.969	34.712	1537.858	1331.463
-34.954	34.747	1536.279	1330.289
-33.940	34.708	1534.584	1328.496
-32.925	34.755	1533.049	1327.444
-31.911	34.655	1532.183	1325.943
-30.896	34.720	1530.666	1325.032
-29.881	34.729	1529.123	1323.703
-28.867	34.651	1527.717	1321.894
-27.852	34.679	1526.389	1320.888
-26.838	34.700	1524.686	1319.508
-25.823	34.722	1523.372	1318.470
-24.809	34.740	1521.566	1316.979
-23.794	34.661	1520.325	1315.304
-22.779	34.739	1518.939	1314.589
-21.765	34.696	1518.090	1313.507
-20.750	34.787	1516.764	1312.937
-19.736	34.752	1515.688	1311.715
-18.721	34.746	1514.545	1310.629
-17.706	34.766	1513.388	1309.711
-16.692	34.715	1512.225	1308.305
-15.677	34.646	1511.350	1307.028
-14.663	34.664	1510.564	1306.414
-13.648	34.580	1509.494	1304.863
-12.633	34.684	1508.309	1304.500
-11.619	34.720	1507.646	1304.121
-10.604	34.667	1507.087	1303.224
-9.590	34.513	1506.698	1301.785
-8.575	34.659	1504.977	1301.240
-7.560	34.617	1504.028	1300.081
-6.546	34.687	1503.253	1299.834
-5.531	34.608	1502.881	1298.922
-4.517	34.703	1501.406	1298.248
-3.502	34.582	1500.688	1296.754
-2.487	34.549	1499.800	1295.709
-1.473	34.696	1498.109	1295.195
-0.458	34.633	1497.307	1294.018
0.556	35.270	1488.133	1285.594
1.571	32.993	1462.484	1248.295
2.586	29.915	1399.511	1174.938
3.600	28.126	1315.010	1093.221
4.615	26.024	1267.258	1041.308
5.629	21.706	1207.738	968.498
6.644	12.280	1119.328	849.001
7.659	5.242	1075.706	780.762
8.673	4.168	1069.720	771.010
9.688	4.191	1067.071	769.143
10.702	4.131	1065.753	767.830
11.717	4.190	1063.884	766.707
12.731	6.587	1067.029	780.787
13.746	15.233	1079.026	832.618
14.761	20.713	1085.573	864.909
15.775	20.167	1083.754	860.673
16.790	19.136	1081.787	853.921
17.804	18.061	1079.178	846.466
18.819	17.132	1077.727	840.658
19.834	16.765	1075.968	837.395
20.848	16.483	1075.067	835.231
21.863	16.362	1074.230	833.906
22.877	16.019	1073.796	831.803
23.892	15.894	1072.392	830.028
24.907	15.791	1072.169	829.273
25.921	15.831	1071.278	828.707
26.936	15.833	1070.512	828.051
27.950	15.927	1069.124	827.367
28.965	15.879	1068.180	826.329
29.980	16.081	1066.668	826.074
30.994	16.048	1066.020	825.338
32.009	16.307	1064.795	825.585
33.023	16.244	1064.037	824.615
34.038	16.121	1063.611	823.609
35.053	16.055	1062.684	822.500
36.067	16.080	1061.689	821.778
37.082	16.080	1060.521	820.798
38.096	16.014	1059.956	819.970
39.111	16.022	1059.533	819.608
40.126	16.233	1058.425	819.702
41.140	15.948	1057.227	817.319
42.155	15.832	1056.375	816.025
43.169	15.758	1055.242	814.720
44.184	15.645	1053.936	813.093
45.199	15.609	1052.922	812.068
46.213	15.665	1052.030	811.577
47.228	15.852	1050.549	811.265
48.242	15.834	1050.208	810.842
49.257	16.011	1049.234	810.869
50.271	15.983	1048.240	809.896
51.286	15.988	1047.423	809.215
52.301	16.041	1046.362	808.581
53.315	16.030	1045.757	807.987
54.330	15.894	1044.852	806.563
55.344	15.923	1043.776	805.804
56.359	15.726	1042.816	804.046
57.374	15.772	1042.248	803.758
58.388	15.841	1041.048	803.092
59.403	15.629	1040.336	801.462
60.417	15.643	1039.706	800.970
61.432	15.736	1038.774	800.624
62.447	15.712	1038.403	800.152
63.461	15.554	1037.138	798.355
64.476	15.614	1035.831	797.564
65.490	15.516	1035.862	797.053
66.505	15.567	1034.604	796.255
67.520	15.652	1033.871	796.026
68.534	15.703	1032.862	795.417
69.549	15.534	1032.349	794.152
70.563	15.788	1031.161	794.367
71.578	15.517	1031.149	793.008
72.593	15.549	1029.631	791.925
73.607	15.558	1028.535	791.053
74.622	15.361	1027.952	789.606
75.636	15.408	1027.277	789.242
76.651	15.483	1026.189	788.688
77.666	15.540	1025.274	788.179
78.680	15.553	1025.057	788.004
79.695	15.591	1024.220	787.469
80.709	15.447	1024.047	786.591
81.724	15.502	1023.338	786.237
82.739	15.737	1022.080	786.301
83.753	15.844	1021.477	786.264
84.768	15.864	1020.606	785.617
85.782	15.995	1020.358	785.967
86.797	16.096	1019.560	785.758
87.812	16.082	1018.325	784.670
88.826	16.068	1017.503	783.901
89.841	15.936	1016.659	782.570
90.855	16.030	1015.710	782.204
91.870	15.961	1015.596	781.729
92.884	16.136	1014.376	781.530
93.899	16.154	1013.850	781.139
94.914	16.003	1013.101	779.795
95.928	16.155	1012.417	779.904
96.943	16.167	1012.039	779.598
97.957	16.200	1010.733	778.673
98.972	15.991	1010.215	777.241
99.987	16.092	1009.343	776.970
101.001	16.086	1008.438	776.177
102.016	16.051	1008.061	775.657
103.030	16.000	1006.729	774.327
104.045	16.131	1005.579	773.978
105.060	15.936	1005.119	772.657
106.074	15.943	1003.666	771.504
107.089	15.956	1001.906	770.143
108.103	15.755	1001.989	769.221
109.118	15.656	1001.103	768.021
110.133	15.614	1000.023	766.933
111.147	15.588	999.271	766.168
112.162	15.595	998.481	765.529
113.176	15.533	997.721	764.595
114.191	15.631	996.586	764.101
115.206	15.742	995.931	764.035
116.220	15.763	995.003	763.352
117.235	15.657	994.317	762.279
118.249	15.741	993.464	761.936
119.264	15.576	992.513	760.393
120.279	15.623	991.400	759.688
121.293	15.554	990.847	758.883
122.308	15.662	989.812	758.509
123.322	15.680	989.095	757.976
124.337	15.492	987.977	756.205
125.352	15.510	986.810	755.328
126.366	15.548	985.344	754.306
127.381	15.419	984.850	753.286
128.395	15.560	983.326	752.683
129.410	15.485	982.964	752.006
130.424	15.595	981.710	751.471
131.439	15.625	981.104	751.072
132.454	15.630	980.407	750.495
133.468	15.758	979.634	750.408
134.483	15.669	978.903	749.385
135.497	15.844	978.247	749.596
136.512	15.803	977.381	748.686
137.527	15.807	976.517	747.976
138.541	15.791	975.679	747.197
139.556	15.697	975.507	746.578
140.570	15.866	974.019	746.124
141.585	15.941	973.087	745.679
142.600	15.939	972.965	745.509
143.614	16.030	972.136	745.209
144.629	16.062	971.581	744.862
145.643	16.163	970.678	744.546
146.658	16.014	969.549	742.956
147.673	16.000	968.937	742.360
148.687	15.924	967.887	741.155
149.702	15.747	967.048	739.671
150.716	15.790	966.050	739.033
151.731	15.691	965.108	737.812
152.746	15.875	964.457	738.054
153.760	15.855	963.737	737.349
154.775	15.874	962.988	736.794
155.789	15.941	962.388	736.564
156.804	15.950	961.978	736.223
157.819	15.964	960.867	735.370
158.833	15.951	960.564	735.018
159.848	16.082	959.741	734.892
160.862	16.163	958.747	734.420
161.877	16.207	957.643	733.702
162.892	15.997	957.126	732.327
163.906	15.779	956.122	730.546
164.921	15.862	955.461	730.337
165.935	15.854	953.938	729.072
166.950	15.743	953.447	728.153
167.964	16.020	952.396	728.483
168.979	15.994	951.494	727.617
169.994	15.930	950.532	726.540
171.008	15.829	949.691	725.399
172.023	15.905	948.782	724.970
173.037	15.966	948.408	724.879
174.052	16.116	947.617	724.856
175.067	16.212	946.533	724.377
176.081	16.038	945.413	722.710
177.096	15.930	944.969	721.843
178.110	15.945	943.629	720.819
179.125	15.959	943.197	720.487
180.140	16.056	942.340	720.182
181.154	15.963	941.997	719.457
182.169	16.035	941.597	719.396
183.183	16.202	941.061	719.636
184.198	16.247	939.868	718.849
185.213	16.313	939.419	718.724
186.227	16.250	938.595	717.765
187.242	16.198	938.413	717.339
188.256	16.284	937.805	717.175
189.271	16.325	937.253	716.863
190.286	16.433	936.164	716.427
191.300	16.251	935.232	714.880
192.315	15.972	934.085	712.757
193.329	15.683	934.059	711.451
194.344	15.811	932.708	710.900
195.359	16.067	932.229	711.555
196.373	16.061	932.076	711.351
197.388	16.212	931.548	711.520
198.402	16.397	930.878	711.726
199.417	16.467	930.687	711.810
200.432	16.545	930.150	711.663
201.446	16.484	929.926	711.175
202.461	16.629	929.293	711.237
203.475	16.599	928.949	710.783
204.490	16.653	928.198	710.375
205.504	16.514	927.157	708.930
206.519	16.489	925.912	707.813
207.534	16.399	925.588	707.124
208.548	16.354	924.843	706.303
209.563	16.435	924.329	706.190
210.577	16.457	923.476	705.568
211.592	16.521	922.602	705.101
212.607	16.429	922.518	704.591
213.621	16.555	921.891	704.577
214.636	16.545	921.048	703.827
215.650	16.643	920.076	703.430
216.665	16.637	920.000	703.284
217.680	16.559	919.649	702.630
218.694	16.747	918.841	702.730
219.709	16.742	918.657	702.509
220.723	16.815	917.453	701.829
221.738	16.748	916.788	700.978
222.753	16.662	916.325	700.207
223.767	16.679	915.389	699.502
224.782	16.703	914.961	699.212
225.796	16.903	914.049	699.277
226.811	16.945	912.994	698.579
227.826	16.879	912.546	697.904
228.840	16.707	911.739	696.519
229.855	16.757	911.089	696.166
230.869	16.831	910.631	696.056
231.884	16.652	910.317	695.020
232.899	16.686	909.408	694.406
233.913	16.719	908.499	693.785
234.928	16.789	907.656	693.366
235.942	16.704	907.332	692.708
236.957	16.589	906.210	691.320
237.972	16.668	905.588	691.107
238.986	16.696	905.135	690.817
240.001	16.739	904.311	690.302
241.015	16.853	903.381	689.993
242.030	16.813	902.528	689.120
243.045	16.788	902.442	688.892
244.059	16.831	901.906	688.597
245.074	16.933	900.844	688.139
246.088	16.849	900.930	687.802
247.103	16.888	900.247	687.379
248.117	16.957	899.457	686.993
249.132	17.017	899.213	686.987
250.147	17.218	898.779	687.410
251.161	17.311	897.980	687.112
252.176	17.314	897.496	686.693
253.190	17.319	896.883	686.187
254.205	17.403	896.132	685.889
255.220	17.515	895.571	685.850
256.234	17.481	894.248	684.637
257.249	17.419	894.159	684.259
258.263	17.453	893.409	683.763
259.278	17.488	892.977	683.513
260.293	17.495	892.528	683.138
261.307	17.434	891.953	682.391
262.322	17.478	891.421	682.102
263.336	17.576	890.960	682.078
264.351	17.496	890.504	681.351
265.366	17.698	889.784	681.548
266.380	17.626	889.296	680.826
267.395	17.642	888.085	679.901
268.409	17.641	886.895	678.924
269.424	17.697	886.758	678.983
270.439	17.470	886.233	677.620
271.453	17.561	885.366	677.258
272.468	17.493	884.784	676.483
273.482	17.536	883.957	675.959
274.497	17.487	883.543	675.391
275.512	17.502	882.708	674.750
276.526	17.522	881.912	674.161
277.541	17.416	881.437	673.321
278.555	17.536	880.669	673.149
279.570	17.726	880.004	673.331
280.585	17.754	879.676	673.130
281.599	17.798	879.226	672.901
282.614	17.815	878.621	672.443
283.628	17.690	877.896	671.338
284.643	17.532	877.177	670.107
285.657	17.720	876.862	670.546
286.672	17.757	875.992	669.969
287.687	17.821	875.432	669.729
288.701	17.802	874.831	669.139
289.716	17.939	873.865	668.878
290.730	17.701	873.935	667.937
291.745	17.752	873.356	667.637
292.760	17.998	872.544	667.917
293.774	17.867	871.881	666.840
294.789	17.996	871.169	666.739
295.803	18.025	870.510	666.289
296.818	17.849	870.444	665.494
297.833	17.967	868.980	664.776
298.847	17.868	868.675	664.097
299.862	17.745	867.765	662.867
300.876	17.992	867.201	663.336
301.891	17.948	866.795	662.795
302.906	17.981	865.992	662.249
303.920	18.107	865.326	662.169
304.935	18.093	864.818	661.671
305.949	18.111	864.432	661.384
306.964	18.311	863.713	661.549
307.979	18.076	862.817	659.898
308.993	18.029	862.927	659.742
310.008	18.105	862.399	659.573
311.022	18.174	861.570	659.147
312.037	18.153	861.008	658.579
313.052	18.071	860.715	657.977
314.066	18.152	859.562	657.352
315.081	17.929	858.960	655.976
316.095	18.077	858.378	656.043
317.110	17.936	858.208	655.314
318.125	17.923	857.458	654.631
319.139	18.011	856.955	654.526
320.154	18.099	856.670	654.589
321.168	17.952	856.118	653.548
322.183	18.060	855.455	653.394
323.197	18.227	854.959	653.596
324.212	18.017	854.505	652.388
325.227	18.134	853.830	652.261
326.241	18.065	853.297	651.533
327.256	18.118	852.691	651.218
328.270	18.069	852.075	650.501
329.285	18.067	851.262	649.816
330.300	18.220	850.642	649.867
331.314	18.056	850.546	649.114
332.329	18.126	849.515	648.532
333.343	18.275	849.077	648.707
334.358	18.391	848.817	648.890
335.373	18.258	848.119	647.796
336.387	18.332	847.740	647.730
337.402	18.399	847.048	647.396
338.416	18.442	846.545	647.117
339.431	18.496	846.149	646.962
340.446	18.577	845.107	646.412
341.460	18.641	844.941	646.468
342.475	18.609	844.294	645.798
343.489	18.762	843.981	646.075
344.504	18.800	843.344	645.673
345.519	18.857	842.590	645.253
346.533	18.814	842.387	644.879
347.548	18.770	841.915	644.296
348.562	18.744	841.319	643.684
349.577	18.478	840.355	641.896
350.592	18.550	839.863	641.732
351.606	18.521	839.507	641.294
352.621	18.478	838.889	640.603
353.635	18.445	838.651	640.244
354.650	18.638	837.954	640.375
355.665	18.643	837.644	640.101
356.679	18.725	837.116	639.946
357.694	18.654	836.932	639.483
358.708	18.679	836.015	638.819
359.723	18.688	835.567	638.453
360.738	18.740	834.962	638.128
361.752	18.711	834.484	637.598
362.767	18.755	834.170	637.467
363.781	18.939	833.441	637.536
364.796	18.857	833.375	637.125
365.810	18.993	833.138	637.389
366.825	19.062	832.868	637.382
367.840	19.144	832.360	637.242
368.854	18.900	832.193	636.154
369.869	18.838	831.485	635.326
370.883	19.056	830.530	635.345
371.898	18.990	829.960	634.610
372.913	19.032	829.274	634.185
373.927	19.270	828.623	634.506
374.942	19.187	828.143	633.778
375.956	19.079	827.469	632.811
376.971	19.130	827.042	632.615
377.986	19.083	826.824	632.218
379.000	19.324	825.830	632.285
380.015	19.354	825.159	631.826
381.029	19.298	825.043	631.478
382.044	19.266	824.369	630.786
383.059	19.395	823.675	630.674
384.073	19.406	823.070	630.194
385.088	19.368	822.667	629.689
386.102	19.334	822.163	629.126
387.117	19.173	821.184	627.735
388.132	19.181	820.883	627.478
389.146	19.148	820.486	626.999
390.161	18.992	820.627	626.482
391.175	19.352	819.885	627.170
392.190	19.411	819.549	627.071
393.205	19.378	819.105	626.556
394.219	19.197	818.688	625.524
395.234	19.287	817.945	625.230
396.248	19.147	817.602	624.405
397.263	19.118	816.977	623.765
398.278	19.153	816.484	623.462
399.292	19.073	815.768	622.569
400.307	19.071	815.447	622.264
401.321	19.325	814.665	622.527
402.336	19.239	814.657	622.156
403.350	19.216	814.321	621.761
404.365	19.261	813.838	621.499
405.380	19.386	813.298	621.482
406.394	19.420	812.967	621.297
407.409	19.392	812.866	621.063
408.423	19.589	812.039	621.086
409.438	19.513	811.811	620.582
410.453	19.521	811.264	620.140
411.467	19.611	810.676	619.959
412.482	19.660	810.404	619.873
413.496	19.669	809.960	619.509
414.511	19.776	809.529	619.509
415.526	19.765	808.931	618.957
416.540	19.694	808.700	618.470
417.555	19.672	808.419	618.122
418.569	19.663	808.013	617.724
419.584	19.814	807.213	617.600
420.599	19.793	806.818	617.167
421.613	154.586	1370.330	1787.481
422.628	134.206	1452.457	1787.616
