DTS Sentinel unit serial number:	SN413079Multiplexer serial number:	ORYXHardware model number:	OX4-SRSoftware version number:	ORYX F/W v4.00 Oryx Data Collector v3.7.2.0data status	okinstallation	princeton_trtdifferential loss correction	single-endedforward channel	channel 3reverse channel	N/Adate	2019/09/15time	20:04:35forward acquisition time	60.00reverse acquisition time	0.00gamma	496.2192k internal	0.2316k external	0.2316temperature offset calibration	0.9938default loss term (dB/km)	0.3790temperature slope calibration	1.0000multiplexer offset coefficient	1.0000multiplexer slope coefficient	1.0000fibre end	0.00T internal ref (°C)	35.36T ext. ref 1 (°C)	7.60T ext. ref 2 (°C)	26.23length (m)	temperature (°C)	Stokes	anti-Stokes-747.200	565.403	-0.221	0.543
-746.185	-115.605	0.049	0.009
-745.171	364.228	0.071	0.144
-744.156	406.387	0.052	0.111
-743.142	109.384	-0.266	0.323
-742.127	-72.627	0.283	-0.106
-741.112	-112.519	-0.026	-0.005
-740.098	-200.000	-0.041	0.258
-739.083	-75.802	-0.224	0.081
-738.069	-13.827	0.152	0.099
-737.054	-200.000	-0.002	0.321
-736.039	596.926	0.069	0.172
-735.025	-85.724	0.378	-0.119
-734.010	123.341	-0.277	0.352
-732.996	800.000	-0.080	0.260
-731.981	-174.930	-0.123	-0.003
-730.966	-150.484	-0.100	0.008
-729.952	-7.608	-0.199	0.136
-728.937	-166.716	0.161	0.007
-727.923	56.014	0.016	0.016
-726.908	102.842	0.155	-0.183
-725.894	-200.000	-0.004	0.136
-724.879	8.619	-0.211	-0.161
-723.864	-200.000	-0.001	0.238
-722.850	800.000	0.069	0.195
-721.835	-46.074	0.191	-0.095
-720.821	800.000	-0.100	-0.284
-719.806	221.947	0.097	-0.158
-718.791	800.000	-0.034	-0.130
-717.777	-200.000	0.040	-0.317
-716.762	-174.378	-0.088	0.003
-715.748	800.000	0.052	-0.178
-714.733	-200.000	0.007	0.208
-713.718	-200.000	-0.024	-0.241
-712.704	800.000	-0.011	-0.043
-711.689	-200.000	0.024	0.220
-710.675	800.000	0.126	0.354
-709.660	-141.832	-0.121	-0.012
-708.645	106.023	0.146	-0.174
-707.631	800.000	0.020	0.066
-706.616	-130.874	-0.233	-0.032
-705.602	-92.101	-0.398	-0.114
-704.587	800.000	0.048	0.188
-703.572	-90.979	0.199	0.058
-702.558	-164.587	-0.127	0.006
-701.543	-162.192	0.142	-0.007
-700.529	149.426	-0.204	-0.279
-699.514	-129.709	0.228	-0.032
-698.499	-74.699	-0.034	-0.012
-697.485	-82.653	-0.212	-0.069
-696.470	-51.643	-0.221	0.104
-695.456	174.303	-0.042	0.061
-694.441	-26.502	-0.188	-0.112
-693.426	278.984	0.061	0.109
-692.412	2.447	-0.019	-0.014
-691.397	66.722	0.021	-0.022
-690.383	264.239	-0.082	-0.144
-689.368	-70.403	-0.146	-0.056
-688.354	16.172	-0.131	0.105
-687.339	313.702	-0.198	0.377
-686.324	-88.039	0.130	-0.040
-685.310	-116.446	-0.174	0.032
-684.295	109.496	0.126	0.153
-683.281	800.000	0.061	0.211
-682.266	-104.875	-0.276	-0.064
-681.251	68.359	0.122	0.126
-680.237	35.564	-0.238	0.211
-679.222	-84.541	0.173	-0.055
-678.208	-106.025	-0.171	-0.039
-677.193	-200.000	0.004	-0.191
-676.178	-71.734	-0.111	0.042
-675.164	-128.514	-0.321	-0.046
-674.149	-6.542	-0.068	0.046
-673.135	18.162	0.146	-0.118
-672.120	71.519	0.129	0.135
-671.105	68.936	-0.059	0.061
-670.091	-123.895	-0.284	0.045
-669.076	-11.452	0.074	-0.049
-668.062	800.000	0.080	0.263
-667.047	188.239	-0.102	0.153
-666.032	-200.000	0.018	-0.158
-665.018	-200.000	-0.016	-0.155
-664.003	164.016	-0.225	0.320
-662.989	-56.980	-0.283	0.126
-661.974	127.179	0.061	0.078
-660.959	-200.000	-0.037	-0.171
-659.945	60.445	-0.237	-0.237
-658.930	217.935	0.195	-0.314
-657.916	-63.989	-0.159	0.066
-656.901	21.629	-0.267	-0.219
-655.886	-20.854	-0.182	0.113
-654.872	779.842	-0.122	-0.336
-653.857	225.847	0.154	-0.251
-652.843	-200.000	0.033	0.233
-651.828	-200.000	0.041	0.218
-650.814	14.844	-0.147	0.116
-649.799	-73.195	-0.232	-0.086
-648.784	-37.785	0.149	0.080
-647.770	149.303	-0.089	0.121
-646.755	-119.761	-0.334	-0.058
-645.741	599.264	0.037	-0.094
-644.726	-174.298	-0.043	0.001
-643.711	372.600	0.125	-0.255
-642.697	382.334	0.128	0.266
-641.682	-64.427	0.147	-0.060
-640.668	800.000	0.056	-0.174
-639.653	215.233	0.135	-0.215
-638.638	63.927	-0.197	-0.200
-637.624	-4.150	-0.463	0.324
-636.609	-96.116	0.135	-0.036
-635.595	-200.000	0.044	-0.272
-634.580	591.654	-0.052	0.130
-633.565	5.668	0.244	0.182
-632.551	-80.100	-0.300	-0.102
-631.536	87.716	-0.114	-0.128
-630.522	541.011	0.036	-0.086
-629.507	-100.855	0.137	0.034
-628.492	326.584	-0.052	0.100
-627.478	-13.483	0.123	0.080
-626.463	604.147	0.116	-0.290
-625.449	-153.079	0.254	0.018
-624.434	800.000	0.057	0.169
-623.419	316.105	0.122	-0.233
-622.405	46.539	-0.189	0.177
-621.390	-25.746	0.069	-0.041
-620.376	-200.000	-0.014	-0.210
-619.361	800.000	-0.075	0.247
-618.346	390.286	-0.086	0.179
-617.332	-200.000	0.049	-0.367
-616.317	-142.274	0.261	-0.026
-615.303	88.717	-0.092	0.103
-614.288	122.581	-0.173	0.218
-613.273	-200.000	-0.024	0.128
-612.259	-106.589	0.290	0.065
-611.244	317.756	0.084	-0.160
-610.230	-182.298	-0.289	-0.005
-609.215	3.579	-0.092	-0.067
-608.201	-52.143	0.193	0.090
-607.186	575.912	-0.079	-0.193
-606.171	-2.217	0.119	-0.084
-605.157	-6.667	-0.099	-0.068
-604.142	274.901	-0.070	0.124
-603.128	-167.060	-0.243	0.010
-602.113	192.678	0.215	0.327
-601.098	67.213	0.069	0.071
-600.084	-63.158	0.304	0.126
-599.069	692.312	0.027	-0.071
-598.055	117.096	0.237	0.294
-597.040	-9.964	0.330	0.221
-596.025	-127.356	0.049	0.007
-595.011	-68.006	-0.205	-0.080
-593.996	-29.985	-0.282	-0.162
-592.982	-200.000	-0.049	-0.263
-591.967	788.220	0.085	0.236
-590.952	-23.637	0.383	-0.231
-589.938	-5.835	0.073	-0.051
-588.923	-200.000	0.003	0.290
-587.909	-63.358	0.113	0.047
-586.894	-27.139	-0.256	-0.150
-585.879	-96.983	0.163	0.043
-584.865	25.566	-0.130	-0.109
-583.850	-200.000	-0.016	-0.260
-582.836	-26.386	-0.120	-0.071
-581.821	-113.090	0.217	-0.043
-580.806	-39.933	-0.268	0.141
-579.792	-49.987	0.057	-0.027
-578.777	-86.864	0.092	0.028
-577.763	-200.000	0.023	0.191
-576.748	112.835	-0.070	-0.085
-575.733	-200.000	-0.013	0.201
-574.719	-134.203	0.143	0.018
-573.704	800.000	0.053	-0.156
-572.690	-28.257	0.402	0.234
-571.675	-25.031	-0.211	0.126
-570.661	800.000	0.013	0.044
-569.646	95.534	0.156	-0.179
-568.631	-124.383	0.407	0.064
-567.617	177.568	0.029	-0.042
-566.602	30.936	-0.141	0.121
-565.588	-12.290	-0.098	-0.065
-564.573	-135.324	0.361	-0.043
-563.558	85.543	0.075	0.083
-562.544	-200.000	0.037	-0.540
-561.529	407.421	-0.158	-0.337
-560.515	-72.325	0.158	-0.059
-559.500	-128.750	-0.286	0.041
-558.485	169.778	-0.171	0.245
-557.471	-33.191	0.177	0.099
-556.456	349.194	-0.020	-0.039
-555.442	-146.001	0.184	-0.016
-554.427	34.590	-0.131	-0.115
-553.412	-25.964	0.408	0.242
-552.398	-74.831	-0.113	0.041
-551.383	-200.000	-0.017	-0.241
-550.369	-200.000	0.005	0.162
-549.354	800.000	0.048	0.155
-548.339	-200.000	0.012	0.085
-547.325	75.652	-0.180	0.191
-546.310	-183.663	0.176	0.003
-545.296	-85.510	-0.242	0.076
-544.281	-200.000	0.075	0.514
-543.266	251.890	0.141	-0.240
-542.252	-39.813	0.244	-0.128
-541.237	-68.011	-0.191	-0.075
-540.223	101.005	0.036	0.042
-539.208	-116.688	-0.204	0.038
-538.193	-200.000	-0.007	-0.192
-537.179	157.793	0.080	0.111
-536.164	319.105	-0.174	-0.332
-535.150	800.000	-0.072	-0.219
-534.135	94.493	0.051	-0.059
-533.121	800.000	-0.129	0.441
-532.106	-200.000	-0.047	-0.263
-531.091	260.995	0.157	-0.273
-530.077	-96.273	-0.060	0.016
-529.062	11.170	-0.209	0.161
-528.048	0.651	0.230	-0.165
-527.033	-63.614	0.097	0.040
-526.018	10.690	0.247	0.189
-525.004	296.438	-0.059	-0.108
-523.989	192.323	0.039	-0.060
-522.975	-7.398	-0.215	-0.146
-521.960	800.000	0.042	0.136
-520.945	-200.000	-0.008	-0.049
-519.931	733.090	-0.045	-0.120
-518.916	164.492	-0.121	0.171
-517.902	223.634	0.136	0.220
-516.887	800.000	-0.053	0.166
-515.872	12.075	-0.293	-0.226
-514.858	800.000	-0.048	-0.135
-513.843	-156.074	0.277	0.018
-512.829	-200.000	0.032	-0.142
-511.814	-200.000	0.042	-0.338
-510.799	267.573	-0.237	-0.416
-509.785	800.000	-0.062	-0.226
-508.770	-46.613	0.208	0.102
-507.756	-8.528	-0.300	-0.202
-506.741	72.313	0.059	-0.061
-505.726	-81.719	0.425	0.140
-504.712	-51.038	-0.274	-0.129
-503.697	-200.000	-0.014	0.203
-502.683	202.418	0.022	0.035
-501.668	800.000	-0.135	-0.429
-500.653	116.888	-0.238	0.294
-499.639	213.080	0.242	0.383
-498.624	-166.446	0.252	0.011
-497.610	271.122	-0.041	-0.073
-496.595	-125.120	0.198	-0.030
-495.581	-106.794	-0.124	-0.028
-494.566	19.597	0.118	0.095
-493.551	-78.733	-0.161	-0.055
-492.537	-25.909	-0.153	-0.091
-491.522	-200.000	0.006	-0.280
-490.508	-115.511	0.142	-0.027
-489.493	69.393	-0.263	-0.272
-488.478	-42.179	-0.242	-0.124
-487.464	89.258	-0.207	0.231
-486.449	-59.841	-0.262	-0.113
-485.435	149.662	0.074	-0.101
-484.420	236.623	0.210	0.348
-483.405	800.000	0.093	0.257
-482.391	69.928	-0.134	-0.138
-481.376	800.000	0.145	0.499
-480.362	800.000	0.165	-0.562
-479.347	-140.629	-0.111	-0.012
-478.332	-200.000	0.040	0.184
-477.318	-196.073	-0.155	0.001
-476.303	-153.145	0.216	-0.015
-475.289	202.245	0.113	0.174
-474.274	-23.132	0.447	-0.270
-473.259	135.365	-0.060	-0.079
-472.245	121.979	-0.118	0.148
-471.230	5.236	0.190	0.140
-470.216	-200.000	0.040	-0.219
-469.201	800.000	0.159	0.547
-468.186	-146.723	-0.317	0.028
-467.172	38.834	-0.230	-0.206
-466.157	-77.530	-0.385	-0.134
-465.143	209.626	-0.029	0.046
-464.128	414.552	-0.149	0.318
-463.113	-57.641	0.218	0.096
-462.099	255.212	0.040	-0.069
-461.084	108.910	-0.229	0.275
-460.070	321.429	0.004	0.007
-459.055	800.000	-0.051	-0.194
-458.040	-200.000	-0.017	0.173
-457.026	263.019	0.026	0.046
-456.011	-200.000	0.018	-0.232
-454.997	-200.000	-0.008	-0.198
-453.982	34.304	-0.213	0.186
-452.968	-0.449	-0.269	0.191
-451.953	-200.000	0.004	-0.078
-450.938	-200.000	-0.011	0.081
-449.924	-29.102	0.114	-0.066
-448.909	-112.030	0.195	0.039
-447.895	-200.000	0.021	-0.104
-446.880	18.330	0.133	0.107
-445.865	7.528	0.132	-0.099
-444.851	546.343	0.043	-0.103
-443.836	-38.618	-0.233	-0.123
-442.822	800.000	-0.038	-0.106
-441.807	1.238	0.255	0.183
-440.792	-102.409	0.048	-0.012
-439.778	336.939	-0.077	-0.150
-438.763	49.084	-0.002	-0.002
-437.749	-59.690	0.204	0.088
-436.734	-200.000	0.011	-0.162
-435.719	-200.000	-0.063	0.335
-434.705	24.336	-0.145	0.120
-433.690	22.503	-0.228	0.187
-432.676	373.226	-0.204	-0.414
-431.661	3.667	-0.095	0.069
-430.646	667.650	-0.045	0.117
-429.632	-107.949	0.255	0.055
-428.617	176.599	0.102	0.148
-427.603	52.544	0.199	-0.190
-426.588	-122.745	0.053	0.009
-425.573	800.000	-0.102	-0.346
-424.559	329.502	0.061	0.117
-423.544	-200.000	-0.027	-0.193
-422.530	800.000	-0.091	-0.261
-421.515	279.604	0.117	0.210
-420.500	-200.000	-0.033	-0.225
-419.486	172.938	-0.216	-0.311
-418.471	800.000	-0.075	-0.223
-417.457	586.275	0.024	-0.059
-416.442	34.483	0.084	-0.074
-415.428	-11.073	-0.177	0.117
-414.413	187.100	0.063	-0.094
-413.398	-67.866	0.116	-0.045
-412.384	-200.000	0.005	0.028
-411.369	-71.589	-0.239	0.089
-410.355	-51.510	-0.264	0.123
-409.340	-80.706	0.161	-0.053
-408.325	227.553	0.136	0.221
-407.311	-146.889	-0.390	-0.034
-406.296	-200.000	-0.030	-0.407
-405.282	-200.000	-0.022	-0.128
-404.267	29.565	0.113	0.096
-403.252	342.360	-0.164	0.320
-402.238	-57.691	0.110	0.048
-401.223	-78.908	-0.035	-0.012
-400.209	10.583	0.058	0.044
-399.194	99.912	-0.075	-0.087
-398.179	-200.000	-0.011	0.173
-397.165	-101.749	0.153	0.037
-396.150	-82.193	0.320	0.104
-395.136	-200.000	-0.015	-0.115
-394.121	152.213	0.048	0.065
-393.106	-49.681	0.319	-0.152
-392.092	-79.689	-0.210	-0.071
-391.077	-157.844	0.187	0.011
-390.063	-36.212	0.101	0.054
-389.048	163.302	0.185	0.259
-388.033	-200.000	0.009	-0.044
-387.019	-0.698	-0.164	0.116
-386.004	-157.571	-0.086	-0.005
-384.990	-200.000	-0.033	0.212
-383.975	-89.477	-0.136	0.040
-382.960	-115.189	-0.285	0.054
-381.946	-156.049	-0.325	-0.021
-380.931	432.942	-0.127	0.276
-379.917	-25.414	-0.170	-0.100
-378.902	-99.110	0.141	-0.036
-377.888	-200.000	-0.008	0.145
-376.873	164.967	-0.075	-0.105
-375.858	-178.655	-0.159	-0.004
-374.844	-54.858	0.116	-0.052
-373.829	-200.000	0.013	-0.068
-372.815	-16.519	-0.147	0.093
-371.800	-200.000	0.010	0.096
-370.785	-124.017	-0.073	0.011
-369.771	-90.168	-0.172	0.050
-368.756	-47.064	0.153	0.074
-367.742	-178.927	-0.298	0.007
-366.727	-200.000	-0.033	0.169
-365.712	-5.404	-0.125	0.086
-364.698	800.000	0.050	0.171
-363.683	800.000	-0.046	-0.176
-362.669	800.000	-0.088	-0.274
-361.654	-200.000	0.016	0.100
-360.639	-98.067	0.195	0.050
-359.625	-111.581	0.362	0.073
-358.610	-100.554	0.104	-0.026
-357.596	121.935	-0.245	0.305
-356.581	-40.195	-0.082	-0.042
-355.566	-200.000	0.020	-0.303
-354.552	47.379	0.364	-0.339
-353.537	-200.000	0.071	0.333
-352.523	-200.000	0.246	-0.001
-351.508	83.671	0.107	0.117
-350.493	-53.862	0.089	-0.041
-349.479	206.029	0.130	0.202
-348.464	44.208	0.255	-0.233
-347.450	153.548	-0.075	0.103
-346.435	-5.754	-0.255	0.174
-345.420	-200.000	-0.028	0.250
-344.406	-92.942	0.205	-0.057
-343.391	-55.107	-0.419	-0.188
-342.377	40.015	0.225	0.202
-341.362	-143.018	0.227	0.022
-340.348	294.590	-0.158	-0.288
-339.333	-149.578	-0.135	-0.011
-338.318	-15.627	-0.140	0.089
-337.304	-111.833	-0.281	-0.057
-336.289	205.494	-0.107	0.166
-335.275	-200.000	-0.039	0.198
-334.260	43.387	-0.251	-0.229
-333.245	-110.821	0.093	0.019
-332.231	-200.000	0.014	0.266
-331.216	742.412	-0.056	-0.150
-330.202	800.000	0.057	-0.233
-329.187	766.979	0.062	-0.167
-328.172	66.973	0.108	-0.110
-327.158	-200.000	0.005	-0.022
-326.143	-73.286	-0.173	-0.063
-325.129	99.657	-0.220	0.254
-324.114	800.000	0.100	0.283
-323.099	-74.654	-0.159	-0.057
-322.085	-200.000	-0.018	-0.194
-321.070	-200.000	-0.032	-0.269
-320.056	92.045	-0.220	-0.247
-319.041	-78.590	0.150	0.051
-318.026	0.350	-0.239	0.170
-317.012	-200.000	-0.029	0.148
-315.997	-50.477	0.271	0.127
-314.983	189.362	0.180	0.269
-313.968	120.326	-0.242	0.299
-312.953	800.000	0.089	0.276
-311.939	127.298	0.223	-0.281
-310.924	393.891	0.081	-0.167
-309.910	-34.798	-0.044	0.024
-308.895	-171.852	0.322	-0.010
-307.880	103.854	-0.027	0.032
-306.866	24.801	-0.277	-0.229
-305.851	78.595	0.095	0.101
-304.837	153.029	-0.116	0.158
-303.822	-200.000	-0.017	-0.076
-302.807	-180.023	-0.290	0.006
-301.793	-73.955	0.075	-0.027
-300.778	31.317	0.052	0.045
-299.764	198.338	0.127	-0.193
-298.749	170.512	0.231	0.329
-297.735	800.000	-0.036	-0.103
-296.720	98.588	-0.162	-0.186
-295.705	-102.403	0.150	-0.036
-294.691	-72.272	0.204	0.075
-293.676	8.287	-0.231	0.173
-292.662	-200.000	0.075	0.369
-291.647	-111.457	0.123	0.025
-290.632	-200.000	-0.085	-0.437
-289.618	-7.656	-0.085	-0.057
-288.603	-74.144	0.206	-0.074
-287.589	298.816	0.061	0.111
-286.574	800.000	-0.136	-0.508
-285.559	-200.000	0.036	-0.297
-284.545	-39.729	0.132	0.069
-283.530	800.000	0.141	0.408
-282.516	-88.010	-0.390	0.116
-281.501	-82.399	-0.040	0.013
-280.486	-97.547	-0.036	0.009
-279.472	73.074	0.258	-0.268
-278.457	-41.427	-0.159	-0.082
-277.443	-200.000	0.023	-0.218
-276.428	10.399	-0.150	0.113
-275.413	800.000	0.100	0.315
-274.399	3.377	-0.306	0.221
-273.384	-83.462	0.427	0.136
-272.370	306.206	-0.024	-0.044
-271.355	-108.647	-0.190	0.041
-270.340	490.413	-0.081	-0.185
-269.326	145.581	-0.072	-0.096
-268.311	4.244	-0.118	-0.086
-267.297	-34.906	0.208	-0.113
-266.282	135.303	0.187	0.242
-265.267	-3.132	-0.145	-0.100
-264.253	800.000	-0.048	-0.202
-263.238	-0.542	0.133	0.094
-262.224	-189.329	0.198	-0.002
-261.209	-6.961	0.044	0.030
-260.195	115.570	0.135	-0.164
-259.180	241.290	0.048	-0.079
-258.165	381.921	0.039	0.080
-257.151	-107.252	-0.365	0.080
-256.136	315.478	-0.048	0.089
-255.122	-119.824	0.405	-0.069
-254.107	-168.991	-0.338	-0.013
-253.092	48.610	-0.026	0.024
-252.078	102.016	0.257	-0.298
-251.063	124.337	0.065	0.082
-250.049	-31.758	0.195	0.109
-249.034	-200.000	0.019	0.130
-248.019	731.071	-0.127	0.336
-247.005	59.434	-0.292	0.286
-245.990	-200.000	-0.022	-0.196
-244.976	-73.317	-0.290	-0.105
-243.961	20.490	-0.170	0.137
-242.946	-200.000	-0.054	-0.417
-241.932	-200.000	-0.000	0.072
-240.917	-90.031	-0.023	0.007
-239.903	34.894	-0.102	-0.088
-238.888	-200.000	-0.033	-0.427
-237.873	64.467	-0.202	0.202
-236.859	-18.208	0.222	-0.138
-235.844	-200.000	0.009	-0.068
-234.830	42.852	-0.389	-0.352
-233.815	-47.805	-0.043	-0.021
-232.800	67.346	0.171	0.173
-231.786	66.014	0.223	-0.225
-230.771	-3.764	0.041	-0.028
-229.757	-45.255	0.335	-0.165
-228.742	-200.000	-0.031	0.178
-227.727	246.268	-0.069	-0.116
-226.713	800.000	-0.024	0.068
-225.698	-93.186	0.118	-0.033
-224.684	-34.148	-0.481	-0.262
-223.669	52.777	0.139	-0.132
-222.655	219.829	0.021	-0.034
-221.640	-148.550	-0.407	0.033
-220.625	-24.307	-0.324	0.192
-219.611	-122.634	0.283	-0.045
-218.596	-50.991	0.194	0.091
-217.582	74.172	-0.131	0.137
-216.567	688.374	0.065	0.170
-215.552	119.299	0.028	0.035
-214.538	105.475	-0.102	0.120
-213.523	-15.035	0.163	-0.103
-212.509	-79.665	-0.162	0.054
-211.494	-30.881	-0.074	0.041
-210.479	-33.312	0.398	-0.219
-209.465	800.000	-0.069	-0.235
-208.450	15.499	-0.191	-0.149
-207.436	-101.816	0.068	-0.016
-206.421	8.864	-0.131	-0.098
-205.406	272.415	-0.072	-0.126
-204.392	-65.498	-0.122	0.048
-203.377	-69.756	0.076	-0.029
-202.363	800.000	-0.079	0.311
-201.348	192.416	-0.060	-0.090
-200.333	7.237	-0.087	0.065
-199.319	800.000	-0.041	-0.143
-198.304	-46.436	-0.156	0.076
-197.290	-101.053	0.039	0.009
-196.275	-200.000	0.001	0.351
-195.260	-57.538	0.065	0.028
-194.246	-41.107	0.184	0.094
-193.231	-200.000	-0.000	0.198
-192.217	-53.921	0.174	0.079
-191.202	800.000	0.067	-0.260
-190.187	-200.000	-0.065	0.294
-189.173	-92.066	-0.111	0.031
-188.158	31.555	-0.143	0.122
-187.144	800.000	0.124	0.386
-186.129	800.000	-0.058	-0.195
-185.114	-35.446	0.056	0.030
-184.100	664.888	-0.251	-0.642
-183.085	-74.268	0.106	0.038
-182.071	413.705	-0.096	0.203
-181.056	-200.000	-0.007	0.196
-180.042	163.413	-0.126	0.176
-179.027	405.804	0.087	0.182
-178.012	-55.325	0.174	-0.077
-176.998	-117.649	0.039	0.007
-175.983	-76.485	0.380	-0.132
-174.969	-58.096	0.367	-0.158
-173.954	-200.000	0.012	-0.277
-172.939	-200.000	0.002	-0.135
-171.925	-200.000	-0.023	-0.343
-170.910	115.808	0.170	-0.206
-169.896	800.000	-0.094	-0.339
-168.881	4.899	0.173	0.126
-167.866	70.334	0.336	0.344
-166.852	-52.031	0.089	0.041
-165.837	-131.752	-0.125	-0.016
-164.823	331.631	0.056	0.107
-163.808	-167.392	0.151	-0.006
-162.793	35.646	-0.092	0.080
-161.779	-142.720	-0.311	0.030
-160.764	800.000	-0.053	0.167
-159.750	800.000	0.045	0.167
-158.735	-159.099	-0.155	0.009
-157.720	185.997	0.202	0.298
-156.706	663.024	0.038	0.097
-155.691	222.694	0.030	-0.049
-154.677	-33.341	-0.172	0.094
-153.662	35.335	0.220	-0.191
-152.647	-200.000	-0.059	0.339
-151.633	640.473	0.149	0.375
-150.618	-200.000	-0.225	-0.001
-149.604	198.289	0.129	-0.196
-148.589	-67.744	0.344	-0.133
-147.574	-6.342	-0.083	0.056
-146.560	12.584	-0.042	-0.032
-145.545	283.718	-0.154	-0.274
-144.531	-12.426	0.203	0.131
-143.516	-200.000	-0.038	-0.227
-142.502	74.888	0.127	-0.133
-141.487	714.092	0.115	-0.302
-140.472	-79.434	0.369	0.124
-139.458	-200.000	0.040	0.282
-138.443	188.700	-0.076	0.112
-137.429	604.646	0.096	-0.236
-136.414	99.507	0.226	0.259
-135.399	-38.945	0.407	-0.212
-134.385	228.162	0.123	0.198
-133.370	39.837	-0.131	0.116
-132.356	241.125	0.075	0.124
-131.341	50.008	-0.113	-0.106
-130.326	40.205	-0.108	-0.096
-129.312	41.050	0.032	0.028
-128.297	-200.000	-0.019	0.189
-127.283	27.085	0.155	0.129
-126.268	-154.542	-0.407	0.027
-125.253	-136.510	-0.201	0.023
-124.239	353.599	-0.109	0.213
-123.224	158.291	-0.194	-0.267
-122.210	-92.343	0.204	0.057
-121.195	79.805	0.201	-0.214
-120.180	800.000	-0.013	0.044
-119.166	-200.000	0.011	-0.110
-118.151	-22.354	0.268	0.160
-117.137	207.262	-0.148	-0.228
-116.122	87.397	-0.151	-0.165
-115.107	-200.000	0.029	0.293
-114.093	128.492	0.138	-0.174
-113.078	800.000	-0.031	0.104
-112.064	530.929	-0.087	0.204
-111.049	176.618	-0.114	-0.164
-110.034	-4.609	-0.090	0.061
-109.020	-54.320	0.443	-0.199
-108.005	800.000	-0.047	-0.132
-106.991	478.057	0.132	-0.296
-105.976	-39.043	-0.140	0.073
-104.962	-200.000	0.015	-0.214
-103.947	-45.999	0.282	0.137
-102.932	10.573	0.207	0.156
-101.918	5.604	-0.102	0.075
-100.903	-72.658	0.182	0.066
-99.889	-44.669	0.353	0.174
-98.874	-10.580	0.060	0.039
-97.859	-200.000	0.013	-0.288
-96.845	167.903	-0.185	-0.259
-95.830	800.000	0.149	-0.545
-94.816	800.000	-0.044	0.174
-93.801	-21.948	-0.263	0.158
-92.786	-39.413	0.348	-0.180
-91.772	326.213	0.112	-0.212
-90.757	757.229	0.026	-0.070
-89.743	-34.191	-0.208	-0.113
-88.728	245.365	-0.091	0.151
-87.713	304.469	0.094	-0.173
-86.699	159.771	0.178	0.245
-85.684	101.925	0.027	-0.031
-84.670	-72.730	-0.437	0.159
-83.655	-95.409	0.136	0.036
-82.640	-176.137	0.345	-0.009
-81.626	37.389	0.056	0.049
-80.611	25.588	-0.189	-0.156
-79.597	-200.000	0.001	0.301
-78.582	800.000	-0.058	-0.175
-77.567	9.322	0.538	-0.401
-76.553	-200.000	0.000	-0.323
-75.538	-191.395	0.173	-0.002
-74.524	10.827	-0.136	-0.102
-73.509	516.205	0.029	-0.066
-72.494	231.409	0.091	-0.147
-71.480	-78.414	0.043	-0.014
-70.465	335.868	0.094	-0.179
-69.451	-119.249	-0.267	-0.046
-68.436	371.197	-0.032	0.064
-67.422	-0.918	0.128	-0.090
-66.407	-92.891	-0.241	0.067
-65.392	-61.562	-0.175	-0.072
-64.378	-200.000	-0.007	0.133
-63.363	-200.000	-0.018	0.265
-62.349	-200.000	-0.051	0.560
-61.334	45.785	-0.834	-0.761
-60.319	292.487	0.261	0.469
-59.305	-200.000	-0.194	-0.899
-58.290	90.241	0.896	0.988
-57.276	472.113	0.643	1.427
-56.261	-200.000	94.251	567.676
-55.246	562.090	1362.083	3248.881
-54.232	158.525	2549.420	3489.312
-53.217	113.572	2172.149	2600.996
-52.203	45.609	1712.858	1560.055
-51.188	38.564	1522.177	1338.400
-50.173	36.132	1494.372	1297.556
-49.159	55.561	1543.133	1473.119
-48.144	58.514	1562.504	1511.736
-47.130	38.887	1519.715	1338.226
-46.115	35.483	1504.825	1302.027
-45.100	35.395	1501.495	1298.494
-44.086	35.387	1499.691	1296.829
-43.071	35.389	1497.493	1294.891
-42.057	35.212	1496.353	1292.659
-41.042	35.283	1494.664	1291.632
-40.027	35.389	1492.849	1290.725
-39.013	35.327	1491.529	1289.116
-37.998	35.322	1490.612	1288.234
-36.984	35.283	1489.675	1287.114
-35.969	35.325	1487.740	1285.674
-34.954	35.389	1486.209	1284.729
-33.940	35.343	1484.947	1283.277
-32.925	35.372	1483.385	1282.070
-31.911	35.402	1482.490	1281.450
-30.896	35.346	1481.588	1280.242
-29.881	35.417	1479.918	1279.222
-28.867	35.352	1478.459	1277.480
-27.852	35.452	1477.014	1276.846
-26.838	35.390	1475.614	1275.171
-25.823	35.439	1473.977	1274.034
-24.809	35.324	1472.716	1272.124
-23.794	35.408	1471.218	1271.336
-22.779	35.427	1470.211	1270.545
-21.765	35.465	1468.786	1269.513
-20.750	35.459	1467.856	1268.620
-19.736	35.325	1467.236	1267.148
-18.721	35.359	1465.950	1266.210
-17.706	35.355	1465.028	1265.339
-16.692	35.327	1463.758	1264.007
-15.677	35.362	1462.483	1263.090
-14.663	35.351	1461.743	1262.326
-13.648	35.288	1461.084	1261.290
-12.633	35.391	1459.522	1260.571
-11.619	35.302	1458.877	1259.374
-10.604	35.329	1458.316	1259.022
-9.590	35.401	1457.073	1258.366
-8.575	35.319	1456.253	1257.074
-7.560	35.370	1455.436	1256.651
-6.546	35.393	1455.080	1256.445
-5.531	35.352	1453.635	1254.878
-4.517	35.364	1452.359	1253.806
-3.502	35.284	1451.821	1252.773
-2.487	35.252	1450.855	1251.680
-1.473	35.312	1449.671	1251.001
-0.458	35.326	1448.349	1249.903
0.556	32.984	1437.924	1235.256
1.571	28.555	1410.054	1182.731
2.586	23.483	1345.762	1097.402
3.600	20.939	1263.138	1015.140
4.615	19.366	1217.362	969.425
5.629	17.587	1164.638	917.784
6.644	12.807	1085.576	831.341
7.659	8.490	1047.678	781.192
8.673	7.727	1042.647	773.661
9.688	7.707	1039.258	770.980
10.702	7.480	1038.007	768.885
11.717	7.476	1036.387	767.597
12.731	9.314	1037.221	777.036
13.746	14.042	1043.354	804.496
14.761	17.409	1047.397	823.874
15.775	17.658	1046.639	824.409
16.790	16.785	1044.795	818.665
17.804	15.754	1042.468	811.795
18.819	14.762	1040.930	805.746
19.834	14.292	1039.048	801.952
20.848	14.010	1038.048	799.752
21.863	13.715	1037.290	797.678
22.877	13.586	1036.355	796.272
23.892	13.358	1035.894	794.751
24.907	13.311	1034.881	793.677
25.921	13.283	1034.257	792.993
26.936	13.229	1033.771	792.293
27.950	13.472	1032.356	792.303
28.965	13.405	1031.477	791.237
29.980	13.416	1030.381	790.379
30.994	13.465	1029.139	789.591
32.009	13.477	1028.577	789.144
33.023	13.605	1027.679	788.997
34.038	13.430	1027.237	787.753
35.053	13.614	1025.872	787.513
36.067	13.504	1024.693	786.013
37.082	13.469	1023.941	785.203
38.096	13.555	1022.970	784.795
39.111	13.507	1022.690	784.284
40.126	13.502	1022.030	783.684
41.140	13.395	1020.566	781.990
42.155	13.268	1019.736	780.683
43.169	13.355	1018.673	780.212
44.184	13.252	1017.574	778.814
45.199	13.139	1016.453	777.354
46.213	13.338	1015.721	777.665
47.228	13.263	1014.312	776.164
48.242	13.370	1013.411	775.909
49.257	13.444	1012.644	775.598
50.271	13.488	1011.449	774.822
51.286	13.546	1010.635	774.397
52.301	13.399	1010.435	773.492
53.315	13.482	1009.460	773.061
54.330	13.325	1009.018	771.926
55.344	13.257	1008.189	770.902
56.359	13.339	1006.756	770.122
57.374	13.278	1005.952	769.155
58.388	13.270	1005.001	768.324
59.403	13.243	1004.325	767.615
60.417	13.253	1003.610	767.043
61.432	13.089	1003.261	765.951
62.447	13.307	1002.123	766.021
63.461	13.192	1001.048	764.602
64.476	13.208	1000.404	764.114
65.490	13.182	999.579	763.297
66.505	13.083	998.860	762.226
67.520	13.165	998.043	761.912
68.534	13.178	997.115	761.198
69.549	13.134	996.646	760.567
70.563	13.147	995.963	760.037
71.578	13.249	994.950	759.669
72.593	13.173	993.995	758.520
73.607	13.070	993.635	757.706
74.622	13.122	992.767	757.217
75.636	13.208	991.558	756.620
76.651	13.114	990.721	755.487
77.666	13.162	990.170	755.220
78.680	13.206	989.045	754.496
79.695	13.253	988.836	754.480
80.709	13.176	988.418	753.745
81.724	13.178	987.636	753.093
82.739	13.269	986.568	752.625
83.753	13.269	985.677	751.879
84.768	13.289	985.340	751.648
85.782	13.426	984.847	751.826
86.797	13.459	984.142	751.370
87.812	13.617	982.605	750.847
88.826	13.390	982.302	749.522
89.841	13.349	981.102	748.354
90.855	13.448	980.510	748.283
91.870	13.599	979.631	748.229
92.884	13.419	979.304	747.101
93.899	13.495	978.382	746.673
94.914	13.537	977.318	745.983
95.928	13.486	976.972	745.424
96.943	13.536	976.318	745.085
97.957	13.579	975.398	744.509
98.972	13.543	974.818	743.842
99.987	13.498	974.059	742.993
101.001	13.612	973.274	742.837
102.016	13.403	972.810	741.481
103.030	13.490	971.809	741.042
104.045	13.488	970.258	739.786
105.060	13.562	969.609	739.555
106.074	13.269	969.018	737.732
107.089	13.420	967.649	737.296
108.103	13.348	966.471	736.016
109.118	13.149	965.847	734.591
110.133	13.266	965.286	734.617
111.147	13.358	964.556	734.405
112.162	13.227	963.631	733.056
113.176	13.153	962.840	732.062
114.191	13.289	962.112	732.047
115.206	13.468	960.947	731.883
116.220	13.430	960.076	730.991
117.235	13.440	959.353	730.416
118.249	13.357	958.349	729.223
119.264	13.432	957.427	728.789
120.279	13.358	956.742	727.875
121.293	13.291	956.320	727.195
122.308	13.340	955.720	726.893
123.322	13.293	954.911	726.005
124.337	13.273	954.100	725.236
125.352	13.290	952.185	723.789
126.366	13.297	951.698	723.385
127.381	13.259	950.533	722.273
128.395	13.111	950.092	721.227
129.410	13.408	948.794	721.473
130.424	13.377	947.873	720.573
131.439	13.290	947.312	719.703
132.454	13.378	946.527	719.425
133.468	13.369	946.104	719.004
134.483	13.502	945.373	718.962
135.497	13.467	944.492	718.076
136.512	13.376	944.077	717.303
137.527	13.451	942.897	716.667
138.541	13.436	941.881	715.765
139.556	13.522	941.717	715.950
140.570	13.411	941.001	714.864
141.585	13.419	940.076	714.131
142.600	13.514	939.726	714.213
143.614	13.670	938.567	713.941
144.629	13.551	937.909	712.863
145.643	13.534	937.358	712.308
146.658	13.501	936.875	711.739
147.673	13.542	935.396	710.728
148.687	13.352	935.089	709.614
149.702	13.448	933.567	708.808
150.716	13.389	932.872	707.965
151.731	13.416	931.832	707.231
152.746	13.474	931.267	706.987
153.760	13.519	930.305	706.383
154.775	13.442	929.921	705.704
155.789	13.583	929.004	705.545
156.804	13.612	928.077	704.901
157.819	13.570	927.342	704.104
158.833	13.587	926.637	703.579
159.848	13.711	926.049	703.597
160.862	13.761	925.747	703.517
161.877	13.702	924.741	702.437
162.892	13.742	923.486	701.590
163.906	13.458	922.993	699.956
164.921	13.344	922.324	698.902
165.935	13.464	921.485	698.712
166.950	13.525	920.406	698.089
167.964	13.468	919.731	697.275
168.979	13.519	919.077	696.935
169.994	13.614	917.743	696.261
171.008	13.486	917.367	695.376
172.023	13.655	916.344	695.246
173.037	13.598	915.748	694.494
174.052	13.767	914.617	694.282
175.067	13.649	914.297	693.485
176.081	13.604	913.215	692.414
177.096	13.655	912.345	691.906
178.110	13.550	911.669	690.894
179.125	13.625	910.733	690.438
180.140	13.669	909.912	689.935
181.154	13.818	909.406	690.110
182.169	13.792	908.963	689.604
183.183	13.839	907.953	688.974
184.198	13.809	907.545	688.478
185.213	13.874	907.009	688.282
186.227	13.871	906.403	687.746
187.242	13.858	905.974	687.306
188.256	13.943	905.420	687.176
189.271	13.922	904.658	686.452
190.286	13.996	903.780	686.030
191.300	13.837	902.700	684.493
192.315	13.700	902.183	683.477
193.329	13.653	901.637	682.810
194.344	13.594	900.994	682.021
195.359	13.660	900.478	681.839
196.373	13.759	900.191	681.970
197.388	13.840	899.492	681.712
198.402	13.800	899.316	681.354
199.417	14.014	898.484	681.541
200.432	14.086	897.829	681.280
201.446	14.089	897.750	681.170
202.461	14.245	897.005	681.183
203.475	14.216	896.592	680.691
204.490	14.244	895.954	680.263
205.504	14.172	895.104	679.262
206.519	14.208	894.374	678.796
207.534	14.040	893.511	677.394
208.548	14.124	893.011	677.296
209.563	14.098	892.415	676.682
210.577	14.092	891.227	675.694
211.592	14.108	891.075	675.586
212.607	14.206	890.343	675.367
213.621	14.329	889.543	675.198
214.636	14.231	889.201	674.483
215.650	14.245	888.355	673.839
216.665	14.301	887.817	673.596
217.680	14.296	887.499	673.276
218.694	14.369	886.714	672.915
219.709	14.314	886.411	672.404
220.723	14.313	885.854	671.920
221.738	14.274	885.299	671.283
222.753	14.312	884.431	670.716
223.767	14.256	883.586	669.792
224.782	14.315	883.116	669.612
225.796	14.421	882.311	669.367
226.811	14.403	881.577	668.681
227.826	14.555	880.550	668.453
228.840	14.408	880.202	667.539
229.855	14.389	879.519	666.885
230.869	14.505	878.768	666.723
231.884	14.462	878.060	665.955
232.899	14.299	877.696	664.968
233.913	14.370	876.826	664.534
234.928	14.428	875.571	663.754
235.942	14.303	875.617	663.234
236.957	14.238	874.761	662.266
237.972	14.409	874.134	662.414
238.986	14.387	873.343	661.667
240.001	14.353	873.143	661.324
241.015	14.237	872.525	660.337
242.030	14.306	872.027	660.176
243.045	14.463	870.972	659.938
244.059	14.672	869.995	659.966
245.074	14.642	869.443	659.372
246.088	14.507	869.169	658.570
247.103	14.570	868.859	658.526
248.117	14.743	867.807	658.352
249.132	14.628	867.690	657.752
250.147	14.801	866.880	657.763
251.161	14.749	866.335	657.087
252.176	14.840	865.991	657.126
253.190	14.876	864.851	656.343
254.205	15.020	864.172	656.336
255.220	14.932	863.698	655.569
256.234	15.222	862.527	655.759
257.249	14.943	862.563	654.637
258.263	14.967	861.983	654.235
259.278	15.055	861.585	654.216
260.293	15.037	861.048	653.681
261.307	15.181	860.197	653.538
262.322	15.157	860.092	653.306
263.336	15.220	859.251	652.857
264.351	15.200	858.815	652.389
265.366	15.350	857.646	652.027
266.380	15.106	857.434	650.860
267.395	15.253	856.560	650.708
268.409	15.139	856.247	649.972
269.424	15.186	855.723	649.700
270.439	15.206	854.754	648.984
271.453	15.146	854.175	648.253
272.468	15.143	853.166	647.418
273.482	15.089	852.640	646.755
274.497	15.152	851.941	646.411
275.512	15.321	851.232	646.465
276.526	15.023	850.932	645.034
277.541	15.138	850.118	644.801
278.555	15.318	849.402	644.892
279.570	15.175	849.500	644.360
280.585	15.271	848.611	643.998
281.599	15.436	848.062	644.156
282.614	15.434	847.563	643.713
283.628	15.423	846.518	642.820
284.643	15.529	845.789	642.617
285.657	15.289	846.347	642.065
286.672	15.404	845.439	641.759
287.687	15.449	844.718	641.325
288.701	15.267	844.790	640.628
289.716	15.389	843.657	640.177
290.730	15.359	843.264	639.708
291.745	15.377	842.599	639.219
292.760	15.462	841.584	638.714
293.774	15.422	841.258	638.257
294.789	15.429	840.743	637.836
295.803	15.526	840.045	637.622
296.818	15.592	839.230	637.194
297.833	15.509	838.709	636.430
298.847	15.475	838.372	635.988
299.862	15.629	837.019	635.486
300.876	15.630	836.672	635.173
301.891	15.570	836.228	634.552
302.906	15.703	835.390	634.360
303.920	15.686	834.639	633.670
304.935	15.809	834.123	633.686
305.949	15.749	833.988	633.301
306.964	15.791	833.119	632.742
307.979	15.815	832.378	632.215
308.993	15.832	831.929	631.884
310.008	15.847	831.742	631.739
311.022	15.872	831.136	631.318
312.037	15.847	830.914	631.000
313.052	15.762	830.278	630.142
314.066	15.880	829.249	629.749
315.081	15.627	828.927	628.503
316.095	15.679	828.441	628.269
317.110	15.741	827.764	627.932
318.125	15.677	827.216	627.225
319.139	15.753	826.773	627.115
320.154	15.687	826.302	626.455
321.168	15.701	825.553	625.884
322.183	15.744	825.110	625.654
323.197	15.890	824.207	625.458
324.212	15.861	824.004	625.139
325.227	15.885	823.323	624.656
326.241	15.913	822.929	624.406
327.256	15.827	822.386	623.622
328.270	15.775	822.202	623.232
329.285	15.718	821.450	622.397
330.300	15.901	820.824	622.544
331.314	15.945	820.459	622.377
332.329	15.977	819.627	621.805
333.343	16.098	818.987	621.714
334.358	16.066	818.322	621.036
335.373	16.041	817.869	620.545
336.387	16.039	817.483	620.191
337.402	16.102	817.023	620.018
338.416	16.094	816.344	619.418
339.431	16.194	815.684	619.230
340.446	16.317	815.162	619.230
341.460	16.162	814.673	618.235
342.475	16.274	814.239	618.261
343.489	16.284	813.712	617.842
344.504	16.445	812.866	617.735
345.519	16.467	812.330	617.353
346.533	16.372	811.968	616.678
347.548	16.378	811.572	616.341
348.562	16.430	811.344	616.303
349.577	16.287	810.452	615.052
350.592	16.267	810.057	614.624
351.606	16.166	809.712	613.940
352.621	16.232	809.588	614.033
353.635	16.150	808.848	613.117
354.650	16.291	808.071	612.988
355.665	16.329	807.608	612.721
356.679	16.287	807.313	612.290
357.694	16.354	806.655	611.980
358.708	16.335	806.275	611.566
359.723	16.335	805.871	611.207
360.738	16.394	805.086	610.770
361.752	16.479	804.671	610.710
362.767	16.485	804.151	610.282
363.781	16.407	803.892	609.752
364.796	16.559	803.621	610.038
365.810	16.506	803.203	609.478
366.825	16.711	802.573	609.684
367.840	16.755	802.688	609.874
368.854	16.735	802.018	609.239
369.869	16.774	801.415	608.867
370.883	16.640	800.567	607.687
371.898	16.700	799.965	607.392
372.913	16.704	799.635	607.103
373.927	16.829	799.068	607.067
374.942	16.727	798.493	606.213
375.956	16.772	797.639	605.669
376.971	16.974	797.174	605.983
377.986	16.772	797.044	605.111
379.000	16.886	796.569	605.105
380.015	16.913	796.128	604.811
381.029	16.883	795.628	604.270
382.044	16.855	795.024	603.660
383.059	16.925	794.352	603.345
384.073	17.040	793.759	603.250
385.088	16.916	793.113	602.266
386.102	16.955	792.714	602.047
387.117	16.930	792.099	601.440
388.132	16.844	791.587	600.693
389.146	16.994	791.085	600.788
390.161	16.949	790.900	600.437
391.175	16.915	790.739	600.139
392.190	16.914	790.470	599.880
393.205	16.947	789.879	599.493
394.219	16.982	789.516	599.291
395.234	16.958	788.937	598.711
396.248	16.990	788.243	598.244
397.263	16.898	787.916	597.618
398.278	16.991	787.369	597.481
399.292	16.830	786.980	596.565
400.307	16.830	786.750	596.339
401.321	17.029	786.327	596.665
402.336	16.979	786.003	596.189
403.350	16.901	785.903	595.787
404.365	17.100	784.868	595.647
405.380	17.227	784.303	595.611
406.394	17.117	784.531	595.348
407.409	17.080	783.921	594.699
408.423	17.192	783.499	594.722
409.438	17.317	782.977	594.711
410.453	17.287	782.731	594.366
411.467	17.521	781.655	594.311
412.482	17.368	781.456	593.575
413.496	17.447	780.759	593.267
414.511	17.469	780.617	593.184
415.526	17.352	780.560	592.682
416.540	17.447	780.103	592.612
417.555	17.292	779.676	591.696
418.569	17.444	778.652	591.395
419.584	17.482	778.267	591.182
420.599	17.537	777.900	591.042
421.613	104.191	1281.941	1441.363
422.628	88.894	1355.388	1441.453
