DTS Sentinel unit serial number:	SN413079Multiplexer serial number:	ORYXHardware model number:	OX4-SRSoftware version number:	ORYX F/W v4.00 Oryx Data Collector v3.7.2.0data status	okinstallation	princeton_trtdifferential loss correction	single-endedforward channel	channel 3reverse channel	N/Adate	2019/09/16time	07:36:35forward acquisition time	60.00reverse acquisition time	0.00gamma	496.2192k internal	0.2333k external	0.2333temperature offset calibration	0.9955default loss term (dB/km)	0.3790temperature slope calibration	1.0000multiplexer offset coefficient	1.0000multiplexer slope coefficient	1.0000fibre end	0.00T internal ref (°C)	27.77T ext. ref 1 (°C)	11.65T ext. ref 2 (°C)	24.39length (m)	temperature (°C)	Stokes	anti-Stokes-747.200	180.446	-0.101	-0.149
-746.185	79.645	0.156	-0.169
-745.171	-200.000	-0.055	-0.335
-744.156	-177.873	-0.253	-0.006
-743.142	-137.585	0.260	-0.029
-742.127	-200.000	0.003	-0.362
-741.112	55.031	0.193	-0.188
-740.098	19.443	0.136	0.110
-739.083	197.025	0.043	-0.066
-738.069	-200.000	-0.041	0.405
-737.054	-105.043	0.128	-0.030
-736.039	-77.132	-0.331	-0.116
-735.025	800.000	0.093	0.391
-734.010	-200.000	-0.027	-0.447
-732.996	377.860	-0.168	-0.346
-731.981	-200.000	-0.033	-0.608
-730.966	-62.252	-0.202	-0.085
-729.952	3.993	-0.089	0.065
-728.937	2.386	-0.265	0.193
-727.923	120.997	0.255	0.319
-726.908	-116.171	-0.368	0.069
-725.894	181.017	-0.150	0.222
-724.879	51.500	-0.239	-0.228
-723.864	165.976	-0.216	-0.308
-722.850	-2.459	0.178	-0.125
-721.835	800.000	0.042	0.152
-720.821	-13.545	-0.170	-0.111
-719.806	458.732	-0.164	-0.367
-718.791	73.196	-0.194	0.204
-717.777	-97.451	-0.040	-0.010
-716.762	800.000	-0.093	-0.328
-715.748	-200.000	0.038	0.236
-714.733	-116.393	-0.130	0.024
-713.718	616.067	0.130	0.328
-712.704	571.019	0.084	0.206
-711.689	800.000	-0.147	0.433
-710.675	-83.181	-0.344	-0.111
-709.660	-121.597	-0.431	-0.072
-708.645	375.765	0.135	0.277
-707.631	800.000	-0.100	0.398
-706.616	91.426	0.124	0.140
-705.602	195.283	-0.053	0.080
-704.587	121.425	-0.315	-0.394
-703.572	-100.062	-0.140	0.035
-702.558	655.094	-0.127	0.328
-701.543	351.109	0.047	0.093
-700.529	45.498	0.292	0.271
-699.514	11.419	-0.068	0.052
-698.499	48.765	-0.274	-0.258
-697.485	109.141	0.117	-0.141
-696.470	-32.514	-0.116	-0.065
-695.456	448.217	-0.031	0.069
-694.441	-48.699	0.310	0.149
-693.426	-27.689	-0.146	-0.085
-692.412	800.000	-0.074	-0.212
-691.397	65.223	-0.182	-0.185
-690.383	83.721	-0.220	-0.241
-689.368	151.054	-0.042	-0.058
-688.354	-158.724	0.042	-0.002
-687.339	-133.150	-0.101	0.013
-686.324	-200.000	-0.008	0.266
-685.310	-104.976	-0.358	-0.082
-684.295	119.542	-0.226	0.281
-683.281	-76.213	0.058	-0.020
-682.266	-200.000	-0.042	-0.216
-681.251	6.916	-0.072	0.054
-680.237	-200.000	-0.034	-0.228
-679.222	172.362	0.119	-0.172
-678.208	130.829	0.159	-0.204
-677.193	-89.162	0.261	0.077
-676.178	103.577	-0.214	0.252
-675.164	-45.704	-0.146	-0.073
-674.149	-68.471	0.176	0.068
-673.135	-88.623	-0.330	-0.099
-672.120	53.944	-0.086	0.083
-671.105	-109.002	-0.392	-0.084
-670.091	-108.571	0.162	-0.035
-669.076	-77.211	0.329	-0.115
-668.062	-200.000	0.015	-0.071
-667.047	-200.000	-0.062	-0.378
-666.032	-131.174	-0.100	0.013
-665.018	78.237	-0.042	0.045
-664.003	757.644	0.056	-0.151
-662.989	378.021	-0.039	0.079
-661.974	292.092	0.035	-0.065
-660.959	-64.289	0.418	0.170
-659.945	47.714	0.067	-0.063
-658.930	377.901	0.083	0.171
-657.916	-2.022	0.035	-0.025
-656.901	-51.783	-0.074	0.034
-655.886	-182.176	-0.231	-0.004
-654.872	-82.867	0.343	0.111
-653.857	-122.922	-0.421	-0.068
-652.843	88.600	0.214	0.238
-651.828	800.000	0.060	0.210
-650.814	-200.000	0.020	-0.105
-649.799	259.722	0.129	-0.223
-648.784	-23.066	0.219	-0.132
-647.770	-200.000	-0.032	-0.193
-646.755	233.394	-0.239	-0.395
-645.741	800.000	0.059	-0.178
-644.726	-200.000	-0.003	0.168
-643.711	20.240	-0.164	-0.133
-642.697	515.624	0.156	-0.366
-641.682	93.634	-0.125	0.142
-640.668	-200.000	-0.085	-0.396
-639.653	-200.000	0.019	0.128
-638.638	-200.000	-0.017	-0.203
-637.624	133.306	0.069	0.089
-636.609	14.296	0.159	-0.124
-635.595	133.201	0.166	-0.215
-634.580	63.823	0.187	-0.188
-633.565	-60.830	0.088	0.037
-632.551	188.109	0.246	0.369
-631.536	350.580	-0.129	-0.255
-630.522	7.737	-0.205	-0.154
-629.507	-200.000	-0.020	-0.161
-628.492	164.443	-0.091	0.128
-627.478	581.896	-0.068	-0.167
-626.463	38.640	-0.054	0.048
-625.449	-103.094	-0.160	-0.038
-624.434	568.372	0.007	0.017
-623.419	-132.492	-0.349	-0.045
-622.405	161.272	0.095	0.133
-621.390	-200.000	0.013	-0.238
-620.376	229.566	0.135	0.221
-619.361	-56.620	0.237	-0.105
-618.346	-200.000	0.033	0.179
-617.332	-87.600	0.270	0.082
-616.317	55.321	0.204	-0.198
-615.303	-40.984	0.056	-0.029
-614.288	247.304	0.183	-0.309
-613.273	-200.000	-0.086	0.403
-612.259	-148.042	0.186	0.015
-611.244	-200.000	0.000	-0.160
-610.230	663.442	-0.120	0.311
-609.215	3.930	0.062	-0.045
-608.201	-72.421	0.258	0.095
-607.186	73.173	-0.315	-0.329
-606.171	58.427	-0.152	0.149
-605.157	-80.970	-0.160	-0.053
-604.142	-140.300	-0.055	-0.006
-603.128	18.549	-0.196	-0.157
-602.113	106.378	-0.229	0.271
-601.098	386.976	-0.067	-0.138
-600.084	-200.000	0.008	-0.060
-599.069	469.029	0.158	-0.354
-598.055	-200.000	0.047	0.266
-597.040	227.471	-0.272	0.443
-596.025	17.027	-0.175	-0.139
-595.011	-99.915	-0.265	0.066
-593.996	-57.781	0.221	0.097
-592.982	135.932	-0.092	-0.119
-591.967	-69.250	-0.053	-0.020
-590.952	-69.209	0.284	-0.109
-589.938	-200.000	-0.009	0.076
-588.923	-33.321	-0.171	0.095
-587.909	-141.455	0.376	0.038
-586.894	-56.924	0.256	-0.113
-585.879	-77.417	-0.364	0.126
-584.865	83.653	-0.123	-0.134
-583.850	603.486	0.051	0.126
-582.836	41.793	-0.317	0.287
-581.821	165.262	-0.033	0.046
-580.806	800.000	0.054	-0.154
-579.792	-200.000	-0.021	-0.342
-578.777	84.656	0.099	-0.109
-577.763	-86.732	0.131	-0.040
-576.748	-183.860	-0.177	-0.003
-575.733	795.820	0.165	-0.454
-574.719	34.039	0.124	0.108
-573.704	-200.000	-0.035	-0.221
-572.690	112.444	-0.248	-0.300
-571.675	23.195	0.149	-0.122
-570.661	-76.363	0.331	0.116
-569.646	800.000	0.130	-0.514
-568.631	-200.000	-0.001	-0.110
-567.617	719.779	0.062	-0.164
-566.602	536.618	-0.091	-0.216
-565.588	-37.320	-0.128	-0.068
-564.573	-78.752	0.305	0.104
-563.558	163.166	0.088	-0.124
-562.544	-148.853	-0.217	0.017
-561.529	-96.030	0.029	-0.008
-560.515	800.000	0.017	-0.063
-559.500	503.868	0.118	-0.273
-558.485	800.000	-0.062	0.223
-557.471	-88.282	0.263	-0.079
-556.456	199.029	0.160	0.245
-555.442	54.364	-0.100	-0.096
-554.427	206.545	-0.100	0.155
-553.412	17.945	0.123	0.098
-552.398	-60.966	-0.319	0.135
-551.383	-147.617	0.421	0.035
-550.369	26.537	-0.220	-0.184
-549.354	-11.965	0.199	0.130
-548.339	703.633	0.013	0.034
-547.325	108.480	-0.115	0.137
-546.310	131.153	0.183	-0.235
-545.296	307.428	-0.149	-0.276
-544.281	800.000	-0.077	-0.270
-543.266	-124.890	-0.125	-0.019
-542.252	-14.220	0.225	0.145
-541.237	640.103	-0.015	0.039
-540.223	36.241	-0.108	0.095
-539.208	-200.000	-0.015	0.109
-538.193	-60.767	-0.520	0.220
-537.179	800.000	0.090	0.297
-536.164	12.999	0.214	0.165
-535.150	43.190	-0.239	0.218
-534.135	-200.000	0.046	-0.429
-533.121	342.383	0.117	-0.229
-532.106	-185.351	-0.408	-0.006
-531.091	-105.308	-0.186	0.042
-530.077	-139.764	-0.127	0.013
-529.062	-126.770	-0.115	-0.017
-528.048	207.071	-0.048	0.075
-527.033	92.188	-0.083	0.093
-526.018	300.469	-0.190	0.350
-525.004	10.248	0.221	0.167
-523.989	420.290	-0.101	0.216
-522.975	-10.245	-0.150	0.099
-521.960	44.291	0.389	-0.356
-520.945	-55.260	0.174	0.078
-519.931	-160.279	-0.136	-0.007
-518.916	-176.427	0.103	0.003
-517.902	-136.841	0.274	-0.031
-516.887	238.143	-0.126	0.209
-515.872	-200.000	-0.010	0.267
-514.858	-168.570	0.055	-0.002
-513.843	800.000	-0.110	-0.336
-512.829	106.193	-0.271	-0.319
-511.814	-200.000	0.034	-0.201
-510.799	325.335	0.181	-0.346
-509.785	-200.000	-0.029	0.166
-508.770	-47.424	-0.314	-0.152
-507.756	25.216	0.284	-0.235
-506.741	-85.979	-0.143	-0.044
-505.726	-157.284	-0.453	0.027
-504.712	594.100	0.139	0.343
-503.697	-136.090	0.310	-0.036
-502.683	-130.350	0.122	0.016
-501.668	353.397	-0.069	0.136
-500.653	-66.543	0.109	0.043
-499.639	-29.510	0.280	-0.159
-498.624	800.000	-0.043	0.127
-497.610	-14.833	-0.113	-0.072
-496.595	-200.000	-0.005	-0.049
-495.581	-25.215	-0.207	0.122
-494.566	-49.581	0.216	0.102
-493.551	-32.999	0.175	-0.097
-492.537	-85.262	0.336	0.105
-491.522	-200.000	0.019	-0.095
-490.508	14.529	0.071	-0.056
-489.493	330.655	-0.044	0.085
-488.478	800.000	-0.117	-0.358
-487.464	-102.343	-0.285	-0.068
-486.449	626.820	0.070	-0.176
-485.435	679.435	0.097	-0.250
-484.420	800.000	0.064	-0.235
-483.405	-71.095	0.421	0.158
-482.391	-5.253	-0.062	-0.042
-481.376	-103.012	-0.140	0.033
-480.362	213.486	0.145	-0.228
-479.347	7.633	0.130	0.097
-478.332	-138.720	-0.452	0.049
-477.318	58.220	0.076	0.074
-476.303	-22.083	-0.167	0.101
-475.289	204.754	0.202	0.312
-474.274	172.189	0.206	0.294
-473.259	-108.829	0.319	0.068
-472.245	5.437	0.179	-0.131
-471.230	275.073	0.065	0.115
-470.216	51.594	0.088	0.083
-469.201	-200.000	0.036	-0.255
-468.186	53.464	0.227	0.217
-467.172	-79.149	-0.368	0.124
-466.157	68.499	-0.148	-0.151
-465.143	-138.055	0.028	-0.003
-464.128	-142.089	0.156	-0.015
-463.113	-200.000	0.032	0.291
-462.099	255.843	0.186	0.318
-461.084	210.986	0.079	-0.124
-460.070	441.197	-0.128	-0.279
-459.055	-36.507	0.272	0.145
-458.040	-25.572	-0.149	0.087
-457.026	-97.496	-0.251	-0.065
-456.011	800.000	0.040	0.157
-454.997	495.617	0.054	0.124
-453.982	-81.884	0.258	0.084
-452.968	43.825	-0.151	0.137
-451.953	800.000	-0.025	0.082
-450.938	-113.574	0.144	0.028
-449.924	-91.285	0.259	0.074
-448.909	715.278	-0.098	0.258
-447.895	-172.436	-0.094	-0.003
-446.880	106.799	-0.110	0.130
-445.865	615.390	-0.117	-0.291
-444.851	111.262	-0.059	-0.071
-443.836	156.750	-0.119	-0.164
-442.822	486.225	0.106	0.241
-441.807	-37.623	-0.270	0.143
-440.792	21.320	0.229	0.185
-439.778	28.465	0.338	0.284
-438.763	-200.000	-0.046	-0.245
-437.749	800.000	0.039	0.130
-436.734	-172.240	-0.085	-0.003
-435.719	5.142	0.213	0.156
-434.705	800.000	-0.123	0.361
-433.690	-63.762	-0.093	-0.038
-432.676	-98.781	-0.201	0.051
-431.661	9.007	0.103	-0.077
-430.646	-61.718	-0.027	0.011
-429.632	-125.251	-0.133	0.020
-428.617	108.641	0.100	0.118
-427.603	189.376	0.080	-0.119
-426.588	151.135	-0.171	0.231
-425.573	-56.541	-0.162	0.071
-424.559	736.666	0.098	-0.260
-423.544	-113.434	-0.073	0.014
-422.530	106.249	-0.251	0.295
-421.515	800.000	-0.107	0.318
-420.500	800.000	-0.018	0.075
-419.486	-145.387	0.310	0.028
-418.471	-21.721	-0.353	-0.214
-417.457	-64.301	-0.179	0.072
-416.442	84.299	-0.170	0.185
-415.428	138.606	-0.100	-0.130
-414.413	431.926	-0.090	0.194
-413.398	542.914	-0.056	-0.132
-412.384	16.278	-0.077	0.061
-411.369	800.000	-0.064	0.193
-410.355	57.965	-0.193	-0.187
-409.340	-200.000	-0.033	-0.403
-408.325	135.462	-0.051	-0.066
-407.311	71.532	-0.174	-0.179
-406.296	800.000	0.098	0.286
-405.282	97.345	-0.194	0.221
-404.267	756.489	0.075	0.201
-403.252	-111.829	-0.185	-0.037
-402.238	-119.396	0.301	0.052
-401.223	81.524	-0.067	0.072
-400.209	-20.375	-0.160	0.098
-399.194	-200.000	-0.010	0.080
-398.179	7.144	-0.198	0.146
-397.165	457.084	-0.104	0.228
-396.150	290.195	-0.126	0.227
-395.136	-171.313	0.268	0.009
-394.121	279.056	-0.027	0.049
-393.106	-41.356	0.181	0.093
-392.092	3.902	-0.158	0.115
-391.077	800.000	-0.108	-0.454
-390.063	168.917	0.174	-0.247
-389.048	-96.706	-0.313	-0.082
-388.033	800.000	0.075	-0.227
-387.019	-29.694	0.286	0.162
-386.004	403.470	0.103	0.214
-384.990	547.807	-0.052	-0.124
-383.975	-115.043	0.162	-0.030
-382.960	-200.000	0.010	-0.071
-381.946	-200.000	0.014	0.109
-380.931	-20.459	-0.325	-0.198
-379.917	13.300	0.146	-0.112
-378.902	138.316	0.118	-0.154
-377.888	-200.000	0.007	0.052
-376.873	-200.000	0.011	0.142
-375.858	587.031	-0.067	0.164
-374.844	11.030	-0.097	-0.073
-373.829	24.737	-0.180	-0.148
-372.815	-200.000	0.059	-0.396
-371.800	800.000	-0.142	0.496
-370.785	-44.500	-0.193	0.096
-369.771	-65.206	-0.070	-0.028
-368.756	-49.446	-0.337	0.159
-367.742	-34.485	0.294	-0.159
-366.727	-126.334	-0.258	0.038
-365.712	128.522	-0.220	-0.278
-364.698	-183.190	-0.255	0.004
-363.683	10.611	-0.216	-0.163
-362.669	-76.725	0.225	0.078
-361.654	800.000	-0.044	0.175
-360.639	453.824	-0.040	-0.088
-359.625	89.030	-0.251	0.277
-358.610	-45.330	-0.097	-0.048
-357.596	87.903	-0.087	-0.095
-356.581	-73.659	-0.177	0.064
-355.566	800.000	-0.051	-0.215
-354.552	800.000	0.054	0.231
-353.537	141.470	0.210	0.275
-352.523	447.393	0.081	-0.176
-351.508	-200.000	0.044	0.322
-350.493	84.085	0.167	-0.180
-349.479	-3.138	0.269	-0.186
-348.464	800.000	0.032	-0.095
-347.450	79.629	0.186	-0.198
-346.435	-42.733	-0.166	-0.084
-345.420	-200.000	0.061	0.432
-344.406	-70.089	-0.116	0.044
-343.391	-118.750	0.149	0.026
-342.377	-156.935	-0.042	0.003
-341.362	-200.000	-0.007	-0.163
-340.348	223.245	-0.194	0.310
-339.333	-134.025	0.254	0.031
-338.318	-61.284	-0.160	-0.067
-337.304	-200.000	-0.012	-0.268
-336.289	-66.184	0.181	0.072
-335.275	339.701	-0.152	0.292
-334.260	633.124	-0.136	-0.342
-333.245	626.046	0.038	-0.094
-332.231	666.318	0.078	-0.199
-331.216	-3.954	0.356	-0.244
-330.202	-53.564	0.180	0.082
-329.187	-32.258	0.174	0.096
-328.172	-200.000	-0.047	0.406
-327.158	-200.000	-0.028	-0.123
-326.143	-63.460	-0.049	-0.020
-325.129	-69.127	0.336	0.128
-324.114	573.512	-0.061	-0.147
-323.099	100.311	0.048	-0.055
-322.085	800.000	0.076	0.321
-321.070	14.285	-0.270	-0.208
-320.056	-148.937	0.445	0.035
-319.041	800.000	0.017	0.072
-318.026	-137.393	0.326	0.037
-317.012	362.357	-0.025	0.049
-315.997	800.000	-0.133	0.368
-314.983	-192.464	-0.431	0.004
-313.968	-24.860	0.157	0.092
-312.953	130.636	0.222	-0.281
-311.939	612.643	-0.072	-0.179
-310.924	-154.054	0.267	0.018
-309.910	679.380	0.108	0.278
-308.895	-60.975	0.104	0.043
-307.880	474.873	0.088	0.196
-306.866	128.418	0.041	-0.052
-305.851	267.733	-0.023	-0.039
-304.837	61.661	0.178	-0.175
-303.822	800.000	0.071	0.273
-302.807	800.000	0.037	-0.130
-301.793	148.397	0.137	-0.184
-300.778	800.000	-0.057	0.165
-299.764	50.411	-0.321	0.300
-298.749	-200.000	-0.002	0.073
-297.735	-142.527	0.276	-0.027
-296.720	-140.539	-0.370	0.038
-295.705	-200.000	0.019	-0.106
-294.691	-200.000	0.019	-0.211
-293.676	800.000	0.040	-0.114
-292.662	211.118	-0.060	-0.093
-291.647	265.952	-0.118	-0.204
-290.632	-74.777	-0.241	-0.086
-289.618	-33.267	-0.205	-0.112
-288.603	421.283	-0.149	-0.315
-287.589	-200.000	-0.078	0.372
-286.574	-200.000	-0.020	0.172
-285.559	800.000	0.060	-0.234
-284.545	800.000	-0.077	-0.228
-283.530	345.756	-0.053	0.103
-282.516	-200.000	0.001	-0.218
-281.501	-99.407	-0.282	-0.070
-280.486	118.031	0.073	0.089
-279.472	-148.195	-0.231	-0.019
-278.457	-31.416	0.123	-0.068
-277.443	-200.000	-0.027	0.120
-276.428	42.140	0.150	0.135
-275.413	-60.204	0.158	0.066
-274.399	583.385	0.130	-0.316
-273.384	800.000	-0.136	0.444
-272.370	43.763	-0.304	0.275
-271.355	66.236	0.285	0.286
-270.340	-200.000	0.014	0.315
-269.326	-95.682	-0.377	-0.100
-268.311	-19.379	-0.321	0.197
-267.297	-31.763	-0.192	0.106
-266.282	-68.064	0.204	0.079
-265.267	-98.665	-0.089	-0.022
-264.253	-31.143	-0.085	0.047
-263.238	2.321	-0.052	0.037
-262.224	201.651	0.059	0.090
-261.209	-22.562	-0.194	0.116
-260.195	352.739	0.133	-0.260
-259.180	800.000	0.042	-0.147
-258.165	229.263	-0.176	-0.283
-257.151	-200.000	-0.026	0.222
-256.136	-105.369	0.186	0.042
-255.122	800.000	0.070	0.204
-254.107	800.000	-0.055	-0.226
-253.092	29.429	0.182	-0.153
-252.078	-35.274	-0.048	0.026
-251.063	194.065	-0.134	0.201
-250.049	-99.504	0.151	-0.037
-249.034	23.387	0.013	-0.011
-248.019	31.527	0.117	-0.100
-247.005	-14.184	-0.121	-0.077
-245.990	-164.763	-0.260	0.012
-244.976	100.629	0.064	-0.073
-243.961	-200.000	-0.003	-0.045
-242.946	-139.007	0.335	-0.036
-241.932	496.175	0.100	0.227
-240.917	96.538	-0.184	-0.208
-239.903	-200.000	0.026	0.133
-238.888	-124.478	-0.442	-0.068
-237.873	-148.830	0.353	0.028
-236.859	-162.942	0.205	-0.010
-235.844	-200.000	-0.021	-0.164
-234.830	5.602	0.165	-0.120
-233.815	-53.960	0.408	-0.183
-232.800	438.515	-0.067	0.144
-231.786	-200.000	0.029	0.194
-230.771	448.987	0.197	0.428
-229.757	800.000	0.050	-0.162
-228.742	751.662	0.085	-0.226
-227.727	42.245	-0.113	-0.101
-226.713	-85.589	-0.138	0.042
-225.698	331.359	-0.102	-0.193
-224.684	-117.292	0.297	0.053
-223.669	-200.000	-0.016	-0.302
-222.655	99.045	-0.092	0.105
-221.640	139.155	0.082	-0.106
-220.625	-200.000	-0.008	0.100
-219.611	553.798	0.075	-0.177
-218.596	-11.077	-0.035	-0.023
-217.582	-200.000	0.056	0.280
-216.567	167.985	0.085	-0.120
-215.552	559.562	0.133	-0.317
-214.538	222.738	-0.017	-0.027
-213.523	259.954	-0.125	0.212
-212.509	-110.013	-0.306	0.063
-211.494	-81.808	0.092	-0.030
-210.479	368.331	0.069	0.138
-209.465	-121.423	0.286	0.047
-208.450	800.000	-0.093	0.276
-207.436	-50.794	0.115	-0.053
-206.421	5.577	0.120	-0.088
-205.406	-93.037	0.319	-0.088
-204.392	-77.935	-0.079	-0.027
-203.377	26.280	0.222	0.183
-202.363	98.511	0.151	0.172
-201.348	236.332	0.112	0.182
-200.333	-200.000	-0.025	-0.221
-199.319	294.442	-0.094	-0.170
-198.304	-122.638	0.371	-0.059
-197.290	250.528	-0.133	0.222
-196.275	290.520	-0.033	0.059
-195.260	800.000	-0.090	0.269
-194.246	-140.020	-0.422	0.044
-193.231	213.428	0.140	0.218
-192.217	800.000	-0.058	0.173
-191.202	48.866	0.155	0.143
-190.187	-136.808	-0.147	-0.017
-189.173	-151.687	0.370	0.027
-188.158	54.013	0.133	0.125
-187.144	-200.000	-0.048	-0.330
-186.129	189.425	-0.062	0.091
-185.114	-149.451	0.253	0.020
-184.100	-90.065	-0.384	-0.110
-183.085	-48.322	0.155	0.074
-182.071	316.691	-0.153	-0.285
-181.056	28.241	0.288	0.240
-180.042	-200.000	-0.003	0.131
-179.027	230.457	0.127	-0.204
-178.012	207.992	0.079	-0.121
-176.998	-38.637	0.371	0.193
-175.983	800.000	-0.061	-0.181
-174.969	262.582	-0.159	-0.272
-173.954	212.403	0.150	-0.232
-172.939	-15.953	-0.183	0.115
-171.925	85.309	-0.151	-0.163
-170.910	-128.323	-0.229	0.032
-169.896	-200.000	0.021	-0.098
-168.881	166.765	0.092	-0.128
-167.866	42.433	0.146	0.131
-166.852	-200.000	0.023	-0.174
-165.837	-78.482	0.395	-0.133
-164.823	-9.808	-0.081	0.053
-163.808	-52.440	0.092	-0.042
-162.793	-147.870	-0.441	0.036
-161.779	65.170	-0.163	-0.162
-160.764	-200.000	0.016	0.137
-159.750	-200.000	0.049	0.284
-158.735	-30.138	-0.170	0.095
-157.720	-107.372	-0.155	-0.034
-156.706	-3.477	-0.233	-0.159
-155.691	800.000	-0.040	0.121
-154.677	-55.342	-0.016	-0.007
-153.662	6.656	-0.060	-0.044
-152.647	358.775	-0.120	0.236
-151.633	602.058	0.074	-0.180
-150.618	525.818	0.040	-0.093
-149.604	-100.447	-0.406	0.099
-148.589	-43.979	-0.086	0.042
-147.574	-137.571	-0.005	0.001
-146.560	-100.225	0.282	0.069
-145.545	295.019	-0.221	0.397
-144.531	46.677	0.151	-0.138
-143.516	-33.758	-0.225	-0.122
-142.502	168.283	0.144	-0.202
-141.487	800.000	0.070	0.249
-140.472	31.916	-0.135	-0.114
-139.458	463.851	0.087	-0.190
-138.443	-200.000	-0.031	0.225
-137.429	-62.212	0.101	-0.041
-136.414	-200.000	0.047	-0.399
-135.399	-200.000	-0.009	0.370
-134.385	-88.813	-0.144	0.042
-133.370	-29.467	-0.242	0.136
-132.356	-75.592	0.123	-0.043
-131.341	-117.220	-0.188	0.034
-130.326	-136.691	-0.160	0.018
-129.312	232.128	0.023	0.036
-128.297	431.551	-0.214	-0.456
-127.283	-165.923	0.085	-0.004
-126.268	-11.726	-0.150	0.097
-125.253	-5.670	-0.264	0.177
-124.239	-17.251	-0.122	-0.076
-123.224	-31.119	-0.125	0.069
-122.210	387.716	0.102	-0.207
-121.195	181.222	0.138	-0.199
-120.180	46.607	-0.103	0.094
-119.166	800.000	-0.031	0.084
-118.151	-200.000	-0.100	-0.481
-117.137	41.996	0.138	-0.123
-116.122	12.715	-0.117	-0.089
-115.107	105.117	-0.180	0.209
-114.093	-77.437	-0.188	0.064
-113.078	800.000	0.050	-0.148
-112.064	-200.000	0.038	-0.308
-111.049	707.490	0.159	-0.412
-110.034	192.543	0.151	0.224
-109.020	-54.014	0.323	-0.144
-108.005	-200.000	0.056	-0.374
-106.991	800.000	0.083	0.306
-105.976	-200.000	0.069	0.330
-104.962	72.149	-0.216	-0.221
-103.947	-40.537	-0.179	0.091
-102.932	-49.683	-0.359	-0.167
-101.918	108.087	0.025	-0.030
-100.903	-200.000	0.031	-0.152
-99.889	106.623	0.109	0.127
-98.874	-80.588	0.442	0.144
-97.859	76.133	0.245	0.254
-96.845	-87.878	0.136	-0.040
-95.830	-180.549	0.236	-0.005
-94.816	800.000	-0.068	0.215
-93.801	-155.326	-0.182	-0.012
-92.786	56.134	0.083	-0.079
-91.772	64.753	-0.185	-0.183
-90.757	309.438	-0.080	0.146
-89.743	-51.248	-0.279	0.128
-88.728	-101.094	0.173	-0.042
-87.713	-200.000	0.034	-0.155
-86.699	800.000	-0.023	0.080
-85.684	625.090	-0.098	-0.241
-84.670	-37.936	-0.160	0.083
-83.655	10.339	0.090	0.067
-82.640	793.124	-0.177	0.477
-81.626	3.261	0.107	-0.076
-80.611	-129.937	0.166	-0.022
-79.597	-3.963	0.206	0.140
-78.582	800.000	0.023	0.087
-77.567	345.019	0.070	0.135
-76.553	42.479	0.038	0.034
-75.538	73.313	0.275	0.282
-74.524	-1.621	0.163	0.112
-73.509	-106.073	-0.113	-0.025
-72.494	-71.189	0.304	0.112
-71.480	44.030	-0.284	0.255
-70.465	-145.731	0.505	0.044
-69.451	426.592	-0.052	0.111
-68.436	-2.946	-0.134	0.092
-67.422	-200.000	0.005	-0.180
-66.407	247.238	0.101	0.167
-65.392	-200.000	-0.002	-0.098
-64.378	-56.518	-0.398	-0.173
-63.363	-51.595	0.310	0.142
-62.349	21.207	-0.188	0.149
-61.334	10.313	-0.991	-0.739
-60.319	124.821	0.629	0.776
-59.305	800.000	-0.316	-1.201
-58.290	572.056	0.467	1.114
-57.276	800.000	0.477	1.371
-56.261	-200.000	111.639	621.869
-55.246	454.726	1511.033	3278.136
-54.232	146.438	2680.497	3523.817
-53.217	102.733	2182.677	2500.640
-52.203	38.186	1710.712	1490.583
-51.188	30.920	1529.287	1282.663
-50.173	28.661	1504.889	1246.824
-49.159	50.863	1561.777	1448.203
-48.144	50.315	1578.053	1459.448
-47.130	31.026	1534.326	1287.413
-46.115	27.983	1519.596	1254.157
-45.100	27.907	1515.730	1250.396
-44.086	27.877	1514.120	1248.812
-43.071	27.765	1512.356	1246.545
-42.057	27.784	1510.739	1245.291
-41.042	27.771	1509.366	1244.022
-40.027	27.728	1507.753	1242.348
-39.013	27.761	1506.168	1241.221
-37.998	27.641	1505.068	1239.448
-36.984	27.723	1504.000	1239.076
-35.969	27.770	1502.301	1237.947
-34.954	27.798	1500.940	1236.964
-33.940	27.631	1500.323	1235.276
-32.925	27.710	1498.377	1234.157
-31.911	27.808	1496.738	1233.423
-30.896	27.702	1495.935	1231.997
-29.881	27.831	1494.402	1231.557
-28.867	27.810	1492.935	1230.154
-27.852	27.748	1492.254	1229.125
-26.838	27.786	1490.538	1227.920
-25.823	27.867	1488.453	1226.698
-24.809	27.874	1486.621	1225.186
-23.794	27.812	1485.515	1223.812
-22.779	27.832	1484.686	1223.212
-21.765	27.744	1483.692	1221.757
-20.750	27.729	1482.492	1220.624
-19.736	27.790	1481.537	1220.191
-18.721	27.828	1480.324	1219.399
-17.706	27.879	1478.922	1218.535
-16.692	27.782	1477.963	1217.055
-15.677	27.797	1477.115	1216.406
-14.663	27.740	1475.978	1215.042
-13.648	27.749	1475.329	1214.519
-12.633	27.845	1474.097	1214.097
-11.619	27.740	1473.410	1212.783
-10.604	27.778	1472.450	1212.200
-9.590	27.728	1471.556	1211.078
-8.575	27.745	1470.941	1210.640
-7.560	27.781	1470.076	1210.119
-6.546	27.750	1469.265	1209.199
-5.531	27.761	1468.003	1208.184
-4.517	27.672	1467.333	1206.995
-3.502	27.659	1466.791	1206.415
-2.487	27.694	1465.224	1205.310
-1.473	27.670	1464.114	1204.191
-0.458	27.814	1462.482	1203.752
0.556	26.368	1453.661	1194.170
1.571	23.912	1429.604	1158.326
2.586	21.002	1370.224	1091.923
3.600	19.652	1286.769	1017.385
4.615	18.598	1240.637	974.836
5.629	17.909	1187.152	928.978
6.644	14.927	1110.396	853.641
7.659	12.164	1075.820	813.307
8.673	11.676	1071.430	807.505
9.688	11.692	1067.698	804.701
10.702	11.634	1065.878	802.969
11.717	11.608	1064.110	801.441
12.731	12.844	1064.279	807.558
13.746	15.924	1067.805	825.276
14.761	17.881	1070.191	836.647
15.775	17.984	1069.051	836.190
16.790	17.096	1066.902	830.093
17.804	16.092	1064.602	823.329
18.819	15.125	1062.931	817.249
19.834	14.501	1061.461	813.003
20.848	14.277	1060.527	811.123
21.863	13.978	1059.638	808.919
22.877	13.894	1058.478	807.552
23.892	13.665	1057.553	805.662
24.907	13.507	1057.347	804.667
25.921	13.406	1056.270	803.286
26.936	13.535	1055.605	803.336
27.950	13.563	1054.610	802.641
28.965	13.724	1053.248	802.314
29.980	13.728	1052.387	801.608
30.994	13.876	1050.952	801.159
32.009	13.757	1050.196	799.934
33.023	13.818	1049.920	799.948
34.038	13.791	1048.989	799.037
35.053	13.671	1047.500	797.255
36.067	13.729	1046.938	797.035
37.082	13.755	1045.976	796.357
38.096	13.690	1045.333	795.489
39.111	13.769	1044.218	794.949
40.126	13.716	1043.536	794.102
41.140	13.678	1042.365	792.962
42.155	13.512	1041.625	791.534
43.169	13.559	1040.232	790.629
44.184	13.456	1039.037	789.159
45.199	13.431	1038.468	788.538
46.213	13.513	1037.309	787.982
47.228	13.531	1036.636	787.484
48.242	13.671	1035.529	787.237
49.257	13.647	1034.149	786.004
50.271	13.619	1033.497	785.307
51.286	13.607	1032.557	784.467
52.301	13.662	1031.844	784.115
53.315	13.761	1031.140	783.979
54.330	13.611	1030.063	782.384
55.344	13.629	1028.886	781.507
56.359	13.473	1028.476	780.389
57.374	13.640	1027.547	780.404
58.388	13.587	1026.953	779.634
59.403	13.566	1025.966	778.718
60.417	13.389	1025.251	777.275
61.432	13.392	1024.938	776.982
62.447	13.387	1024.026	776.195
63.461	13.525	1022.660	775.740
64.476	13.440	1021.982	774.761
65.490	13.428	1021.159	774.011
66.505	13.314	1020.431	772.858
67.520	13.404	1019.622	772.599
68.534	13.452	1018.697	772.052
69.549	13.504	1017.958	771.666
70.563	13.572	1016.872	771.089
71.578	13.435	1016.188	769.865
72.593	13.485	1015.648	769.621
73.607	13.378	1014.189	767.951
74.622	13.319	1013.420	767.026
75.636	13.333	1012.587	766.395
76.651	13.421	1011.932	766.236
77.666	13.386	1011.144	765.413
78.680	13.378	1010.343	764.701
79.695	13.372	1009.844	764.225
80.709	13.327	1009.165	763.436
81.724	13.403	1008.457	763.187
82.739	13.608	1006.934	762.908
83.753	13.571	1006.828	762.589
84.768	13.576	1006.233	762.097
85.782	13.636	1005.355	761.640
86.797	13.837	1004.623	761.940
87.812	13.737	1003.932	760.889
88.826	13.525	1002.849	759.032
89.841	13.617	1002.047	758.775
90.855	13.657	1001.365	758.375
91.870	13.713	1000.489	757.901
92.884	13.750	999.801	757.482
93.899	13.761	999.002	756.859
94.914	13.700	998.159	755.878
95.928	13.837	997.407	755.863
96.943	13.892	996.592	755.432
97.957	13.845	995.901	754.624
98.972	13.747	995.327	753.681
99.987	13.683	994.805	752.924
101.001	13.763	993.635	752.336
102.016	13.730	992.819	751.502
103.030	13.731	991.877	750.727
104.045	13.763	990.920	750.082
105.060	13.705	989.995	749.054
106.074	13.630	988.961	747.865
107.089	13.727	987.900	747.436
108.103	13.653	987.151	746.470
109.118	13.526	986.305	745.192
110.133	13.423	985.533	744.082
111.147	13.446	984.773	743.543
112.162	13.517	983.904	743.140
113.176	13.519	982.872	742.304
114.191	13.524	982.244	741.785
115.206	13.655	981.135	741.467
116.220	13.653	980.084	740.598
117.235	13.576	979.455	739.716
118.249	13.594	978.660	739.131
119.264	13.548	977.600	738.060
120.279	13.478	977.394	737.526
121.293	13.450	976.391	736.580
122.308	13.618	975.406	736.518
123.322	13.577	974.678	735.723
124.337	13.382	973.304	733.755
125.352	13.500	972.267	733.430
126.366	13.525	971.301	732.748
127.381	13.430	970.461	731.629
128.395	13.395	969.177	730.444
129.410	13.542	968.256	730.332
130.424	13.511	967.701	729.711
131.439	13.471	966.856	728.833
132.454	13.488	965.916	728.134
133.468	13.656	964.622	727.833
134.483	13.646	964.057	727.300
135.497	13.522	963.789	726.491
136.512	13.541	963.097	725.988
137.527	13.734	962.013	725.948
138.541	13.558	961.548	724.765
139.556	13.544	960.755	724.043
140.570	13.723	959.501	723.814
141.585	13.712	959.106	723.403
142.600	13.739	958.283	722.839
143.614	13.651	957.822	722.043
144.629	13.718	957.145	721.760
145.643	13.739	956.362	721.197
146.658	13.930	955.103	721.011
147.673	13.712	954.350	719.433
148.687	13.789	953.471	719.043
149.702	13.767	952.891	718.446
150.716	13.659	952.068	717.292
151.731	13.658	951.138	716.527
152.746	13.632	950.827	716.115
153.760	13.572	949.632	714.894
154.775	13.705	948.883	714.839
155.789	13.860	948.066	714.829
156.804	13.885	947.164	714.191
157.819	13.828	946.742	713.566
158.833	13.749	946.213	712.763
159.848	13.908	945.556	712.888
160.862	14.044	944.505	712.619
161.877	13.981	943.736	711.704
162.892	13.864	942.739	710.389
163.906	13.750	942.345	709.543
164.921	13.869	941.229	709.147
165.935	13.729	940.625	708.030
166.950	13.818	939.137	707.227
167.964	13.924	938.452	707.099
168.979	13.841	937.357	705.860
169.994	13.930	936.479	705.513
171.008	13.803	935.873	704.455
172.023	13.879	934.974	704.039
173.037	13.959	934.184	703.720
174.052	13.965	933.496	703.166
175.067	13.994	932.755	702.669
176.081	13.897	932.057	701.670
177.096	13.946	930.872	700.924
178.110	13.967	930.045	700.326
179.125	13.871	929.475	699.432
180.140	13.940	928.744	699.111
181.154	14.043	927.944	698.881
182.169	14.064	927.745	698.756
183.183	13.960	927.184	697.833
184.198	14.070	926.295	697.563
185.213	14.132	925.499	697.163
186.227	14.049	925.208	696.533
187.242	14.070	924.536	696.057
188.256	14.273	923.692	696.207
189.271	14.211	923.088	695.433
190.286	14.221	922.232	694.767
191.300	14.151	921.333	693.738
192.315	14.004	920.461	692.406
193.329	13.840	919.933	691.264
194.344	14.025	919.264	691.470
195.359	14.081	918.579	691.127
196.373	14.184	918.045	691.092
197.388	14.174	917.707	690.734
198.402	14.188	917.179	690.334
199.417	14.224	916.652	690.026
200.432	14.396	916.414	690.496
201.446	14.344	915.933	689.857
202.461	14.300	915.685	689.429
203.475	14.455	915.052	689.530
204.490	14.479	914.440	689.110
205.504	14.395	913.432	687.942
206.519	14.311	912.907	687.138
207.534	14.362	911.865	686.503
208.548	14.320	911.282	685.831
209.563	14.349	910.185	685.063
210.577	14.443	909.372	684.778
211.592	14.403	908.968	684.251
212.607	14.517	908.642	684.411
213.621	14.677	908.030	684.546
214.636	14.543	907.185	683.302
215.650	14.495	906.324	682.394
216.665	14.394	906.121	681.766
217.680	14.564	905.588	681.999
218.694	14.602	904.927	681.601
219.709	14.666	904.322	681.343
220.723	14.570	903.971	680.627
221.738	14.572	903.160	679.967
222.753	14.787	902.210	680.064
223.767	14.551	901.460	678.478
224.782	14.542	901.071	678.092
225.796	14.631	900.321	677.828
226.811	14.712	899.567	677.529
227.826	14.752	898.782	677.038
228.840	14.555	898.479	675.954
229.855	14.697	897.548	675.769
230.869	14.657	896.985	675.121
231.884	14.687	896.370	674.721
232.899	14.774	895.202	674.133
233.913	14.567	894.943	673.042
234.928	14.717	894.125	672.972
235.942	14.580	893.871	672.170
236.957	14.641	892.513	671.334
237.972	14.582	892.267	670.853
238.986	14.742	891.690	671.001
240.001	14.649	891.164	670.175
241.015	14.638	890.474	669.550
242.030	14.714	889.480	669.050
243.045	14.769	888.789	668.691
244.059	14.855	888.429	668.705
245.074	14.855	887.666	668.070
246.088	14.817	887.239	667.540
247.103	14.928	886.139	667.095
248.117	14.778	886.211	666.493
249.132	14.919	885.854	666.726
250.147	15.053	884.614	666.267
251.161	15.020	884.302	665.841
252.176	15.102	883.654	665.622
253.190	15.212	882.714	665.293
254.205	15.297	882.210	665.189
255.220	15.267	881.509	664.483
256.234	15.249	880.892	663.889
257.249	15.327	880.449	663.804
258.263	15.312	879.721	663.139
259.278	15.283	879.315	662.657
260.293	15.274	878.679	662.086
261.307	15.212	878.345	661.531
262.322	15.419	877.394	661.569
263.336	15.351	877.070	661.003
264.351	15.461	876.250	660.755
265.366	15.394	875.712	660.029
266.380	15.471	875.155	659.855
267.395	15.355	874.474	658.825
268.409	15.364	874.114	658.532
269.424	15.409	872.969	657.788
270.439	15.344	872.611	657.204
271.453	15.439	871.258	656.501
272.468	15.516	870.428	656.118
273.482	15.392	870.014	655.263
274.497	15.264	869.649	654.430
275.512	15.435	869.094	654.623
276.526	15.427	868.179	653.842
277.541	15.505	867.470	653.554
278.555	15.568	867.017	653.401
279.570	15.458	866.495	652.522
280.585	15.588	866.301	652.823
281.599	15.622	865.324	652.160
282.614	15.649	864.847	651.851
283.628	15.603	864.191	651.118
284.643	15.540	863.636	650.399
285.657	15.622	863.533	650.583
286.672	15.661	862.818	650.137
287.687	15.625	862.279	649.533
288.701	15.664	861.964	649.390
289.716	15.692	861.062	648.762
290.730	15.760	860.308	648.398
291.745	15.700	859.778	647.710
292.760	15.676	859.173	647.105
293.774	15.722	858.512	646.726
294.789	15.887	857.983	646.905
295.803	15.808	857.589	646.245
296.818	15.739	857.145	645.589
297.833	15.735	856.248	644.842
298.847	15.861	855.209	644.484
299.862	15.808	854.474	643.672
300.876	15.926	853.761	643.528
301.891	15.925	853.473	643.251
302.906	16.034	852.859	643.147
303.920	15.860	852.133	641.876
304.935	16.038	851.520	642.038
305.949	16.140	850.997	641.976
306.964	15.940	850.434	640.732
307.979	16.039	849.974	640.707
308.993	16.012	849.174	639.943
310.008	16.135	848.814	640.081
311.022	16.075	848.167	639.311
312.037	15.979	847.849	638.650
313.052	16.217	846.936	638.805
314.066	16.011	846.066	637.316
315.081	15.957	846.051	637.042
316.095	16.009	845.271	636.597
317.110	15.954	845.022	636.143
318.125	16.033	844.236	635.794
319.139	16.066	843.890	635.600
320.154	16.000	843.378	634.912
321.168	16.162	842.289	634.646
322.183	16.108	842.268	634.370
323.197	16.188	841.128	633.756
324.212	16.135	840.933	633.355
325.227	16.134	840.472	632.946
326.241	16.225	839.940	632.832
327.256	16.176	839.593	632.330
328.270	16.150	839.023	631.748
329.285	16.142	838.373	631.173
330.300	16.237	837.655	630.932
331.314	16.209	837.014	630.287
332.329	16.247	836.311	629.846
333.343	16.298	835.847	629.629
334.358	16.371	835.175	629.339
335.373	16.368	834.613	628.850
336.387	16.237	834.462	628.192
337.402	16.418	833.752	628.273
338.416	16.512	833.256	628.195
339.431	16.565	832.505	627.771
340.446	16.452	832.113	627.000
341.460	16.581	831.492	626.955
342.475	16.724	830.804	626.909
343.489	16.663	830.527	626.421
344.504	16.542	829.695	625.289
345.519	16.589	829.389	625.177
346.533	16.679	828.979	625.143
347.548	16.742	828.099	624.657
348.562	16.569	827.616	623.602
349.577	16.484	827.435	623.098
350.592	16.519	826.626	622.559
351.606	16.536	825.984	622.085
352.621	16.470	825.816	621.662
353.635	16.462	825.483	621.326
354.650	16.627	824.651	621.248
355.665	16.558	824.497	620.827
356.679	16.532	824.216	620.465
357.694	16.780	823.286	620.616
358.708	16.720	822.629	619.847
359.723	16.670	822.041	619.167
360.738	16.598	821.747	618.629
361.752	16.723	821.163	618.589
362.767	16.745	820.939	618.445
363.781	16.848	820.323	618.304
364.796	16.864	819.770	617.890
365.810	16.871	819.289	617.497
366.825	16.883	819.170	617.399
367.840	16.984	818.680	617.340
368.854	16.864	818.460	616.685
369.869	16.846	818.053	616.258
370.883	16.991	817.211	616.095
371.898	16.985	816.828	615.731
372.913	17.038	816.125	615.339
373.927	17.093	815.574	615.067
374.942	16.975	814.543	613.810
375.956	17.027	814.330	613.782
376.971	17.013	814.192	613.572
377.986	17.194	813.040	613.303
379.000	17.204	812.784	613.091
380.015	17.219	812.399	612.802
381.029	17.250	811.761	612.380
382.044	17.142	811.316	611.600
383.059	17.159	810.533	611.015
384.073	17.221	810.133	610.884
385.088	17.130	809.657	610.144
386.102	17.110	809.336	609.777
387.117	17.124	808.332	609.016
388.132	17.260	808.026	609.218
389.146	17.129	807.706	608.455
390.161	17.185	807.660	608.568
391.175	17.175	807.126	608.075
392.190	17.186	806.384	607.500
393.205	17.256	805.824	607.276
394.219	17.355	805.527	607.352
395.234	17.277	805.057	606.664
396.248	17.127	804.547	605.692
397.263	17.117	803.821	605.055
398.278	17.079	803.770	604.831
399.292	17.153	803.086	604.524
400.307	17.164	802.818	604.307
401.321	17.201	802.679	604.282
402.336	17.282	802.109	604.088
403.350	17.321	801.787	603.928
404.365	17.292	801.002	603.182
405.380	17.530	800.753	603.786
406.394	17.413	800.137	602.852
407.409	17.525	799.613	602.801
408.423	17.537	799.505	602.708
409.438	17.434	799.133	602.009
410.453	17.573	798.521	601.986
411.467	17.534	798.335	601.656
412.482	17.668	797.280	601.281
413.496	17.680	796.921	600.997
414.511	17.846	796.776	601.420
415.526	17.675	796.376	600.465
416.540	17.763	795.898	600.361
417.555	17.747	795.508	599.958
418.569	17.716	794.882	599.321
419.584	17.697	794.853	599.182
420.599	17.743	794.195	598.794
421.613	111.337	1292.572	1476.067
422.628	95.762	1365.165	1476.161
