DTS Sentinel unit serial number:	SN413079Multiplexer serial number:	ORYXHardware model number:	OX4-SRSoftware version number:	ORYX F/W v4.00 Oryx Data Collector v3.7.2.0data status	okinstallation	princeton_trtdifferential loss correction	single-endedforward channel	channel 3reverse channel	N/Adate	2019/09/13time	12:56:34forward acquisition time	60.00reverse acquisition time	0.00gamma	496.2192k internal	0.2305k external	0.2305temperature offset calibration	1.0147default loss term (dB/km)	0.3790temperature slope calibration	1.0000multiplexer offset coefficient	1.0000multiplexer slope coefficient	1.0000fibre end	0.00T internal ref (°C)	34.77T ext. ref 1 (°C)	4.57T ext. ref 2 (°C)	30.67length (m)	temperature (°C)	Stokes	anti-Stokes-747.200	-66.385	-0.145	-0.059
-746.185	2.382	0.069	-0.050
-745.171	316.880	0.130	-0.250
-744.156	-78.033	0.083	-0.029
-743.142	-200.000	0.027	-0.356
-742.127	-161.062	-0.349	-0.019
-741.112	75.645	-0.200	0.215
-740.098	-46.095	-0.181	0.091
-739.083	624.531	-0.038	0.098
-738.069	-165.211	0.223	0.010
-737.054	-129.130	-0.152	0.022
-736.039	-121.292	-0.290	-0.049
-735.025	134.983	0.156	-0.206
-734.010	-71.118	0.007	-0.003
-732.996	246.020	0.064	-0.110
-731.981	176.014	0.065	0.095
-730.966	6.454	-0.040	-0.030
-729.952	-200.000	-0.057	-0.260
-728.937	800.000	-0.100	-0.300
-727.923	800.000	-0.113	-0.324
-726.908	-200.000	0.018	-0.204
-725.894	-200.000	-0.025	-0.304
-724.879	-200.000	0.012	0.095
-723.864	800.000	0.057	-0.223
-722.850	-129.731	-0.082	-0.011
-721.835	45.833	0.186	-0.175
-720.821	-161.109	0.102	0.005
-719.806	-200.000	-0.037	-0.180
-718.791	-57.154	-0.126	0.056
-717.777	318.017	0.208	0.400
-716.762	67.044	0.159	0.165
-715.748	800.000	-0.018	-0.068
-714.733	152.690	-0.238	-0.331
-713.718	-141.797	-0.017	0.002
-712.704	-200.000	-0.072	-0.392
-711.689	442.262	0.047	-0.105
-710.675	-135.094	-0.558	0.068
-709.660	84.501	-0.138	-0.154
-708.645	191.125	0.142	-0.218
-707.631	-200.000	-0.033	-0.196
-706.616	161.992	-0.113	-0.161
-705.602	-66.647	0.219	-0.088
-704.587	108.088	-0.114	0.138
-703.572	40.733	0.354	0.324
-702.558	-96.009	-0.279	0.075
-701.543	332.534	0.039	-0.076
-700.529	-68.244	-0.082	0.032
-699.514	800.000	0.053	0.216
-698.499	-79.290	-0.078	-0.027
-697.485	406.333	0.109	-0.233
-696.470	-10.006	-0.147	-0.099
-695.456	-200.000	0.045	-0.358
-694.441	-200.000	-0.031	-0.190
-693.426	-32.847	-0.116	-0.065
-692.412	117.203	-0.158	-0.198
-691.397	493.179	0.094	-0.218
-690.383	-89.753	-0.406	-0.121
-689.368	-200.000	-0.070	0.489
-688.354	194.405	0.106	0.163
-687.339	800.000	0.040	0.170
-686.324	-200.000	0.109	-0.521
-685.310	73.575	0.259	-0.276
-684.295	534.114	0.050	-0.119
-683.281	736.951	0.095	-0.259
-682.266	288.047	0.140	0.257
-681.251	-200.000	-0.010	-0.404
-680.237	112.134	-0.285	0.350
-679.222	-69.032	0.258	0.101
-678.208	6.158	-0.217	-0.163
-677.193	276.750	0.145	-0.261
-676.178	-140.692	0.060	0.006
-675.164	-200.000	0.015	0.268
-674.149	-200.000	0.015	0.175
-673.135	369.495	0.079	-0.162
-672.120	-74.500	-0.212	-0.077
-671.105	-160.561	-0.152	0.008
-670.091	-20.401	-0.159	-0.099
-669.076	1.145	0.112	0.081
-668.062	800.000	-0.124	-0.439
-667.047	19.358	-0.242	-0.197
-666.032	-200.000	-0.018	0.159
-665.018	115.980	-0.033	-0.041
-664.003	40.625	-0.175	-0.160
-662.989	63.363	-0.074	0.075
-661.974	800.000	0.056	-0.219
-660.959	-200.000	0.022	-0.157
-659.945	262.567	0.084	-0.148
-658.930	-2.511	-0.056	-0.040
-657.916	-43.029	0.267	0.137
-656.901	24.926	0.101	-0.085
-655.886	-14.961	-0.164	0.107
-654.872	-184.483	-0.489	-0.008
-653.857	421.734	0.035	0.077
-652.843	-180.919	-0.112	-0.002
-651.828	151.888	0.222	-0.306
-650.814	-45.632	0.206	0.104
-649.799	32.210	0.230	0.202
-648.784	68.699	0.176	-0.183
-647.770	210.956	0.166	0.264
-646.755	-117.411	-0.156	0.029
-645.741	43.216	-0.293	0.271
-644.726	254.468	-0.262	-0.455
-643.711	88.291	-0.274	-0.309
-642.697	-113.413	-0.150	0.030
-641.682	144.530	0.323	-0.437
-640.668	-33.222	-0.168	0.094
-639.653	-25.219	0.345	0.207
-638.638	-200.000	0.000	0.150
-637.624	626.183	-0.061	-0.156
-636.609	800.000	-0.028	0.119
-635.595	156.338	0.060	0.084
-634.580	-76.867	-0.335	0.119
-633.565	15.069	0.196	0.155
-632.551	119.589	0.071	-0.089
-631.536	598.796	0.112	-0.281
-630.522	109.065	-0.132	-0.161
-629.507	-200.000	-0.018	0.150
-628.492	29.027	0.020	-0.017
-627.478	-13.120	-0.189	-0.125
-626.463	121.272	0.142	0.179
-625.449	-55.866	-0.194	-0.088
-624.434	330.847	0.051	0.100
-623.419	27.640	-0.204	-0.174
-622.405	-5.165	0.148	-0.103
-621.390	800.000	-0.092	-0.353
-620.376	-57.452	-0.044	0.020
-619.361	346.907	0.070	-0.140
-618.346	-200.000	-0.004	0.168
-617.332	745.842	0.029	-0.080
-616.317	-200.000	0.035	0.197
-615.303	-33.728	-0.233	0.130
-614.288	-84.861	0.277	0.088
-613.273	800.000	-0.050	-0.186
-612.259	324.671	0.161	-0.311
-611.244	-128.699	-0.483	0.069
-610.230	800.000	-0.064	-0.282
-609.215	1.084	0.203	-0.148
-608.201	15.270	-0.033	0.026
-607.186	-200.000	0.023	0.318
-606.171	-200.000	-0.029	0.232
-605.157	174.879	0.170	-0.249
-604.142	-13.183	0.304	0.200
-603.128	-180.734	-0.039	0.001
-602.113	-123.825	-0.492	-0.079
-601.098	764.086	0.095	0.262
-600.084	-31.560	-0.308	-0.175
-599.069	369.396	-0.055	-0.112
-598.055	-1.144	0.257	-0.184
-597.040	117.369	-0.050	-0.062
-596.025	-33.843	0.254	0.142
-595.011	-200.000	0.033	-0.162
-593.996	-200.000	-0.022	-0.139
-592.982	800.000	-0.032	-0.137
-591.967	-31.065	0.185	-0.105
-590.952	-35.653	0.224	-0.123
-589.938	75.490	-0.233	0.248
-588.923	62.948	0.183	0.185
-587.909	43.915	-0.246	0.228
-586.894	174.636	-0.138	0.202
-585.879	9.503	-0.157	-0.121
-584.865	-62.847	-0.198	0.083
-583.850	15.438	0.183	-0.145
-582.836	-75.186	-0.034	-0.012
-581.821	800.000	0.091	-0.338
-580.806	25.003	-0.255	-0.214
-579.792	-200.000	0.025	0.211
-578.777	800.000	-0.054	0.183
-577.763	31.056	0.194	0.168
-576.748	-200.000	-0.013	0.100
-575.733	734.939	0.076	-0.206
-574.719	-84.841	-0.335	0.106
-573.704	325.023	-0.102	0.197
-572.690	800.000	-0.147	0.605
-571.675	266.515	0.131	0.231
-570.661	800.000	0.039	0.161
-569.646	-66.189	0.040	0.016
-568.631	42.320	-0.091	0.084
-567.617	800.000	-0.023	-0.091
-566.602	187.702	-0.100	0.150
-565.588	-145.453	0.187	-0.017
-564.573	89.001	0.044	-0.049
-563.558	-200.000	0.021	-0.292
-562.544	-200.000	-0.003	-0.275
-561.529	25.767	-0.097	-0.082
-560.515	12.806	-0.077	0.060
-559.500	-182.041	-0.277	0.005
-558.485	704.817	0.019	0.050
-557.471	797.198	0.043	0.119
-556.456	-98.601	-0.298	-0.077
-555.442	-200.000	-0.066	-0.387
-554.427	-93.853	0.197	-0.055
-553.412	-99.110	-0.152	-0.039
-552.398	-69.937	-0.048	-0.018
-551.383	-113.358	-0.160	-0.032
-550.369	-65.840	-0.043	0.017
-549.354	135.460	-0.410	-0.538
-548.339	133.232	0.163	-0.213
-547.325	-50.422	-0.166	0.079
-546.310	-117.402	0.157	-0.029
-545.296	-200.000	0.011	-0.106
-544.281	-200.000	0.027	0.146
-543.266	-164.574	0.302	-0.014
-542.252	63.949	-0.205	0.208
-541.237	-200.000	0.056	0.257
-540.223	245.285	0.096	-0.163
-539.208	-200.000	0.078	-0.382
-538.193	117.657	-0.126	-0.157
-537.179	54.791	0.118	0.115
-536.164	398.996	0.053	0.112
-535.150	-200.000	-0.008	0.243
-534.135	48.038	0.193	0.182
-533.121	-167.897	-0.081	0.003
-532.106	28.329	0.292	0.249
-531.091	-65.843	-0.305	0.123
-530.077	354.522	-0.119	0.239
-529.062	285.326	0.060	-0.108
-528.048	-200.000	0.058	-0.398
-527.033	158.179	0.162	-0.226
-526.018	-200.000	-0.034	-0.272
-525.004	4.319	0.229	-0.169
-523.989	-51.997	-0.359	-0.168
-522.975	29.866	0.302	0.260
-521.960	-23.465	0.244	0.148
-520.945	606.605	0.110	0.276
-519.931	573.282	-0.112	0.275
-518.916	800.000	0.098	0.274
-517.902	-200.000	0.015	-0.383
-516.887	-31.460	-0.324	-0.184
-515.872	257.656	0.078	-0.135
-514.858	-16.279	-0.046	-0.030
-513.843	22.749	-0.212	-0.175
-512.829	-109.569	0.106	-0.023
-511.814	-165.306	-0.226	0.010
-510.799	-200.000	-0.038	-0.334
-509.785	321.671	0.143	0.274
-508.770	53.680	-0.180	-0.174
-507.756	-200.000	-0.048	-0.250
-506.741	84.536	-0.091	-0.100
-505.726	407.149	-0.060	-0.128
-504.712	340.672	-0.200	0.394
-503.697	555.395	-0.082	-0.200
-502.683	800.000	-0.101	-0.419
-501.668	-38.321	-0.067	-0.036
-500.653	340.328	-0.107	-0.210
-499.639	17.478	0.071	0.057
-498.624	84.917	-0.110	-0.121
-497.610	-200.000	-0.002	0.177
-496.595	-185.453	0.497	0.008
-495.581	-20.902	-0.164	0.101
-494.566	345.336	0.162	-0.320
-493.551	-200.000	0.008	0.333
-492.537	158.718	0.103	0.144
-491.522	7.356	-0.202	-0.152
-490.508	800.000	0.052	-0.160
-489.493	148.391	-0.116	0.158
-488.478	282.919	-0.131	-0.237
-487.464	-71.793	0.149	0.056
-486.449	152.753	-0.131	0.181
-485.435	34.187	-0.254	-0.223
-484.420	-200.000	0.012	-0.185
-483.405	57.572	-0.375	0.370
-482.391	-200.000	0.020	0.331
-481.376	800.000	-0.079	-0.235
-480.362	367.250	0.058	0.119
-479.347	800.000	0.035	-0.134
-478.332	800.000	0.051	-0.189
-477.318	-200.000	-0.021	-0.155
-476.303	-200.000	0.009	0.271
-475.289	-32.867	-0.021	-0.012
-474.274	-104.941	0.095	-0.022
-473.259	-200.000	-0.067	0.317
-472.245	-200.000	-0.016	-0.084
-471.230	-144.380	0.186	0.017
-470.216	-8.655	0.058	-0.040
-469.201	-122.175	-0.243	-0.040
-468.186	-165.662	0.169	0.007
-467.172	77.784	-0.263	-0.282
-466.157	63.741	-0.126	0.127
-465.143	-180.427	0.358	0.007
-464.128	4.601	0.122	0.090
-463.113	78.018	-0.129	-0.139
-462.099	-43.494	-0.035	-0.018
-461.084	-200.000	0.014	-0.295
-460.070	-157.072	-0.453	0.028
-459.055	-200.000	0.031	-0.271
-458.040	-200.000	-0.029	-0.207
-457.026	-135.372	0.062	0.007
-456.011	625.891	0.175	-0.445
-454.997	106.394	-0.022	0.026
-453.982	0.328	0.110	0.079
-452.968	-10.740	0.251	-0.167
-451.953	333.198	-0.114	0.222
-450.938	-200.000	-0.202	-0.000
-449.924	265.050	-0.095	0.166
-448.909	-200.000	0.001	0.237
-447.895	149.911	-0.097	-0.132
-446.880	-70.076	0.133	-0.051
-445.865	39.327	-0.134	-0.120
-444.851	-200.000	-0.023	-0.286
-443.836	25.099	-0.078	0.065
-442.822	-24.569	0.191	-0.114
-441.807	2.465	0.210	0.153
-440.792	-77.504	0.107	-0.037
-439.778	-184.645	0.097	0.002
-438.763	-199.606	0.358	0.002
-437.749	800.000	0.020	-0.082
-436.734	15.403	0.375	-0.296
-435.719	-42.817	-0.220	-0.113
-434.705	109.939	-0.058	-0.070
-433.690	84.465	-0.120	0.131
-432.676	-200.000	-0.020	0.420
-431.661	30.950	-0.267	0.230
-430.646	-200.000	0.068	0.401
-429.632	800.000	0.028	0.110
-428.617	406.743	0.103	0.220
-427.603	-111.320	0.169	-0.035
-426.588	-141.742	-0.237	0.024
-425.573	417.926	0.201	0.433
-424.559	-200.000	-0.075	0.520
-423.544	2.325	-0.141	-0.103
-422.530	60.264	-0.150	-0.150
-421.515	13.341	0.408	-0.318
-420.500	-110.692	0.337	0.070
-419.486	357.503	-0.048	-0.096
-418.471	407.808	0.069	-0.146
-417.457	800.000	-0.029	-0.120
-416.442	-23.520	-0.098	-0.059
-415.428	-100.648	0.050	0.012
-414.413	-30.279	-0.225	-0.128
-413.398	-14.300	-0.122	-0.079
-412.384	431.398	-0.163	0.356
-411.369	112.083	-0.062	0.075
-410.355	28.187	-0.157	0.133
-409.340	-97.003	0.252	0.066
-408.325	200.245	-0.100	0.154
-407.311	800.000	-0.022	-0.084
-406.296	115.407	-0.114	-0.139
-405.282	800.000	-0.086	0.290
-404.267	800.000	-0.107	-0.337
-403.252	-113.126	-0.354	-0.070
-402.238	58.863	-0.173	0.170
-401.223	466.705	0.060	0.135
-400.209	49.382	-0.249	-0.235
-399.194	16.880	-0.174	0.138
-398.179	-200.000	0.017	0.213
-397.165	592.368	0.072	0.178
-396.150	-56.452	-0.135	0.060
-395.136	156.803	0.138	0.191
-394.121	65.377	-0.134	-0.136
-393.106	336.579	0.105	-0.205
-392.092	190.678	-0.058	-0.088
-391.077	639.020	0.127	-0.325
-390.063	-62.149	0.149	-0.062
-389.048	114.399	0.090	-0.110
-388.033	137.645	0.087	-0.114
-387.019	-91.723	-0.068	-0.019
-386.004	264.748	0.111	-0.195
-384.990	-5.358	0.223	0.154
-383.975	105.438	0.168	0.200
-382.960	-200.000	0.007	-0.335
-381.946	224.252	-0.153	0.248
-380.931	-200.000	-0.025	-0.396
-379.917	-65.723	-0.164	-0.066
-378.902	199.447	-0.187	0.288
-377.888	-200.000	-0.014	-0.253
-376.873	142.008	0.202	0.269
-375.858	227.962	-0.268	-0.438
-374.844	764.808	-0.194	-0.529
-373.829	238.633	-0.015	-0.025
-372.815	4.528	0.242	-0.178
-371.800	416.043	-0.042	0.091
-370.785	-38.004	0.285	0.152
-369.771	-99.124	0.117	0.030
-368.756	-200.000	0.069	0.340
-367.742	2.833	0.262	0.191
-366.727	272.695	-0.177	0.313
-365.712	-200.000	0.024	0.271
-364.698	249.157	0.144	-0.245
-363.683	81.973	0.255	0.277
-362.669	800.000	-0.100	0.323
-361.654	95.656	0.180	0.206
-360.639	-111.359	0.298	0.061
-359.625	277.342	-0.188	-0.335
-358.610	8.152	-0.285	0.215
-357.596	550.085	0.039	-0.094
-356.581	297.331	-0.116	0.213
-355.566	363.524	0.160	0.321
-354.552	-139.653	0.074	0.008
-353.537	82.833	0.038	-0.041
-352.523	-200.000	-0.011	0.354
-351.508	-200.000	-0.115	-0.599
-350.493	-200.000	0.068	0.299
-349.479	-12.786	0.163	0.106
-348.464	194.392	0.198	0.300
-347.450	61.048	-0.022	-0.022
-346.435	-200.000	-0.077	-0.439
-345.420	36.021	0.091	0.080
-344.406	-29.854	0.148	-0.084
-343.391	-200.000	0.078	0.410
-342.377	-53.321	0.264	-0.121
-341.362	76.471	-0.331	0.351
-340.348	24.702	0.082	0.068
-339.333	-100.214	0.306	-0.076
-338.318	-200.000	0.028	0.220
-337.304	-102.201	0.198	0.048
-336.289	368.335	-0.052	0.105
-335.275	-200.000	-0.035	0.294
-334.260	10.109	-0.032	0.024
-333.245	-113.867	0.153	-0.030
-332.231	800.000	0.065	0.274
-331.216	800.000	-0.012	0.034
-330.202	24.415	0.218	-0.181
-329.187	-67.496	0.220	0.087
-328.172	334.071	0.095	-0.185
-327.158	800.000	-0.111	-0.434
-326.143	171.107	-0.094	-0.135
-325.129	119.012	0.100	0.124
-324.114	-6.754	0.244	0.166
-323.099	-200.000	-0.004	-0.047
-322.085	51.297	-0.283	-0.269
-321.070	76.302	-0.121	-0.128
-320.056	-158.755	0.211	-0.012
-319.041	-51.287	-0.133	0.062
-318.026	-56.703	0.200	-0.088
-317.012	-82.034	0.226	-0.074
-315.997	492.011	-0.105	-0.240
-314.983	-6.420	0.041	0.028
-313.968	-200.000	-0.110	-0.511
-312.953	-200.000	0.029	-0.470
-311.939	-118.872	-0.308	-0.054
-310.924	21.392	-0.392	0.319
-309.910	-89.704	0.169	0.050
-308.895	-125.819	0.053	-0.008
-307.880	-127.983	-0.292	0.042
-306.866	-122.965	0.188	-0.030
-305.851	-139.827	0.093	-0.010
-304.837	-41.287	0.260	-0.134
-303.822	-200.000	0.002	-0.232
-302.807	37.582	0.109	0.096
-301.793	800.000	-0.101	0.396
-300.778	-143.217	-0.181	0.017
-299.764	169.751	0.228	0.325
-298.749	800.000	0.067	-0.259
-297.735	-184.601	-0.242	-0.004
-296.720	800.000	-0.072	-0.305
-295.705	29.439	0.270	0.229
-294.691	-92.271	-0.161	-0.045
-293.676	135.337	0.075	0.097
-292.662	42.683	0.055	0.050
-291.647	-68.073	-0.034	0.013
-290.632	-200.000	0.048	-0.236
-289.618	24.264	0.201	0.166
-288.603	-127.260	0.192	0.028
-287.589	151.730	0.082	-0.112
-286.574	-6.504	0.111	-0.076
-285.559	57.362	-0.120	0.117
-284.545	-173.178	0.259	0.008
-283.530	9.251	0.135	0.102
-282.516	-200.000	-0.035	-0.254
-281.501	-110.643	-0.102	0.021
-280.486	59.627	0.235	0.232
-279.472	-200.000	0.003	0.161
-278.457	-28.820	-0.121	0.069
-277.443	14.279	-0.083	0.065
-276.428	305.654	-0.132	-0.245
-275.413	-144.210	-0.398	-0.037
-274.399	-200.000	0.023	-0.130
-273.384	117.187	0.090	0.111
-272.370	-156.936	0.268	-0.016
-271.355	650.924	0.128	-0.328
-270.340	-57.706	-0.318	-0.139
-269.326	245.069	-0.105	0.177
-268.311	147.082	0.099	0.133
-267.297	-200.000	-0.006	-0.044
-266.282	114.889	-0.129	0.157
-265.267	-125.500	-0.212	-0.032
-264.253	-122.933	0.175	0.028
-263.238	-101.848	0.167	0.040
-262.224	-200.000	-0.003	-0.127
-261.209	-23.352	0.057	0.034
-260.195	-200.000	-0.020	-0.250
-259.180	27.058	0.185	0.155
-258.165	800.000	0.106	0.305
-257.151	800.000	-0.106	-0.330
-256.136	-61.252	-0.174	-0.073
-255.122	121.248	0.146	-0.182
-254.107	-200.000	-0.027	0.427
-253.092	-78.759	0.054	-0.018
-252.078	-156.706	-0.107	-0.007
-251.063	54.252	0.067	0.064
-250.049	800.000	0.025	-0.093
-249.034	-149.759	0.113	0.009
-248.019	7.040	-0.038	0.028
-247.005	-200.000	-0.017	0.091
-245.990	-92.912	0.352	0.098
-244.976	-63.192	-0.177	0.073
-243.961	193.995	0.067	0.102
-242.946	-200.000	-0.016	0.079
-241.932	800.000	-0.030	-0.121
-240.917	53.925	0.151	0.145
-239.903	-200.000	-0.008	-0.051
-238.888	66.011	0.111	-0.112
-237.873	8.234	0.020	-0.015
-236.859	-200.000	0.025	0.366
-235.844	-88.695	-0.240	-0.071
-234.830	163.871	0.117	0.164
-233.815	177.282	-0.226	-0.329
-232.800	-200.000	-0.023	0.270
-231.786	800.000	0.019	0.058
-230.771	447.853	0.060	0.132
-229.757	640.086	-0.091	0.231
-228.742	-80.611	0.094	0.031
-227.727	-93.807	-0.058	0.016
-226.713	-13.309	-0.236	0.153
-225.698	-93.429	-0.377	0.104
-224.684	800.000	-0.049	0.142
-223.669	269.360	0.118	-0.207
-222.655	-113.387	0.318	-0.062
-221.640	800.000	-0.004	0.015
-220.625	361.594	-0.061	0.123
-219.611	-45.623	0.145	0.071
-218.596	-200.000	-0.039	-0.256
-217.582	-200.000	0.012	-0.094
-216.567	-112.107	0.103	-0.021
-215.552	-200.000	-0.015	-0.129
-214.538	70.699	0.314	-0.324
-213.523	-77.150	0.122	0.042
-212.509	-24.610	0.094	-0.056
-211.494	13.418	0.102	0.079
-210.479	-144.186	-0.212	-0.020
-209.465	126.698	0.177	0.223
-208.450	-10.466	-0.199	0.131
-207.436	61.472	0.242	0.240
-206.421	108.984	-0.204	0.243
-205.406	94.492	-0.219	0.248
-204.392	-147.967	-0.287	0.024
-203.377	-200.000	-0.015	0.129
-202.363	1.701	0.151	0.108
-201.348	800.000	0.044	0.127
-200.333	-112.417	0.347	0.069
-199.319	-74.911	-0.321	0.115
-198.304	800.000	0.016	-0.050
-197.290	127.005	-0.063	0.080
-196.275	37.420	-0.326	-0.288
-195.260	184.047	-0.081	0.119
-194.246	-200.000	-0.008	-0.279
-193.231	746.044	-0.101	-0.271
-192.217	-143.526	-0.281	0.027
-191.202	446.394	0.091	-0.198
-190.187	515.024	-0.013	-0.030
-189.173	76.809	-0.047	-0.050
-188.158	-200.000	-0.037	-0.406
-187.144	-200.000	0.005	0.022
-186.129	473.321	-0.109	-0.244
-185.114	-127.068	-0.244	-0.036
-184.100	14.359	0.161	0.125
-183.085	135.508	-0.183	-0.237
-182.071	-0.725	-0.176	-0.124
-181.056	-72.101	0.117	0.043
-180.042	-68.532	0.172	0.066
-179.027	-44.991	0.287	-0.142
-178.012	317.511	-0.084	-0.159
-176.998	-144.298	0.214	0.020
-175.983	-45.890	0.338	-0.166
-174.969	800.000	0.114	-0.368
-173.954	-21.431	0.070	-0.043
-172.939	-115.016	0.422	-0.080
-171.925	-200.000	-0.102	0.520
-170.910	2.087	0.326	0.234
-169.896	154.152	0.235	0.321
-168.881	-77.305	0.379	0.131
-167.866	151.492	0.127	-0.173
-166.852	-127.764	-0.227	0.033
-165.837	800.000	-0.088	0.377
-164.823	-200.000	0.050	0.365
-163.808	-200.000	0.000	-0.107
-162.793	94.797	0.083	0.094
-161.779	66.300	-0.189	-0.191
-160.764	-88.802	0.101	-0.030
-159.750	-117.229	-0.238	-0.043
-158.735	-55.690	0.159	-0.071
-157.720	229.155	-0.102	-0.166
-156.706	-200.000	-0.028	0.222
-155.691	288.574	-0.101	0.182
-154.677	240.382	0.131	0.218
-153.662	-141.957	-0.289	-0.029
-152.647	30.407	-0.167	0.142
-151.633	-139.087	-0.381	-0.041
-150.618	-89.956	0.175	0.051
-149.604	-18.609	0.084	-0.052
-148.589	34.860	-0.218	-0.189
-147.574	800.000	-0.085	-0.237
-146.560	-150.714	-0.146	0.011
-145.545	-133.699	-0.167	0.021
-144.531	122.810	-0.054	-0.067
-143.516	-44.436	-0.114	0.057
-142.502	115.294	-0.153	-0.186
-141.487	-200.000	0.012	-0.353
-140.472	-91.498	-0.252	0.072
-139.458	-200.000	0.013	0.091
-138.443	-55.478	0.197	0.088
-137.429	800.000	-0.040	0.144
-136.414	-153.082	0.099	-0.007
-135.399	-83.743	0.431	0.137
-134.385	-56.985	0.147	0.064
-133.370	181.299	0.172	-0.251
-132.356	90.636	-0.120	-0.133
-131.341	-126.851	0.241	-0.035
-130.326	-138.962	0.179	0.019
-129.312	-200.000	0.019	-0.144
-128.297	-166.467	-0.219	0.009
-127.283	10.347	0.213	-0.161
-126.268	-200.000	-0.022	-0.280
-125.253	-39.026	0.106	-0.056
-124.239	-200.000	0.024	-0.243
-123.224	225.943	0.126	0.203
-122.210	101.126	0.203	-0.235
-121.195	-50.266	-0.326	-0.153
-120.180	507.283	0.061	-0.141
-119.166	-107.350	-0.270	-0.059
-118.151	-51.671	0.168	-0.078
-117.137	-138.655	0.052	-0.006
-116.122	668.309	-0.021	0.054
-115.107	-75.530	0.514	0.182
-114.093	-35.772	0.137	-0.074
-113.078	570.203	-0.038	-0.091
-112.064	-67.259	-0.283	0.110
-111.049	74.740	-0.111	0.116
-110.034	-5.813	0.254	-0.173
-109.020	119.725	0.275	0.339
-108.005	17.643	-0.435	-0.343
-106.991	181.925	0.187	-0.273
-105.976	-200.000	0.013	-0.246
-104.962	527.208	0.089	0.209
-103.947	209.617	0.058	-0.090
-102.932	138.041	0.080	-0.105
-101.918	-55.206	0.139	0.062
-100.903	21.492	-0.305	-0.246
-99.889	-99.738	0.247	0.061
-98.874	-34.913	-0.152	0.082
-97.859	108.558	-0.080	-0.095
-96.845	800.000	0.053	0.186
-95.830	-8.445	-0.221	-0.148
-94.816	-146.301	0.228	0.020
-93.801	785.371	-0.121	0.329
-92.786	-200.000	0.002	0.254
-91.772	-200.000	0.003	-0.505
-90.757	-19.737	-0.332	0.204
-89.743	-200.000	0.008	-0.202
-88.728	-200.000	0.001	0.066
-87.713	-149.553	-0.256	-0.020
-86.699	199.346	-0.139	-0.212
-85.684	123.889	-0.188	0.234
-84.670	-66.211	0.172	-0.068
-83.655	-200.000	-0.042	0.255
-82.640	-200.000	0.073	0.418
-81.626	456.739	0.036	0.079
-80.611	86.623	-0.179	-0.196
-79.597	-78.146	-0.230	-0.078
-78.582	20.362	0.059	0.047
-77.567	800.000	0.125	-0.452
-76.553	-88.503	0.240	-0.071
-75.538	-136.900	-0.291	-0.033
-74.524	609.231	-0.093	0.231
-73.509	70.092	0.137	-0.141
-72.494	-200.000	0.014	-0.140
-71.480	186.618	-0.187	0.277
-70.465	126.399	-0.254	0.319
-69.451	-5.078	0.342	0.233
-68.436	-130.843	0.114	0.015
-67.422	-104.712	-0.350	-0.080
-66.407	-200.000	0.008	-0.087
-65.392	86.822	0.214	0.234
-64.378	-10.840	-0.273	-0.179
-63.363	86.156	0.204	-0.223
-62.349	57.650	0.055	0.053
-61.334	83.137	-0.921	-0.993
-60.319	44.172	0.430	0.391
-59.305	-200.000	-0.128	-1.025
-58.290	428.232	0.546	1.168
-57.276	-200.000	0.162	1.398
-56.261	-200.000	95.997	564.432
-55.246	631.788	1388.614	3483.980
-54.232	184.328	2614.468	3836.465
-53.217	120.091	2218.523	2726.738
-52.203	45.321	1750.891	1600.140
-51.188	37.918	1560.025	1373.755
-50.173	35.494	1532.001	1332.225
-49.159	53.475	1582.028	1502.981
-48.144	57.140	1600.950	1546.754
-47.130	38.279	1556.340	1372.828
-46.115	34.926	1541.372	1336.199
-45.100	34.861	1537.772	1332.571
-44.086	34.834	1535.842	1330.657
-43.071	34.784	1533.729	1328.426
-42.057	34.806	1532.292	1327.281
-41.042	34.768	1530.748	1325.628
-40.027	34.721	1529.708	1324.347
-39.013	34.811	1527.779	1323.250
-37.998	34.692	1526.837	1321.558
-36.984	34.763	1525.691	1321.000
-35.969	34.772	1524.741	1320.191
-34.954	34.713	1522.877	1318.118
-33.940	34.732	1521.223	1316.763
-32.925	34.756	1520.252	1316.035
-31.911	34.801	1518.881	1315.106
-30.896	34.861	1517.280	1314.077
-29.881	34.839	1516.150	1312.902
-28.867	34.761	1514.352	1310.753
-27.852	34.933	1512.606	1310.368
-26.838	34.745	1511.918	1308.434
-25.823	34.736	1510.008	1306.667
-24.809	34.733	1508.098	1304.941
-23.794	34.823	1506.988	1304.547
-22.779	34.776	1505.767	1303.116
-21.765	34.817	1505.020	1302.698
-20.750	34.903	1503.528	1301.942
-19.736	34.821	1502.871	1300.764
-18.721	34.783	1501.421	1299.195
-17.706	34.862	1500.256	1298.676
-16.692	34.796	1499.133	1297.202
-15.677	34.696	1498.378	1295.817
-14.663	34.643	1497.577	1294.713
-13.648	34.731	1496.280	1294.139
-12.633	34.736	1495.453	1293.404
-11.619	34.783	1494.449	1292.802
-10.604	34.719	1494.099	1292.019
-9.590	34.814	1492.478	1291.205
-8.575	34.743	1491.791	1290.079
-7.560	34.727	1491.340	1289.531
-6.546	34.726	1490.487	1288.738
-5.531	34.727	1489.149	1287.537
-4.517	34.691	1488.326	1286.526
-3.502	34.730	1487.131	1285.707
-2.487	34.738	1486.276	1284.972
-1.473	34.665	1485.132	1283.438
-0.458	34.714	1483.995	1282.736
0.556	36.880	1474.768	1272.414
1.571	33.559	1446.907	1226.817
2.586	29.361	1383.037	1146.528
3.600	27.317	1298.636	1064.521
4.615	25.099	1250.761	1012.669
5.629	21.188	1192.826	944.564
6.644	12.667	1106.073	832.857
7.659	5.932	1064.380	768.509
8.673	4.801	1058.769	758.884
9.688	4.582	1055.805	755.626
10.702	4.315	1054.398	753.254
11.717	4.593	1052.803	753.395
12.731	7.731	1056.279	771.057
13.746	16.125	1068.220	820.714
14.761	21.931	1074.634	853.909
15.775	22.370	1074.284	855.693
16.790	21.521	1072.544	850.108
17.804	20.542	1070.424	843.601
18.819	19.719	1068.706	838.184
19.834	19.325	1067.142	834.975
20.848	19.051	1066.804	833.310
21.863	18.984	1065.909	832.215
22.877	18.811	1065.333	830.853
23.892	18.695	1064.526	829.590
24.907	18.553	1063.595	828.107
25.921	18.575	1062.984	827.661
26.936	18.468	1062.169	826.440
27.950	18.540	1061.084	825.868
28.965	18.561	1060.195	825.205
29.980	18.640	1058.759	824.396
30.994	18.828	1057.864	824.526
32.009	18.914	1057.191	824.342
33.023	18.983	1056.556	824.106
34.038	19.031	1055.096	823.120
35.053	18.867	1054.247	821.603
36.067	18.701	1053.710	820.318
37.082	18.631	1052.447	818.929
38.096	18.721	1051.938	818.890
39.111	18.788	1051.069	818.462
40.126	18.857	1050.208	818.045
41.140	18.758	1049.114	816.652
42.155	18.430	1047.631	813.867
43.169	18.283	1046.439	812.172
44.184	18.284	1045.758	811.575
45.199	18.205	1044.011	809.772
46.213	18.211	1043.064	808.995
47.228	18.292	1042.628	808.967
48.242	18.657	1041.300	809.588
49.257	18.776	1040.892	809.760
50.271	18.651	1039.931	808.352
51.286	18.747	1038.793	807.847
52.301	18.641	1038.558	807.097
53.315	18.549	1037.712	805.934
54.330	18.612	1036.687	805.365
55.344	18.422	1035.769	803.686
56.359	18.432	1034.292	802.517
57.374	18.417	1033.688	801.905
58.388	18.473	1032.646	801.289
59.403	18.381	1031.699	800.054
60.417	18.239	1031.148	798.894
61.432	18.262	1030.711	798.590
62.447	18.135	1029.646	797.104
63.461	18.125	1028.993	796.481
64.476	18.186	1027.721	795.708
65.490	18.078	1026.728	794.367
66.505	18.058	1026.075	793.701
67.520	18.159	1025.404	793.579
68.534	18.246	1024.228	793.003
69.549	18.210	1023.522	792.219
70.563	18.143	1022.825	791.301
71.578	18.041	1022.514	790.518
72.593	17.912	1021.613	789.154
73.607	17.853	1020.304	787.803
74.622	17.832	1019.517	787.026
75.636	17.878	1018.266	786.206
76.651	17.901	1017.743	785.834
77.666	17.934	1017.261	785.547
78.680	17.997	1016.277	785.006
79.695	17.929	1016.083	784.475
80.709	18.024	1014.989	783.994
81.724	18.183	1014.285	784.114
82.739	18.295	1013.594	784.023
83.753	18.212	1013.301	783.344
84.768	18.510	1012.504	784.024
85.782	18.754	1011.813	784.536
86.797	18.991	1011.260	785.116
87.812	18.889	1010.868	784.277
88.826	18.789	1009.481	782.678
89.841	18.789	1009.082	782.298
90.855	18.671	1008.274	781.067
91.870	18.867	1007.380	781.194
92.884	18.879	1007.058	780.930
93.899	18.939	1005.442	779.879
94.914	18.826	1005.289	779.180
95.928	18.921	1004.463	778.902
96.943	18.910	1003.628	778.134
97.957	18.867	1002.424	776.940
98.972	18.784	1001.528	775.799
99.987	18.642	1001.155	774.801
101.001	18.895	1000.150	775.097
102.016	18.646	999.689	773.547
103.030	18.808	998.407	773.218
104.045	18.712	997.750	772.208
105.060	18.827	996.646	771.803
106.074	18.681	995.941	770.533
107.089	18.563	994.638	768.928
108.103	18.209	993.773	766.605
109.118	18.109	992.470	765.085
110.133	18.201	991.191	764.444
111.147	18.106	990.727	763.594
112.162	18.149	989.703	762.926
113.176	18.179	988.889	762.368
114.191	18.385	988.116	762.619
115.206	18.296	987.306	761.531
116.220	18.390	986.529	761.282
117.235	18.364	985.600	760.381
118.249	18.270	985.040	759.467
119.264	18.237	983.874	758.352
120.279	18.194	982.958	757.391
121.293	18.176	982.253	756.699
122.308	18.087	981.257	755.472
123.322	18.011	980.548	754.527
124.337	17.815	979.356	752.675
125.352	17.784	978.200	751.587
126.366	17.917	977.030	751.206
127.381	17.875	976.033	750.186
128.395	17.843	975.475	749.552
129.410	17.921	974.457	749.044
130.424	18.057	973.203	748.610
131.439	18.181	972.667	748.677
132.454	18.244	972.052	748.412
133.468	18.222	971.606	747.905
134.483	18.322	970.593	747.494
135.497	18.380	969.873	747.129
136.512	18.164	969.700	745.988
137.527	18.254	968.564	745.438
138.541	18.396	967.488	745.163
139.556	18.334	967.040	744.483
140.570	18.361	965.959	743.700
141.585	18.511	965.399	743.854
142.600	18.617	965.090	744.013
143.614	18.836	964.114	744.142
144.629	18.814	963.538	743.536
145.643	18.929	962.806	743.401
146.658	18.945	961.791	742.621
147.673	18.667	960.887	740.658
148.687	18.632	959.900	739.680
149.702	18.532	958.824	738.355
150.716	18.393	958.089	737.128
151.731	18.311	957.071	735.924
152.746	18.406	956.092	735.516
153.760	18.291	955.584	734.566
154.775	18.523	954.476	734.643
155.789	18.623	954.093	734.711
156.804	18.649	953.151	734.035
157.819	18.653	952.623	733.580
158.833	18.676	951.653	732.865
159.848	18.821	951.557	733.343
160.862	18.907	950.943	733.174
161.877	18.824	950.321	732.278
162.892	18.588	948.858	730.080
163.906	18.346	947.567	727.992
164.921	18.317	946.915	727.306
165.935	18.368	945.615	726.460
166.950	18.391	945.037	726.046
167.964	18.541	944.143	725.933
168.979	18.497	942.929	724.749
169.994	18.406	941.746	723.389
171.008	18.459	941.166	723.104
172.023	18.552	940.435	722.872
173.037	18.728	939.316	722.688
174.052	18.864	938.968	722.926
175.067	18.815	938.336	722.173
176.081	18.513	937.429	720.140
177.096	18.440	936.085	718.739
178.110	18.338	935.353	717.685
179.125	18.492	934.771	717.820
180.140	18.528	934.141	717.423
181.154	18.341	933.737	716.267
182.169	18.561	933.175	716.691
183.183	18.639	932.845	716.702
184.198	18.824	931.593	716.447
185.213	18.682	931.188	715.483
186.227	18.798	930.335	715.244
187.242	18.885	930.067	715.338
188.256	18.867	929.495	714.758
189.271	18.999	928.618	714.571
190.286	19.138	928.035	714.636
191.300	18.820	926.822	712.320
192.315	18.481	926.244	710.409
193.329	18.233	924.862	708.259
194.344	18.232	924.494	707.912
195.359	18.516	923.882	708.551
196.373	18.564	923.764	708.597
197.388	18.629	923.517	708.614
198.402	18.850	922.726	708.856
199.417	19.001	922.822	709.490
200.432	19.151	922.363	709.694
201.446	19.243	921.986	709.720
202.461	19.191	921.678	709.207
203.475	19.266	921.128	709.031
204.490	19.434	920.177	708.924
205.504	19.142	919.399	707.064
206.519	18.956	917.776	704.990
207.534	18.867	917.380	704.260
208.548	18.944	916.725	704.009
209.563	18.814	916.211	703.021
210.577	19.031	915.228	703.091
211.592	19.024	914.603	702.517
212.607	19.145	914.140	702.594
213.621	19.297	913.955	703.012
214.636	19.262	913.096	702.147
215.650	19.197	912.188	701.120
216.665	19.194	911.815	700.759
217.680	19.257	911.498	700.709
218.694	19.364	910.907	700.630
219.709	19.356	910.281	700.053
220.723	19.431	909.494	699.689
221.738	19.308	909.221	698.919
222.753	19.288	908.376	698.125
223.767	19.166	908.011	697.288
224.782	19.339	907.134	697.256
225.796	19.420	906.184	696.790
226.811	19.472	905.886	696.709
227.826	19.365	905.206	695.694
228.840	19.332	904.228	694.748
229.855	19.275	903.491	693.888
230.869	19.208	903.044	693.216
231.884	19.170	902.341	692.460
232.899	19.214	901.004	691.552
233.913	19.213	900.400	691.020
234.928	19.069	900.023	690.092
235.942	19.071	899.167	689.384
236.957	18.964	898.534	688.409
237.972	18.887	897.930	687.578
238.986	18.998	897.117	687.338
240.001	19.057	896.598	687.114
241.015	19.056	895.924	686.535
242.030	19.050	895.596	686.198
243.045	19.100	895.060	685.925
244.059	19.422	894.071	686.387
245.074	19.370	893.336	685.557
246.088	19.349	892.711	684.934
247.103	19.421	892.592	685.068
248.117	19.526	891.944	684.926
249.132	19.692	891.090	684.869
250.147	19.775	891.283	685.285
251.161	20.049	891.044	686.124
252.176	20.163	889.902	685.635
253.190	20.202	889.553	685.459
254.205	20.245	888.823	685.009
255.220	20.454	887.841	685.013
256.234	20.337	887.387	684.141
257.249	20.204	886.678	683.013
258.263	20.121	886.482	682.472
259.278	20.138	886.125	682.205
260.293	20.031	885.389	681.158
261.307	20.211	884.856	681.396
262.322	20.435	884.123	681.647
263.336	20.503	883.495	681.372
264.351	20.407	883.058	680.597
265.366	20.408	882.558	680.155
266.380	20.381	881.813	679.414
267.395	20.440	881.083	679.022
268.409	20.269	880.506	677.851
269.424	20.317	879.402	677.129
270.439	20.130	878.620	675.738
271.453	20.116	878.397	675.450
272.468	20.024	877.359	674.237
273.482	20.064	876.826	673.921
274.497	20.113	876.255	673.614
275.512	19.985	875.909	672.789
276.526	20.083	874.692	672.175
277.541	20.042	874.132	671.527
278.555	20.112	873.516	671.267
279.570	20.329	873.095	671.724
280.585	20.481	872.674	671.929
281.599	20.521	872.206	671.663
282.614	20.315	871.612	670.351
283.628	20.285	870.969	669.681
284.643	20.129	870.628	668.755
285.657	20.085	869.983	668.034
286.672	20.193	869.177	667.770
287.687	20.171	868.528	667.128
288.701	20.085	867.957	666.299
289.716	20.255	867.373	666.448
290.730	20.317	866.845	666.220
291.745	20.311	866.362	665.765
292.760	20.421	865.034	665.109
293.774	20.317	865.037	664.652
294.789	20.509	864.765	665.119
295.803	20.501	863.912	664.376
296.818	20.406	863.056	663.294
297.833	20.272	862.363	662.193
298.847	20.315	861.643	661.743
299.862	20.292	861.251	661.299
300.876	20.374	860.680	661.113
301.891	20.613	859.850	661.328
302.906	20.559	859.207	660.569
303.920	20.763	858.784	660.958
304.935	20.911	858.270	661.065
305.949	20.959	857.929	660.927
306.964	20.869	857.226	659.986
307.979	20.814	856.298	659.004
308.993	20.766	855.758	658.349
310.008	20.795	855.620	658.294
311.022	20.764	855.381	657.936
312.037	20.935	854.275	657.672
313.052	20.687	853.605	656.162
314.066	20.510	853.067	655.025
315.081	20.400	852.277	653.946
316.095	20.436	851.625	653.524
317.110	20.387	851.432	653.132
318.125	20.360	850.713	652.420
319.139	20.399	850.427	652.291
320.154	20.272	849.879	651.335
321.168	20.419	849.103	651.235
322.183	20.572	848.324	651.153
323.197	20.524	848.075	650.725
324.212	20.595	847.675	650.627
325.227	20.592	846.970	650.015
326.241	20.697	846.649	650.106
327.256	20.494	846.174	648.925
328.270	20.410	845.222	647.824
329.285	20.504	844.580	647.623
330.300	20.520	844.028	647.204
331.314	20.434	843.885	646.718
332.329	20.544	843.283	646.606
333.343	20.641	842.414	646.244
334.358	20.686	842.072	646.092
335.373	20.792	841.452	645.951
336.387	20.835	840.971	645.684
337.402	20.753	840.481	644.946
338.416	21.013	839.931	645.432
339.431	21.114	839.314	645.272
340.446	21.081	839.123	644.947
341.460	21.306	838.577	645.302
342.475	21.313	837.902	644.751
343.489	21.178	838.185	644.411
344.504	21.445	837.476	644.795
345.519	21.453	836.316	643.875
346.533	21.656	835.804	644.170
347.548	21.316	835.660	642.750
348.562	21.242	834.944	641.871
349.577	21.172	833.921	640.773
350.592	20.939	833.384	639.448
351.606	20.828	833.011	638.699
352.621	20.806	832.361	638.063
353.635	20.772	832.256	637.802
354.650	21.053	831.386	638.107
355.665	21.042	831.270	637.919
356.679	21.044	830.641	637.388
357.694	21.187	830.548	637.785
358.708	21.093	830.166	637.089
359.723	21.140	829.206	636.468
360.738	21.246	828.225	636.047
361.752	21.250	828.238	636.013
362.767	21.214	827.653	635.377
363.781	21.375	827.469	635.765
364.796	21.398	827.017	635.444
365.810	21.543	826.604	635.601
366.825	21.603	826.149	635.410
367.840	21.795	825.743	635.739
368.854	21.882	825.358	635.699
369.869	21.697	824.700	634.466
370.883	21.501	824.242	633.349
371.898	21.470	823.655	632.732
372.913	21.636	823.148	632.885
373.927	21.565	823.195	632.609
374.942	21.576	821.881	631.583
375.956	21.599	821.296	631.159
376.971	21.584	820.876	630.726
377.986	21.750	820.077	630.656
379.000	21.933	819.822	631.061
380.015	21.902	819.518	630.660
381.029	21.852	818.788	629.862
382.044	21.736	818.172	628.916
383.059	21.932	817.437	629.001
384.073	22.088	817.094	629.240
385.088	22.091	816.133	628.454
386.102	21.609	816.016	626.584
387.117	21.557	814.934	625.510
388.132	21.557	814.531	625.147
389.146	21.548	814.426	624.979
390.161	21.570	814.047	624.711
391.175	21.764	813.773	625.137
392.190	21.906	813.256	625.190
393.205	21.855	812.508	624.379
394.219	21.677	812.388	623.598
395.234	21.616	811.690	622.790
396.248	21.603	811.015	622.172
397.263	21.547	810.407	621.451
398.278	21.538	809.595	620.741
399.292	21.401	809.333	620.001
400.307	21.292	809.024	619.322
401.321	21.357	808.750	619.289
402.336	21.375	808.374	619.007
403.350	21.571	808.015	619.371
404.365	21.700	807.728	619.552
405.380	21.865	806.892	619.440
406.394	21.885	806.777	619.369
407.409	22.058	806.441	619.666
408.423	22.180	805.926	619.646
409.438	22.187	805.479	619.272
410.453	22.194	805.097	618.947
411.467	22.243	804.787	618.825
412.482	22.274	804.225	618.449
413.496	22.248	803.964	618.101
414.511	22.539	803.464	618.684
415.526	22.506	803.351	618.427
416.540	22.279	802.864	617.199
417.555	22.401	802.137	617.014
418.569	22.354	801.474	616.285
419.584	22.391	800.857	615.886
420.599	22.418	800.475	615.631
421.613	159.009	1368.337	1788.875
422.628	138.032	1451.101	1788.981
