DTS Sentinel unit serial number:	SN413079Multiplexer serial number:	ORYXHardware model number:	OX4-SRSoftware version number:	ORYX F/W v4.00 Oryx Data Collector v3.7.2.0data status	okinstallation	princeton_trtdifferential loss correction	single-endedforward channel	channel 3reverse channel	N/Adate	2019/09/15time	15:56:35forward acquisition time	60.00reverse acquisition time	0.00gamma	496.2192k internal	0.2290k external	0.2290temperature offset calibration	0.9936default loss term (dB/km)	0.3790temperature slope calibration	1.0000multiplexer offset coefficient	1.0000multiplexer slope coefficient	1.0000fibre end	0.00T internal ref (°C)	42.52T ext. ref 1 (°C)	5.30T ext. ref 2 (°C)	40.28length (m)	temperature (°C)	Stokes	anti-Stokes-747.200	-34.151	0.081	-0.046
-746.185	-200.000	0.087	0.547
-745.171	-200.000	0.005	-0.166
-744.156	-34.244	0.354	-0.199
-743.142	800.000	-0.071	0.235
-742.127	248.037	-0.071	0.122
-741.112	-200.000	0.066	0.353
-740.098	-85.486	-0.126	0.040
-739.083	-200.000	-0.039	0.195
-738.069	106.812	-0.250	0.304
-737.054	-101.996	0.354	0.087
-736.039	-200.000	-0.002	0.285
-735.025	-43.940	-0.301	0.155
-734.010	-40.919	-0.273	0.145
-732.996	-63.905	0.160	0.067
-731.981	50.517	-0.108	-0.105
-730.966	-96.515	-0.234	0.063
-729.952	-43.968	0.268	-0.138
-728.937	-39.213	0.185	-0.100
-727.923	800.000	-0.040	0.140
-726.908	-153.965	0.165	0.012
-725.894	22.531	-0.319	0.267
-724.879	-200.000	0.021	-0.158
-723.864	-200.000	-0.012	0.075
-722.850	-119.493	-0.326	0.058
-721.835	-123.011	0.049	0.008
-720.821	800.000	-0.017	-0.055
-719.806	9.968	-0.214	-0.166
-718.791	-95.513	0.222	0.061
-717.777	-30.953	0.162	-0.094
-716.762	800.000	0.057	-0.176
-715.748	-200.000	0.009	0.041
-714.733	-200.000	-0.014	0.247
-713.718	-121.499	0.183	-0.031
-712.704	-120.019	-0.256	-0.045
-711.689	-146.278	0.289	-0.026
-710.675	-129.291	-0.437	-0.062
-709.660	134.992	-0.010	0.014
-708.645	-200.000	-0.055	0.312
-707.631	-111.957	0.135	-0.028
-706.616	-73.036	0.110	-0.041
-705.602	-157.653	-0.197	-0.012
-704.587	-200.000	-0.030	0.189
-703.572	-29.517	0.114	0.067
-702.558	-200.000	-0.011	0.178
-701.543	800.000	-0.024	-0.077
-700.529	3.679	0.084	-0.063
-699.514	-41.805	0.248	0.130
-698.499	18.398	0.251	-0.205
-697.485	213.781	0.026	0.043
-696.470	-200.000	0.015	0.083
-695.456	101.225	-0.061	-0.072
-694.441	-200.000	-0.068	-0.382
-693.426	800.000	-0.049	-0.181
-692.412	-105.567	-0.206	0.048
-691.397	-23.332	0.115	-0.071
-690.383	247.818	-0.039	0.067
-689.368	99.375	-0.072	-0.085
-688.354	1.901	0.365	-0.269
-687.339	-130.005	-0.232	-0.033
-686.324	-152.464	-0.272	0.020
-685.310	-200.000	0.001	-0.031
-684.295	-25.218	0.066	0.040
-683.281	800.000	0.041	0.121
-682.266	800.000	-0.090	-0.266
-681.251	-176.393	-0.150	0.004
-680.237	753.573	-0.162	-0.448
-679.222	-35.023	0.197	-0.110
-678.208	-200.000	-0.066	0.299
-677.193	-5.781	-0.258	0.180
-676.178	278.896	0.186	-0.339
-675.164	590.714	0.116	0.293
-674.149	-47.304	-0.074	-0.037
-673.135	-72.377	0.272	-0.103
-672.120	318.696	-0.145	-0.282
-671.105	295.883	-0.088	0.165
-670.091	-191.460	-0.053	0.001
-669.076	147.271	0.188	0.258
-668.062	385.692	-0.103	-0.218
-667.047	-126.444	0.059	-0.009
-666.032	800.000	0.076	0.227
-665.018	800.000	-0.099	0.376
-664.003	-123.632	0.333	0.054
-662.989	-22.143	0.219	-0.136
-661.974	-23.720	0.156	0.096
-660.959	-200.000	0.008	-0.178
-659.945	-158.271	0.290	-0.017
-658.930	800.000	-0.003	0.008
-657.916	-149.675	0.080	0.006
-656.901	-200.000	0.001	0.181
-655.886	-200.000	-0.006	-0.152
-654.872	70.523	0.157	-0.166
-653.857	168.221	-0.164	-0.238
-652.843	24.599	0.059	0.050
-651.828	-43.500	-0.108	-0.056
-650.814	-168.702	0.249	0.010
-649.799	-82.387	0.224	0.074
-648.784	731.115	-0.119	0.325
-647.770	308.673	-0.339	0.647
-646.755	-40.334	0.307	-0.163
-645.741	-165.499	0.272	0.012
-644.726	-21.296	-0.395	-0.246
-643.711	-42.888	-0.261	-0.135
-642.697	-200.000	-0.023	0.106
-641.682	-91.869	-0.279	-0.081
-640.668	74.460	0.137	-0.147
-639.653	-200.000	0.016	-0.074
-638.638	20.288	0.209	0.172
-637.624	91.942	-0.170	-0.195
-636.609	-200.000	0.012	-0.185
-635.595	84.668	-0.202	0.226
-634.580	-200.000	-0.023	0.144
-633.565	436.853	-0.138	0.306
-632.551	169.169	-0.045	-0.065
-631.536	-200.000	-0.036	-0.434
-630.522	800.000	-0.053	0.185
-629.507	800.000	-0.041	0.157
-628.492	215.758	-0.097	-0.157
-627.478	-72.489	-0.123	0.047
-626.463	-97.617	-0.155	-0.041
-625.449	102.044	0.267	0.318
-624.434	-108.662	-0.112	-0.024
-623.419	-60.416	0.272	0.118
-622.405	165.956	0.085	0.123
-621.390	-24.305	-0.191	-0.116
-620.376	368.952	-0.039	0.081
-619.361	800.000	-0.063	0.213
-618.346	22.475	0.294	0.245
-617.332	800.000	0.070	-0.217
-616.317	-124.293	0.290	0.046
-615.303	-200.000	-0.029	0.213
-614.288	-200.000	0.048	-0.380
-613.273	-146.844	-0.070	0.006
-612.259	800.000	0.040	0.145
-611.244	-21.469	-0.080	0.050
-610.230	54.524	-0.178	0.175
-609.215	800.000	0.111	-0.354
-608.201	29.801	0.277	-0.241
-607.186	87.098	-0.156	-0.176
-606.171	-116.908	-0.282	-0.053
-605.157	467.069	-0.029	-0.067
-604.142	-172.794	-0.271	-0.009
-603.128	-106.437	-0.190	-0.043
-602.113	640.088	0.060	0.157
-601.098	-3.072	0.234	-0.166
-600.084	-200.000	0.025	-0.152
-599.069	-4.214	-0.191	-0.135
-598.055	38.717	0.095	0.086
-597.040	-106.577	-0.114	-0.026
-596.025	-41.671	0.212	-0.111
-595.011	-200.000	-0.030	-0.382
-593.996	63.132	0.139	-0.142
-592.982	-88.020	-0.234	0.072
-591.967	-143.393	0.255	0.025
-590.952	737.051	0.027	-0.072
-589.938	-83.119	0.304	-0.100
-588.923	-117.764	-0.280	-0.051
-587.909	151.560	0.145	0.201
-586.894	-200.000	-0.009	-0.235
-585.879	-200.000	-0.015	0.250
-584.865	74.430	0.164	0.176
-583.850	-168.299	0.337	-0.013
-582.836	3.301	0.270	-0.200
-581.821	800.000	-0.015	0.045
-580.806	147.702	-0.078	0.107
-579.792	177.928	0.069	0.103
-578.777	800.000	-0.074	-0.229
-577.763	-200.000	-0.011	-0.203
-576.748	4.032	0.202	0.150
-575.733	-72.298	-0.421	-0.159
-574.719	-200.000	-0.090	-0.498
-573.704	97.036	-0.104	0.121
-572.690	-97.848	-0.167	0.044
-571.675	800.000	0.083	0.344
-570.661	-14.266	-0.189	0.124
-569.646	-142.706	-0.275	-0.027
-568.631	-87.493	0.342	0.105
-567.617	709.402	0.076	0.204
-566.602	644.467	-0.089	-0.232
-565.588	-200.000	0.062	-0.300
-564.573	-110.140	-0.226	-0.048
-563.558	100.740	0.067	0.079
-562.544	-200.000	-0.020	0.135
-561.529	800.000	0.085	-0.371
-560.515	198.082	0.103	0.161
-559.500	-176.248	-0.397	-0.011
-558.485	-151.167	-0.168	0.013
-557.471	-200.000	-0.006	-0.210
-556.456	-200.000	-0.001	-0.080
-555.442	102.530	0.095	-0.113
-554.427	800.000	0.061	-0.258
-553.412	-107.344	0.130	-0.029
-552.398	-19.575	-0.042	0.026
-551.383	-12.882	0.156	0.103
-550.369	-104.450	-0.054	0.013
-549.354	198.597	0.114	-0.178
-548.339	57.822	-0.196	-0.195
-547.325	800.000	-0.102	-0.432
-546.310	-50.298	0.201	0.097
-545.296	11.723	0.113	-0.088
-544.281	800.000	-0.067	0.265
-543.266	-200.000	0.021	-0.102
-542.252	561.612	-0.040	0.098
-541.237	-165.202	0.227	0.010
-540.223	-135.997	0.112	-0.013
-539.208	-200.000	-0.058	0.406
-538.193	-18.665	-0.090	0.057
-537.179	117.140	0.115	0.144
-536.164	-200.000	-0.041	0.265
-535.150	-15.121	0.235	0.153
-534.135	-66.530	-0.030	-0.012
-533.121	800.000	-0.040	0.171
-532.106	30.429	-0.125	-0.108
-531.091	201.272	0.252	-0.394
-530.077	168.993	-0.145	0.210
-529.062	34.297	0.008	0.007
-528.048	224.839	-0.021	0.035
-527.033	-104.163	0.124	-0.029
-526.018	59.304	0.119	-0.119
-525.004	-131.161	-0.298	-0.040
-523.989	-97.728	-0.226	0.060
-522.975	-200.000	0.007	-0.124
-521.960	777.149	-0.041	0.115
-520.945	-25.301	-0.220	0.133
-519.931	193.946	0.115	-0.177
-518.916	800.000	0.111	0.414
-517.902	1.109	0.037	-0.027
-516.887	-136.843	0.190	0.022
-515.872	-200.000	-0.018	-0.266
-514.858	16.865	0.190	-0.152
-513.843	-75.791	-0.148	0.053
-512.829	-42.291	-0.333	-0.173
-511.814	127.088	-0.086	0.111
-510.799	-10.840	-0.305	0.205
-509.785	-59.707	0.166	-0.072
-508.770	-77.590	-0.135	0.048
-507.756	-42.153	-0.130	-0.068
-506.741	-129.849	-0.193	0.027
-505.726	306.435	0.117	0.220
-504.712	-47.007	0.180	-0.089
-503.697	195.113	-0.131	-0.202
-502.683	11.897	0.108	-0.084
-501.668	141.888	0.257	0.346
-500.653	134.408	0.334	-0.439
-499.639	-13.811	0.259	-0.170
-498.624	175.109	0.150	0.221
-497.610	-90.812	0.247	0.072
-496.595	-71.496	-0.276	-0.105
-495.581	-7.593	0.178	0.122
-494.566	252.297	-0.094	-0.162
-493.551	712.602	0.101	-0.272
-492.537	-65.120	0.052	0.021
-491.522	58.070	-0.107	0.106
-490.508	15.962	-0.196	-0.157
-489.493	-26.619	-0.184	-0.109
-488.478	64.083	0.074	-0.076
-487.464	-200.000	-0.006	-0.171
-486.449	-200.000	-0.037	-0.296
-485.435	40.075	-0.221	0.201
-484.420	450.357	-0.100	0.224
-483.405	155.154	0.086	-0.120
-482.391	294.052	0.185	0.343
-481.376	-117.172	0.154	-0.028
-480.362	-200.000	-0.021	-0.140
-479.347	221.574	-0.199	0.324
-478.332	414.096	0.057	0.123
-477.318	-200.000	-0.010	-0.085
-476.303	-155.900	-0.317	0.020
-475.289	-71.137	0.188	-0.072
-474.274	-56.059	-0.381	-0.172
-473.259	39.480	-0.163	0.148
-472.245	-200.000	0.000	0.006
-471.230	-121.155	-0.047	0.008
-470.216	180.096	-0.245	0.364
-469.201	-132.193	-0.194	0.025
-468.186	800.000	0.049	0.145
-467.172	334.402	-0.109	0.214
-466.157	184.346	-0.140	-0.210
-465.143	80.397	0.118	-0.129
-464.128	-126.512	-0.349	0.053
-463.113	-104.029	0.108	-0.026
-462.099	-200.000	-0.043	-0.221
-461.084	548.969	0.119	-0.289
-460.070	-200.000	0.042	-0.378
-459.055	-41.907	-0.294	-0.153
-458.040	425.485	-0.102	0.223
-457.026	800.000	0.074	-0.239
-456.011	202.256	-0.106	-0.166
-454.997	-200.000	-0.069	-0.365
-453.982	-41.508	-0.212	-0.110
-452.968	-136.877	-0.147	-0.017
-451.953	-96.933	0.333	0.088
-450.938	-111.506	0.198	0.041
-449.924	-156.773	-0.274	-0.017
-448.909	-200.000	0.006	-0.254
-447.895	-87.619	-0.127	-0.039
-446.880	-52.033	0.257	0.121
-445.865	59.566	0.126	0.126
-444.851	45.248	0.180	-0.168
-443.836	-131.485	-0.302	-0.040
-442.822	-166.798	0.134	0.006
-441.807	-89.542	-0.155	0.046
-440.792	-124.184	-0.299	0.047
-439.778	-127.338	0.218	0.032
-438.763	-200.000	-0.044	0.277
-437.749	307.955	-0.084	-0.158
-436.734	104.765	-0.190	-0.227
-435.719	-162.978	0.475	-0.023
-434.705	800.000	-0.031	-0.119
-433.690	-70.977	-0.099	0.038
-432.676	-200.000	0.002	-0.134
-431.661	126.896	-0.077	-0.099
-430.646	-113.426	0.079	-0.016
-429.632	800.000	-0.053	-0.163
-428.617	6.742	0.401	0.302
-427.603	-200.000	-0.040	0.280
-426.588	-59.177	-0.198	0.087
-425.573	150.486	-0.223	-0.307
-424.559	13.551	0.050	-0.039
-423.544	-200.000	0.012	-0.160
-422.530	-108.860	-0.156	-0.034
-421.515	-46.939	-0.154	-0.076
-420.500	-83.247	0.509	-0.166
-419.486	-109.893	0.378	-0.080
-418.471	53.965	-0.326	0.317
-417.457	-200.000	0.008	0.126
-416.442	-200.000	0.246	-0.000
-415.428	-94.707	0.101	0.028
-414.413	12.030	0.174	-0.135
-413.398	39.173	0.179	-0.162
-412.384	367.888	0.057	-0.116
-411.369	194.033	-0.163	-0.249
-410.355	-83.506	-0.299	-0.097
-409.340	99.962	-0.085	0.100
-408.325	161.686	0.177	0.251
-407.311	-55.024	-0.151	-0.069
-406.296	-87.047	-0.438	-0.135
-405.282	-22.882	0.341	-0.208
-404.267	-200.000	0.032	0.197
-403.252	-12.589	0.244	0.161
-402.238	19.621	0.068	0.056
-401.223	766.219	-0.038	-0.105
-400.209	4.615	0.228	-0.169
-399.194	305.229	-0.142	-0.267
-398.179	-200.000	-0.034	-0.326
-397.165	60.065	0.168	0.167
-396.150	64.002	0.113	-0.114
-395.136	760.307	0.165	-0.451
-394.121	-200.000	0.021	-0.198
-393.106	-69.877	0.420	-0.162
-392.092	211.128	0.146	0.232
-391.077	104.000	-0.134	0.159
-390.063	-200.000	0.006	0.253
-389.048	-111.074	0.213	-0.044
-388.033	-200.000	-0.040	-0.247
-387.019	-30.107	0.121	-0.069
-386.004	-84.758	0.650	0.207
-384.990	46.767	0.136	0.127
-383.975	-200.000	-0.015	-0.115
-382.960	-80.256	-0.261	0.088
-381.946	800.000	-0.068	-0.269
-380.931	41.194	-0.295	0.270
-379.917	0.174	-0.135	0.097
-378.902	192.765	-0.114	0.174
-377.888	72.536	-0.156	-0.164
-376.873	-200.000	0.054	-0.266
-375.858	524.914	0.053	-0.126
-374.844	-200.000	0.007	-0.231
-373.829	516.802	0.036	-0.085
-372.815	19.518	0.023	0.019
-371.800	-15.709	0.246	0.158
-370.785	124.692	0.068	0.086
-369.771	139.594	-0.062	0.082
-368.756	800.000	0.024	-0.073
-367.742	-200.000	0.043	0.415
-366.727	-47.999	-0.130	-0.064
-365.712	800.000	-0.038	0.159
-364.698	113.235	0.105	-0.129
-363.683	-78.121	0.244	0.085
-362.669	-81.599	-0.136	0.045
-361.654	5.190	0.101	0.075
-360.639	50.840	-0.052	0.049
-359.625	175.149	0.156	-0.228
-358.610	-200.000	-0.035	0.311
-357.596	156.136	0.131	0.183
-356.581	-200.000	-0.006	-0.152
-355.566	-66.328	-0.598	0.240
-354.552	-164.821	0.223	-0.010
-353.537	-200.000	0.041	0.239
-352.523	-160.558	-0.231	0.012
-351.508	-148.850	-0.180	-0.015
-350.493	-200.000	0.031	0.217
-349.479	-66.689	0.172	-0.069
-348.464	800.000	0.080	0.313
-347.450	4.807	0.185	-0.137
-346.435	-143.190	0.076	0.007
-345.420	-200.000	-0.013	0.190
-344.406	170.517	-0.122	0.176
-343.391	-200.000	-0.031	0.159
-342.377	-38.030	-0.145	0.078
-341.362	-200.000	0.016	0.220
-340.348	-49.806	0.228	0.109
-339.333	-80.263	0.113	0.038
-338.318	-90.735	-0.114	0.033
-337.304	-200.000	0.019	0.134
-336.289	800.000	-0.037	-0.141
-335.275	-108.690	0.224	0.048
-334.260	287.101	-0.046	0.084
-333.245	-200.000	-0.032	-0.281
-332.231	-200.000	0.039	-0.446
-331.216	-112.215	-0.153	0.031
-330.202	-40.483	-0.162	-0.085
-329.187	-200.000	0.034	-0.238
-328.172	800.000	-0.085	0.240
-327.158	-200.000	0.073	-0.383
-326.143	218.427	-0.061	0.097
-325.129	99.885	0.131	0.153
-324.114	331.085	-0.099	0.193
-323.099	-46.541	0.134	-0.066
-322.085	-122.921	0.218	-0.035
-321.070	80.037	0.065	0.071
-320.056	41.634	-0.200	-0.183
-319.041	-46.272	0.354	-0.176
-318.026	-20.911	0.133	0.082
-317.012	57.754	0.105	0.103
-315.997	800.000	-0.031	-0.092
-314.983	-93.801	0.169	-0.047
-313.968	10.448	0.188	-0.144
-312.953	-200.000	0.005	-0.232
-311.939	-1.914	0.384	0.272
-310.924	-200.000	0.011	-0.269
-309.910	-62.213	0.337	-0.141
-308.895	223.734	-0.227	0.368
-307.880	-120.034	0.254	-0.044
-306.866	-86.466	0.347	-0.107
-305.851	-137.252	-0.157	-0.018
-304.837	56.250	0.209	-0.205
-303.822	-32.016	0.224	-0.126
-302.807	401.464	-0.090	-0.191
-301.793	39.637	0.130	0.118
-300.778	-74.309	-0.250	-0.091
-299.764	-200.000	0.031	-0.281
-298.749	75.759	-0.172	0.183
-297.735	60.093	-0.070	0.070
-296.720	-21.573	-0.207	0.127
-295.705	230.790	-0.214	0.352
-294.691	800.000	0.104	0.329
-293.676	800.000	-0.077	-0.247
-292.662	-51.516	-0.257	-0.121
-291.647	-99.213	-0.183	-0.046
-290.632	30.771	0.238	0.205
-289.618	-41.507	-0.072	-0.037
-288.603	400.067	-0.172	-0.363
-287.589	-101.880	0.187	0.045
-286.574	-200.000	-0.048	0.257
-285.559	-22.272	0.130	0.079
-284.545	65.482	0.116	-0.118
-283.530	173.915	0.192	-0.280
-282.516	-143.468	0.525	-0.050
-281.501	-2.251	-0.171	0.121
-280.486	-14.696	0.216	-0.140
-279.472	60.481	0.163	0.163
-278.457	27.164	-0.366	0.309
-277.443	-200.000	0.048	0.386
-276.428	143.515	-0.094	-0.126
-275.413	-24.022	-0.220	-0.132
-274.399	-113.215	0.351	-0.070
-273.384	144.953	-0.098	-0.131
-272.370	-200.000	0.005	-0.282
-271.355	-101.387	0.345	0.084
-270.340	48.745	0.067	-0.063
-269.326	800.000	0.074	0.281
-268.311	-200.000	-0.002	-0.079
-267.297	-73.837	0.359	0.131
-266.282	800.000	-0.074	0.302
-265.267	88.715	-0.016	-0.018
-264.253	130.152	-0.192	-0.247
-263.238	70.150	-0.065	0.067
-262.224	389.129	0.068	-0.141
-261.209	-165.419	-0.041	-0.002
-260.195	-28.660	0.092	-0.053
-259.180	186.684	0.087	0.131
-258.165	384.252	-0.172	0.357
-257.151	-200.000	-0.031	-0.153
-256.136	-109.432	-0.141	0.030
-255.122	149.120	-0.175	-0.238
-254.107	141.269	0.170	0.226
-253.092	-111.742	-0.316	-0.064
-252.078	410.959	0.085	0.182
-251.063	-86.289	-0.220	0.068
-250.049	-200.000	0.003	0.098
-249.034	-135.602	-0.241	0.029
-248.019	-17.936	-0.114	-0.072
-247.005	-200.000	-0.030	-0.199
-245.990	411.931	-0.063	0.135
-244.976	-13.724	-0.194	0.126
-243.961	6.391	-0.237	-0.177
-242.946	-39.659	0.215	-0.113
-241.932	-200.000	-0.027	0.201
-240.917	-79.739	-0.482	0.163
-239.903	-200.000	0.031	0.224
-238.888	528.862	0.164	0.389
-237.873	11.513	-0.129	0.100
-236.859	282.890	-0.130	0.234
-235.844	131.228	0.205	-0.265
-234.830	-95.445	-0.124	-0.033
-233.815	-163.787	0.171	-0.008
-232.800	-97.704	0.210	0.055
-231.786	85.955	-0.108	0.119
-230.771	22.110	0.349	0.286
-229.757	-41.340	0.136	-0.070
-228.742	-200.000	-0.049	-0.264
-227.727	229.579	-0.062	0.102
-226.713	-200.000	-0.031	-0.163
-225.698	46.181	0.069	-0.064
-224.684	74.054	0.083	0.087
-223.669	413.330	0.094	-0.201
-222.655	-200.000	-0.014	0.190
-221.640	-74.219	0.346	0.126
-220.625	182.178	-0.183	0.271
-219.611	-13.035	-0.204	-0.134
-218.596	16.396	-0.301	-0.238
-217.582	39.854	0.112	-0.101
-216.567	60.168	0.093	-0.092
-215.552	345.149	-0.077	-0.151
-214.538	-200.000	-0.036	0.304
-213.523	-200.000	-0.046	0.254
-212.509	-69.271	0.239	0.092
-211.494	164.020	-0.057	0.080
-210.479	53.742	0.204	0.197
-209.465	-200.000	0.012	0.110
-208.450	-0.959	0.367	-0.260
-207.436	-70.530	0.138	-0.052
-206.421	182.234	0.066	0.098
-205.406	242.243	-0.114	-0.191
-204.392	161.214	-0.163	-0.228
-203.377	-51.216	0.096	-0.045
-202.363	-148.186	-0.230	0.019
-201.348	150.220	0.204	0.278
-200.333	-136.151	0.318	-0.037
-199.319	166.929	-0.138	-0.196
-198.304	149.416	-0.120	0.163
-197.290	466.850	-0.060	-0.135
-196.275	0.802	0.222	0.160
-195.260	344.869	-0.027	0.053
-194.246	10.676	-0.175	0.134
-193.231	156.715	0.247	0.343
-192.217	-137.117	-0.154	0.018
-191.202	-109.723	-0.055	0.012
-190.187	-200.000	0.007	0.257
-189.173	-200.000	-0.015	0.076
-188.158	-200.000	0.045	0.223
-187.144	-200.000	-0.014	0.210
-186.129	-98.230	0.240	0.062
-185.114	-200.000	-0.027	0.129
-184.100	55.046	-0.029	0.028
-183.085	800.000	-0.109	0.369
-182.071	-31.487	-0.384	-0.217
-181.056	-200.000	0.024	0.130
-180.042	-40.806	-0.026	0.013
-179.027	115.548	-0.270	-0.331
-178.012	-92.707	-0.303	0.085
-176.998	-167.763	-0.275	-0.011
-175.983	-128.546	-0.114	-0.016
-174.969	-152.311	-0.147	0.011
-173.954	82.227	-0.213	0.232
-172.939	10.617	-0.173	-0.132
-171.925	-11.100	-0.344	-0.227
-170.910	82.476	0.150	0.163
-169.896	800.000	0.024	0.079
-168.881	-200.000	-0.007	-0.109
-167.866	428.634	-0.093	-0.201
-166.852	39.383	-0.212	-0.190
-165.837	-166.117	0.121	0.005
-164.823	-158.935	0.148	0.008
-163.808	190.563	0.125	0.188
-162.793	-17.158	0.050	0.032
-161.779	-92.119	0.235	-0.067
-160.764	-173.232	0.255	0.008
-159.750	171.169	0.175	-0.252
-158.735	-97.891	-0.334	0.086
-157.720	800.000	0.045	0.191
-156.706	-200.000	-0.029	0.248
-155.691	51.433	-0.207	0.197
-154.677	-103.818	-0.229	-0.054
-153.662	375.776	-0.109	-0.223
-152.647	-200.000	0.032	0.219
-151.633	285.781	-0.052	-0.093
-150.618	-47.274	0.174	-0.085
-149.604	-200.000	-0.041	0.233
-148.589	-2.773	-0.099	-0.069
-147.574	-107.812	-0.259	0.056
-146.560	25.444	0.054	-0.045
-145.545	-200.000	0.005	0.084
-144.531	-17.920	-0.292	0.184
-143.516	-157.823	0.378	-0.022
-142.502	21.136	0.254	0.207
-141.487	-45.930	0.206	0.102
-140.472	-87.039	-0.288	0.088
-139.458	1.925	-0.036	-0.026
-138.443	800.000	0.049	-0.156
-137.429	62.492	-0.096	0.096
-136.414	-51.135	-0.243	-0.114
-135.399	-86.858	-0.214	-0.065
-134.385	800.000	0.077	-0.325
-133.370	-200.000	-0.009	0.227
-132.356	-40.368	0.135	0.070
-131.341	-200.000	-0.043	0.230
-130.326	536.127	0.066	0.156
-129.312	-98.326	-0.050	-0.013
-128.297	178.862	-0.027	-0.039
-127.283	-100.588	-0.399	-0.099
-126.268	-101.122	-0.236	0.058
-125.253	3.639	0.073	-0.053
-124.239	20.746	-0.089	0.072
-123.224	-40.095	-0.240	-0.125
-122.210	-200.000	-0.038	0.330
-121.195	33.445	0.233	0.203
-120.180	-200.000	-0.015	-0.201
-119.166	69.329	0.094	-0.097
-118.151	724.824	0.132	-0.351
-117.137	-121.576	-0.090	-0.015
-116.122	-92.095	0.173	0.049
-115.107	800.000	0.026	-0.088
-114.093	644.044	0.104	0.265
-113.078	130.194	0.061	0.079
-112.064	-55.872	0.193	-0.086
-111.049	467.066	0.188	0.422
-110.034	74.255	0.250	0.262
-109.020	287.273	0.092	0.166
-108.005	-95.521	-0.155	0.042
-106.991	120.117	-0.059	0.073
-105.976	-200.000	0.008	0.126
-104.962	227.762	0.193	0.315
-103.947	-200.000	0.054	0.302
-102.932	25.495	0.259	-0.215
-101.918	-151.249	0.116	-0.009
-100.903	462.998	0.168	-0.375
-99.889	674.900	0.051	0.131
-98.874	-200.000	-0.036	-0.217
-97.859	-200.000	0.016	-0.097
-96.845	617.383	0.119	-0.298
-95.830	800.000	-0.053	0.224
-94.816	37.892	-0.172	0.153
-93.801	136.566	0.197	0.257
-92.786	223.088	0.113	0.182
-91.772	-200.000	0.002	0.237
-90.757	446.114	0.027	0.058
-89.743	-137.500	0.030	0.003
-88.728	229.912	0.166	-0.271
-87.713	62.437	0.125	0.124
-86.699	20.923	-0.175	0.141
-85.684	221.794	0.022	-0.035
-84.670	-62.048	0.061	-0.026
-83.655	114.206	-0.097	-0.118
-82.640	-95.905	0.331	-0.088
-81.626	-137.820	0.072	0.008
-80.611	283.692	0.055	0.098
-79.597	320.213	0.185	-0.350
-78.582	159.106	-0.086	0.120
-77.567	-200.000	0.008	-0.065
-76.553	360.206	-0.174	0.348
-75.538	-200.000	-0.031	0.285
-74.524	-91.019	-0.238	-0.068
-73.509	-22.347	0.247	-0.149
-72.494	-200.000	-0.012	-0.165
-71.480	-72.519	-0.198	-0.073
-70.465	-26.985	-0.148	0.086
-69.451	-168.511	-0.069	0.003
-68.436	206.822	-0.106	0.164
-67.422	381.248	0.091	-0.187
-66.407	-199.389	-0.204	-0.001
-65.392	130.349	-0.274	0.350
-64.378	-20.643	0.181	-0.111
-63.363	280.866	0.119	0.213
-62.349	-71.167	0.381	0.143
-61.334	-24.753	-0.441	-0.261
-60.319	-200.000	-0.075	0.814
-59.305	98.897	-0.371	-0.427
-58.290	360.362	0.200	0.399
-57.276	411.128	0.763	1.615
-56.261	-200.000	73.930	545.481
-55.246	553.789	1316.787	3157.962
-54.232	142.647	2546.752	3374.212
-53.217	120.796	2257.258	2798.988
-52.203	54.077	1771.376	1698.929
-51.188	46.379	1562.745	1445.008
-50.173	43.330	1532.514	1395.951
-49.159	59.433	1568.293	1541.155
-48.144	66.731	1588.504	1611.775
-47.130	46.722	1551.777	1437.030
-46.115	42.820	1537.011	1396.292
-45.100	42.681	1533.812	1392.368
-44.086	42.582	1531.889	1389.879
-43.071	42.522	1529.583	1387.315
-42.057	42.524	1527.925	1385.777
-41.042	42.509	1526.200	1384.053
-40.027	42.532	1525.151	1383.205
-39.013	42.465	1523.733	1381.403
-37.998	42.472	1522.669	1380.427
-36.984	42.462	1521.257	1379.028
-35.969	42.522	1519.846	1378.101
-34.954	42.613	1518.447	1377.403
-33.940	42.563	1517.149	1375.828
-32.925	42.592	1515.383	1374.371
-31.911	42.480	1514.528	1372.778
-30.896	42.608	1512.867	1372.087
-29.881	42.627	1511.271	1370.717
-28.867	42.573	1510.329	1369.441
-27.852	42.586	1508.751	1368.044
-26.838	42.622	1507.190	1366.821
-25.823	42.646	1505.706	1365.586
-24.809	42.505	1504.117	1363.132
-23.794	42.434	1502.604	1361.222
-22.779	42.515	1501.124	1360.376
-21.765	42.491	1500.454	1359.553
-20.750	42.601	1498.713	1358.669
-19.736	42.494	1498.309	1357.525
-18.721	42.547	1496.640	1356.313
-17.706	42.525	1495.234	1354.842
-16.692	42.447	1494.406	1353.511
-15.677	42.453	1493.534	1352.705
-14.663	42.548	1491.596	1351.537
-13.648	42.492	1491.323	1350.858
-12.633	42.508	1490.270	1349.956
-11.619	42.476	1489.753	1349.223
-10.604	42.437	1488.694	1347.949
-9.590	42.442	1487.694	1347.024
-8.575	42.487	1486.871	1346.526
-7.560	42.584	1486.015	1346.347
-6.546	42.545	1485.125	1345.222
-5.531	42.424	1484.552	1343.841
-4.517	42.497	1483.225	1343.078
-3.502	42.486	1482.596	1342.376
-2.487	42.512	1481.356	1341.377
-1.473	42.420	1480.404	1339.848
-0.458	42.569	1478.550	1339.113
0.556	41.071	1470.145	1332.128
1.571	39.022	1443.266	1294.172
2.586	35.184	1379.848	1212.957
3.600	32.512	1294.687	1122.093
4.615	29.967	1245.919	1065.112
5.629	25.714	1187.958	992.092
6.644	15.593	1097.764	864.861
7.659	6.976	1051.217	785.475
8.673	5.553	1044.389	773.276
9.688	5.336	1041.433	769.951
10.702	5.200	1039.970	768.134
11.717	5.102	1038.806	766.727
12.731	8.560	1042.610	786.496
13.746	16.939	1054.513	836.919
14.761	20.661	1058.210	858.175
15.775	18.417	1054.352	843.929
16.790	17.046	1050.849	834.317
17.804	15.723	1049.099	826.356
18.819	14.844	1046.911	820.245
19.834	14.309	1045.587	816.513
20.848	13.962	1044.798	814.125
21.863	13.818	1043.651	812.454
22.877	13.590	1042.870	810.661
23.892	13.307	1042.236	808.709
24.907	13.180	1041.690	807.597
25.921	13.381	1040.709	807.745
26.936	13.316	1040.310	807.045
27.950	13.357	1038.851	806.042
28.965	13.289	1038.000	804.981
29.980	13.539	1036.209	804.733
30.994	13.515	1035.246	803.797
32.009	13.603	1034.055	803.228
33.023	13.533	1033.733	802.572
34.038	13.589	1032.898	802.120
35.053	13.474	1031.479	800.392
36.067	13.543	1030.510	799.902
37.082	13.445	1029.469	798.551
38.096	13.408	1029.252	798.135
39.111	13.488	1028.581	797.930
40.126	13.515	1027.664	797.276
41.140	13.517	1026.193	796.073
42.155	13.322	1025.281	794.359
43.169	13.242	1024.414	793.235
44.184	13.247	1023.279	792.308
45.199	13.345	1021.814	791.573
46.213	13.268	1021.036	790.535
47.228	13.254	1020.709	790.144
48.242	13.446	1019.217	789.834
49.257	13.448	1018.418	789.153
50.271	13.360	1017.397	787.874
51.286	13.430	1016.453	787.406
52.301	13.443	1015.603	786.740
53.315	13.419	1015.374	786.379
54.330	13.296	1014.568	785.100
55.344	13.396	1013.234	784.475
56.359	13.323	1012.433	783.438
57.374	13.294	1011.528	782.530
58.388	13.142	1010.694	781.097
59.403	13.205	1009.635	780.511
60.417	13.221	1009.121	780.120
61.432	13.163	1008.785	779.515
62.447	13.182	1007.419	778.483
63.461	13.100	1006.712	777.481
64.476	13.157	1005.192	776.504
65.490	13.103	1005.208	776.193
66.505	13.194	1004.334	775.877
67.520	13.137	1003.617	774.986
68.534	13.241	1002.154	774.276
69.549	13.159	1002.257	773.905
70.563	13.232	1001.132	773.311
71.578	13.199	1000.657	772.718
72.593	13.229	999.270	771.718
73.607	13.026	998.872	770.396
74.622	13.062	997.961	769.793
75.636	13.116	996.946	769.193
76.651	12.978	995.808	767.606
77.666	13.066	995.175	767.458
78.680	13.083	994.670	767.080
79.695	13.192	993.802	766.849
80.709	13.183	993.687	766.651
81.724	13.196	992.627	765.824
82.739	13.157	991.850	764.977
83.753	13.305	990.939	764.892
84.768	13.442	990.194	764.883
85.782	13.504	989.770	764.772
86.797	13.485	989.508	764.416
87.812	13.640	988.051	763.939
88.826	13.419	987.548	762.463
89.841	13.368	986.527	761.373
90.855	13.459	985.625	761.027
91.870	13.522	984.869	760.666
92.884	13.554	984.102	760.152
93.899	13.536	983.721	759.711
94.914	13.593	982.668	759.087
95.928	13.591	982.224	758.670
96.943	13.656	981.408	758.272
97.957	13.560	980.757	757.262
98.972	13.501	979.582	756.020
99.987	13.559	978.991	755.758
101.001	13.525	978.227	754.948
102.016	13.447	977.597	754.039
103.030	13.498	976.399	753.282
104.045	13.628	975.052	752.767
105.060	13.601	974.252	751.957
106.074	13.481	973.491	750.758
107.089	13.391	972.595	749.596
108.103	13.312	971.741	748.514
109.118	13.163	971.137	747.306
110.133	13.281	969.917	746.836
111.147	13.240	969.384	746.174
112.162	13.375	968.085	745.715
113.176	13.315	967.523	744.947
114.191	13.274	966.907	744.221
115.206	13.440	965.771	744.029
116.220	13.359	965.320	743.253
117.235	13.342	964.209	742.256
118.249	13.262	963.464	741.256
119.264	13.369	962.252	740.739
120.279	13.312	961.691	739.986
121.293	13.302	961.205	739.500
122.308	13.220	960.505	738.532
123.322	13.298	959.200	737.811
124.337	13.108	958.527	736.380
125.352	13.222	956.888	735.562
126.366	13.128	956.149	734.512
127.381	13.189	954.932	733.784
128.395	13.166	953.968	732.874
129.410	13.239	952.895	732.309
130.424	13.351	951.955	732.017
131.439	13.379	951.089	731.412
132.454	13.431	950.399	731.043
133.468	13.428	950.097	730.737
134.483	13.470	949.320	730.257
135.497	13.547	948.449	729.862
136.512	13.479	948.015	729.166
137.527	13.428	947.033	728.119
138.541	13.421	946.322	727.479
139.556	13.392	945.345	726.535
140.570	13.498	944.611	726.373
141.585	13.543	943.946	725.993
142.600	13.570	943.682	725.845
143.614	13.701	942.762	725.645
144.629	13.642	941.832	724.610
145.643	13.669	941.134	724.124
146.658	13.695	939.867	723.201
147.673	13.562	939.284	722.108
148.687	13.518	938.668	721.380
149.702	13.480	937.951	720.600
150.716	13.549	936.771	719.928
151.731	13.454	935.994	718.856
152.746	13.372	935.501	718.055
153.760	13.438	934.524	717.528
154.775	13.397	934.210	717.048
155.789	13.431	933.641	716.694
156.804	13.506	932.611	716.163
157.819	13.500	931.639	715.331
158.833	13.584	931.379	715.430
159.848	13.644	930.722	715.120
160.862	13.780	929.739	714.888
161.877	13.590	929.410	713.754
162.892	13.484	928.592	712.604
163.906	13.512	927.581	711.884
164.921	13.415	926.657	710.699
165.935	13.638	925.406	710.631
166.950	13.479	924.443	709.150
167.964	13.537	923.615	708.699
168.979	13.579	922.507	707.964
169.994	13.492	921.793	706.985
171.008	13.547	921.248	706.739
172.023	13.542	920.450	706.040
173.037	13.734	919.354	705.955
174.052	13.835	918.359	705.560
175.067	13.695	917.991	704.617
176.081	13.433	917.459	703.036
177.096	13.557	916.367	702.661
178.110	13.612	915.759	702.366
179.125	13.489	914.901	701.127
180.140	13.696	914.084	701.315
181.154	13.594	913.436	700.324
182.169	13.751	912.687	700.349
183.183	13.760	912.406	700.109
184.198	13.703	911.552	699.152
185.213	13.890	910.938	699.407
186.227	13.817	910.450	698.663
187.242	13.853	910.013	698.418
188.256	13.862	909.615	698.088
189.271	14.002	908.560	697.803
190.286	14.029	907.795	697.268
191.300	13.784	907.103	695.649
192.315	13.614	906.425	694.353
193.329	13.613	905.439	693.535
194.344	13.525	905.252	692.961
195.359	13.681	904.467	692.949
196.373	13.684	903.769	692.366
197.388	13.774	903.763	692.678
198.402	13.814	903.214	692.363
199.417	13.845	903.159	692.389
200.432	14.044	902.113	692.352
201.446	14.062	901.609	691.982
202.461	14.233	901.046	692.197
203.475	14.121	900.686	691.397
204.490	14.103	900.293	690.957
205.504	14.062	899.200	689.888
206.519	14.064	898.329	689.167
207.534	14.054	897.516	688.439
208.548	13.948	897.041	687.575
209.563	13.999	896.376	687.219
210.577	14.030	895.994	686.990
211.592	14.126	894.929	686.509
212.607	14.184	894.764	686.560
213.621	14.267	894.200	686.410
214.636	14.310	893.177	685.742
215.650	14.156	892.735	684.708
216.665	14.126	892.410	684.276
217.680	14.330	891.352	684.240
218.694	14.376	891.017	684.111
219.709	14.430	890.355	683.766
220.723	14.301	889.860	682.795
221.738	14.387	889.182	682.569
222.753	14.356	888.622	681.948
223.767	14.288	888.015	681.147
224.782	14.337	886.949	680.467
225.796	14.444	886.515	680.511
226.811	14.589	885.727	680.437
227.826	14.422	884.979	679.121
228.840	14.408	884.525	678.658
229.855	14.279	883.926	677.612
230.869	14.380	883.117	677.342
231.884	14.355	882.262	676.525
232.899	14.360	881.766	676.107
233.913	14.412	880.912	675.601
234.928	14.498	879.937	675.144
235.942	14.264	879.861	674.076
236.957	14.278	878.800	673.261
237.972	14.205	878.771	672.885
238.986	14.349	877.673	672.567
240.001	14.386	877.274	672.351
241.015	14.393	876.451	671.688
242.030	14.355	875.842	671.008
243.045	14.526	875.077	671.053
244.059	14.510	874.603	670.565
245.074	14.597	873.591	670.077
246.088	14.428	873.359	669.163
247.103	14.437	873.014	668.875
248.117	14.626	872.195	668.944
249.132	14.688	871.548	668.639
250.147	14.706	871.079	668.293
251.161	14.812	870.367	668.112
252.176	14.877	869.797	667.875
253.190	14.745	869.045	666.711
254.205	14.888	868.570	666.858
255.220	14.947	868.155	666.716
256.234	15.038	867.490	666.507
257.249	14.887	867.041	665.504
258.263	14.990	866.353	665.324
259.278	14.957	865.594	664.551
260.293	15.073	864.645	664.227
261.307	14.940	864.217	663.312
262.322	15.051	863.912	663.458
263.336	15.059	863.372	663.017
264.351	15.179	862.538	662.791
265.366	15.135	861.980	662.130
266.380	15.250	861.379	662.062
267.395	15.310	860.706	661.723
268.409	15.082	860.147	660.336
269.424	15.042	859.397	659.547
270.439	15.105	858.700	659.200
271.453	15.332	857.589	659.183
272.468	15.248	857.047	658.375
273.482	15.135	856.240	657.254
274.497	15.106	856.234	657.078
275.512	15.110	855.269	656.296
276.526	15.080	854.694	655.679
277.541	15.214	853.458	655.197
278.555	15.150	853.228	654.710
279.570	15.173	853.049	654.605
280.585	15.235	852.335	654.244
281.599	15.495	851.536	654.585
282.614	15.221	851.231	653.224
283.628	15.259	850.497	652.752
284.643	15.302	849.693	652.245
285.657	15.317	849.710	652.258
286.672	15.301	849.377	651.883
287.687	15.287	848.181	650.851
288.701	15.388	847.939	651.001
289.716	15.385	847.311	650.450
290.730	15.493	846.577	650.246
291.745	15.320	846.308	649.315
292.760	15.430	845.137	648.781
293.774	15.610	844.582	648.993
294.789	15.524	844.564	648.592
295.803	15.473	844.002	647.904
296.818	15.551	843.300	647.610
297.833	15.585	842.433	647.016
298.847	15.515	841.614	646.060
299.862	15.494	841.248	645.643
300.876	15.447	840.529	644.854
301.891	15.630	839.684	644.852
302.906	15.700	839.277	644.749
303.920	15.731	838.629	644.315
304.935	15.769	837.816	643.778
305.949	15.812	837.258	643.455
306.964	15.794	837.037	643.159
307.979	15.636	836.789	642.307
308.993	15.610	836.058	641.591
310.008	15.740	835.537	641.630
311.022	15.763	834.397	640.788
312.037	15.717	834.360	640.525
313.052	15.740	833.714	640.059
314.066	15.530	833.350	638.927
315.081	15.526	832.366	638.102
316.095	15.683	831.828	638.225
317.110	15.601	831.197	637.377
318.125	15.640	830.745	637.121
319.139	15.693	830.301	636.923
320.154	15.677	829.975	636.558
321.168	15.718	829.319	636.154
322.183	15.832	828.317	635.760
323.197	15.747	828.075	635.194
324.212	15.788	827.623	634.946
325.227	15.756	827.105	634.374
326.241	15.734	826.441	633.725
327.256	15.794	825.953	633.518
328.270	15.856	825.515	633.363
329.285	15.865	824.444	632.516
330.300	15.775	824.129	631.882
331.314	15.755	823.722	631.440
332.329	15.916	823.199	631.586
333.343	15.907	822.526	630.979
334.358	15.936	822.109	630.711
335.373	15.972	821.527	630.345
336.387	15.963	821.041	629.882
337.402	16.044	820.673	629.846
338.416	15.944	820.147	629.014
339.431	16.092	819.696	629.166
340.446	16.181	818.541	628.554
341.460	16.195	818.035	628.164
342.475	16.222	817.705	627.953
343.489	16.336	817.176	627.915
344.504	16.369	816.714	627.627
345.519	16.321	816.061	626.892
346.533	16.290	815.855	626.566
347.548	16.383	815.370	626.481
348.562	16.460	814.410	625.972
349.577	16.207	814.189	624.811
350.592	16.235	813.487	624.321
351.606	16.224	812.631	623.569
352.621	16.265	812.025	623.198
353.635	16.083	812.472	622.814
354.650	16.295	811.677	622.934
355.665	16.252	811.202	622.356
356.679	16.306	810.806	622.196
357.694	16.458	810.349	622.350
358.708	16.448	809.913	621.923
359.723	16.362	809.433	621.181
360.738	16.398	808.634	620.647
361.752	16.372	808.484	620.379
362.767	16.372	808.020	619.971
363.781	16.407	807.658	619.766
364.796	16.449	807.312	619.599
365.810	16.591	806.415	619.376
366.825	16.642	806.481	619.559
367.840	16.584	805.999	618.921
368.854	16.683	805.508	618.853
369.869	16.617	805.169	618.296
370.883	16.567	804.190	617.307
371.898	16.600	804.037	617.255
372.913	16.666	803.491	617.021
373.927	16.706	803.095	616.809
374.942	16.621	802.308	615.839
375.956	16.607	801.881	615.407
376.971	16.900	800.714	615.522
377.986	16.902	800.153	615.040
379.000	16.860	799.962	614.687
380.015	16.741	799.843	614.113
381.029	16.898	798.772	613.803
382.044	16.724	798.714	613.075
383.059	16.817	798.111	612.892
384.073	16.951	797.426	612.798
385.088	16.938	796.810	612.224
386.102	16.788	796.317	611.248
387.117	16.746	795.841	610.678
388.132	16.718	795.552	610.301
389.146	16.819	794.752	609.997
390.161	16.771	794.683	609.716
391.175	16.894	793.982	609.567
392.190	16.940	793.577	609.370
393.205	16.987	793.542	609.457
394.219	16.997	792.782	608.856
395.234	16.952	792.258	608.235
396.248	16.935	791.881	607.833
397.263	16.686	791.641	606.701
398.278	16.695	791.002	606.192
399.292	16.767	790.524	606.027
400.307	16.747	790.335	605.759
401.321	16.875	789.866	605.802
402.336	16.920	789.430	605.574
403.350	16.848	789.035	604.961
404.365	16.931	788.609	604.880
405.380	16.941	787.870	604.292
406.394	17.028	787.779	604.481
407.409	17.178	787.202	604.516
408.423	17.193	787.140	604.470
409.438	17.160	786.670	603.939
410.453	17.239	785.916	603.584
411.467	17.399	785.570	603.834
412.482	17.239	785.284	602.996
413.496	17.495	784.318	603.107
414.511	17.338	784.306	602.489
415.526	17.412	784.039	602.490
416.540	17.336	783.640	601.862
417.555	17.350	782.995	601.363
418.569	17.308	782.800	601.013
419.584	17.330	782.115	600.511
420.599	17.522	781.711	600.824
421.613	85.502	1248.509	1326.121
422.628	72.296	1316.563	1326.243
