DTS Sentinel unit serial number:	SN413079Multiplexer serial number:	ORYXHardware model number:	OX4-SRSoftware version number:	ORYX F/W v4.00 Oryx Data Collector v3.7.2.0data status	okinstallation	princeton_trtdifferential loss correction	single-endedforward channel	channel 3reverse channel	N/Adate	2019/09/13time	00:00:35forward acquisition time	60.00reverse acquisition time	0.00gamma	496.2192k internal	0.2330k external	0.2330temperature offset calibration	1.0128default loss term (dB/km)	0.3790temperature slope calibration	1.0000multiplexer offset coefficient	1.0000multiplexer slope coefficient	1.0000fibre end	0.00T internal ref (°C)	28.67T ext. ref 1 (°C)	3.79T ext. ref 2 (°C)	23.40length (m)	temperature (°C)	Stokes	anti-Stokes-747.200	-194.353	0.239	-0.002
-746.185	299.119	-0.041	-0.075
-745.171	800.000	0.064	-0.182
-744.156	-91.679	-0.244	0.070
-743.142	-200.000	0.045	0.278
-742.127	-200.000	0.043	0.248
-741.112	-200.000	0.015	-0.321
-740.098	-177.266	-0.389	0.010
-739.083	271.556	0.020	0.035
-738.069	-2.028	-0.314	0.222
-737.054	-109.710	0.249	-0.053
-736.039	-107.457	-0.076	0.017
-735.025	39.755	0.210	0.190
-734.010	-200.000	-0.006	-0.088
-732.996	-200.000	-0.012	-0.173
-731.981	98.583	0.060	0.069
-730.966	196.941	0.086	0.133
-729.952	-32.625	-0.189	-0.106
-728.937	-97.196	-0.384	0.101
-727.923	104.188	0.059	0.069
-726.908	-94.868	-0.331	-0.090
-725.894	-129.794	-0.066	-0.009
-724.879	-200.000	-0.006	0.094
-723.864	479.350	-0.062	-0.142
-722.850	-200.000	-0.008	-0.370
-721.835	-200.000	-0.000	-0.208
-720.821	258.042	0.265	-0.460
-719.806	-89.460	0.313	-0.093
-718.791	-67.380	-0.261	0.103
-717.777	800.000	-0.104	-0.392
-716.762	-139.838	0.032	0.003
-715.748	39.904	-0.317	-0.286
-714.733	-32.955	-0.387	0.216
-713.718	266.749	-0.160	0.281
-712.704	4.455	-0.220	-0.163
-711.689	-100.806	-0.341	-0.084
-710.675	-200.000	0.040	0.295
-709.660	-28.194	0.295	-0.172
-708.645	512.121	-0.121	-0.282
-707.631	713.827	0.115	0.308
-706.616	800.000	0.048	-0.160
-705.602	-61.479	0.197	0.083
-704.587	-82.303	-0.146	0.048
-703.572	800.000	0.055	-0.230
-702.558	0.230	0.092	-0.066
-701.543	800.000	0.060	0.239
-700.529	317.017	-0.040	0.076
-699.514	-200.000	0.004	-0.185
-698.499	800.000	0.059	-0.186
-697.485	-154.388	-0.509	-0.034
-696.470	-200.000	-0.043	-0.210
-695.456	-200.000	0.040	-0.362
-694.441	-66.024	-0.069	0.028
-693.426	-190.736	-0.423	-0.005
-692.412	-74.592	-0.222	0.080
-691.397	12.887	0.089	0.069
-690.383	-200.000	-0.015	-0.342
-689.368	-25.634	-0.074	-0.044
-688.354	800.000	-0.035	-0.099
-687.339	-200.000	0.009	-0.062
-686.324	-107.589	-0.383	-0.084
-685.310	146.371	0.150	-0.202
-684.295	-146.168	-0.233	-0.021
-683.281	-200.000	0.090	-0.462
-682.266	-200.000	0.051	-0.360
-681.251	-200.000	-0.033	-0.150
-680.237	108.900	-0.072	0.086
-679.222	-101.797	-0.148	-0.036
-678.208	-200.000	-0.057	0.330
-677.193	-200.000	-0.022	0.228
-676.178	800.000	0.052	-0.187
-675.164	93.476	0.084	-0.096
-674.149	33.162	-0.227	-0.198
-673.135	-200.000	-0.292	-0.000
-672.120	-200.000	-0.201	0.000
-671.105	34.208	-0.145	0.127
-670.091	800.000	0.072	0.311
-669.076	12.234	0.084	0.065
-668.062	13.301	-0.220	0.171
-667.047	287.010	-0.125	0.227
-666.032	48.569	-0.320	-0.301
-665.018	800.000	-0.090	-0.262
-664.003	95.244	0.197	-0.225
-662.989	-127.307	-0.296	-0.043
-661.974	-123.714	-0.282	0.045
-660.959	-39.096	0.288	-0.152
-659.945	-72.170	0.240	0.089
-658.930	800.000	0.063	-0.250
-657.916	241.764	0.082	0.138
-656.901	20.188	-0.181	0.147
-655.886	-64.694	0.190	0.077
-654.872	-105.453	-0.329	-0.075
-653.857	-200.000	-0.017	0.289
-652.843	-200.000	-0.051	-0.359
-651.828	-162.027	-0.208	0.011
-650.814	265.313	-0.092	0.160
-649.799	1.997	-0.135	0.098
-648.784	225.873	0.154	0.250
-647.770	-12.861	0.286	0.187
-646.755	-141.544	0.156	0.016
-645.741	-150.527	-0.235	0.018
-644.726	684.283	-0.036	-0.094
-643.711	531.506	0.119	-0.281
-642.697	-187.383	-0.467	0.006
-641.682	489.143	0.147	-0.337
-640.668	-200.000	0.025	0.138
-639.653	-123.492	0.235	0.038
-638.638	800.000	0.028	-0.098
-637.624	144.583	0.131	-0.176
-636.609	16.486	-0.202	-0.160
-635.595	-23.366	-0.230	-0.139
-634.580	-200.000	-0.030	-0.157
-633.565	28.223	-0.107	-0.091
-632.551	-200.000	0.021	0.358
-631.536	-66.434	-0.061	-0.024
-630.522	-200.000	0.012	-0.225
-629.507	-113.414	-0.136	-0.027
-628.492	92.518	0.152	0.172
-627.478	129.311	-0.239	-0.306
-626.463	-63.729	0.057	-0.024
-625.449	-200.000	-0.001	0.126
-624.434	-12.230	-0.329	0.216
-623.419	13.165	-0.087	-0.068
-622.405	282.934	0.056	-0.101
-621.390	-179.674	-0.156	0.003
-620.376	-39.809	0.249	-0.130
-619.361	-88.856	-0.151	0.045
-618.346	-200.000	-0.048	0.282
-617.332	486.252	-0.100	-0.228
-616.317	11.384	-0.203	0.156
-615.303	71.163	-0.202	-0.210
-614.288	-93.285	0.154	0.043
-613.273	-106.514	-0.380	0.085
-612.259	-7.768	-0.015	-0.010
-611.244	4.624	0.103	-0.075
-610.230	-64.323	-0.282	0.115
-609.215	270.733	-0.132	-0.233
-608.201	174.027	0.077	0.112
-607.186	343.373	-0.173	-0.339
-606.171	535.314	0.047	0.112
-605.157	-200.000	-0.027	-0.382
-604.142	-55.714	0.072	-0.032
-603.128	-200.000	0.036	-0.197
-602.113	130.254	-0.098	-0.125
-601.098	-133.364	-0.152	-0.019
-600.084	-55.419	0.328	-0.147
-599.069	-87.158	-0.218	0.066
-598.055	-200.000	-0.052	-0.330
-597.040	-200.000	0.019	0.143
-596.025	351.191	-0.080	-0.159
-595.011	163.750	0.045	-0.063
-593.996	-142.120	0.202	-0.020
-592.982	-136.615	-0.195	0.023
-591.967	800.000	-0.079	0.320
-590.952	18.612	-0.214	-0.171
-589.938	-62.780	0.233	0.097
-588.923	-200.000	0.014	-0.116
-587.909	20.175	0.077	-0.062
-586.894	-14.072	-0.051	-0.033
-585.879	-200.000	-0.001	-0.114
-584.865	223.936	-0.116	0.187
-583.850	352.289	-0.062	-0.124
-582.836	319.632	-0.207	0.393
-581.821	-19.510	0.381	-0.236
-580.806	27.731	0.169	-0.142
-579.792	-200.000	0.069	0.448
-578.777	49.167	-0.079	-0.074
-577.763	94.972	0.181	-0.207
-576.748	-200.000	0.009	0.168
-575.733	-200.000	0.012	0.091
-574.719	95.821	0.109	0.125
-573.704	138.326	0.103	-0.135
-572.690	-8.616	-0.364	-0.245
-571.675	114.913	-0.096	0.117
-570.661	-170.707	0.138	-0.005
-569.646	-200.000	-0.096	-0.489
-568.631	197.791	0.142	0.217
-567.617	76.916	-0.144	0.153
-566.602	98.196	0.052	-0.060
-565.588	800.000	0.061	-0.241
-564.573	-174.060	-0.126	0.004
-563.558	-22.415	-0.149	-0.090
-562.544	162.812	-0.330	0.463
-561.529	207.003	-0.123	0.192
-560.515	-200.000	-0.051	0.300
-559.500	74.029	0.063	-0.066
-558.485	329.169	0.050	-0.096
-557.471	254.731	0.169	0.289
-556.456	-84.705	-0.150	-0.047
-555.442	-31.737	-0.057	-0.032
-554.427	697.644	-0.009	-0.023
-553.412	-119.383	-0.246	-0.043
-552.398	243.664	-0.118	-0.197
-551.383	-200.000	0.025	0.287
-550.369	-200.000	-0.012	0.132
-549.354	96.488	0.178	-0.204
-548.339	485.799	-0.109	-0.249
-547.325	-36.990	-0.375	-0.201
-546.310	-200.000	-0.030	-0.194
-545.296	800.000	0.020	-0.068
-544.281	-13.645	0.149	0.096
-543.266	12.047	0.090	0.069
-542.252	800.000	0.073	-0.244
-541.237	-105.788	0.276	-0.062
-540.223	-77.867	-0.211	-0.073
-539.208	-200.000	0.024	0.253
-538.193	-160.408	-0.119	0.006
-537.179	483.316	-0.071	0.161
-536.164	633.367	0.027	-0.068
-535.150	-29.982	-0.200	-0.114
-534.135	16.244	0.207	0.163
-533.121	-200.000	-0.039	-0.203
-532.106	-3.904	0.093	0.065
-531.091	-200.000	-0.028	0.156
-530.077	139.930	0.170	0.224
-529.062	800.000	-0.080	0.290
-528.048	-127.872	0.174	0.025
-527.033	91.685	0.261	0.293
-526.018	8.381	-0.243	0.182
-525.004	-200.000	-0.049	0.224
-523.989	-132.763	-0.112	-0.014
-522.975	-193.669	-0.130	-0.001
-521.960	800.000	-0.033	0.126
-520.945	303.764	0.032	-0.059
-519.931	446.732	0.058	-0.126
-518.916	18.362	0.059	0.047
-517.902	-69.470	-0.060	-0.023
-516.887	800.000	-0.043	-0.172
-515.872	-200.000	0.004	-0.140
-514.858	-200.000	-0.019	-0.131
-513.843	-131.743	-0.218	-0.028
-512.829	595.379	-0.071	-0.176
-511.814	95.745	-0.160	0.182
-510.799	196.551	0.072	-0.110
-509.785	391.055	0.033	-0.068
-508.770	-56.988	-0.113	-0.050
-507.756	173.919	-0.046	-0.066
-506.741	26.576	0.145	0.121
-505.726	60.496	-0.184	0.182
-504.712	-41.221	0.138	-0.071
-503.697	204.739	-0.202	-0.312
-502.683	-200.000	-0.050	-0.372
-501.668	91.311	0.028	-0.032
-500.653	-200.000	-0.036	-0.392
-499.639	-144.479	0.268	-0.025
-498.624	-151.646	-0.261	-0.019
-497.610	800.000	0.061	-0.171
-496.595	-193.674	0.009	0.000
-495.581	-12.433	0.133	-0.087
-494.566	-133.411	0.098	-0.012
-493.551	66.258	0.103	0.104
-492.537	-200.000	0.055	0.332
-491.522	-200.000	0.003	0.217
-490.508	493.260	0.058	0.133
-489.493	-200.000	-0.059	-0.498
-488.478	665.314	-0.094	-0.243
-487.464	-132.462	-0.479	-0.062
-486.449	-2.250	0.125	0.087
-485.435	286.384	0.201	-0.361
-484.420	191.216	0.141	-0.211
-483.405	-14.379	-0.304	-0.195
-482.391	800.000	-0.159	-0.442
-481.376	-51.936	0.101	-0.047
-480.362	192.583	0.104	0.156
-479.347	-200.000	0.046	-0.216
-478.332	-12.541	0.247	0.161
-477.318	122.173	-0.135	0.168
-476.303	-2.494	-0.123	-0.086
-475.289	-114.198	0.210	0.040
-474.274	-200.000	-0.009	-0.123
-473.259	-200.000	0.027	-0.288
-472.245	-200.000	0.003	0.039
-471.230	-88.357	-0.154	0.046
-470.216	-44.972	-0.215	-0.107
-469.201	-55.326	0.187	-0.084
-468.186	471.062	-0.050	-0.112
-467.172	-22.505	0.243	-0.147
-466.157	-200.000	-0.002	-0.240
-465.143	570.711	-0.051	-0.124
-464.128	185.320	0.196	0.289
-463.113	-35.144	0.245	0.133
-462.099	-200.000	0.003	0.225
-461.084	-200.000	-0.011	-0.192
-460.070	54.547	0.027	-0.026
-459.055	-86.757	-0.325	0.099
-458.040	-127.881	0.265	0.038
-457.026	111.283	-0.225	-0.271
-456.011	228.662	0.142	0.231
-454.997	52.764	-0.123	0.117
-453.982	-3.118	0.218	-0.151
-452.968	89.783	-0.279	0.310
-451.953	-121.867	0.065	0.011
-450.938	181.718	0.166	0.243
-449.924	325.712	0.107	-0.205
-448.909	800.000	0.067	-0.235
-447.895	242.455	-0.061	-0.101
-446.880	-180.123	-0.339	-0.007
-445.865	-86.461	0.124	-0.038
-444.851	-99.735	0.271	0.068
-443.836	-47.839	-0.233	-0.112
-442.822	-200.000	0.012	0.181
-441.807	687.205	0.019	0.050
-440.792	165.502	0.051	0.072
-439.778	79.078	-0.206	-0.219
-438.763	450.900	-0.087	-0.192
-437.749	-200.000	-0.007	0.130
-436.734	800.000	-0.045	-0.139
-435.719	-200.000	0.007	-0.055
-434.705	125.210	0.126	0.159
-433.690	-200.000	0.013	-0.107
-432.676	-200.000	0.038	-0.169
-431.661	325.693	-0.046	-0.088
-430.646	-53.727	-0.093	-0.042
-429.632	525.781	-0.011	0.025
-428.617	800.000	0.080	0.289
-427.603	-200.000	-0.003	0.012
-426.588	800.000	0.024	-0.080
-425.573	-200.000	0.007	-0.094
-424.559	800.000	0.013	0.038
-423.544	-24.958	-0.424	0.250
-422.530	800.000	-0.109	-0.367
-421.515	800.000	0.071	-0.226
-420.500	-136.202	-0.090	0.011
-419.486	82.927	-0.192	-0.208
-418.471	-28.498	-0.072	-0.041
-417.457	-4.711	-0.130	-0.089
-416.442	-73.058	0.087	0.032
-415.428	269.967	-0.096	0.167
-414.413	338.907	0.120	0.231
-413.398	50.950	-0.064	-0.060
-412.384	-145.729	0.234	0.021
-411.369	-35.001	-0.186	0.101
-410.355	50.204	0.187	0.175
-409.340	-19.470	-0.022	0.014
-408.325	800.000	0.068	0.266
-407.311	131.742	-0.099	0.126
-406.296	-116.286	0.210	0.039
-405.282	-17.006	0.108	0.068
-404.267	159.869	-0.111	-0.154
-403.252	800.000	0.040	0.115
-402.238	-23.959	0.315	0.187
-401.223	125.566	-0.141	0.177
-400.209	297.899	-0.172	0.314
-399.194	-32.164	-0.147	-0.082
-398.179	800.000	0.037	-0.133
-397.165	-21.916	0.285	-0.172
-396.150	-164.737	-0.179	-0.008
-395.136	190.426	-0.143	0.213
-394.121	-168.429	0.078	0.003
-393.106	17.033	0.154	-0.121
-392.092	-165.928	-0.059	0.003
-391.077	-33.676	-0.052	-0.029
-390.063	-200.000	-0.037	0.266
-389.048	42.981	-0.020	-0.018
-388.033	-200.000	-0.011	0.225
-387.019	-101.227	0.121	0.029
-386.004	-200.000	-0.024	0.377
-384.990	-47.560	-0.064	0.031
-383.975	564.753	0.120	-0.289
-382.960	-200.000	-0.054	0.253
-381.946	800.000	0.014	0.047
-380.931	-14.647	0.276	0.176
-379.917	-200.000	-0.015	-0.244
-378.902	-94.613	0.121	-0.033
-377.888	-52.547	0.015	0.007
-376.873	31.912	0.175	0.150
-375.858	131.058	0.189	-0.240
-374.844	-200.000	-0.087	0.392
-373.829	229.557	-0.048	0.078
-372.815	147.774	0.281	0.376
-371.800	746.859	0.086	0.229
-370.785	89.508	-0.268	0.297
-369.771	-161.493	-0.415	-0.021
-368.756	-200.000	0.036	-0.239
-367.742	800.000	0.048	0.152
-366.727	104.812	0.195	-0.229
-365.712	125.258	-0.128	0.160
-364.698	717.003	-0.100	-0.264
-363.683	-66.401	0.270	0.107
-362.669	800.000	-0.087	0.255
-361.654	800.000	-0.042	-0.164
-360.639	694.884	0.055	-0.144
-359.625	-82.887	0.247	0.079
-358.610	131.710	0.270	0.345
-357.596	800.000	-0.075	0.323
-356.581	-51.888	0.217	0.100
-355.566	171.110	-0.120	-0.170
-354.552	800.000	-0.045	0.191
-353.537	68.157	0.085	0.086
-352.523	-8.434	-0.136	0.091
-351.508	20.037	0.249	0.199
-350.493	-149.198	-0.223	-0.018
-349.479	-200.000	0.050	-0.331
-348.464	412.302	0.083	-0.176
-347.450	-156.099	0.253	0.016
-346.435	-154.055	-0.241	-0.016
-345.420	206.118	-0.058	-0.090
-344.406	267.710	-0.123	-0.213
-343.391	462.792	0.085	-0.187
-342.377	21.635	0.053	-0.043
-341.362	-200.000	0.026	-0.251
-340.348	70.936	0.142	0.146
-339.333	-30.722	0.092	0.052
-338.318	-81.992	-0.140	0.045
-337.304	-182.818	0.431	0.008
-336.289	-23.330	-0.086	0.051
-335.275	-101.872	-0.190	0.046
-334.260	256.123	-0.305	0.519
-333.245	800.000	0.065	-0.205
-332.231	-93.964	-0.321	0.087
-331.216	-132.907	0.101	-0.013
-330.202	-99.367	-0.232	-0.058
-329.187	121.081	0.065	0.081
-328.172	-65.400	-0.125	0.050
-327.158	-143.038	-0.087	0.008
-326.143	-76.417	0.130	0.045
-325.129	503.412	0.123	0.282
-324.114	-200.000	0.053	-0.296
-323.099	-19.472	-0.079	-0.049
-322.085	225.745	-0.143	-0.230
-321.070	800.000	0.057	-0.235
-320.056	197.355	0.106	-0.160
-319.041	-98.079	-0.103	0.026
-318.026	-56.671	-0.104	-0.046
-317.012	269.678	0.290	0.504
-315.997	-52.307	0.293	-0.134
-314.983	50.337	0.128	0.119
-313.968	-69.048	0.353	0.135
-312.953	800.000	0.125	0.472
-311.939	12.874	-0.234	0.179
-310.924	800.000	-0.072	0.211
-309.910	305.124	0.136	-0.250
-308.895	220.711	0.044	-0.070
-307.880	-133.461	-0.120	-0.015
-306.866	38.368	0.269	0.237
-305.851	-1.190	-0.114	0.080
-304.837	390.732	0.139	0.286
-303.822	23.399	-0.297	0.242
-302.807	-81.414	0.157	0.051
-301.793	-147.488	-0.049	0.004
-300.778	800.000	0.098	0.345
-299.764	-77.749	-0.689	0.236
-298.749	175.801	0.109	0.157
-297.735	-200.000	-0.046	-0.201
-296.720	-124.273	0.101	-0.016
-295.705	-30.469	0.103	0.058
-294.691	-146.631	0.235	-0.020
-293.676	800.000	-0.067	-0.214
-292.662	32.052	-0.044	-0.038
-291.647	56.436	-0.163	-0.156
-290.632	-200.000	0.038	-0.267
-289.618	-63.582	0.414	0.168
-288.603	99.207	0.025	-0.028
-287.589	-97.940	0.234	-0.060
-286.574	-17.670	0.057	-0.035
-285.559	-200.000	0.019	0.351
-284.545	-61.311	-0.371	0.155
-283.530	-51.490	0.220	-0.102
-282.516	-100.630	0.259	-0.063
-281.501	146.684	0.154	-0.205
-280.486	372.501	0.027	0.055
-279.472	-200.000	-0.030	-0.206
-278.457	800.000	-0.087	-0.262
-277.443	800.000	-0.059	-0.191
-276.428	11.500	-0.154	0.117
-275.413	342.750	0.085	0.165
-274.399	-200.000	-0.007	-0.135
-273.384	73.512	-0.228	-0.236
-272.370	44.337	0.191	-0.173
-271.355	518.198	0.144	-0.333
-270.340	-200.000	0.000	0.186
-269.326	28.890	0.056	-0.047
-268.311	-29.307	-0.031	0.018
-267.297	351.170	0.108	0.212
-266.282	-50.065	0.120	0.056
-265.267	800.000	0.014	-0.052
-264.253	6.154	-0.078	-0.057
-263.238	-200.000	0.035	-0.298
-262.224	-40.532	0.212	-0.109
-261.209	-180.818	-0.403	0.008
-260.195	-200.000	0.018	0.154
-259.180	-200.000	-0.018	0.134
-258.165	143.038	-0.130	0.171
-257.151	74.903	0.109	-0.113
-256.136	-145.293	-0.207	0.019
-255.122	542.382	-0.101	0.239
-254.107	-200.000	0.024	-0.392
-253.092	-52.739	-0.189	-0.086
-252.078	-118.358	0.252	-0.044
-251.063	-200.000	-0.016	0.268
-250.049	-200.000	-0.021	0.156
-249.034	-200.000	0.035	-0.191
-248.019	84.771	-0.265	0.286
-247.005	13.628	0.315	0.241
-245.990	-200.000	0.014	0.123
-244.976	574.892	0.147	0.355
-243.961	-200.000	0.048	0.615
-242.946	800.000	-0.023	0.072
-241.932	23.574	-0.266	-0.216
-240.917	-146.873	0.202	0.017
-239.903	718.266	0.103	-0.270
-238.888	69.040	0.017	-0.018
-237.873	-95.232	-0.362	0.096
-236.859	-135.795	0.190	-0.022
-235.844	-103.585	0.339	0.079
-234.830	-200.000	0.020	0.117
-233.815	-200.000	-0.023	-0.180
-232.800	291.185	0.072	-0.129
-231.786	4.747	0.152	0.110
-230.771	266.222	-0.071	0.122
-229.757	-62.771	-0.077	0.031
-228.742	-200.000	-0.022	0.222
-227.727	28.493	-0.059	-0.049
-226.713	-200.000	0.000	-0.314
-225.698	-30.922	0.217	0.121
-224.684	100.564	0.055	-0.063
-223.669	5.676	-0.153	-0.112
-222.655	-23.102	-0.150	0.089
-221.640	-77.420	0.078	0.027
-220.625	38.808	0.125	-0.110
-219.611	35.362	0.086	0.075
-218.596	333.178	-0.097	-0.185
-217.582	-200.000	0.016	-0.150
-216.567	-200.000	-0.072	-0.366
-215.552	206.027	-0.091	-0.140
-214.538	-200.000	0.017	-0.241
-213.523	-57.821	0.364	-0.157
-212.509	203.814	0.071	0.108
-211.494	-161.828	0.275	0.014
-210.479	-192.272	-0.245	-0.002
-209.465	56.864	0.242	-0.232
-208.450	-177.376	0.412	-0.010
-207.436	800.000	-0.044	0.134
-206.421	75.498	-0.196	-0.204
-205.406	-200.000	0.004	0.085
-204.392	800.000	0.102	0.426
-203.377	-173.496	-0.124	0.004
-202.363	-33.184	-0.128	-0.070
-201.348	51.117	0.135	-0.126
-200.333	384.929	-0.074	0.150
-199.319	65.717	-0.239	0.238
-198.304	-104.863	-0.223	0.050
-197.290	-200.000	-0.082	0.000
-196.275	-200.000	0.037	0.185
-195.260	-61.976	0.090	0.037
-194.246	-29.574	0.088	-0.050
-193.231	193.143	0.084	0.126
-192.217	98.835	0.094	0.106
-191.202	52.200	0.289	-0.272
-190.187	741.181	-0.042	-0.112
-189.173	-79.575	-0.289	0.096
-188.158	-200.000	-0.005	-0.075
-187.144	-200.000	0.041	0.181
-186.129	800.000	-0.068	-0.216
-185.114	-143.300	-0.270	0.025
-184.100	-106.855	0.232	0.051
-183.085	31.285	0.010	-0.008
-182.071	577.449	-0.050	-0.120
-181.056	-73.567	0.223	0.080
-180.042	800.000	0.067	-0.221
-179.027	-200.000	0.040	-0.403
-178.012	143.685	0.055	0.073
-176.998	-200.000	-0.069	-0.370
-175.983	-143.473	-0.348	-0.033
-174.969	615.094	-0.104	0.257
-173.954	183.319	-0.089	-0.129
-172.939	-200.000	-0.009	0.188
-171.925	-75.709	-0.111	0.039
-170.910	772.362	-0.089	0.239
-169.896	172.875	-0.156	0.221
-168.881	-28.268	-0.194	-0.110
-167.866	84.409	-0.180	-0.194
-166.852	-61.708	-0.146	-0.060
-165.837	-148.150	0.228	-0.019
-164.823	-139.592	0.148	0.016
-163.808	-146.887	0.395	0.033
-162.793	-200.000	-0.080	0.446
-161.779	130.566	0.076	0.096
-160.764	266.576	-0.083	-0.144
-159.750	171.939	0.151	0.213
-158.735	-62.149	0.253	-0.104
-157.720	-64.133	-0.142	0.057
-156.706	-18.114	0.160	0.099
-155.691	-126.417	0.066	-0.010
-154.677	-23.826	0.102	-0.060
-153.662	-97.021	0.378	0.097
-152.647	800.000	-0.010	-0.040
-151.633	-200.000	0.000	0.017
-150.618	35.054	-0.324	0.279
-149.604	-200.000	0.046	-0.200
-148.589	-125.184	0.371	-0.056
-147.574	-151.252	0.114	-0.008
-146.560	74.673	-0.250	0.259
-145.545	-51.602	-0.096	0.044
-144.531	5.971	-0.064	-0.047
-143.516	-54.823	-0.143	-0.064
-142.502	800.000	0.040	-0.118
-141.487	92.076	0.160	0.177
-140.472	-53.383	-0.088	-0.040
-139.458	-68.105	-0.232	0.089
-138.443	-200.000	-0.088	0.505
-137.429	-200.000	-0.029	0.209
-136.414	-139.437	-0.135	-0.014
-135.399	9.065	0.206	-0.153
-134.385	-200.000	0.011	0.071
-133.370	525.246	0.082	-0.190
-132.356	71.134	-0.254	-0.259
-131.341	-84.018	-0.405	-0.127
-130.326	-3.460	0.244	0.167
-129.312	-87.376	-0.110	-0.033
-128.297	-55.869	-0.110	-0.048
-127.283	142.052	-0.144	-0.188
-126.268	-200.000	0.003	0.087
-125.253	-200.000	-0.062	-0.392
-124.239	-13.897	0.338	0.215
-123.224	474.603	0.098	-0.217
-122.210	287.680	0.033	-0.058
-121.195	-84.171	-0.191	-0.060
-120.180	-166.022	-0.300	0.013
-119.166	-90.542	-0.258	-0.073
-118.151	673.845	-0.123	0.314
-117.137	18.436	0.127	-0.100
-116.122	221.776	-0.106	-0.168
-115.107	-163.223	0.149	0.007
-114.093	-86.129	0.117	0.035
-113.078	-42.748	-0.236	-0.118
-112.064	-37.806	-0.102	-0.053
-111.049	-188.466	-0.235	-0.003
-110.034	104.929	0.132	-0.153
-109.020	41.830	-0.088	-0.078
-108.005	364.156	0.209	-0.412
-106.991	-106.484	0.452	-0.099
-105.976	-41.031	0.179	-0.091
-104.962	-51.359	0.304	0.140
-103.947	153.663	0.062	0.084
-102.932	-92.880	-0.308	-0.085
-101.918	-103.835	-0.221	-0.051
-100.903	-200.000	-0.006	0.097
-99.889	31.722	-0.057	0.048
-98.874	-200.000	-0.032	0.433
-97.859	180.434	-0.050	0.072
-96.845	-134.605	-0.584	0.070
-95.830	42.555	-0.121	0.108
-94.816	56.932	-0.229	-0.219
-93.801	456.436	-0.088	-0.192
-92.786	-59.247	-0.180	0.076
-91.772	-46.287	0.107	-0.052
-90.757	669.127	-0.038	0.098
-89.743	416.128	-0.084	-0.177
-88.728	39.097	-0.111	0.098
-87.713	-112.908	-0.265	0.052
-86.699	14.863	0.419	-0.322
-85.684	800.000	0.062	-0.241
-84.670	-100.596	-0.109	-0.026
-83.655	-12.728	-0.201	0.129
-82.640	43.837	0.331	-0.298
-81.626	308.787	0.030	0.054
-80.611	-61.151	-0.141	0.059
-79.597	26.973	0.267	0.220
-78.582	800.000	-0.038	0.152
-77.567	155.643	0.132	0.179
-76.553	800.000	0.050	-0.201
-75.538	64.618	-0.080	-0.079
-74.524	-200.000	0.044	-0.375
-73.509	800.000	0.188	0.543
-72.494	-200.000	-0.020	0.112
-71.480	-126.597	0.417	0.061
-70.465	-30.837	-0.164	-0.091
-69.451	162.300	0.058	0.080
-68.436	-200.000	0.024	-0.117
-67.422	409.963	-0.082	-0.170
-66.407	-3.067	-0.252	-0.173
-65.392	-24.384	-0.156	0.091
-64.378	452.180	0.106	-0.230
-63.363	102.677	-0.227	0.261
-62.349	-5.666	0.283	0.190
-61.334	68.873	-1.076	-1.083
-60.319	48.674	0.355	0.326
-59.305	800.000	-0.278	-0.996
-58.290	730.198	0.389	1.018
-57.276	478.280	0.728	1.616
-56.261	-200.000	111.674	628.226
-55.246	517.528	1520.593	3486.869
-54.232	177.063	2694.070	3843.243
-53.217	110.438	2173.163	2559.901
-52.203	39.122	1702.548	1492.473
-51.188	31.957	1520.659	1284.154
-50.173	29.481	1495.701	1246.331
-49.159	50.884	1553.550	1442.551
-48.144	50.766	1569.505	1456.498
-47.130	31.885	1524.805	1286.957
-46.115	28.924	1510.011	1254.257
-45.100	28.795	1506.578	1250.479
-44.086	28.722	1504.396	1248.122
-43.071	28.682	1502.431	1246.170
-42.057	28.665	1500.847	1244.692
-41.042	28.647	1499.638	1243.514
-40.027	28.616	1497.898	1241.816
-39.013	28.608	1496.521	1240.567
-37.998	28.559	1495.344	1239.216
-36.984	28.505	1494.825	1238.372
-35.969	28.603	1493.108	1237.561
-34.954	28.613	1491.741	1236.447
-33.940	28.679	1490.179	1235.547
-32.925	28.651	1488.670	1234.056
-31.911	28.649	1487.549	1233.063
-30.896	28.724	1486.588	1232.725
-29.881	28.696	1485.163	1231.303
-28.867	28.678	1483.950	1230.130
-27.852	28.777	1482.411	1229.465
-26.838	28.796	1480.494	1227.958
-25.823	28.712	1479.648	1226.642
-24.809	28.797	1477.853	1225.676
-23.794	28.733	1476.561	1224.130
-22.779	28.781	1475.246	1223.310
-21.765	28.758	1474.419	1222.419
-20.750	28.745	1473.599	1221.607
-19.736	28.706	1472.358	1220.271
-18.721	28.731	1471.241	1219.460
-17.706	28.652	1470.393	1218.187
-16.692	28.656	1468.972	1216.985
-15.677	28.737	1467.659	1216.386
-14.663	28.674	1467.436	1215.734
-13.648	28.612	1466.379	1214.400
-12.633	28.741	1465.015	1214.076
-11.619	28.747	1464.307	1213.481
-10.604	28.576	1464.087	1212.122
-9.590	28.606	1462.447	1210.913
-8.575	28.607	1462.164	1210.636
-7.560	28.681	1460.306	1209.538
-6.546	28.681	1459.829	1209.095
-5.531	28.606	1459.062	1207.920
-4.517	28.637	1458.360	1207.493
-3.502	28.677	1457.134	1206.696
-2.487	28.713	1455.911	1205.873
-1.473	28.631	1454.731	1204.307
-0.458	28.681	1452.909	1203.082
0.556	30.209	1443.368	1191.649
1.571	27.067	1418.864	1151.433
2.586	23.542	1360.352	1082.382
3.600	21.700	1278.324	1006.454
4.615	20.316	1231.606	961.925
5.629	17.890	1175.174	904.924
6.644	10.533	1093.019	805.184
7.659	4.844	1054.073	749.123
8.673	3.991	1049.293	741.576
9.688	3.811	1045.514	737.980
10.702	3.651	1043.624	735.819
11.717	3.697	1041.578	734.529
12.731	6.359	1044.428	749.152
13.746	14.225	1055.070	794.401
14.761	21.093	1063.830	833.867
15.775	23.114	1065.758	844.966
16.790	22.744	1064.363	842.020
17.804	21.873	1062.718	836.494
18.819	21.152	1061.159	831.757
19.834	20.932	1060.157	829.853
20.848	20.908	1059.366	829.045
21.863	20.861	1059.638	828.962
22.877	20.814	1058.820	828.023
23.892	20.724	1057.824	826.747
24.907	20.687	1056.593	825.533
25.921	20.482	1056.190	824.172
26.936	20.462	1055.364	823.360
27.950	20.537	1053.594	822.263
28.965	20.419	1052.899	821.091
29.980	20.469	1051.709	820.326
30.994	20.599	1051.101	820.393
32.009	20.786	1050.313	820.586
33.023	20.864	1049.723	820.421
34.038	20.730	1049.151	819.267
35.053	20.695	1048.170	818.264
36.067	20.652	1046.992	817.070
37.082	20.571	1045.641	815.566
38.096	20.420	1045.221	814.458
39.111	20.575	1044.715	814.719
40.126	20.749	1043.756	814.714
41.140	20.755	1042.166	813.427
42.155	20.299	1040.972	810.293
43.169	19.922	1040.189	807.852
44.184	19.931	1038.578	806.575
45.199	19.993	1037.728	806.129
46.213	20.043	1036.768	805.544
47.228	20.062	1036.421	805.295
48.242	20.548	1035.290	806.598
49.257	20.665	1035.404	807.160
50.271	20.583	1034.112	805.700
51.286	20.623	1033.368	805.233
52.301	20.702	1032.893	805.157
53.315	20.696	1032.229	804.542
54.330	20.731	1030.602	803.365
55.344	20.413	1029.938	801.308
56.359	20.344	1028.686	799.946
57.374	20.336	1027.789	799.140
58.388	20.134	1027.659	798.041
59.403	20.080	1026.881	797.115
60.417	19.932	1025.628	795.394
61.432	19.835	1025.092	794.460
62.447	20.006	1024.027	794.352
63.461	19.973	1023.241	793.517
64.476	19.690	1022.206	791.350
65.490	19.675	1021.318	790.522
66.505	19.747	1020.644	790.264
67.520	19.695	1020.090	789.525
68.534	19.830	1019.500	789.614
69.549	19.876	1018.341	788.855
70.563	19.786	1017.436	787.676
71.578	19.662	1016.632	786.419
72.593	19.487	1015.745	784.870
73.607	19.264	1014.922	783.148
74.622	19.358	1013.262	782.228
75.636	19.464	1012.694	782.199
76.651	19.463	1012.043	781.624
77.666	19.479	1011.172	780.953
78.680	19.585	1010.748	781.035
79.695	19.559	1010.352	780.542
80.709	19.582	1009.964	780.278
81.724	19.644	1009.639	780.240
82.739	19.868	1008.513	780.311
83.753	19.933	1007.888	780.048
84.768	20.262	1006.979	780.759
85.782	20.765	1006.616	782.670
86.797	21.217	1006.041	784.184
87.812	21.131	1005.432	783.252
88.826	20.734	1004.907	780.992
89.841	20.703	1003.877	779.987
90.855	20.833	1003.414	780.137
91.870	20.906	1002.710	779.848
92.884	21.030	1001.712	779.560
93.899	20.987	1001.123	778.839
94.914	20.924	1000.255	777.813
95.928	20.878	999.603	777.033
96.943	20.989	998.409	776.532
97.957	20.868	997.376	775.119
98.972	20.732	996.606	773.850
99.987	20.730	996.350	773.571
101.001	20.777	995.544	773.086
102.016	20.715	994.851	772.207
103.030	20.669	993.508	770.889
104.045	20.661	992.607	770.089
105.060	20.849	991.679	770.129
106.074	20.742	990.868	768.961
107.089	20.474	989.873	766.936
108.103	20.141	988.716	764.504
109.118	19.976	987.507	762.777
110.133	19.821	986.151	760.977
111.147	19.728	985.561	760.048
112.162	19.607	984.608	758.713
113.176	19.638	983.956	758.279
114.191	19.868	982.846	758.367
115.206	20.252	981.744	759.130
116.220	19.984	981.745	757.888
117.235	19.959	980.831	757.009
118.249	19.758	980.233	755.600
119.264	19.816	979.167	754.968
120.279	19.638	978.169	753.352
121.293	19.664	977.402	752.811
122.308	19.464	976.445	751.135
123.322	19.360	976.159	750.397
124.337	19.321	974.621	748.977
125.352	19.296	973.298	747.786
126.366	19.346	972.215	747.106
127.381	19.189	971.405	745.737
128.395	19.325	970.671	745.697
129.410	19.369	969.862	745.200
130.424	19.540	968.792	745.048
131.439	19.496	968.365	744.464
132.454	19.766	967.580	744.956
133.468	19.919	966.774	744.930
134.483	19.967	966.246	744.663
135.497	20.000	965.409	744.095
136.512	20.064	964.657	743.725
137.527	19.963	964.184	742.858
138.541	20.100	962.968	742.444
139.556	19.966	962.985	741.819
140.570	20.100	961.912	741.499
141.585	20.162	961.694	741.529
142.600	20.455	961.386	742.480
143.614	20.642	960.553	742.570
144.629	20.787	959.788	742.531
145.643	20.946	959.366	742.816
146.658	20.816	958.292	741.364
147.673	20.521	957.012	739.057
148.687	20.277	955.786	737.009
149.702	20.227	954.701	735.891
150.716	19.951	954.186	734.260
151.731	20.047	952.543	733.336
152.746	20.100	952.217	733.246
153.760	20.174	951.305	732.791
154.775	20.054	951.109	732.070
155.789	20.295	950.297	732.398
156.804	20.324	949.545	731.873
157.819	20.384	948.567	731.308
158.833	20.521	947.741	731.185
159.848	20.588	947.736	731.397
160.862	20.771	946.829	731.399
161.877	20.781	946.110	730.824
162.892	20.201	945.050	727.508
163.906	20.034	943.477	725.532
164.921	19.957	942.479	724.379
165.935	19.908	941.506	723.363
166.950	19.857	941.143	722.805
167.964	20.160	939.988	723.118
168.979	20.293	938.869	722.749
169.994	20.177	937.715	721.314
171.008	19.864	937.283	719.616
172.023	20.100	936.497	719.930
173.037	20.425	936.066	720.884
174.052	20.659	935.342	721.232
175.067	20.610	934.414	720.251
176.081	20.254	933.039	717.654
177.096	19.894	932.435	715.639
178.110	19.822	931.242	714.362
179.125	19.852	930.772	714.062
180.140	19.850	930.009	713.405
181.154	20.031	929.661	713.821
182.169	20.194	929.590	714.374
183.183	20.426	929.055	714.853
184.198	20.552	928.016	714.510
185.213	20.540	927.330	713.868
186.227	20.556	926.822	713.480
187.242	20.683	926.727	713.863
188.256	20.620	926.132	713.085
189.271	20.979	925.093	713.694
190.286	20.954	924.546	713.107
191.300	20.719	923.147	711.004
192.315	20.130	922.047	707.689
193.329	19.856	920.761	705.523
194.344	19.824	920.751	705.323
195.359	19.914	920.290	705.274
196.373	20.061	920.030	705.612
197.388	20.167	919.610	705.656
198.402	20.426	919.214	706.342
199.417	20.712	918.958	707.247
200.432	20.960	918.813	708.082
201.446	20.914	918.928	707.921
202.461	21.269	918.215	708.746
203.475	21.355	917.847	708.751
204.490	21.080	917.080	706.982
205.504	20.912	915.392	704.939
206.519	20.586	914.473	702.850
207.534	20.570	913.803	702.207
208.548	20.450	913.007	701.049
209.563	20.568	912.089	700.757
210.577	20.658	911.637	700.712
211.592	20.429	911.902	699.932
212.607	20.910	910.967	701.085
213.621	21.144	910.666	701.733
214.636	20.899	909.756	699.986
215.650	20.877	909.295	699.481
216.665	20.857	908.702	698.882
217.680	20.936	908.576	699.040
218.694	21.034	908.221	699.101
219.709	21.227	907.338	699.132
220.723	21.075	906.846	698.082
221.738	20.899	906.480	697.035
222.753	20.834	905.419	695.897
223.767	20.816	904.500	695.057
224.782	20.860	904.355	695.061
225.796	21.181	903.263	695.436
226.811	21.233	902.623	695.090
227.826	21.163	902.044	694.306
228.840	20.822	901.231	692.262
229.855	20.783	900.272	691.311
230.869	20.760	900.064	690.997
231.884	20.708	899.022	689.932
232.899	20.655	898.442	689.215
233.913	20.582	897.453	688.106
234.928	20.447	896.855	687.054
235.942	20.473	896.116	686.527
236.957	20.289	895.389	685.185
237.972	20.447	894.480	685.052
238.986	20.278	894.244	684.142
240.001	20.382	893.414	683.858
241.015	20.387	892.501	683.119
242.030	20.555	892.189	683.479
243.045	20.603	891.761	683.278
244.059	20.722	891.687	683.630
245.074	20.717	890.537	682.668
246.088	20.753	890.134	682.439
247.103	20.892	889.979	682.804
248.117	21.110	889.179	682.984
249.132	21.385	889.144	683.973
250.147	21.604	888.827	684.524
251.161	21.855	888.749	685.384
252.176	22.059	888.305	685.779
253.190	22.037	887.770	685.218
254.205	22.126	887.022	684.930
255.220	22.155	886.381	684.487
256.234	22.147	885.284	683.547
257.249	22.158	884.653	683.043
258.263	21.926	884.405	681.890
259.278	21.910	883.678	681.207
260.293	21.956	882.953	680.764
261.307	21.953	882.322	680.207
262.322	22.002	882.064	680.136
263.336	22.188	881.551	680.404
264.351	22.199	881.080	680.021
265.366	22.177	880.760	679.629
266.380	22.101	879.765	678.505
267.395	22.020	879.146	677.656
268.409	22.094	878.388	677.299
269.424	21.936	877.266	675.764
270.439	21.770	876.939	674.814
271.453	21.787	876.340	674.361
272.468	21.626	875.391	672.951
273.482	21.572	874.562	672.047
274.497	21.684	873.908	671.913
275.512	21.589	873.100	670.870
276.526	21.459	872.987	670.226
277.541	21.735	872.125	670.561
278.555	21.674	871.605	669.868
279.570	21.893	871.581	670.626
280.585	22.263	871.032	671.559
281.599	22.157	870.670	670.815
282.614	22.014	869.398	669.229
283.628	21.834	868.327	667.660
284.643	21.677	867.705	666.527
285.657	21.687	867.733	666.527
286.672	21.810	866.880	666.283
287.687	21.787	866.589	665.909
288.701	21.815	866.312	665.744
289.716	21.845	865.715	665.343
290.730	21.950	864.642	664.858
291.745	21.798	864.457	664.081
292.760	21.885	863.699	663.769
293.774	22.070	863.141	663.979
294.789	22.273	862.990	664.569
295.803	22.332	862.106	664.056
296.818	22.095	861.269	662.457
297.833	21.869	860.407	660.885
298.847	21.740	860.301	660.258
299.862	21.713	859.315	659.341
300.876	21.806	858.550	659.045
301.891	21.961	858.409	659.461
302.906	22.354	857.728	660.355
303.920	22.372	857.479	660.171
304.935	22.489	857.044	660.218
305.949	22.606	856.644	660.290
306.964	22.650	855.654	659.634
307.979	22.218	854.871	657.355
308.993	22.131	854.338	656.563
310.008	22.356	853.771	656.910
311.022	22.430	853.591	656.987
312.037	22.461	852.777	656.421
313.052	22.227	851.629	654.606
314.066	21.770	851.196	652.515
315.081	21.567	849.914	650.719
316.095	21.661	849.824	650.943
317.110	21.752	849.556	651.017
318.125	21.707	848.648	650.098
319.139	21.537	848.766	649.500
320.154	21.496	847.863	648.600
321.168	21.681	847.282	648.781
322.183	21.676	847.028	648.513
323.197	21.921	846.394	648.876
324.212	21.907	845.687	648.226
325.227	21.918	845.487	648.056
326.241	21.875	844.927	647.408
327.256	21.826	844.000	646.460
328.270	21.717	843.918	645.941
329.285	21.697	842.911	645.037
330.300	21.670	842.461	644.536
331.314	21.585	841.717	643.599
332.329	21.841	841.182	644.071
333.343	22.022	840.490	644.148
334.358	22.225	839.961	644.433
335.373	22.285	839.716	644.408
336.387	22.332	839.125	644.069
337.402	22.332	839.000	643.914
338.416	22.427	838.053	643.477
339.431	22.662	837.967	644.215
340.446	22.792	837.660	644.395
341.460	22.824	837.049	643.985
342.475	22.952	836.600	644.051
343.489	22.980	836.459	643.985
344.504	23.075	835.500	643.537
345.519	23.070	835.205	643.234
346.533	23.105	835.127	643.245
347.548	23.180	834.067	642.644
348.562	22.867	833.350	640.899
349.577	22.656	832.649	639.539
350.592	22.515	831.659	638.211
351.606	22.301	831.197	637.023
352.621	22.195	830.745	636.238
353.635	22.162	830.507	635.879
354.650	22.418	829.782	636.194
355.665	22.423	829.441	635.892
356.679	22.203	829.584	635.154
357.694	22.668	828.843	636.208
358.708	22.705	827.920	635.575
359.723	22.584	827.462	634.730
360.738	22.457	827.372	634.150
361.752	22.489	826.417	633.475
362.767	22.533	826.099	633.336
363.781	22.664	826.486	634.045
364.796	22.886	826.060	634.460
365.810	23.192	825.536	635.101
366.825	23.280	825.432	635.280
367.840	23.328	825.015	635.074
368.854	23.253	824.441	634.307
369.869	23.060	823.884	633.132
370.883	22.961	823.055	632.086
371.898	22.859	822.446	631.199
372.913	23.165	821.968	631.867
373.927	23.309	820.995	631.576
374.942	23.162	820.426	630.558
375.956	23.097	819.786	629.781
376.971	23.184	819.354	629.702
377.986	23.390	818.924	630.050
379.000	23.500	818.730	630.234
380.015	23.406	818.539	629.699
381.029	23.498	817.385	629.081
382.044	23.369	816.630	627.987
383.059	23.289	816.336	627.420
384.073	23.650	815.428	627.945
385.088	23.342	815.222	626.642
386.102	23.095	814.352	625.046
387.117	22.782	813.788	623.452
388.132	22.621	813.156	622.343
389.146	22.743	812.449	622.177
390.161	22.860	812.088	622.260
391.175	23.034	812.166	622.877
392.190	23.362	812.102	623.927
393.205	23.206	811.437	622.812
394.219	22.867	810.758	621.044
395.234	22.893	809.763	620.320
396.248	22.705	809.383	619.311
397.263	22.676	808.811	618.720
398.278	22.594	808.143	617.865
399.292	22.579	807.541	617.297
400.307	22.500	807.362	616.830
401.321	22.625	806.837	616.812
402.336	22.645	806.365	616.466
403.350	22.696	806.005	616.314
404.365	22.910	805.856	616.893
405.380	23.145	805.681	617.524
406.394	23.438	805.721	618.524
407.409	23.596	805.075	618.524
408.423	23.740	804.640	618.638
409.438	23.723	804.402	618.339
410.453	23.776	803.932	618.106
411.467	23.756	803.601	617.730
412.482	23.827	802.999	617.459
413.496	23.739	802.532	616.737
414.511	24.069	802.280	617.636
415.526	23.975	802.193	617.187
416.540	23.847	801.391	616.072
417.555	23.620	800.971	614.908
418.569	23.743	800.294	614.759
419.584	23.847	799.446	614.416
420.599	23.748	799.551	614.100
421.613	163.205	1371.355	1796.730
422.628	141.744	1454.636	1796.816
