DTS Sentinel unit serial number:	SN413079Multiplexer serial number:	ORYXHardware model number:	OX4-SRSoftware version number:	ORYX F/W v4.00 Oryx Data Collector v3.7.2.0data status	okinstallation	princeton_trtdifferential loss correction	single-endedforward channel	channel 3reverse channel	N/Adate	2019/09/13time	03:44:34forward acquisition time	60.00reverse acquisition time	0.00gamma	496.2192k internal	0.2335k external	0.2335temperature offset calibration	1.0138default loss term (dB/km)	0.3790temperature slope calibration	1.0000multiplexer offset coefficient	1.0000multiplexer slope coefficient	1.0000fibre end	0.00T internal ref (°C)	27.19T ext. ref 1 (°C)	4.08T ext. ref 2 (°C)	21.50length (m)	temperature (°C)	Stokes	anti-Stokes-747.200	-140.482	0.275	0.029
-746.185	472.645	-0.065	-0.147
-745.171	52.638	0.186	0.179
-744.156	-96.646	-0.567	0.150
-743.142	95.952	-0.068	0.078
-742.127	-200.000	-0.019	0.117
-741.112	800.000	0.044	-0.163
-740.098	-123.315	-0.351	0.056
-739.083	114.287	0.214	0.262
-738.069	38.571	0.131	0.117
-737.054	117.279	0.074	0.091
-736.039	-86.615	-0.511	-0.157
-735.025	-129.940	0.220	0.030
-734.010	19.034	-0.269	-0.217
-732.996	-200.000	-0.046	-0.354
-731.981	268.938	0.091	0.160
-730.966	-165.117	0.169	0.008
-729.952	-44.668	-0.206	-0.103
-728.937	-200.000	-0.025	0.157
-727.923	-200.000	-0.090	0.510
-726.908	192.065	0.096	-0.146
-725.894	-73.761	-0.281	0.103
-724.879	-98.148	-0.095	0.024
-723.864	-200.000	0.013	0.351
-722.850	800.000	0.014	0.042
-721.835	-55.694	-0.329	0.148
-720.821	-25.470	-0.183	-0.108
-719.806	-149.247	0.261	0.021
-718.791	80.450	-0.142	-0.154
-717.777	-72.871	-0.065	-0.024
-716.762	33.248	0.113	-0.098
-715.748	-147.808	0.161	-0.013
-714.733	-42.026	-0.452	-0.232
-713.718	-94.131	-0.375	-0.103
-712.704	800.000	0.065	-0.282
-711.689	800.000	-0.036	-0.113
-710.675	-42.374	-0.152	-0.078
-709.660	224.510	0.064	-0.104
-708.645	17.507	0.143	0.114
-707.631	140.935	0.060	0.080
-706.616	-51.762	0.055	-0.026
-705.602	800.000	0.070	0.230
-704.587	536.502	0.083	0.196
-703.572	-58.517	0.160	-0.070
-702.558	158.438	-0.153	-0.214
-701.543	66.168	-0.298	0.303
-700.529	800.000	-0.056	0.161
-699.514	-79.936	0.292	0.099
-698.499	-115.036	-0.173	0.033
-697.485	-79.793	0.108	-0.036
-696.470	170.467	-0.118	-0.170
-695.456	-200.000	0.008	-0.139
-694.441	416.367	0.151	-0.322
-693.426	-200.000	0.027	-0.411
-692.412	-121.707	-0.149	-0.025
-691.397	113.030	-0.145	-0.176
-690.383	-74.860	0.106	0.038
-689.368	-110.416	0.176	0.037
-688.354	-178.949	-0.228	0.005
-687.339	-175.535	0.208	0.006
-686.324	495.900	-0.189	-0.436
-685.310	-147.780	0.241	0.020
-684.295	800.000	-0.050	-0.167
-683.281	230.304	0.084	0.138
-682.266	-107.083	-0.018	-0.004
-681.251	800.000	0.068	0.210
-680.237	101.864	0.279	-0.327
-679.222	800.000	0.070	-0.276
-678.208	-109.395	-0.241	-0.051
-677.193	685.216	0.061	-0.159
-676.178	70.948	0.189	0.196
-675.164	129.025	0.028	0.035
-674.149	-84.566	0.319	0.101
-673.135	259.678	-0.168	-0.290
-672.120	-58.634	0.110	0.048
-671.105	-1.407	0.382	-0.270
-670.091	-178.591	-0.230	0.005
-669.076	156.131	-0.111	0.153
-668.062	-200.000	0.057	-0.302
-667.047	-0.219	-0.150	0.107
-666.032	42.377	-0.153	-0.140
-665.018	459.315	-0.087	0.193
-664.003	-108.023	0.250	-0.054
-662.989	-185.237	0.151	-0.002
-661.974	19.904	0.102	-0.083
-660.959	-146.430	-0.246	-0.021
-659.945	-133.636	-0.250	-0.031
-658.930	32.745	0.210	0.182
-657.916	-119.997	0.100	0.017
-656.901	145.631	0.191	0.256
-655.886	-153.652	-0.189	-0.013
-654.872	800.000	-0.087	-0.272
-653.857	209.355	0.029	-0.046
-652.843	-200.000	0.006	0.121
-651.828	403.335	-0.017	-0.035
-650.814	-39.086	0.138	-0.073
-649.799	-168.028	0.130	-0.005
-648.784	-200.000	0.032	0.165
-647.770	632.816	0.136	0.345
-646.755	-200.000	0.009	0.161
-645.741	330.892	0.068	0.131
-644.726	-29.257	-0.225	0.129
-643.711	-85.998	0.043	-0.013
-642.697	-31.107	-0.043	0.024
-641.682	487.599	0.111	0.254
-640.668	230.923	0.118	0.194
-639.653	-56.135	0.123	-0.055
-638.638	-200.000	0.051	0.381
-637.624	800.000	0.031	0.086
-636.609	-61.179	0.431	0.182
-635.595	-200.000	0.011	0.280
-634.580	-87.242	0.343	0.104
-633.565	-82.967	-0.144	-0.046
-632.551	800.000	-0.091	-0.341
-631.536	-200.000	-0.004	0.067
-630.522	89.983	0.170	0.190
-629.507	-179.863	0.208	-0.004
-628.492	-158.812	-0.447	0.026
-627.478	227.030	-0.153	-0.249
-626.463	468.503	0.063	-0.141
-625.449	529.972	0.107	0.252
-624.434	586.794	-0.098	0.240
-623.419	39.689	-0.149	-0.133
-622.405	-51.384	-0.181	0.085
-621.390	678.583	-0.096	0.249
-620.376	203.425	0.146	-0.226
-619.361	-31.933	0.198	-0.111
-618.346	-76.819	-0.272	-0.095
-617.332	173.522	0.137	-0.198
-616.317	22.226	-0.320	-0.261
-615.303	143.145	-0.210	0.279
-614.288	-150.438	-0.350	0.027
-613.273	-70.456	0.153	-0.058
-612.259	33.240	0.158	-0.137
-611.244	375.543	0.098	0.200
-610.230	33.743	0.123	0.107
-609.215	-65.836	0.312	-0.125
-608.201	516.646	0.149	-0.349
-607.186	-108.246	-0.276	-0.060
-606.171	-49.187	0.174	-0.083
-605.157	-49.980	-0.140	-0.066
-604.142	-50.153	0.131	-0.062
-603.128	-89.635	-0.178	-0.052
-602.113	57.385	0.082	-0.080
-601.098	7.929	0.101	-0.075
-600.084	-58.515	-0.253	-0.110
-599.069	-28.432	-0.046	-0.027
-598.055	-147.149	-0.239	0.020
-597.040	-200.000	-0.057	-0.250
-596.025	-133.390	0.230	0.029
-595.011	0.873	0.341	-0.244
-593.996	207.475	0.078	0.121
-592.982	-29.385	0.188	0.108
-591.967	126.534	-0.149	-0.189
-590.952	-200.000	-0.043	0.259
-589.938	-39.642	-0.127	0.066
-588.923	-200.000	-0.003	0.178
-587.909	19.657	0.209	-0.168
-586.894	26.690	-0.117	0.098
-585.879	27.928	0.151	0.127
-584.865	-106.045	-0.134	-0.030
-583.850	563.934	-0.103	-0.249
-582.836	162.345	0.257	-0.359
-581.821	-200.000	0.004	0.158
-580.806	68.641	-0.089	-0.091
-579.792	-79.604	0.030	-0.010
-578.777	-73.884	0.232	-0.084
-577.763	-200.000	-0.015	0.162
-576.748	-200.000	0.034	0.301
-575.733	-119.090	0.256	0.045
-574.719	-29.625	-0.151	-0.086
-573.704	-150.970	-0.117	0.009
-572.690	-200.000	0.017	0.105
-571.675	58.707	0.266	-0.261
-570.661	9.187	-0.097	-0.073
-569.646	-200.000	-0.088	0.454
-568.631	462.891	0.075	0.167
-567.617	-3.301	-0.158	-0.110
-566.602	45.565	0.112	0.104
-565.588	-22.606	-0.130	-0.078
-564.573	-200.000	0.083	-0.396
-563.558	318.813	0.094	0.178
-562.544	-100.360	0.153	-0.038
-561.529	-200.000	-0.044	-0.496
-560.515	8.509	-0.102	-0.077
-559.500	69.741	-0.309	0.318
-558.485	-49.940	0.270	0.128
-557.471	61.702	-0.101	-0.100
-556.456	173.045	0.158	-0.227
-555.442	67.321	-0.243	0.247
-554.427	-101.962	-0.165	-0.040
-553.412	-92.143	-0.237	-0.067
-552.398	800.000	-0.043	0.142
-551.383	25.393	0.015	-0.013
-550.369	-88.355	-0.333	-0.099
-549.354	-59.939	0.148	0.063
-548.339	424.733	-0.180	-0.387
-547.325	-104.936	-0.321	0.073
-546.310	-137.742	-0.289	-0.032
-545.296	495.265	-0.146	-0.334
-544.281	21.053	-0.092	0.074
-543.266	147.364	-0.147	-0.197
-542.252	661.886	0.129	0.332
-541.237	182.069	0.130	0.191
-540.223	-113.452	-0.139	-0.027
-539.208	118.705	0.139	0.171
-538.193	-40.706	0.060	0.031
-537.179	-164.303	-0.198	0.009
-536.164	-200.000	-0.004	-0.188
-535.150	-43.805	0.088	0.044
-534.135	-72.529	0.288	0.106
-533.121	60.844	0.052	0.051
-532.106	49.588	0.212	-0.199
-531.091	-88.904	-0.123	0.036
-530.077	-22.765	-0.155	0.093
-529.062	800.000	-0.127	0.374
-528.048	-165.067	-0.304	0.013
-527.033	34.090	0.108	-0.094
-526.018	800.000	0.023	-0.099
-525.004	-123.355	0.241	-0.038
-523.989	133.158	-0.121	-0.156
-522.975	80.223	-0.291	0.312
-521.960	-107.702	-0.280	0.061
-520.945	800.000	-0.090	0.319
-519.931	272.256	0.093	0.163
-518.916	154.047	-0.148	0.202
-517.902	800.000	-0.042	0.117
-516.887	-200.000	0.402	-0.002
-515.872	9.178	-0.162	0.122
-514.858	-86.509	0.306	0.093
-513.843	96.090	-0.179	-0.204
-512.829	-83.487	0.508	-0.162
-511.814	-61.161	-0.175	-0.074
-510.799	-45.674	-0.185	-0.091
-509.785	800.000	-0.110	-0.348
-508.770	240.888	-0.160	0.266
-507.756	-45.969	0.153	0.075
-506.741	-200.000	-0.017	0.280
-505.726	675.532	0.017	0.043
-504.712	-80.612	-0.180	-0.060
-503.697	31.241	0.155	-0.132
-502.683	-17.596	0.233	-0.146
-501.668	139.042	-0.105	0.137
-500.653	-165.178	-0.087	-0.004
-499.639	800.000	-0.063	0.201
-498.624	-200.000	0.025	-0.281
-497.610	-103.513	0.046	-0.011
-496.595	-50.959	-0.191	0.089
-495.581	-200.000	0.013	0.057
-494.566	-17.607	0.112	0.070
-493.551	-73.108	-0.180	0.066
-492.537	657.069	-0.075	-0.191
-491.522	-62.865	-0.093	-0.038
-490.508	-1.354	-0.300	0.210
-489.493	-3.923	0.175	0.121
-488.478	21.420	-0.278	0.225
-487.464	3.819	-0.305	0.221
-486.449	101.108	-0.153	-0.177
-485.435	81.329	0.031	0.033
-484.420	-62.543	-0.236	-0.098
-483.405	-200.000	0.003	-0.232
-482.391	-168.569	0.230	-0.009
-481.376	60.026	0.240	-0.236
-480.362	-155.821	-0.259	-0.016
-479.347	145.737	0.117	0.156
-478.332	250.950	-0.244	0.412
-477.318	-200.000	-0.048	-0.441
-476.303	-86.418	0.323	0.099
-475.289	-98.059	0.377	-0.097
-474.274	537.936	-0.122	-0.288
-473.259	132.639	-0.291	0.373
-472.245	319.166	0.169	0.318
-471.230	82.615	0.096	-0.104
-470.216	113.088	0.265	0.320
-469.201	81.804	-0.211	0.227
-468.186	-200.000	-0.019	-0.142
-467.172	222.088	-0.091	0.146
-466.157	-106.129	0.259	0.058
-465.143	249.150	0.154	-0.260
-464.128	574.926	-0.078	-0.190
-463.113	118.504	0.184	0.226
-462.099	106.179	-0.259	0.305
-461.084	203.877	-0.117	0.181
-460.070	800.000	0.047	0.193
-459.055	-62.095	0.220	-0.091
-458.040	-3.605	-0.311	-0.215
-457.026	800.000	-0.001	0.003
-456.011	-98.752	0.218	0.055
-454.997	800.000	-0.066	0.190
-453.982	67.972	-0.087	0.089
-452.968	-163.727	-0.067	-0.003
-451.953	-52.457	0.146	-0.067
-450.938	10.175	0.197	0.148
-449.924	-77.462	-0.309	0.107
-448.909	-96.550	0.284	0.074
-447.895	-90.698	-0.177	-0.051
-446.880	-71.861	0.107	-0.040
-445.865	110.115	0.283	-0.337
-444.851	800.000	-0.054	-0.178
-443.836	574.640	0.058	0.141
-442.822	-200.000	-0.016	0.132
-441.807	-45.099	-0.155	-0.077
-440.792	-34.693	-0.146	-0.079
-439.778	-67.822	0.228	-0.088
-438.763	71.967	-0.111	-0.114
-437.749	-14.733	-0.073	-0.046
-436.734	165.128	0.173	-0.243
-435.719	148.033	-0.211	-0.283
-434.705	13.346	-0.123	-0.095
-433.690	-5.679	-0.150	0.102
-432.676	135.545	-0.110	0.141
-431.661	522.040	0.040	-0.093
-430.646	-200.000	0.059	0.272
-429.632	-200.000	-0.013	0.463
-428.617	14.083	0.277	-0.214
-427.603	-176.633	0.118	0.003
-426.588	-143.890	-0.219	-0.020
-425.573	89.424	-0.219	-0.243
-424.559	-200.000	0.032	0.198
-423.544	-94.004	-0.089	-0.024
-422.530	-39.484	0.231	-0.120
-421.515	-200.000	0.035	-0.164
-420.500	-45.684	0.092	0.045
-419.486	-92.873	-0.061	-0.017
-418.471	-38.698	0.271	-0.142
-417.457	-89.833	-0.167	-0.048
-416.442	101.431	-0.040	0.047
-415.428	-75.927	0.051	-0.018
-414.413	93.784	0.192	-0.216
-413.398	-200.000	0.027	-0.279
-412.384	-200.000	0.019	0.104
-411.369	149.757	-0.234	-0.315
-410.355	800.000	-0.092	0.329
-409.340	-200.000	-0.010	0.338
-408.325	96.187	0.109	0.124
-407.311	800.000	-0.047	0.182
-406.296	-108.969	-0.208	0.044
-405.282	610.957	-0.048	0.118
-404.267	9.271	0.134	-0.100
-403.252	-200.000	-0.057	-0.252
-402.238	-64.425	0.174	-0.070
-401.223	168.108	-0.076	-0.107
-400.209	800.000	0.046	-0.199
-399.194	211.797	0.106	0.166
-398.179	636.928	0.129	-0.324
-397.165	800.000	-0.035	-0.103
-396.150	-86.349	0.255	-0.078
-395.136	-129.229	0.205	-0.028
-394.121	207.882	0.055	-0.085
-393.106	311.164	0.110	-0.204
-392.092	159.652	0.216	-0.298
-391.077	-130.719	0.189	0.025
-390.063	-81.150	-0.204	0.067
-389.048	33.466	0.118	-0.101
-388.033	33.897	-0.040	-0.035
-387.019	61.621	0.153	-0.151
-386.004	32.859	0.194	0.167
-384.990	-200.000	-0.009	0.072
-383.975	38.306	-0.132	-0.116
-382.960	-200.000	-0.089	0.461
-381.946	800.000	-0.086	0.363
-380.931	479.736	-0.120	-0.270
-379.917	59.917	-0.094	0.092
-378.902	32.163	-0.146	0.125
-377.888	-198.980	0.216	0.001
-376.873	232.763	-0.100	-0.163
-375.858	170.930	-0.107	-0.152
-374.844	-107.039	-0.128	0.028
-373.829	-107.949	-0.290	0.062
-372.815	44.269	-0.157	0.142
-371.800	-86.377	-0.344	0.105
-370.785	159.448	-0.188	0.259
-369.771	-200.000	0.018	-0.395
-368.756	800.000	-0.020	-0.072
-367.742	-200.000	0.006	-0.035
-366.727	-22.026	0.467	-0.281
-365.712	-109.651	-0.338	-0.070
-364.698	-5.383	0.207	0.140
-363.683	800.000	0.013	0.052
-362.669	-47.774	0.106	0.051
-361.654	800.000	-0.139	0.399
-360.639	-67.720	0.151	-0.059
-359.625	-95.839	0.127	-0.034
-358.610	-200.000	0.048	0.220
-357.596	-128.571	0.235	0.033
-356.581	-67.048	-0.173	0.068
-355.566	258.442	-0.106	-0.180
-354.552	374.956	-0.087	-0.176
-353.537	-6.046	-0.153	-0.104
-352.523	226.978	0.047	-0.075
-351.508	-13.164	-0.250	0.161
-350.493	775.193	-0.077	-0.207
-349.479	-171.368	-0.211	-0.007
-348.464	-47.518	0.129	-0.062
-347.450	25.245	-0.239	0.197
-346.435	-200.000	-0.005	0.028
-345.420	169.828	-0.099	-0.141
-344.406	-200.000	-0.047	0.444
-343.391	-57.521	-0.206	0.090
-342.377	-200.000	-0.031	0.000
-341.362	-39.014	0.157	0.082
-340.348	316.757	-0.176	0.329
-339.333	-70.767	-0.226	0.084
-338.318	-200.000	0.014	0.071
-337.304	72.338	0.144	0.149
-336.289	-200.000	-0.041	0.343
-335.275	800.000	0.021	-0.066
-334.260	406.226	-0.116	0.242
-333.245	57.980	0.090	0.087
-332.231	-131.417	0.397	-0.052
-331.216	-167.281	0.174	0.007
-330.202	-200.000	-0.058	0.348
-329.187	-200.000	-0.056	-0.280
-328.172	-200.000	0.030	-0.246
-327.158	-36.884	-0.495	-0.263
-326.143	-200.000	0.006	-0.315
-325.129	279.337	-0.150	0.264
-324.114	494.437	0.121	0.275
-323.099	-79.749	0.188	-0.063
-322.085	-200.000	-0.025	0.131
-321.070	276.287	-0.085	-0.150
-320.056	489.029	-0.086	-0.194
-319.041	481.630	-0.085	-0.191
-318.026	203.142	-0.058	0.088
-317.012	3.224	0.117	0.084
-315.997	-96.168	0.250	0.065
-314.983	-36.790	-0.158	-0.084
-313.968	-111.155	-0.300	-0.061
-312.953	124.691	-0.032	0.040
-311.939	-200.000	0.062	-0.293
-310.924	482.606	0.046	-0.104
-309.910	-138.687	-0.184	-0.020
-308.895	-29.038	-0.173	-0.098
-307.880	-167.680	0.292	0.011
-306.866	78.435	-0.185	-0.195
-305.851	-200.000	-0.008	-0.134
-304.837	-147.631	0.157	-0.013
-303.822	-200.000	-0.005	-0.067
-302.807	10.137	0.261	0.196
-301.793	-200.000	-0.004	-0.027
-300.778	675.253	-0.062	0.160
-299.764	139.009	0.244	-0.316
-298.749	-62.296	-0.040	0.016
-297.735	-200.000	0.003	-0.272
-296.720	-109.542	0.217	-0.045
-295.705	800.000	0.017	0.063
-294.691	50.733	0.153	0.143
-293.676	122.926	0.325	0.402
-292.662	800.000	0.026	0.110
-291.647	-111.630	0.144	0.029
-290.632	800.000	-0.055	0.236
-289.618	800.000	0.009	-0.038
-288.603	-200.000	0.043	-0.198
-287.589	52.037	0.436	0.410
-286.574	150.204	-0.238	0.319
-285.559	-200.000	0.006	-0.354
-284.545	-156.786	0.214	0.013
-283.530	-55.456	0.041	-0.018
-282.516	-67.585	-0.186	0.072
-281.501	41.905	0.274	-0.246
-280.486	-62.074	0.115	-0.047
-279.472	481.024	0.065	-0.145
-278.457	328.572	0.056	0.107
-277.443	-200.000	0.002	0.305
-276.428	-195.761	-0.123	0.001
-275.413	-100.206	-0.206	-0.050
-274.399	-154.843	0.148	-0.010
-273.384	-197.264	-0.052	0.000
-272.370	520.761	0.010	-0.023
-271.355	281.513	-0.087	-0.154
-270.340	-94.088	-0.203	0.055
-269.326	800.000	0.052	-0.173
-268.311	-200.000	-0.010	-0.054
-267.297	57.621	-0.121	0.117
-266.282	-200.000	0.002	-0.312
-265.267	20.232	-0.436	-0.347
-264.253	-15.436	0.405	-0.255
-263.238	115.327	0.056	-0.068
-262.224	72.323	-0.268	0.276
-261.209	-200.000	0.045	-0.232
-260.195	-123.264	0.165	0.026
-259.180	800.000	0.118	-0.354
-258.165	-27.160	0.194	-0.111
-257.151	27.757	-0.193	0.160
-256.136	144.983	-0.322	-0.425
-255.122	800.000	0.050	-0.210
-254.107	-50.884	0.095	-0.044
-253.092	-100.956	0.068	0.016
-252.078	-107.579	-0.427	-0.092
-251.063	169.842	-0.142	-0.200
-250.049	-82.444	-0.161	-0.051
-249.034	-112.504	0.155	0.031
-248.019	323.956	0.061	0.114
-247.005	-200.000	0.027	0.120
-245.990	-194.185	0.126	0.001
-244.976	-10.741	0.518	0.338
-243.961	246.167	-0.128	0.212
-242.946	-17.372	0.158	0.098
-241.932	27.556	-0.024	-0.020
-240.917	800.000	-0.075	-0.217
-239.903	-199.257	0.146	-0.001
-238.888	-200.000	0.009	-0.287
-237.873	54.525	0.088	-0.084
-236.859	-82.856	0.230	-0.073
-235.844	-9.645	0.150	0.098
-234.830	-200.000	0.027	0.257
-233.815	-200.000	0.009	0.201
-232.800	800.000	0.028	0.098
-231.786	-156.002	0.180	0.011
-230.771	-200.000	0.025	0.183
-229.757	-200.000	-0.006	-0.150
-228.742	800.000	-0.100	0.277
-227.727	9.833	-0.215	-0.161
-226.713	16.719	-0.184	0.143
-225.698	326.637	0.082	0.154
-224.684	47.923	-0.168	-0.154
-223.669	-148.921	-0.245	-0.019
-222.655	-81.154	0.215	0.070
-221.640	-71.292	0.236	-0.087
-220.625	-127.363	-0.141	0.020
-219.611	800.000	-0.022	-0.085
-218.596	800.000	-0.051	-0.190
-217.582	396.991	0.137	0.282
-216.567	212.272	0.116	-0.180
-215.552	-184.687	-0.525	0.008
-214.538	-47.030	0.056	-0.027
-213.523	800.000	-0.062	0.224
-212.509	155.926	-0.133	-0.180
-211.494	800.000	0.062	0.204
-210.479	-38.071	-0.147	-0.077
-209.465	-200.000	0.031	-0.186
-208.450	109.773	-0.130	0.153
-207.436	800.000	0.023	0.071
-206.421	-6.842	0.068	0.045
-205.406	-116.392	-0.069	-0.012
-204.392	145.133	-0.158	-0.208
-203.377	-200.000	0.022	0.150
-202.363	165.623	0.141	0.196
-201.348	551.077	0.044	0.104
-200.333	800.000	0.100	0.273
-199.319	800.000	0.084	-0.256
-198.304	23.076	0.258	-0.208
-197.290	90.504	0.220	-0.242
-196.275	-200.000	-0.020	-0.277
-195.260	166.340	0.104	0.144
-194.246	800.000	0.138	-0.432
-193.231	-72.085	0.072	-0.026
-192.217	-49.626	-0.215	-0.101
-191.202	755.472	0.050	-0.132
-190.187	-87.014	-0.072	0.022
-189.173	775.696	0.042	0.114
-188.158	-29.514	-0.364	0.204
-187.144	-85.106	-0.110	-0.034
-186.129	243.158	0.072	0.118
-185.114	-77.714	0.119	-0.041
-184.100	76.559	0.104	-0.108
-183.085	51.055	-0.308	-0.287
-182.071	72.189	0.136	-0.139
-181.056	776.637	0.007	-0.019
-180.042	-135.980	0.426	0.049
-179.027	592.755	0.068	-0.165
-178.012	272.119	0.117	0.203
-176.998	-64.763	-0.014	0.005
-175.983	210.822	-0.202	-0.312
-174.969	-179.125	-0.143	-0.003
-173.954	-135.786	0.359	-0.042
-172.939	-76.529	-0.017	0.006
-171.925	-200.000	0.007	-0.087
-170.910	-167.309	-0.004	-0.000
-169.896	-200.000	-0.003	0.021
-168.881	268.893	0.103	0.178
-167.866	-106.456	0.312	-0.068
-166.852	-133.534	0.062	-0.008
-165.837	218.568	-0.151	0.237
-164.823	-200.000	0.020	0.112
-163.808	6.607	-0.236	-0.172
-162.793	-177.522	-0.186	-0.004
-161.779	69.647	-0.090	-0.091
-160.764	716.956	0.025	0.065
-159.750	-200.000	0.030	-0.233
-158.735	74.768	0.113	0.117
-157.720	-200.000	0.154	0.000
-156.706	-84.582	0.281	-0.087
-155.691	-152.605	0.170	0.012
-154.677	-80.471	0.294	-0.096
-153.662	800.000	0.052	-0.149
-152.647	-6.637	-0.219	0.146
-151.633	94.486	-0.251	0.280
-150.618	429.524	0.080	0.170
-149.604	-71.134	-0.527	0.194
-148.589	-200.000	0.036	-0.217
-147.574	83.055	0.102	-0.109
-146.560	789.980	-0.056	0.150
-145.545	-108.849	0.316	0.066
-144.531	35.783	0.181	-0.156
-143.516	81.660	-0.179	0.190
-142.502	214.388	-0.266	0.413
-141.487	-91.767	-0.198	-0.055
-140.472	-43.627	0.182	0.090
-139.458	-43.369	-0.286	0.142
-138.443	-90.215	0.087	0.025
-137.429	411.160	0.083	0.172
-136.414	-63.279	-0.160	0.065
-135.399	-86.975	-0.377	-0.113
-134.385	450.244	0.139	0.301
-133.370	262.938	0.189	0.322
-132.356	-14.058	0.112	0.071
-131.341	131.628	-0.158	0.199
-130.326	-114.550	0.207	0.039
-129.312	433.291	-0.053	-0.114
-128.297	101.715	-0.026	0.030
-127.283	800.000	-0.020	0.064
-126.268	73.155	0.005	-0.005
-125.253	93.923	-0.127	-0.142
-124.239	24.196	-0.247	-0.200
-123.224	-80.250	0.101	-0.033
-122.210	-51.968	-0.190	-0.087
-121.195	622.685	-0.119	0.294
-120.180	-23.115	-0.322	-0.190
-119.166	-43.077	0.115	-0.057
-118.151	-149.595	-0.353	-0.027
-117.137	152.975	-0.151	0.202
-116.122	-65.626	-0.265	-0.104
-115.107	8.134	0.204	-0.150
-114.093	800.000	-0.075	-0.229
-113.078	-116.871	-0.418	0.075
-112.064	214.092	0.040	-0.061
-111.049	-97.016	-0.065	-0.017
-110.034	-129.708	0.221	0.030
-109.020	-97.023	-0.286	0.073
-108.005	-200.000	0.011	0.225
-106.991	391.784	0.096	-0.196
-105.976	-49.366	-0.204	-0.095
-104.962	-200.000	-0.009	-0.060
-103.947	800.000	-0.041	0.115
-102.932	-200.000	0.017	0.437
-101.918	-200.000	0.044	-0.234
-100.903	107.623	-0.172	0.200
-99.889	-141.076	0.277	0.028
-98.874	23.438	0.256	0.206
-97.859	-0.563	0.189	0.131
-96.845	-200.000	0.007	-0.129
-95.830	-200.000	-0.001	-0.117
-94.816	-45.944	-0.124	-0.060
-93.801	-200.000	-0.020	0.382
-92.786	-59.940	-0.054	-0.023
-91.772	-200.000	0.081	0.392
-90.757	-139.278	0.460	-0.048
-89.743	129.702	-0.121	0.151
-88.728	-200.000	0.011	-0.049
-87.713	372.099	-0.082	0.163
-86.699	200.354	0.143	0.215
-85.684	-56.825	-0.254	0.110
-84.670	-200.000	0.003	0.284
-83.655	800.000	-0.098	-0.286
-82.640	102.551	0.370	-0.423
-81.626	-125.780	0.170	-0.025
-80.611	184.189	-0.107	-0.156
-79.597	15.702	0.159	0.123
-78.582	800.000	-0.042	0.165
-77.567	-200.000	0.034	0.191
-76.553	617.800	-0.073	0.178
-75.538	724.702	-0.071	-0.186
-74.524	-200.000	-0.000	0.003
-73.509	-200.000	-0.010	0.045
-72.494	-131.244	0.084	-0.011
-71.480	-38.984	-0.327	-0.168
-70.465	450.919	-0.092	0.199
-69.451	800.000	0.131	-0.396
-68.436	-140.582	0.165	-0.017
-67.422	-58.069	-0.175	-0.074
-66.407	-85.727	-0.162	-0.049
-65.392	800.000	0.019	-0.069
-64.378	-65.911	0.071	-0.028
-63.363	800.000	-0.034	0.107
-62.349	37.489	0.155	0.134
-61.334	-2.399	-1.223	-0.838
-60.319	153.440	0.482	0.645
-59.305	668.030	-0.558	-1.411
-58.290	195.268	0.635	0.943
-57.276	482.511	0.745	1.655
-56.261	-200.000	116.355	662.625
-55.246	534.114	1530.542	3546.748
-54.232	177.680	2696.795	3843.748
-53.217	108.573	2171.788	2536.104
-52.203	37.850	1696.124	1473.685
-51.188	30.255	1513.894	1263.808
-50.173	27.962	1490.013	1228.427
-49.159	52.910	1548.043	1447.721
-48.144	51.028	1563.343	1449.109
-47.130	30.480	1519.530	1269.847
-46.115	27.422	1504.550	1236.543
-45.100	27.261	1500.666	1232.213
-44.086	27.253	1498.843	1230.612
-43.071	27.206	1496.711	1228.496
-42.057	27.197	1495.288	1227.219
-41.042	27.126	1494.068	1225.692
-40.027	27.174	1492.095	1224.345
-39.013	27.125	1491.107	1223.159
-37.998	27.114	1489.930	1222.068
-36.984	27.130	1488.752	1221.164
-35.969	27.182	1486.873	1219.920
-34.954	27.182	1485.992	1219.152
-33.940	27.225	1484.857	1218.458
-32.925	27.154	1482.973	1216.389
-31.911	27.121	1482.025	1215.347
-30.896	27.311	1480.478	1215.294
-29.881	27.221	1479.448	1213.801
-28.867	27.233	1478.244	1212.845
-27.852	27.268	1476.954	1211.973
-26.838	27.299	1475.393	1210.848
-25.823	27.292	1474.152	1209.734
-24.809	27.278	1472.487	1208.226
-23.794	27.265	1470.941	1206.826
-22.779	27.209	1469.969	1205.608
-21.765	27.212	1469.048	1204.829
-20.750	27.261	1467.476	1203.813
-19.736	27.171	1466.809	1202.623
-18.721	27.175	1465.774	1201.754
-17.706	27.206	1464.525	1200.885
-16.692	27.161	1463.664	1199.838
-15.677	27.169	1462.417	1198.817
-14.663	27.192	1461.584	1198.241
-13.648	27.100	1461.353	1197.397
-12.633	27.146	1459.854	1196.422
-11.619	27.204	1459.136	1196.170
-10.604	27.127	1458.126	1194.788
-9.590	27.209	1457.043	1194.395
-8.575	27.201	1456.359	1193.728
-7.560	27.123	1455.597	1192.545
-6.546	27.174	1454.413	1191.865
-5.531	27.157	1453.844	1191.241
-4.517	27.177	1452.965	1190.604
-3.502	27.154	1451.794	1189.443
-2.487	27.186	1450.408	1188.469
-1.473	27.223	1449.585	1187.991
-0.458	27.273	1447.826	1186.832
0.556	28.878	1438.584	1175.217
1.571	25.626	1413.793	1134.388
2.586	21.982	1355.146	1065.169
3.600	20.230	1273.355	990.794
4.615	18.863	1227.721	947.665
5.629	16.658	1171.600	892.653
6.644	10.000	1090.246	797.817
7.659	4.997	1053.453	746.903
8.673	4.257	1048.383	739.719
9.688	4.120	1045.113	736.692
10.702	3.970	1042.905	734.362
11.717	3.963	1040.990	732.911
12.731	6.413	1042.910	745.811
13.746	13.566	1053.395	787.351
14.761	20.451	1061.773	826.407
15.775	22.605	1064.024	838.346
16.790	22.215	1062.106	834.908
17.804	21.293	1060.500	829.195
18.819	20.649	1058.902	824.819
19.834	20.208	1058.113	822.044
20.848	19.993	1057.318	820.337
21.863	20.237	1056.534	820.810
22.877	20.085	1056.226	819.778
23.892	19.888	1055.120	817.915
24.907	19.694	1054.311	816.299
25.921	19.666	1053.540	815.500
26.936	19.571	1053.103	814.641
27.950	19.635	1051.717	813.797
28.965	19.631	1050.928	813.096
29.980	19.759	1049.323	812.386
30.994	19.881	1048.357	812.135
32.009	19.974	1047.726	812.012
33.023	20.128	1047.284	812.322
34.038	20.099	1046.048	811.154
35.053	19.990	1045.079	809.821
36.067	19.825	1044.334	808.402
37.082	19.674	1043.509	806.985
38.096	19.781	1042.381	806.541
39.111	20.001	1041.872	807.104
40.126	19.953	1041.460	806.488
41.140	19.817	1040.255	804.849
42.155	19.523	1038.469	802.032
43.169	19.237	1037.467	799.860
44.184	19.324	1036.320	799.308
45.199	19.129	1035.077	797.375
46.213	19.281	1034.263	797.380
47.228	19.276	1033.832	796.955
48.242	19.754	1033.027	798.471
49.257	19.828	1032.258	798.149
50.271	19.769	1031.194	796.983
51.286	19.789	1030.612	796.556
52.301	19.910	1030.004	796.569
53.315	19.922	1029.358	796.057
54.330	19.808	1027.981	794.396
55.344	19.632	1027.036	792.790
56.359	19.459	1026.161	791.251
57.374	19.420	1025.378	790.400
58.388	19.520	1024.415	790.044
59.403	19.271	1023.616	788.217
60.417	19.231	1022.867	787.389
61.432	19.186	1022.460	786.800
62.447	19.339	1021.651	786.807
63.461	19.138	1020.669	785.066
64.476	19.132	1019.393	783.989
65.490	19.115	1018.755	783.347
66.505	19.078	1017.691	782.294
67.520	19.088	1017.437	782.074
68.534	19.073	1016.827	781.470
69.549	18.928	1016.475	780.471
70.563	18.987	1015.305	779.772
71.578	18.787	1014.477	778.158
72.593	18.721	1013.709	777.202
73.607	18.678	1012.156	775.749
74.622	18.678	1011.097	774.871
75.636	18.697	1010.555	774.472
76.651	18.935	1009.400	774.589
77.666	18.925	1008.635	773.886
78.680	18.894	1008.327	773.443
79.695	18.883	1008.026	773.096
80.709	19.023	1007.096	772.944
81.724	19.161	1006.468	773.011
82.739	19.401	1005.613	773.365
83.753	19.282	1005.297	772.517
84.768	19.536	1004.757	773.174
85.782	19.952	1004.874	775.056
86.797	20.358	1003.628	775.844
87.812	20.294	1003.060	775.049
88.826	20.087	1001.653	772.968
89.841	19.962	1000.567	771.507
90.855	19.977	1000.429	771.399
91.870	20.127	999.785	771.502
92.884	20.129	999.176	770.974
93.899	20.244	997.905	770.433
94.914	20.166	997.188	769.468
95.928	20.236	996.939	769.515
96.943	20.108	996.137	768.264
97.957	19.966	995.320	766.935
98.972	19.976	993.815	765.754
99.987	19.909	993.595	765.219
101.001	19.943	993.127	764.942
102.016	19.992	992.164	764.345
103.030	19.852	991.136	762.868
104.045	19.957	990.275	762.600
105.060	20.066	989.060	762.078
106.074	19.908	988.191	760.647
107.089	19.568	987.039	758.202
108.103	19.367	986.323	756.704
109.118	19.195	984.711	754.647
110.133	19.089	984.252	753.762
111.147	19.082	983.293	752.931
112.162	19.023	982.025	751.633
113.176	18.998	981.568	751.108
114.191	19.234	980.753	751.448
115.206	19.453	980.116	751.848
116.220	19.324	979.403	750.675
117.235	19.247	978.884	749.874
118.249	19.234	977.566	748.740
119.264	19.039	977.265	747.598
120.279	19.160	975.734	746.886
121.293	18.969	975.152	745.545
122.308	18.844	974.416	744.376
123.322	18.805	973.572	743.494
124.337	18.847	972.480	742.777
125.352	18.591	970.950	740.438
126.366	18.703	969.882	740.041
127.381	18.776	968.726	739.411
128.395	18.821	967.910	738.912
129.410	18.784	967.020	738.011
130.424	18.799	966.429	737.560
131.439	18.897	965.741	737.386
132.454	19.132	964.948	737.724
133.468	19.227	964.447	737.684
134.483	19.212	964.025	737.233
135.497	19.234	963.363	736.754
136.512	19.112	962.848	735.771
137.527	19.244	961.741	735.426
138.541	19.190	961.270	734.770
139.556	19.280	960.288	734.339
140.570	19.249	959.576	733.594
141.585	19.430	959.034	733.887
142.600	19.674	958.604	734.531
143.614	19.995	957.708	735.143
144.629	19.905	957.166	734.280
145.643	20.058	956.359	734.242
146.658	20.060	955.261	733.344
147.673	19.756	953.800	730.871
148.687	19.632	953.259	729.871
149.702	19.458	952.371	728.392
150.716	19.388	951.072	727.039
151.731	19.248	950.661	726.070
152.746	19.263	949.892	725.482
153.760	19.504	948.793	725.590
154.775	19.461	948.548	725.160
155.789	19.634	947.581	725.080
156.804	19.575	947.024	724.344
157.819	19.635	946.217	723.913
158.833	19.806	945.212	723.795
159.848	19.757	945.379	723.654
160.862	19.971	944.221	723.598
161.877	19.895	943.631	722.765
162.892	19.571	942.190	720.245
163.906	19.310	941.375	718.471
164.921	19.288	940.350	717.534
165.935	19.312	939.283	716.757
166.950	19.413	938.202	716.286
167.964	19.550	937.426	716.199
168.979	19.334	936.909	714.847
169.994	19.365	935.360	713.731
171.008	19.286	934.146	712.413
172.023	19.540	933.508	712.912
173.037	19.621	933.463	713.151
174.052	19.967	932.886	714.074
175.067	19.816	931.959	712.679
176.081	19.492	930.807	710.400
177.096	19.175	929.561	708.085
178.110	19.210	928.712	707.517
179.125	19.271	928.102	707.241
180.140	19.428	927.280	707.195
181.154	19.476	926.676	706.870
182.169	19.594	926.980	707.521
183.183	19.662	926.431	707.317
184.198	19.759	925.723	707.114
185.213	19.830	924.387	706.319
186.227	19.655	924.802	705.858
187.242	19.786	924.007	705.727
188.256	20.129	922.636	706.012
189.271	20.090	922.056	705.345
190.286	20.110	921.909	705.254
191.300	19.919	920.688	703.480
192.315	19.292	919.295	699.809
193.329	19.039	918.341	697.994
194.344	19.096	917.790	697.745
195.359	19.341	917.548	698.493
196.373	19.483	917.399	698.893
197.388	19.542	916.935	698.715
198.402	19.866	916.246	699.438
199.417	20.035	916.441	700.208
200.432	20.275	915.679	700.534
201.446	20.345	915.692	700.765
202.461	20.344	915.605	700.631
203.475	20.403	915.112	700.430
204.490	20.475	914.011	699.816
205.504	20.165	912.900	697.657
206.519	19.880	912.005	695.766
207.534	19.830	910.963	694.707
208.548	19.886	910.337	694.392
209.563	19.934	909.508	693.891
210.577	19.900	909.106	693.388
211.592	19.775	909.195	692.895
212.607	20.121	908.318	693.547
213.621	20.321	907.702	693.819
214.636	20.409	906.723	693.357
215.650	20.095	906.701	692.028
216.665	20.217	905.694	691.682
217.680	20.346	905.084	691.671
218.694	20.272	905.227	691.424
219.709	20.492	904.640	691.790
220.723	20.300	903.680	690.231
221.738	20.337	903.032	689.822
222.753	20.199	902.566	688.859
223.767	20.245	901.572	688.219
224.782	20.249	900.719	687.523
225.796	20.404	900.122	687.622
226.811	20.378	899.883	687.275
227.826	20.442	898.944	686.750
228.840	20.298	898.080	685.461
229.855	20.127	896.934	683.850
230.869	20.198	896.638	683.842
231.884	20.151	896.103	683.189
232.899	20.072	895.450	682.319
233.913	20.095	894.185	681.385
234.928	20.022	893.595	680.592
235.942	19.807	892.903	679.157
236.957	19.778	892.147	678.409
237.972	19.907	891.429	678.309
238.986	19.957	890.960	678.089
240.001	19.729	890.454	676.749
241.015	19.814	889.483	676.286
242.030	19.904	889.290	676.430
243.045	20.131	888.917	676.974
244.059	20.138	888.427	676.566
245.074	20.286	887.607	676.460
246.088	20.299	886.953	675.952
247.103	20.377	886.786	676.069
248.117	20.547	886.014	676.080
249.132	20.633	885.726	676.137
250.147	20.985	885.499	677.271
251.161	21.309	885.168	678.215
252.176	21.368	884.523	677.891
253.190	21.341	883.958	677.295
254.205	21.330	883.454	676.805
255.220	21.388	882.900	676.545
256.234	21.277	882.157	675.486
257.249	21.320	881.330	674.960
258.263	21.383	881.126	674.985
259.278	21.389	880.623	674.564
260.293	21.236	880.026	673.459
261.307	21.261	879.610	673.178
262.322	21.456	878.844	673.282
263.336	21.356	878.432	672.520
264.351	21.364	877.786	671.997
265.366	21.439	877.080	671.686
266.380	21.383	877.074	671.406
267.395	21.510	875.833	670.883
268.409	21.368	875.012	669.653
269.424	21.199	874.498	668.554
270.439	21.239	873.262	667.703
271.453	21.217	872.551	667.014
272.468	21.043	871.856	665.761
273.482	20.903	871.363	664.791
274.497	20.965	870.717	664.475
275.512	21.021	869.976	664.065
276.526	21.165	869.184	663.948
277.541	20.928	868.824	662.713
278.555	21.072	868.299	662.804
279.570	21.291	867.867	663.244
280.585	21.284	868.151	663.379
281.599	21.642	866.961	663.768
282.614	21.397	866.197	662.195
283.628	21.111	865.548	660.558
284.643	21.090	864.689	659.763
285.657	21.121	864.294	659.522
286.672	21.204	863.801	659.403
287.687	21.051	863.484	658.523
288.701	21.191	862.728	658.414
289.716	21.139	862.217	657.771
290.730	21.158	861.623	657.332
291.745	21.082	861.223	656.681
292.760	21.312	860.182	656.694
293.774	21.296	859.804	656.289
294.789	21.587	859.503	657.092
295.803	21.561	858.965	656.526
296.818	21.315	858.015	654.819
297.833	21.282	857.099	653.941
298.847	21.249	856.647	653.412
299.862	21.232	855.917	652.734
300.876	21.269	855.455	652.465
301.891	21.399	855.029	652.566
302.906	21.607	854.098	652.573
303.920	21.773	853.862	652.954
304.935	21.745	853.516	652.525
305.949	22.010	853.016	653.073
306.964	21.972	851.833	651.966
307.979	21.623	851.495	650.355
308.993	21.643	850.869	649.894
310.008	21.723	850.682	649.989
311.022	21.830	850.318	650.053
312.037	21.673	849.545	648.824
313.052	21.596	848.618	647.773
314.066	21.440	847.992	646.657
315.081	21.179	847.458	645.231
316.095	21.189	846.341	644.359
317.110	21.072	846.115	643.700
318.125	21.166	845.594	643.595
319.139	21.233	844.880	643.237
320.154	21.176	844.616	642.771
321.168	21.197	844.079	642.385
322.183	21.139	843.970	642.029
323.197	21.150	843.420	641.594
324.212	21.377	842.671	641.803
325.227	21.324	842.114	641.125
326.241	21.294	841.499	640.490
327.256	21.260	840.550	639.589
328.270	21.221	840.356	639.243
329.285	21.319	839.480	638.877
330.300	21.336	838.761	638.337
331.314	21.295	838.603	638.010
332.329	21.350	837.985	637.683
333.343	21.568	837.254	637.864
334.358	21.569	837.251	637.810
335.373	21.483	836.624	636.960
336.387	21.616	836.419	637.233
337.402	21.731	835.422	636.836
338.416	21.990	834.834	637.270
339.431	21.920	834.841	636.965
340.446	22.133	834.366	637.321
341.460	22.300	833.634	637.310
342.475	22.312	833.248	637.002
343.489	22.412	832.999	637.118
344.504	22.310	832.827	636.558
345.519	22.524	831.969	636.622
346.533	22.609	831.573	636.570
347.548	22.466	831.108	635.639
348.562	22.273	829.998	634.038
349.577	21.928	829.225	632.151
350.592	21.771	828.573	631.031
351.606	21.769	827.842	630.413
352.621	21.694	827.428	629.771
353.635	21.708	827.125	629.534
354.650	21.814	826.766	629.587
355.665	21.879	825.940	629.134
356.679	21.894	826.090	629.249
357.694	21.978	825.707	629.201
358.708	21.955	825.153	628.641
359.723	22.058	824.109	628.159
360.738	21.958	823.629	627.381
361.752	22.037	823.217	627.295
362.767	21.998	823.043	626.965
363.781	22.286	822.740	627.709
364.796	22.514	822.305	628.133
365.810	22.639	821.764	628.108
366.825	22.661	821.711	628.091
367.840	22.687	821.343	627.849
368.854	22.873	820.939	628.146
369.869	22.512	820.431	626.418
370.883	22.424	819.946	625.680
371.898	22.437	819.023	624.966
372.913	22.517	818.518	624.809
373.927	22.681	817.764	624.759
374.942	22.651	816.975	623.993
375.956	22.568	816.648	623.394
376.971	22.665	815.860	623.081
377.986	22.821	815.467	623.276
379.000	22.886	815.060	623.141
380.015	22.996	814.510	623.052
381.029	22.939	813.920	622.347
382.044	22.780	813.322	621.273
383.059	22.708	812.962	620.692
384.073	22.981	812.264	621.062
385.088	22.729	811.859	619.810
386.102	22.608	810.939	618.629
387.117	22.437	810.083	617.321
388.132	22.455	809.343	616.767
389.146	22.297	809.538	616.307
390.161	22.354	808.830	615.915
391.175	22.668	808.614	616.792
392.190	22.888	808.269	617.245
393.205	22.651	807.868	616.055
394.219	22.651	806.938	615.291
395.234	22.466	806.753	614.451
396.248	22.203	806.404	613.212
397.263	22.241	805.357	612.496
398.278	22.237	804.933	612.106
399.292	22.168	804.598	611.557
400.307	22.006	804.121	610.576
401.321	22.020	803.530	610.122
402.336	22.202	803.054	610.336
403.350	22.385	803.081	610.938
404.365	22.460	802.665	610.831
405.380	22.575	802.291	610.890
406.394	22.851	802.199	611.720
407.409	22.966	801.753	611.725
408.423	23.063	801.306	611.666
409.438	23.125	801.052	611.634
410.453	23.087	800.769	611.230
411.467	23.164	800.492	611.230
412.482	23.285	799.548	610.873
413.496	23.177	799.494	610.405
414.511	23.376	798.774	610.487
415.526	23.305	798.767	610.183
416.540	23.292	798.328	609.750
417.555	23.206	797.518	608.780
418.569	23.098	797.087	608.029
419.584	23.181	796.529	607.831
420.599	23.193	795.817	607.277
421.613	164.702	1371.429	1797.783
422.628	142.967	1455.273	1797.883
