DTS Sentinel unit serial number:	SN413079Multiplexer serial number:	ORYXHardware model number:	OX4-SRSoftware version number:	ORYX F/W v4.00 Oryx Data Collector v3.7.2.0data status	okinstallation	princeton_trtdifferential loss correction	single-endedforward channel	channel 3reverse channel	N/Adate	2019/09/10time	21:50:11forward acquisition time	60.00reverse acquisition time	0.00gamma	496.2192k internal	0.2329k external	0.2329temperature offset calibration	0.9917default loss term (dB/km)	0.3790temperature slope calibration	1.0000multiplexer offset coefficient	1.0000multiplexer slope coefficient	1.0000fibre end	0.00T internal ref (°C)	30.81T ext. ref 1 (°C)	-0.32T ext. ref 2 (°C)	24.03length (m)	temperature (°C)	Stokes	anti-Stokes-747.200	-91.048	0.097	-0.028
-746.185	-121.766	-0.075	0.013
-745.171	-29.218	-0.276	0.159
-744.156	289.722	0.214	0.392
-743.142	800.000	0.051	0.154
-742.127	124.342	-0.268	0.340
-741.112	360.641	-0.096	0.193
-740.098	-200.000	0.020	0.198
-739.083	44.212	0.189	-0.175
-738.069	400.097	-0.122	0.258
-737.054	490.690	0.076	0.176
-736.039	679.398	0.025	0.065
-735.025	40.789	0.220	-0.199
-734.010	-106.110	-0.090	0.020
-732.996	137.935	-0.241	-0.318
-731.981	-6.793	-0.146	-0.100
-730.966	-85.113	-0.224	0.071
-729.952	-200.000	-0.001	0.135
-728.937	766.010	0.020	0.054
-727.923	222.213	-0.150	-0.243
-726.908	-36.197	0.234	0.127
-725.894	-200.000	0.008	-0.135
-724.879	-200.000	0.014	0.128
-723.864	-200.000	-0.017	0.222
-722.850	-66.763	0.068	0.027
-721.835	-111.214	-0.225	-0.046
-720.821	29.447	-0.354	0.303
-719.806	-169.810	0.417	0.015
-718.791	-200.000	-0.035	-0.326
-717.777	800.000	-0.047	0.149
-716.762	23.690	-0.276	-0.229
-715.748	166.540	-0.158	-0.226
-714.733	221.958	0.065	0.105
-713.718	1.577	-0.125	0.090
-712.704	-24.791	-0.062	0.037
-711.689	78.102	0.134	-0.144
-710.675	256.009	-0.107	0.184
-709.660	-84.631	-0.258	-0.082
-708.645	800.000	-0.101	-0.377
-707.631	47.279	0.145	-0.136
-706.616	306.370	0.073	0.137
-705.602	-200.000	0.007	-0.090
-704.587	-9.896	-0.235	0.157
-703.572	141.656	0.026	0.034
-702.558	14.597	0.131	0.103
-701.543	337.758	0.037	0.073
-700.529	-151.085	0.237	-0.018
-699.514	-200.000	0.044	-0.485
-698.499	125.480	0.234	0.297
-697.485	-200.000	0.017	0.319
-696.470	776.855	-0.145	-0.399
-695.456	244.904	0.144	-0.243
-694.441	-200.000	-0.008	-0.249
-693.426	-197.426	-0.576	-0.004
-692.412	-57.419	0.412	-0.182
-691.397	-200.000	0.042	-0.244
-690.383	-96.867	-0.162	0.043
-689.368	-200.000	-0.039	-0.261
-688.354	83.423	0.299	-0.327
-687.339	5.854	-0.124	-0.092
-686.324	84.377	0.204	-0.224
-685.310	-200.000	0.019	0.095
-684.295	800.000	-0.004	0.017
-683.281	128.197	-0.098	0.125
-682.266	-50.171	-0.248	0.118
-681.251	8.370	0.133	-0.101
-680.237	800.000	0.052	-0.175
-679.222	-27.182	0.335	-0.196
-678.208	-200.000	-0.010	-0.216
-677.193	192.307	-0.197	0.299
-676.178	74.050	0.097	0.102
-675.164	-164.971	-0.134	-0.006
-674.149	-162.669	-0.171	-0.008
-673.135	-5.069	0.165	0.114
-672.120	22.881	-0.361	-0.297
-671.105	-200.000	0.014	-0.327
-670.091	157.510	-0.174	-0.242
-669.076	50.223	0.055	-0.052
-668.062	317.543	0.154	-0.293
-667.047	108.749	-0.123	-0.148
-666.032	-118.658	0.249	0.044
-665.018	800.000	-0.020	-0.072
-664.003	-200.000	-0.053	0.293
-662.989	331.208	-0.105	0.202
-661.974	-200.000	0.037	-0.191
-660.959	-200.000	0.030	0.280
-659.945	-45.804	0.082	0.041
-658.930	-29.597	-0.133	-0.076
-657.916	-108.411	0.206	-0.045
-656.901	-98.973	-0.135	0.034
-655.886	7.084	-0.152	-0.114
-654.872	432.221	0.097	-0.210
-653.857	-123.120	-0.393	0.063
-652.843	-139.454	0.143	0.015
-651.828	-82.542	-0.238	0.078
-650.814	318.535	-0.022	0.041
-649.799	284.476	0.072	-0.129
-648.784	-160.447	0.128	-0.007
-647.770	-200.000	0.067	-0.343
-646.755	33.077	-0.265	0.231
-645.741	-98.064	0.430	-0.111
-644.726	-132.904	0.258	-0.033
-643.711	550.854	-0.082	-0.196
-642.697	800.000	-0.117	-0.341
-641.682	-51.314	0.209	-0.098
-640.668	800.000	-0.007	-0.028
-639.653	113.098	0.210	0.256
-638.638	1.294	0.170	-0.123
-637.624	800.000	-0.031	0.097
-636.609	-159.618	-0.257	-0.014
-635.595	800.000	0.106	0.340
-634.580	-200.000	0.013	-0.093
-633.565	371.208	-0.142	0.290
-632.551	168.136	-0.231	0.329
-631.536	116.191	0.124	-0.153
-630.522	-200.000	0.013	-0.216
-629.507	-200.000	0.015	-0.202
-628.492	-108.357	0.264	0.057
-627.478	53.714	-0.275	-0.264
-626.463	348.338	-0.080	0.159
-625.449	175.458	0.117	-0.170
-624.434	221.937	-0.106	0.171
-623.419	170.369	-0.232	-0.332
-622.405	191.567	0.345	-0.520
-621.390	235.651	0.208	-0.345
-620.376	51.619	-0.151	0.144
-619.361	800.000	-0.080	-0.223
-618.346	-68.122	0.131	0.051
-617.332	624.912	0.076	-0.192
-616.317	-130.725	0.219	-0.029
-615.303	800.000	-0.090	0.285
-614.288	-101.267	-0.163	0.040
-613.273	25.174	0.110	-0.091
-612.259	180.895	0.109	-0.161
-611.244	96.809	0.165	-0.190
-610.230	-54.298	0.077	-0.035
-609.215	-151.100	-0.258	-0.019
-608.201	-86.506	-0.149	0.046
-607.186	-200.000	-0.020	0.164
-606.171	-200.000	0.006	-0.194
-605.157	265.613	0.099	0.173
-604.142	15.017	0.109	-0.086
-603.128	677.297	-0.069	0.180
-602.113	58.650	0.151	0.149
-601.098	29.427	0.205	0.175
-600.084	45.940	0.413	-0.382
-599.069	88.898	0.102	0.113
-598.055	800.000	0.070	-0.261
-597.040	172.820	0.050	-0.072
-596.025	121.545	-0.044	0.055
-595.011	-150.724	0.156	0.012
-593.996	800.000	-0.109	-0.306
-592.982	102.815	0.176	-0.206
-591.967	325.087	-0.053	0.101
-590.952	373.806	-0.094	-0.192
-589.938	800.000	0.062	-0.194
-588.923	28.736	-0.098	0.083
-587.909	-200.000	0.257	0.000
-586.894	-91.359	0.261	-0.075
-585.879	-200.000	0.041	-0.180
-584.865	-120.934	0.107	-0.018
-583.850	-200.000	0.020	-0.107
-582.836	-63.920	0.609	-0.249
-581.821	29.058	0.082	0.070
-580.806	-103.948	0.127	0.030
-579.792	-200.000	-0.078	0.373
-578.777	800.000	-0.094	0.271
-577.763	-2.909	0.146	0.102
-576.748	-20.347	-0.224	0.138
-575.733	-42.590	0.221	-0.113
-574.719	800.000	-0.036	0.154
-573.704	-56.174	0.269	0.120
-572.690	64.140	0.202	-0.203
-571.675	-31.280	-0.047	-0.026
-570.661	-86.534	-0.321	0.099
-569.646	-79.326	-0.086	-0.029
-568.631	461.028	-0.024	-0.053
-567.617	-200.000	-0.038	-0.264
-566.602	266.031	-0.042	0.073
-565.588	-178.022	-0.183	-0.004
-564.573	-200.000	-0.036	-0.212
-563.558	-21.078	0.050	0.030
-562.544	-131.929	0.065	0.008
-561.529	-200.000	0.068	0.389
-560.515	-127.904	0.262	0.038
-559.500	522.287	-0.133	-0.313
-558.485	-105.868	-0.071	-0.016
-557.471	-81.706	0.208	0.068
-556.456	172.985	-0.112	-0.161
-555.442	-55.443	0.504	-0.226
-554.427	140.188	-0.172	0.227
-553.412	-48.106	-0.373	-0.180
-552.398	-200.000	-0.007	0.274
-551.383	800.000	-0.055	0.175
-550.369	-200.000	-0.025	0.277
-549.354	-106.489	0.051	-0.011
-548.339	800.000	-0.019	0.065
-547.325	322.606	0.110	-0.210
-546.310	-91.714	0.327	0.093
-545.296	56.943	-0.142	0.138
-544.281	-53.043	-0.181	0.083
-543.266	165.771	-0.168	-0.237
-542.252	-92.150	-0.266	-0.075
-541.237	-88.583	0.117	0.035
-540.223	-200.000	-0.206	0.000
-539.208	-200.000	0.002	0.123
-538.193	271.311	0.072	-0.127
-537.179	-51.180	0.074	-0.034
-536.164	800.000	0.009	-0.031
-535.150	-132.629	0.226	0.029
-534.135	-158.345	0.225	-0.013
-533.121	106.301	0.298	-0.352
-532.106	-200.000	-0.029	-0.198
-531.091	-200.000	-0.004	-0.320
-530.077	-91.221	-0.143	0.041
-529.062	800.000	0.086	0.254
-528.048	184.890	0.087	0.129
-527.033	-128.118	-0.286	-0.041
-526.018	199.661	-0.207	0.317
-525.004	-75.401	-0.190	0.068
-523.989	-68.978	0.260	-0.100
-522.975	49.452	0.081	0.076
-521.960	21.802	-0.110	-0.089
-520.945	-48.556	-0.061	0.029
-519.931	-100.545	0.214	-0.053
-518.916	56.144	-0.045	-0.043
-517.902	-65.238	-0.112	-0.045
-516.887	-152.223	-0.216	-0.016
-515.872	-154.698	0.024	-0.002
-514.858	800.000	-0.082	0.249
-513.843	-200.000	0.044	0.249
-512.829	9.874	-0.243	0.184
-511.814	283.385	-0.120	0.215
-510.799	87.454	-0.182	-0.201
-509.785	555.499	0.195	0.468
-508.770	91.385	-0.157	0.176
-507.756	-200.000	-0.450	-0.002
-506.741	612.988	0.066	-0.164
-505.726	-163.216	-0.173	-0.008
-504.712	-81.137	0.134	0.044
-503.697	190.025	0.111	-0.166
-502.683	800.000	0.021	0.089
-501.668	-159.279	-0.141	0.008
-500.653	-200.000	0.023	-0.440
-499.639	682.386	-0.043	0.112
-498.624	547.757	0.052	-0.124
-497.610	-200.000	-0.011	-0.070
-496.595	28.749	0.105	-0.089
-495.581	-200.000	-0.014	-0.230
-494.566	38.223	-0.286	0.254
-493.551	286.223	0.119	-0.214
-492.537	311.381	-0.098	-0.183
-491.522	-200.000	-0.019	-0.142
-490.508	142.750	-0.116	-0.154
-489.493	16.110	-0.338	-0.266
-488.478	153.588	-0.160	-0.218
-487.464	-102.224	-0.267	-0.064
-486.449	-121.621	-0.182	-0.030
-485.435	412.067	0.018	-0.038
-484.420	-102.439	0.138	0.033
-483.405	92.468	-0.109	0.122
-482.391	488.481	0.033	0.075
-481.376	204.187	0.231	-0.356
-480.362	-61.953	-0.355	-0.148
-479.347	-83.552	0.227	0.072
-478.332	-122.699	0.367	0.059
-477.318	117.166	0.139	-0.171
-476.303	6.481	0.181	0.134
-475.289	433.187	0.067	0.145
-474.274	-76.859	0.363	-0.127
-473.259	-155.271	0.222	0.014
-472.245	-200.000	-0.021	-0.122
-471.230	-200.000	-0.004	0.347
-470.216	365.207	0.130	0.261
-469.201	52.988	-0.201	0.191
-468.186	-107.493	-0.142	0.031
-467.172	26.395	-0.261	0.217
-466.157	216.675	0.086	-0.136
-465.143	111.816	-0.212	0.255
-464.128	3.011	-0.307	-0.223
-463.113	-21.684	-0.268	0.163
-462.099	-68.833	-0.153	-0.059
-461.084	-112.775	0.255	0.050
-460.070	71.173	-0.153	-0.158
-459.055	800.000	0.008	-0.030
-458.040	-200.000	-0.011	0.051
-457.026	-200.000	0.014	-0.223
-456.011	19.625	0.063	0.051
-454.997	-47.507	0.143	-0.069
-453.982	530.510	-0.062	0.146
-452.968	24.633	0.175	-0.144
-451.953	800.000	0.041	0.173
-450.938	607.220	0.060	0.149
-449.924	1.495	0.245	0.175
-448.909	29.547	-0.218	-0.185
-447.895	-134.480	-0.200	-0.024
-446.880	-120.815	-0.102	-0.017
-445.865	-13.828	-0.164	0.105
-444.851	-28.528	0.281	-0.161
-443.836	-149.684	-0.139	0.011
-442.822	30.976	0.162	0.139
-441.807	25.083	0.161	-0.133
-440.792	-40.508	0.171	0.088
-439.778	-200.000	0.024	-0.181
-438.763	-200.000	0.054	-0.312
-437.749	186.401	-0.033	0.049
-436.734	-189.020	-0.101	0.001
-435.719	0.639	-0.029	-0.021
-434.705	-76.316	-0.250	0.087
-433.690	800.000	-0.046	0.157
-432.676	59.023	-0.042	0.041
-431.661	-200.000	-0.036	-0.311
-430.646	131.103	-0.042	-0.053
-429.632	681.370	0.045	-0.117
-428.617	31.436	-0.070	-0.060
-427.603	10.097	-0.285	0.215
-426.588	280.078	-0.082	-0.145
-425.573	7.613	-0.047	0.035
-424.559	137.710	-0.182	0.236
-423.544	-200.000	-0.033	-0.205
-422.530	-117.223	0.028	0.005
-421.515	-60.485	0.228	0.096
-420.500	-52.036	0.165	0.076
-419.486	146.021	0.054	-0.072
-418.471	-79.268	0.426	-0.144
-417.457	78.471	-0.226	0.240
-416.442	-65.404	-0.206	0.082
-415.428	-89.994	0.417	-0.121
-414.413	-200.000	-0.017	-0.089
-413.398	-129.542	0.255	-0.035
-412.384	275.132	-0.151	-0.267
-411.369	-96.955	0.140	-0.037
-410.355	-195.265	-0.361	0.003
-409.340	-31.481	0.111	-0.062
-408.325	-200.000	-0.015	-0.187
-407.311	-200.000	0.031	0.283
-406.296	800.000	0.092	-0.285
-405.282	290.914	-0.153	0.276
-404.267	263.707	-0.193	0.333
-403.252	-126.584	-0.213	0.031
-402.238	-38.225	-0.268	-0.141
-401.223	151.497	0.113	-0.152
-400.209	171.885	0.057	0.081
-399.194	-36.933	-0.218	-0.116
-398.179	800.000	0.133	-0.401
-397.165	772.265	-0.104	-0.282
-396.150	215.829	-0.108	0.171
-395.136	800.000	-0.100	-0.302
-394.121	-200.000	0.039	0.238
-393.106	90.073	-0.097	-0.107
-392.092	-200.000	-0.012	0.354
-391.077	-47.696	0.110	0.053
-390.063	115.413	0.004	0.004
-389.048	800.000	-0.025	-0.069
-388.033	109.381	-0.099	-0.118
-387.019	47.944	-0.103	-0.096
-386.004	-26.080	0.113	0.066
-384.990	-200.000	0.003	-0.310
-383.975	-61.761	0.107	0.045
-382.960	-19.497	0.233	0.143
-381.946	800.000	0.019	0.079
-380.931	276.152	-0.096	0.169
-379.917	-200.000	-0.013	0.173
-378.902	33.802	0.181	0.156
-377.888	1.898	-0.095	-0.068
-376.873	325.272	-0.238	-0.451
-375.858	-200.000	0.018	0.083
-374.844	157.218	-0.036	-0.049
-373.829	45.522	0.108	-0.099
-372.815	-200.000	-0.061	-0.267
-371.800	156.613	0.208	-0.285
-370.785	509.109	-0.038	-0.089
-369.771	-200.000	-0.003	-0.168
-368.756	52.354	-0.160	-0.151
-367.742	167.440	-0.112	0.158
-366.727	-43.957	0.420	0.210
-365.712	800.000	0.103	0.311
-364.698	-56.821	-0.289	-0.127
-363.683	-106.142	0.272	-0.061
-362.669	-84.135	0.078	-0.025
-361.654	-88.409	0.099	-0.029
-360.639	163.141	-0.069	0.096
-359.625	-200.000	-0.004	0.082
-358.610	-57.007	0.281	0.123
-357.596	22.015	-0.362	-0.293
-356.581	-138.100	0.252	-0.028
-355.566	-88.807	-0.270	0.079
-354.552	800.000	-0.090	-0.259
-353.537	-109.404	-0.274	-0.057
-352.523	-93.381	-0.116	-0.032
-351.508	-200.000	-0.014	0.190
-350.493	800.000	0.102	0.386
-349.479	-200.000	-0.027	0.190
-348.464	150.099	0.018	-0.025
-347.450	-122.465	-0.434	-0.070
-346.435	81.454	-0.146	0.157
-345.420	34.319	-0.265	0.229
-344.406	-200.000	0.007	0.172
-343.391	-122.760	-0.095	0.015
-342.377	-81.553	0.122	-0.040
-341.362	-200.000	0.005	-0.111
-340.348	800.000	0.045	-0.187
-339.333	-53.861	-0.069	0.031
-338.318	587.207	0.077	0.188
-337.304	458.336	-0.128	0.282
-336.289	-80.035	-0.168	0.056
-335.275	-200.000	-0.017	-0.366
-334.260	-85.699	0.194	0.060
-333.245	357.233	-0.041	-0.080
-332.231	-158.073	0.289	-0.017
-331.216	-48.102	-0.150	0.072
-330.202	-67.161	0.037	-0.014
-329.187	-167.624	-0.204	0.008
-328.172	2.440	0.189	0.135
-327.158	-200.000	-0.015	-0.112
-326.143	-68.590	0.179	0.069
-325.129	-200.000	0.024	0.107
-324.114	59.940	-0.117	0.115
-323.099	-19.281	-0.159	-0.098
-322.085	-33.192	-0.073	-0.040
-321.070	-126.014	0.155	-0.023
-320.056	-78.972	0.209	-0.071
-319.041	36.433	0.114	0.099
-318.026	-200.000	-0.026	0.281
-317.012	332.755	0.271	0.519
-315.997	315.872	0.087	0.163
-314.983	54.614	0.200	-0.191
-313.968	800.000	0.044	0.159
-312.953	-86.414	0.231	-0.070
-311.939	128.553	0.108	0.136
-310.924	271.589	-0.097	0.170
-309.910	-114.583	0.226	-0.043
-308.895	800.000	0.039	-0.167
-307.880	50.963	-0.058	-0.055
-306.866	75.952	-0.201	-0.210
-305.851	488.871	0.103	0.233
-304.837	-200.000	-0.031	-0.374
-303.822	363.728	0.141	-0.280
-302.807	144.887	-0.290	-0.384
-301.793	-200.000	0.015	-0.281
-300.778	465.905	-0.029	-0.063
-299.764	-186.965	0.134	-0.002
-298.749	667.042	0.056	0.144
-297.735	-146.587	0.291	0.025
-296.720	737.838	0.013	0.035
-295.705	255.431	-0.125	0.212
-294.691	-3.059	0.259	-0.179
-293.676	-100.570	-0.171	-0.042
-292.662	49.585	0.167	0.155
-291.647	47.132	0.086	-0.079
-290.632	-17.894	0.107	0.067
-289.618	184.605	0.034	-0.050
-288.603	120.113	-0.288	0.353
-287.589	-33.907	0.325	0.177
-286.574	175.945	0.138	0.198
-285.559	76.045	-0.150	0.157
-284.545	15.378	-0.192	0.149
-283.530	800.000	0.043	0.150
-282.516	-180.136	0.134	-0.003
-281.501	-131.284	-0.094	-0.012
-280.486	-200.000	0.024	0.303
-279.472	107.354	-0.080	0.094
-278.457	-73.702	0.103	0.037
-277.443	-6.955	-0.153	0.103
-276.428	366.839	0.082	0.164
-275.413	-200.000	-0.016	0.196
-274.399	606.981	0.037	-0.092
-273.384	62.415	-0.106	0.104
-272.370	800.000	0.018	0.069
-271.355	-200.000	-0.030	0.214
-270.340	490.866	-0.088	-0.200
-269.326	-146.874	-0.146	0.012
-268.311	27.059	0.415	0.344
-267.297	800.000	0.055	0.200
-266.282	800.000	0.043	0.122
-265.267	-97.075	-0.211	0.055
-264.253	120.398	0.132	0.162
-263.238	74.800	0.071	0.074
-262.224	-67.714	-0.059	-0.023
-261.209	42.169	0.336	0.301
-260.195	21.082	0.115	-0.092
-259.180	-142.755	0.141	-0.014
-258.165	388.897	0.104	0.213
-257.151	101.655	-0.228	-0.263
-256.136	-28.625	-0.145	-0.082
-255.122	-121.525	-0.226	-0.037
-254.107	13.760	0.075	-0.057
-253.092	127.379	0.022	-0.028
-252.078	-35.942	-0.300	0.160
-251.063	91.917	-0.079	-0.088
-250.049	-200.000	-0.002	-0.057
-249.034	57.550	-0.044	-0.042
-248.019	-162.647	-0.322	0.016
-247.005	77.075	-0.237	-0.248
-245.990	800.000	-0.077	-0.223
-244.976	153.340	-0.194	-0.262
-243.961	800.000	-0.030	-0.126
-242.946	10.006	0.128	0.096
-241.932	619.836	0.123	-0.306
-240.917	-56.797	0.104	-0.045
-239.903	192.881	-0.129	0.193
-238.888	-28.492	0.253	0.144
-237.873	609.525	-0.086	0.212
-236.859	376.542	-0.068	-0.138
-235.844	88.311	0.083	-0.091
-234.830	519.772	-0.098	0.227
-233.815	800.000	-0.052	-0.149
-232.800	-200.000	-0.036	0.214
-231.786	-46.353	-0.039	0.019
-230.771	-200.000	0.006	0.269
-229.757	-39.902	0.077	-0.040
-228.742	-37.325	0.351	-0.185
-227.727	3.981	-0.177	0.127
-226.713	197.603	-0.110	0.165
-225.698	-200.000	-0.008	0.266
-224.684	8.036	-0.191	-0.142
-223.669	-200.000	0.001	0.095
-222.655	319.611	-0.146	0.272
-221.640	66.966	-0.086	0.087
-220.625	38.133	0.283	0.249
-219.611	-158.445	0.081	0.005
-218.596	-53.483	0.214	-0.097
-217.582	-29.351	0.102	-0.058
-216.567	53.242	0.105	0.099
-215.552	130.183	0.055	-0.069
-214.538	101.899	-0.182	0.209
-213.523	-200.000	-0.015	0.234
-212.509	800.000	-0.075	0.295
-211.494	-200.000	0.064	0.438
-210.479	-60.117	-0.186	0.078
-209.465	-10.519	-0.172	-0.112
-208.450	-32.035	-0.035	-0.019
-207.436	537.073	-0.029	0.069
-206.421	-147.571	-0.353	-0.029
-205.406	-200.000	0.020	0.096
-204.392	118.500	0.191	-0.232
-203.377	226.809	0.125	-0.200
-202.363	30.895	0.239	-0.202
-201.348	-5.869	0.252	0.170
-200.333	-8.987	0.083	0.055
-199.319	359.075	0.053	0.105
-198.304	67.554	-0.243	0.245
-197.290	-14.840	0.124	-0.078
-196.275	-200.000	-0.001	0.377
-195.260	800.000	-0.019	-0.062
-194.246	102.650	-0.273	0.315
-193.231	41.238	0.094	-0.084
-192.217	297.814	0.087	-0.158
-191.202	-200.000	0.026	-0.249
-190.187	36.486	-0.148	-0.129
-189.173	-90.835	-0.196	-0.056
-188.158	-200.000	0.011	-0.173
-187.144	800.000	0.121	-0.465
-186.129	176.536	-0.208	-0.298
-185.114	111.400	-0.108	-0.128
-184.100	74.896	-0.291	-0.302
-183.085	-8.320	-0.546	-0.362
-182.071	-36.707	-0.154	0.081
-181.056	-143.588	0.123	-0.012
-180.042	-200.000	-0.015	0.239
-179.027	-130.402	0.083	-0.011
-178.012	800.000	-0.036	-0.122
-176.998	99.942	-0.187	-0.214
-175.983	-105.676	0.184	-0.041
-174.969	-167.664	0.296	-0.012
-173.954	16.681	-0.097	0.076
-172.939	-78.379	0.424	0.143
-171.925	235.976	0.027	-0.044
-170.910	-23.180	0.224	0.133
-169.896	60.444	-0.023	0.023
-168.881	187.131	-0.175	0.257
-167.866	-7.877	0.135	-0.089
-166.852	-102.970	0.371	-0.087
-165.837	-75.592	-0.164	0.058
-164.823	208.524	-0.118	-0.182
-163.808	-69.253	-0.209	-0.079
-162.793	87.156	-0.225	-0.245
-161.779	-200.000	0.011	0.373
-160.764	-135.589	0.166	0.019
-159.750	11.565	-0.272	0.206
-158.735	-29.772	0.020	0.011
-157.720	54.857	0.231	0.219
-156.706	-200.000	-0.045	0.301
-155.691	-200.000	-0.009	0.173
-154.677	-200.000	-0.017	-0.177
-153.662	-134.636	-0.315	0.038
-152.647	-200.000	-0.011	0.105
-151.633	6.763	-0.203	-0.149
-150.618	126.648	0.075	0.093
-149.604	185.986	0.122	0.179
-148.589	800.000	0.088	0.313
-147.574	800.000	0.072	-0.225
-146.560	29.780	0.071	-0.060
-145.545	-41.630	-0.191	-0.096
-144.531	-200.000	0.014	0.167
-143.516	51.380	-0.274	-0.256
-142.502	800.000	0.078	-0.235
-141.487	-30.836	-0.274	-0.152
-140.472	-23.116	-0.229	-0.135
-139.458	-31.437	0.197	0.109
-138.443	-189.753	0.121	0.001
-137.429	-105.667	0.034	0.008
-136.414	-73.421	0.184	0.066
-135.399	-60.966	-0.153	-0.064
-134.385	-88.111	0.178	-0.053
-133.370	-146.216	0.100	-0.009
-132.356	748.171	0.114	0.301
-131.341	42.256	0.139	-0.124
-130.326	-56.724	-0.083	0.036
-129.312	-55.332	0.267	-0.118
-128.297	800.000	-0.044	-0.145
-127.283	-93.422	0.317	0.086
-126.268	-67.572	0.086	-0.033
-125.253	-122.690	0.265	-0.042
-124.239	108.926	0.104	-0.122
-123.224	105.531	-0.118	-0.137
-122.210	204.544	0.030	0.046
-121.195	35.088	0.173	0.149
-120.180	-129.096	0.316	-0.043
-119.166	800.000	-0.064	0.242
-118.151	-3.392	-0.142	-0.097
-117.137	-16.429	-0.368	-0.229
-116.122	-200.000	-0.003	0.227
-115.107	218.052	-0.136	0.214
-114.093	-166.949	-0.291	-0.012
-113.078	-28.402	0.033	0.019
-112.064	-189.307	-0.139	-0.002
-111.049	-190.688	0.189	-0.002
-110.034	67.615	0.085	-0.086
-109.020	-35.667	0.180	-0.096
-108.005	218.215	-0.187	0.293
-106.991	-200.000	-0.038	0.248
-105.976	16.886	0.076	-0.059
-104.962	43.688	-0.074	-0.066
-103.947	283.360	-0.179	-0.315
-102.932	-160.490	0.058	0.003
-101.918	131.757	-0.181	0.228
-100.903	-114.989	0.077	-0.014
-99.889	-24.819	0.194	0.113
-98.874	107.571	-0.048	-0.056
-97.859	384.323	0.060	-0.121
-96.845	-46.317	-0.055	-0.027
-95.830	210.898	-0.102	0.158
-94.816	-61.667	0.176	-0.073
-93.801	10.789	0.167	0.125
-92.786	65.081	0.199	0.197
-91.772	-200.000	0.003	0.066
-90.757	417.736	-0.129	0.270
-89.743	800.000	-0.069	0.243
-88.728	177.212	-0.101	-0.144
-87.713	-103.763	0.318	0.073
-86.699	30.504	0.171	-0.143
-85.684	61.563	0.044	-0.043
-84.670	91.179	-0.087	-0.096
-83.655	-78.455	-0.317	-0.107
-82.640	800.000	0.068	-0.215
-81.626	252.410	0.119	-0.199
-80.611	-87.600	-0.445	0.132
-79.597	-59.051	-0.303	-0.128
-78.582	155.364	0.094	-0.126
-77.567	186.349	0.025	0.036
-76.553	-200.000	0.013	0.196
-75.538	-58.060	-0.196	-0.084
-74.524	-14.116	-0.084	0.053
-73.509	-85.451	0.306	0.094
-72.494	36.083	-0.121	-0.105
-71.480	-145.997	-0.342	0.030
-70.465	-31.958	-0.375	0.206
-69.451	-46.808	0.218	-0.105
-68.436	-80.429	-0.328	0.107
-67.422	-41.704	0.265	-0.133
-66.407	-27.433	-0.298	-0.170
-65.392	-36.313	0.157	-0.083
-64.378	-8.521	-0.280	-0.184
-63.363	-29.511	-0.202	0.113
-62.349	-44.755	-0.127	0.062
-61.334	117.721	-0.870	-1.051
-60.319	320.354	0.381	0.710
-59.305	295.769	-0.306	-0.549
-58.290	800.000	0.288	1.033
-57.276	791.244	0.533	1.437
-56.261	-200.000	100.187	615.066
-55.246	554.740	1436.352	3388.180
-54.232	187.307	2630.608	3846.151
-53.217	115.391	2166.282	2594.420
-52.203	41.704	1695.381	1505.800
-51.188	34.052	1506.141	1286.172
-50.173	31.610	1480.065	1247.600
-49.159	51.985	1532.670	1430.667
-48.144	52.981	1549.742	1453.304
-47.130	34.152	1507.501	1287.807
-46.115	31.175	1492.426	1254.896
-45.100	30.893	1489.099	1250.156
-44.086	30.855	1487.387	1248.417
-43.071	30.888	1485.092	1246.663
-42.057	30.815	1483.294	1244.616
-41.042	30.892	1481.745	1243.782
-40.027	30.878	1480.289	1242.412
-39.013	30.743	1479.039	1240.415
-37.998	30.715	1478.125	1239.413
-36.984	30.780	1476.865	1238.740
-35.969	30.824	1475.495	1237.836
-34.954	30.775	1473.753	1235.997
-33.940	30.818	1472.228	1234.955
-32.925	30.811	1471.150	1233.955
-31.911	30.788	1470.393	1233.123
-30.896	30.979	1468.184	1232.478
-29.881	30.898	1467.157	1231.038
-28.867	30.990	1465.461	1230.170
-27.852	30.786	1464.922	1228.325
-26.838	30.811	1463.315	1227.090
-25.823	30.907	1461.683	1226.308
-24.809	30.858	1460.172	1224.666
-23.794	30.868	1458.939	1223.651
-22.779	30.807	1458.061	1222.466
-21.765	30.862	1456.482	1221.456
-20.750	30.937	1455.094	1220.733
-19.736	30.821	1454.486	1219.413
-18.721	30.825	1453.207	1218.323
-17.706	30.837	1451.867	1217.228
-16.692	30.881	1450.720	1216.501
-15.677	30.738	1450.455	1215.299
-14.663	30.822	1448.667	1214.301
-13.648	30.690	1448.128	1212.941
-12.633	30.828	1447.127	1212.954
-11.619	30.793	1446.662	1212.289
-10.604	30.814	1445.640	1211.519
-9.590	30.732	1444.576	1210.048
-8.575	30.831	1444.270	1210.384
-7.560	30.780	1442.526	1208.549
-6.546	30.760	1442.334	1208.206
-5.531	30.742	1441.630	1207.454
-4.517	30.728	1440.567	1206.420
-3.502	30.607	1439.909	1205.040
-2.487	30.755	1438.712	1204.946
-1.473	30.732	1437.250	1203.528
-0.458	30.826	1435.594	1202.703
0.556	28.383	1427.150	1191.550
1.571	25.353	1400.811	1150.081
2.586	21.800	1340.908	1078.979
3.600	20.158	1259.822	1004.139
4.615	18.939	1215.914	962.240
5.629	16.474	1161.027	905.533
6.644	7.994	1077.603	798.065
7.659	0.926	1037.300	733.970
8.673	-0.174	1031.339	724.386
9.688	-0.320	1028.840	721.862
10.702	-0.450	1027.214	720.034
11.717	-0.326	1025.077	719.065
12.731	2.575	1028.133	735.081
13.746	11.412	1041.244	787.176
14.761	18.119	1049.071	825.512
15.775	19.227	1049.825	831.383
16.790	19.434	1048.621	831.352
17.804	19.193	1048.040	829.661
18.819	18.823	1047.495	827.374
19.834	18.950	1047.180	827.664
20.848	18.962	1046.645	827.225
21.863	18.987	1045.961	826.730
22.877	19.051	1045.635	826.704
23.892	18.995	1044.678	825.607
24.907	18.804	1044.512	824.485
25.921	19.020	1043.546	824.686
26.936	19.084	1042.689	824.242
27.950	19.029	1041.407	822.895
28.965	18.883	1040.602	821.486
29.980	18.911	1038.303	819.732
30.994	18.918	1036.879	818.572
32.009	19.108	1036.320	818.960
33.023	19.172	1035.615	818.635
34.038	18.829	1034.521	816.070
35.053	18.912	1033.641	815.696
36.067	18.949	1033.697	815.842
37.082	19.112	1031.987	815.192
38.096	19.175	1031.444	814.990
39.111	19.292	1030.393	814.640
40.126	19.343	1030.082	814.563
41.140	19.244	1028.867	813.065
42.155	18.905	1027.455	810.281
43.169	18.826	1025.723	808.470
44.184	18.801	1024.991	807.702
45.199	18.806	1023.787	806.709
46.213	18.665	1022.934	805.301
47.228	18.625	1021.603	803.997
48.242	18.866	1020.881	804.487
49.257	18.774	1019.996	803.285
50.271	18.923	1018.899	803.048
51.286	19.056	1018.272	803.101
52.301	19.062	1017.386	802.358
53.315	19.054	1016.551	801.591
54.330	19.058	1015.663	800.843
55.344	18.971	1015.058	799.886
56.359	19.107	1013.700	799.380
57.374	18.935	1013.134	798.062
58.388	18.909	1011.870	796.876
59.403	18.939	1010.959	796.230
60.417	18.832	1010.662	795.429
61.432	18.732	1009.643	794.092
62.447	18.697	1009.355	793.636
63.461	19.032	1007.851	793.929
64.476	18.851	1007.316	792.601
65.490	19.059	1006.160	792.580
66.505	18.935	1005.462	791.388
67.520	18.870	1004.689	790.411
68.534	18.949	1004.102	790.242
69.549	18.685	1003.189	788.242
70.563	18.579	1001.862	786.643
71.578	18.539	1000.737	785.506
72.593	18.470	1000.491	784.928
73.607	18.590	998.495	783.843
74.622	18.550	998.117	783.295
75.636	18.681	997.696	783.493
76.651	18.810	997.090	783.538
77.666	18.626	996.012	781.779
78.680	18.616	995.008	780.877
79.695	18.714	994.276	780.678
80.709	18.741	994.142	780.627
81.724	18.748	993.233	779.879
82.739	18.797	991.782	778.894
83.753	18.726	991.323	778.139
84.768	19.076	990.787	779.238
85.782	19.064	990.370	778.785
86.797	19.436	988.616	779.018
87.812	19.425	987.884	778.322
88.826	19.124	987.111	776.285
89.841	19.092	986.778	775.810
90.855	19.250	985.394	775.364
91.870	19.135	985.042	774.502
92.884	19.165	984.022	773.766
93.899	19.185	982.907	772.910
94.914	19.073	982.059	771.674
95.928	19.073	981.452	771.128
96.943	19.210	980.571	770.980
97.957	19.006	979.260	768.971
98.972	18.881	978.173	767.491
99.987	18.632	977.186	765.537
101.001	18.633	976.480	764.923
102.016	18.979	976.173	766.155
103.030	19.061	975.117	765.625
104.045	18.878	974.390	764.173
105.060	18.684	972.820	762.011
106.074	18.620	971.190	760.384
107.089	18.649	970.992	760.288
108.103	19.006	971.087	761.877
109.118	19.149	969.888	761.502
110.133	18.994	968.596	759.735
111.147	18.892	967.772	758.571
112.162	18.947	966.345	757.629
113.176	18.615	964.842	754.923
114.191	18.704	964.157	754.714
115.206	18.745	963.624	754.410
116.220	18.517	962.247	752.263
117.235	18.507	961.248	751.372
118.249	18.653	960.421	751.297
119.264	18.642	959.701	750.620
120.279	18.666	958.324	749.580
121.293	18.574	957.735	748.655
122.308	18.696	957.059	748.589
123.322	18.731	956.481	748.225
124.337	18.687	955.286	747.032
125.352	18.592	953.764	745.365
126.366	18.247	951.805	742.271
127.381	17.958	950.774	740.146
128.395	18.417	950.603	741.938
129.410	18.983	950.082	743.914
130.424	19.049	949.336	743.550
131.439	19.066	948.062	742.557
132.454	19.024	946.914	741.413
133.468	19.048	946.114	740.826
134.483	18.953	944.882	739.387
135.497	19.169	944.187	739.706
136.512	19.174	944.148	739.631
137.527	19.261	943.191	739.186
138.541	19.442	941.779	738.792
139.556	19.364	941.493	738.167
140.570	19.246	940.717	736.988
141.585	19.297	939.820	736.441
142.600	19.139	939.298	735.292
143.614	19.210	937.624	734.219
144.629	19.284	937.550	734.409
145.643	19.511	936.795	734.721
146.658	19.387	935.481	733.099
147.673	19.219	934.291	731.385
148.687	19.335	932.749	730.608
149.702	19.197	932.218	729.540
150.716	19.090	931.001	728.072
151.731	19.191	930.176	727.790
152.746	19.176	929.487	727.122
153.760	19.319	929.230	727.461
154.775	19.465	927.909	726.978
155.789	19.572	926.890	726.566
156.804	19.341	925.976	724.814
157.819	19.462	925.057	724.537
158.833	19.414	924.110	723.530
159.848	19.510	923.645	723.504
160.862	19.545	923.046	723.120
161.877	19.385	921.992	721.561
162.892	19.362	921.042	720.656
163.906	19.492	920.521	720.728
164.921	19.480	919.626	719.912
165.935	19.326	918.644	718.437
166.950	19.438	917.675	718.082
167.964	19.456	916.585	717.243
168.979	19.355	915.344	715.789
169.994	19.374	914.591	715.217
171.008	19.384	912.819	713.806
172.023	19.433	912.387	713.609
173.037	19.432	911.896	713.157
174.052	19.224	910.454	711.110
175.067	18.935	909.897	709.418
176.081	19.134	908.768	709.296
177.096	19.286	908.275	709.472
178.110	19.273	907.269	708.572
179.125	19.263	905.817	707.335
180.140	18.808	905.424	705.096
181.154	18.968	904.433	704.920
182.169	18.981	903.970	704.548
183.183	19.230	903.481	705.127
184.198	19.332	903.166	705.235
185.213	19.374	902.218	704.603
186.227	19.216	901.902	703.647
187.242	19.360	901.227	703.645
188.256	19.516	900.475	703.635
189.271	19.399	899.729	702.513
190.286	19.444	898.949	702.024
191.300	19.410	897.932	701.029
192.315	19.025	896.809	698.528
193.329	18.310	895.487	694.536
194.344	17.790	894.579	691.661
195.359	18.573	894.407	694.639
196.373	19.057	894.858	696.892
197.388	19.393	894.555	697.953
198.402	19.249	893.724	696.661
199.417	19.177	892.729	695.532
200.432	19.218	892.374	695.361
201.446	19.055	891.805	694.197
202.461	18.726	890.708	691.956
203.475	18.823	890.313	691.978
204.490	18.481	888.707	689.294
205.504	17.435	886.942	683.665
206.519	17.730	887.341	685.095
207.534	18.681	887.508	688.985
208.548	18.797	886.718	688.775
209.563	19.392	885.751	690.347
210.577	19.171	885.632	689.306
211.592	18.992	884.676	687.788
212.607	19.298	884.259	688.625
213.621	19.441	883.807	688.782
214.636	19.334	882.908	687.593
215.650	19.363	882.382	687.238
216.665	19.441	881.978	687.177
217.680	19.627	881.222	687.265
218.694	19.607	880.644	686.675
219.709	19.218	879.532	684.201
220.723	18.860	878.698	682.072
221.738	19.120	878.913	683.209
222.753	19.365	877.909	683.341
223.767	19.217	877.299	682.217
224.782	19.398	876.145	681.976
225.796	19.420	875.848	681.774
226.811	19.671	874.860	681.932
227.826	19.256	873.542	679.210
228.840	18.436	872.137	674.831
229.855	18.358	871.663	674.097
230.869	18.664	871.280	674.943
231.884	18.459	870.283	673.306
232.899	18.501	869.905	673.121
233.913	19.092	870.272	675.666
234.928	19.255	869.669	675.777
235.942	19.317	869.012	675.448
236.957	19.360	868.093	674.843
237.972	19.010	867.145	672.678
238.986	18.958	866.693	672.063
240.001	19.031	866.007	671.759
241.015	19.232	864.949	671.663
242.030	19.019	864.545	670.459
243.045	19.265	863.925	670.877
244.059	19.269	864.017	670.903
245.074	19.465	863.209	670.978
246.088	19.489	862.183	670.217
247.103	19.116	861.078	667.850
248.117	19.028	861.010	667.396
249.132	19.542	860.529	668.957
250.147	19.802	860.542	669.917
251.161	19.916	859.215	669.266
252.176	20.095	859.065	669.781
253.190	19.926	858.657	668.749
254.205	19.836	858.214	667.997
255.220	20.281	857.781	669.318
256.234	20.219	857.097	668.489
257.249	20.110	856.013	667.164
258.263	20.105	855.013	666.305
259.278	20.023	854.905	665.845
260.293	20.267	854.281	666.238
261.307	20.080	853.837	665.117
262.322	20.032	852.984	664.209
263.336	19.932	852.253	663.198
264.351	19.422	850.906	660.140
265.366	18.351	848.945	654.469
266.380	17.887	848.102	651.992
267.395	18.892	848.473	656.054
268.409	19.615	848.542	658.810
269.424	19.676	847.748	658.369
270.439	19.617	847.630	657.993
271.453	19.942	846.714	658.459
272.468	19.951	845.772	657.703
273.482	20.049	845.696	657.956
274.497	20.329	844.773	658.244
275.512	20.093	843.704	656.459
276.526	19.469	842.694	653.253
277.541	19.707	842.114	653.646
278.555	20.123	841.878	654.978
279.570	19.799	841.282	653.230
280.585	19.482	840.570	651.424
281.599	19.645	840.004	651.542
282.614	19.749	839.514	651.495
283.628	19.421	838.108	649.116
284.643	19.136	837.743	647.704
285.657	19.454	837.358	648.543
286.672	19.448	836.759	647.999
287.687	19.069	835.477	645.526
288.701	19.191	835.333	645.817
289.716	19.561	835.442	647.231
290.730	19.223	834.382	645.086
291.745	19.396	833.351	644.881
292.760	19.217	832.188	643.253
293.774	18.923	832.241	642.142
294.789	19.810	832.557	645.641
295.803	20.323	832.468	647.428
296.818	20.564	831.905	647.832
297.833	20.661	831.676	647.956
298.847	20.290	830.292	645.443
299.862	20.033	829.474	643.795
300.876	20.099	829.169	643.744
301.891	20.307	828.564	643.991
302.906	20.465	827.982	644.068
303.920	19.997	826.708	641.286
304.935	19.856	826.015	640.169
305.949	20.427	825.161	641.561
306.964	20.547	825.126	641.921
307.979	20.183	824.645	640.147
308.993	20.090	824.181	639.386
310.008	20.563	823.734	640.727
311.022	20.761	823.089	640.898
312.037	20.316	822.940	639.085
313.052	20.227	822.436	638.308
314.066	20.206	821.503	637.453
315.081	19.519	820.081	633.773
316.095	18.895	818.832	630.460
317.110	19.378	819.365	632.588
318.125	20.290	819.236	635.775
319.139	19.914	817.970	633.361
320.154	18.730	816.680	627.980
321.168	18.410	815.735	626.028
322.183	18.969	816.217	628.386
323.197	19.793	816.066	631.223
324.212	20.184	815.378	632.059
325.227	20.275	815.356	632.317
326.241	20.362	814.811	632.157
327.256	20.222	814.558	631.396
328.270	20.145	814.188	630.773
329.285	20.220	813.174	630.204
330.300	20.073	812.090	628.775
331.314	19.755	811.743	627.295
332.329	19.921	810.692	627.029
333.343	20.194	810.633	627.917
334.358	20.468	809.927	628.307
335.373	20.451	809.827	628.112
336.387	20.515	809.141	627.755
337.402	20.682	808.727	627.981
338.416	20.795	808.258	627.968
339.431	20.797	807.463	627.303
340.446	20.861	807.112	627.206
341.460	20.893	806.651	626.905
342.475	20.785	805.804	625.805
343.489	20.679	805.045	624.780
344.504	20.582	804.871	624.242
345.519	20.825	804.248	624.575
346.533	21.037	804.160	625.211
347.548	21.187	803.569	625.231
348.562	21.097	802.858	624.302
349.577	21.203	802.805	624.586
350.592	21.153	802.063	623.773
351.606	21.207	801.582	623.536
352.621	21.029	801.630	622.882
353.635	21.113	800.635	622.354
354.650	20.948	800.024	621.236
355.665	20.656	798.846	619.226
356.679	19.767	797.371	614.870
357.694	19.560	797.148	613.906
358.708	20.100	797.262	615.860
359.723	20.236	796.178	615.453
360.738	20.362	796.302	615.940
361.752	20.815	795.952	617.221
362.767	20.963	795.307	617.188
363.781	21.143	795.152	617.652
364.796	21.380	795.401	618.628
365.810	21.382	794.981	618.257
366.825	21.519	794.201	618.077
367.840	21.324	794.154	617.297
368.854	21.346	793.147	616.537
369.869	20.985	792.614	614.798
370.883	20.927	791.795	613.902
371.898	20.765	791.590	613.117
372.913	20.734	790.742	612.298
373.927	20.805	789.883	611.828
374.942	20.989	789.824	612.375
375.956	21.142	789.145	612.332
376.971	21.057	788.777	611.695
377.986	21.246	788.018	611.713
379.000	21.482	787.814	612.325
380.015	21.438	787.333	611.743
381.029	21.342	786.563	610.757
382.044	21.206	786.051	609.830
383.059	21.302	785.843	609.949
384.073	21.431	785.149	609.806
385.088	21.345	784.765	609.157
386.102	21.576	784.135	609.415
387.117	21.411	783.652	608.413
388.132	21.172	783.368	607.306
389.146	21.215	782.188	606.490
390.161	20.580	781.323	603.560
391.175	20.471	781.204	603.036
392.190	21.172	780.858	605.147
393.205	21.150	780.533	604.767
394.219	20.080	779.370	600.106
395.234	18.773	776.853	593.602
396.248	18.219	776.011	590.991
397.263	19.326	776.806	595.372
398.278	20.781	777.919	601.201
399.292	21.331	777.668	602.850
400.307	20.936	777.346	601.184
401.321	21.043	776.773	601.056
402.336	21.149	776.668	601.287
403.350	21.296	776.467	601.586
404.365	21.532	776.421	602.308
405.380	21.754	775.700	602.460
406.394	22.019	775.838	603.425
407.409	22.235	775.423	603.789
408.423	21.974	774.851	602.396
409.438	22.124	773.682	601.949
410.453	22.002	773.545	601.371
411.467	22.029	773.485	601.363
412.482	22.099	772.435	600.732
413.496	21.863	772.540	599.954
414.511	22.063	772.184	600.307
415.526	22.096	771.593	599.908
416.540	22.044	771.010	599.225
417.555	21.948	770.999	598.834
418.569	21.785	770.126	597.549
419.584	21.717	769.254	596.588
420.599	21.773	768.872	596.429
421.613	158.569	1361.144	1799.317
422.628	136.707	1447.406	1799.405
