DTS Sentinel unit serial number:	SN413079Multiplexer serial number:	ORYXHardware model number:	OX4-SRSoftware version number:	ORYX F/W v4.00 Oryx Data Collector v3.7.2.0data status	okinstallation	princeton_trtdifferential loss correction	single-endedforward channel	channel 3reverse channel	N/Adate	2019/09/12time	17:50:11forward acquisition time	60.00reverse acquisition time	0.00gamma	496.2192k internal	0.2317k external	0.2317temperature offset calibration	1.0094default loss term (dB/km)	0.3790temperature slope calibration	1.0000multiplexer offset coefficient	1.0000multiplexer slope coefficient	1.0000fibre end	0.00T internal ref (°C)	34.02T ext. ref 1 (°C)	2.91T ext. ref 2 (°C)	28.22length (m)	temperature (°C)	Stokes	anti-Stokes-747.200	-200.000	0.037	0.579
-746.185	-41.129	0.179	0.094
-745.171	130.894	-0.083	0.108
-744.156	-99.417	-0.369	-0.094
-743.142	-124.777	0.146	-0.023
-742.127	-200.000	-0.008	0.202
-741.112	-127.018	-0.246	-0.037
-740.098	-36.355	0.379	0.207
-739.083	299.305	-0.045	0.085
-738.069	177.157	-0.164	0.241
-737.054	800.000	-0.076	0.292
-736.039	19.504	-0.184	-0.149
-735.025	-96.743	0.128	0.034
-734.010	84.523	-0.070	0.077
-732.996	128.378	-0.205	0.264
-731.981	-54.650	-0.264	0.121
-730.966	776.650	-0.035	-0.096
-729.952	228.495	-0.250	0.412
-728.937	-200.000	-0.030	-0.284
-727.923	123.935	-0.188	0.239
-726.908	-41.937	0.176	0.091
-725.894	184.538	-0.236	-0.354
-724.879	486.865	-0.099	-0.228
-723.864	-73.142	0.175	0.065
-722.850	-200.000	0.032	0.152
-721.835	447.531	0.070	-0.156
-720.821	-5.666	-0.061	-0.043
-719.806	126.479	0.089	-0.114
-718.791	-170.535	-0.173	-0.006
-717.777	-28.963	-0.164	0.095
-716.762	-179.075	0.315	0.007
-715.748	-93.819	0.324	0.090
-714.733	125.846	0.092	-0.118
-713.718	-106.415	-0.272	0.062
-712.704	-110.407	-0.303	-0.064
-711.689	57.875	0.313	-0.310
-710.675	-200.000	0.006	0.065
-709.660	151.957	0.019	0.026
-708.645	-169.038	0.216	-0.008
-707.631	461.506	-0.026	0.058
-706.616	-200.000	-0.054	-0.250
-705.602	-106.866	-0.174	-0.039
-704.587	-4.911	0.291	-0.202
-703.572	-74.351	-0.057	-0.021
-702.558	-200.000	0.028	0.246
-701.543	260.614	-0.051	0.089
-700.529	-65.151	0.174	0.071
-699.514	669.807	-0.111	-0.291
-698.499	-149.977	0.219	0.017
-697.485	-80.422	-0.167	-0.056
-696.470	-110.739	-0.580	0.121
-695.456	800.000	0.034	-0.148
-694.441	47.433	0.219	-0.206
-693.426	113.762	-0.160	0.196
-692.412	-29.569	0.330	0.190
-691.397	-2.317	-0.105	0.074
-690.383	387.770	0.012	-0.026
-689.368	568.425	0.171	-0.421
-688.354	45.433	0.219	-0.204
-687.339	-58.797	-0.278	-0.122
-686.324	-93.532	-0.044	-0.012
-685.310	-200.000	0.042	-0.207
-684.295	670.757	0.081	-0.212
-683.281	690.003	0.093	0.247
-682.266	14.220	-0.132	-0.104
-681.251	67.225	-0.096	0.099
-680.237	243.801	0.122	-0.206
-679.222	-200.000	0.037	0.193
-678.208	-64.907	0.176	-0.072
-677.193	-77.605	0.082	0.029
-676.178	-112.894	0.134	-0.027
-675.164	-46.029	-0.244	-0.121
-674.149	-20.784	-0.181	0.112
-673.135	142.817	-0.248	0.333
-672.120	-50.358	0.069	-0.033
-671.105	-200.000	0.007	-0.039
-670.091	-200.000	0.009	0.071
-669.076	-27.568	-0.237	-0.139
-668.062	18.226	-0.074	0.060
-667.047	-200.000	0.027	0.305
-666.032	-1.676	0.182	-0.129
-665.018	207.373	0.175	0.275
-664.003	-78.715	0.365	-0.126
-662.989	800.000	0.089	-0.359
-661.974	94.321	-0.186	-0.213
-660.959	-200.000	0.011	-0.134
-659.945	-152.966	0.110	-0.008
-658.930	-84.829	-0.313	0.099
-657.916	100.157	0.024	-0.028
-656.901	-200.000	0.058	-0.374
-655.886	-35.744	0.247	-0.135
-654.872	-82.478	-0.228	-0.075
-653.857	-113.673	0.182	0.036
-652.843	-200.000	0.007	-0.104
-651.828	104.740	-0.091	0.109
-650.814	-28.085	0.176	-0.103
-649.799	-200.000	-0.004	0.106
-648.784	-112.852	-0.234	0.047
-647.770	800.000	0.073	-0.206
-646.755	172.920	-0.109	-0.158
-645.741	-46.580	-0.068	-0.033
-644.726	7.763	0.049	-0.037
-643.711	800.000	-0.108	0.432
-642.697	-87.573	0.043	-0.013
-641.682	-200.000	0.047	-0.257
-640.668	-142.922	-0.224	-0.022
-639.653	800.000	0.099	0.317
-638.638	78.235	-0.093	-0.101
-637.624	50.606	-0.074	-0.071
-636.609	-123.765	0.152	0.024
-635.595	-200.000	-0.025	-0.311
-634.580	54.749	-0.131	-0.127
-633.565	188.024	0.039	0.058
-632.551	85.458	0.230	-0.255
-631.536	700.047	0.027	-0.071
-630.522	470.719	0.145	0.328
-629.507	800.000	0.041	0.117
-628.492	-63.705	-0.434	0.179
-627.478	397.100	0.101	-0.212
-626.463	-83.146	-0.100	-0.032
-625.449	-200.000	0.044	-0.304
-624.434	176.548	0.067	-0.098
-623.419	10.149	0.171	-0.131
-622.405	-91.527	-0.299	0.086
-621.390	-47.912	-0.083	0.040
-620.376	451.254	0.118	-0.264
-619.361	-58.104	0.152	0.067
-618.346	-62.473	0.303	0.127
-617.332	-30.250	-0.155	-0.089
-616.317	-200.000	-0.017	0.176
-615.303	-30.987	-0.237	0.135
-614.288	41.260	-0.402	-0.366
-613.273	-200.000	0.009	-0.331
-612.259	-200.000	-0.009	0.181
-611.244	8.375	-0.154	0.117
-610.230	719.490	0.077	-0.206
-609.215	-200.000	-0.001	-0.111
-608.201	-188.443	-0.057	-0.001
-607.186	208.373	0.120	0.190
-606.171	800.000	0.017	-0.054
-605.157	-154.174	-0.196	-0.013
-604.142	-122.055	0.175	0.029
-603.128	-137.985	0.044	-0.005
-602.113	-200.000	-0.031	-0.189
-601.098	-22.702	-0.195	-0.119
-600.084	44.727	-0.149	-0.138
-599.069	800.000	-0.106	0.352
-598.055	-162.185	0.404	0.020
-597.040	576.333	-0.049	0.121
-596.025	-200.000	0.032	-0.201
-595.011	800.000	-0.058	-0.244
-593.996	-132.728	0.516	0.066
-592.982	-22.512	0.391	0.238
-591.967	15.605	-0.182	-0.144
-590.952	66.358	-0.328	-0.335
-589.938	800.000	0.023	0.071
-588.923	-164.695	-0.102	0.005
-587.909	18.423	-0.022	0.018
-586.894	221.815	0.041	-0.067
-585.879	800.000	0.196	-0.638
-584.865	404.649	0.098	0.208
-583.850	-128.295	0.182	0.026
-582.836	181.450	0.025	0.037
-581.821	158.160	-0.116	-0.162
-580.806	-39.154	0.145	-0.077
-579.792	-8.915	-0.239	-0.161
-578.777	46.333	0.184	0.171
-577.763	-200.000	-0.014	0.162
-576.748	-121.914	0.277	0.046
-575.733	46.571	0.299	-0.279
-574.719	-29.670	-0.292	-0.168
-573.704	-200.000	-0.001	-0.080
-572.690	-64.293	0.244	-0.100
-571.675	-200.000	0.010	0.187
-570.661	-102.393	0.187	0.045
-569.646	180.424	-0.216	-0.319
-568.631	-200.000	0.021	-0.130
-567.617	-81.404	0.240	-0.079
-566.602	-200.000	0.034	-0.150
-565.588	-114.202	0.206	-0.040
-564.573	-79.343	-0.215	-0.073
-563.558	526.832	-0.125	0.297
-562.544	21.721	0.280	0.229
-561.529	209.260	-0.051	0.080
-560.515	-96.230	-0.275	-0.073
-559.500	94.582	-0.157	-0.180
-558.485	800.000	0.017	-0.072
-557.471	-21.764	0.118	-0.072
-556.456	-200.000	-0.015	-0.172
-555.442	-107.623	0.461	-0.101
-554.427	800.000	0.072	0.201
-553.412	357.008	0.082	-0.164
-552.398	26.843	0.280	0.236
-551.383	670.393	-0.166	0.432
-550.369	-31.504	-0.191	0.108
-549.354	-115.756	0.202	0.038
-548.339	800.000	-0.074	0.216
-547.325	-200.000	-0.038	0.286
-546.310	23.258	-0.070	-0.057
-545.296	800.000	0.056	-0.169
-544.281	-200.000	-0.004	-0.082
-543.266	369.685	0.033	0.066
-542.252	-153.683	-0.153	0.011
-541.237	48.489	0.157	0.148
-540.223	-54.720	-0.084	-0.038
-539.208	-67.296	-0.253	-0.100
-538.193	-182.234	-0.063	-0.001
-537.179	-18.936	0.088	0.055
-536.164	222.045	0.065	-0.105
-535.150	800.000	0.069	0.217
-534.135	687.612	0.126	-0.331
-533.121	-149.129	0.093	0.007
-532.106	172.283	-0.032	0.046
-531.091	-200.000	-0.057	-0.285
-530.077	198.059	-0.156	0.240
-529.062	-35.152	0.089	-0.049
-528.048	74.582	0.192	-0.203
-527.033	-50.872	-0.040	-0.019
-526.018	-125.093	0.471	0.073
-525.004	331.814	0.073	-0.141
-523.989	71.829	-0.061	-0.064
-522.975	-116.962	-0.111	0.020
-521.960	-140.431	-0.074	0.008
-520.945	-200.000	-0.020	0.189
-519.931	-45.895	-0.092	0.045
-518.916	85.315	-0.193	-0.212
-517.902	16.032	-0.214	-0.169
-516.887	-50.057	0.384	0.183
-515.872	179.641	0.037	-0.054
-514.858	267.586	-0.011	0.018
-513.843	-10.581	-0.095	0.063
-512.829	-31.386	0.252	0.142
-511.814	-7.355	0.199	0.135
-510.799	51.303	-0.263	-0.251
-509.785	-63.342	-0.067	-0.027
-508.770	-34.165	-0.305	-0.168
-507.756	-200.000	0.010	0.049
-506.741	-36.865	-0.099	-0.053
-505.726	-159.878	-0.100	0.006
-504.712	368.752	0.093	-0.188
-503.697	-87.958	-0.193	-0.058
-502.683	-200.000	0.006	-0.045
-501.668	395.942	-0.134	0.281
-500.653	-200.000	0.019	-0.129
-499.639	-56.014	0.179	0.080
-498.624	-124.806	0.142	0.022
-497.610	-200.000	-0.002	0.296
-496.595	800.000	-0.037	0.143
-495.581	-53.578	0.289	0.132
-494.566	-39.817	0.243	-0.127
-493.551	-200.000	-0.020	0.166
-492.537	43.384	-0.561	0.514
-491.522	-200.000	0.029	-0.146
-490.508	-45.869	0.267	0.132
-489.493	29.902	0.142	0.121
-488.478	-25.746	0.228	-0.135
-487.464	98.265	-0.257	-0.297
-486.449	-136.381	-0.204	0.024
-485.435	210.434	-0.040	0.063
-484.420	14.189	-0.262	0.205
-483.405	19.911	-0.263	0.212
-482.391	-200.000	-0.034	-0.266
-481.376	-200.000	0.049	-0.290
-480.362	420.439	-0.111	-0.239
-479.347	45.422	0.088	-0.081
-478.332	94.283	0.128	0.146
-477.318	344.236	-0.045	0.089
-476.303	99.808	0.135	-0.157
-475.289	-200.000	-0.042	0.247
-474.274	4.710	-0.240	-0.177
-473.259	800.000	-0.087	-0.368
-472.245	-80.825	-0.296	0.099
-471.230	-200.000	-0.002	-0.182
-470.216	-16.667	-0.069	-0.043
-469.201	12.563	-0.324	-0.250
-468.186	-200.000	0.017	-0.147
-467.172	140.114	-0.113	0.149
-466.157	-166.072	0.154	0.007
-465.143	168.392	0.045	0.064
-464.128	82.972	0.159	-0.173
-463.113	-200.000	0.037	-0.163
-462.099	39.397	0.079	-0.071
-461.084	-41.779	-0.209	-0.107
-460.070	-132.164	-0.383	-0.050
-459.055	30.988	-0.183	0.157
-458.040	130.183	0.127	-0.162
-457.026	179.430	0.134	0.196
-456.011	769.091	-0.077	0.211
-454.997	-89.718	0.173	-0.051
-453.982	-58.913	-0.330	-0.143
-452.968	-61.827	0.211	0.088
-451.953	11.683	-0.134	-0.103
-450.938	14.346	-0.496	-0.387
-449.924	18.797	-0.024	-0.019
-448.909	-144.775	0.268	-0.025
-447.895	197.825	0.236	0.361
-446.880	247.065	-0.106	-0.178
-445.865	-133.375	-0.304	-0.038
-444.851	800.000	0.050	0.153
-443.836	800.000	-0.111	-0.319
-442.822	-92.101	0.329	-0.093
-441.807	25.753	-0.191	0.159
-440.792	-88.168	0.332	-0.100
-439.778	511.251	0.091	0.213
-438.763	98.451	0.424	-0.489
-437.749	800.000	-0.048	-0.143
-436.734	-200.000	0.007	-0.372
-435.719	-110.017	0.228	-0.048
-434.705	-130.073	-0.415	-0.057
-433.690	-16.103	-0.142	0.090
-432.676	-26.626	-0.196	-0.115
-431.661	-200.000	-0.067	0.456
-430.646	289.957	-0.076	0.138
-429.632	-200.000	0.011	0.115
-428.617	373.320	-0.120	0.243
-427.603	-123.731	0.247	-0.039
-426.588	18.085	0.187	-0.149
-425.573	32.084	-0.115	0.099
-424.559	800.000	-0.115	0.462
-423.544	677.988	0.122	-0.318
-422.530	20.325	-0.149	0.120
-421.515	164.740	-0.066	0.093
-420.500	42.343	0.265	-0.241
-419.486	-82.862	0.127	0.041
-418.471	458.745	-0.045	0.100
-417.457	800.000	0.080	0.272
-416.442	-67.201	0.084	-0.033
-415.428	-14.600	0.106	-0.068
-414.413	275.732	0.073	-0.130
-413.398	-134.389	-0.178	0.022
-412.384	-200.000	0.006	0.074
-411.369	17.449	0.202	-0.161
-410.355	45.058	-0.170	-0.157
-409.340	-200.000	-0.006	-0.152
-408.325	-93.591	0.241	0.067
-407.311	-64.178	-0.133	0.054
-406.296	800.000	-0.062	0.250
-405.282	-200.000	0.048	-0.311
-404.267	-8.551	0.212	0.143
-403.252	-29.866	-0.150	0.086
-402.238	800.000	0.068	0.231
-401.223	-172.826	-0.106	0.003
-400.209	-61.837	-0.150	0.063
-399.194	-58.117	0.247	0.107
-398.179	-82.486	-0.069	0.022
-397.165	-89.160	0.106	0.031
-396.150	-89.956	-0.240	0.070
-395.136	124.896	0.099	0.125
-394.121	-106.980	0.115	0.025
-393.106	-200.000	-0.016	0.470
-392.092	-200.000	0.004	-0.160
-391.077	721.586	0.124	0.329
-390.063	-22.935	-0.288	-0.173
-389.048	-47.849	0.194	-0.094
-388.033	54.899	-0.185	0.178
-387.019	97.892	-0.122	-0.140
-386.004	-200.000	-0.021	-0.224
-384.990	-51.421	0.118	-0.055
-383.975	800.000	-0.029	-0.102
-382.960	101.336	-0.019	-0.022
-381.946	108.478	-0.052	0.062
-380.931	-200.000	-0.058	-0.351
-379.917	-161.845	0.167	0.008
-378.902	-200.000	-0.008	0.355
-377.888	403.509	-0.098	0.206
-376.873	42.693	0.150	0.137
-375.858	-200.000	0.077	0.370
-374.844	-43.019	0.213	0.108
-373.829	-200.000	-0.001	0.108
-372.815	-139.717	-0.178	0.019
-371.800	800.000	0.048	0.153
-370.785	-200.000	-0.030	0.276
-369.771	97.782	-0.169	0.194
-368.756	-113.953	-0.027	0.005
-367.742	129.116	0.054	0.068
-366.727	27.862	0.138	0.116
-365.712	-200.000	0.049	0.323
-364.698	-120.027	0.244	0.042
-363.683	-171.388	-0.276	-0.009
-362.669	199.655	-0.127	0.195
-361.654	-100.115	0.304	0.076
-360.639	49.768	-0.158	0.148
-359.625	517.956	-0.094	0.219
-358.610	-200.000	-0.078	0.517
-357.596	321.287	0.122	0.231
-356.581	-200.000	-0.011	-0.108
-355.566	77.560	-0.135	0.144
-354.552	293.197	-0.178	0.324
-353.537	-79.498	0.444	0.150
-352.523	-41.543	0.168	0.086
-351.508	-43.809	0.021	-0.011
-350.493	187.503	0.121	0.180
-349.479	458.225	0.106	-0.236
-348.464	-22.034	-0.285	-0.172
-347.450	-74.405	0.259	-0.093
-346.435	-42.247	0.200	-0.102
-345.420	800.000	0.048	-0.205
-344.406	11.103	0.145	-0.110
-343.391	-43.847	0.153	-0.077
-342.377	-200.000	0.035	0.331
-341.362	-95.390	-0.107	0.029
-340.348	76.971	-0.211	-0.223
-339.333	-181.568	0.277	0.005
-338.318	800.000	0.014	-0.059
-337.304	57.636	0.146	0.142
-336.289	297.473	-0.105	-0.192
-335.275	-200.000	-0.022	-0.113
-334.260	-158.666	-0.371	-0.021
-333.245	-142.094	-0.190	-0.019
-332.231	53.529	0.233	0.223
-331.216	-43.168	-0.112	-0.057
-330.202	-50.185	0.404	-0.191
-329.187	-148.983	-0.265	0.021
-328.172	-200.000	-0.017	-0.173
-327.158	11.334	-0.205	-0.156
-326.143	800.000	0.039	-0.112
-325.129	-200.000	-0.024	0.247
-324.114	-20.162	-0.266	-0.163
-323.099	649.493	0.053	0.134
-322.085	-20.599	-0.087	0.053
-321.070	269.404	0.152	-0.266
-320.056	175.668	-0.306	-0.443
-319.041	78.675	0.020	-0.021
-318.026	-71.412	0.193	0.072
-317.012	-1.708	0.192	-0.134
-315.997	-200.000	-0.003	-0.078
-314.983	8.517	0.068	-0.051
-313.968	800.000	-0.105	0.355
-312.953	-55.057	0.411	-0.184
-311.939	-53.552	0.070	0.032
-310.924	85.804	0.298	-0.327
-309.910	-200.000	-0.001	0.279
-308.895	-200.000	0.005	-0.368
-307.880	164.809	-0.032	-0.044
-306.866	-88.384	-0.327	0.097
-305.851	-200.000	0.000	0.102
-304.837	-70.098	0.158	-0.060
-303.822	100.410	0.216	-0.250
-302.807	311.359	0.140	-0.262
-301.793	-60.815	0.146	0.062
-300.778	166.590	0.153	0.216
-299.764	-200.000	-0.010	0.129
-298.749	-120.944	0.329	-0.055
-297.735	-64.865	-0.088	-0.035
-296.720	-70.103	0.056	0.021
-295.705	-200.000	-0.047	-0.315
-294.691	-107.463	-0.310	-0.068
-293.676	-200.000	-0.053	0.340
-292.662	34.049	-0.024	-0.021
-291.647	-121.222	-0.260	0.043
-290.632	-170.456	-0.103	0.004
-289.618	-142.362	0.048	-0.005
-288.603	443.238	-0.077	-0.168
-287.589	-168.228	0.142	-0.005
-286.574	114.809	0.029	0.035
-285.559	-117.295	0.156	-0.028
-284.545	292.410	-0.072	-0.130
-283.530	-130.399	0.179	0.024
-282.516	-49.203	0.241	0.115
-281.501	-112.819	-0.460	0.091
-280.486	-185.125	0.364	0.006
-279.472	-200.000	-0.050	0.245
-278.457	33.910	0.161	-0.139
-277.443	-58.898	-0.270	-0.116
-276.428	150.858	0.116	0.156
-275.413	-200.000	0.022	-0.218
-274.399	-78.523	0.345	-0.117
-273.384	800.000	0.078	0.232
-272.370	-63.605	0.166	0.068
-271.355	-3.666	-0.227	-0.157
-270.340	-200.000	-0.012	-0.082
-269.326	326.530	-0.082	0.157
-268.311	62.692	-0.215	-0.214
-267.297	-115.812	-0.394	-0.073
-266.282	-140.299	-0.321	-0.033
-265.267	248.244	0.061	0.102
-264.253	513.708	-0.208	0.482
-263.238	594.908	-0.057	-0.140
-262.224	-56.771	-0.235	0.103
-261.209	13.011	-0.153	0.118
-260.195	147.486	-0.181	0.242
-259.180	-200.000	-0.074	0.510
-258.165	14.323	-0.218	-0.169
-257.151	-59.382	-0.079	0.034
-256.136	-110.985	0.375	0.077
-255.122	-5.028	0.202	-0.138
-254.107	22.575	0.157	-0.128
-253.092	7.432	-0.071	0.053
-252.078	-164.844	0.347	0.015
-251.063	-91.488	0.365	0.103
-250.049	-200.000	-0.009	0.041
-249.034	-82.466	0.081	0.026
-248.019	800.000	-0.043	-0.120
-247.005	102.254	-0.075	-0.087
-245.990	-52.156	-0.307	-0.141
-244.976	453.105	-0.031	0.067
-243.961	105.777	-0.179	-0.210
-242.946	54.519	0.156	0.149
-241.932	32.348	-0.106	-0.091
-240.917	442.428	0.159	-0.346
-239.903	-200.000	0.008	-0.297
-238.888	55.055	-0.199	0.190
-237.873	91.818	-0.088	0.098
-236.859	443.006	-0.036	0.079
-235.844	-1.081	0.099	0.069
-234.830	800.000	0.032	0.116
-233.815	155.987	0.076	0.104
-232.800	1.364	-0.262	-0.187
-231.786	-200.000	-0.019	0.134
-230.771	-37.237	-0.200	0.106
-229.757	-88.065	-0.045	0.014
-228.742	-195.084	-0.161	0.001
-227.727	-26.212	0.284	-0.166
-226.713	285.020	-0.117	0.209
-225.698	-34.403	-0.207	-0.113
-224.684	800.000	-0.059	0.174
-223.669	127.219	-0.094	0.118
-222.655	1.599	0.128	-0.091
-221.640	-126.240	-0.134	-0.020
-220.625	-130.310	0.437	0.059
-219.611	492.363	0.111	0.251
-218.596	-200.000	-0.012	-0.317
-217.582	-200.000	0.005	0.106
-216.567	-71.951	-0.229	-0.084
-215.552	-18.335	0.190	-0.118
-214.538	-200.000	0.055	-0.314
-213.523	88.467	-0.147	-0.162
-212.509	-51.644	-0.171	-0.079
-211.494	153.592	-0.100	-0.136
-210.479	-76.892	0.112	0.039
-209.465	91.087	-0.118	0.131
-208.450	-95.065	-0.302	0.081
-207.436	-71.019	0.101	-0.038
-206.421	-200.000	0.035	0.396
-205.406	-115.661	0.030	0.006
-204.392	-15.998	0.300	-0.189
-203.377	419.842	-0.206	0.437
-202.363	-167.710	0.374	-0.015
-201.348	-200.000	0.003	0.027
-200.333	-83.097	-0.151	-0.048
-199.319	52.876	-0.128	0.121
-198.304	42.340	-0.191	-0.172
-197.290	-27.933	0.130	0.075
-196.275	22.090	0.120	-0.097
-195.260	-143.436	-0.403	-0.038
-194.246	426.854	0.043	-0.093
-193.231	195.771	0.103	-0.156
-192.217	28.514	0.059	0.049
-191.202	-200.000	-0.066	0.389
-190.187	145.635	0.201	-0.267
-189.173	463.600	-0.113	-0.251
-188.158	239.007	0.220	0.362
-187.144	17.571	-0.026	0.020
-186.129	-200.000	0.028	-0.245
-185.114	-200.000	-0.038	-0.478
-184.100	-200.000	-0.091	0.507
-183.085	-200.000	-0.014	0.103
-182.071	-200.000	0.021	-0.171
-181.056	14.993	-0.141	0.109
-180.042	-123.307	-0.166	0.026
-179.027	-57.369	0.169	-0.074
-178.012	800.000	-0.134	-0.434
-176.998	69.953	-0.098	0.100
-175.983	100.410	0.183	0.211
-174.969	385.494	-0.213	0.435
-173.954	46.713	-0.076	-0.070
-172.939	397.714	-0.131	-0.271
-171.925	-177.428	-0.166	0.004
-170.910	129.178	0.110	-0.139
-169.896	-178.421	0.208	0.005
-168.881	-99.464	0.073	-0.018
-167.866	-25.866	0.221	0.129
-166.852	-13.447	0.063	0.040
-165.837	44.443	0.302	0.274
-164.823	-79.419	0.145	-0.049
-163.808	-81.922	0.140	-0.045
-162.793	100.965	-0.119	0.137
-161.779	90.646	-0.075	-0.083
-160.764	-77.602	-0.230	0.079
-159.750	-200.000	-0.043	-0.258
-158.735	-89.218	0.173	0.051
-157.720	39.386	0.097	0.086
-156.706	-200.000	-0.040	-0.201
-155.691	94.312	-0.169	0.190
-154.677	581.520	-0.144	0.349
-153.662	52.928	0.054	-0.051
-152.647	-200.000	-0.022	0.272
-151.633	174.741	0.062	-0.089
-150.618	800.000	-0.059	0.215
-149.604	191.222	0.002	-0.003
-148.589	-146.012	0.059	-0.005
-147.574	-179.936	-0.268	0.006
-146.560	511.233	-0.061	0.141
-145.545	-200.000	-0.020	0.186
-144.531	-23.442	0.104	0.062
-143.516	25.003	-0.373	0.306
-142.502	-85.769	0.101	0.031
-141.487	45.113	0.191	0.175
-140.472	-80.921	0.224	-0.074
-139.458	800.000	0.081	-0.226
-138.443	747.849	-0.064	0.169
-137.429	167.678	0.009	0.013
-136.414	-200.000	0.007	0.195
-135.399	800.000	-0.031	-0.087
-134.385	-18.149	0.125	0.077
-133.370	-200.000	-0.001	0.009
-132.356	-98.253	-0.155	-0.039
-131.341	331.709	-0.163	-0.310
-130.326	-119.214	-0.028	0.005
-129.312	-200.000	-0.039	-0.228
-128.297	800.000	-0.112	0.341
-127.283	-113.926	-0.368	0.071
-126.268	41.648	0.175	0.157
-125.253	757.347	0.059	-0.157
-124.239	623.473	-0.034	0.086
-123.224	-200.000	0.030	-0.378
-122.210	-122.601	-0.296	0.047
-121.195	-33.260	0.107	0.059
-120.180	-148.753	-0.322	0.026
-119.166	35.942	-0.174	-0.151
-118.151	-153.292	-0.097	0.007
-117.137	111.434	0.115	0.138
-116.122	-62.006	0.148	0.061
-115.107	46.994	-0.135	0.124
-114.093	231.620	-0.127	-0.205
-113.078	232.291	0.207	-0.336
-112.064	-200.000	-0.047	-0.258
-111.049	31.130	0.168	0.142
-110.034	51.004	-0.210	0.197
-109.020	-148.524	-0.289	0.023
-108.005	-43.880	0.274	0.136
-106.991	-200.000	-0.023	-0.120
-105.976	372.825	-0.209	0.419
-104.962	-200.000	-0.049	0.218
-103.947	132.368	-0.213	0.271
-102.932	800.000	0.069	0.204
-101.918	-35.273	0.315	-0.169
-100.903	5.871	0.244	-0.178
-99.889	-110.398	-0.306	-0.063
-98.874	40.272	0.224	0.199
-97.859	-132.874	0.116	0.015
-96.845	-71.862	0.408	-0.150
-95.830	-90.388	-0.064	0.018
-94.816	-32.636	0.318	-0.175
-93.801	-131.424	0.381	0.050
-92.786	221.971	0.127	-0.202
-91.772	-200.000	-0.012	-0.085
-90.757	457.732	0.137	0.301
-89.743	800.000	0.033	-0.118
-88.728	800.000	-0.102	-0.286
-87.713	42.765	0.083	-0.075
-86.699	-88.807	-0.162	0.048
-85.684	-100.538	0.308	-0.075
-84.670	-72.478	0.131	0.048
-83.655	41.803	-0.239	-0.214
-82.640	-200.000	-0.038	0.344
-81.626	-126.982	-0.260	-0.038
-80.611	44.846	0.364	0.331
-79.597	800.000	0.052	0.174
-78.582	359.998	-0.048	0.094
-77.567	-29.033	0.350	0.198
-76.553	-41.011	-0.128	-0.065
-75.538	-176.001	0.210	-0.005
-74.524	217.108	0.168	-0.264
-73.509	446.310	-0.224	0.486
-72.494	86.796	-0.239	-0.260
-71.480	-41.144	-0.280	0.143
-70.465	-10.256	-0.142	0.093
-69.451	207.960	0.196	0.302
-68.436	30.692	0.163	0.138
-67.422	-114.495	-0.123	-0.023
-66.407	-200.000	0.008	0.071
-65.392	223.229	-0.140	0.223
-64.378	168.413	0.218	-0.306
-63.363	-100.694	-0.381	-0.093
-62.349	182.519	0.177	-0.257
-61.334	125.247	-0.863	-1.073
-60.319	800.000	0.242	0.766
-59.305	-200.000	0.160	-0.816
-58.290	800.000	0.318	1.344
-57.276	261.498	0.838	1.431
-56.261	-200.000	95.341	569.823
-55.246	546.581	1376.295	3245.100
-54.232	157.165	2564.212	3495.764
-53.217	111.082	2169.370	2575.378
-52.203	44.022	1710.265	1545.135
-51.188	37.210	1522.194	1328.748
-50.173	34.781	1495.404	1288.951
-49.159	54.310	1544.764	1465.752
-48.144	56.707	1563.355	1499.762
-47.130	37.425	1521.470	1329.379
-46.115	34.268	1506.073	1294.456
-45.100	34.152	1502.799	1290.805
-44.086	33.966	1501.602	1288.467
-43.071	33.952	1499.435	1286.461
-42.057	33.945	1497.689	1284.863
-41.042	34.024	1496.343	1284.195
-40.027	34.009	1494.843	1282.755
-39.013	33.985	1493.573	1281.449
-37.998	33.906	1492.286	1279.761
-36.984	33.878	1491.443	1278.804
-35.969	33.968	1489.492	1277.685
-34.954	34.154	1488.106	1277.690
-33.940	34.056	1486.603	1275.694
-32.925	34.008	1485.474	1274.354
-31.911	34.061	1484.242	1273.601
-30.896	34.127	1482.342	1272.358
-29.881	34.132	1481.409	1271.539
-28.867	34.098	1479.772	1269.859
-27.852	33.994	1478.790	1268.271
-26.838	34.069	1477.507	1267.619
-25.823	34.122	1475.768	1266.429
-24.809	34.024	1473.935	1264.156
-23.794	33.976	1472.908	1262.906
-22.779	34.091	1471.539	1262.448
-21.765	34.007	1470.706	1261.128
-20.750	34.076	1469.157	1260.200
-19.736	34.102	1467.912	1259.255
-18.721	33.925	1467.957	1258.072
-17.706	34.055	1466.550	1257.681
-16.692	34.034	1465.358	1256.466
-15.677	34.027	1464.121	1255.313
-14.663	34.094	1462.960	1254.706
-13.648	34.019	1462.441	1253.715
-12.633	33.984	1461.517	1252.643
-11.619	33.933	1460.893	1251.724
-10.604	33.932	1459.722	1250.665
-9.590	33.938	1458.590	1249.687
-8.575	33.880	1458.400	1249.090
-7.560	34.103	1456.750	1249.092
-6.546	33.966	1456.158	1247.639
-5.531	34.054	1455.246	1247.383
-4.517	33.995	1454.163	1246.019
-3.502	33.979	1453.749	1245.511
-2.487	33.997	1452.498	1244.506
-1.473	34.086	1451.206	1243.930
-0.458	33.986	1450.209	1242.374
0.556	34.973	1440.392	1230.628
1.571	31.581	1414.888	1187.260
2.586	27.735	1354.627	1113.178
3.600	25.729	1274.005	1035.307
4.615	24.272	1227.173	989.084
5.629	20.696	1170.131	924.073
6.644	11.385	1085.118	810.796
7.659	4.134	1043.592	744.938
8.673	3.139	1038.296	736.330
9.688	2.992	1034.455	732.840
10.702	2.702	1033.556	730.759
11.717	2.829	1031.279	729.687
12.731	5.897	1034.689	746.649
13.746	15.215	1047.734	800.710
14.761	23.511	1058.350	848.622
15.775	26.090	1061.114	863.116
16.790	26.407	1061.548	864.910
17.804	26.466	1060.067	863.909
18.819	26.123	1059.820	861.993
19.834	26.377	1058.988	862.452
20.848	26.539	1058.630	862.857
21.863	26.505	1058.448	862.468
22.877	26.476	1058.474	862.278
23.892	26.469	1057.322	861.226
24.907	26.384	1056.467	860.050
25.921	26.459	1055.814	859.802
26.936	26.365	1055.436	858.970
27.950	26.452	1054.108	858.224
28.965	26.361	1052.862	856.704
29.980	26.287	1051.213	854.936
30.994	26.267	1049.974	853.758
32.009	26.372	1049.563	853.847
33.023	26.634	1048.758	854.350
34.038	26.458	1047.805	852.668
35.053	26.413	1046.722	851.501
36.067	26.467	1046.309	851.341
37.082	26.438	1045.720	850.651
38.096	26.486	1045.265	850.434
39.111	26.653	1044.129	850.217
40.126	26.740	1043.417	849.969
41.140	26.608	1042.691	848.685
42.155	26.374	1040.929	846.079
43.169	26.092	1039.615	843.618
44.184	26.050	1038.993	842.846
45.199	26.160	1037.472	842.049
46.213	25.951	1037.216	840.792
47.228	26.092	1035.405	839.908
48.242	26.168	1035.396	840.176
49.257	26.472	1034.311	840.637
50.271	26.299	1034.253	839.713
51.286	26.407	1033.482	839.510
52.301	26.635	1032.261	839.502
53.315	26.468	1032.240	838.638
54.330	26.513	1031.084	837.834
55.344	26.466	1030.048	836.697
56.359	26.425	1029.592	836.064
57.374	26.542	1028.596	835.722
58.388	26.147	1028.049	833.381
59.403	26.232	1026.899	832.766
60.417	26.211	1026.240	832.064
61.432	25.925	1025.931	830.420
62.447	26.044	1025.096	830.219
63.461	26.159	1024.395	830.108
64.476	26.302	1023.453	829.927
65.490	26.133	1022.872	828.607
66.505	26.011	1021.883	827.174
67.520	26.069	1021.103	826.733
68.534	26.215	1020.449	826.799
69.549	26.081	1019.259	825.150
70.563	25.782	1018.203	822.857
71.578	25.809	1017.384	822.243
72.593	25.792	1016.591	821.453
73.607	25.634	1015.246	819.571
74.622	25.478	1014.715	818.362
75.636	25.757	1013.896	818.896
76.651	25.906	1013.690	819.337
77.666	25.936	1012.417	818.372
78.680	25.872	1011.094	816.942
79.695	25.665	1011.233	816.039
80.709	25.898	1010.292	816.266
81.724	25.984	1009.823	816.204
82.739	26.045	1008.646	815.456
83.753	26.214	1007.473	815.197
84.768	26.279	1007.815	815.694
85.782	26.619	1006.844	816.369
86.797	26.740	1006.445	816.521
87.812	26.740	1005.439	815.632
88.826	26.575	1004.486	814.044
89.841	26.498	1003.877	813.131
90.855	26.784	1003.053	813.676
91.870	26.781	1002.070	812.797
92.884	26.707	1001.694	812.087
93.899	26.577	1000.952	810.831
94.914	26.503	999.742	809.446
95.928	26.654	998.916	809.381
96.943	26.708	998.178	808.952
97.957	26.318	997.207	806.354
98.972	26.258	995.489	804.626
99.987	25.940	994.771	802.558
101.001	26.027	994.432	802.603
102.016	26.303	994.007	803.416
103.030	26.404	992.682	802.722
104.045	26.229	992.270	801.542
105.060	26.236	990.994	800.473
106.074	26.067	989.854	798.733
107.089	26.184	988.907	798.413
108.103	26.169	989.292	798.586
109.118	26.482	988.220	799.034
110.133	26.221	986.805	796.667
111.147	26.034	986.385	795.436
112.162	26.035	984.671	793.987
113.176	25.760	983.731	791.950
114.191	25.926	983.362	792.311
115.206	26.009	982.749	792.111
116.220	25.776	981.269	789.826
117.235	25.701	980.452	788.772
118.249	25.685	979.879	788.172
119.264	26.037	978.424	788.470
120.279	25.723	977.883	786.592
121.293	25.680	977.400	785.947
122.308	25.848	976.764	786.097
123.322	25.785	976.170	785.277
124.337	25.741	974.794	783.907
125.352	25.733	973.386	782.670
126.366	25.367	971.726	779.677
127.381	24.936	970.778	776.978
128.395	25.579	970.465	779.446
129.410	26.300	970.323	782.388
130.424	26.375	969.682	782.128
131.439	26.193	969.061	780.768
132.454	26.253	968.062	780.154
133.468	26.343	966.640	779.328
134.483	26.116	966.313	778.016
135.497	26.179	965.680	777.708
136.512	26.485	965.020	778.427
137.527	26.508	964.805	778.283
138.541	26.614	963.396	777.532
139.556	26.559	962.728	776.690
140.570	26.581	961.991	776.119
141.585	26.538	961.237	775.258
142.600	26.700	960.540	775.321
143.614	26.633	959.772	774.346
144.629	26.657	958.867	773.649
145.643	26.867	958.520	774.196
146.658	26.805	957.395	772.955
147.673	26.638	955.806	770.894
148.687	26.495	954.987	769.559
149.702	26.443	954.462	768.847
150.716	26.261	953.366	767.122
151.731	26.186	952.532	766.064
152.746	26.465	951.418	766.283
153.760	26.609	951.198	766.649
154.775	26.723	949.998	766.092
155.789	26.786	949.378	765.792
156.804	26.712	948.478	764.685
157.819	26.618	947.458	763.400
158.833	26.703	947.151	763.444
159.848	26.753	946.679	763.206
160.862	26.975	945.646	763.239
161.877	26.770	944.346	761.262
162.892	26.636	943.988	760.342
163.906	26.874	942.950	760.439
164.921	26.663	942.190	758.875
165.935	26.692	940.829	757.832
166.950	26.760	939.756	757.185
167.964	26.750	939.124	756.565
168.979	26.703	938.101	755.479
169.994	26.656	936.726	754.109
171.008	26.374	936.280	752.512
172.023	26.591	935.538	752.751
173.037	26.757	934.881	752.846
174.052	26.643	933.904	751.518
175.067	26.383	932.558	749.292
176.081	26.351	932.014	748.657
177.096	26.464	931.067	748.295
178.110	26.502	930.569	747.987
179.125	26.323	929.501	746.323
180.140	26.215	927.983	744.594
181.154	26.088	927.765	743.830
182.169	26.139	927.152	743.481
183.183	26.388	926.939	744.270
184.198	26.745	926.712	745.492
185.213	26.728	925.694	744.534
186.227	26.591	924.938	743.298
187.242	26.469	925.533	743.212
188.256	26.552	924.416	742.590
189.271	26.775	923.097	742.376
190.286	26.790	923.011	742.302
191.300	26.747	921.818	741.101
192.315	25.857	920.729	736.526
193.329	25.226	919.278	732.723
194.344	24.801	917.863	729.797
195.359	25.393	918.596	732.732
196.373	26.442	918.548	736.903
197.388	26.781	917.873	737.675
198.402	26.600	917.853	736.857
199.417	26.598	917.072	736.160
200.432	26.675	916.917	736.284
201.446	26.463	916.498	735.020
202.461	26.318	915.458	733.532
203.475	26.323	915.037	733.149
204.490	25.922	913.307	730.077
205.504	24.677	911.454	723.494
206.519	25.058	911.358	724.894
207.534	26.097	911.680	729.287
208.548	26.183	911.086	729.098
209.563	26.533	911.076	730.434
210.577	26.505	910.345	729.670
211.592	26.307	909.340	728.003
212.607	26.734	909.130	729.491
213.621	26.831	908.855	729.595
214.636	26.694	908.260	728.503
215.650	26.800	907.653	728.379
216.665	26.769	907.006	727.670
217.680	26.646	906.736	726.894
218.694	26.881	905.841	727.055
219.709	26.453	905.140	724.714
220.723	26.161	904.387	722.879
221.738	26.494	903.346	723.313
222.753	26.574	903.228	723.476
223.767	26.557	902.413	722.688
224.782	26.576	901.569	722.028
225.796	26.801	901.488	722.792
226.811	26.973	901.067	723.079
227.826	26.455	899.830	719.959
228.840	25.846	897.580	715.679
229.855	25.549	897.400	714.292
230.869	25.805	897.175	715.066
231.884	25.616	896.158	713.442
232.899	25.580	896.102	713.192
233.913	26.401	896.211	716.469
234.928	26.546	895.658	716.539
235.942	26.731	894.315	716.130
236.957	26.525	894.300	715.244
237.972	26.339	893.249	713.603
238.986	25.975	892.954	711.867
240.001	26.336	892.020	712.483
241.015	26.123	891.679	711.310
242.030	26.217	891.026	711.094
243.045	26.482	890.482	711.642
244.059	26.638	889.944	711.762
245.074	26.674	889.734	711.671
246.088	26.751	888.670	711.062
247.103	26.360	887.802	708.771
248.117	26.353	886.996	708.037
249.132	26.696	887.769	709.933
250.147	27.207	887.039	711.290
251.161	27.221	886.849	711.129
252.176	27.522	886.095	711.637
253.190	27.443	885.480	710.770
254.205	27.543	884.970	710.689
255.220	27.814	884.704	711.468
256.234	27.639	884.363	710.450
257.249	27.706	883.592	710.029
258.263	27.535	882.600	708.503
259.278	27.317	882.638	707.623
260.293	27.501	881.808	707.609
261.307	27.676	881.424	707.920
262.322	27.524	880.595	706.603
263.336	27.411	879.823	705.481
264.351	26.888	879.005	702.736
265.366	25.871	876.623	696.842
266.380	25.361	875.551	693.957
267.395	26.342	876.195	698.198
268.409	26.973	876.303	700.656
269.424	27.007	875.685	700.233
270.439	27.236	874.991	700.499
271.453	27.290	874.438	700.200
272.468	27.326	873.878	699.829
273.482	27.435	873.340	699.757
274.497	27.580	873.195	700.135
275.512	27.260	872.428	698.230
276.526	26.754	870.736	694.875
277.541	27.045	870.374	695.636
278.555	27.290	870.323	696.473
279.570	27.226	869.488	695.498
280.585	27.110	868.775	694.426
281.599	27.118	868.565	694.224
282.614	27.274	867.745	694.103
283.628	26.719	866.904	691.253
284.643	26.351	866.345	689.343
285.657	26.902	865.929	691.051
286.672	26.656	865.774	689.929
287.687	26.256	864.419	687.266
288.701	26.569	864.201	688.224
289.716	26.980	864.289	689.793
290.730	26.573	863.097	687.238
291.745	26.555	862.654	686.757
292.760	26.429	861.266	685.114
293.774	26.210	861.131	684.117
294.789	27.199	861.504	688.095
295.803	27.711	861.377	689.873
296.818	27.867	861.078	690.161
297.833	27.954	860.645	690.080
298.847	27.611	859.652	687.928
299.862	27.304	858.619	685.883
300.876	27.514	858.199	686.279
301.891	27.821	858.030	687.240
302.906	27.972	857.054	686.964
303.920	27.600	856.144	684.778
304.935	27.499	855.412	683.751
305.949	27.802	855.262	684.710
306.964	27.837	855.337	684.839
307.979	27.677	853.731	682.894
308.993	27.399	853.712	681.777
310.008	27.740	853.641	682.936
311.022	27.867	853.573	683.298
312.037	27.754	852.706	682.120
313.052	27.584	851.905	680.784
314.066	27.358	851.320	679.413
315.081	26.766	849.370	675.590
316.095	26.021	848.180	671.810
317.110	26.459	848.430	673.581
318.125	27.563	848.658	677.810
319.139	27.019	848.028	675.227
320.154	25.799	846.342	669.293
321.168	25.406	845.065	666.764
322.183	25.946	845.214	668.829
323.197	26.971	845.791	673.028
324.212	27.214	845.470	673.613
325.227	27.411	845.071	673.967
326.241	27.600	844.984	674.536
327.256	27.421	844.209	673.198
328.270	27.424	843.423	672.519
329.285	27.368	842.865	671.810
330.300	27.201	841.931	670.391
331.314	26.885	840.978	668.408
332.329	26.961	840.903	668.569
333.343	27.394	840.254	669.587
334.358	27.754	839.712	670.417
335.373	27.697	839.474	669.959
336.387	27.749	838.861	669.602
337.402	27.917	838.623	669.970
338.416	28.106	838.115	670.198
339.431	28.183	837.514	669.938
340.446	28.245	837.053	669.739
341.460	28.374	836.758	669.913
342.475	28.306	836.299	669.240
343.489	28.145	835.456	667.919
344.504	28.049	834.833	667.009
345.519	28.347	834.510	667.778
346.533	28.449	834.488	668.074
347.548	28.591	833.947	668.100
348.562	28.499	833.613	667.436
349.577	28.433	833.092	666.722
350.592	28.374	832.089	665.644
351.606	28.489	831.568	665.587
352.621	28.451	831.003	664.939
353.635	28.238	830.537	663.735
354.650	28.241	829.847	663.134
355.665	28.055	828.785	661.554
356.679	26.951	827.566	656.533
357.694	26.670	826.910	654.939
358.708	27.456	827.077	657.853
359.723	27.252	826.628	656.702
360.738	27.558	826.404	657.570
361.752	28.038	826.291	659.154
362.767	28.129	825.854	659.072
363.781	28.550	825.444	660.202
364.796	28.622	825.769	660.666
365.810	28.826	825.422	661.062
366.825	28.869	824.882	660.726
367.840	28.735	824.892	660.195
368.854	28.693	823.903	659.192
369.869	28.283	823.015	656.955
370.883	27.947	822.525	655.298
371.898	28.186	821.689	655.430
372.913	27.979	821.486	654.471
373.927	28.166	820.415	654.228
374.942	28.231	820.034	654.097
375.956	28.462	819.244	654.237
376.971	28.444	818.930	653.861
377.986	28.644	818.599	654.253
379.000	28.765	818.203	654.310
380.015	28.879	817.532	654.119
381.029	28.738	816.668	652.869
382.044	28.715	816.281	652.423
383.059	28.695	815.841	651.940
384.073	28.586	815.305	651.070
385.088	28.789	814.891	651.401
386.102	28.708	813.976	650.322
387.117	28.499	813.664	649.279
388.132	28.422	812.945	648.375
389.146	28.298	812.239	647.314
390.161	27.825	811.244	644.793
391.175	27.979	811.140	645.197
392.190	28.419	811.219	646.757
393.205	28.456	810.295	646.094
394.219	27.346	808.811	640.945
395.234	25.700	806.401	633.196
396.248	24.966	805.444	629.808
397.263	26.071	806.402	634.386
398.278	27.842	807.764	641.633
399.292	28.227	807.808	642.966
400.307	28.076	806.719	641.512
401.321	27.954	806.687	641.002
402.336	28.011	806.421	640.932
403.350	28.447	806.128	642.171
404.365	28.871	806.159	643.623
405.380	29.235	805.839	644.583
406.394	29.346	805.716	644.819
407.409	29.471	805.515	645.035
408.423	29.602	804.355	644.509
409.438	29.330	804.146	643.335
410.453	29.580	803.633	643.737
411.467	29.534	803.396	643.332
412.482	29.514	802.824	642.747
413.496	29.421	802.313	641.958
414.511	29.512	802.093	642.042
415.526	29.529	801.620	641.665
416.540	29.576	801.266	641.487
417.555	29.523	800.707	640.799
418.569	29.221	799.797	638.967
419.584	29.131	799.538	638.390
420.599	29.181	799.024	638.097
421.613	109.406	1285.115	1447.817
422.628	94.260	1355.923	1447.925
