DTS Sentinel unit serial number:	SN413079Multiplexer serial number:	ORYXHardware model number:	OX4-SRSoftware version number:	ORYX F/W v4.00 Oryx Data Collector v3.7.2.0data status	okinstallation	princeton_trtdifferential loss correction	single-endedforward channel	channel 3reverse channel	N/Adate	2019/09/13time	17:56:35forward acquisition time	60.00reverse acquisition time	0.00gamma	496.2192k internal	0.2306k external	0.2306temperature offset calibration	1.0128default loss term (dB/km)	0.3790temperature slope calibration	1.0000multiplexer offset coefficient	1.0000multiplexer slope coefficient	1.0000fibre end	0.00T internal ref (°C)	35.19T ext. ref 1 (°C)	4.83T ext. ref 2 (°C)	28.08length (m)	temperature (°C)	Stokes	anti-Stokes-747.200	-181.513	-0.276	-0.005
-746.185	-162.586	-0.419	0.021
-745.171	277.345	0.123	0.222
-744.156	800.000	-0.031	0.110
-743.142	800.000	0.041	0.149
-742.127	14.401	0.243	0.193
-741.112	-200.000	0.012	0.245
-740.098	-154.398	0.236	0.016
-739.083	150.662	-0.082	-0.113
-738.069	-153.098	0.177	-0.013
-737.054	373.306	-0.059	-0.122
-736.039	800.000	-0.086	0.322
-735.025	-5.659	0.097	0.068
-734.010	800.000	-0.051	0.187
-732.996	-147.825	0.147	-0.012
-731.981	800.000	-0.086	-0.326
-730.966	-43.297	0.061	-0.031
-729.952	91.281	-0.063	0.072
-728.937	84.540	0.150	0.167
-727.923	31.492	-0.204	-0.179
-726.908	-34.288	-0.099	-0.055
-725.894	627.847	-0.163	0.418
-724.879	800.000	0.071	-0.276
-723.864	-200.000	0.042	-0.198
-722.850	-158.573	0.284	0.017
-721.835	-180.473	-0.235	-0.005
-720.821	-121.254	-0.134	-0.023
-719.806	-200.000	-0.514	-0.002
-718.791	-19.211	0.233	0.147
-717.777	800.000	-0.140	0.457
-716.762	800.000	0.071	0.232
-715.748	800.000	-0.040	0.136
-714.733	310.081	-0.167	0.317
-713.718	-174.146	-0.122	-0.004
-712.704	-200.000	0.030	0.151
-711.689	215.683	0.095	-0.153
-710.675	-115.204	0.234	-0.045
-709.660	-73.516	-0.287	-0.106
-708.645	-49.030	0.299	-0.145
-707.631	-200.000	0.007	-0.168
-706.616	-5.245	-0.058	-0.040
-705.602	300.961	-0.116	-0.217
-704.587	-200.000	-0.079	-0.369
-703.572	-61.848	0.190	-0.081
-702.558	111.286	0.151	-0.185
-701.543	-149.179	0.045	0.004
-700.529	-41.240	-0.163	-0.085
-699.514	124.844	-0.046	-0.058
-698.499	-75.854	0.308	-0.111
-697.485	-31.824	-0.225	0.128
-696.470	-79.076	0.055	0.019
-695.456	800.000	0.108	-0.414
-694.441	273.409	0.086	-0.154
-693.426	800.000	-0.114	-0.322
-692.412	-111.723	-0.226	0.046
-691.397	-92.075	-0.052	0.015
-690.383	94.909	0.062	-0.072
-689.368	-73.048	-0.331	-0.123
-688.354	-151.781	0.177	0.013
-687.339	-139.595	-0.186	0.020
-686.324	-76.228	-0.218	-0.078
-685.310	82.513	-0.121	-0.133
-684.295	340.325	-0.128	-0.254
-683.281	51.469	0.066	0.064
-682.266	800.000	-0.052	-0.177
-681.251	100.182	-0.160	-0.188
-680.237	-72.843	0.271	0.101
-679.222	800.000	-0.034	-0.108
-678.208	-200.000	-0.019	0.139
-677.193	-180.683	-0.139	-0.003
-676.178	-54.207	-0.072	-0.033
-675.164	-200.000	0.003	-0.198
-674.149	-169.254	0.265	0.010
-673.135	-102.295	0.092	-0.022
-672.120	-104.411	-0.093	-0.022
-671.105	78.618	-0.221	-0.240
-670.091	-60.194	-0.106	-0.046
-669.076	-67.584	0.152	0.060
-668.062	-42.518	0.114	0.059
-667.047	-94.511	-0.245	-0.068
-666.032	800.000	0.060	-0.234
-665.018	-141.746	0.218	0.022
-664.003	12.499	-0.096	-0.075
-662.989	-200.000	0.009	0.093
-661.974	-200.000	0.011	-0.146
-660.959	216.298	-0.121	-0.195
-659.945	-65.633	-0.357	0.145
-658.930	-179.587	0.360	0.008
-657.916	225.925	0.209	0.343
-656.901	800.000	0.036	0.152
-655.886	9.287	-0.239	-0.184
-654.872	-26.675	0.310	0.184
-653.857	-148.730	-0.285	0.023
-652.843	87.577	-0.243	-0.272
-651.828	-71.746	0.231	-0.087
-650.814	-200.000	0.045	-0.284
-649.799	800.000	-0.027	-0.110
-648.784	759.512	-0.061	0.168
-647.770	289.492	0.170	0.312
-646.755	79.138	0.020	-0.022
-645.741	-67.449	0.158	-0.063
-644.726	516.423	-0.166	-0.392
-643.711	-144.293	-0.038	-0.004
-642.697	800.000	0.063	0.228
-641.682	-97.614	0.135	-0.036
-640.668	-31.856	-0.115	-0.065
-639.653	-200.000	-0.043	-0.419
-638.638	145.971	0.078	-0.105
-637.624	800.000	-0.096	0.314
-636.609	-200.000	0.026	-0.229
-635.595	58.906	-0.251	0.250
-634.580	22.251	-0.187	0.155
-633.565	54.107	0.006	0.006
-632.551	-134.351	-0.277	-0.034
-631.536	-30.556	0.236	-0.135
-630.522	-54.918	-0.258	-0.118
-629.507	-109.608	-0.165	0.035
-628.492	52.818	0.131	0.127
-627.478	612.172	0.106	-0.268
-626.463	-47.124	-0.306	0.151
-625.449	-200.000	-0.037	-0.227
-624.434	448.411	-0.165	0.367
-623.419	-116.467	0.198	-0.037
-622.405	255.497	-0.146	-0.253
-621.390	-143.115	0.036	0.004
-620.376	201.450	0.073	-0.113
-619.361	-11.186	0.220	-0.147
-618.346	-115.790	0.181	-0.034
-617.332	177.798	0.077	0.114
-616.317	-78.527	0.167	0.058
-615.303	294.047	-0.094	-0.174
-614.288	84.686	0.101	0.112
-613.273	-190.381	-0.323	0.004
-612.259	-158.660	-0.093	0.005
-611.244	-51.576	-0.222	0.105
-610.230	70.292	-0.053	0.055
-609.215	-77.920	0.138	0.048
-608.201	800.000	-0.028	-0.083
-607.186	-3.916	-0.146	-0.102
-606.171	-84.563	-0.119	-0.038
-605.157	-114.764	0.207	-0.040
-604.142	54.766	0.056	0.055
-603.128	-110.972	0.053	0.011
-602.113	239.547	-0.052	-0.088
-601.098	119.378	-0.131	-0.164
-600.084	-200.000	0.005	-0.064
-599.069	-138.631	-0.034	0.004
-598.055	714.917	0.035	0.093
-597.040	-200.000	0.009	0.105
-596.025	61.586	-0.256	-0.258
-595.011	227.421	-0.115	0.188
-593.996	-200.000	0.021	-0.130
-592.982	-18.517	-0.353	-0.223
-591.967	-87.799	-0.350	-0.107
-590.952	-200.000	0.026	0.389
-589.938	-200.000	0.033	0.201
-588.923	-3.694	-0.225	-0.158
-587.909	-139.451	-0.128	0.014
-586.894	-47.397	-0.134	0.066
-585.879	301.522	-0.103	-0.192
-584.865	729.756	-0.039	-0.104
-583.850	92.854	-0.035	0.040
-582.836	-68.562	0.154	0.060
-581.821	800.000	0.069	0.215
-580.806	800.000	-0.024	0.073
-579.792	72.850	-0.174	-0.184
-578.777	-80.954	-0.522	0.175
-577.763	265.907	-0.037	0.064
-576.748	-200.000	-0.019	-0.087
-575.733	-200.000	-0.029	0.236
-574.719	41.717	-0.141	0.129
-573.704	-200.000	-0.011	-0.378
-572.690	-134.732	0.380	0.047
-571.675	800.000	0.032	-0.106
-570.661	-200.000	0.033	0.271
-569.646	-200.000	-0.015	-0.151
-568.631	-200.000	-0.011	-0.501
-567.617	-200.000	-0.033	-0.200
-566.602	800.000	-0.100	-0.378
-565.588	356.454	-0.045	0.091
-564.573	-125.074	-0.239	0.037
-563.558	800.000	0.054	-0.186
-562.544	800.000	-0.016	0.068
-561.529	102.488	-0.115	0.136
-560.515	-200.000	-0.005	-0.283
-559.500	116.427	-0.332	-0.411
-558.485	-68.586	0.196	0.077
-557.471	6.989	0.294	0.222
-556.456	-91.752	-0.282	-0.081
-555.442	313.159	-0.125	0.238
-554.427	20.403	0.048	0.039
-553.412	-53.030	0.421	0.195
-552.398	-61.663	0.129	0.055
-551.383	-56.809	-0.129	0.057
-550.369	-200.000	-0.004	-0.314
-549.354	80.068	-0.172	-0.186
-548.339	-51.708	-0.173	0.081
-547.325	-200.000	0.008	-0.061
-546.310	35.454	-0.039	0.034
-545.296	-200.000	0.059	0.000
-544.281	108.914	-0.037	-0.044
-543.266	-145.962	-0.274	-0.025
-542.252	54.558	-0.054	-0.053
-541.237	-88.737	-0.265	-0.080
-540.223	-200.000	-0.014	-0.174
-539.208	489.898	-0.107	-0.247
-538.193	-10.066	0.226	-0.151
-537.179	-81.937	-0.136	-0.045
-536.164	-127.585	-0.287	-0.042
-535.150	-176.561	0.048	-0.001
-534.135	-17.037	0.153	-0.098
-533.121	800.000	-0.052	0.226
-532.106	-51.257	0.276	0.131
-531.091	40.835	0.135	0.123
-530.077	37.979	0.229	0.205
-529.062	-162.381	-0.461	0.023
-528.048	-11.329	-0.421	-0.280
-527.033	360.878	0.195	-0.394
-526.018	800.000	0.067	-0.237
-525.004	134.742	0.276	0.362
-523.989	-139.171	0.166	0.018
-522.975	173.417	0.194	-0.283
-521.960	-50.291	-0.089	-0.043
-520.945	280.187	-0.163	-0.294
-519.931	-183.858	-0.244	0.004
-518.916	58.759	-0.221	0.219
-517.902	800.000	0.064	-0.195
-516.887	-154.440	0.275	-0.019
-515.872	61.236	0.257	-0.258
-514.858	-73.371	-0.452	-0.167
-513.843	-139.665	-0.240	-0.026
-512.829	-49.218	0.218	-0.105
-511.814	210.341	-0.075	-0.118
-510.799	-200.000	0.020	-0.369
-509.785	225.612	0.054	-0.088
-508.770	800.000	-0.086	0.284
-507.756	-200.000	-0.073	-0.468
-506.741	167.753	0.170	0.244
-505.726	465.686	-0.066	-0.148
-504.712	-79.994	-0.123	0.042
-503.697	-90.020	-0.168	-0.049
-502.683	4.624	-0.091	0.067
-501.668	162.727	-0.157	0.222
-500.653	55.785	-0.204	-0.199
-499.639	-6.049	-0.139	-0.095
-498.624	165.570	-0.206	0.294
-497.610	800.000	-0.076	-0.314
-496.595	-200.000	0.007	0.236
-495.581	-200.000	-0.031	0.337
-494.566	-200.000	0.006	-0.100
-493.551	800.000	0.035	0.117
-492.537	-11.483	-0.067	-0.044
-491.522	120.928	0.182	-0.228
-490.508	108.226	0.257	-0.309
-489.493	369.476	-0.191	0.390
-488.478	-68.137	0.142	-0.056
-487.464	-56.092	-0.079	-0.036
-486.449	-200.000	0.071	-0.380
-485.435	159.747	0.128	-0.179
-484.420	-99.999	-0.250	-0.063
-483.405	800.000	0.066	-0.262
-482.391	-161.439	0.361	-0.019
-481.376	800.000	0.047	0.193
-480.362	55.367	-0.103	-0.100
-479.347	-115.063	-0.200	0.038
-478.332	291.657	0.179	0.328
-477.318	-37.115	0.348	-0.188
-476.303	-22.244	-0.199	-0.122
-475.289	-27.129	0.323	0.190
-474.274	404.472	0.100	0.212
-473.259	-152.007	-0.188	0.014
-472.245	451.503	0.096	-0.213
-471.230	-94.817	0.088	0.024
-470.216	-200.000	0.033	0.201
-469.201	189.663	0.197	-0.298
-468.186	-200.000	0.013	0.105
-467.172	-88.960	0.241	0.072
-466.157	89.748	-0.276	0.310
-465.143	800.000	-0.044	0.163
-464.128	-158.893	-0.110	0.006
-463.113	-5.354	0.474	0.328
-462.099	-200.000	-0.015	-0.132
-461.084	223.598	-0.192	-0.311
-460.070	800.000	0.066	0.269
-459.055	58.673	0.076	-0.075
-458.040	57.713	-0.107	0.106
-457.026	800.000	0.088	0.359
-456.011	-125.504	0.116	-0.018
-454.997	79.182	-0.334	-0.360
-453.982	319.533	-0.071	-0.136
-452.968	-200.000	-0.030	0.277
-451.953	-41.917	0.278	0.143
-450.938	-85.130	-0.167	-0.053
-449.924	139.567	0.055	-0.073
-448.909	355.914	-0.082	-0.164
-447.895	605.804	-0.060	0.149
-446.880	451.209	0.108	-0.240
-445.865	-200.000	0.010	-0.044
-444.851	346.781	-0.117	-0.231
-443.836	-108.116	0.228	-0.050
-442.822	77.987	0.068	0.073
-441.807	215.717	-0.073	-0.116
-440.792	-138.544	0.122	-0.013
-439.778	-121.814	-0.197	-0.033
-438.763	-74.304	-0.116	-0.042
-437.749	800.000	-0.041	-0.121
-436.734	714.416	0.141	-0.376
-435.719	694.068	-0.115	-0.302
-434.705	304.567	0.142	0.266
-433.690	114.140	-0.178	-0.217
-432.676	-200.000	0.006	0.095
-431.661	-35.146	0.187	0.102
-430.646	-47.776	-0.136	0.066
-429.632	-71.427	0.170	0.064
-428.617	351.214	0.068	-0.135
-427.603	-15.227	-0.144	0.092
-426.588	-38.703	-0.201	-0.107
-425.573	207.097	0.077	-0.120
-424.559	201.260	-0.169	0.261
-423.544	-200.000	0.005	0.266
-422.530	161.402	0.131	-0.184
-421.515	-117.577	0.121	-0.022
-420.500	240.896	0.091	0.152
-419.486	-4.504	0.164	-0.114
-418.471	-6.245	-0.344	0.236
-417.457	171.013	0.071	0.102
-416.442	84.316	-0.268	-0.294
-415.428	423.328	0.082	0.177
-414.413	434.935	-0.117	0.256
-413.398	-144.211	0.052	0.005
-412.384	-142.251	0.364	-0.036
-411.369	74.691	0.346	0.366
-410.355	-42.122	0.268	0.137
-409.340	-174.400	-0.259	-0.007
-408.325	379.755	-0.031	-0.065
-407.311	-63.685	-0.131	-0.054
-406.296	-62.924	0.197	-0.082
-405.282	-200.000	0.003	0.034
-404.267	-200.000	-0.030	-0.186
-403.252	-200.000	0.015	-0.176
-402.238	800.000	0.040	0.152
-401.223	198.367	0.059	-0.090
-400.209	800.000	-0.104	0.319
-399.194	-119.417	0.425	0.074
-398.179	-200.000	-0.046	0.362
-397.165	65.292	-0.040	-0.041
-396.150	-80.451	-0.272	0.091
-395.136	-117.348	-0.083	0.015
-394.121	-200.000	0.032	0.152
-393.106	-84.294	0.388	0.123
-392.092	-43.372	-0.308	-0.156
-391.077	-175.275	-0.180	0.005
-390.063	41.176	-0.148	-0.134
-389.048	-57.957	0.106	-0.047
-388.033	579.703	-0.104	-0.255
-387.019	18.177	-0.041	-0.033
-386.004	-40.435	0.077	0.040
-384.990	25.579	-0.214	-0.179
-383.975	-168.873	0.134	-0.005
-382.960	-130.628	-0.298	0.040
-381.946	-8.469	0.031	-0.021
-380.931	-182.573	0.326	-0.006
-379.917	212.101	-0.205	0.324
-378.902	57.678	-0.212	0.208
-377.888	18.324	-0.088	-0.070
-376.873	-47.273	-0.119	-0.058
-375.858	-200.000	0.087	-0.385
-374.844	-100.384	-0.077	0.019
-373.829	735.839	0.115	0.309
-372.815	172.524	-0.223	0.322
-371.800	-59.307	-0.250	0.108
-370.785	361.052	-0.112	-0.225
-369.771	-54.721	0.106	0.048
-368.756	800.000	0.021	-0.067
-367.742	772.979	-0.104	-0.285
-366.727	310.813	-0.065	-0.122
-365.712	452.303	-0.161	0.356
-364.698	-200.000	0.005	-0.027
-363.683	418.808	-0.099	-0.213
-362.669	-200.000	0.042	0.331
-361.654	-98.182	-0.148	0.038
-360.639	-57.375	0.117	0.052
-359.625	-200.000	-0.019	0.111
-358.610	277.777	0.034	0.061
-357.596	59.686	0.223	-0.221
-356.581	-176.939	-0.215	0.005
-355.566	800.000	-0.056	0.178
-354.552	239.709	-0.059	0.099
-353.537	-200.000	0.031	0.234
-352.523	-23.398	0.341	-0.205
-351.508	-200.000	0.034	0.290
-350.493	-128.992	-0.188	-0.026
-349.479	237.732	0.082	0.137
-348.464	800.000	0.006	0.019
-347.450	-156.718	-0.079	-0.005
-346.435	-200.000	-0.040	-0.337
-345.420	-200.000	0.032	-0.176
-344.406	-200.000	0.047	0.323
-343.391	-103.610	-0.285	-0.067
-342.377	282.547	0.108	-0.194
-341.362	-200.000	-0.043	-0.258
-340.348	-200.000	0.034	-0.249
-339.333	270.217	0.274	-0.483
-338.318	-93.122	0.079	0.022
-337.304	-200.000	0.050	0.392
-336.289	-43.214	0.308	0.156
-335.275	-200.000	0.004	-0.104
-334.260	-200.000	0.049	0.262
-333.245	-85.032	-0.302	0.095
-332.231	67.207	0.279	0.285
-331.216	-20.467	0.284	0.175
-330.202	119.784	0.108	0.134
-329.187	-119.869	-0.197	0.034
-328.172	-18.526	0.154	-0.096
-327.158	46.453	0.162	0.150
-326.143	127.303	0.106	0.135
-325.129	59.886	-0.302	-0.299
-324.114	-42.237	-0.266	-0.136
-323.099	-53.847	0.117	-0.054
-322.085	-94.467	0.332	-0.091
-321.070	53.191	0.111	-0.106
-320.056	9.501	-0.045	0.034
-319.041	-166.258	-0.218	-0.009
-318.026	416.390	0.110	-0.236
-317.012	319.511	-0.126	-0.239
-315.997	-200.000	-0.001	-0.045
-314.983	-200.000	0.025	-0.130
-313.968	641.390	-0.081	0.208
-312.953	-122.188	-0.100	0.016
-311.939	-49.370	0.258	0.123
-310.924	172.254	-0.205	0.295
-309.910	-123.313	0.222	-0.036
-308.895	-200.000	0.008	-0.088
-307.880	158.424	-0.205	0.285
-306.866	-200.000	0.002	0.057
-305.851	-110.651	0.204	-0.042
-304.837	31.918	0.046	-0.040
-303.822	-200.000	-0.015	-0.069
-302.807	521.880	0.063	0.148
-301.793	68.473	0.141	-0.145
-300.778	133.046	-0.110	-0.142
-299.764	-136.327	0.330	0.038
-298.749	-117.686	-0.354	0.064
-297.735	79.869	-0.164	-0.176
-296.720	-200.000	0.013	0.071
-295.705	91.193	-0.059	0.066
-294.691	800.000	-0.008	0.025
-293.676	-200.000	0.006	-0.138
-292.662	69.002	0.132	0.135
-291.647	304.214	0.098	-0.182
-290.632	36.077	0.017	0.015
-289.618	-18.815	-0.095	-0.059
-288.603	39.403	0.109	0.097
-287.589	-200.000	0.047	0.242
-286.574	-200.000	0.013	0.243
-285.559	-69.063	-0.076	0.029
-284.545	-200.000	0.093	-0.516
-283.530	-38.630	0.203	0.107
-282.516	-159.339	0.162	0.009
-281.501	-119.420	0.180	0.031
-280.486	800.000	0.078	-0.337
-279.472	-102.373	0.089	0.021
-278.457	-200.000	0.000	-0.075
-277.443	-200.000	0.021	0.115
-276.428	-12.881	0.321	0.209
-275.413	-68.733	-0.222	0.086
-274.399	359.168	-0.162	0.324
-273.384	8.078	0.110	0.083
-272.370	58.628	0.269	0.264
-271.355	-95.285	-0.225	-0.061
-270.340	343.681	0.275	-0.538
-269.326	-14.330	0.283	0.182
-268.311	84.440	-0.113	0.123
-267.297	-126.035	0.337	0.051
-266.282	-153.384	0.369	-0.026
-265.267	-200.000	0.010	0.319
-264.253	-110.981	0.080	-0.016
-263.238	-200.000	0.027	-0.365
-262.224	-105.006	0.129	-0.030
-261.209	-95.913	0.229	-0.061
-260.195	-35.324	0.379	0.206
-259.180	-56.675	-0.109	-0.048
-258.165	111.792	-0.133	-0.160
-257.151	128.462	-0.155	-0.197
-256.136	-57.731	0.173	0.075
-255.122	-85.873	-0.265	-0.082
-254.107	30.715	-0.218	-0.186
-253.092	68.118	-0.055	-0.056
-252.078	-159.470	0.603	0.034
-251.063	-113.397	-0.324	0.063
-250.049	660.994	0.026	0.067
-249.034	356.698	-0.156	0.310
-248.019	324.054	-0.056	0.106
-247.005	-144.398	0.604	-0.056
-245.990	-200.000	0.039	-0.309
-244.976	-61.737	0.294	0.123
-243.961	296.920	0.128	-0.234
-242.946	800.000	0.087	-0.245
-241.932	-200.000	-0.050	0.314
-240.917	-70.354	-0.020	0.008
-239.903	128.327	0.196	0.249
-238.888	-36.400	0.100	-0.054
-237.873	482.536	0.073	-0.166
-236.859	-72.553	0.073	-0.027
-235.844	118.540	0.057	0.070
-234.830	-79.192	0.160	0.054
-233.815	-200.000	0.015	0.192
-232.800	671.053	-0.074	-0.191
-231.786	189.615	-0.132	0.198
-230.771	-8.708	0.462	0.309
-229.757	159.120	-0.101	-0.141
-228.742	462.893	-0.125	-0.278
-227.727	-64.743	0.199	0.080
-226.713	-68.222	-0.012	-0.005
-225.698	-97.704	0.311	-0.080
-224.684	-200.000	0.011	-0.209
-223.669	-200.000	-0.040	-0.186
-222.655	800.000	0.055	0.171
-221.640	22.453	-0.143	-0.116
-220.625	-77.816	0.278	-0.096
-219.611	800.000	-0.139	0.509
-218.596	-109.591	-0.238	0.050
-217.582	18.106	-0.149	0.118
-216.567	48.441	0.056	-0.052
-215.552	345.839	-0.064	-0.125
-214.538	-58.701	0.068	-0.029
-213.523	-16.043	0.177	0.112
-212.509	800.000	0.102	-0.436
-211.494	-1.016	0.127	0.089
-210.479	-89.688	-0.119	-0.035
-209.465	-200.000	-0.012	0.238
-208.450	-36.990	0.095	-0.050
-207.436	-107.328	-0.227	-0.050
-206.421	-83.849	-0.147	0.047
-205.406	-52.437	-0.032	0.015
-204.392	-200.000	0.026	-0.134
-203.377	-96.407	0.177	-0.047
-202.363	50.264	-0.203	-0.191
-201.348	343.018	0.141	-0.275
-200.333	-143.931	-0.132	-0.012
-199.319	127.728	-0.182	0.230
-198.304	136.429	0.244	-0.317
-197.290	375.044	0.035	0.071
-196.275	800.000	-0.154	0.484
-195.260	13.063	-0.151	0.116
-194.246	38.842	-0.305	-0.271
-193.231	-200.000	-0.022	0.271
-192.217	58.789	-0.135	0.132
-191.202	-97.573	-0.204	0.053
-190.187	-200.000	-0.027	0.202
-189.173	-93.415	0.244	0.067
-188.158	79.264	0.142	0.151
-187.144	113.127	-0.147	0.177
-186.129	143.075	-0.212	0.281
-185.114	-3.420	0.289	0.200
-184.100	15.972	-0.016	0.012
-183.085	401.062	0.106	-0.222
-182.071	-145.821	-0.112	0.010
-181.056	-200.000	0.021	-0.202
-180.042	-200.000	-0.007	0.066
-179.027	-200.000	0.040	0.239
-178.012	77.807	-0.222	0.235
-176.998	-10.968	-0.372	0.244
-175.983	-23.254	0.249	-0.149
-174.969	276.572	-0.225	0.398
-173.954	159.030	0.239	0.331
-172.939	91.020	0.218	0.243
-171.925	-30.929	-0.181	0.102
-170.910	33.613	0.172	0.149
-169.896	-151.112	-0.216	0.016
-168.881	-100.252	0.370	0.092
-167.866	136.475	0.091	0.118
-166.852	-200.000	-0.021	-0.112
-165.837	800.000	-0.031	-0.127
-164.823	-181.831	0.047	0.001
-163.808	32.702	-0.155	-0.133
-162.793	111.370	0.133	0.159
-161.779	173.307	-0.118	-0.169
-160.764	53.526	-0.070	0.067
-159.750	800.000	0.012	0.041
-158.735	-125.986	0.110	-0.016
-157.720	32.597	0.252	0.217
-156.706	-55.480	-0.198	-0.088
-155.691	800.000	0.076	0.309
-154.677	349.167	0.072	-0.141
-153.662	47.031	0.069	0.064
-152.647	22.440	-0.062	0.050
-151.633	-200.000	0.001	-0.006
-150.618	-15.306	-0.216	0.137
-149.604	800.000	0.030	-0.112
-148.589	-200.000	0.020	-0.184
-147.574	111.346	0.128	0.153
-146.560	96.623	0.099	-0.112
-145.545	-200.000	-0.022	0.110
-144.531	-72.279	-0.142	0.052
-143.516	-200.000	-0.046	-0.224
-142.502	229.586	0.134	0.217
-141.487	-200.000	0.006	-0.367
-140.472	800.000	-0.030	-0.125
-139.458	-200.000	-0.001	-0.037
-138.443	-200.000	-0.028	-0.258
-137.429	-200.000	0.244	-0.000
-136.414	-200.000	0.068	-0.373
-135.399	-80.753	0.286	0.095
-134.385	58.662	0.037	-0.036
-133.370	800.000	-0.053	-0.189
-132.356	-138.035	-0.320	-0.035
-131.341	160.630	0.059	0.082
-130.326	-98.329	-0.215	-0.055
-129.312	-6.499	-0.027	-0.018
-128.297	-107.866	0.285	0.062
-127.283	459.955	-0.050	-0.110
-126.268	-68.600	-0.182	0.070
-125.253	-119.233	-0.095	-0.017
-124.239	470.751	0.073	0.162
-123.224	170.533	-0.148	-0.210
-122.210	-200.000	0.017	-0.160
-121.195	-200.000	0.016	0.087
-120.180	-134.096	0.042	-0.005
-119.166	-33.597	-0.094	0.051
-118.151	136.715	-0.181	0.235
-117.137	-109.378	-0.271	-0.057
-116.122	199.463	0.178	0.271
-115.107	67.985	-0.096	-0.098
-114.093	234.251	-0.155	0.253
-113.078	800.000	-0.046	-0.193
-112.064	-200.000	0.007	-0.056
-111.049	-23.698	0.137	0.082
-110.034	-80.703	-0.130	0.043
-109.020	285.041	0.132	-0.237
-108.005	-200.000	-0.007	0.118
-106.991	-117.360	-0.272	-0.049
-105.976	484.423	0.024	0.054
-104.962	83.872	0.114	0.124
-103.947	1.202	-0.211	0.151
-102.932	-64.980	-0.263	0.105
-101.918	-110.223	0.128	0.026
-100.903	653.406	-0.060	-0.153
-99.889	-31.325	0.328	-0.183
-98.874	800.000	-0.060	0.168
-97.859	-154.142	-0.088	-0.006
-96.845	-200.000	0.003	0.206
-95.830	800.000	0.159	0.678
-94.816	64.824	0.316	0.317
-93.801	-101.620	0.049	-0.012
-92.786	-200.000	-0.018	0.259
-91.772	800.000	0.019	-0.063
-90.757	800.000	0.068	0.208
-89.743	-200.000	0.011	0.104
-88.728	-117.382	-0.219	0.039
-87.713	-200.000	0.013	-0.156
-86.699	-200.000	-0.004	0.238
-85.684	42.343	0.032	0.028
-84.670	-104.546	0.180	0.041
-83.655	-11.931	0.234	-0.152
-82.640	321.168	-0.174	-0.328
-81.626	-11.833	0.279	-0.182
-80.611	800.000	-0.031	-0.107
-79.597	-29.934	0.204	0.115
-78.582	800.000	-0.056	-0.227
-77.567	-24.582	0.242	-0.143
-76.553	35.192	0.190	0.165
-75.538	387.293	0.257	0.526
-74.524	-74.840	0.254	-0.090
-73.509	384.340	0.021	-0.042
-72.494	271.659	-0.141	0.246
-71.480	-200.000	0.015	-0.467
-70.465	800.000	0.103	0.302
-69.451	327.564	0.112	0.213
-68.436	31.496	-0.085	-0.072
-67.422	683.265	-0.063	0.164
-66.407	45.234	0.115	-0.105
-65.392	-40.985	-0.327	-0.167
-64.378	800.000	0.057	-0.181
-63.363	-188.809	0.209	0.003
-62.349	207.939	0.110	-0.170
-61.334	46.194	-0.862	-0.791
-60.319	142.317	0.224	0.295
-59.305	-200.000	-0.077	-0.954
-58.290	132.010	0.661	0.843
-57.276	800.000	0.496	1.390
-56.261	-200.000	97.789	585.361
-55.246	649.694	1393.343	3531.062
-54.232	186.590	2601.577	3835.613
-53.217	122.778	2197.832	2722.866
-52.203	45.889	1731.197	1585.561
-51.188	38.409	1541.617	1360.121
-50.173	35.832	1514.423	1318.447
-49.159	54.864	1565.199	1495.674
-48.144	59.023	1583.652	1542.183
-47.130	38.674	1538.973	1359.416
-46.115	35.378	1524.049	1323.488
-45.100	35.272	1520.400	1319.533
-44.086	35.221	1518.455	1317.444
-43.071	35.254	1516.407	1315.841
-42.057	35.099	1514.910	1313.428
-41.042	35.108	1513.529	1312.238
-40.027	35.166	1511.809	1311.094
-39.013	35.249	1510.058	1310.092
-37.998	35.127	1509.536	1308.752
-36.984	35.175	1508.380	1308.024
-35.969	35.224	1507.024	1307.129
-34.954	35.180	1505.516	1305.472
-33.940	35.230	1504.073	1304.510
-32.925	35.258	1502.649	1303.409
-31.911	35.228	1501.359	1302.037
-30.896	35.217	1500.353	1301.038
-29.881	35.306	1498.680	1300.141
-28.867	35.273	1496.953	1298.365
-27.852	35.285	1495.780	1297.377
-26.838	35.244	1494.336	1295.801
-25.823	35.270	1492.791	1294.580
-24.809	35.249	1491.159	1292.973
-23.794	35.204	1489.875	1291.506
-22.779	35.224	1488.624	1290.506
-21.765	35.347	1487.306	1290.136
-20.750	35.160	1486.523	1288.149
-19.736	35.223	1485.313	1287.475
-18.721	35.225	1484.041	1286.332
-17.706	35.163	1483.397	1285.306
-16.692	35.173	1482.060	1284.165
-15.677	35.143	1481.390	1283.335
-14.663	35.165	1480.465	1282.629
-13.648	35.097	1479.415	1281.211
-12.633	35.150	1478.059	1280.342
-11.619	35.101	1477.607	1279.576
-10.604	35.073	1476.442	1278.328
-9.590	35.131	1475.756	1278.070
-8.575	35.204	1474.638	1277.535
-7.560	35.102	1474.387	1276.585
-6.546	35.169	1473.012	1275.795
-5.531	35.036	1472.303	1274.245
-4.517	35.116	1471.290	1273.849
-3.502	35.169	1470.146	1273.159
-2.487	35.079	1469.753	1272.169
-1.473	35.167	1468.053	1271.233
-0.458	35.151	1466.547	1269.771
0.556	36.796	1456.123	1257.370
1.571	32.568	1428.359	1206.281
2.586	27.669	1362.805	1120.791
3.600	25.099	1278.053	1036.162
4.615	22.943	1231.040	985.947
5.629	19.297	1174.406	921.055
6.644	11.562	1090.286	816.490
7.659	5.742	1050.130	758.261
8.673	4.973	1044.599	750.501
9.688	4.809	1042.105	747.854
10.702	4.693	1040.552	746.115
11.717	4.855	1038.816	745.580
12.731	6.544	1040.242	754.630
13.746	13.756	1050.075	796.434
14.761	20.384	1058.268	834.541
15.775	21.454	1058.875	840.086
16.790	20.931	1056.974	835.993
17.804	19.863	1054.976	829.225
18.819	18.932	1053.412	823.467
19.834	18.468	1052.046	820.106
20.848	18.363	1051.003	818.717
21.863	18.152	1050.943	817.591
22.877	18.049	1050.016	816.305
23.892	17.832	1049.327	814.659
24.907	17.809	1048.047	813.486
25.921	17.727	1047.364	812.493
26.936	17.595	1046.876	811.412
27.950	17.747	1045.716	811.166
28.965	17.782	1044.619	810.410
29.980	17.919	1043.305	809.970
30.994	17.870	1042.586	809.107
32.009	18.041	1041.814	809.246
33.023	18.165	1041.045	809.162
34.038	18.175	1040.302	808.561
35.053	18.158	1039.112	807.484
36.067	17.959	1038.256	805.807
37.082	17.791	1037.655	804.477
38.096	17.800	1037.207	804.100
39.111	18.007	1036.021	804.084
40.126	18.036	1035.353	803.634
41.140	17.984	1034.016	802.278
42.155	17.730	1032.771	800.053
43.169	17.597	1031.697	798.525
44.184	17.400	1030.988	796.984
45.199	17.465	1029.499	796.064
46.213	17.410	1028.685	795.111
47.228	17.592	1028.068	795.411
48.242	17.838	1027.141	795.771
49.257	17.817	1026.682	795.248
50.271	17.824	1025.304	794.144
51.286	17.940	1024.324	793.851
52.301	17.945	1023.929	793.499
53.315	17.908	1023.495	792.920
54.330	17.769	1022.474	791.414
55.344	17.617	1021.665	790.016
56.359	17.757	1020.260	789.508
57.374	17.681	1019.421	788.436
58.388	17.653	1018.883	787.818
59.403	17.615	1017.812	786.746
60.417	17.458	1017.218	785.493
61.432	17.463	1016.470	784.871
62.447	17.545	1015.718	784.599
63.461	17.382	1014.700	782.989
64.476	17.481	1013.412	782.383
65.490	17.299	1012.970	781.137
66.505	17.308	1011.854	780.247
67.520	17.416	1011.270	780.222
68.534	17.386	1010.364	779.319
69.549	17.312	1010.189	778.773
70.563	17.354	1009.328	778.232
71.578	17.336	1008.473	777.425
72.593	17.314	1007.415	776.441
73.607	17.185	1006.416	775.011
74.622	17.044	1005.874	773.883
75.636	17.190	1004.353	773.311
76.651	17.334	1003.693	773.388
77.666	17.208	1003.487	772.589
78.680	17.337	1002.643	772.455
79.695	17.227	1002.339	771.654
80.709	17.350	1001.535	771.526
81.724	17.597	1000.421	771.717
82.739	17.555	999.956	771.101
83.753	17.584	999.512	770.822
84.768	17.749	998.923	771.043
85.782	17.899	998.312	771.180
86.797	18.266	997.269	771.964
87.812	18.146	996.546	770.794
88.826	17.993	995.957	769.583
89.841	17.773	995.089	767.852
90.855	18.025	993.780	767.907
91.870	18.063	993.564	767.844
92.884	18.157	992.915	767.697
93.899	18.060	991.975	766.464
94.914	18.134	991.020	765.991
95.928	18.167	990.670	765.800
96.943	18.171	990.004	765.238
97.957	18.018	989.051	763.747
98.972	17.903	988.473	762.722
99.987	17.968	987.417	762.129
101.001	17.994	986.749	761.664
102.016	18.005	985.983	761.053
103.030	18.060	984.667	760.216
104.045	17.958	983.909	759.107
105.060	18.146	982.460	758.757
106.074	17.921	982.273	757.546
107.089	17.817	980.873	755.942
108.103	17.531	980.224	754.107
109.118	17.514	979.024	753.040
110.133	17.451	978.331	752.165
111.147	17.442	977.397	751.340
112.162	17.296	976.839	750.198
113.176	17.420	975.718	749.818
114.191	17.554	974.940	749.745
115.206	17.692	974.115	749.648
116.220	17.574	973.654	748.713
117.235	17.533	972.624	747.672
118.249	17.581	971.794	747.179
119.264	17.547	970.635	746.073
120.279	17.562	969.679	745.336
121.293	17.390	968.918	743.932
122.308	17.423	968.559	743.739
123.322	17.370	967.533	742.650
124.337	17.349	966.400	741.627
125.352	17.271	964.964	740.116
126.366	17.229	964.161	739.254
127.381	17.066	963.268	737.795
128.395	17.156	962.495	737.529
129.410	17.251	961.585	737.178
130.424	17.261	961.154	736.827
131.439	17.487	959.543	736.503
132.454	17.502	959.349	736.356
133.468	17.534	958.914	736.095
134.483	17.615	957.721	735.462
135.497	17.544	957.121	734.631
136.512	17.480	956.609	733.897
137.527	17.573	955.998	733.764
138.541	17.647	954.801	733.098
139.556	17.570	954.524	732.489
140.570	17.546	953.759	731.736
141.585	17.819	952.803	732.107
142.600	17.852	952.390	731.866
143.614	18.135	951.293	732.169
144.629	18.009	950.766	731.162
145.643	18.083	949.907	730.752
146.658	18.048	949.383	730.134
147.673	17.870	948.187	728.392
148.687	17.811	947.009	727.171
149.702	17.699	946.246	726.043
150.716	17.709	945.508	725.458
151.731	17.736	944.446	724.692
152.746	17.591	944.136	723.773
153.760	17.671	943.098	723.252
154.775	17.840	942.029	723.087
155.789	17.891	941.687	722.974
156.804	17.882	940.989	722.337
157.819	17.824	940.353	721.540
158.833	17.823	939.713	720.979
159.848	17.996	939.056	721.142
160.862	18.202	938.365	721.416
161.877	18.008	937.878	720.164
162.892	17.975	936.820	719.147
163.906	17.684	935.584	716.909
164.921	17.558	934.686	715.630
165.935	17.662	933.553	715.137
166.950	17.730	932.535	714.578
167.964	17.811	931.614	714.146
168.979	17.888	930.579	713.615
169.994	17.729	929.596	712.133
171.008	17.744	928.867	711.574
172.023	17.856	928.047	711.348
173.037	17.889	927.296	710.849
174.052	18.013	926.807	710.927
175.067	18.046	925.604	710.077
176.081	17.863	925.024	708.811
177.096	17.764	923.719	707.336
178.110	17.653	923.456	706.612
179.125	17.689	922.665	706.095
180.140	17.760	922.036	705.844
181.154	17.744	921.207	705.080
182.169	17.908	920.387	705.069
183.183	18.031	920.161	705.342
184.198	18.150	919.181	705.017
185.213	18.177	918.712	704.705
186.227	18.103	918.147	703.908
187.242	18.059	917.989	703.539
188.256	18.172	917.205	703.341
189.271	18.297	916.545	703.288
190.286	18.250	915.663	702.354
191.300	18.111	915.008	701.221
192.315	17.912	913.545	699.225
193.329	17.487	912.927	696.947
194.344	17.645	912.167	696.954
195.359	17.724	911.895	697.005
196.373	17.721	912.031	697.037
197.388	17.925	911.278	697.231
198.402	18.249	910.377	697.803
199.417	18.349	909.864	697.755
200.432	18.337	909.921	697.688
201.446	18.447	909.657	697.872
202.461	18.625	909.324	698.282
203.475	18.605	908.708	697.662
204.490	18.575	907.946	696.894
205.504	18.411	906.810	695.297
206.519	18.280	905.838	693.957
207.534	18.300	904.909	693.267
208.548	18.202	904.911	692.810
209.563	18.265	903.894	692.223
210.577	18.219	903.574	691.730
211.592	18.083	903.041	690.712
212.607	18.371	902.457	691.367
213.621	18.397	902.488	691.434
214.636	18.580	901.112	691.056
215.650	18.477	900.416	690.048
216.665	18.394	899.867	689.232
217.680	18.498	899.449	689.271
218.694	18.742	898.939	689.796
219.709	18.611	898.877	689.165
220.723	18.554	897.908	688.131
221.738	18.679	897.161	687.996
222.753	18.524	896.553	686.852
223.767	18.578	895.660	686.322
224.782	18.665	894.778	685.933
225.796	18.724	894.380	685.802
226.811	18.705	893.999	685.373
227.826	18.809	893.033	684.989
228.840	18.716	892.133	683.865
229.855	18.603	891.279	682.700
230.869	18.549	891.203	682.368
231.884	18.601	890.434	681.925
232.899	18.554	889.288	680.801
233.913	18.493	888.923	680.219
234.928	18.503	887.976	679.474
235.942	18.349	887.317	678.299
236.957	18.459	886.688	678.195
237.972	18.386	886.050	677.358
238.986	18.432	885.531	677.084
240.001	18.435	884.747	676.433
241.015	18.377	883.873	675.479
242.030	18.372	883.735	675.293
243.045	18.487	882.915	675.059
244.059	18.550	882.400	674.853
245.074	18.633	881.942	674.771
246.088	18.782	881.004	674.580
247.103	18.761	880.846	674.316
248.117	18.890	880.389	674.412
249.132	18.909	879.890	674.044
250.147	19.068	879.188	674.068
251.161	19.314	879.111	674.916
252.176	19.441	878.455	674.846
253.190	19.473	877.827	674.433
254.205	19.481	877.082	673.829
255.220	19.368	877.046	673.303
256.234	19.440	875.969	672.696
257.249	19.432	875.338	672.121
258.263	19.482	874.477	671.596
259.278	19.413	874.048	670.937
260.293	19.433	873.707	670.696
261.307	19.410	873.189	670.146
262.322	19.538	872.625	670.152
263.336	19.588	871.873	669.711
264.351	19.511	871.618	669.154
265.366	19.640	871.050	669.159
266.380	19.677	870.186	668.582
267.395	19.551	869.595	667.581
268.409	19.403	868.739	666.292
269.424	19.529	867.730	665.945
270.439	19.486	867.244	665.346
271.453	19.496	866.121	664.465
272.468	19.226	865.955	663.241
273.482	19.375	864.904	662.952
274.497	19.228	865.098	662.474
275.512	19.391	864.166	662.329
276.526	19.318	863.213	661.261
277.541	19.434	862.583	661.162
278.555	19.500	861.704	660.685
279.570	19.450	861.704	660.435
280.585	19.727	861.309	661.131
281.599	19.638	860.803	660.345
282.614	19.620	860.135	659.707
283.628	19.543	859.129	658.582
284.643	19.494	858.844	658.118
285.657	19.673	857.951	658.058
286.672	19.602	857.651	657.499
287.687	19.732	857.013	657.443
288.701	19.596	856.758	656.676
289.716	19.473	856.063	655.616
290.730	19.595	855.516	655.604
291.745	19.669	855.154	655.547
292.760	19.640	854.016	654.508
293.774	19.828	853.536	654.793
294.789	19.825	853.262	654.514
295.803	19.748	852.887	653.876
296.818	19.662	851.836	652.689
297.833	19.508	851.405	651.722
298.847	19.535	850.643	651.180
299.862	19.664	849.947	651.075
300.876	19.744	849.466	650.951
301.891	19.875	848.434	650.596
302.906	19.851	848.097	650.191
303.920	20.019	847.381	650.213
304.935	20.018	847.269	650.068
305.949	19.998	846.818	649.588
306.964	20.120	846.118	649.449
307.979	19.983	845.307	648.258
308.993	19.974	844.816	647.791
310.008	20.022	844.504	647.673
311.022	20.245	843.811	647.916
312.037	20.147	843.157	646.994
313.052	19.926	842.604	645.686
314.066	19.710	841.951	644.325
315.081	19.690	841.344	643.730
316.095	19.692	840.703	643.189
317.110	19.649	840.501	642.817
318.125	19.777	839.537	642.498
319.139	19.729	839.243	642.036
320.154	19.765	838.694	641.695
321.168	19.788	838.279	641.405
322.183	19.712	837.692	640.620
323.197	19.856	837.068	640.616
324.212	19.904	836.710	640.465
325.227	19.925	835.975	639.924
326.241	20.034	835.321	639.770
327.256	19.821	834.818	638.538
328.270	19.766	834.649	638.151
329.285	19.738	834.049	637.533
330.300	19.926	833.075	637.426
331.314	19.845	832.609	636.715
332.329	19.873	832.041	636.324
333.343	20.041	831.460	636.444
334.358	20.000	831.376	636.171
335.373	20.007	830.652	635.586
336.387	20.076	830.283	635.500
337.402	20.196	829.442	635.239
338.416	20.166	829.024	634.755
339.431	20.271	828.961	635.034
340.446	20.585	827.804	635.240
341.460	20.566	827.555	634.923
342.475	20.579	826.918	634.423
343.489	20.735	826.255	634.428
344.504	20.619	826.104	633.833
345.519	20.631	825.539	633.389
346.533	20.738	825.151	633.423
347.548	20.734	824.383	632.763
348.562	20.513	823.651	631.342
349.577	20.424	823.052	630.505
350.592	20.276	822.683	629.629
351.606	20.289	822.083	629.163
352.621	20.322	821.478	628.763
353.635	20.164	821.181	627.906
354.650	20.252	821.005	628.036
355.665	20.302	820.182	627.531
356.679	20.375	820.149	627.715
357.694	20.530	819.427	627.664
358.708	20.573	818.754	627.250
359.723	20.516	818.303	626.644
360.738	20.608	817.565	626.356
361.752	20.471	817.064	625.421
362.767	20.503	816.982	625.421
363.781	20.637	816.703	625.632
364.796	20.722	816.407	625.655
365.810	20.912	815.569	625.640
366.825	20.986	815.245	625.601
367.840	20.977	815.229	625.502
368.854	21.001	814.918	625.294
369.869	20.959	814.319	624.630
370.883	20.926	813.356	623.716
371.898	20.844	813.238	623.278
372.913	20.858	812.649	622.821
373.927	20.962	811.863	622.535
374.942	20.882	811.370	621.818
375.956	20.914	810.497	621.208
376.971	21.011	810.029	621.137
377.986	20.898	809.800	620.505
379.000	21.132	809.465	621.027
380.015	21.069	809.289	620.614
381.029	21.151	808.195	620.011
382.044	21.072	807.873	619.427
383.059	21.125	807.103	618.971
384.073	21.147	806.277	618.360
385.088	21.309	805.447	618.243
386.102	21.094	805.085	617.149
387.117	21.035	804.621	616.530
388.132	20.902	804.292	615.752
389.146	20.901	803.791	615.312
390.161	20.892	803.452	614.968
391.175	21.061	803.164	615.289
392.190	21.160	802.441	615.027
393.205	21.030	802.254	614.371
394.219	20.963	801.713	613.668
395.234	21.111	801.011	613.596
396.248	21.094	800.628	613.189
397.263	20.832	800.286	611.954
398.278	20.878	799.277	611.288
399.292	20.752	798.940	610.536
400.307	20.767	798.843	610.459
401.321	20.975	798.143	610.600
402.336	20.890	797.554	609.796
403.350	20.923	797.370	609.719
404.365	21.080	797.098	610.006
405.380	21.163	796.576	609.842
406.394	21.188	796.306	609.668
407.409	21.224	796.048	609.544
408.423	21.403	795.585	609.757
409.438	21.594	794.928	609.865
410.453	21.564	794.653	609.497
411.467	21.498	794.639	609.201
412.482	21.508	794.043	608.726
413.496	21.653	793.326	608.628
414.511	21.668	793.056	608.416
415.526	21.783	792.757	608.532
416.540	21.698	792.181	607.742
417.555	21.579	791.585	606.818
418.569	21.496	791.290	606.250
419.584	21.544	791.124	606.237
420.599	21.620	790.342	605.846
421.613	158.420	1368.059	1787.966
422.628	137.159	1452.245	1788.055
