DTS Sentinel unit serial number:	SN413079Multiplexer serial number:	ORYXHardware model number:	OX4-SRSoftware version number:	ORYX F/W v4.00 Oryx Data Collector v3.7.2.0data status	okinstallation	princeton_trtdifferential loss correction	single-endedforward channel	channel 3reverse channel	N/Adate	2019/09/12time	14:38:11forward acquisition time	60.00reverse acquisition time	0.00gamma	496.2192k internal	0.2294k external	0.2294temperature offset calibration	1.0051default loss term (dB/km)	0.3790temperature slope calibration	1.0000multiplexer offset coefficient	1.0000multiplexer slope coefficient	1.0000fibre end	0.00T internal ref (°C)	40.09T ext. ref 1 (°C)	2.27T ext. ref 2 (°C)	36.52length (m)	temperature (°C)	Stokes	anti-Stokes-747.200	-200.000	-0.025	-0.159
-746.185	-200.000	-0.052	0.290
-745.171	85.293	0.065	0.073
-744.156	-141.534	-0.133	0.014
-743.142	242.929	-0.084	0.145
-742.127	154.835	0.026	-0.037
-741.112	-40.511	-0.210	0.112
-740.098	-200.000	0.093	0.462
-739.083	-28.081	-0.140	-0.083
-738.069	-33.889	-0.268	0.151
-737.054	-97.083	-0.027	0.007
-736.039	-170.193	-0.295	0.011
-735.025	-83.053	0.413	-0.136
-734.010	-126.680	0.221	0.033
-732.996	-141.105	0.129	-0.013
-731.981	80.478	-0.146	-0.161
-730.966	-200.000	0.019	-0.257
-729.952	399.474	-0.185	-0.396
-728.937	108.426	0.301	0.368
-727.923	-91.371	-0.263	-0.077
-726.908	611.087	-0.173	-0.443
-725.894	338.841	-0.176	-0.349
-724.879	-200.000	0.034	-0.170
-723.864	-178.181	0.140	0.003
-722.850	-157.441	-0.465	-0.029
-721.835	-2.749	0.394	0.282
-720.821	-149.127	0.246	-0.020
-719.806	15.508	-0.109	-0.088
-718.791	-124.282	-0.191	-0.031
-717.777	-138.629	0.224	0.025
-716.762	506.083	0.107	-0.253
-715.748	470.744	-0.060	-0.137
-714.733	297.730	-0.187	-0.352
-713.718	229.584	0.209	-0.349
-712.704	476.785	-0.139	-0.320
-711.689	-107.474	-0.070	-0.016
-710.675	-200.000	-0.042	0.326
-709.660	14.865	0.197	-0.158
-708.645	-38.929	-0.071	0.038
-707.631	196.608	-0.051	-0.079
-706.616	-159.811	0.106	0.006
-705.602	107.920	-0.056	-0.068
-704.587	43.626	0.077	-0.072
-703.572	800.000	0.018	0.052
-702.558	37.196	0.078	-0.071
-701.543	-31.862	0.129	0.074
-700.529	315.684	-0.028	-0.053
-699.514	312.903	0.151	-0.291
-698.499	-88.265	0.051	0.016
-697.485	46.374	-0.052	0.050
-696.470	526.367	0.087	-0.208
-695.456	-26.293	0.226	-0.135
-694.441	-28.577	-0.216	-0.127
-693.426	-10.858	-0.435	-0.293
-692.412	800.000	-0.078	0.292
-691.397	-134.454	-0.050	0.006
-690.383	5.094	0.047	0.035
-689.368	-94.537	0.244	0.068
-688.354	-77.871	-0.242	-0.085
-687.339	81.841	0.272	0.300
-686.324	-151.372	-0.217	0.016
-685.310	-40.990	0.168	-0.089
-684.295	110.255	-0.131	-0.160
-683.281	70.094	0.219	0.230
-682.266	130.772	-0.246	0.322
-681.251	-60.511	-0.179	0.078
-680.237	-44.880	0.232	-0.118
-679.222	124.165	0.062	0.080
-678.208	-17.516	-0.180	-0.115
-677.193	112.445	-0.086	-0.107
-676.178	-200.000	-0.051	-0.292
-675.164	242.827	-0.090	-0.154
-674.149	-144.705	-0.225	0.021
-673.135	800.000	0.031	0.105
-672.120	-99.856	0.312	0.080
-671.105	-129.632	-0.251	-0.035
-670.091	-77.148	0.263	0.094
-669.076	-76.227	0.149	-0.054
-668.062	-64.259	-0.394	-0.164
-667.047	-43.939	0.251	-0.129
-666.032	-137.309	0.379	-0.044
-665.018	-12.509	-0.235	-0.156
-664.003	800.000	0.032	0.140
-662.989	135.851	-0.146	0.194
-661.974	280.707	0.117	0.213
-660.959	-98.805	-0.220	0.057
-659.945	678.980	-0.024	0.062
-658.930	800.000	-0.063	-0.216
-657.916	800.000	-0.089	-0.340
-656.901	173.372	-0.142	-0.209
-655.886	-200.000	0.066	-0.489
-654.872	13.537	-0.177	0.140
-653.857	-200.000	-0.046	-0.266
-652.843	800.000	-0.099	-0.323
-651.828	-119.943	-0.509	0.089
-650.814	180.785	0.089	0.133
-649.799	243.110	0.023	0.040
-648.784	800.000	-0.118	0.413
-647.770	199.690	0.114	-0.178
-646.755	-200.000	0.022	0.184
-645.741	-200.000	0.017	-0.168
-644.726	118.729	0.347	0.437
-643.711	362.429	-0.135	0.275
-642.697	242.600	-0.134	0.228
-641.682	800.000	0.088	0.282
-640.668	73.615	0.168	-0.179
-639.653	-142.810	0.165	0.016
-638.638	112.741	0.050	0.062
-637.624	-200.000	0.000	-0.017
-636.609	-77.453	-0.142	-0.050
-635.595	-200.000	-0.004	-0.459
-634.580	60.534	0.050	-0.050
-633.565	-200.000	0.013	0.250
-632.551	800.000	-0.102	0.320
-631.536	-133.823	0.077	0.010
-630.522	-200.000	0.064	-0.357
-629.507	-200.000	0.007	-0.254
-628.492	-8.477	0.174	-0.119
-627.478	800.000	-0.088	0.254
-626.463	-118.159	0.026	0.005
-625.449	33.039	-0.127	-0.112
-624.434	-200.000	-0.025	0.220
-623.419	-65.107	0.212	0.087
-622.405	526.390	0.073	-0.174
-621.390	-26.938	-0.134	0.080
-620.376	-200.000	0.016	0.277
-619.361	-200.000	-0.035	-0.248
-618.346	-93.475	-0.284	-0.080
-617.332	17.058	-0.135	-0.109
-616.317	108.317	0.055	0.067
-615.303	575.184	-0.008	0.019
-614.288	10.679	0.164	0.127
-613.273	1.643	-0.161	-0.118
-612.259	-200.000	-0.004	-0.165
-611.244	-25.564	-0.241	0.145
-610.230	800.000	0.056	0.235
-609.215	69.626	0.151	0.158
-608.201	-42.086	-0.140	-0.073
-607.186	100.021	-0.143	-0.169
-606.171	89.886	0.041	-0.047
-605.157	37.720	-0.147	-0.133
-604.142	-200.000	0.012	-0.081
-603.128	191.568	-0.105	-0.161
-602.113	-39.252	-0.161	0.086
-601.098	-200.000	0.025	0.462
-600.084	-92.684	0.336	0.096
-599.069	-200.000	-0.073	-0.444
-598.055	-72.387	0.067	-0.025
-597.040	-200.000	-0.003	-0.184
-596.025	62.782	-0.105	0.107
-595.011	51.128	-0.153	0.148
-593.996	661.280	0.125	-0.326
-592.982	32.474	0.150	0.132
-591.967	800.000	-0.040	-0.166
-590.952	670.375	-0.118	0.310
-589.938	355.155	-0.099	-0.201
-588.923	-132.629	-0.427	0.056
-587.909	201.299	-0.077	0.120
-586.894	148.892	0.080	-0.110
-585.879	-108.518	-0.201	-0.044
-584.865	-78.696	-0.236	-0.082
-583.850	-200.000	0.024	0.150
-582.836	-137.557	-0.224	-0.026
-581.821	601.920	0.052	-0.131
-580.806	237.684	-0.043	-0.073
-579.792	271.234	-0.104	-0.186
-578.777	243.797	-0.048	0.083
-577.763	411.251	-0.255	0.549
-576.748	303.817	-0.177	0.333
-575.733	185.921	-0.058	-0.088
-574.719	-200.000	0.069	-0.328
-573.704	-21.201	0.085	0.053
-572.690	173.629	-0.071	-0.105
-571.675	106.337	-0.058	-0.070
-570.661	-100.252	0.112	-0.028
-569.646	-128.842	0.363	-0.052
-568.631	590.853	0.117	-0.293
-567.617	-200.000	0.018	0.125
-566.602	800.000	0.038	0.116
-565.588	-188.138	-0.413	-0.005
-564.573	-7.677	0.100	-0.069
-563.558	-90.529	-0.234	-0.069
-562.544	-65.207	0.247	-0.101
-561.529	-49.828	-0.176	0.085
-560.515	142.304	0.061	0.082
-559.500	132.264	-0.235	-0.308
-558.485	-20.170	0.042	-0.026
-557.471	6.798	0.187	0.141
-556.456	-200.000	-0.032	-0.324
-555.442	733.410	-0.115	0.314
-554.427	24.449	-0.108	0.090
-553.412	-153.351	-0.088	0.006
-552.398	-62.633	0.088	-0.037
-551.383	28.104	0.131	-0.113
-550.369	-200.000	-0.038	-0.372
-549.354	98.322	0.146	-0.171
-548.339	232.419	-0.183	0.304
-547.325	39.169	-0.162	0.148
-546.310	188.703	0.192	-0.291
-545.296	320.845	0.033	0.063
-544.281	-200.000	-0.042	0.198
-543.266	283.176	0.063	0.115
-542.252	-200.000	0.077	0.520
-541.237	199.429	0.118	0.184
-540.223	-200.000	0.013	-0.151
-539.208	151.283	0.008	0.011
-538.193	-108.805	-0.311	0.067
-537.179	-28.933	-0.117	-0.068
-536.164	-138.044	0.138	0.016
-535.150	-14.493	0.127	0.083
-534.135	-180.494	-0.255	0.005
-533.121	122.124	0.231	0.292
-532.106	70.097	-0.224	-0.235
-531.091	-200.000	-0.001	-0.061
-530.077	-200.000	0.019	0.196
-529.062	-200.000	-0.044	0.250
-528.048	26.019	0.128	0.108
-527.033	800.000	-0.053	-0.218
-526.018	-200.000	-0.009	-0.121
-525.004	-200.000	-0.019	0.131
-523.989	1.464	0.196	-0.143
-522.975	123.183	0.072	-0.091
-521.960	-200.000	-0.038	0.176
-520.945	14.925	-0.176	0.140
-519.931	-56.488	-0.282	0.127
-518.916	-24.136	-0.246	0.149
-517.902	-200.000	0.071	-0.334
-516.887	800.000	0.047	-0.185
-515.872	-79.381	-0.182	-0.062
-514.858	-193.631	-0.209	-0.002
-513.843	236.961	-0.152	0.255
-512.829	-29.471	0.196	-0.113
-511.814	-200.000	0.016	0.238
-510.799	-132.896	0.268	-0.035
-509.785	-64.820	0.126	0.052
-508.770	38.096	0.095	-0.086
-507.756	87.139	0.164	0.184
-506.741	463.620	-0.122	0.275
-505.726	-127.747	0.227	0.033
-504.712	375.081	-0.127	-0.263
-503.697	-200.000	-0.070	-0.314
-502.683	-200.000	-0.042	-0.232
-501.668	382.236	0.039	0.082
-500.653	-131.731	0.338	0.045
-499.639	180.854	0.269	-0.401
-498.624	800.000	0.027	-0.121
-497.610	-154.805	0.226	0.015
-496.595	227.751	-0.125	0.206
-495.581	-36.689	0.249	-0.135
-494.566	-15.993	-0.259	-0.167
-493.551	509.863	0.135	0.317
-492.537	26.275	-0.261	0.221
-491.522	332.779	0.016	-0.031
-490.508	-200.000	-0.032	0.193
-489.493	-104.448	0.152	-0.036
-488.478	-87.856	-0.030	-0.009
-487.464	-200.000	0.002	-0.018
-486.449	-135.137	-0.105	-0.013
-485.435	800.000	-0.079	-0.312
-484.420	800.000	0.147	-0.418
-483.405	-19.092	-0.112	-0.070
-482.391	191.027	-0.165	-0.252
-481.376	-86.251	-0.033	-0.010
-480.362	-49.110	-0.277	0.134
-479.347	-122.937	0.456	0.074
-478.332	372.414	0.080	0.164
-477.318	-96.346	-0.020	-0.005
-476.303	82.192	-0.122	-0.134
-475.289	18.499	0.061	-0.049
-474.274	64.275	-0.251	0.256
-473.259	-128.133	-0.352	-0.051
-472.245	30.540	-0.144	0.125
-471.230	-200.000	-0.014	-0.089
-470.216	-167.209	0.050	0.002
-469.201	-132.750	-0.102	-0.013
-468.186	-5.297	-0.073	-0.051
-467.172	20.721	-0.272	0.223
-466.157	-107.525	-0.480	-0.106
-465.143	37.454	0.252	0.226
-464.128	676.612	0.103	0.270
-463.113	87.760	0.139	0.155
-462.099	-106.141	0.307	-0.070
-461.084	33.690	0.219	0.193
-460.070	-61.423	-0.173	0.074
-459.055	-116.684	0.218	-0.041
-458.040	28.074	-0.219	0.187
-457.026	-200.000	0.000	-0.244
-456.011	800.000	0.035	0.126
-454.997	800.000	0.010	0.043
-453.982	-200.000	-0.031	-0.237
-452.968	-40.962	0.174	-0.091
-451.953	-156.679	-0.278	-0.017
-450.938	-120.739	-0.067	0.011
-449.924	800.000	0.043	-0.126
-448.909	238.939	-0.082	0.137
-447.895	-95.715	0.374	-0.101
-446.880	-200.000	0.004	0.102
-445.865	524.425	-0.136	0.323
-444.851	-105.379	-0.067	0.015
-443.836	-102.885	-0.312	0.075
-442.822	-137.988	0.213	-0.024
-441.807	-106.548	0.134	0.030
-440.792	-106.714	-0.117	-0.026
-439.778	111.832	-0.172	0.210
-438.763	87.618	0.203	0.227
-437.749	800.000	-0.024	-0.088
-436.734	112.547	-0.299	0.365
-435.719	-141.424	-0.245	-0.025
-434.705	-49.701	0.367	-0.176
-433.690	-144.931	0.309	-0.028
-432.676	404.476	0.131	-0.278
-431.661	800.000	0.073	0.255
-430.646	48.245	-0.148	0.140
-429.632	-200.000	-0.005	-0.155
-428.617	-200.000	-0.009	-0.387
-427.603	149.137	0.170	0.233
-426.588	57.490	-0.119	0.118
-425.573	-200.000	0.020	0.266
-424.559	150.530	0.178	-0.244
-423.544	329.559	0.080	0.155
-422.530	-200.000	0.027	-0.191
-421.515	-200.000	-0.088	-0.000
-420.500	5.054	0.332	-0.247
-419.486	800.000	0.038	-0.163
-418.471	800.000	-0.078	-0.248
-417.457	-200.000	0.037	-0.397
-416.442	-19.280	0.187	-0.117
-415.428	-172.317	-0.185	-0.006
-414.413	-174.069	0.155	-0.005
-413.398	800.000	0.065	0.207
-412.384	-48.363	-0.079	0.039
-411.369	-69.401	0.259	-0.100
-410.355	2.821	-0.013	-0.009
-409.340	-200.000	0.059	-0.343
-408.325	800.000	0.031	-0.127
-407.311	-73.313	-0.114	0.042
-406.296	800.000	0.053	0.206
-405.282	-114.438	-0.369	0.072
-404.267	-11.063	0.175	0.116
-403.252	-200.000	-0.015	0.151
-402.238	-112.832	-0.195	0.039
-401.223	-200.000	-0.032	0.331
-400.209	800.000	0.072	0.251
-399.194	30.137	-0.278	-0.239
-398.179	61.613	0.107	0.107
-397.165	177.019	0.118	-0.173
-396.150	-130.109	0.137	-0.019
-395.136	-190.941	-0.194	0.002
-394.121	-200.000	-0.003	0.258
-393.106	781.432	0.082	-0.226
-392.092	101.294	-0.070	0.082
-391.077	562.259	0.123	0.299
-390.063	46.428	0.199	-0.186
-389.048	-44.270	0.094	-0.047
-388.033	156.736	-0.092	0.128
-387.019	105.745	0.209	-0.249
-386.004	73.771	0.093	0.099
-384.990	582.775	0.078	0.194
-383.975	800.000	-0.060	0.208
-382.960	19.911	0.026	0.021
-381.946	-200.000	-0.011	-0.351
-380.931	369.804	0.158	-0.322
-379.917	-89.515	-0.126	0.037
-378.902	-65.276	-0.171	-0.070
-377.888	-200.000	-0.017	0.145
-376.873	-200.000	0.009	-0.237
-375.858	-24.460	-0.121	0.072
-374.844	-157.057	0.231	0.014
-373.829	454.025	0.116	-0.260
-372.815	-2.138	-0.125	-0.089
-371.800	-108.654	-0.420	-0.091
-370.785	27.431	0.047	-0.040
-369.771	-68.658	0.133	-0.052
-368.756	680.493	-0.091	0.238
-367.742	-200.000	0.010	0.103
-366.727	-38.751	0.049	-0.026
-365.712	-200.000	-0.030	-0.531
-364.698	-200.000	-0.009	-0.066
-363.683	800.000	0.057	-0.173
-362.669	-49.285	-0.177	0.085
-361.654	-200.000	0.035	-0.163
-360.639	-170.117	0.252	0.009
-359.625	223.487	0.107	-0.174
-358.610	-71.179	-0.187	-0.071
-357.596	545.318	0.084	-0.201
-356.581	321.115	-0.063	-0.121
-355.566	63.035	-0.278	0.281
-354.552	-157.981	0.235	-0.014
-353.537	-61.495	0.170	-0.072
-352.523	800.000	-0.054	-0.166
-351.508	709.344	0.114	-0.303
-350.493	-5.434	-0.202	0.140
-349.479	270.648	-0.091	0.160
-348.464	62.142	-0.070	0.070
-347.450	800.000	0.066	0.228
-346.435	-72.843	-0.048	0.018
-345.420	-200.000	-0.003	-0.141
-344.406	-100.133	0.200	-0.050
-343.391	154.413	0.089	-0.123
-342.377	157.127	0.093	-0.129
-341.362	84.267	0.168	0.185
-340.348	-200.000	0.059	0.451
-339.333	-200.000	0.006	-0.168
-338.318	23.843	0.257	0.213
-337.304	-76.176	0.116	0.041
-336.289	-1.160	-0.317	-0.225
-335.275	-200.000	0.006	-0.208
-334.260	-200.000	-0.011	-0.295
-333.245	202.956	-0.197	-0.306
-332.231	168.526	0.046	-0.067
-331.216	-200.000	0.023	0.164
-330.202	453.403	0.078	0.175
-329.187	82.791	-0.285	0.312
-328.172	800.000	-0.068	-0.210
-327.158	63.564	0.148	0.150
-326.143	-138.064	0.241	0.027
-325.129	325.224	0.125	0.240
-324.114	-147.473	0.129	0.011
-323.099	21.448	-0.137	0.112
-322.085	-21.244	-0.164	-0.101
-321.070	-118.681	-0.296	0.053
-320.056	-200.000	0.066	0.530
-319.041	800.000	0.086	0.262
-318.026	-5.239	-0.138	-0.095
-317.012	-21.362	-0.514	0.315
-315.997	800.000	-0.036	-0.140
-314.983	-92.245	-0.280	-0.079
-313.968	393.368	0.081	-0.169
-312.953	218.514	0.186	0.299
-311.939	-82.663	0.281	-0.091
-310.924	-179.073	0.144	-0.003
-309.910	-200.000	-0.011	0.138
-308.895	-5.243	-0.155	0.107
-307.880	295.924	0.062	-0.115
-306.866	-36.835	-0.527	-0.284
-305.851	-145.055	0.362	-0.033
-304.837	-92.985	0.066	-0.019
-303.822	-23.952	0.159	0.096
-302.807	-108.179	-0.205	-0.045
-301.793	385.780	0.091	-0.189
-300.778	105.233	-0.138	0.163
-299.764	-200.000	0.009	0.051
-298.749	154.288	0.079	-0.109
-297.735	74.317	0.150	0.159
-296.720	-138.136	-0.193	0.022
-295.705	800.000	-0.075	-0.211
-294.691	780.041	-0.031	0.086
-293.676	-36.325	-0.048	0.026
-292.662	-86.053	0.064	-0.020
-291.647	-200.000	0.037	-0.188
-290.632	800.000	-0.090	0.260
-289.618	24.590	-0.283	0.236
-288.603	-200.000	-0.007	-0.062
-287.589	310.567	0.098	-0.184
-286.574	183.655	0.323	0.480
-285.559	755.244	0.117	-0.317
-284.545	0.799	0.142	-0.102
-283.530	-200.000	-0.048	-0.263
-282.516	-125.752	-0.097	-0.015
-281.501	-200.000	0.018	0.249
-280.486	-127.572	-0.287	0.042
-279.472	-14.697	0.196	0.126
-278.457	-24.826	0.102	0.061
-277.443	-200.000	0.056	-0.402
-276.428	-200.000	-0.022	-0.251
-275.413	-119.586	-0.129	0.022
-274.399	63.460	-0.322	-0.324
-273.384	-200.000	-0.021	0.308
-272.370	190.973	0.116	-0.175
-271.355	-18.353	-0.053	0.033
-270.340	-200.000	0.002	0.051
-269.326	276.275	0.154	0.275
-268.311	-200.000	-0.023	-0.258
-267.297	-200.000	0.006	-0.345
-266.282	-128.487	0.396	0.056
-265.267	-200.000	0.003	-0.229
-264.253	-36.955	-0.221	0.119
-263.238	-200.000	0.006	-0.150
-262.224	-200.000	-0.038	-0.194
-261.209	-63.639	-0.321	0.132
-260.195	157.852	0.198	-0.275
-259.180	50.058	0.253	-0.239
-258.165	-62.524	0.191	0.080
-257.151	-102.198	0.283	-0.068
-256.136	-7.931	-0.096	-0.065
-255.122	-200.000	-0.019	0.275
-254.107	91.762	0.212	0.240
-253.092	-105.198	-0.396	-0.091
-252.078	171.902	0.115	0.165
-251.063	168.318	0.221	0.316
-250.049	20.536	0.165	-0.134
-249.034	206.195	0.182	0.284
-248.019	-94.221	0.182	0.050
-247.005	-86.154	-0.097	-0.030
-245.990	-140.957	-0.104	0.011
-244.976	-79.634	-0.197	0.067
-243.961	-108.860	0.264	-0.057
-242.946	-132.197	0.237	-0.031
-241.932	187.156	0.153	-0.229
-240.917	-85.139	0.447	-0.140
-239.903	32.119	-0.102	0.088
-238.888	800.000	-0.023	-0.070
-237.873	96.443	0.234	-0.269
-236.859	-200.000	-0.027	0.270
-235.844	-200.000	-0.002	0.020
-234.830	800.000	0.100	-0.285
-233.815	-44.563	0.160	-0.080
-232.800	58.970	0.275	-0.271
-231.786	-57.100	-0.160	0.071
-230.771	-178.651	0.430	0.010
-229.757	3.768	0.237	0.174
-228.742	347.244	-0.097	-0.192
-227.727	800.000	0.034	0.147
-226.713	-110.305	-0.220	0.046
-225.698	-57.775	-0.191	0.084
-224.684	800.000	0.076	0.256
-223.669	-67.877	0.088	-0.034
-222.655	-200.000	-0.008	-0.137
-221.640	-113.179	-0.241	0.047
-220.625	-169.498	0.125	0.005
-219.611	454.121	-0.164	0.363
-218.596	2.802	-0.262	0.191
-217.582	-106.542	-0.280	-0.063
-216.567	10.374	-0.243	0.185
-215.552	-83.051	0.184	-0.059
-214.538	800.000	-0.103	-0.311
-213.523	800.000	-0.042	-0.146
-212.509	343.400	-0.125	0.246
-211.494	800.000	0.091	0.333
-210.479	-83.334	0.375	0.121
-209.465	-200.000	-0.051	-0.263
-208.450	7.277	-0.118	0.088
-207.436	71.089	-0.188	0.195
-206.421	44.700	-0.274	0.252
-205.406	141.832	-0.118	-0.156
-204.392	690.599	-0.051	0.134
-203.377	-122.418	0.307	-0.050
-202.363	-163.332	-0.300	0.014
-201.348	41.407	-0.074	-0.067
-200.333	-56.702	0.255	-0.113
-199.319	-200.000	0.008	-0.127
-198.304	56.604	-0.183	0.178
-197.290	-34.919	-0.180	-0.099
-196.275	79.716	0.193	0.208
-195.260	-105.120	0.217	0.050
-194.246	-13.630	-0.173	-0.112
-193.231	-200.000	-0.022	-0.155
-192.217	59.653	0.060	-0.059
-191.202	558.934	0.081	0.195
-190.187	-46.293	0.202	0.100
-189.173	800.000	-0.033	0.125
-188.158	-200.000	0.029	-0.152
-187.144	-200.000	0.038	0.206
-186.129	-200.000	-0.020	-0.340
-185.114	-200.000	-0.098	-0.459
-184.100	105.554	0.166	0.196
-183.085	46.283	0.163	0.151
-182.071	-97.640	-0.032	-0.008
-181.056	474.809	0.232	0.524
-180.042	-27.309	0.234	-0.136
-179.027	-48.386	-0.359	0.173
-178.012	-200.000	-0.032	0.243
-176.998	-2.234	-0.460	0.323
-175.983	71.379	0.245	-0.254
-174.969	216.727	0.075	-0.120
-173.954	83.718	-0.156	-0.170
-172.939	-110.638	0.139	-0.029
-171.925	65.413	0.235	-0.238
-170.910	207.866	0.056	0.087
-169.896	47.188	0.095	-0.088
-168.881	147.176	-0.203	0.273
-167.866	-94.699	0.120	0.033
-166.852	-200.000	-0.030	0.155
-165.837	-200.000	0.020	-0.092
-164.823	372.046	-0.081	0.165
-163.808	268.483	-0.187	-0.328
-162.793	-79.736	0.207	-0.070
-161.779	-200.000	-0.004	0.122
-160.764	-200.000	-0.004	-0.106
-159.750	-200.000	0.007	0.047
-158.735	-124.540	0.027	-0.004
-157.720	-103.334	0.225	-0.053
-156.706	-24.181	-0.261	-0.156
-155.691	-200.000	0.051	-0.340
-154.677	800.000	-0.027	0.084
-153.662	-115.945	-0.502	0.094
-152.647	184.230	0.190	-0.281
-151.633	800.000	-0.113	-0.409
-150.618	-14.345	-0.114	0.073
-149.604	800.000	0.124	-0.374
-148.589	80.830	-0.031	-0.033
-147.574	466.894	-0.016	-0.036
-146.560	800.000	-0.126	-0.475
-145.545	290.657	0.069	-0.126
-144.531	250.841	0.307	-0.521
-143.516	53.100	0.202	0.194
-142.502	695.499	-0.127	-0.333
-141.487	-76.406	-0.166	0.058
-140.472	-9.672	0.183	-0.122
-139.458	-152.996	0.059	-0.004
-138.443	190.023	-0.138	-0.207
-137.429	-16.632	0.402	0.254
-136.414	-200.000	0.003	-0.118
-135.399	-200.000	-0.004	0.121
-134.385	-132.624	0.160	-0.020
-133.370	528.690	0.014	-0.033
-132.356	-20.539	-0.214	0.132
-131.341	-99.517	0.136	0.034
-130.326	-200.000	-0.036	-0.255
-129.312	-102.295	-0.251	-0.060
-128.297	-143.499	0.052	0.005
-127.283	-55.707	-0.221	-0.099
-126.268	-200.000	0.073	0.328
-125.253	800.000	0.036	0.101
-124.239	387.276	0.111	-0.229
-123.224	-40.428	-0.215	0.111
-122.210	-133.300	0.337	-0.042
-121.195	-152.423	0.416	-0.030
-120.180	-90.898	-0.084	-0.024
-119.166	-200.000	0.006	0.367
-118.151	-83.097	0.101	-0.032
-117.137	27.646	-0.237	0.199
-116.122	800.000	0.078	-0.220
-115.107	162.498	-0.113	-0.158
-114.093	-135.783	-0.590	-0.070
-113.078	197.081	-0.205	0.312
-112.064	800.000	-0.077	0.312
-111.049	31.859	0.119	-0.102
-110.034	-200.000	-0.029	-0.519
-109.020	173.843	0.046	0.067
-108.005	105.420	-0.039	0.045
-106.991	60.441	0.228	-0.225
-105.976	-85.633	-0.407	-0.126
-104.962	252.700	-0.065	-0.110
-103.947	402.672	0.166	0.348
-102.932	338.193	0.096	-0.187
-101.918	86.992	0.084	0.093
-100.903	655.275	-0.042	0.107
-99.889	-186.733	-0.203	0.003
-98.874	-200.000	-0.052	-0.254
-97.859	-111.898	-0.227	-0.046
-96.845	-46.603	-0.173	0.085
-95.830	-200.000	0.013	-0.249
-94.816	-75.025	0.061	0.022
-93.801	-24.452	0.281	-0.167
-92.786	-58.974	0.187	-0.081
-91.772	325.388	0.097	0.186
-90.757	365.594	-0.115	-0.231
-89.743	-99.470	0.469	-0.118
-88.728	-200.000	0.019	-0.266
-87.713	33.792	-0.227	-0.197
-86.699	-167.618	0.228	0.009
-85.684	-132.400	0.300	-0.039
-84.670	800.000	0.116	0.446
-83.655	-200.000	-0.002	-0.043
-82.640	-92.698	0.240	0.067
-81.626	-200.000	-0.034	0.206
-80.611	176.282	0.068	0.099
-79.597	216.717	-0.044	0.070
-78.582	-125.447	0.119	-0.018
-77.567	-200.000	0.031	-0.264
-76.553	-134.330	-0.325	0.040
-75.538	208.352	0.168	-0.262
-74.524	14.792	0.020	-0.016
-73.509	-85.490	-0.154	-0.048
-72.494	-141.188	-0.075	-0.008
-71.480	-153.425	0.336	-0.023
-70.465	-21.599	0.080	-0.048
-69.451	448.523	-0.052	0.115
-68.436	-200.000	0.009	-0.347
-67.422	-200.000	-0.029	-0.357
-66.407	800.000	0.052	-0.210
-65.392	313.791	-0.015	-0.028
-64.378	-101.850	0.114	0.027
-63.363	-200.000	-0.009	0.090
-62.349	-200.000	0.014	-0.089
-61.334	87.897	-0.815	-0.900
-60.319	30.944	0.441	0.377
-59.305	88.260	-0.406	-0.448
-58.290	268.594	0.430	0.750
-57.276	800.000	0.381	1.454
-56.261	-200.000	77.828	506.827
-55.246	507.126	1332.621	3077.607
-54.232	148.170	2558.445	3436.820
-53.217	113.986	2240.933	2712.858
-52.203	50.333	1769.948	1664.957
-51.188	43.416	1570.345	1428.451
-50.173	40.714	1541.068	1382.971
-49.159	56.683	1578.689	1529.374
-48.144	62.385	1598.711	1588.816
-47.130	43.960	1561.844	1424.315
-46.115	40.316	1547.637	1385.859
-45.100	40.179	1543.766	1381.384
-44.086	40.202	1541.423	1379.393
-43.071	40.121	1539.405	1376.970
-42.057	40.051	1537.782	1374.976
-41.042	40.097	1536.032	1373.677
-40.027	40.077	1534.432	1372.049
-39.013	40.154	1532.804	1371.074
-37.998	40.077	1531.540	1369.357
-36.984	40.083	1530.315	1368.251
-35.969	40.044	1529.816	1367.475
-34.954	40.126	1528.195	1366.541
-33.940	39.969	1526.668	1364.040
-32.925	40.065	1525.303	1363.427
-31.911	40.064	1523.849	1362.068
-30.896	40.168	1522.274	1361.318
-29.881	40.094	1520.996	1359.615
-28.867	40.223	1519.582	1359.183
-27.852	40.226	1518.207	1357.922
-26.838	40.318	1516.241	1356.740
-25.823	40.122	1514.898	1354.141
-24.809	40.189	1513.551	1353.343
-23.794	40.072	1512.219	1351.299
-22.779	40.173	1510.588	1350.476
-21.765	40.167	1509.708	1349.592
-20.750	40.138	1508.600	1348.353
-19.736	40.151	1507.641	1347.532
-18.721	40.112	1506.230	1345.950
-17.706	40.070	1505.154	1344.651
-16.692	40.022	1504.114	1343.342
-15.677	40.085	1502.764	1342.509
-14.663	40.201	1501.420	1342.038
-13.648	40.061	1500.620	1340.322
-12.633	40.083	1499.994	1339.860
-11.619	40.098	1498.891	1338.924
-10.604	40.044	1498.025	1337.728
-9.590	39.927	1497.506	1336.424
-8.575	40.013	1496.662	1336.200
-7.560	40.013	1495.392	1335.010
-6.546	40.052	1494.229	1334.186
-5.531	40.028	1493.457	1333.282
-4.517	40.059	1492.200	1332.316
-3.502	39.993	1491.269	1330.984
-2.487	40.040	1490.321	1330.404
-1.473	40.160	1488.913	1329.901
-0.458	40.094	1487.613	1328.242
0.556	40.416	1479.067	1318.063
1.571	37.811	1451.566	1276.406
2.586	34.177	1388.816	1198.296
3.600	32.399	1304.826	1115.200
4.615	30.468	1256.421	1062.699
5.629	25.414	1196.929	984.673
6.644	13.331	1104.569	847.099
7.659	4.083	1057.062	765.082
8.673	2.545	1051.165	753.188
9.688	2.282	1048.034	749.590
10.702	2.107	1046.290	747.418
11.717	2.147	1044.590	746.337
12.731	5.665	1048.986	766.650
13.746	16.650	1064.943	832.554
14.761	24.658	1074.929	879.882
15.775	25.754	1075.269	885.472
16.790	25.790	1074.892	885.262
17.804	25.642	1074.182	883.874
18.819	25.494	1073.357	882.387
19.834	25.507	1072.789	881.909
20.848	25.632	1072.328	882.062
21.863	25.725	1071.895	882.086
22.877	25.652	1071.520	881.340
23.892	25.621	1070.782	880.503
24.907	25.488	1070.324	879.397
25.921	25.513	1069.541	878.801
26.936	25.585	1068.288	878.044
27.950	25.610	1067.598	877.523
28.965	25.600	1066.366	876.383
29.980	25.446	1064.810	874.278
30.994	25.397	1063.580	872.949
32.009	25.687	1063.096	873.884
33.023	25.755	1062.652	873.771
34.038	25.638	1061.360	872.067
35.053	25.441	1060.562	870.377
36.067	25.672	1060.025	870.978
37.082	25.627	1059.116	869.940
38.096	25.730	1058.460	869.821
39.111	25.846	1057.711	869.688
40.126	25.833	1057.125	869.067
41.140	25.833	1055.721	867.837
42.155	25.542	1054.196	865.105
43.169	25.229	1052.980	862.528
44.184	25.228	1051.860	861.530
45.199	25.273	1050.881	860.864
46.213	25.229	1050.108	859.945
47.228	25.159	1049.308	858.877
48.242	25.308	1048.663	858.990
49.257	25.581	1047.694	859.423
50.271	25.531	1047.037	858.571
51.286	25.414	1047.139	858.018
52.301	25.661	1045.942	858.140
53.315	25.713	1044.946	857.495
54.330	25.539	1044.512	856.235
55.344	25.573	1043.930	855.842
56.359	25.400	1043.290	854.419
57.374	25.528	1042.230	854.083
58.388	25.377	1040.960	852.251
59.403	25.439	1040.163	851.818
60.417	25.314	1039.652	850.731
61.432	25.193	1038.878	849.450
62.447	25.086	1038.365	848.450
63.461	25.366	1037.472	848.966
64.476	25.412	1036.707	848.485
65.490	25.387	1035.635	847.414
66.505	25.330	1034.752	846.349
67.520	25.332	1033.763	845.472
68.534	25.451	1033.298	845.579
69.549	25.149	1032.613	843.523
70.563	24.970	1030.684	841.032
71.578	24.788	1030.395	839.866
72.593	24.769	1029.848	839.255
73.607	24.828	1028.056	837.997
74.622	24.748	1027.234	836.881
75.636	25.037	1027.320	838.230
76.651	25.174	1026.754	838.331
77.666	25.044	1025.484	836.617
78.680	24.930	1024.525	835.225
79.695	24.949	1023.999	834.812
80.709	24.949	1024.037	834.770
81.724	25.149	1022.620	834.471
82.739	25.196	1021.820	833.962
83.753	25.205	1020.875	833.158
84.768	25.595	1020.215	834.357
85.782	25.748	1019.967	834.790
86.797	25.953	1019.772	835.509
87.812	25.962	1018.604	834.517
88.826	25.599	1017.579	831.924
89.841	25.671	1016.812	831.559
90.855	25.847	1015.848	831.509
91.870	25.856	1015.103	830.868
92.884	25.888	1014.111	830.128
93.899	25.545	1013.745	828.176
94.914	25.570	1012.622	827.299
95.928	25.882	1011.432	827.689
96.943	25.824	1010.883	826.901
97.957	25.369	1009.888	823.923
98.972	25.203	1008.774	822.181
99.987	25.053	1007.481	820.368
101.001	25.241	1006.708	820.525
102.016	25.466	1006.558	821.362
103.030	25.516	1005.634	820.761
104.045	25.505	1004.651	819.839
105.060	25.424	1003.195	818.208
106.074	25.219	1002.254	816.436
107.089	25.228	1001.704	815.956
108.103	25.566	1001.259	817.057
109.118	25.574	1000.658	816.532
110.133	25.294	999.318	814.094
111.147	25.186	998.417	812.801
112.162	25.085	997.206	811.283
113.176	24.903	996.311	809.662
114.191	25.035	995.559	809.575
115.206	25.243	994.757	809.791
116.220	24.947	993.654	807.488
117.235	24.736	992.923	805.869
118.249	24.904	992.560	806.260
119.264	24.972	991.676	805.777
120.279	24.864	990.743	804.462
121.293	24.826	990.022	803.634
122.308	24.907	989.038	803.128
123.322	24.856	988.897	802.713
124.337	24.929	987.281	801.658
125.352	24.907	985.706	800.212
126.366	24.544	984.205	797.304
127.381	24.151	983.038	794.533
128.395	24.490	983.443	796.304
129.410	25.213	983.228	799.278
130.424	25.452	982.126	799.378
131.439	25.527	981.191	798.881
132.454	25.392	980.417	797.577
133.468	25.385	979.562	796.781
134.483	25.508	978.689	796.545
135.497	25.466	977.714	795.496
136.512	25.670	977.421	796.088
137.527	25.708	976.725	795.621
138.541	25.741	975.909	795.032
139.556	25.724	975.413	794.481
140.570	25.798	974.585	794.063
141.585	25.792	973.394	792.994
142.600	25.896	972.775	792.880
143.614	25.629	972.327	791.269
144.629	25.821	971.251	791.169
145.643	25.943	970.950	791.389
146.658	25.982	969.277	790.124
147.673	25.764	968.515	788.480
148.687	25.609	967.567	786.960
149.702	25.690	966.134	786.081
150.716	25.383	965.132	783.853
151.731	25.494	964.051	783.390
152.746	25.479	963.391	782.722
153.760	25.751	962.618	783.205
154.775	25.815	962.111	783.003
155.789	25.915	961.295	782.703
156.804	25.818	960.611	781.655
157.819	25.670	959.634	780.153
158.833	25.684	959.323	779.890
159.848	25.861	958.504	779.921
160.862	25.894	957.653	779.304
161.877	25.618	956.501	777.104
162.892	25.720	955.107	776.342
163.906	25.768	954.825	776.252
164.921	25.814	953.882	775.613
165.935	25.713	952.962	774.361
166.950	25.799	951.689	773.631
167.964	25.757	950.625	772.518
168.979	25.883	949.578	772.135
169.994	25.737	948.864	770.865
171.008	25.592	947.855	769.355
172.023	25.673	947.302	769.185
173.037	26.011	946.483	769.892
174.052	25.637	945.740	767.625
175.067	25.479	944.312	765.727
176.081	25.459	943.778	765.141
177.096	25.641	942.814	765.064
178.110	25.535	942.156	764.012
179.125	25.476	940.872	762.653
180.140	25.151	940.233	760.687
181.154	25.165	939.301	759.928
182.169	25.173	939.041	759.685
183.183	25.454	938.835	760.639
184.198	25.741	938.136	761.219
185.213	25.674	937.650	760.475
186.227	25.653	936.931	759.735
187.242	25.619	936.540	759.206
188.256	25.798	935.601	759.137
189.271	25.803	935.057	758.647
190.286	25.916	934.237	758.388
191.300	25.710	933.516	756.873
192.315	25.313	931.500	753.506
193.329	24.449	930.597	749.083
194.344	23.839	929.730	745.758
195.359	24.370	929.901	748.058
196.373	25.386	930.077	752.391
197.388	25.736	929.473	753.303
198.402	25.620	928.874	752.263
199.417	25.588	928.572	751.820
200.432	25.747	927.917	751.888
201.446	25.519	927.790	750.767
202.461	25.328	926.789	749.091
203.475	25.386	926.035	748.658
204.490	24.859	925.018	745.577
205.504	23.814	922.874	739.437
206.519	24.116	922.384	740.236
207.534	25.092	923.005	744.723
208.548	25.217	922.417	744.703
209.563	25.548	922.152	745.795
210.577	25.757	920.894	745.577
211.592	25.433	920.631	743.958
212.607	25.743	920.419	745.004
213.621	25.993	919.954	745.596
214.636	25.860	918.995	744.200
215.650	25.741	918.710	743.415
216.665	25.740	918.019	742.783
217.680	25.840	917.872	743.014
218.694	25.907	917.628	743.028
219.709	25.502	916.570	740.434
220.723	25.358	915.054	738.552
221.738	25.491	914.722	738.768
222.753	25.641	914.414	739.070
223.767	25.442	914.232	738.039
224.782	25.683	913.058	738.013
225.796	25.713	912.599	737.701
226.811	25.959	911.859	738.045
227.826	25.525	910.901	735.429
228.840	24.812	908.945	730.872
229.855	24.574	908.791	729.712
230.869	24.847	908.690	730.684
231.884	24.648	907.216	728.621
232.899	24.629	906.442	727.856
233.913	25.425	906.984	731.469
234.928	25.652	906.494	731.933
235.942	25.364	906.301	730.542
236.957	25.655	904.964	730.581
237.972	25.296	903.884	728.188
238.986	25.176	903.342	727.203
240.001	25.234	903.124	727.196
241.015	25.394	902.048	726.915
242.030	25.300	901.767	726.242
243.045	25.450	901.754	726.772
244.059	25.465	901.335	726.432
245.074	25.753	900.274	726.676
246.088	25.754	899.861	726.285
247.103	25.409	898.526	723.751
248.117	25.434	898.204	723.529
249.132	25.825	898.111	724.964
250.147	26.336	897.868	726.758
251.161	26.463	897.612	726.996
252.176	26.590	897.496	727.349
253.190	26.472	896.547	726.042
254.205	26.539	896.125	725.903
255.220	26.803	895.904	726.720
256.234	26.729	894.874	725.525
257.249	26.606	894.213	724.431
258.263	26.503	893.780	723.603
259.278	26.553	893.109	723.198
260.293	26.498	892.600	722.503
261.307	26.451	892.344	722.044
262.322	26.535	891.390	721.544
263.336	26.517	890.500	720.684
264.351	26.083	889.349	717.963
265.366	24.918	887.579	711.844
266.380	24.479	886.766	709.384
267.395	25.344	886.889	712.856
268.409	26.031	886.803	715.449
269.424	26.168	886.082	715.346
270.439	26.244	885.732	715.304
271.453	26.364	885.321	715.384
272.468	26.294	884.807	714.627
273.482	26.481	884.199	714.810
274.497	26.584	883.882	714.898
275.512	26.369	882.926	713.214
276.526	25.872	881.537	710.073
277.541	26.024	881.236	710.362
278.555	26.320	880.997	711.273
279.570	26.369	879.982	710.586
280.585	26.030	879.459	708.765
281.599	26.097	879.103	708.682
282.614	26.159	878.490	708.369
283.628	25.778	877.609	706.102
284.643	25.327	876.796	703.618
285.657	25.887	876.646	705.628
286.672	25.731	875.972	704.414
287.687	25.336	874.591	701.696
288.701	25.613	874.698	702.803
289.716	26.034	874.793	704.461
290.730	25.679	873.625	702.074
291.745	25.611	872.578	700.905
292.760	25.376	871.748	699.262
293.774	25.311	871.009	698.355
294.789	26.139	871.830	702.172
295.803	26.905	872.147	705.346
296.818	26.902	871.444	704.701
297.833	26.917	871.222	704.518
298.847	26.733	869.635	702.461
299.862	26.447	868.547	700.410
300.876	26.551	868.387	700.621
301.891	26.916	868.040	701.694
302.906	26.864	867.583	701.060
303.920	26.526	866.482	698.802
304.935	26.322	865.995	697.561
305.949	26.849	865.489	699.126
306.964	27.004	865.028	699.288
307.979	26.726	864.285	697.557
308.993	26.632	864.023	696.919
310.008	26.961	863.526	697.723
311.022	26.968	863.630	697.771
312.037	26.840	863.086	696.778
313.052	26.578	862.056	694.882
314.066	26.365	861.541	693.586
315.081	25.935	859.648	690.354
316.095	25.058	858.393	685.932
317.110	25.637	858.984	688.557
318.125	26.494	858.826	691.648
319.139	26.212	857.440	689.395
320.154	25.045	856.225	683.906
321.168	24.427	855.421	680.845
322.183	25.048	855.617	683.312
323.197	25.920	856.149	687.003
324.212	26.395	855.575	688.287
325.227	26.501	855.540	688.604
326.241	26.445	855.580	688.360
327.256	26.580	854.519	687.958
328.270	26.456	853.610	686.697
329.285	26.331	853.099	685.750
330.300	26.098	852.548	684.362
331.314	25.927	851.609	682.901
332.329	26.162	850.636	682.949
333.343	26.564	850.465	684.272
334.358	26.767	850.625	685.106
335.373	26.781	849.702	684.356
336.387	26.751	849.103	683.699
337.402	26.943	848.793	684.113
338.416	27.179	848.554	684.747
339.431	27.219	848.081	684.457
340.446	27.210	847.626	683.994
341.460	27.378	846.977	684.044
342.475	27.334	846.335	683.297
343.489	27.237	845.481	682.184
344.504	27.043	845.109	681.096
345.519	27.369	844.754	681.972
346.533	27.615	844.378	682.529
347.548	27.512	844.161	681.910
348.562	27.623	843.854	682.014
349.577	27.495	843.117	680.880
350.592	27.371	842.782	680.086
351.606	27.410	842.056	679.586
352.621	27.522	841.200	679.253
353.635	27.353	840.996	678.398
354.650	27.306	840.231	677.547
355.665	26.942	839.575	675.604
356.679	26.015	837.538	670.458
357.694	25.776	837.223	669.258
358.708	26.442	837.319	671.753
359.723	26.378	836.697	670.954
360.738	26.576	836.565	671.523
361.752	27.061	836.445	673.165
362.767	27.213	835.898	673.229
363.781	27.505	835.954	674.295
364.796	27.795	835.589	675.015
365.810	27.848	835.392	674.991
366.825	27.781	835.141	674.483
367.840	28.001	834.528	674.741
368.854	27.809	833.626	673.242
369.869	27.394	832.790	670.979
370.883	27.093	832.058	669.219
371.898	27.250	831.663	669.421
372.913	27.246	830.738	668.602
373.927	27.217	830.357	668.132
374.942	27.359	829.918	668.239
375.956	27.362	829.496	667.851
376.971	27.434	829.213	667.829
377.986	27.598	828.661	667.927
379.000	27.728	828.127	667.913
380.015	27.753	827.663	667.571
381.029	27.583	826.942	666.310
382.044	27.670	826.072	665.866
383.059	27.930	825.631	666.403
384.073	27.832	825.198	665.636
385.088	27.910	824.474	665.275
386.102	27.854	824.273	664.853
387.117	27.647	823.530	663.441
388.132	27.478	822.731	662.123
389.146	27.498	821.951	661.511
390.161	26.897	820.900	658.427
391.175	26.971	820.524	658.335
392.190	27.450	820.776	660.214
393.205	27.590	820.340	660.312
394.219	26.419	818.930	654.882
395.234	24.785	816.696	647.132
396.248	24.151	815.095	643.518
397.263	24.965	815.732	646.903
398.278	26.861	817.375	655.004
399.292	27.390	817.580	657.020
400.307	27.032	816.913	655.134
401.321	27.009	816.111	654.352
402.336	27.105	815.786	654.377
403.350	27.451	815.747	655.533
404.365	27.894	815.510	656.881
405.380	28.188	815.428	657.812
406.394	28.258	815.574	658.125
407.409	28.708	815.105	659.303
408.423	28.548	814.688	658.333
409.438	28.570	813.982	657.785
410.453	28.466	813.992	657.360
411.467	28.577	813.315	657.155
412.482	28.547	812.407	656.255
413.496	28.317	811.897	654.962
414.511	28.687	811.524	655.927
415.526	28.754	811.353	655.967
416.540	28.542	811.095	654.946
417.555	28.402	810.325	653.767
418.569	28.191	809.582	652.356
419.584	28.172	809.038	651.791
420.599	28.279	808.810	651.930
421.613	97.459	1267.245	1388.779
422.628	83.808	1334.060	1388.904
