DTS Sentinel unit serial number:	SN413079Multiplexer serial number:	ORYXHardware model number:	OX4-SRSoftware version number:	ORYX F/W v4.00 Oryx Data Collector v3.7.2.0data status	okinstallation	princeton_trtdifferential loss correction	single-endedforward channel	channel 3reverse channel	N/Adate	2019/09/17time	12:40:35forward acquisition time	60.00reverse acquisition time	0.00gamma	496.2192k internal	0.2316k external	0.2316temperature offset calibration	0.9957default loss term (dB/km)	0.3790temperature slope calibration	1.0000multiplexer offset coefficient	1.0000multiplexer slope coefficient	1.0000fibre end	0.00T internal ref (°C)	32.34T ext. ref 1 (°C)	0.42T ext. ref 2 (°C)	30.20length (m)	temperature (°C)	Stokes	anti-Stokes-747.200	436.826	-0.092	-0.204
-746.185	-200.000	0.001	0.056
-745.171	21.500	0.307	-0.253
-744.156	-155.076	0.124	0.008
-743.142	-200.000	-0.023	-0.129
-742.127	-200.000	0.079	0.368
-741.112	176.533	0.143	0.210
-740.098	68.422	0.163	-0.170
-739.083	138.504	0.227	-0.302
-738.069	32.518	-0.247	0.217
-737.054	84.813	-0.136	0.151
-736.039	-200.000	0.011	0.361
-735.025	800.000	-0.120	0.340
-734.010	-1.527	0.225	0.161
-732.996	418.099	-0.187	-0.404
-731.981	112.282	0.235	-0.288
-730.966	20.728	0.170	-0.139
-729.952	103.897	-0.059	-0.070
-728.937	44.817	-0.296	-0.276
-727.923	545.238	0.162	0.391
-726.908	800.000	0.106	0.317
-725.894	-200.000	-0.005	0.074
-724.879	-200.000	0.011	0.217
-723.864	76.314	-0.148	0.159
-722.850	-75.507	-0.410	0.148
-721.835	-200.000	0.036	-0.198
-720.821	800.000	0.133	-0.457
-719.806	800.000	0.120	-0.390
-718.791	800.000	-0.069	-0.282
-717.777	-200.000	0.010	-0.472
-716.762	-200.000	0.037	-0.434
-715.748	-39.327	-0.277	-0.147
-714.733	470.298	0.040	0.090
-713.718	16.675	0.176	0.141
-712.704	-200.000	-0.008	0.173
-711.689	800.000	0.070	0.198
-710.675	-93.293	0.284	0.080
-709.660	-48.540	-0.236	0.115
-708.645	-17.042	0.104	-0.066
-707.631	-143.578	0.257	0.025
-706.616	-185.561	-0.133	-0.002
-705.602	-128.387	0.214	-0.031
-704.587	667.785	0.100	-0.263
-703.572	800.000	0.121	-0.373
-702.558	-124.838	-0.442	0.069
-701.543	189.075	-0.069	-0.105
-700.529	800.000	-0.087	0.246
-699.514	-129.904	0.112	-0.015
-698.499	-200.000	-0.011	0.222
-697.485	284.837	-0.099	-0.181
-696.470	-200.000	-0.045	0.268
-695.456	-103.483	-0.059	-0.014
-694.441	438.745	-0.093	0.205
-693.426	343.345	-0.052	0.103
-692.412	-200.000	-0.023	-0.206
-691.397	-38.423	-0.189	-0.101
-690.383	-200.000	0.010	0.071
-689.368	42.541	-0.361	0.332
-688.354	316.944	-0.127	0.243
-687.339	187.407	0.138	-0.208
-686.324	620.142	-0.140	0.355
-685.310	-200.000	0.038	-0.225
-684.295	-9.995	0.243	0.163
-683.281	52.780	-0.242	-0.234
-682.266	-111.595	0.320	-0.066
-681.251	100.466	0.123	-0.145
-680.237	138.887	0.219	0.290
-679.222	800.000	0.006	0.022
-678.208	12.595	0.311	-0.243
-677.193	138.872	-0.173	0.229
-676.178	-40.945	-0.190	0.099
-675.164	-200.000	-0.009	-0.596
-674.149	605.428	0.093	0.234
-673.135	-200.000	-0.005	-0.091
-672.120	250.048	-0.079	0.136
-671.105	-200.000	0.037	-0.231
-670.091	56.823	-0.144	0.142
-669.076	-7.877	-0.124	0.084
-668.062	800.000	0.036	0.120
-667.047	-114.452	-0.364	0.071
-666.032	86.331	0.248	0.275
-665.018	-111.961	-0.142	0.029
-664.003	50.395	-0.129	-0.123
-662.989	40.221	0.207	-0.188
-661.974	-99.725	0.111	0.028
-660.959	-200.000	-0.101	-0.515
-659.945	396.785	-0.055	-0.116
-658.930	800.000	-0.037	0.126
-657.916	-35.668	0.056	0.030
-656.901	200.217	0.131	0.203
-655.886	-56.948	0.156	-0.070
-654.872	800.000	0.059	0.225
-653.857	383.856	0.126	0.261
-652.843	-119.816	-0.169	-0.029
-651.828	800.000	0.051	-0.218
-650.814	47.575	-0.148	-0.139
-649.799	203.947	0.189	-0.295
-648.784	-200.000	0.014	-0.413
-647.770	-140.743	0.340	-0.035
-646.755	-92.742	-0.086	-0.024
-645.741	94.502	0.073	0.084
-644.726	-53.390	-0.240	-0.111
-643.711	-3.434	0.082	0.057
-642.697	-200.000	0.019	-0.216
-641.682	-25.095	0.221	-0.132
-640.668	-93.559	-0.332	0.093
-639.653	115.485	-0.159	0.197
-638.638	-141.742	0.129	-0.013
-637.624	-114.467	0.371	-0.072
-636.609	800.000	0.052	-0.177
-635.595	-12.872	-0.160	-0.105
-634.580	-200.000	0.031	-0.184
-633.565	77.156	0.111	-0.119
-632.551	-140.586	-0.613	-0.064
-631.536	122.914	-0.094	-0.119
-630.522	-200.000	0.047	0.293
-629.507	-4.439	0.093	-0.065
-628.492	-102.109	-0.178	-0.043
-627.478	118.381	-0.158	0.196
-626.463	-55.255	0.196	0.089
-625.449	190.684	-0.072	-0.110
-624.434	800.000	-0.042	0.119
-623.419	-81.508	0.173	-0.058
-622.405	48.077	-0.130	-0.123
-621.390	-107.887	0.240	-0.053
-620.376	800.000	-0.016	0.070
-619.361	25.693	-0.023	0.019
-618.346	89.821	-0.046	-0.051
-617.332	-58.226	-0.106	0.047
-616.317	-98.083	-0.516	0.134
-615.303	79.077	0.080	-0.086
-614.288	-200.000	0.017	-0.506
-613.273	21.215	0.069	-0.056
-612.259	-137.070	-0.273	0.031
-611.244	800.000	-0.040	-0.148
-610.230	-46.295	-0.154	0.076
-609.215	800.000	0.028	-0.107
-608.201	17.271	-0.227	0.182
-607.186	148.080	-0.114	-0.155
-606.171	18.309	0.115	-0.093
-605.157	70.842	-0.114	0.119
-604.142	-41.505	-0.097	-0.051
-603.128	-88.900	-0.059	0.018
-602.113	228.412	0.200	-0.328
-601.098	299.699	0.022	-0.041
-600.084	419.319	0.091	0.197
-599.069	243.841	0.113	0.191
-598.055	-200.000	-0.020	-0.147
-597.040	234.007	0.095	-0.158
-596.025	800.000	-0.043	-0.136
-595.011	179.442	0.116	0.172
-593.996	-200.000	0.017	0.276
-592.982	0.352	-0.428	-0.308
-591.967	242.635	-0.119	0.201
-590.952	15.553	-0.333	-0.264
-589.938	88.090	0.118	0.132
-588.923	-50.699	-0.145	-0.069
-587.909	-88.697	-0.317	-0.095
-586.894	800.000	0.028	0.095
-585.879	800.000	0.021	0.091
-584.865	3.251	0.036	0.026
-583.850	123.758	-0.212	0.268
-582.836	-200.000	0.094	0.422
-581.821	222.879	-0.035	0.056
-580.806	485.930	-0.143	-0.329
-579.792	800.000	0.046	0.142
-578.777	-97.357	0.089	0.023
-577.763	-148.082	0.191	0.016
-576.748	-188.164	-0.216	-0.003
-575.733	112.703	0.155	-0.189
-574.719	-200.000	0.017	-0.133
-573.704	-200.000	-0.051	0.265
-572.690	223.929	-0.096	0.156
-571.675	58.482	0.279	0.276
-570.661	-65.828	-0.097	0.039
-569.646	12.249	0.303	0.235
-568.631	776.396	0.089	0.245
-567.617	-200.000	-0.003	-0.079
-566.602	-84.398	-0.311	-0.099
-565.588	-120.573	-0.053	0.009
-564.573	72.490	0.142	-0.149
-563.558	-200.000	-0.029	-0.369
-562.544	-200.000	0.014	0.093
-561.529	-131.277	0.311	0.042
-560.515	579.262	0.025	-0.061
-559.500	-200.000	0.073	0.374
-558.485	38.657	0.404	0.363
-557.471	800.000	0.016	0.060
-556.456	36.784	0.218	-0.193
-555.442	-200.000	0.001	-0.121
-554.427	800.000	0.086	0.317
-553.412	43.928	-0.220	0.203
-552.398	220.144	-0.086	-0.139
-551.383	-107.218	-0.276	-0.061
-550.369	-200.000	-0.035	0.385
-549.354	140.667	-0.016	0.022
-548.339	63.421	-0.181	0.183
-547.325	-38.319	-0.117	-0.062
-546.310	-6.836	-0.156	0.107
-545.296	-101.791	-0.248	-0.060
-544.281	509.654	-0.017	-0.039
-543.266	474.041	0.164	0.372
-542.252	-84.993	0.136	0.043
-541.237	-200.000	-0.009	0.218
-540.223	-68.536	-0.445	0.173
-539.208	800.000	-0.027	-0.079
-538.193	-200.000	-0.058	0.331
-537.179	199.951	-0.238	0.367
-536.164	-19.335	-0.104	0.065
-535.150	-66.123	-0.290	-0.116
-534.135	737.043	-0.068	-0.182
-533.121	-34.147	-0.191	-0.105
-532.106	482.844	-0.175	-0.399
-531.091	-87.486	0.271	-0.082
-530.077	64.268	0.108	0.109
-529.062	-55.240	0.125	0.057
-528.048	38.284	-0.083	0.074
-527.033	-62.763	0.042	0.017
-526.018	112.358	0.274	0.332
-525.004	19.990	0.033	0.027
-523.989	165.492	-0.029	-0.042
-522.975	-152.542	0.224	0.016
-521.960	80.082	0.234	0.253
-520.945	-147.807	-0.124	-0.010
-519.931	-38.710	-0.234	-0.124
-518.916	255.760	0.022	0.038
-517.902	40.974	-0.036	0.033
-516.887	-66.640	0.276	-0.110
-515.872	-18.797	-0.464	-0.290
-514.858	709.346	0.044	0.117
-513.843	103.848	-0.203	0.239
-512.829	-200.000	-0.108	0.486
-511.814	31.815	-0.154	0.133
-510.799	29.993	-0.390	-0.333
-509.785	99.200	-0.191	0.222
-508.770	-200.000	-0.054	-0.357
-507.756	800.000	-0.108	-0.356
-506.741	72.800	0.181	0.190
-505.726	800.000	-0.060	-0.228
-504.712	-200.000	0.010	-0.238
-503.697	-79.873	-0.361	0.122
-502.683	-200.000	0.002	-0.432
-501.668	-91.332	-0.165	-0.047
-500.653	177.308	-0.053	0.078
-499.639	800.000	0.070	0.224
-498.624	298.826	0.141	-0.261
-497.610	321.827	-0.139	0.265
-496.595	159.557	0.104	-0.145
-495.581	-71.664	-0.179	0.067
-494.566	87.999	-0.121	-0.135
-493.551	178.011	0.114	0.167
-492.537	-163.475	0.228	-0.011
-491.522	-200.000	-0.019	0.086
-490.508	-200.000	-0.007	0.127
-489.493	33.067	-0.139	0.121
-488.478	800.000	-0.042	-0.166
-487.464	316.901	-0.032	-0.060
-486.449	47.536	-0.140	-0.131
-485.435	-38.487	0.222	-0.117
-484.420	-137.737	-0.366	0.041
-483.405	47.965	0.263	0.246
-482.391	-22.110	0.059	0.036
-481.376	152.945	-0.247	-0.339
-480.362	300.717	0.176	0.327
-479.347	-125.486	0.123	0.019
-478.332	691.945	0.082	0.215
-477.318	-166.021	0.338	0.014
-476.303	370.459	-0.109	0.221
-475.289	-142.610	0.317	-0.031
-474.274	800.000	0.046	-0.143
-473.259	-18.532	0.218	-0.136
-472.245	-61.054	-0.133	-0.056
-471.230	757.524	-0.062	0.168
-470.216	187.524	0.155	-0.232
-469.201	-40.960	-0.415	-0.215
-468.186	-137.399	-0.248	0.028
-467.172	800.000	-0.072	-0.211
-466.157	29.431	0.124	-0.106
-465.143	436.433	0.043	-0.094
-464.128	800.000	0.042	0.140
-463.113	-200.000	0.076	0.343
-462.099	800.000	-0.069	-0.292
-461.084	800.000	-0.077	-0.268
-460.070	-76.786	0.133	0.047
-459.055	-4.197	0.150	0.104
-458.040	-145.796	-0.276	0.025
-457.026	-53.512	0.279	-0.128
-456.011	-28.867	-0.193	-0.111
-454.997	800.000	-0.128	0.441
-453.982	-200.000	0.035	0.307
-452.968	-118.350	-0.166	-0.029
-451.953	1.401	0.180	0.130
-450.938	49.674	-0.237	-0.224
-449.924	667.671	0.136	-0.353
-448.909	29.359	0.233	0.198
-447.895	206.575	-0.084	-0.131
-446.880	-167.521	-0.251	-0.010
-445.865	-101.343	0.142	-0.035
-444.851	-17.357	-0.055	0.035
-443.836	-1.540	-0.318	-0.224
-442.822	-200.000	0.032	0.224
-441.807	-85.504	-0.216	-0.067
-440.792	87.329	0.168	0.186
-439.778	-162.019	-0.266	-0.013
-438.763	-200.000	0.028	-0.271
-437.749	113.930	-0.165	-0.200
-436.734	288.871	0.055	0.099
-435.719	800.000	0.109	-0.366
-434.705	-58.691	0.297	-0.129
-433.690	-29.664	-0.401	-0.229
-432.676	340.182	0.199	0.389
-431.661	-200.000	0.029	-0.236
-430.646	-200.000	-0.031	-0.227
-429.632	-28.025	-0.101	-0.059
-428.617	-200.000	0.026	-0.284
-427.603	181.688	-0.126	-0.185
-426.588	-120.252	-0.237	-0.040
-425.573	-72.642	-0.447	0.165
-424.559	96.083	0.173	-0.197
-423.544	-57.212	0.301	-0.132
-422.530	129.347	-0.167	-0.213
-421.515	-99.974	0.189	0.047
-420.500	419.335	0.078	0.168
-419.486	88.442	-0.162	0.180
-418.471	44.954	-0.135	0.124
-417.457	-38.764	0.385	0.203
-416.442	408.815	0.085	-0.179
-415.428	108.046	-0.187	-0.223
-414.413	-200.000	0.019	0.371
-413.398	-4.517	0.035	0.024
-412.384	104.005	0.210	-0.247
-411.369	-54.711	0.188	-0.085
-410.355	110.993	0.081	-0.097
-409.340	-96.652	0.428	0.113
-408.325	-68.920	0.202	0.078
-407.311	94.582	0.069	-0.078
-406.296	-79.155	-0.385	0.131
-405.282	-69.840	0.156	-0.059
-404.267	-47.342	0.108	-0.052
-403.252	-138.119	0.054	-0.006
-402.238	159.312	-0.168	-0.234
-401.223	-66.766	0.121	-0.048
-400.209	297.493	0.187	0.342
-399.194	33.083	0.253	-0.219
-398.179	-200.000	0.001	-0.221
-397.165	-200.000	-0.010	0.361
-396.150	-166.069	-0.113	0.005
-395.136	-109.577	0.154	0.032
-394.121	192.178	0.117	-0.176
-393.106	-37.818	-0.288	0.153
-392.092	-64.727	-0.248	-0.100
-391.077	116.289	0.105	0.129
-390.063	-76.985	-0.293	-0.102
-389.048	-200.000	0.030	-0.368
-388.033	11.938	-0.137	0.105
-387.019	-68.459	-0.212	-0.082
-386.004	-200.000	-0.052	-0.511
-384.990	-200.000	0.022	-0.512
-383.975	-200.000	0.013	-0.265
-382.960	-200.000	0.013	0.315
-381.946	152.667	0.099	0.136
-380.931	800.000	0.065	0.243
-379.917	-141.142	-0.118	0.012
-378.902	-200.000	0.011	-0.332
-377.888	-71.987	0.541	-0.201
-376.873	327.012	-0.144	0.277
-375.858	328.227	-0.112	-0.214
-374.844	800.000	0.084	0.362
-373.829	-120.512	-0.288	0.049
-372.815	-70.323	0.144	-0.055
-371.800	-36.659	-0.190	0.102
-370.785	-50.596	-0.106	-0.050
-369.771	800.000	0.018	0.050
-368.756	-192.476	0.021	-0.000
-367.742	800.000	-0.053	-0.179
-366.727	31.465	0.081	-0.070
-365.712	-82.440	-0.129	-0.042
-364.698	-200.000	-0.005	0.280
-363.683	207.015	0.078	0.121
-362.669	-96.143	0.141	0.037
-361.654	-200.000	0.023	0.114
-360.639	-105.074	-0.428	0.098
-359.625	-10.260	0.068	0.045
-358.610	800.000	-0.088	-0.323
-357.596	-200.000	-0.018	0.164
-356.581	-5.400	0.308	0.211
-355.566	-122.536	-0.110	0.018
-354.552	-200.000	0.026	0.533
-353.537	-200.000	0.001	0.038
-352.523	-106.368	0.295	-0.066
-351.508	-86.955	-0.165	0.050
-350.493	-200.000	-0.001	-0.181
-349.479	37.152	-0.144	-0.127
-348.464	-200.000	-0.070	-0.367
-347.450	715.574	0.140	-0.369
-346.435	-104.611	-0.235	-0.054
-345.420	-141.087	-0.102	0.010
-344.406	361.760	0.037	0.074
-343.391	-44.858	0.041	-0.020
-342.377	-57.935	0.179	-0.078
-341.362	-25.366	-0.106	0.063
-340.348	-119.752	0.578	-0.099
-339.333	-107.400	0.136	-0.030
-338.318	115.564	-0.274	-0.334
-337.304	-200.000	0.068	-0.339
-336.289	39.734	0.146	0.130
-335.275	-93.902	0.279	0.077
-334.260	-200.000	-0.059	0.813
-333.245	403.207	-0.144	0.302
-332.231	363.847	0.129	-0.259
-331.216	-14.608	0.178	0.114
-330.202	-77.069	0.234	-0.081
-329.187	72.705	0.249	0.259
-328.172	23.384	-0.055	-0.045
-327.158	6.248	-0.258	0.191
-326.143	105.563	0.173	0.204
-325.129	413.994	0.073	-0.155
-324.114	-70.811	-0.108	0.041
-323.099	800.000	-0.090	-0.365
-322.085	286.611	0.107	0.193
-321.070	471.019	0.071	0.159
-320.056	-200.000	-0.013	-0.361
-319.041	520.866	-0.082	0.191
-318.026	800.000	0.044	0.147
-317.012	-200.000	0.015	-0.178
-315.997	-200.000	0.023	0.216
-314.983	129.378	0.122	0.155
-313.968	317.109	0.141	-0.266
-312.953	-162.363	-0.019	0.001
-311.939	18.509	-0.066	0.053
-310.924	800.000	-0.051	0.219
-309.910	98.690	-0.169	0.195
-308.895	-158.565	-0.195	0.011
-307.880	-200.000	-0.004	-0.092
-306.866	-200.000	0.005	-0.268
-305.851	155.364	0.066	-0.091
-304.837	94.722	0.046	0.052
-303.822	88.917	0.226	0.250
-302.807	-50.371	0.144	0.068
-301.793	-200.000	0.034	0.214
-300.778	-108.352	0.063	0.014
-299.764	-200.000	0.008	-0.108
-298.749	262.361	-0.222	0.383
-297.735	800.000	0.072	0.275
-296.720	108.470	-0.152	-0.180
-295.705	544.345	0.057	0.137
-294.691	29.653	0.133	0.112
-293.676	37.789	-0.123	-0.109
-292.662	98.767	0.075	-0.086
-291.647	-128.794	-0.287	0.040
-290.632	546.179	-0.032	0.076
-289.618	455.619	-0.067	-0.149
-288.603	800.000	-0.012	-0.043
-287.589	-200.000	-0.031	0.159
-286.574	-41.652	-0.222	-0.113
-285.559	800.000	0.026	-0.098
-284.545	-22.639	-0.093	-0.056
-283.530	-72.703	0.117	-0.043
-282.516	0.564	-0.065	-0.047
-281.501	-200.000	0.066	0.409
-280.486	346.497	0.132	-0.259
-279.472	-85.762	-0.305	0.094
-278.457	-16.530	-0.217	0.137
-277.443	83.476	-0.109	-0.118
-276.428	192.616	0.138	-0.207
-275.413	151.841	-0.132	0.179
-274.399	-140.547	-0.125	0.013
-273.384	-10.340	0.263	0.173
-272.370	136.269	-0.145	-0.188
-271.355	-44.276	-0.067	0.033
-270.340	323.451	0.043	-0.082
-269.326	-200.000	0.025	-0.139
-268.311	203.295	0.180	-0.277
-267.297	-21.939	0.206	0.125
-266.282	-120.096	0.253	0.043
-265.267	328.995	0.012	0.022
-264.253	800.000	0.017	0.050
-263.238	161.615	0.224	0.312
-262.224	800.000	-0.007	-0.025
-261.209	-60.531	-0.147	0.062
-260.195	-200.000	-0.023	-0.247
-259.180	-67.791	0.064	0.025
-258.165	157.458	-0.162	-0.223
-257.151	448.964	-0.029	0.064
-256.136	-112.475	0.321	-0.064
-255.122	65.920	-0.298	-0.300
-254.107	10.632	-0.123	-0.093
-253.092	-112.605	-0.203	-0.040
-252.078	-92.558	0.211	-0.059
-251.063	-62.659	-0.135	-0.056
-250.049	800.000	-0.082	0.325
-249.034	-14.772	0.056	-0.036
-248.019	120.017	0.086	-0.106
-247.005	338.687	-0.089	-0.171
-245.990	690.880	0.100	-0.259
-244.976	118.831	0.043	-0.053
-243.961	-83.318	-0.255	-0.081
-242.946	-42.721	0.273	-0.138
-241.932	59.273	-0.098	-0.095
-240.917	-190.201	0.387	0.004
-239.903	-99.632	0.484	-0.121
-238.888	-113.031	0.079	0.016
-237.873	800.000	0.129	-0.407
-236.859	602.234	0.111	-0.274
-235.844	-200.000	0.007	0.275
-234.830	-85.234	0.276	-0.086
-233.815	-80.619	-0.110	0.036
-232.800	437.904	0.018	-0.038
-231.786	259.743	0.086	0.147
-230.771	175.019	-0.066	-0.095
-229.757	-200.000	-0.024	-0.140
-228.742	209.451	0.042	-0.066
-227.727	44.045	-0.219	0.199
-226.713	97.724	0.138	-0.157
-225.698	-123.144	0.134	-0.021
-224.684	64.880	-0.118	-0.118
-223.669	800.000	0.039	-0.119
-222.655	183.779	-0.167	0.245
-221.640	-200.000	-0.038	0.537
-220.625	365.704	0.074	0.147
-219.611	800.000	-0.084	-0.253
-218.596	-152.229	0.185	-0.013
-217.582	-76.001	0.208	0.073
-216.567	492.640	0.094	0.213
-215.552	-61.263	0.350	-0.146
-214.538	-200.000	0.006	0.084
-213.523	-200.000	0.048	0.268
-212.509	65.770	0.163	-0.164
-211.494	434.525	-0.124	0.267
-210.479	137.755	0.110	-0.142
-209.465	800.000	0.042	-0.143
-208.450	732.269	-0.035	-0.094
-207.436	-3.349	0.206	0.143
-206.421	800.000	0.034	0.113
-205.406	-7.518	-0.277	-0.186
-204.392	-8.278	0.132	0.088
-203.377	411.130	0.147	0.309
-202.363	79.493	0.191	0.203
-201.348	-156.754	0.107	0.007
-200.333	-200.000	0.066	-0.332
-199.319	-94.784	0.094	0.025
-198.304	-23.306	-0.050	-0.030
-197.290	-82.209	-0.421	0.136
-196.275	12.823	0.209	0.160
-195.260	800.000	0.049	0.214
-194.246	800.000	-0.011	-0.036
-193.231	-200.000	-0.045	-0.258
-192.217	166.765	-0.044	-0.061
-191.202	-200.000	0.068	-0.375
-190.187	16.307	-0.301	-0.235
-189.173	739.957	-0.068	0.182
-188.158	-200.000	0.014	0.599
-187.144	-150.581	-0.292	0.022
-186.129	-162.838	0.054	0.003
-185.114	800.000	0.123	0.374
-184.100	-200.000	0.025	-0.258
-183.085	-200.000	-0.029	0.342
-182.071	-168.986	0.358	-0.013
-181.056	-200.000	0.012	-0.128
-180.042	-114.822	-0.226	0.043
-179.027	-139.014	-0.100	0.011
-178.012	-112.605	0.188	-0.037
-176.998	329.619	-0.072	0.137
-175.983	-65.454	0.084	0.034
-174.969	-18.498	0.169	0.105
-173.954	15.347	-0.158	-0.123
-172.939	800.000	0.102	-0.280
-171.925	91.486	0.224	0.249
-170.910	-200.000	0.029	0.282
-169.896	-200.000	-0.078	0.344
-168.881	-56.910	-0.069	-0.030
-167.866	221.120	-0.106	-0.168
-166.852	-200.000	0.021	-0.141
-165.837	-64.477	-0.078	-0.031
-164.823	-200.000	0.044	0.242
-163.808	-104.385	-0.233	0.054
-162.793	-200.000	0.477	-0.001
-161.779	264.246	0.134	0.231
-160.764	-136.346	0.134	0.015
-159.750	686.598	0.035	-0.091
-158.735	-47.164	-0.101	0.049
-157.720	418.386	0.099	0.210
-156.706	7.969	0.246	0.183
-155.691	40.417	-0.222	-0.197
-154.677	-40.386	0.283	-0.146
-153.662	-113.733	-0.107	0.021
-152.647	194.607	0.032	0.048
-151.633	70.758	0.127	-0.130
-150.618	-25.707	0.182	-0.106
-149.604	-108.184	0.126	-0.027
-148.589	-100.659	-0.307	0.075
-147.574	800.000	-0.056	-0.155
-146.560	-200.000	0.002	0.244
-145.545	28.222	0.274	-0.229
-144.531	-51.239	0.360	-0.167
-143.516	-41.719	-0.250	-0.127
-142.502	-81.478	0.058	0.019
-141.487	-200.000	-0.004	-0.150
-140.472	-84.678	0.489	0.152
-139.458	-82.144	-0.105	0.034
-138.443	156.218	-0.068	-0.093
-137.429	-83.820	-0.024	-0.007
-136.414	-57.208	-0.273	-0.119
-135.399	248.989	0.107	0.179
-134.385	626.435	-0.013	-0.033
-133.370	441.098	0.071	-0.155
-132.356	106.240	-0.023	0.027
-131.341	19.015	0.191	-0.152
-130.326	-200.000	0.077	0.399
-129.312	-200.000	0.056	0.258
-128.297	-200.000	-0.014	0.297
-127.283	-57.007	-0.216	-0.094
-126.268	-200.000	-0.028	0.130
-125.253	-76.096	-0.278	0.097
-124.239	-200.000	0.012	-0.102
-123.224	67.796	-0.083	0.083
-122.210	800.000	-0.042	0.136
-121.195	-163.216	-0.362	0.017
-120.180	597.245	0.018	-0.045
-119.166	290.320	0.142	0.255
-118.151	-154.683	-0.321	0.021
-117.137	800.000	-0.044	-0.169
-116.122	-200.000	0.005	0.189
-115.107	-200.000	-0.033	-0.214
-114.093	12.890	-0.086	-0.066
-113.078	-200.000	-0.034	0.171
-112.064	-59.187	0.072	-0.031
-111.049	-22.820	0.253	0.151
-110.034	119.994	0.329	-0.404
-109.020	-200.000	-0.030	0.180
-108.005	-200.000	0.053	0.379
-106.991	547.709	-0.042	0.099
-105.976	-187.802	-0.192	-0.002
-104.962	800.000	-0.023	0.088
-103.947	105.984	-0.136	-0.159
-102.932	-200.000	0.015	0.103
-101.918	-11.473	0.158	-0.103
-100.903	-38.746	0.205	-0.107
-99.889	-200.000	0.021	0.104
-98.874	-134.789	0.127	0.015
-97.859	-200.000	-0.007	-0.507
-96.845	237.499	0.040	-0.066
-95.830	58.743	0.262	-0.254
-94.816	569.212	-0.073	-0.176
-93.801	16.845	0.212	-0.166
-92.786	-200.000	-0.048	-0.226
-91.772	358.287	-0.039	-0.076
-90.757	800.000	-0.034	0.140
-89.743	57.001	0.136	-0.131
-88.728	-10.737	0.259	0.169
-87.713	67.425	0.302	-0.304
-86.699	-126.527	0.331	0.048
-85.684	-1.326	-0.237	0.166
-84.670	348.537	-0.041	0.081
-83.655	108.537	-0.205	-0.241
-82.640	440.500	-0.211	0.455
-81.626	-63.032	0.328	0.134
-80.611	21.077	0.087	-0.070
-79.597	-181.402	0.021	-0.000
-78.582	178.878	0.060	-0.087
-77.567	-74.615	0.151	0.054
-76.553	35.862	-0.217	-0.189
-75.538	47.800	-0.067	-0.061
-74.524	-45.233	-0.249	-0.122
-73.509	29.427	0.113	0.095
-72.494	373.112	0.041	-0.081
-71.480	-85.911	0.333	-0.102
-70.465	-200.000	-0.053	0.440
-69.451	800.000	-0.039	0.131
-68.436	-17.797	-0.197	-0.122
-67.422	800.000	0.051	0.209
-66.407	-46.570	-0.120	0.058
-65.392	-44.301	0.124	0.061
-64.378	253.760	-0.086	0.144
-63.363	236.550	0.072	-0.118
-62.349	-89.417	0.253	0.073
-61.334	-45.453	-1.092	-0.534
-60.319	48.362	0.386	0.357
-59.305	800.000	0.144	-0.547
-58.290	255.505	0.541	0.914
-57.276	248.804	0.820	1.369
-56.261	-200.000	95.661	571.188
-55.246	514.186	1429.544	3288.831
-54.232	150.539	2615.744	3503.452
-53.217	110.776	2209.411	2621.087
-52.203	42.961	1737.351	1561.905
-51.188	35.455	1546.479	1338.173
-50.173	33.055	1519.485	1298.300
-49.159	53.233	1566.743	1479.689
-48.144	54.637	1584.695	1506.358
-47.130	35.902	1544.775	1339.602
-46.115	32.583	1530.431	1304.180
-45.100	32.416	1527.265	1300.272
-44.086	32.414	1525.282	1298.519
-43.071	32.381	1523.051	1296.343
-42.057	32.365	1521.734	1295.057
-41.042	32.372	1520.186	1293.738
-40.027	32.385	1519.076	1292.830
-39.013	32.351	1516.905	1290.703
-37.998	32.241	1516.328	1289.401
-36.984	32.348	1514.984	1288.941
-35.969	32.332	1513.980	1287.929
-34.954	32.337	1511.777	1286.039
-33.940	32.302	1510.938	1285.032
-32.925	32.360	1509.384	1284.058
-31.911	32.311	1507.591	1282.145
-30.896	32.369	1506.498	1281.562
-29.881	32.459	1505.096	1280.931
-28.867	32.396	1503.599	1279.177
-27.852	32.423	1501.748	1277.736
-26.838	32.461	1500.350	1276.749
-25.823	32.287	1499.525	1274.820
-24.809	32.382	1497.479	1273.673
-23.794	32.514	1495.592	1272.912
-22.779	32.413	1494.481	1271.227
-21.765	32.430	1493.017	1270.050
-20.750	32.447	1491.885	1269.152
-19.736	32.489	1490.971	1268.608
-18.721	32.401	1490.023	1267.153
-17.706	32.392	1489.364	1266.484
-16.692	32.305	1488.469	1265.085
-15.677	32.363	1487.287	1264.421
-14.663	32.263	1486.756	1263.247
-13.648	32.330	1485.164	1262.297
-12.633	32.314	1484.297	1261.406
-11.619	32.320	1483.363	1260.597
-10.604	32.229	1482.972	1259.605
-9.590	32.255	1481.580	1258.551
-8.575	32.311	1480.606	1258.044
-7.560	32.318	1479.604	1257.189
-6.546	32.222	1479.097	1256.070
-5.531	32.248	1478.170	1255.406
-4.517	32.259	1477.088	1254.507
-3.502	32.272	1476.222	1253.815
-2.487	32.264	1475.257	1252.890
-1.473	32.252	1474.230	1251.888
-0.458	32.337	1472.519	1250.951
0.556	31.193	1463.292	1242.694
1.571	28.944	1439.076	1207.276
2.586	25.846	1377.260	1135.822
3.600	23.752	1293.264	1054.045
4.615	21.855	1247.315	1005.638
5.629	18.911	1189.588	942.888
6.644	9.670	1100.694	825.241
7.659	1.858	1057.259	754.074
8.673	0.536	1052.095	743.810
9.688	0.441	1048.738	740.905
10.702	0.322	1047.283	739.228
11.717	0.392	1045.373	738.155
12.731	3.127	1048.593	753.783
13.746	11.771	1060.898	805.265
14.761	17.671	1067.629	839.444
15.775	17.704	1066.275	838.468
16.790	16.726	1063.984	831.790
17.804	15.616	1062.204	824.880
18.819	14.621	1060.352	818.492
19.834	14.256	1058.638	815.309
20.848	14.031	1057.739	813.442
21.863	13.824	1056.852	811.674
22.877	13.428	1056.283	809.232
23.892	13.264	1055.745	807.945
24.907	13.258	1054.212	806.672
25.921	13.180	1053.606	805.758
26.936	13.270	1053.229	805.836
27.950	13.306	1052.698	805.533
28.965	13.299	1051.924	804.835
29.980	13.358	1050.568	804.013
30.994	13.371	1049.835	803.443
32.009	13.443	1049.174	803.216
33.023	13.517	1048.408	802.918
34.038	13.502	1047.737	802.263
35.053	13.420	1046.637	800.949
36.067	13.372	1046.236	800.339
37.082	13.457	1044.840	799.612
38.096	13.355	1044.484	798.779
39.111	13.543	1043.462	798.831
40.126	13.423	1042.439	797.400
41.140	13.438	1041.309	796.538
42.155	13.325	1040.091	794.993
43.169	13.227	1040.053	794.423
44.184	13.237	1038.714	793.377
45.199	13.181	1037.320	791.972
46.213	13.183	1036.448	791.247
47.228	13.302	1035.614	791.111
48.242	13.384	1034.062	790.244
49.257	13.315	1033.735	789.596
50.271	13.243	1032.692	788.384
51.286	13.253	1031.765	787.658
52.301	13.331	1030.703	787.146
53.315	13.273	1030.071	786.321
54.330	13.367	1029.010	785.884
55.344	13.415	1028.088	785.340
56.359	13.320	1027.254	784.181
57.374	13.192	1026.650	783.048
58.388	13.228	1025.499	782.267
59.403	13.173	1024.841	781.437
60.417	13.237	1023.729	780.821
61.432	13.231	1023.404	780.479
62.447	13.109	1022.732	779.321
63.461	13.253	1021.638	779.098
64.476	13.238	1020.563	778.137
65.490	13.138	1019.849	777.056
66.505	13.051	1019.088	775.995
67.520	13.191	1018.105	775.836
68.534	13.282	1017.501	775.735
69.549	13.120	1016.933	774.475
70.563	13.295	1015.807	774.368
71.578	13.259	1015.157	773.634
72.593	13.149	1014.208	772.326
73.607	13.095	1013.150	771.200
74.622	13.177	1012.202	770.794
75.636	12.955	1011.909	769.468
76.651	13.147	1011.047	769.639
77.666	13.131	1009.994	768.694
78.680	13.160	1009.420	768.326
79.695	13.132	1009.213	767.968
80.709	13.086	1008.441	767.101
81.724	13.162	1007.735	766.847
82.739	13.213	1006.700	766.231
83.753	13.228	1005.592	765.388
84.768	13.331	1005.285	765.563
85.782	13.421	1004.169	765.061
86.797	13.484	1003.610	764.859
87.812	13.415	1003.089	764.076
88.826	13.427	1001.884	763.146
89.841	13.356	1001.181	762.217
90.855	13.299	1000.280	761.202
91.870	13.424	999.416	761.051
92.884	13.451	999.052	760.828
93.899	13.427	998.009	759.860
94.914	13.542	997.204	759.703
95.928	13.395	997.137	758.914
96.943	13.642	995.668	758.860
97.957	13.517	995.087	757.778
98.972	13.432	994.448	756.833
99.987	13.332	994.010	755.976
101.001	13.400	992.779	755.284
102.016	13.435	992.076	754.843
103.030	13.362	990.998	753.624
104.045	13.484	989.850	753.237
105.060	13.486	989.077	752.591
106.074	13.398	987.956	751.271
107.089	13.366	987.271	750.540
108.103	13.259	986.639	749.510
109.118	13.229	985.256	748.254
110.133	13.316	984.757	748.202
111.147	13.275	983.686	747.141
112.162	13.194	983.178	746.323
113.176	13.332	981.804	745.836
114.191	13.382	981.090	745.452
115.206	13.319	980.684	744.795
116.220	13.262	979.652	743.685
117.235	13.337	978.559	743.128
118.249	13.342	977.795	742.504
119.264	13.337	976.767	741.635
120.279	13.281	976.175	740.869
121.293	13.340	975.366	740.457
122.308	13.399	974.103	739.696
123.322	13.349	973.379	738.855
124.337	13.236	972.729	737.794
125.352	13.201	971.710	736.799
126.366	13.246	970.784	736.232
127.381	13.360	969.138	735.424
128.395	13.224	968.495	734.266
129.410	13.097	967.652	732.999
130.424	13.221	966.594	732.685
131.439	13.346	965.297	732.190
132.454	13.472	964.390	731.995
133.468	13.408	964.080	731.410
134.483	13.397	963.247	730.666
135.497	13.475	962.470	730.357
136.512	13.244	961.955	728.882
137.527	13.496	960.741	729.005
138.541	13.392	960.140	728.030
139.556	13.344	959.616	727.354
140.570	13.324	958.632	726.458
141.585	13.426	957.769	726.187
142.600	13.407	957.351	725.721
143.614	13.468	956.722	725.451
144.629	13.404	955.852	724.444
145.643	13.400	955.534	724.120
146.658	13.530	954.355	723.732
147.673	13.398	953.623	722.537
148.687	13.422	952.318	721.590
149.702	13.401	951.611	720.899
150.716	13.299	950.847	719.813
151.731	13.378	949.678	719.208
152.746	13.318	949.342	718.628
153.760	13.481	948.691	718.780
154.775	13.407	947.956	717.839
155.789	13.504	946.870	717.373
156.804	13.524	946.082	716.797
157.819	13.442	946.012	716.325
158.833	13.591	944.583	715.827
159.848	13.519	944.356	715.281
160.862	13.562	943.554	714.795
161.877	13.629	942.868	714.501
162.892	13.494	941.860	713.092
163.906	13.597	940.977	712.802
164.921	13.648	940.031	712.241
165.935	13.572	939.244	711.259
166.950	13.566	938.093	710.297
167.964	13.575	937.464	709.797
168.979	13.548	936.693	709.034
169.994	13.549	935.887	708.363
171.008	13.586	934.510	707.420
172.023	13.501	933.885	706.519
173.037	13.563	933.702	706.584
174.052	13.735	932.746	706.530
175.067	13.770	932.037	706.080
176.081	13.612	931.218	704.725
177.096	13.558	930.675	704.021
178.110	13.723	929.389	703.685
179.125	13.642	928.972	702.964
180.140	13.710	928.060	702.502
181.154	13.660	927.450	701.766
182.169	13.738	926.720	701.484
183.183	13.688	926.157	700.781
184.198	13.712	925.705	700.478
185.213	13.783	924.793	700.026
186.227	13.807	923.935	699.418
187.242	13.876	923.441	699.271
188.256	13.930	922.586	698.789
189.271	13.917	921.998	698.226
190.286	13.949	921.376	697.831
191.300	13.829	920.828	696.850
192.315	13.609	920.217	695.403
193.329	13.725	919.412	695.216
194.344	13.727	918.168	694.224
195.359	13.825	917.644	694.177
196.373	13.814	917.680	694.095
197.388	13.942	916.592	693.747
198.402	13.982	916.762	693.980
199.417	13.971	915.867	693.197
200.432	13.923	915.793	692.880
201.446	14.052	914.818	692.617
202.461	14.082	914.770	692.644
203.475	14.073	914.232	692.139
204.490	14.179	913.372	691.866
205.504	14.100	912.399	690.742
206.519	14.043	911.992	690.132
207.534	14.067	910.844	689.305
208.548	14.061	910.532	688.984
209.563	14.106	909.394	688.245
210.577	14.196	908.459	687.848
211.592	14.125	908.381	687.437
212.607	14.090	908.100	687.016
213.621	14.169	907.304	686.680
214.636	14.263	906.105	686.100
215.650	14.266	905.881	685.881
216.665	14.176	905.238	684.966
217.680	14.229	904.972	684.922
218.694	14.258	904.455	684.588
219.709	14.242	903.944	684.075
220.723	14.318	903.272	683.820
221.738	14.260	902.354	682.825
222.753	14.295	901.618	682.352
223.767	14.348	900.616	681.750
224.782	14.362	900.122	681.373
225.796	14.476	899.423	681.250
226.811	14.550	898.738	680.971
227.826	14.531	897.563	679.943
228.840	14.466	897.249	679.380
229.855	14.248	896.714	678.026
230.869	14.415	896.006	678.112
231.884	14.472	895.457	677.868
232.899	14.283	895.051	676.733
233.913	14.472	894.020	676.660
234.928	14.391	893.265	675.701
235.942	14.370	892.776	675.186
236.957	14.396	891.954	674.610
237.972	14.550	891.246	674.636
238.986	14.366	890.921	673.587
240.001	14.386	890.097	672.987
241.015	14.572	889.252	673.039
242.030	14.454	888.719	672.101
243.045	14.472	888.166	671.693
244.059	14.464	887.462	671.069
245.074	14.543	886.825	670.845
246.088	14.627	886.332	670.752
247.103	14.616	885.585	670.083
248.117	14.479	885.415	669.345
249.132	14.607	884.629	669.206
250.147	14.649	883.856	668.728
251.161	14.821	882.858	668.602
252.176	14.820	882.388	668.184
253.190	14.914	881.680	667.964
254.205	14.937	881.311	667.717
255.220	14.940	880.692	667.203
256.234	14.912	879.856	666.397
257.249	15.012	879.224	666.258
258.263	14.996	878.736	665.764
259.278	14.991	878.319	665.371
260.293	14.953	877.511	664.549
261.307	15.025	877.182	664.525
262.322	15.069	876.555	664.167
263.336	15.082	875.992	663.733
264.351	15.058	875.153	662.944
265.366	15.156	874.207	662.557
266.380	15.110	873.852	662.046
267.395	15.119	873.517	661.771
268.409	15.118	872.846	661.201
269.424	14.920	871.955	659.687
270.439	15.149	871.095	659.879
271.453	15.194	870.148	659.282
272.468	15.104	869.677	658.510
273.482	15.251	869.011	658.525
274.497	15.102	868.772	657.702
275.512	15.248	867.933	657.581
276.526	15.204	867.354	656.913
277.541	15.197	866.755	656.372
278.555	15.135	866.176	655.632
279.570	15.174	865.794	655.437
280.585	15.326	865.171	655.502
281.599	15.364	864.484	655.073
282.614	15.391	863.676	654.509
283.628	15.228	863.295	653.526
284.643	15.230	862.950	653.215
285.657	15.329	862.456	653.170
286.672	15.363	861.594	652.590
287.687	15.299	861.399	652.136
288.701	15.350	860.844	651.858
289.716	15.298	860.091	651.027
290.730	15.405	859.456	650.904
291.745	15.359	859.038	650.351
292.760	15.529	857.781	650.000
293.774	15.618	857.420	650.012
294.789	15.470	856.992	649.059
295.803	15.411	856.847	648.663
296.818	15.406	855.685	647.706
297.833	15.566	854.961	647.719
298.847	15.504	854.307	646.929
299.862	15.550	853.723	646.606
300.876	15.518	853.292	646.097
301.891	15.584	852.293	645.537
302.906	15.548	852.149	645.232
303.920	15.667	851.233	644.939
304.935	15.531	850.539	643.836
305.949	15.744	849.830	644.057
306.964	15.642	849.589	643.428
307.979	15.797	848.675	643.272
308.993	15.690	848.645	642.783
310.008	15.768	847.682	642.293
311.022	15.888	847.012	642.188
312.037	15.832	846.771	641.734
313.052	15.745	846.282	640.976
314.066	15.701	845.777	640.367
315.081	15.630	845.365	639.729
316.095	15.770	844.544	639.583
317.110	15.698	844.101	638.917
318.125	15.731	843.503	638.534
319.139	15.805	842.880	638.285
320.154	15.766	842.501	637.794
321.168	15.729	841.878	637.128
322.183	15.773	841.307	636.807
323.197	15.778	840.823	636.403
324.212	16.012	839.874	636.511
325.227	15.761	839.817	635.463
326.241	15.862	839.141	635.277
327.256	15.950	838.638	635.172
328.270	15.963	838.165	634.807
329.285	15.830	837.846	634.007
330.300	15.968	836.955	633.796
331.314	15.791	836.464	632.701
332.329	15.931	835.419	632.383
333.343	15.846	834.992	631.684
334.358	15.965	834.995	632.076
335.373	16.007	834.474	631.784
336.387	15.984	833.495	630.901
337.402	15.882	833.254	630.279
338.416	16.104	832.381	630.393
339.431	16.013	831.779	629.543
340.446	16.065	831.164	629.216
341.460	16.183	830.688	629.239
342.475	16.146	830.187	628.667
343.489	16.201	829.420	628.236
344.504	16.238	829.193	628.144
345.519	16.245	828.633	627.690
346.533	16.455	828.170	628.066
347.548	16.411	827.277	627.169
348.562	16.393	827.025	626.856
349.577	16.215	826.471	625.720
350.592	16.202	825.935	625.211
351.606	16.271	825.506	625.086
352.621	16.357	824.980	624.952
353.635	16.207	824.510	623.987
354.650	16.271	824.303	624.012
355.665	16.359	823.544	623.706
356.679	16.393	823.092	623.435
357.694	16.333	822.824	622.954
358.708	16.311	822.201	622.348
359.723	16.390	821.543	622.085
360.738	16.487	820.894	621.896
361.752	16.424	820.772	621.515
362.767	16.504	819.999	621.167
363.781	16.499	819.653	620.832
364.796	16.562	819.463	620.865
365.810	16.584	819.114	620.628
366.825	16.564	818.675	620.166
367.840	16.617	818.004	619.798
368.854	16.770	817.292	619.762
369.869	16.662	817.184	619.229
370.883	16.574	816.740	618.518
371.898	16.579	815.938	617.873
372.913	16.724	815.282	617.852
373.927	16.617	814.649	616.926
374.942	16.751	814.162	616.992
375.956	16.870	813.896	617.170
376.971	16.833	813.060	616.346
377.986	16.684	812.665	615.452
379.000	16.920	811.759	615.566
380.015	16.690	811.729	614.654
381.029	16.838	810.892	614.504
382.044	16.922	810.329	614.327
383.059	16.882	809.953	613.844
384.073	16.946	809.417	613.612
385.088	16.865	808.993	612.944
386.102	16.788	808.457	612.207
387.117	16.813	808.393	612.195
388.132	16.829	807.476	611.503
389.146	16.814	807.082	611.097
390.161	16.839	806.897	610.992
391.175	17.020	806.355	611.178
392.190	16.899	806.216	610.585
393.205	16.855	805.754	610.022
394.219	16.948	805.243	609.915
395.234	16.978	804.775	609.617
396.248	16.920	804.085	608.832
397.263	16.876	803.264	607.999
398.278	16.946	802.832	607.867
399.292	16.969	802.576	607.704
400.307	16.949	801.862	607.036
401.321	17.079	801.370	607.073
402.336	17.001	801.517	606.855
403.350	16.960	801.053	606.301
404.365	17.121	800.348	606.290
405.380	17.092	799.619	605.579
406.394	17.168	799.314	605.567
407.409	17.242	799.029	605.560
408.423	17.276	798.433	605.177
409.438	17.155	798.056	604.405
410.453	17.292	797.459	604.387
411.467	17.417	797.172	604.562
412.482	17.436	796.943	604.400
413.496	17.387	796.350	603.723
414.511	17.269	795.974	602.966
415.526	17.473	795.490	603.271
416.540	17.490	795.226	603.076
417.555	17.355	794.611	602.080
418.569	17.404	794.219	601.902
419.584	17.440	793.730	601.604
420.599	17.569	793.058	601.499
421.613	106.585	1286.312	1455.479
422.628	91.458	1358.167	1455.559
