DTS Sentinel unit serial number:	SN413079Multiplexer serial number:	ORYXHardware model number:	OX4-SRSoftware version number:	ORYX F/W v4.00 Oryx Data Collector v3.7.2.0data status	okinstallation	princeton_trtdifferential loss correction	single-endedforward channel	channel 3reverse channel	N/Adate	2019/09/18time	08:40:35forward acquisition time	60.00reverse acquisition time	0.00gamma	496.2192k internal	0.2340k external	0.2340temperature offset calibration	0.9947default loss term (dB/km)	0.3790temperature slope calibration	1.0000multiplexer offset coefficient	1.0000multiplexer slope coefficient	1.0000fibre end	0.00T internal ref (°C)	24.55T ext. ref 1 (°C)	0.22T ext. ref 2 (°C)	20.28length (m)	temperature (°C)	Stokes	anti-Stokes-747.200	-200.000	-0.012	-0.127
-746.185	-200.000	0.078	0.450
-745.171	-20.418	-0.360	0.222
-744.156	152.672	0.105	0.143
-743.142	-88.301	-0.284	0.085
-742.127	800.000	-0.036	-0.108
-741.112	-200.000	0.049	0.312
-740.098	-14.075	0.143	0.093
-739.083	-62.888	0.252	0.104
-738.069	455.856	-0.133	0.296
-737.054	130.521	0.296	0.380
-736.039	59.515	-0.239	-0.236
-735.025	427.061	-0.103	0.223
-734.010	312.668	-0.089	0.168
-732.996	-143.417	-0.294	0.028
-731.981	-69.302	0.253	0.097
-730.966	789.676	0.102	0.281
-729.952	800.000	-0.029	0.103
-728.937	128.787	-0.006	-0.007
-727.923	800.000	-0.027	0.107
-726.908	9.668	0.113	0.086
-725.894	488.026	-0.100	0.230
-724.879	-33.714	0.030	-0.017
-723.864	-48.577	0.083	-0.040
-722.850	800.000	-0.038	-0.126
-721.835	412.237	-0.108	0.230
-720.821	74.844	-0.114	-0.120
-719.806	4.311	0.084	-0.062
-718.791	208.739	0.103	0.162
-717.777	39.745	-0.174	0.156
-716.762	-96.927	-0.138	-0.036
-715.748	800.000	0.110	-0.424
-714.733	48.959	0.198	0.186
-713.718	66.681	0.129	0.131
-712.704	96.746	-0.114	-0.131
-711.689	-200.000	0.035	0.253
-710.675	479.406	0.129	-0.292
-709.660	-120.773	0.313	0.053
-708.645	413.429	-0.063	0.135
-707.631	-200.000	-0.021	0.307
-706.616	219.922	0.148	0.237
-705.602	800.000	-0.062	-0.192
-704.587	68.467	0.103	-0.106
-703.572	-57.903	-0.315	0.138
-702.558	35.432	-0.060	0.053
-701.543	-200.000	0.049	0.292
-700.529	107.283	-0.139	0.166
-699.514	-80.655	0.227	-0.076
-698.499	-200.000	-0.012	0.341
-697.485	268.519	-0.191	0.335
-696.470	-68.320	-0.331	-0.129
-695.456	47.697	0.098	0.092
-694.441	143.344	0.030	-0.040
-693.426	-113.155	-0.362	-0.071
-692.412	-106.519	0.226	-0.050
-691.397	77.125	-0.178	-0.189
-690.383	279.370	0.090	0.161
-689.368	182.203	0.047	-0.069
-688.354	-105.680	-0.202	-0.046
-687.339	16.242	-0.224	0.177
-686.324	-48.377	0.222	0.107
-685.310	800.000	0.043	0.121
-684.295	109.835	-0.064	-0.077
-683.281	-188.129	-0.107	0.001
-682.266	67.190	-0.255	-0.260
-681.251	800.000	-0.058	-0.220
-680.237	-200.000	0.031	-0.253
-679.222	-74.052	0.145	-0.053
-678.208	28.956	-0.217	-0.184
-677.193	119.409	0.294	-0.364
-676.178	-26.175	0.176	0.103
-675.164	-200.000	-0.005	0.043
-674.149	-47.115	-0.268	0.131
-673.135	184.499	0.132	0.196
-672.120	-30.566	-0.202	0.114
-671.105	-139.257	-0.042	-0.005
-670.091	-170.297	0.061	-0.002
-669.076	-200.000	0.041	-0.408
-668.062	226.092	-0.185	0.300
-667.047	-17.078	0.067	-0.042
-666.032	321.733	-0.082	-0.155
-665.018	528.968	0.120	-0.282
-664.003	-2.944	-0.253	-0.177
-662.989	-88.365	-0.396	-0.118
-661.974	59.502	-0.061	0.060
-660.959	218.358	0.080	0.127
-659.945	38.092	-0.059	-0.053
-658.930	-133.204	0.077	-0.010
-657.916	-13.495	-0.220	0.142
-656.901	212.384	-0.139	-0.220
-655.886	-120.544	0.313	-0.053
-654.872	-200.000	0.000	0.264
-653.857	-36.708	0.244	-0.131
-652.843	-26.898	0.066	-0.039
-651.828	-51.803	-0.078	-0.036
-650.814	800.000	0.068	-0.285
-649.799	25.384	0.220	-0.183
-648.784	-138.383	0.187	-0.021
-647.770	8.254	0.303	-0.227
-646.755	56.750	-0.152	-0.148
-645.741	-178.099	0.293	0.007
-644.726	512.580	-0.021	0.048
-643.711	-200.000	-0.007	0.236
-642.697	283.198	-0.117	-0.209
-641.682	-73.955	-0.103	-0.037
-640.668	180.941	0.079	0.116
-639.653	-82.944	-0.661	-0.213
-638.638	800.000	0.042	0.141
-637.624	34.816	-0.238	0.208
-636.609	243.309	0.130	0.217
-635.595	54.195	-0.117	0.113
-634.580	20.804	-0.293	-0.237
-633.565	613.520	0.144	-0.359
-632.551	800.000	0.013	-0.053
-631.536	-94.195	0.137	0.038
-630.522	-9.782	-0.110	-0.073
-629.507	-200.000	0.007	-0.043
-628.492	39.685	0.184	0.164
-627.478	698.200	0.058	0.152
-626.463	85.935	-0.196	0.215
-625.449	-85.271	0.180	-0.056
-624.434	-78.320	-0.366	-0.125
-623.419	-96.620	0.325	-0.085
-622.405	-43.024	-0.140	0.071
-621.390	-60.184	-0.229	-0.097
-620.376	45.709	0.163	0.151
-619.361	800.000	0.082	0.257
-618.346	154.026	-0.125	0.171
-617.332	-88.598	-0.424	-0.126
-616.317	181.825	-0.067	-0.099
-615.303	108.459	-0.170	0.203
-614.288	258.785	0.199	0.342
-613.273	-174.007	0.074	0.002
-612.259	-76.400	-0.165	-0.058
-611.244	800.000	-0.111	-0.356
-610.230	154.415	-0.110	-0.150
-609.215	-200.000	-0.017	0.162
-608.201	-135.842	-0.130	-0.015
-607.186	-200.000	-0.017	-0.131
-606.171	-47.445	-0.184	0.089
-605.157	-100.538	0.081	-0.020
-604.142	-200.000	0.048	-0.323
-603.128	-66.640	0.422	0.167
-602.113	-35.691	-0.151	0.082
-601.098	-112.498	0.182	-0.036
-600.084	270.786	-0.199	0.350
-599.069	-200.000	0.050	-0.274
-598.055	1.322	0.200	0.144
-597.040	240.124	-0.123	-0.204
-596.025	-200.000	0.008	0.108
-595.011	800.000	0.011	-0.037
-593.996	-127.623	0.344	-0.050
-592.982	579.872	0.024	0.059
-591.967	800.000	0.023	-0.082
-590.952	49.271	-0.212	0.199
-589.938	-44.346	-0.214	-0.107
-588.923	-76.315	-0.244	-0.085
-587.909	800.000	0.061	-0.211
-586.894	-15.329	-0.192	-0.123
-585.879	800.000	0.039	-0.147
-584.865	-3.972	-0.201	0.139
-583.850	-118.727	0.227	-0.040
-582.836	-200.000	-0.013	-0.323
-581.821	44.495	-0.101	0.093
-580.806	800.000	-0.062	0.252
-579.792	444.231	0.082	0.179
-578.777	221.841	0.034	-0.054
-577.763	-89.596	0.160	-0.047
-576.748	64.799	-0.202	0.203
-575.733	206.418	0.139	-0.216
-574.719	-94.438	0.179	0.049
-573.704	-134.424	-0.079	-0.010
-572.690	-59.723	0.264	-0.113
-571.675	-39.278	0.214	-0.112
-570.661	800.000	-0.066	-0.275
-569.646	-15.550	-0.292	0.186
-568.631	547.090	-0.117	0.279
-567.617	-133.367	0.434	-0.054
-566.602	-200.000	0.036	-0.279
-565.588	23.362	0.428	-0.351
-564.573	14.235	0.242	0.188
-563.558	106.624	-0.187	0.220
-562.544	-9.261	-0.178	-0.118
-561.529	-200.000	0.019	0.250
-560.515	532.952	0.090	-0.213
-559.500	800.000	0.052	-0.188
-558.485	-79.376	0.282	-0.095
-557.471	273.126	0.056	0.098
-556.456	-81.938	0.255	0.083
-555.442	-18.965	0.118	0.073
-554.427	498.983	-0.064	0.147
-553.412	266.912	-0.047	-0.082
-552.398	-200.000	-0.006	-0.313
-551.383	800.000	-0.080	0.235
-550.369	143.105	-0.088	-0.116
-549.354	-129.123	0.247	0.034
-548.339	-48.147	-0.124	-0.060
-547.325	-48.100	-0.056	0.027
-546.310	-200.000	0.011	0.209
-545.296	-57.855	0.093	0.040
-544.281	-200.000	0.021	-0.282
-543.266	-75.117	-0.302	-0.107
-542.252	-200.000	0.016	0.178
-541.237	-200.000	-0.009	0.169
-540.223	29.611	0.264	-0.224
-539.208	-200.000	-0.043	-0.397
-538.193	91.662	-0.061	0.069
-537.179	348.298	-0.081	-0.158
-536.164	-200.000	0.029	0.250
-535.150	-200.000	0.011	-0.134
-534.135	110.228	-0.062	0.074
-533.121	-70.087	0.159	-0.060
-532.106	19.870	0.313	-0.250
-531.091	-200.000	-0.014	-0.107
-530.077	-124.798	0.443	0.068
-529.062	-34.096	0.140	0.076
-528.048	-14.869	-0.176	0.112
-527.033	-61.470	-0.234	-0.098
-526.018	800.000	-0.016	-0.045
-525.004	-25.145	0.251	0.148
-523.989	728.984	-0.097	-0.256
-522.975	182.846	-0.118	0.173
-521.960	-168.508	0.264	0.010
-520.945	-150.694	0.025	-0.002
-519.931	-200.000	0.041	0.240
-518.916	-141.335	-0.126	-0.013
-517.902	727.180	-0.076	0.203
-516.887	-53.817	0.117	0.053
-515.872	-57.902	0.392	0.170
-514.858	-200.000	0.025	0.153
-513.843	-38.793	-0.109	-0.057
-512.829	800.000	-0.031	-0.137
-511.814	-97.529	0.007	-0.002
-510.799	224.372	-0.042	0.067
-509.785	-71.124	0.079	0.029
-508.770	46.736	-0.085	-0.078
-507.756	424.409	-0.121	-0.258
-506.741	800.000	-0.057	-0.208
-505.726	-76.228	0.138	-0.048
-504.712	-169.362	-0.435	-0.016
-503.697	295.887	0.177	0.322
-502.683	800.000	0.093	0.281
-501.668	295.318	0.126	-0.228
-500.653	382.729	0.184	-0.377
-499.639	-69.396	0.257	-0.098
-498.624	153.885	-0.161	-0.219
-497.610	-90.356	0.171	-0.049
-496.595	-196.063	0.081	-0.001
-495.581	227.387	-0.104	-0.168
-494.566	-154.734	-0.051	-0.003
-493.551	800.000	-0.053	0.183
-492.537	68.899	0.090	-0.092
-491.522	-200.000	-0.029	0.369
-490.508	316.225	-0.179	0.335
-489.493	-200.000	-0.000	-0.186
-488.478	-200.000	0.049	-0.439
-487.464	-200.000	-0.010	-0.198
-486.449	-39.417	0.198	0.103
-485.435	-200.000	0.002	-0.051
-484.420	-200.000	0.021	-0.280
-483.405	-63.826	0.259	0.105
-482.391	-55.295	-0.220	-0.098
-481.376	129.192	0.118	0.150
-480.362	-200.000	0.060	0.392
-479.347	71.130	0.016	-0.017
-478.332	-142.814	0.176	0.017
-477.318	110.462	-0.175	-0.209
-476.303	-143.460	-0.341	0.032
-475.289	-49.134	0.154	0.073
-474.274	101.521	0.212	0.245
-473.259	-93.585	-0.146	0.040
-472.245	130.200	0.073	-0.093
-471.230	-110.450	-0.158	0.033
-470.216	190.815	-0.082	-0.123
-469.201	800.000	0.086	-0.253
-468.186	-12.930	-0.174	0.112
-467.172	218.054	0.093	0.147
-466.157	-200.000	-0.007	0.292
-465.143	-53.678	-0.270	-0.122
-464.128	-200.000	-0.000	-0.116
-463.113	343.347	0.132	-0.257
-462.099	370.658	0.005	0.009
-461.084	-49.352	0.150	0.071
-460.070	682.147	-0.068	0.176
-459.055	-68.027	-0.258	0.100
-458.040	-22.752	0.246	0.148
-457.026	533.857	0.069	-0.162
-456.011	491.313	0.142	0.322
-454.997	-12.453	0.202	0.131
-453.982	-77.789	-0.052	0.018
-452.968	738.430	-0.100	-0.266
-451.953	-92.143	0.161	-0.045
-450.938	-0.203	0.072	-0.051
-449.924	101.062	-0.094	0.109
-448.909	213.764	0.051	0.080
-447.895	545.027	-0.061	-0.144
-446.880	-42.262	-0.291	-0.147
-445.865	6.449	-0.101	-0.074
-444.851	85.350	0.163	-0.177
-443.836	-151.480	0.071	0.005
-442.822	-123.841	0.402	-0.063
-441.807	131.727	-0.056	-0.072
-440.792	-200.000	0.017	-0.105
-439.778	-149.343	0.281	0.022
-438.763	28.039	0.130	-0.109
-437.749	-200.000	-0.009	-0.407
-436.734	25.578	0.126	-0.104
-435.719	-113.295	-0.101	-0.020
-434.705	-126.329	-0.130	0.019
-433.690	85.181	0.223	-0.242
-432.676	275.661	0.141	0.247
-431.661	47.793	-0.290	-0.268
-430.646	35.060	-0.264	-0.229
-429.632	-37.762	-0.210	-0.111
-428.617	51.241	0.059	-0.055
-427.603	-16.839	-0.144	0.090
-426.588	220.329	-0.219	0.348
-425.573	-200.000	0.043	-0.211
-424.559	63.323	0.078	-0.078
-423.544	800.000	-0.031	0.113
-422.530	-77.796	0.207	0.071
-421.515	-128.555	-0.158	-0.022
-420.500	-200.000	-0.075	-0.345
-419.486	362.909	0.112	-0.222
-418.471	-98.485	-0.090	0.023
-417.457	-200.000	0.021	0.118
-416.442	167.076	-0.131	-0.184
-415.428	-200.000	0.016	0.090
-414.413	800.000	-0.071	0.229
-413.398	-46.343	0.209	0.102
-412.384	190.384	-0.155	-0.231
-411.369	800.000	0.087	-0.319
-410.355	-150.705	0.178	-0.013
-409.340	-16.987	0.201	0.126
-408.325	-88.825	0.172	0.050
-407.311	-200.000	-0.057	0.307
-406.296	800.000	-0.034	-0.106
-405.282	240.399	-0.222	0.367
-404.267	273.579	0.098	0.172
-403.252	43.790	0.135	0.122
-402.238	27.855	-0.193	-0.161
-401.223	468.689	0.089	-0.198
-400.209	-138.673	0.098	0.011
-399.194	-43.645	-0.260	-0.129
-398.179	-40.037	0.131	-0.067
-397.165	66.008	0.286	0.287
-396.150	-200.000	0.076	0.402
-395.136	-29.818	-0.211	-0.119
-394.121	-48.149	-0.167	0.080
-393.106	140.816	-0.237	0.310
-392.092	-200.000	0.002	-0.153
-391.077	506.837	-0.039	-0.090
-390.063	30.842	0.106	0.090
-389.048	-99.762	0.220	0.054
-388.033	63.280	0.411	0.408
-387.019	-119.047	-0.440	-0.076
-386.004	-77.753	0.429	-0.147
-384.990	50.674	-0.171	-0.160
-383.975	-61.387	0.125	-0.052
-382.960	13.123	-0.016	0.013
-381.946	641.215	0.155	-0.390
-380.931	404.276	-0.044	0.091
-379.917	50.420	-0.105	-0.098
-378.902	-46.859	-0.126	-0.061
-377.888	-200.000	0.039	-0.185
-376.873	20.755	0.259	0.207
-375.858	-186.695	-0.486	0.007
-374.844	13.803	-0.194	0.149
-373.829	112.092	0.143	-0.171
-372.815	58.137	-0.139	0.134
-371.800	800.000	0.084	-0.261
-370.785	-101.514	-0.084	-0.020
-369.771	-200.000	-0.064	0.296
-368.756	762.293	0.074	-0.199
-367.742	-200.000	0.037	0.305
-366.727	-200.000	0.030	0.164
-365.712	-200.000	0.053	0.272
-364.698	-200.000	-0.011	-0.107
-363.683	-200.000	0.057	-0.266
-362.669	-97.471	-0.088	-0.023
-361.654	800.000	-0.025	0.076
-360.639	-60.118	0.293	-0.123
-359.625	304.021	0.106	0.194
-358.610	800.000	0.024	0.101
-357.596	-64.463	0.149	-0.060
-356.581	-113.890	0.066	-0.013
-355.566	-31.590	-0.131	-0.073
-354.552	-61.453	0.140	0.058
-353.537	-36.311	0.075	0.040
-352.523	-103.193	-0.342	-0.080
-351.508	-74.526	-0.120	0.043
-350.493	53.840	-0.032	-0.031
-349.479	48.746	-0.147	-0.136
-348.464	-200.000	-0.002	0.185
-347.450	-62.878	-0.126	-0.052
-346.435	-200.000	0.007	-0.127
-345.420	-103.638	-0.275	-0.064
-344.406	-127.916	-0.219	0.031
-343.391	85.160	0.182	0.197
-342.377	581.473	-0.057	0.138
-341.362	-10.135	-0.027	-0.018
-340.348	242.057	-0.129	0.213
-339.333	-200.000	0.002	-0.266
-338.318	800.000	-0.112	0.354
-337.304	231.269	-0.091	0.146
-336.289	800.000	0.059	-0.202
-335.275	-38.887	-0.196	-0.102
-334.260	-200.000	0.115	0.000
-333.245	83.800	-0.176	-0.190
-332.231	-200.000	0.055	-0.368
-331.216	199.816	-0.096	-0.145
-330.202	-19.899	-0.230	-0.140
-329.187	64.926	0.099	0.099
-328.172	-21.383	0.043	-0.026
-327.158	800.000	0.032	-0.126
-326.143	-80.442	0.310	-0.102
-325.129	488.249	0.106	0.238
-324.114	-29.326	0.236	-0.134
-323.099	373.921	0.061	-0.123
-322.085	220.770	0.066	-0.104
-321.070	-200.000	0.063	-0.363
-320.056	-49.594	0.103	-0.048
-319.041	-200.000	0.013	-0.127
-318.026	-135.985	-0.248	-0.029
-317.012	-200.000	0.024	0.111
-315.997	-117.546	-0.081	0.014
-314.983	570.979	-0.099	0.238
-313.968	-66.525	-0.224	0.088
-312.953	-108.477	-0.252	-0.054
-311.939	-74.963	-0.116	-0.041
-310.924	286.643	-0.119	0.211
-309.910	134.639	0.101	0.130
-308.895	-21.974	0.293	0.175
-307.880	-200.000	0.007	0.293
-306.866	188.681	-0.277	0.408
-305.851	46.101	0.098	0.089
-304.837	255.081	-0.207	-0.350
-303.822	33.452	0.157	-0.134
-302.807	20.093	0.212	0.169
-301.793	-24.397	-0.347	-0.204
-300.778	66.758	-0.377	0.378
-299.764	-135.741	0.530	-0.062
-298.749	-105.674	-0.213	-0.048
-297.735	37.787	-0.304	0.266
-296.720	-72.833	-0.142	-0.051
-295.705	-81.380	0.143	0.047
-294.691	800.000	-0.101	-0.277
-293.676	12.288	-0.148	0.112
-292.662	44.487	-0.189	-0.171
-291.647	-108.467	0.264	-0.056
-290.632	-116.465	-0.168	0.031
-289.618	378.064	0.126	-0.253
-288.603	17.109	-0.156	0.122
-287.589	-59.469	0.052	-0.022
-286.574	351.530	-0.080	-0.155
-285.559	-40.251	-0.201	-0.103
-284.545	184.426	-0.187	0.272
-283.530	55.391	0.200	0.191
-282.516	-200.000	0.027	0.189
-281.501	185.981	-0.173	-0.254
-280.486	72.465	0.057	-0.059
-279.472	354.049	-0.044	-0.087
-278.457	208.484	-0.158	0.244
-277.443	-200.000	0.022	0.209
-276.428	280.839	0.145	0.256
-275.413	3.931	-0.270	-0.194
-274.399	82.775	-0.162	0.173
-273.384	33.862	0.162	-0.139
-272.370	800.000	-0.094	-0.380
-271.355	76.621	0.166	-0.173
-270.340	-200.000	0.037	0.467
-269.326	-112.997	-0.131	0.025
-268.311	-44.803	-0.141	0.069
-267.297	-130.645	0.139	-0.018
-266.282	-42.285	-0.102	0.051
-265.267	382.571	-0.151	0.306
-264.253	-49.654	0.115	-0.054
-263.238	-17.200	0.325	0.201
-262.224	352.017	-0.066	0.130
-261.209	-127.896	0.474	0.067
-260.195	-41.312	-0.152	-0.077
-259.180	567.518	-0.051	0.121
-258.165	-13.842	0.153	-0.098
-257.151	191.104	0.228	0.337
-256.136	-72.629	0.258	-0.094
-255.122	800.000	-0.096	-0.318
-254.107	800.000	0.107	-0.308
-253.092	800.000	-0.090	0.265
-252.078	-114.160	-0.304	0.058
-251.063	120.539	-0.074	0.090
-250.049	-1.846	0.240	0.166
-249.034	-106.549	-0.152	0.033
-248.019	205.201	-0.150	0.229
-247.005	-200.000	0.020	-0.263
-245.990	-76.178	0.165	-0.057
-244.976	-200.000	0.023	-0.131
-243.961	8.160	-0.170	-0.126
-242.946	30.723	-0.098	0.083
-241.932	84.379	0.204	0.220
-240.917	147.281	-0.130	-0.171
-239.903	800.000	-0.100	-0.313
-238.888	-200.000	0.005	0.151
-237.873	160.205	0.051	-0.070
-236.859	-200.000	-0.013	-0.369
-235.844	57.552	-0.259	0.249
-234.830	-13.717	0.242	0.154
-233.815	-46.201	0.151	-0.073
-232.800	-200.000	-0.023	0.249
-231.786	-200.000	0.001	-0.130
-230.771	800.000	0.037	0.120
-229.757	-61.261	-0.340	0.141
-228.742	-78.757	-0.093	0.031
-227.727	330.983	0.205	0.388
-226.713	-32.014	0.149	-0.082
-225.698	54.152	-0.036	-0.034
-224.684	-200.000	0.016	0.096
-223.669	-200.000	-0.018	0.162
-222.655	-101.821	0.214	-0.051
-221.640	112.687	0.114	0.136
-220.625	136.647	-0.143	0.183
-219.611	-7.814	-0.114	-0.076
-218.596	-200.000	0.023	0.154
-217.582	800.000	0.060	-0.217
-216.567	231.117	0.001	-0.002
-215.552	-85.543	-0.221	-0.068
-214.538	-64.654	0.179	0.071
-213.523	526.232	0.114	0.263
-212.509	176.798	0.262	0.375
-211.494	-200.000	0.049	0.257
-210.479	262.770	-0.063	-0.108
-209.465	-47.917	-0.330	0.157
-208.450	-200.000	-0.029	-0.306
-207.436	232.189	-0.201	-0.324
-206.421	-91.037	0.230	0.065
-205.406	-84.858	-0.102	-0.031
-204.392	135.364	-0.179	0.228
-203.377	-110.806	0.122	0.025
-202.363	800.000	-0.097	0.358
-201.348	-74.711	0.261	0.092
-200.333	-200.000	-0.021	0.276
-199.319	204.726	0.054	0.082
-198.304	295.061	-0.114	-0.205
-197.290	-54.138	0.178	0.079
-196.275	800.000	0.070	0.219
-195.260	110.821	-0.082	0.097
-194.246	72.484	0.060	0.061
-193.231	-75.548	-0.298	0.104
-192.217	119.551	-0.049	0.060
-191.202	-81.698	0.255	-0.082
-190.187	-200.000	-0.044	-0.278
-189.173	63.719	0.280	0.276
-188.158	-16.109	0.158	-0.098
-187.144	-147.627	-0.174	0.014
-186.129	-49.160	-0.307	-0.144
-185.114	-73.684	-0.176	-0.063
-184.100	39.231	0.264	-0.231
-183.085	198.375	-0.016	0.024
-182.071	800.000	0.140	-0.388
-181.056	190.751	-0.114	-0.167
-180.042	709.214	-0.109	-0.283
-179.027	-96.385	0.265	0.069
-178.012	286.350	0.048	-0.085
-176.998	403.897	-0.183	0.377
-175.983	-200.000	0.002	-0.221
-174.969	-200.000	-0.028	0.241
-173.954	800.000	-0.046	-0.173
-172.939	-200.000	0.046	0.377
-171.925	603.739	-0.140	0.342
-170.910	-200.000	-0.042	0.255
-169.896	76.379	-0.041	-0.043
-168.881	119.552	-0.171	0.207
-167.866	40.731	-0.188	-0.166
-166.852	681.707	-0.116	-0.297
-165.837	800.000	0.066	-0.238
-164.823	15.711	0.081	-0.062
-163.808	61.722	-0.197	-0.192
-162.793	-172.010	0.128	-0.004
-161.779	-85.943	0.019	-0.006
-160.764	51.641	-0.192	-0.179
-159.750	-103.683	0.137	0.032
-158.735	-152.760	0.329	-0.023
-157.720	-200.000	-0.043	0.214
-156.706	-74.568	-0.225	-0.080
-155.691	217.804	0.105	-0.163
-154.677	800.000	-0.081	-0.324
-153.662	-200.000	-0.002	-0.085
-152.647	0.367	0.067	0.047
-151.633	172.782	0.241	0.340
-150.618	-64.909	-0.072	0.028
-149.604	-138.021	-0.279	0.030
-148.589	4.255	-0.086	0.062
-147.574	-131.794	0.226	-0.029
-146.560	-128.950	-0.288	0.040
-145.545	5.466	-0.141	0.102
-144.531	597.100	0.043	0.103
-143.516	282.525	0.152	0.267
-142.502	-59.659	-0.117	-0.049
-141.487	48.372	-0.053	0.049
-140.472	-127.126	0.249	-0.036
-139.458	-200.000	0.005	-0.106
-138.443	-18.234	-0.168	-0.103
-137.429	10.262	-0.184	-0.137
-136.414	-70.508	-0.062	-0.023
-135.399	290.078	0.072	0.129
-134.385	-25.597	-0.282	-0.163
-133.370	345.568	-0.159	-0.306
-132.356	-12.493	0.341	0.218
-131.341	262.485	-0.142	-0.241
-130.326	-69.798	0.221	-0.083
-129.312	-200.000	-0.048	-0.351
-128.297	800.000	-0.025	-0.070
-127.283	-200.000	-0.072	0.331
-126.268	-200.000	-0.008	-0.089
-125.253	-26.545	0.318	0.182
-124.239	300.465	0.097	-0.175
-123.224	-107.375	0.274	0.059
-122.210	-7.786	0.133	0.088
-121.195	800.000	0.113	-0.428
-120.180	800.000	0.057	0.174
-119.166	-200.000	0.074	0.374
-118.151	46.170	-0.204	0.185
-117.137	443.627	0.065	0.139
-116.122	800.000	-0.122	0.501
-115.107	-200.000	0.004	-0.202
-114.093	286.201	-0.151	-0.267
-113.078	-86.527	0.050	0.015
-112.064	437.566	-0.045	0.096
-111.049	-138.557	0.206	0.022
-110.034	-200.000	-0.011	-0.138
-109.020	-200.000	-0.041	-0.317
-108.005	49.385	0.185	0.170
-106.991	16.362	0.257	0.198
-105.976	-75.503	0.281	-0.098
-104.962	102.515	-0.044	0.050
-103.947	-200.000	0.016	-0.099
-102.932	800.000	0.040	0.167
-101.918	21.237	-0.325	0.258
-100.903	-100.828	-0.295	0.071
-99.889	-131.465	0.354	-0.046
-98.874	-10.416	0.270	0.175
-97.859	3.754	0.049	0.035
-96.845	186.182	0.020	0.029
-95.830	-25.820	0.164	-0.094
-94.816	68.802	0.169	-0.170
-93.801	441.222	-0.080	0.171
-92.786	-131.575	0.146	0.019
-91.772	-107.159	-0.082	-0.018
-90.757	-200.000	0.022	-0.228
-89.743	-69.505	0.299	0.112
-88.728	448.761	0.050	-0.108
-87.713	50.993	-0.113	-0.105
-86.699	800.000	0.053	0.145
-85.684	-57.740	-0.071	0.031
-84.670	-3.355	0.151	0.103
-83.655	-200.000	-0.024	0.128
-82.640	335.287	0.042	-0.080
-81.626	-38.228	0.287	-0.149
-80.611	86.956	0.199	-0.215
-79.597	-61.095	-0.337	-0.139
-78.582	109.437	0.153	0.179
-77.567	-200.000	-0.003	-0.080
-76.553	-200.000	0.028	-0.185
-75.538	-18.210	0.294	0.180
-74.524	479.272	0.097	-0.215
-73.509	489.466	-0.184	0.410
-72.494	409.662	0.106	-0.219
-71.480	131.518	-0.142	-0.179
-70.465	147.989	0.193	0.254
-69.451	-200.000	0.051	0.228
-68.436	-36.637	-0.171	0.090
-67.422	-9.915	-0.204	-0.133
-66.407	-50.311	-0.061	0.028
-65.392	-56.129	0.178	0.077
-64.378	-15.237	-0.176	-0.110
-63.363	70.464	-0.125	-0.126
-62.349	40.644	0.100	-0.088
-61.334	95.384	-1.074	-1.195
-60.319	43.332	0.628	0.560
-59.305	-200.000	-0.225	-1.192
-58.290	283.431	0.745	1.307
-57.276	800.000	0.407	1.416
-56.261	-200.000	121.586	616.521
-55.246	386.499	1570.190	3164.218
-54.232	141.763	2732.168	3532.662
-53.217	93.973	2193.467	2427.147
-52.203	34.809	1708.014	1457.691
-51.188	27.563	1524.200	1251.226
-50.173	25.529	1500.582	1218.029
-49.159	47.068	1567.664	1422.868
-48.144	45.334	1581.637	1423.437
-47.130	27.632	1532.245	1258.107
-46.115	24.893	1515.981	1225.979
-45.100	24.663	1512.581	1221.609
-44.086	24.596	1510.773	1219.637
-43.071	24.536	1508.826	1217.608
-42.057	24.503	1507.770	1216.488
-41.042	24.454	1505.987	1214.665
-40.027	24.554	1504.403	1214.021
-39.013	24.469	1503.301	1212.501
-37.998	24.560	1501.713	1211.790
-36.984	24.529	1500.656	1210.682
-35.969	24.586	1499.065	1209.736
-34.954	24.514	1497.659	1208.064
-33.940	24.529	1496.071	1206.839
-32.925	24.557	1494.862	1206.004
-31.911	24.544	1493.619	1204.867
-30.896	24.583	1492.038	1203.804
-29.881	24.545	1491.430	1203.014
-28.867	24.606	1490.135	1202.331
-27.852	24.540	1489.222	1201.103
-26.838	24.611	1487.031	1199.765
-25.823	24.584	1485.723	1198.481
-24.809	24.494	1484.072	1196.497
-23.794	24.523	1482.665	1195.512
-22.779	24.513	1481.498	1194.455
-21.765	24.593	1480.109	1193.819
-20.750	24.671	1478.980	1193.382
-19.736	24.636	1478.019	1192.326
-18.721	24.641	1477.116	1191.586
-17.706	24.650	1475.633	1190.401
-16.692	24.557	1475.006	1189.231
-15.677	24.505	1474.127	1188.130
-14.663	24.535	1473.241	1187.566
-13.648	24.554	1472.289	1186.875
-12.633	24.503	1471.295	1185.690
-11.619	24.524	1470.357	1185.025
-10.604	24.514	1469.817	1184.479
-9.590	24.520	1469.068	1183.870
-8.575	24.471	1468.075	1182.694
-7.560	24.532	1466.769	1182.001
-6.546	24.634	1465.557	1181.654
-5.531	24.489	1465.075	1180.256
-4.517	24.407	1464.516	1179.214
-3.502	24.515	1463.090	1178.737
-2.487	24.433	1462.360	1177.562
-1.473	24.487	1461.221	1176.951
-0.458	24.434	1460.310	1175.823
0.556	22.955	1450.782	1166.343
1.571	20.295	1426.246	1129.236
2.586	17.215	1364.979	1061.417
3.600	15.744	1281.970	988.147
4.615	14.614	1238.801	948.369
5.629	12.664	1182.247	894.408
6.644	6.267	1098.592	798.663
7.659	1.000	1061.400	745.676
8.673	0.348	1056.020	738.635
9.688	0.230	1052.856	735.784
10.702	0.172	1051.692	734.620
11.717	0.120	1049.543	732.801
12.731	2.251	1051.018	744.150
13.746	9.091	1059.773	783.769
14.761	14.948	1067.088	817.823
15.775	16.657	1068.758	827.392
16.790	16.312	1068.050	825.085
17.804	15.448	1065.515	818.843
18.819	14.619	1063.646	813.296
19.834	14.219	1062.345	810.281
20.848	13.874	1061.690	808.029
21.863	13.647	1060.656	806.066
22.877	13.364	1060.027	804.145
23.892	13.204	1059.243	802.699
24.907	13.206	1058.197	801.844
25.921	13.010	1057.445	800.254
26.936	13.162	1056.939	800.538
27.950	13.074	1056.447	799.668
28.965	13.140	1055.588	799.266
29.980	13.198	1054.594	798.723
30.994	13.246	1053.367	797.956
32.009	13.287	1052.707	797.585
33.023	13.333	1052.367	797.475
34.038	13.377	1051.089	796.649
35.053	13.442	1050.185	796.204
36.067	13.362	1049.304	795.084
37.082	13.306	1048.512	794.144
38.096	13.324	1047.787	793.610
39.111	13.322	1046.867	792.835
40.126	13.371	1045.676	792.096
41.140	13.316	1044.669	791.002
42.155	13.232	1043.580	789.707
43.169	13.143	1042.812	788.627
44.184	13.045	1042.020	787.493
45.199	13.029	1040.823	786.442
46.213	13.096	1039.894	785.992
47.228	13.141	1038.882	785.370
48.242	13.106	1038.514	784.855
49.257	13.185	1037.360	784.289
50.271	13.194	1036.201	783.384
51.286	13.301	1035.028	782.937
52.301	13.236	1034.330	782.032
53.315	13.192	1034.045	781.537
54.330	13.105	1033.142	780.377
55.344	13.263	1031.828	780.061
56.359	13.186	1030.785	778.839
57.374	13.293	1029.883	778.591
58.388	13.152	1029.554	777.611
59.403	13.233	1028.636	777.229
60.417	13.103	1028.180	776.204
61.432	13.067	1027.635	775.557
62.447	13.099	1026.247	774.592
63.461	13.041	1025.492	773.679
64.476	13.064	1024.642	773.079
65.490	13.029	1023.710	772.142
66.505	13.110	1022.673	771.672
67.520	13.031	1022.395	771.025
68.534	13.197	1021.490	771.048
69.549	13.138	1020.748	770.143
70.563	13.136	1020.187	769.642
71.578	13.122	1019.052	768.656
72.593	13.145	1018.078	767.957
73.607	13.116	1017.074	766.996
74.622	13.049	1016.590	766.256
75.636	13.055	1015.619	765.484
76.651	13.131	1014.556	764.968
77.666	12.989	1013.949	763.785
78.680	13.025	1013.538	763.573
79.695	13.093	1012.832	763.285
80.709	12.964	1012.486	762.365
81.724	13.214	1011.216	762.491
82.739	13.222	1010.623	762.016
83.753	13.222	1010.041	761.509
84.768	13.156	1009.166	760.479
85.782	13.385	1008.477	760.946
86.797	13.267	1007.838	759.853
87.812	13.221	1007.041	758.975
88.826	13.255	1005.805	758.131
89.841	13.266	1004.992	757.501
90.855	13.337	1004.021	757.028
91.870	13.315	1003.637	756.573
92.884	13.405	1002.563	756.106
93.899	13.198	1002.273	754.874
94.914	13.403	1001.663	755.282
95.928	13.260	1000.953	754.030
96.943	13.451	1000.188	754.257
97.957	13.447	999.018	753.289
98.972	13.295	998.505	752.144
99.987	13.413	997.876	752.139
101.001	13.322	997.478	751.361
102.016	13.233	996.547	750.188
103.030	13.350	995.259	749.682
104.045	13.286	994.706	748.912
105.060	13.392	993.301	748.265
106.074	13.451	991.834	747.362
107.089	13.330	991.376	746.402
108.103	13.302	990.737	745.728
109.118	13.258	989.434	744.486
110.133	13.304	988.758	744.118
111.147	13.276	987.930	743.305
112.162	13.277	986.964	742.517
113.176	13.252	986.422	741.929
114.191	13.313	985.160	741.186
115.206	13.393	984.188	740.748
116.220	13.307	983.594	739.852
117.235	13.246	982.855	738.957
118.249	13.147	982.203	737.960
119.264	13.380	980.700	737.805
120.279	13.299	979.850	736.740
121.293	13.366	979.254	736.523
122.308	13.406	978.522	736.084
123.322	13.164	977.912	734.486
124.337	13.313	977.098	734.471
125.352	13.233	975.522	732.865
126.366	13.286	974.494	732.264
127.381	13.200	973.427	731.018
128.395	13.216	972.733	730.505
129.410	13.178	971.837	729.595
130.424	13.227	971.042	729.154
131.439	13.215	970.263	728.452
132.454	13.312	968.991	727.858
133.468	13.295	967.931	726.921
134.483	13.269	967.679	726.553
135.497	13.310	966.976	726.143
136.512	13.392	966.056	725.747
137.527	13.270	965.289	724.574
138.541	13.100	964.640	723.277
139.556	13.200	964.242	723.351
140.570	13.415	963.293	723.517
141.585	13.405	962.728	722.983
142.600	13.392	961.862	722.211
143.614	13.337	960.891	721.178
144.629	13.420	960.040	720.839
145.643	13.491	959.397	720.599
146.658	13.421	958.612	719.644
147.673	13.585	957.264	719.278
148.687	13.483	956.657	718.319
149.702	13.500	955.634	717.560
150.716	13.341	955.239	716.511
151.731	13.235	954.414	715.369
152.746	13.340	953.407	715.007
153.760	13.521	952.658	715.161
154.775	13.413	952.091	714.206
155.789	13.498	950.910	713.625
156.804	13.490	950.442	713.176
157.819	13.511	949.471	712.474
158.833	13.447	949.015	711.793
159.848	13.581	948.160	711.664
160.862	13.666	947.510	711.479
161.877	13.702	946.914	711.124
162.892	13.669	945.774	710.063
163.906	13.532	944.895	708.756
164.921	13.512	944.316	708.169
165.935	13.561	943.500	707.707
166.950	13.561	942.359	706.790
167.964	13.486	941.720	705.925
168.979	13.558	940.321	705.120
169.994	13.526	939.670	704.436
171.008	13.636	938.481	703.948
172.023	13.690	937.800	703.605
173.037	13.648	937.380	703.049
174.052	13.740	936.426	702.662
175.067	13.676	935.822	701.874
176.081	13.738	934.745	701.269
177.096	13.651	934.021	700.293
178.110	13.632	933.469	699.738
179.125	13.634	932.564	699.005
180.140	13.611	931.927	698.371
181.154	13.678	931.089	697.964
182.169	13.642	930.322	697.173
183.183	13.707	929.827	697.013
184.198	13.750	929.267	696.713
185.213	13.844	928.495	696.468
186.227	13.752	927.911	695.583
187.242	13.812	927.329	695.338
188.256	13.867	926.333	694.757
189.271	13.899	926.010	694.590
190.286	13.903	924.793	693.629
191.300	13.745	924.695	692.835
192.315	13.737	923.594	691.917
193.329	13.832	922.837	691.685
194.344	13.743	922.252	690.814
195.359	13.759	921.644	690.364
196.373	13.895	920.799	690.233
197.388	13.910	920.646	690.120
198.402	13.950	920.079	689.803
199.417	14.081	919.603	689.929
200.432	14.110	919.332	689.781
201.446	14.063	918.551	688.942
202.461	14.000	918.431	688.529
203.475	14.190	917.890	688.850
204.490	14.074	917.283	687.855
205.504	13.992	916.148	686.604
206.519	14.108	915.561	686.580
207.534	14.078	914.632	685.699
208.548	14.033	914.125	685.072
209.563	14.038	913.671	684.694
210.577	14.243	912.236	684.398
211.592	14.043	911.986	683.328
212.607	14.283	911.170	683.644
213.621	14.173	910.766	682.830
214.636	14.268	910.072	682.638
215.650	14.060	909.885	681.582
216.665	14.128	909.063	681.186
217.680	14.271	908.586	681.355
218.694	14.267	907.898	680.760
219.709	14.472	907.062	680.913
220.723	14.384	906.447	680.031
221.738	14.247	906.101	679.152
222.753	14.282	905.102	678.484
223.767	14.330	904.395	678.092
224.782	14.280	903.635	677.257
225.796	14.416	902.761	677.096
226.811	14.304	901.919	675.949
227.826	14.316	901.638	675.730
228.840	14.354	900.747	675.155
229.855	14.459	899.901	674.886
230.869	14.379	899.479	674.187
231.884	14.445	898.734	673.836
232.899	14.479	898.056	673.403
233.913	14.409	897.183	672.408
234.928	14.327	896.873	671.784
235.942	14.328	896.233	671.250
236.957	14.505	895.255	671.171
237.972	14.450	894.911	670.633
238.986	14.328	894.199	669.550
240.001	14.382	893.587	669.249
241.015	14.412	892.864	668.769
242.030	14.532	891.983	668.530
243.045	14.666	890.758	668.089
244.059	14.480	890.976	667.450
245.074	14.574	889.999	667.034
246.088	14.481	889.479	666.215
247.103	14.557	889.000	666.099
248.117	14.625	888.301	665.786
249.132	14.650	887.307	665.085
250.147	14.803	886.947	665.363
251.161	14.897	886.282	665.182
252.176	14.794	885.740	664.305
253.190	14.829	885.039	663.859
254.205	14.952	884.504	663.887
255.220	14.896	883.983	663.215
256.234	14.982	883.187	662.900
257.249	14.932	882.431	662.078
258.263	14.833	882.280	661.512
259.278	14.979	881.362	661.344
260.293	14.972	880.881	660.894
261.307	15.000	880.293	660.507
262.322	15.099	879.641	660.349
263.336	14.964	879.371	659.556
264.351	15.077	878.471	659.267
265.366	15.146	877.612	658.837
266.380	15.095	877.548	658.530
267.395	15.164	876.766	658.155
268.409	15.034	876.031	657.035
269.424	15.134	874.792	656.440
270.439	15.179	874.429	656.285
271.453	15.291	873.814	656.204
272.468	15.223	872.783	655.105
273.482	15.131	872.117	654.191
274.497	15.044	872.092	653.773
275.512	15.165	870.798	653.217
276.526	15.029	870.441	652.360
277.541	15.198	869.739	652.434
278.555	15.256	869.431	652.372
279.570	15.238	868.868	651.821
280.585	15.415	868.019	651.816
281.599	15.358	867.425	651.090
282.614	15.375	867.073	650.835
283.628	15.169	866.530	649.569
284.643	15.290	865.711	649.367
285.657	15.423	865.294	649.512
286.672	15.369	864.606	648.731
287.687	15.361	864.177	648.319
288.701	15.412	863.480	647.934
289.716	15.440	863.380	647.911
290.730	15.467	862.239	647.102
291.745	15.298	862.426	646.534
292.760	15.541	860.890	646.262
293.774	15.476	860.540	645.691
294.789	15.568	860.013	645.592
295.803	15.536	859.480	645.011
296.818	15.442	858.902	644.161
297.833	15.428	858.390	643.665
298.847	15.628	857.337	643.584
299.862	15.526	856.567	642.558
300.876	15.473	856.068	641.926
301.891	15.637	855.493	642.066
302.906	15.691	854.748	641.653
303.920	15.502	854.501	640.689
304.935	15.666	853.606	640.590
305.949	15.642	852.935	639.937
306.964	15.803	851.995	639.785
307.979	15.748	851.877	639.432
308.993	15.760	851.368	639.038
310.008	15.804	850.316	638.362
311.022	15.856	850.121	638.354
312.037	15.764	849.593	637.554
313.052	15.741	849.183	637.102
314.066	15.797	848.494	636.741
315.081	15.822	847.912	636.342
316.095	15.771	846.985	635.395
317.110	15.683	846.944	634.979
318.125	15.924	846.046	635.157
319.139	15.828	845.660	634.448
320.154	15.743	845.165	633.703
321.168	15.858	844.787	633.795
322.183	15.912	844.081	633.412
323.197	15.868	843.576	632.814
324.212	16.015	842.679	632.637
325.227	15.882	842.457	631.914
326.241	15.907	842.086	631.675
327.256	15.786	841.830	630.972
328.270	16.027	840.901	631.121
329.285	16.022	839.897	630.295
330.300	15.980	839.368	629.686
331.314	15.885	839.230	629.169
332.329	15.967	838.478	628.855
333.343	15.893	838.028	628.186
334.358	16.094	837.137	628.213
335.373	16.024	836.980	627.778
336.387	15.963	836.532	627.161
337.402	16.149	835.719	627.186
338.416	16.125	835.072	626.557
339.431	16.177	834.564	626.312
340.446	16.108	834.548	625.988
341.460	16.274	833.427	625.710
342.475	16.059	833.307	624.765
343.489	16.359	832.371	625.118
344.504	16.224	831.831	624.160
345.519	16.356	831.184	624.108
346.533	16.401	830.856	623.970
347.548	16.356	830.203	623.261
348.562	16.335	829.850	622.862
349.577	16.488	829.376	623.014
350.592	16.210	829.090	621.720
351.606	16.323	828.365	621.538
352.621	16.397	827.712	621.264
353.635	16.260	827.318	620.411
354.650	16.333	826.872	620.288
355.665	16.293	826.760	620.004
356.679	16.394	826.133	619.850
357.694	16.505	825.495	619.724
358.708	16.383	825.087	618.914
359.723	16.461	824.343	618.587
360.738	16.445	823.821	618.083
361.752	16.463	823.096	617.550
362.767	16.603	822.837	617.813
363.781	16.565	822.759	617.559
364.796	16.563	822.213	617.090
365.810	16.540	821.487	616.407
366.825	16.644	821.366	616.639
367.840	16.613	821.047	616.231
368.854	16.646	820.403	615.814
369.869	16.678	819.706	615.351
370.883	16.521	819.360	614.469
371.898	16.675	818.536	614.354
372.913	16.695	818.168	614.095
373.927	16.646	817.825	613.606
374.942	16.816	817.103	613.626
375.956	16.830	816.250	612.983
376.971	16.889	815.882	612.865
377.986	16.922	815.284	612.480
379.000	16.880	815.036	612.088
380.015	16.920	814.667	611.902
381.029	16.927	813.775	611.203
382.044	16.993	813.329	611.050
383.059	16.909	812.675	610.205
384.073	16.728	812.475	609.350
385.088	16.867	811.703	609.217
386.102	16.821	811.179	608.603
387.117	16.866	810.699	608.351
388.132	17.001	810.263	608.452
389.146	17.011	809.439	607.817
390.161	17.028	809.407	607.800
391.175	16.893	809.147	607.068
392.190	17.036	808.214	606.825
393.205	16.971	808.092	606.447
394.219	17.104	807.607	606.504
395.234	16.969	807.153	605.629
396.248	16.959	806.647	605.159
397.263	16.776	806.362	604.240
398.278	17.001	805.732	604.516
399.292	17.153	804.911	604.387
400.307	17.043	804.852	603.898
401.321	17.063	804.450	603.613
402.336	17.167	804.030	603.616
403.350	17.064	803.701	602.949
404.365	17.237	803.237	603.159
405.380	17.214	802.578	602.532
406.394	17.122	802.444	602.052
407.409	17.218	801.680	601.766
408.423	17.247	801.072	601.358
409.438	17.338	800.529	601.220
410.453	17.212	800.571	600.750
411.467	17.308	799.991	600.604
412.482	17.278	799.433	600.025
413.496	17.524	798.608	600.220
414.511	17.451	798.666	599.953
415.526	17.494	798.408	599.858
416.540	17.416	797.987	599.212
417.555	17.395	797.482	598.708
418.569	17.362	797.094	598.247
419.584	17.589	796.361	598.442
420.599	17.326	796.166	597.317
421.613	113.140	1296.561	1485.850
422.628	97.407	1369.437	1485.934
