DTS Sentinel unit serial number:	SN413079Multiplexer serial number:	ORYXHardware model number:	OX4-SRSoftware version number:	ORYX F/W v4.00 Oryx Data Collector v3.7.2.0data status	okinstallation	princeton_trtdifferential loss correction	single-endedforward channel	channel 3reverse channel	N/Adate	2019/09/18time	13:28:35forward acquisition time	60.00reverse acquisition time	0.00gamma	496.2192k internal	0.2311k external	0.2311temperature offset calibration	0.9974default loss term (dB/km)	0.3790temperature slope calibration	1.0000multiplexer offset coefficient	1.0000multiplexer slope coefficient	1.0000fibre end	0.00T internal ref (°C)	34.19T ext. ref 1 (°C)	0.62T ext. ref 2 (°C)	30.52length (m)	temperature (°C)	Stokes	anti-Stokes-747.200	-174.345	-0.085	-0.002
-746.185	231.797	-0.060	0.100
-745.171	51.976	-0.098	0.095
-744.156	258.870	0.101	0.176
-743.142	-200.000	-0.028	0.160
-742.127	-88.310	0.194	0.059
-741.112	52.035	0.039	0.038
-740.098	126.375	0.152	0.195
-739.083	-200.000	-0.004	-0.066
-738.069	-102.896	-0.440	0.106
-737.054	348.591	0.034	0.067
-736.039	121.796	0.283	-0.358
-735.025	-72.510	0.205	0.077
-734.010	582.952	-0.136	0.340
-732.996	236.096	-0.157	-0.263
-731.981	232.221	-0.042	0.070
-730.966	297.261	0.177	-0.330
-729.952	211.835	0.158	-0.252
-728.937	515.534	0.211	-0.500
-727.923	120.031	-0.112	-0.141
-726.908	301.093	-0.123	0.230
-725.894	28.385	-0.226	-0.194
-724.879	-200.000	-0.080	-0.392
-723.864	111.648	-0.124	0.152
-722.850	255.387	-0.152	0.264
-721.835	378.423	0.028	0.059
-720.821	75.507	0.218	-0.234
-719.806	800.000	0.083	-0.338
-718.791	-91.694	0.259	0.075
-717.777	-69.545	-0.399	0.155
-716.762	-200.000	-0.022	0.192
-715.748	800.000	-0.062	0.204
-714.733	-173.468	-0.246	-0.008
-713.718	59.965	-0.226	-0.227
-712.704	-177.921	0.142	0.003
-711.689	800.000	0.131	0.524
-710.675	-13.716	0.089	0.058
-709.660	121.966	0.225	0.284
-708.645	1.359	-0.304	0.222
-707.631	102.773	-0.333	0.395
-706.616	-0.324	-0.260	-0.188
-705.602	64.024	-0.072	-0.074
-704.587	10.608	-0.264	0.204
-703.572	-59.063	-0.119	0.052
-702.558	348.894	-0.017	0.034
-701.543	800.000	-0.077	0.284
-700.529	-37.039	-0.015	-0.008
-699.514	-200.000	-0.027	0.123
-698.499	85.392	0.128	-0.142
-697.485	-58.765	0.110	0.048
-696.470	799.712	-0.051	0.142
-695.456	-200.000	-0.000	-0.304
-694.441	244.113	-0.208	0.354
-693.426	-200.000	0.022	0.209
-692.412	15.877	0.085	0.068
-691.397	-200.000	-0.018	0.129
-690.383	161.835	-0.135	0.192
-689.368	-6.553	-0.083	-0.057
-688.354	136.386	0.128	-0.169
-687.339	47.669	0.274	0.259
-686.324	-16.457	0.361	0.232
-685.310	-55.743	0.197	-0.089
-684.295	16.526	0.069	-0.055
-683.281	131.660	-0.146	-0.191
-682.266	-15.101	0.231	-0.150
-681.251	503.181	0.077	-0.180
-680.237	39.468	-0.277	-0.251
-679.222	-105.228	-0.103	-0.024
-678.208	-26.673	0.046	-0.027
-677.193	22.510	0.018	0.015
-676.178	-159.740	0.022	0.001
-675.164	586.900	0.097	0.242
-674.149	-191.383	0.090	0.001
-673.135	800.000	-0.070	-0.198
-672.120	493.693	0.088	0.204
-671.105	-108.958	-0.228	0.049
-670.091	-24.965	-0.286	0.172
-669.076	-200.000	-0.060	-0.269
-668.062	689.909	0.027	-0.073
-667.047	149.027	-0.127	0.174
-666.032	-200.000	-0.036	-0.238
-665.018	-191.244	-0.176	-0.002
-664.003	-200.000	0.027	0.208
-662.989	54.006	0.271	0.263
-661.974	123.562	0.113	0.143
-660.959	362.734	0.150	-0.305
-659.945	-44.198	-0.161	0.081
-658.930	-200.000	-0.029	-0.210
-657.916	800.000	-0.087	-0.376
-656.901	-75.909	-0.261	-0.094
-655.886	-200.000	0.016	-0.125
-654.872	-108.438	-0.162	0.035
-653.857	-94.456	0.290	0.080
-652.843	-23.883	-0.115	-0.070
-651.828	-200.000	-0.016	0.245
-650.814	-94.828	-0.220	-0.060
-649.799	-126.927	-0.440	-0.066
-648.784	290.643	0.033	-0.061
-647.770	-27.390	0.218	-0.128
-646.755	-200.000	-0.010	0.102
-645.741	-166.420	-0.158	0.007
-644.726	-200.000	0.004	0.025
-643.711	-84.929	-0.026	0.008
-642.697	-83.381	-0.172	0.056
-641.682	-136.332	0.208	0.025
-640.668	-44.453	-0.148	-0.075
-639.653	-172.555	-0.112	0.004
-638.638	106.077	-0.232	-0.277
-637.624	-143.300	-0.133	0.013
-636.609	158.822	-0.074	0.105
-635.595	60.676	0.282	0.283
-634.580	180.807	-0.330	0.490
-633.565	64.812	-0.109	-0.111
-632.551	-41.043	-0.478	-0.250
-631.536	138.227	0.164	0.218
-630.522	79.243	0.157	-0.170
-629.507	800.000	0.054	-0.221
-628.492	-124.138	0.130	0.021
-627.478	16.268	0.291	-0.232
-626.463	-126.695	-0.265	-0.040
-625.449	-152.513	-0.236	0.017
-624.434	25.253	0.202	-0.170
-623.419	-200.000	0.011	-0.253
-622.405	-127.593	-0.157	-0.023
-621.390	173.072	0.174	0.253
-620.376	126.218	0.084	0.108
-619.361	716.566	-0.161	0.433
-618.346	111.272	-0.146	0.178
-617.332	-109.652	0.174	0.037
-616.317	-105.954	-0.298	-0.068
-615.303	-131.061	0.068	-0.009
-614.288	-133.572	0.219	-0.028
-613.273	126.667	0.125	0.160
-612.259	-74.429	0.217	-0.079
-611.244	-200.000	0.061	0.309
-610.230	-64.591	-0.027	0.011
-609.215	83.374	0.077	-0.085
-608.201	-200.000	0.002	0.185
-607.186	-136.809	0.291	0.034
-606.171	-200.000	-0.043	-0.247
-605.157	12.294	-0.344	-0.267
-604.142	-137.438	0.093	-0.011
-603.128	-5.905	-0.359	-0.248
-602.113	-200.000	-0.003	0.132
-601.098	-50.190	-0.185	-0.088
-600.084	4.879	0.352	0.261
-599.069	-200.000	-0.025	-0.377
-598.055	-34.814	0.185	0.102
-597.040	800.000	0.140	-0.417
-596.025	-200.000	0.025	-0.237
-595.011	-194.164	0.266	-0.002
-593.996	56.159	0.043	-0.042
-592.982	-136.304	-0.182	0.021
-591.967	-42.831	0.485	0.249
-590.952	-112.526	-0.291	-0.059
-589.938	17.049	0.217	0.174
-588.923	-102.092	-0.194	0.047
-587.909	199.245	-0.139	-0.216
-586.894	565.395	0.071	-0.175
-585.879	-38.849	0.216	0.115
-584.865	-98.398	0.103	-0.027
-583.850	729.495	-0.034	-0.092
-582.836	23.397	-0.059	-0.049
-581.821	-47.242	-0.071	-0.035
-580.806	-94.378	-0.362	0.100
-579.792	-200.000	0.000	-0.041
-578.777	460.056	0.097	0.219
-577.763	480.746	0.110	-0.251
-576.748	234.134	-0.115	-0.192
-575.733	-167.810	-0.206	-0.008
-574.719	314.446	0.088	-0.167
-573.704	-86.831	-0.183	0.056
-572.690	5.477	-0.221	0.165
-571.675	83.346	0.147	0.162
-570.661	-200.000	0.008	0.246
-569.646	-15.809	-0.311	-0.199
-568.631	724.461	0.028	-0.076
-567.617	-81.816	-0.271	-0.089
-566.602	327.651	0.081	-0.156
-565.588	-120.967	-0.187	-0.032
-564.573	83.775	0.073	0.081
-563.558	790.067	0.040	0.110
-562.544	179.578	0.222	-0.328
-561.529	123.806	0.046	0.058
-560.515	-200.000	0.027	-0.185
-559.500	800.000	0.091	-0.271
-558.485	-200.000	-0.021	0.150
-557.471	-200.000	0.012	0.141
-556.456	48.499	-0.080	-0.076
-555.442	676.757	0.039	-0.101
-554.427	254.237	-0.022	0.038
-553.412	109.648	-0.289	0.348
-552.398	305.961	-0.041	-0.076
-551.383	-20.365	0.071	-0.044
-550.369	231.013	-0.070	-0.116
-549.354	-200.000	-0.064	0.382
-548.339	-26.078	-0.204	-0.121
-547.325	800.000	0.047	-0.153
-546.310	-75.037	-0.315	0.114
-545.296	98.289	-0.145	-0.168
-544.281	-136.895	0.229	0.026
-543.266	-41.035	0.056	-0.029
-542.252	-200.000	0.026	-0.144
-541.237	85.346	-0.219	0.242
-540.223	-19.429	0.180	0.112
-539.208	800.000	-0.069	-0.246
-538.193	46.490	-0.141	-0.131
-537.179	-97.875	0.107	-0.028
-536.164	34.758	0.258	0.227
-535.150	131.386	-0.147	0.190
-534.135	-200.000	0.016	-0.233
-533.121	36.971	-0.148	-0.132
-532.106	-73.485	0.279	-0.102
-531.091	-54.270	-0.208	0.095
-530.077	72.200	-0.064	-0.067
-529.062	29.026	-0.194	0.166
-528.048	-109.276	-0.138	-0.029
-527.033	-191.368	0.193	-0.002
-526.018	97.363	0.027	0.031
-525.004	-140.654	0.556	-0.058
-523.989	-200.000	0.025	-0.117
-522.975	105.654	-0.127	-0.151
-521.960	-101.097	0.114	-0.028
-520.945	-68.956	0.170	0.066
-519.931	70.995	0.080	-0.083
-518.916	12.761	0.100	0.077
-517.902	-134.137	-0.357	-0.044
-516.887	21.683	-0.154	-0.126
-515.872	341.393	0.188	-0.370
-514.858	-200.000	-0.074	0.540
-513.843	-56.218	0.196	-0.088
-512.829	-118.828	-0.085	0.015
-511.814	208.385	-0.143	0.225
-510.799	800.000	0.040	-0.175
-509.785	11.509	-0.308	0.238
-508.770	-60.883	-0.237	-0.101
-507.756	-98.710	0.165	0.042
-506.741	800.000	-0.077	0.248
-505.726	225.918	-0.086	-0.140
-504.712	661.472	0.155	-0.402
-503.697	267.280	-0.111	-0.196
-502.683	-200.000	0.078	-0.449
-501.668	228.586	0.071	-0.116
-500.653	-67.924	0.103	-0.041
-499.639	-110.614	0.193	0.040
-498.624	-106.970	0.120	-0.027
-497.610	-65.906	-0.233	-0.093
-496.595	5.003	-0.181	-0.134
-495.581	-17.162	-0.366	0.232
-494.566	1.796	0.142	-0.103
-493.551	617.278	-0.097	0.246
-492.537	252.594	0.163	0.279
-491.522	-93.892	0.322	0.089
-490.508	389.404	0.058	0.121
-489.493	-3.438	0.395	0.277
-488.478	-101.008	-0.302	0.074
-487.464	800.000	-0.043	-0.155
-486.449	-51.440	0.334	-0.157
-485.435	155.810	0.026	-0.036
-484.420	-14.642	0.228	0.147
-483.405	-57.897	0.163	0.071
-482.391	-129.332	-0.243	0.034
-481.376	182.133	-0.119	-0.177
-480.362	-127.539	0.092	0.013
-479.347	-200.000	-0.078	0.481
-478.332	-1.591	0.193	0.137
-477.318	34.030	-0.266	-0.233
-476.303	94.829	-0.406	-0.464
-475.289	-64.530	0.079	0.032
-474.274	800.000	0.073	-0.253
-473.259	800.000	-0.031	0.108
-472.245	-200.000	0.007	0.081
-471.230	104.281	-0.097	0.115
-470.216	110.387	-0.073	-0.088
-469.201	80.691	-0.089	-0.097
-468.186	800.000	-0.010	0.033
-467.172	-154.577	-0.153	0.010
-466.157	-50.657	-0.385	-0.182
-465.143	378.999	0.076	0.156
-464.128	-72.244	-0.228	0.085
-463.113	-72.726	-0.238	-0.088
-462.099	-78.831	-0.157	0.054
-461.084	-50.996	-0.187	-0.088
-460.070	-174.324	0.175	-0.005
-459.055	83.513	-0.062	0.067
-458.040	250.425	-0.042	-0.072
-457.026	-87.407	-0.204	0.062
-456.011	-82.036	0.343	-0.113
-454.997	166.048	0.051	-0.072
-453.982	134.437	0.106	0.137
-452.968	33.464	-0.313	0.273
-451.953	-159.185	-0.125	0.007
-450.938	-75.661	-0.179	-0.064
-449.924	-132.129	0.235	-0.031
-448.909	614.400	-0.092	-0.231
-447.895	-70.888	0.201	-0.076
-446.880	-45.892	-0.211	-0.104
-445.865	800.000	-0.016	0.058
-444.851	800.000	0.044	0.172
-443.836	459.431	0.063	0.140
-442.822	31.486	0.213	0.184
-441.807	-200.000	-0.013	0.198
-440.792	-48.464	0.388	0.188
-439.778	800.000	0.051	-0.149
-438.763	-200.000	0.077	0.366
-437.749	-138.361	0.175	-0.019
-436.734	-96.719	-0.188	0.050
-435.719	-192.218	-0.300	-0.003
-434.705	65.925	0.086	-0.088
-433.690	800.000	0.043	-0.187
-432.676	23.738	-0.116	0.096
-431.661	540.722	0.129	0.308
-430.646	209.551	-0.106	-0.166
-429.632	142.056	-0.131	-0.174
-428.617	-107.357	0.067	0.015
-427.603	109.038	-0.098	0.118
-426.588	168.886	0.149	-0.213
-425.573	377.071	0.079	0.161
-424.559	261.590	0.201	-0.348
-423.544	554.957	0.044	0.105
-422.530	-62.640	-0.112	0.046
-421.515	800.000	-0.129	0.361
-420.500	171.651	0.099	0.143
-419.486	-53.080	-0.261	-0.120
-418.471	-200.000	-0.020	0.120
-417.457	-34.653	-0.170	0.093
-416.442	800.000	0.039	-0.125
-415.428	-71.208	-0.155	-0.058
-414.413	-42.226	-0.237	-0.121
-413.398	-84.467	0.100	0.032
-412.384	-86.385	0.249	0.077
-411.369	-200.000	0.020	0.091
-410.355	376.363	0.143	0.293
-409.340	-200.000	0.042	0.274
-408.325	69.938	0.115	-0.119
-407.311	-51.192	-0.241	0.113
-406.296	-86.612	-0.112	0.034
-405.282	-200.000	0.006	0.073
-404.267	800.000	0.023	-0.076
-403.252	-79.971	-0.021	0.007
-402.238	10.065	-0.227	-0.173
-401.223	6.826	0.191	0.142
-400.209	42.534	0.045	0.041
-399.194	-32.880	-0.052	-0.029
-398.179	-17.079	0.101	0.064
-397.165	-100.703	0.301	-0.074
-396.150	800.000	0.018	-0.064
-395.136	800.000	-0.083	-0.238
-394.121	-61.870	-0.128	-0.054
-393.106	408.352	0.116	0.246
-392.092	684.546	-0.074	0.194
-391.077	-12.544	0.042	0.028
-390.063	-25.498	-0.116	0.069
-389.048	800.000	0.074	0.276
-388.033	244.791	-0.194	0.326
-387.019	80.479	-0.115	-0.124
-386.004	-200.000	0.001	-0.023
-384.990	-84.504	0.123	0.039
-383.975	582.051	-0.109	0.267
-382.960	-37.168	0.372	0.199
-381.946	759.660	0.072	0.195
-380.931	-200.000	-0.018	0.179
-379.917	232.368	0.098	0.162
-378.902	-51.221	0.030	0.014
-377.888	143.018	-0.097	-0.129
-376.873	-200.000	0.004	-0.048
-375.858	411.806	0.116	0.246
-374.844	246.997	0.231	-0.390
-373.829	136.099	0.213	-0.277
-372.815	160.738	0.140	-0.196
-371.800	-200.000	-0.014	0.398
-370.785	-200.000	0.013	-0.211
-369.771	-65.664	-0.260	0.104
-368.756	-75.031	-0.344	0.123
-367.742	-85.587	-0.261	-0.081
-366.727	105.004	0.104	0.123
-365.712	151.472	-0.030	0.040
-364.698	616.907	0.059	0.148
-363.683	129.011	0.218	0.278
-362.669	-63.867	0.184	-0.075
-361.654	800.000	0.049	0.202
-360.639	132.141	-0.237	0.305
-359.625	-52.530	0.126	-0.058
-358.610	-104.844	-0.219	0.050
-357.596	-105.953	-0.213	-0.048
-356.581	390.855	0.063	-0.131
-355.566	-28.423	0.016	-0.009
-354.552	-200.000	0.026	-0.159
-353.537	-7.719	0.430	-0.290
-352.523	800.000	-0.095	0.281
-351.508	145.482	-0.084	0.112
-350.493	-115.192	-0.126	-0.024
-349.479	-200.000	0.004	0.019
-348.464	162.757	0.183	-0.256
-347.450	-114.923	0.470	0.089
-346.435	-89.239	0.402	0.119
-345.420	131.449	-0.060	-0.077
-344.406	97.181	0.104	-0.120
-343.391	26.753	-0.061	-0.051
-342.377	258.318	-0.085	0.147
-341.362	-43.159	-0.160	0.081
-340.348	-128.835	-0.307	-0.043
-339.333	-9.578	-0.197	0.131
-338.318	-29.669	-0.190	0.109
-337.304	16.495	0.247	-0.195
-336.289	-200.000	-0.016	0.117
-335.275	262.114	0.140	0.243
-334.260	800.000	-0.077	-0.229
-333.245	272.092	0.094	0.165
-332.231	-183.057	-0.186	-0.003
-331.216	-55.570	-0.311	0.139
-330.202	-79.554	-0.165	-0.056
-329.187	-200.000	0.005	-0.347
-328.172	-33.579	0.354	-0.195
-327.158	-100.939	-0.141	-0.035
-326.143	249.858	-0.171	0.290
-325.129	-94.496	-0.190	-0.052
-324.114	28.294	-0.224	-0.189
-323.099	-97.207	-0.196	0.051
-322.085	-200.000	-0.034	-0.329
-321.070	800.000	0.032	0.116
-320.056	800.000	0.164	-0.475
-319.041	501.763	-0.047	0.108
-318.026	77.570	0.092	-0.098
-317.012	53.777	-0.152	-0.146
-315.997	-200.000	0.020	-0.114
-314.983	-200.000	0.027	-0.268
-313.968	-95.779	0.148	-0.039
-312.953	-4.995	-0.113	0.078
-311.939	-84.047	0.315	-0.100
-310.924	14.359	0.119	-0.093
-309.910	352.211	-0.096	-0.189
-308.895	-200.000	0.041	-0.211
-307.880	-200.000	0.000	0.151
-306.866	-113.754	0.047	-0.009
-305.851	-200.000	0.057	-0.434
-304.837	280.706	0.096	-0.171
-303.822	-200.000	-0.059	0.332
-302.807	-60.685	-0.084	0.035
-301.793	167.746	-0.153	-0.217
-300.778	317.878	-0.083	-0.156
-299.764	-143.360	-0.319	-0.030
-298.749	-83.547	0.015	0.005
-297.735	800.000	-0.134	-0.410
-296.720	-75.178	-0.087	0.031
-295.705	-20.544	0.252	0.155
-294.691	-200.000	-0.040	-0.316
-293.676	-83.547	-0.072	0.023
-292.662	-71.061	-0.088	0.033
-291.647	-66.890	-0.259	0.102
-290.632	-80.334	-0.334	0.111
-289.618	-28.316	0.479	-0.276
-288.603	408.884	0.186	-0.393
-287.589	-78.495	0.067	0.023
-286.574	-138.788	-0.118	-0.013
-285.559	-7.135	0.160	-0.108
-284.545	-23.998	-0.065	0.039
-283.530	300.105	0.012	0.021
-282.516	-23.095	0.280	0.168
-281.501	-4.366	-0.207	0.143
-280.486	-200.000	-0.044	0.348
-279.472	800.000	-0.046	0.194
-278.457	-180.725	0.162	0.003
-277.443	43.508	-0.213	-0.194
-276.428	-200.000	-0.012	0.143
-275.413	23.877	-0.048	0.040
-274.399	79.623	0.255	-0.273
-273.384	133.223	-0.137	0.177
-272.370	116.595	0.042	-0.051
-271.355	-108.195	0.210	0.045
-270.340	181.839	0.124	-0.182
-269.326	26.441	-0.065	-0.054
-268.311	-28.764	0.310	0.178
-267.297	-53.010	0.205	-0.094
-266.282	-115.127	0.251	0.048
-265.267	88.057	-0.052	0.058
-264.253	-164.448	-0.306	-0.014
-263.238	-91.249	0.057	-0.016
-262.224	-82.574	0.036	-0.012
-261.209	-200.000	-0.080	0.408
-260.195	-200.000	0.065	-0.343
-259.180	249.299	0.161	-0.272
-258.165	-5.711	0.349	-0.238
-257.151	592.000	0.069	-0.171
-256.136	194.449	-0.185	0.280
-255.122	-200.000	-0.034	-0.279
-254.107	-61.592	0.297	0.124
-253.092	-15.864	-0.328	-0.208
-252.078	356.950	-0.110	0.217
-251.063	-82.628	-0.142	-0.046
-250.049	-127.731	0.566	0.081
-249.034	-200.000	-0.054	0.273
-248.019	282.414	-0.033	0.059
-247.005	800.000	-0.013	0.057
-245.990	-4.665	-0.209	0.144
-244.976	-35.689	0.242	-0.131
-243.961	63.833	0.137	0.137
-242.946	-18.949	-0.308	0.191
-241.932	-54.147	-0.213	-0.096
-240.917	61.671	0.110	-0.109
-239.903	400.372	0.093	-0.195
-238.888	-200.000	-0.045	-0.244
-237.873	-200.000	0.042	0.418
-236.859	-116.672	-0.441	-0.081
-235.844	-22.866	0.218	-0.131
-234.830	-200.000	-0.004	0.148
-233.815	78.324	-0.006	-0.007
-232.800	800.000	0.087	0.257
-231.786	-200.000	0.034	0.281
-230.771	40.228	0.094	0.084
-229.757	-167.801	0.133	0.005
-228.742	-73.624	-0.261	-0.095
-227.727	139.183	0.103	-0.135
-226.713	223.859	0.084	0.135
-225.698	-115.123	0.222	-0.042
-224.684	29.346	0.376	-0.318
-223.669	-95.846	-0.172	-0.046
-222.655	-75.465	0.228	0.081
-221.640	-90.923	-0.195	-0.056
-220.625	152.145	0.102	0.138
-219.611	89.329	0.072	-0.080
-218.596	255.154	-0.128	-0.218
-217.582	-79.461	0.325	0.109
-216.567	-135.297	0.250	0.030
-215.552	16.956	0.145	-0.115
-214.538	-61.131	0.354	0.148
-213.523	26.179	0.045	-0.037
-212.509	299.323	0.094	-0.172
-211.494	376.987	-0.061	-0.124
-210.479	-138.040	0.337	0.037
-209.465	-200.000	-0.035	0.216
-208.450	304.159	0.059	0.108
-207.436	-0.683	0.238	-0.168
-206.421	738.232	0.078	0.207
-205.406	102.322	-0.129	0.149
-204.392	144.366	-0.093	0.124
-203.377	-60.536	0.059	0.025
-202.363	-200.000	0.011	0.325
-201.348	800.000	0.073	0.215
-200.333	800.000	0.067	-0.186
-199.319	305.313	0.036	0.067
-198.304	213.771	0.139	0.219
-197.290	520.214	-0.115	-0.268
-196.275	-46.930	-0.032	-0.015
-195.260	731.606	-0.097	-0.257
-194.246	800.000	-0.060	-0.228
-193.231	60.119	-0.223	0.219
-192.217	789.100	-0.031	-0.084
-191.202	800.000	-0.059	-0.211
-190.187	-1.863	0.239	-0.167
-189.173	211.856	0.162	0.253
-188.158	-200.000	-0.087	0.420
-187.144	-99.512	-0.159	-0.040
-186.129	-200.000	0.061	0.267
-185.114	-100.952	0.131	-0.032
-184.100	-138.579	0.156	-0.017
-183.085	13.344	-0.083	0.064
-182.071	-74.468	-0.303	0.108
-181.056	-102.883	0.209	0.049
-180.042	72.711	-0.175	0.182
-179.027	175.336	-0.038	0.054
-178.012	-177.913	-0.223	0.005
-176.998	-123.060	0.332	0.053
-175.983	57.430	-0.211	0.204
-174.969	-122.493	0.312	0.050
-173.954	-21.454	0.068	0.041
-172.939	2.936	-0.092	0.067
-171.925	53.788	-0.182	0.173
-170.910	-89.023	-0.196	-0.058
-169.896	466.968	-0.031	-0.069
-168.881	-27.979	-0.338	0.194
-167.866	800.000	-0.055	0.184
-166.852	-95.108	0.216	-0.058
-165.837	-7.410	0.137	0.092
-164.823	-200.000	-0.038	-0.290
-163.808	-15.670	0.301	-0.190
-162.793	10.286	-0.063	0.048
-161.779	676.734	0.059	-0.153
-160.764	800.000	-0.068	-0.225
-159.750	-188.793	0.077	-0.001
-158.735	246.054	-0.039	-0.065
-157.720	-200.000	-0.002	-0.366
-156.706	800.000	0.032	-0.128
-155.691	17.289	-0.161	0.127
-154.677	-43.017	-0.171	0.086
-153.662	93.646	0.115	-0.130
-152.647	-200.000	-0.008	-0.047
-151.633	-130.764	0.247	0.033
-150.618	171.026	-0.207	-0.294
-149.604	800.000	-0.070	-0.225
-148.589	385.037	0.121	0.248
-147.574	-46.153	0.358	0.175
-146.560	80.695	-0.341	-0.365
-145.545	147.664	0.093	0.125
-144.531	-6.185	0.130	0.088
-143.516	-92.829	-0.129	-0.036
-142.502	800.000	-0.032	-0.116
-141.487	-168.424	-0.393	0.015
-140.472	10.272	-0.068	-0.052
-139.458	16.934	0.225	0.177
-138.443	-32.069	0.104	-0.058
-137.429	-191.755	0.217	-0.002
-136.414	-200.000	-0.039	0.198
-135.399	-71.036	-0.253	-0.094
-134.385	43.200	-0.166	-0.150
-133.370	-92.019	-0.126	0.035
-132.356	-125.517	0.159	0.024
-131.341	0.911	-0.080	0.057
-130.326	-89.066	-0.235	0.069
-129.312	-41.390	-0.399	0.204
-128.297	-99.962	0.326	0.081
-127.283	800.000	-0.059	0.223
-126.268	-200.000	-0.026	0.128
-125.253	-200.000	-0.009	0.332
-124.239	-121.262	-0.323	-0.053
-123.224	-90.336	0.344	0.099
-122.210	-83.925	0.111	-0.035
-121.195	-33.151	-0.072	-0.040
-120.180	-15.965	0.182	-0.115
-119.166	-131.585	0.066	-0.009
-118.151	800.000	-0.047	0.176
-117.137	-99.849	-0.229	0.057
-116.122	800.000	-0.039	-0.149
-115.107	-24.656	0.178	-0.105
-114.093	-147.010	0.137	0.012
-113.078	-200.000	-0.047	0.281
-112.064	-143.540	0.110	-0.010
-111.049	-52.490	-0.025	-0.011
-110.034	-122.674	0.399	-0.064
-109.020	362.390	0.043	0.085
-108.005	-150.107	-0.188	0.014
-106.991	800.000	-0.074	0.287
-105.976	-57.455	0.193	0.084
-104.962	-115.599	0.253	-0.047
-103.947	-165.596	0.446	0.019
-102.932	3.753	-0.135	-0.098
-101.918	-200.000	-0.050	-0.262
-100.903	-200.000	-0.114	0.528
-99.889	-71.574	0.263	0.097
-98.874	-86.754	-0.239	-0.072
-97.859	-96.488	-0.157	-0.041
-96.845	-200.000	0.012	-0.271
-95.830	-197.661	0.313	-0.002
-94.816	-185.311	0.295	-0.004
-93.801	213.201	-0.104	-0.162
-92.786	4.634	0.176	-0.128
-91.772	-36.637	0.257	-0.137
-90.757	-132.229	-0.249	-0.032
-89.743	-81.101	0.394	0.129
-88.728	641.379	-0.068	0.172
-87.713	214.141	-0.284	0.445
-86.699	800.000	0.111	0.393
-85.684	-200.000	0.004	-0.136
-84.670	800.000	-0.094	-0.309
-83.655	-200.000	-0.004	0.066
-82.640	-74.128	-0.217	-0.078
-81.626	-200.000	0.003	-0.046
-80.611	-200.000	-0.017	-0.180
-79.597	11.056	-0.242	-0.183
-78.582	800.000	0.058	0.165
-77.567	-134.415	-0.203	-0.025
-76.553	-37.798	-0.067	0.035
-75.538	17.062	-0.153	0.120
-74.524	393.491	0.079	-0.162
-73.509	152.914	-0.070	0.094
-72.494	-200.000	-0.016	0.245
-71.480	-200.000	0.009	0.175
-70.465	29.305	0.340	0.286
-69.451	-200.000	-0.012	-0.082
-68.436	-200.000	-0.028	0.123
-67.422	-65.469	-0.181	0.072
-66.407	257.321	-0.131	0.223
-65.392	48.856	0.075	0.070
-64.378	255.828	0.134	0.227
-63.363	800.000	0.118	-0.359
-62.349	-15.820	-0.220	-0.139
-61.334	41.234	-0.663	-0.593
-60.319	297.958	0.366	0.664
-59.305	-200.000	-0.141	-0.990
-58.290	323.167	0.368	0.694
-57.276	699.817	0.659	1.715
-56.261	-200.000	96.041	548.013
-55.246	496.802	1425.725	3240.343
-54.232	144.258	2650.051	3494.566
-53.217	108.837	2243.879	2649.999
-52.203	44.233	1767.659	1602.470
-51.188	37.087	1576.425	1378.501
-50.173	34.774	1549.137	1338.408
-49.159	52.535	1599.240	1508.554
-48.144	55.078	1617.827	1544.147
-47.130	37.569	1573.595	1379.224
-46.115	34.464	1558.168	1343.812
-45.100	34.186	1554.618	1338.741
-44.086	34.255	1552.878	1337.676
-43.071	34.188	1551.057	1335.585
-42.057	34.192	1549.102	1333.877
-41.042	34.174	1548.101	1332.833
-40.027	34.146	1546.633	1331.324
-39.013	34.209	1544.955	1330.265
-37.998	34.177	1543.823	1329.015
-36.984	34.133	1542.917	1327.871
-35.969	34.138	1541.213	1326.391
-34.954	34.309	1539.083	1325.693
-33.940	34.139	1538.030	1323.549
-32.925	34.222	1535.980	1322.311
-31.911	34.192	1535.211	1321.391
-30.896	34.224	1534.085	1320.586
-29.881	34.186	1532.826	1319.192
-28.867	34.256	1530.722	1317.807
-27.852	34.241	1529.603	1316.691
-26.838	34.316	1528.282	1316.021
-25.823	34.269	1526.769	1314.343
-24.809	34.247	1525.051	1312.661
-23.794	34.238	1523.820	1311.486
-22.779	34.208	1522.518	1310.108
-21.765	34.235	1521.320	1309.207
-20.750	34.282	1520.229	1308.543
-19.736	34.197	1519.609	1307.369
-18.721	34.145	1518.344	1305.874
-17.706	34.295	1516.880	1305.594
-16.692	34.228	1516.134	1304.441
-15.677	34.031	1515.533	1302.518
-14.663	34.164	1513.904	1301.979
-13.648	34.161	1513.360	1301.440
-12.633	34.241	1512.284	1301.005
-11.619	34.060	1511.495	1299.041
-10.604	34.064	1510.701	1298.335
-9.590	34.169	1509.418	1297.898
-8.575	34.180	1508.824	1297.408
-7.560	34.195	1507.869	1296.641
-6.546	34.167	1506.828	1295.501
-5.531	34.086	1505.799	1294.013
-4.517	34.092	1504.701	1293.059
-3.502	34.070	1503.894	1292.165
-2.487	34.077	1502.775	1291.203
-1.473	34.062	1501.929	1290.323
-0.458	34.145	1500.640	1289.726
0.556	33.140	1491.143	1280.034
1.571	30.404	1464.760	1239.049
2.586	26.700	1400.660	1161.035
3.600	24.552	1314.247	1076.385
4.615	22.480	1266.403	1025.062
5.629	19.020	1207.736	958.248
6.644	9.797	1118.834	839.829
7.659	2.140	1074.155	767.837
8.673	0.734	1069.133	757.141
9.688	0.676	1065.769	754.404
10.702	0.579	1064.106	752.676
11.717	0.470	1062.961	751.258
12.731	3.378	1065.414	767.419
13.746	11.931	1077.754	819.175
14.761	17.613	1084.461	852.717
15.775	17.662	1082.882	851.644
16.790	16.977	1081.042	846.703
17.804	15.853	1079.195	839.579
18.819	15.024	1077.257	833.867
19.834	14.678	1075.777	830.925
20.848	14.246	1074.921	828.046
21.863	14.008	1074.048	826.115
22.877	13.631	1073.594	823.820
23.892	13.453	1072.385	821.933
24.907	13.469	1070.893	820.801
25.921	13.529	1069.970	820.315
26.936	13.395	1070.310	819.838
27.950	13.479	1069.478	819.547
28.965	13.533	1068.401	818.916
29.980	13.620	1067.317	818.440
30.994	13.585	1066.303	817.418
32.009	13.690	1065.468	817.226
33.023	13.698	1064.900	816.755
34.038	13.640	1064.323	815.953
35.053	13.616	1063.333	815.008
36.067	13.656	1062.447	814.449
37.082	13.599	1061.215	813.154
38.096	13.549	1061.034	812.699
39.111	13.735	1060.146	812.857
40.126	13.642	1059.508	811.842
41.140	13.514	1058.484	810.360
42.155	13.556	1057.255	809.553
43.169	13.349	1057.030	808.298
44.184	13.459	1055.407	807.521
45.199	13.408	1053.764	805.943
46.213	13.477	1053.458	805.973
47.228	13.443	1052.299	804.849
48.242	13.554	1051.024	804.343
49.257	13.526	1049.987	803.342
50.271	13.411	1049.555	802.385
51.286	13.540	1048.468	802.105
52.301	13.501	1047.527	801.127
53.315	13.560	1046.990	800.929
54.330	13.574	1045.419	799.724
55.344	13.447	1045.095	798.794
56.359	13.509	1043.909	798.118
57.374	13.537	1042.881	797.396
58.388	13.446	1042.583	796.660
59.403	13.342	1041.984	795.631
60.417	13.365	1041.378	795.206
61.432	13.402	1040.289	794.485
62.447	13.448	1039.453	793.993
63.461	13.337	1038.550	792.701
64.476	13.362	1037.486	791.940
65.490	13.323	1036.888	791.229
66.505	13.439	1035.619	790.743
67.520	13.419	1034.893	790.024
68.534	13.440	1034.512	789.761
69.549	13.404	1033.712	788.913
70.563	13.393	1033.125	788.339
71.578	13.343	1032.061	787.220
72.593	13.450	1031.157	786.972
73.607	13.287	1030.321	785.488
74.622	13.292	1029.409	784.747
75.636	13.288	1028.268	783.790
76.651	13.266	1027.807	783.264
77.666	13.335	1027.132	783.009
78.680	13.303	1026.102	782.004
79.695	13.404	1025.476	781.933
80.709	13.267	1024.779	780.683
81.724	13.455	1024.002	780.913
82.739	13.368	1023.257	779.863
83.753	13.441	1022.434	779.512
84.768	13.458	1021.934	779.142
85.782	13.659	1020.958	779.274
86.797	13.545	1020.080	778.000
87.812	13.621	1019.146	777.574
88.826	13.589	1018.715	777.026
89.841	13.578	1017.928	776.306
90.855	13.589	1016.647	775.311
91.870	13.558	1016.186	774.746
92.884	13.649	1015.183	774.335
93.899	13.585	1014.896	773.750
94.914	13.597	1014.195	773.202
95.928	13.743	1013.297	773.133
96.943	13.715	1012.255	772.139
97.957	13.691	1011.613	771.467
98.972	13.631	1010.478	770.256
99.987	13.555	1010.093	769.542
101.001	13.597	1009.347	769.099
102.016	13.602	1008.634	768.512
103.030	13.668	1007.325	767.753
104.045	13.605	1006.557	766.808
105.060	13.599	1005.708	766.064
106.074	13.528	1004.674	764.881
107.089	13.587	1003.655	764.309
108.103	13.598	1002.562	763.462
109.118	13.428	1001.897	762.102
110.133	13.564	1000.903	761.908
111.147	13.485	1000.564	761.215
112.162	13.503	999.248	760.234
113.176	13.499	998.833	759.830
114.191	13.487	997.292	758.537
115.206	13.446	996.813	757.916
116.220	13.558	995.877	757.652
117.235	13.574	994.826	756.857
118.249	13.610	994.210	756.487
119.264	13.601	993.065	755.506
120.279	13.492	992.451	754.477
121.293	13.473	991.731	753.777
122.308	13.551	990.981	753.493
123.322	13.468	989.893	752.222
124.337	13.519	989.130	751.806
125.352	13.616	987.916	751.258
126.366	13.501	987.022	749.990
127.381	13.417	986.083	748.831
128.395	13.423	985.113	748.053
129.410	13.628	983.940	748.026
130.424	13.579	983.362	747.297
131.439	13.518	982.360	746.196
132.454	13.583	981.363	745.664
133.468	13.506	981.038	745.004
134.483	13.515	980.211	744.352
135.497	13.527	979.173	743.550
136.512	13.711	978.070	743.471
137.527	13.578	977.371	742.279
138.541	13.622	976.936	742.078
139.556	13.696	976.075	741.692
140.570	13.592	975.487	740.713
141.585	13.525	974.608	739.680
142.600	13.694	973.673	739.659
143.614	13.728	972.803	739.087
144.629	13.689	972.332	738.488
145.643	13.722	971.383	737.851
146.658	13.686	970.562	737.000
147.673	13.774	969.278	736.352
148.687	13.631	968.718	735.225
149.702	13.755	967.609	734.868
150.716	13.581	967.014	733.582
151.731	13.659	966.068	733.147
152.746	13.553	965.524	732.198
153.760	13.681	964.782	732.137
154.775	13.756	963.536	731.458
155.789	13.835	962.827	731.201
156.804	13.830	962.222	730.657
157.819	13.670	961.568	729.392
158.833	13.652	961.294	729.037
159.848	13.878	960.216	729.148
160.862	13.766	959.858	728.322
161.877	13.816	958.711	727.607
162.892	13.925	957.733	727.276
163.906	13.780	957.130	726.120
164.921	13.778	956.440	725.525
165.935	13.785	955.272	724.604
166.950	13.725	954.635	723.796
167.964	13.724	953.594	722.939
168.979	13.760	952.671	722.330
169.994	13.673	951.492	720.993
171.008	13.789	950.336	720.557
172.023	13.702	949.607	719.566
173.037	13.844	949.079	719.715
174.052	13.886	948.139	719.123
175.067	13.997	947.235	718.851
176.081	13.736	946.947	717.443
177.096	13.787	945.864	716.777
178.110	13.697	945.386	715.964
179.125	13.813	944.197	715.501
180.140	13.843	943.537	715.066
181.154	13.882	943.102	714.840
182.169	13.876	942.627	714.392
183.183	13.957	941.802	714.053
184.198	14.082	940.644	713.647
185.213	14.084	940.286	713.322
186.227	14.077	939.365	712.527
187.242	14.061	939.352	712.388
188.256	14.208	938.017	711.943
189.271	14.095	937.535	711.030
190.286	14.119	937.113	710.748
191.300	14.064	935.631	709.327
192.315	13.948	935.211	708.451
193.329	13.934	934.470	707.768
194.344	13.936	934.200	707.509
195.359	13.977	933.678	707.227
196.373	14.084	933.033	707.131
197.388	14.021	932.682	706.532
198.402	14.119	931.773	706.197
199.417	14.198	931.504	706.265
200.432	14.137	930.895	705.482
201.446	14.258	930.287	705.472
202.461	14.233	930.408	705.399
203.475	14.244	929.862	704.969
204.490	14.302	928.739	704.297
205.504	14.297	928.172	703.788
206.519	14.293	927.124	702.912
207.534	14.292	926.616	702.462
208.548	14.274	925.869	701.754
209.563	14.252	924.840	700.821
210.577	14.323	924.281	700.635
211.592	14.281	923.834	700.055
212.607	14.385	923.219	699.966
213.621	14.328	922.688	699.262
214.636	14.449	921.922	699.127
215.650	14.426	921.273	698.475
216.665	14.413	920.663	697.897
217.680	14.467	920.102	697.635
218.694	14.479	919.179	696.925
219.709	14.508	919.080	696.912
220.723	14.569	918.263	696.482
221.738	14.592	917.430	695.885
222.753	14.561	916.981	695.354
223.767	14.544	915.904	694.404
224.782	14.646	915.148	694.196
225.796	14.600	914.570	693.503
226.811	14.633	913.727	692.939
227.826	14.695	913.268	692.790
228.840	14.729	912.115	691.991
229.855	14.686	911.790	691.508
230.869	14.625	911.378	690.881
231.884	14.639	910.640	690.317
232.899	14.599	909.687	689.372
233.913	14.609	909.197	688.978
234.928	14.676	908.417	688.605
235.942	14.653	907.499	687.750
236.957	14.539	906.776	686.674
237.972	14.607	906.334	686.559
238.986	14.607	905.855	686.134
240.001	14.614	905.013	685.463
241.015	14.600	904.410	684.889
242.030	14.778	903.670	684.999
243.045	14.702	903.469	684.474
244.059	14.864	902.348	684.226
245.074	14.820	901.942	683.680
246.088	14.873	901.040	683.153
247.103	14.780	900.498	682.299
248.117	14.856	899.574	681.849
249.132	14.857	899.180	681.494
250.147	14.906	898.863	681.396
251.161	15.078	897.901	681.303
252.176	14.948	897.514	680.421
253.190	15.061	896.665	680.176
254.205	15.227	895.890	680.201
255.220	15.148	895.436	679.479
256.234	15.032	894.916	678.551
257.249	15.149	893.937	678.226
258.263	15.216	893.653	678.221
259.278	15.170	893.101	677.556
260.293	15.310	892.536	677.633
261.307	15.247	891.910	676.841
262.322	15.327	891.291	676.634
263.336	15.296	890.621	675.941
264.351	15.423	890.248	676.109
265.366	15.363	889.566	675.290
266.380	15.352	889.115	674.846
267.395	15.287	888.209	673.837
268.409	15.292	887.581	673.320
269.424	15.339	886.682	672.769
270.439	15.370	886.127	672.412
271.453	15.283	885.486	671.519
272.468	15.393	884.768	671.354
273.482	15.325	883.998	670.437
274.497	15.362	883.627	670.244
275.512	15.439	882.637	669.742
276.526	15.311	882.165	668.814
277.541	15.299	881.335	668.077
278.555	15.367	880.441	667.611
279.570	15.454	879.966	667.540
280.585	15.564	879.687	667.705
281.599	15.588	878.906	667.147
282.614	15.452	878.595	666.312
283.628	15.564	877.651	665.984
284.643	15.511	876.987	665.209
285.657	15.545	876.693	665.064
286.672	15.687	876.106	665.120
287.687	15.686	875.796	664.821
288.701	15.626	875.260	664.120
289.716	15.807	874.416	664.135
290.730	15.658	874.028	663.194
291.745	15.642	873.455	662.636
292.760	15.578	872.997	661.978
293.774	15.556	871.814	660.938
294.789	15.808	871.260	661.448
295.803	15.703	871.000	660.781
296.818	15.784	869.939	660.233
297.833	15.815	869.561	660.012
298.847	15.668	868.951	658.914
299.862	15.802	868.409	658.968
300.876	15.710	867.502	657.864
301.891	15.823	866.671	657.616
302.906	15.878	866.083	657.326
303.920	15.812	865.664	656.693
304.935	15.793	865.078	656.115
305.949	15.894	864.431	655.959
306.964	15.890	863.788	655.397
307.979	15.905	862.953	654.764
308.993	16.003	862.398	654.667
310.008	16.012	861.936	654.293
311.022	15.947	861.871	653.935
312.037	16.099	861.205	653.960
313.052	16.028	860.496	653.089
314.066	15.907	860.099	652.262
315.081	16.000	859.255	651.925
316.095	15.890	858.782	651.080
317.110	15.983	857.935	650.742
318.125	15.975	857.577	650.383
319.139	16.025	857.454	650.421
320.154	15.949	856.840	649.607
321.168	16.209	855.821	649.779
322.183	16.104	855.301	648.920
323.197	16.198	854.652	648.734
324.212	16.148	854.264	648.189
325.227	16.160	853.701	647.752
326.241	16.034	853.202	646.830
327.256	16.147	852.533	646.699
328.270	16.171	851.987	646.320
329.285	16.096	851.482	645.593
330.300	16.257	850.773	645.616
331.314	16.145	850.484	644.909
332.329	16.223	849.611	644.488
333.343	16.183	849.219	643.983
334.358	16.324	848.793	644.138
335.373	16.301	848.049	643.429
336.387	16.381	847.666	643.389
337.402	16.329	847.077	642.684
338.416	16.315	846.468	642.115
339.431	16.436	845.619	641.871
340.446	16.308	845.473	641.219
341.460	16.520	844.545	641.263
342.475	16.494	844.084	640.757
343.489	16.517	843.398	640.267
344.504	16.562	843.102	640.157
345.519	16.563	842.572	639.700
346.533	16.632	841.668	639.216
347.548	16.715	841.060	639.014
348.562	16.461	841.061	637.998
349.577	16.462	840.430	637.467
350.592	16.484	839.819	637.029
351.606	16.439	839.617	636.652
352.621	16.572	838.881	636.538
353.635	16.456	838.338	635.631
354.650	16.379	838.414	635.344
355.665	16.670	837.385	635.602
356.679	16.681	837.045	635.326
357.694	16.641	836.665	634.835
358.708	16.644	835.986	634.274
359.723	16.644	835.313	633.707
360.738	16.670	834.767	633.332
361.752	16.647	834.398	632.910
362.767	16.739	833.761	632.717
363.781	16.751	833.533	632.533
364.796	16.755	833.530	632.488
365.810	16.930	832.212	632.086
366.825	16.918	832.149	631.934
367.840	16.971	831.722	631.752
368.854	16.846	831.596	631.136
369.869	16.972	830.826	630.963
370.883	16.853	830.380	630.127
371.898	16.876	829.859	629.764
372.913	16.952	828.813	629.196
373.927	17.062	828.705	629.464
374.942	16.858	827.821	627.982
375.956	16.917	827.392	627.821
376.971	16.983	826.671	627.459
377.986	17.045	825.928	627.071
379.000	16.964	825.722	626.561
380.015	17.021	825.608	626.628
381.029	17.154	824.634	626.325
382.044	17.040	824.276	625.576
383.059	17.050	823.569	625.023
384.073	17.065	823.180	624.726
385.088	17.125	822.534	624.401
386.102	17.164	821.716	623.867
387.117	17.165	821.528	623.675
388.132	17.197	820.943	623.292
389.146	17.263	820.609	623.223
390.161	17.174	820.389	622.677
391.175	17.104	819.924	622.013
392.190	17.201	819.506	621.993
393.205	17.195	819.009	621.541
394.219	17.174	818.689	621.167
395.234	17.284	818.014	621.000
396.248	17.298	817.374	620.512
397.263	17.316	816.709	620.016
398.278	17.252	816.429	619.515
399.292	17.197	816.147	619.048
400.307	17.135	816.005	618.660
401.321	17.103	815.232	617.901
402.336	17.298	815.191	618.524
403.350	17.230	814.842	617.958
404.365	17.266	814.196	617.543
405.380	17.348	813.423	617.201
406.394	17.379	813.083	617.001
407.409	17.525	812.337	616.910
408.423	17.416	812.123	616.296
409.438	17.397	811.909	616.012
410.453	17.412	811.680	615.837
411.467	17.501	811.084	615.653
412.482	17.602	810.315	615.380
413.496	17.529	809.827	614.693
414.511	17.545	809.589	614.514
415.526	17.553	809.085	614.107
416.540	17.565	808.758	613.849
417.555	17.733	808.067	613.872
418.569	17.843	807.419	613.721
419.584	17.679	807.183	612.901
420.599	17.706	806.963	612.774
421.613	104.798	1285.830	1446.534
422.628	90.226	1355.579	1446.655
