DTS Sentinel unit serial number:	SN413079Multiplexer serial number:	ORYXHardware model number:	OX4-SRSoftware version number:	ORYX F/W v4.00 Oryx Data Collector v3.7.2.0data status	okinstallation	princeton_trtdifferential loss correction	single-endedforward channel	channel 3reverse channel	N/Adate	2019/09/14time	10:12:35forward acquisition time	60.00reverse acquisition time	0.00gamma	496.2192k internal	0.2310k external	0.2310temperature offset calibration	1.0051default loss term (dB/km)	0.3790temperature slope calibration	1.0000multiplexer offset coefficient	1.0000multiplexer slope coefficient	1.0000fibre end	0.00T internal ref (°C)	33.78T ext. ref 1 (°C)	4.07T ext. ref 2 (°C)	32.16length (m)	temperature (°C)	Stokes	anti-Stokes-747.200	800.000	-0.055	-0.230
-746.185	69.888	0.022	0.023
-745.171	25.481	0.197	0.166
-744.156	800.000	-0.046	0.131
-743.142	-61.150	-0.203	0.087
-742.127	800.000	-0.070	0.302
-741.112	-100.372	-0.047	0.012
-740.098	359.434	-0.093	0.189
-739.083	-118.293	0.092	0.017
-738.069	124.015	0.061	-0.078
-737.054	800.000	-0.124	0.387
-736.039	12.984	-0.159	0.125
-735.025	-9.805	-0.096	0.065
-734.010	59.159	-0.102	0.102
-732.996	-68.450	-0.276	-0.109
-731.981	52.819	-0.164	0.159
-730.966	72.094	-0.065	-0.069
-729.952	800.000	-0.082	0.263
-728.937	2.219	-0.304	-0.223
-727.923	254.094	-0.122	-0.211
-726.908	-99.908	-0.373	0.095
-725.894	-145.710	-0.093	0.008
-724.879	-68.394	-0.367	-0.145
-723.864	433.631	-0.074	0.164
-722.850	-200.000	-0.013	0.058
-721.835	641.355	-0.029	0.076
-720.821	-87.758	0.140	-0.043
-719.806	178.185	-0.178	0.264
-718.791	-200.000	0.014	-0.417
-717.777	186.499	-0.153	-0.231
-716.762	-200.000	-0.032	0.213
-715.748	1.208	-0.087	0.063
-714.733	-86.970	-0.318	0.098
-713.718	51.542	-0.224	-0.216
-712.704	18.453	-0.172	-0.139
-711.689	-10.466	0.191	-0.128
-710.675	-130.721	0.090	-0.012
-709.660	275.736	0.223	0.401
-708.645	374.316	0.102	0.210
-707.631	-2.297	-0.197	0.140
-706.616	-128.182	-0.220	-0.032
-705.602	-9.986	0.201	-0.136
-704.587	29.215	-0.227	-0.196
-703.572	-80.976	0.145	0.049
-702.558	208.832	0.056	0.089
-701.543	31.652	0.248	-0.216
-700.529	154.659	-0.091	-0.127
-699.514	-123.141	0.149	0.024
-698.499	4.143	-0.113	-0.084
-697.485	63.964	0.057	-0.058
-696.470	-178.150	-0.231	-0.006
-695.456	-186.613	-0.442	0.006
-694.441	-104.963	0.180	-0.042
-693.426	167.581	0.184	-0.264
-692.412	-200.000	0.048	-0.487
-691.397	-118.028	0.520	-0.094
-690.383	-90.715	-0.284	0.083
-689.368	-200.000	-0.067	0.407
-688.354	34.068	0.039	0.035
-687.339	211.497	0.137	-0.219
-686.324	-166.433	-0.226	0.010
-685.310	-35.690	0.216	0.119
-684.295	-200.000	0.002	0.080
-683.281	413.529	-0.102	-0.219
-682.266	-21.215	0.063	-0.039
-681.251	46.632	-0.148	0.140
-680.237	-200.000	0.045	0.224
-679.222	30.661	-0.202	-0.175
-678.208	-35.581	-0.228	-0.126
-677.193	-183.387	0.057	0.001
-676.178	-30.894	-0.293	0.168
-675.164	252.398	-0.037	-0.063
-674.149	14.269	0.119	-0.094
-673.135	-200.000	0.015	0.137
-672.120	-200.000	-0.085	0.395
-671.105	339.110	0.059	0.116
-670.091	-200.000	0.014	-0.242
-669.076	-117.227	0.320	0.059
-668.062	-200.000	0.027	0.205
-667.047	59.985	-0.190	0.190
-666.032	140.543	-0.202	0.270
-665.018	-200.000	0.006	-0.045
-664.003	-200.000	0.001	-0.098
-662.989	-120.252	-0.059	0.010
-661.974	-174.565	0.130	-0.004
-660.959	-55.530	-0.213	-0.096
-659.945	-40.467	0.046	-0.024
-658.930	-87.012	-0.170	-0.053
-657.916	-20.037	-0.106	-0.066
-656.901	39.474	0.183	0.166
-655.886	195.767	-0.059	-0.091
-654.872	-200.000	-0.010	0.214
-653.857	138.714	0.087	-0.116
-652.843	-99.689	-0.186	0.047
-651.828	95.301	-0.250	-0.289
-650.814	-140.152	-0.244	-0.026
-649.799	-200.000	0.025	-0.134
-648.784	27.885	-0.084	0.072
-647.770	-140.950	-0.154	0.016
-646.755	800.000	-0.061	0.216
-645.741	797.833	0.153	0.426
-644.726	156.937	0.095	0.132
-643.711	623.566	-0.049	-0.124
-642.697	179.591	-0.264	0.391
-641.682	108.198	0.101	0.122
-640.668	-200.000	-0.005	0.040
-639.653	-200.000	0.017	0.116
-638.638	-21.354	0.260	-0.161
-637.624	-1.374	-0.292	-0.208
-636.609	-108.721	-0.270	-0.059
-635.595	467.181	-0.052	-0.117
-634.580	-105.640	-0.324	-0.074
-633.565	-200.000	-0.058	-0.278
-632.551	373.405	0.064	0.131
-631.536	-55.974	0.289	0.130
-630.522	-114.132	0.159	-0.031
-629.507	-36.104	-0.107	0.059
-628.492	-108.028	0.426	0.094
-627.478	-200.000	0.094	0.431
-626.463	800.000	0.068	0.207
-625.449	-24.971	-0.175	-0.105
-624.434	-200.000	0.013	-0.085
-623.419	607.462	-0.108	-0.274
-622.405	-200.000	-0.065	-0.413
-621.390	76.416	0.160	-0.172
-620.376	694.320	0.075	0.198
-619.361	33.848	0.228	0.200
-618.346	-27.749	0.363	0.213
-617.332	-143.593	-0.147	-0.014
-616.317	-172.422	0.249	0.008
-615.303	800.000	0.032	0.104
-614.288	-200.000	-0.038	-0.190
-613.273	376.731	-0.043	-0.089
-612.259	170.540	0.145	0.209
-611.244	40.111	0.245	0.223
-610.230	-46.809	-0.220	-0.109
-609.215	-90.722	0.112	-0.033
-608.201	-200.000	0.088	-0.411
-607.186	-69.352	-0.330	-0.128
-606.171	265.150	-0.058	-0.102
-605.157	245.238	-0.148	-0.252
-604.142	558.912	-0.084	0.206
-603.128	103.077	0.113	-0.134
-602.113	-36.313	0.191	-0.104
-601.098	-79.522	-0.204	-0.070
-600.084	-8.136	0.306	-0.208
-599.069	-37.987	-0.291	-0.156
-598.055	-200.000	-0.019	-0.246
-597.040	-77.493	0.220	0.077
-596.025	-200.000	-0.051	0.249
-595.011	285.678	0.122	0.222
-593.996	-200.000	-0.015	-0.199
-592.982	-200.000	0.063	-0.431
-591.967	-107.161	-0.307	0.068
-590.952	-44.969	0.024	0.012
-589.938	-49.059	-0.171	-0.083
-588.923	102.742	0.192	0.227
-587.909	-17.817	-0.083	-0.053
-586.894	-175.824	0.216	-0.006
-585.879	136.062	0.023	-0.031
-584.865	800.000	0.060	0.188
-583.850	52.705	-0.161	0.155
-582.836	-169.880	-0.478	0.017
-581.821	-200.000	0.016	0.110
-580.806	-200.000	-0.015	0.086
-579.792	-82.483	-0.179	0.059
-578.777	-113.747	0.326	0.064
-577.763	-200.000	0.018	0.234
-576.748	-167.457	0.138	0.006
-575.733	-200.000	0.002	0.173
-574.719	800.000	-0.138	-0.412
-573.704	-107.060	-0.292	0.065
-572.690	348.816	-0.052	0.104
-571.675	-8.967	0.220	0.149
-570.661	3.844	0.336	-0.248
-569.646	72.616	-0.201	-0.211
-568.631	-95.352	-0.170	0.046
-567.617	405.029	0.071	0.151
-566.602	332.636	-0.047	0.091
-565.588	-157.342	-0.283	-0.017
-564.573	399.682	-0.125	0.264
-563.558	-200.000	0.014	0.155
-562.544	-62.154	0.127	-0.053
-561.529	671.190	-0.113	-0.296
-560.515	-71.855	0.260	-0.098
-559.500	-55.638	-0.265	-0.120
-558.485	800.000	-0.020	-0.073
-557.471	-200.000	-0.012	-0.294
-556.456	-73.291	-0.250	0.092
-555.442	14.182	-0.211	0.166
-554.427	-200.000	0.005	0.125
-553.412	-187.476	-0.189	-0.003
-552.398	-90.111	-0.175	-0.051
-551.383	-140.357	-0.219	-0.023
-550.369	-200.000	0.011	0.065
-549.354	200.167	-0.248	0.384
-548.339	139.830	-0.151	0.201
-547.325	526.222	-0.058	0.138
-546.310	-102.681	0.172	0.041
-545.296	-37.346	0.154	-0.083
-544.281	-182.570	-0.212	-0.004
-543.266	-37.126	0.050	-0.027
-542.252	-42.229	0.100	-0.052
-541.237	450.684	0.093	0.208
-540.223	25.599	-0.157	0.132
-539.208	-94.905	0.110	-0.030
-538.193	-14.886	0.224	-0.145
-537.179	-73.962	0.204	0.074
-536.164	63.794	-0.197	0.199
-535.150	-32.256	0.258	-0.145
-534.135	315.225	0.153	0.291
-533.121	58.292	-0.073	-0.072
-532.106	50.565	-0.146	-0.139
-531.091	64.239	-0.292	0.296
-530.077	-200.000	-0.017	-0.092
-529.062	-105.323	-0.402	0.092
-528.048	800.000	0.035	0.141
-527.033	144.934	0.125	0.168
-526.018	-155.068	-0.165	-0.011
-525.004	800.000	0.056	-0.158
-523.989	-170.913	-0.111	0.004
-522.975	115.543	-0.062	0.076
-521.960	-33.336	0.109	0.061
-520.945	60.411	-0.283	0.282
-519.931	101.275	0.085	-0.100
-518.916	-138.043	-0.074	-0.008
-517.902	-80.905	0.147	0.049
-516.887	254.893	0.133	0.229
-515.872	-200.000	-0.016	0.318
-514.858	20.855	0.046	0.037
-513.843	-200.000	0.002	0.041
-512.829	-142.813	-0.076	-0.007
-511.814	37.813	-0.189	-0.169
-510.799	-53.528	-0.280	0.129
-509.785	800.000	-0.096	0.300
-508.770	704.402	0.105	-0.279
-507.756	-93.175	0.298	0.083
-506.741	-137.434	-0.282	-0.032
-505.726	78.075	0.118	0.126
-504.712	122.827	0.160	0.201
-503.697	-200.000	-0.050	0.241
-502.683	147.982	-0.089	-0.121
-501.668	-186.723	0.143	0.002
-500.653	800.000	0.024	-0.084
-499.639	-200.000	-0.028	0.432
-498.624	800.000	0.038	0.129
-497.610	-24.778	0.120	-0.072
-496.595	-55.380	-0.352	0.159
-495.581	800.000	-0.039	-0.114
-494.566	800.000	-0.039	-0.113
-493.551	-200.000	0.009	0.540
-492.537	158.173	-0.144	0.202
-491.522	800.000	0.023	0.082
-490.508	-200.000	0.048	-0.479
-489.493	59.731	-0.081	-0.081
-488.478	-200.000	0.030	0.402
-487.464	201.486	-0.049	-0.076
-486.449	-61.138	0.214	0.091
-485.435	-200.000	0.241	-0.001
-484.420	-200.000	-0.002	0.172
-483.405	334.563	0.091	-0.178
-482.391	83.342	-0.201	-0.220
-481.376	232.493	0.033	-0.055
-480.362	-200.000	0.007	0.096
-479.347	779.566	0.115	0.315
-478.332	-125.008	-0.229	-0.035
-477.318	699.556	0.076	-0.200
-476.303	-200.000	-0.024	-0.248
-475.289	474.132	-0.035	-0.078
-474.274	462.952	0.160	0.359
-473.259	-96.468	-0.149	0.040
-472.245	192.262	-0.165	0.250
-471.230	-200.000	-0.000	0.172
-470.216	64.371	0.099	0.100
-469.201	800.000	-0.017	0.066
-468.186	269.977	-0.128	0.227
-467.172	-200.000	-0.028	0.146
-466.157	-29.163	0.276	-0.159
-465.143	284.802	0.056	-0.102
-464.128	-112.156	0.337	-0.068
-463.113	800.000	0.073	0.288
-462.099	347.108	0.155	-0.306
-461.084	22.891	0.187	-0.154
-460.070	635.463	-0.076	-0.193
-459.055	-181.873	-0.289	-0.006
-458.040	-105.539	-0.369	0.084
-457.026	257.420	-0.125	0.215
-456.011	218.830	0.119	-0.192
-454.997	-71.513	0.253	0.095
-453.982	74.219	0.269	0.284
-452.968	-200.000	0.046	0.221
-451.953	-168.521	0.202	-0.008
-450.938	800.000	-0.074	0.228
-449.924	800.000	0.059	0.222
-448.909	-86.769	0.098	0.030
-447.895	-79.261	0.282	-0.096
-446.880	87.543	0.149	-0.165
-445.865	75.082	-0.089	-0.094
-444.851	-20.886	-0.263	0.162
-443.836	-45.939	-0.030	-0.015
-442.822	-200.000	0.026	0.132
-441.807	-200.000	-0.034	-0.203
-440.792	145.025	0.281	-0.378
-439.778	-131.407	0.411	-0.055
-438.763	-72.909	0.037	0.014
-437.749	800.000	0.053	-0.205
-436.734	-20.404	-0.287	0.177
-435.719	-200.000	-0.010	0.182
-434.705	22.510	-0.220	-0.181
-433.690	-97.476	0.096	-0.025
-432.676	100.168	0.172	-0.200
-431.661	328.300	0.023	-0.044
-430.646	-200.000	-0.007	-0.123
-429.632	-6.707	0.031	0.021
-428.617	-124.532	-0.207	-0.032
-427.603	15.594	-0.265	-0.209
-426.588	-200.000	-0.035	-0.227
-425.573	100.015	-0.086	-0.101
-424.559	800.000	-0.034	0.150
-423.544	800.000	0.103	-0.433
-422.530	800.000	0.049	-0.159
-421.515	-136.217	-0.165	-0.019
-420.500	-24.795	0.152	0.091
-419.486	-33.942	-0.242	-0.134
-418.471	76.421	0.165	-0.176
-417.457	-200.000	-0.035	-0.188
-416.442	37.043	0.225	-0.200
-415.428	-200.000	-0.034	-0.323
-414.413	-47.958	0.324	0.157
-413.398	-59.340	0.046	-0.020
-412.384	222.638	0.209	-0.337
-411.369	-20.783	-0.178	0.109
-410.355	61.270	-0.198	-0.197
-409.340	-84.466	0.131	0.041
-408.325	38.263	-0.216	-0.193
-407.311	800.000	-0.057	-0.197
-406.296	-88.834	-0.096	-0.029
-405.282	-200.000	-0.001	-0.074
-404.267	-28.132	0.033	0.019
-403.252	-107.119	-0.271	0.060
-402.238	800.000	0.127	0.368
-401.223	-200.000	0.008	0.102
-400.209	59.408	0.022	0.021
-399.194	738.784	0.035	-0.094
-398.179	-43.821	0.538	-0.271
-397.165	-57.287	0.351	-0.155
-396.150	-79.458	-0.287	-0.097
-395.136	-160.933	-0.175	-0.009
-394.121	800.000	-0.004	-0.015
-393.106	-200.000	-0.020	-0.096
-392.092	498.790	-0.013	-0.029
-391.077	-106.851	0.358	0.079
-390.063	31.987	0.156	0.135
-389.048	-44.646	0.143	-0.072
-388.033	-200.000	0.019	-0.132
-387.019	-82.573	-0.217	0.071
-386.004	-56.217	-0.222	-0.099
-384.990	22.146	0.300	0.245
-383.975	767.806	-0.087	-0.236
-382.960	5.278	-0.019	-0.014
-381.946	-101.387	-0.168	0.041
-380.931	800.000	0.110	0.307
-379.917	119.190	0.131	-0.162
-378.902	8.181	-0.280	0.211
-377.888	-37.097	-0.154	-0.083
-376.873	161.846	0.120	0.168
-375.858	-81.537	-0.066	-0.022
-374.844	-65.555	-0.124	0.050
-373.829	-9.633	0.086	0.057
-372.815	-8.524	0.152	0.102
-371.800	-200.000	-0.020	0.157
-370.785	26.037	-0.148	-0.124
-369.771	161.347	0.131	0.183
-368.756	-144.468	0.141	-0.013
-367.742	-55.497	0.416	0.187
-366.727	-200.000	-0.016	0.343
-365.712	245.997	0.103	-0.174
-364.698	150.253	-0.114	0.155
-363.683	-51.934	0.302	0.140
-362.669	-200.000	-0.009	0.196
-361.654	70.804	-0.156	-0.162
-360.639	-196.471	-0.127	0.001
-359.625	-96.313	-0.264	-0.070
-358.610	324.977	-0.078	-0.150
-357.596	36.810	-0.235	0.208
-356.581	58.212	-0.095	0.093
-355.566	199.593	-0.190	0.291
-354.552	-110.193	0.281	0.059
-353.537	236.628	0.126	-0.209
-352.523	593.438	0.165	-0.409
-351.508	-132.047	0.212	-0.028
-350.493	-200.000	0.006	0.125
-349.479	-17.401	0.207	0.130
-348.464	96.739	-0.137	-0.157
-347.450	-200.000	0.007	-0.337
-346.435	-200.000	-0.034	-0.251
-345.420	-50.370	0.121	0.057
-344.406	-24.609	-0.111	0.066
-343.391	93.711	0.159	0.180
-342.377	-97.665	0.124	0.032
-341.362	800.000	-0.036	0.108
-340.348	12.878	-0.078	-0.060
-339.333	52.299	-0.313	-0.299
-338.318	89.147	0.035	0.039
-337.304	2.463	-0.225	0.163
-336.289	71.441	-0.163	0.170
-335.275	108.755	0.328	0.392
-334.260	800.000	-0.090	-0.249
-333.245	800.000	-0.057	-0.168
-332.231	-56.258	-0.424	0.188
-331.216	-200.000	-0.009	0.187
-330.202	17.163	-0.272	-0.216
-329.187	-200.000	0.032	-0.188
-328.172	800.000	0.031	-0.117
-327.158	68.741	0.236	-0.242
-326.143	800.000	0.053	-0.203
-325.129	-61.257	-0.132	0.056
-324.114	-108.942	0.260	-0.055
-323.099	461.663	0.108	-0.241
-322.085	-50.618	-0.195	-0.092
-321.070	132.927	0.118	-0.152
-320.056	-200.000	0.019	-0.232
-319.041	-200.000	0.033	0.180
-318.026	-83.828	-0.062	0.020
-317.012	7.511	-0.161	-0.120
-315.997	-36.678	-0.206	-0.111
-314.983	-200.000	0.029	-0.214
-313.968	-103.215	0.344	-0.081
-312.953	-122.142	-0.055	-0.009
-311.939	-148.432	0.334	-0.027
-310.924	-200.000	0.005	0.267
-309.910	-50.860	0.087	0.041
-308.895	800.000	-0.119	-0.389
-307.880	-200.000	0.047	-0.264
-306.866	800.000	0.100	0.288
-305.851	57.638	-0.133	0.129
-304.837	-200.000	0.080	-0.446
-303.822	-7.144	-0.131	-0.088
-302.807	10.980	-0.121	-0.092
-301.793	-25.688	0.230	-0.135
-300.778	453.960	-0.137	-0.303
-299.764	-200.000	0.003	0.220
-298.749	160.354	0.202	0.282
-297.735	140.969	0.234	0.309
-296.720	4.660	0.075	-0.055
-295.705	800.000	0.008	-0.035
-294.691	220.078	-0.124	0.199
-293.676	-79.461	0.131	0.044
-292.662	-46.058	0.217	0.107
-291.647	67.665	-0.073	0.074
-290.632	-72.206	-0.119	-0.044
-289.618	-61.285	0.433	0.182
-288.603	218.558	-0.029	-0.047
-287.589	-200.000	-0.071	0.378
-286.574	371.510	-0.026	-0.053
-285.559	800.000	-0.123	-0.422
-284.545	440.418	-0.070	-0.153
-283.530	-41.598	0.231	-0.119
-282.516	-72.683	-0.094	0.035
-281.501	-104.599	0.204	0.047
-280.486	-32.451	-0.233	-0.129
-279.472	-26.893	0.125	0.073
-278.457	-200.000	-0.008	0.299
-277.443	-47.684	-0.277	0.134
-276.428	-148.982	-0.122	-0.010
-275.413	180.331	-0.082	0.120
-274.399	-111.556	-0.545	-0.110
-273.384	-108.428	0.374	-0.080
-272.370	-200.000	-0.007	0.330
-271.355	-160.114	-0.414	-0.022
-270.340	78.244	-0.247	0.263
-269.326	-30.385	0.315	-0.178
-268.311	-94.248	-0.094	-0.026
-267.297	622.290	0.036	-0.090
-266.282	17.494	0.153	-0.121
-265.267	236.849	0.066	-0.109
-264.253	205.265	0.216	-0.335
-263.238	-115.854	-0.053	-0.010
-262.224	-128.829	0.186	0.026
-261.209	-7.510	0.186	-0.125
-260.195	-62.492	0.041	0.017
-259.180	382.351	-0.197	0.404
-258.165	1.972	0.168	-0.120
-257.151	-200.000	0.024	0.225
-256.136	-38.864	0.160	-0.084
-255.122	-14.958	0.112	0.072
-254.107	800.000	0.094	-0.327
-253.092	800.000	0.054	-0.204
-252.078	-200.000	-0.048	0.377
-251.063	-136.412	-0.361	-0.042
-250.049	-84.756	-0.430	0.135
-249.034	-85.843	0.131	0.040
-248.019	-200.000	-0.024	-0.156
-247.005	165.231	0.164	-0.230
-245.990	15.798	-0.039	0.031
-244.976	194.318	-0.037	0.056
-243.961	64.500	0.148	-0.149
-242.946	76.261	-0.178	0.188
-241.932	-200.000	0.010	-0.443
-240.917	-67.386	0.350	-0.137
-239.903	32.846	-0.184	0.158
-238.888	-200.000	-0.008	0.139
-237.873	-108.129	0.075	0.016
-236.859	-182.030	0.140	0.003
-235.844	-200.000	-0.003	0.068
-234.830	-107.301	0.251	-0.055
-233.815	-200.000	0.066	-0.354
-232.800	-200.000	-0.010	-0.203
-231.786	-169.494	0.075	-0.003
-230.771	-200.000	-0.044	-0.327
-229.757	-88.179	-0.098	0.029
-228.742	-200.000	-0.030	0.247
-227.727	-65.540	0.102	-0.041
-226.713	5.330	-0.085	0.062
-225.698	-23.512	-0.128	-0.076
-224.684	-200.000	-0.192	-0.001
-223.669	-32.673	0.177	0.098
-222.655	-111.878	0.351	-0.071
-221.640	0.576	0.193	0.137
-220.625	-34.046	-0.226	-0.124
-219.611	-200.000	-0.017	0.240
-218.596	256.062	-0.121	0.207
-217.582	-200.000	0.040	-0.194
-216.567	-107.921	0.176	-0.038
-215.552	-200.000	-0.013	0.106
-214.538	800.000	0.073	0.225
-213.523	-171.959	-0.242	0.008
-212.509	-86.855	0.230	-0.070
-211.494	-14.536	-0.394	-0.252
-210.479	-82.118	0.175	-0.057
-209.465	800.000	-0.029	0.104
-208.450	-200.000	0.000	0.341
-207.436	737.158	-0.109	-0.291
-206.421	-200.000	0.072	-0.376
-205.406	216.850	-0.113	-0.179
-204.392	-200.000	0.037	-0.175
-203.377	-200.000	-0.089	-0.390
-202.363	254.455	-0.104	0.176
-201.348	23.437	-0.189	0.155
-200.333	-78.348	0.145	0.049
-199.319	-113.278	-0.178	-0.035
-198.304	-200.000	-0.025	0.148
-197.290	-149.015	0.217	-0.017
-196.275	326.315	0.088	-0.168
-195.260	-200.000	-0.039	0.461
-194.246	-200.000	-0.022	0.151
-193.231	-25.119	0.084	-0.050
-192.217	-101.812	0.210	0.051
-191.202	-200.000	-0.022	-0.145
-190.187	318.415	-0.070	0.132
-189.173	22.537	-0.183	-0.148
-188.158	-121.733	0.156	0.026
-187.144	720.852	0.057	0.150
-186.129	-87.531	-0.247	-0.074
-185.114	485.436	-0.050	0.113
-184.100	124.372	-0.052	-0.065
-183.085	-127.806	-0.139	-0.020
-182.071	-163.972	-0.395	-0.018
-181.056	103.655	0.088	0.103
-180.042	2.297	0.161	0.116
-179.027	204.200	-0.161	-0.247
-178.012	269.582	0.051	-0.089
-176.998	528.904	0.041	-0.096
-175.983	-76.145	-0.141	-0.049
-174.969	-101.571	0.350	-0.084
-173.954	-43.482	0.441	-0.221
-172.939	800.000	0.082	0.326
-171.925	-79.321	-0.166	-0.056
-170.910	-200.000	0.029	0.230
-169.896	800.000	0.129	0.498
-168.881	-200.000	0.006	0.223
-167.866	16.189	-0.228	-0.178
-166.852	-200.000	0.000	-0.366
-165.837	-200.000	-0.017	-0.110
-164.823	-113.008	0.135	-0.026
-163.808	332.361	-0.036	-0.070
-162.793	800.000	0.102	0.387
-161.779	800.000	-0.077	-0.267
-160.764	221.822	-0.137	-0.218
-159.750	-45.033	-0.107	0.053
-158.735	-161.976	-0.170	-0.008
-157.720	377.763	-0.054	-0.109
-156.706	-200.000	0.005	0.116
-155.691	-61.418	-0.107	0.044
-154.677	58.689	-0.149	-0.145
-153.662	-84.829	0.229	-0.071
-152.647	343.070	-0.093	0.181
-151.633	-200.000	-0.017	-0.238
-150.618	800.000	-0.115	0.344
-149.604	-179.401	-0.209	0.005
-148.589	-200.000	-0.022	-0.434
-147.574	-79.475	0.210	0.071
-146.560	520.943	0.078	0.182
-145.545	50.508	0.415	-0.390
-144.531	80.995	-0.169	-0.181
-143.516	72.603	0.119	0.124
-142.502	83.958	0.155	-0.168
-141.487	-106.356	-0.139	-0.031
-140.472	-115.734	-0.220	-0.041
-139.458	0.985	-0.313	0.223
-138.443	177.676	0.067	-0.097
-137.429	-200.000	0.241	-0.000
-136.414	-60.565	-0.052	-0.022
-135.399	433.267	0.033	-0.070
-134.385	-3.501	-0.168	-0.116
-133.370	230.259	0.252	-0.409
-132.356	-14.200	0.227	0.145
-131.341	-9.569	-0.101	0.067
-130.326	3.259	-0.092	-0.066
-129.312	-96.637	0.233	0.061
-128.297	-151.067	0.272	0.020
-127.283	-200.000	0.001	0.142
-126.268	110.900	0.136	-0.162
-125.253	800.000	0.023	0.067
-124.239	800.000	0.108	-0.379
-123.224	-146.437	0.303	0.026
-122.210	-36.580	0.234	0.125
-121.195	800.000	-0.023	0.083
-120.180	-200.000	0.032	0.177
-119.166	-116.641	-0.014	0.002
-118.151	91.257	0.091	-0.101
-117.137	-36.485	-0.458	-0.244
-116.122	-200.000	0.088	0.000
-115.107	106.253	-0.070	0.083
-114.093	-31.379	-0.207	0.115
-113.078	8.203	0.173	0.129
-112.064	-67.834	0.164	-0.064
-111.049	8.799	-0.079	0.059
-110.034	-200.000	0.045	0.204
-109.020	800.000	0.062	0.172
-108.005	569.003	-0.057	0.136
-106.991	-27.365	-0.142	0.082
-105.976	-126.444	0.256	0.038
-104.962	-200.000	-0.023	-0.119
-103.947	-122.508	-0.482	-0.078
-102.932	-128.064	0.035	-0.005
-101.918	594.936	-0.006	-0.014
-100.903	-113.076	0.105	-0.020
-99.889	-82.749	0.173	-0.056
-98.874	800.000	-0.037	-0.137
-97.859	156.460	0.035	0.048
-96.845	-31.579	0.156	-0.087
-95.830	-75.167	-0.278	-0.098
-94.816	178.084	-0.152	-0.220
-93.801	-8.250	0.310	0.207
-92.786	144.652	-0.107	-0.141
-91.772	-200.000	-0.016	0.113
-90.757	-200.000	-0.023	-0.125
-89.743	-131.162	0.294	-0.039
-88.728	54.592	0.168	-0.160
-87.713	-86.176	0.196	0.060
-86.699	-168.898	0.272	-0.010
-85.684	-200.000	0.008	0.157
-84.670	800.000	0.018	-0.050
-83.655	-105.475	0.198	-0.045
-82.640	800.000	-0.066	0.226
-81.626	50.790	0.079	-0.074
-80.611	800.000	0.059	-0.219
-79.597	-200.000	-0.032	-0.322
-78.582	-200.000	-0.015	0.121
-77.567	542.556	-0.089	-0.209
-76.553	-200.000	-0.005	0.076
-75.538	-90.586	0.233	0.067
-74.524	57.632	0.206	-0.199
-73.509	365.581	-0.052	0.103
-72.494	-98.959	-0.207	0.052
-71.480	-89.782	0.322	-0.093
-70.465	800.000	-0.034	0.132
-69.451	-200.000	0.002	-0.069
-68.436	112.675	-0.074	-0.089
-67.422	-91.249	-0.344	0.097
-66.407	0.347	0.150	-0.106
-65.392	-39.567	0.216	-0.112
-64.378	-200.000	0.001	0.419
-63.363	19.614	-0.058	0.046
-62.349	135.210	-0.118	-0.152
-61.334	210.971	-0.652	-1.014
-60.319	130.810	0.372	0.472
-59.305	800.000	-0.283	-0.829
-58.290	331.394	0.435	0.829
-57.276	295.610	0.786	1.424
-56.261	-200.000	96.558	561.556
-55.246	601.770	1409.278	3462.360
-54.232	181.079	2640.508	3836.345
-53.217	117.836	2232.105	2717.603
-52.203	44.183	1758.751	1594.885
-51.188	36.906	1568.632	1371.166
-50.173	34.448	1540.826	1329.686
-49.159	52.906	1592.025	1505.184
-48.144	56.224	1610.779	1546.384
-47.130	37.314	1565.958	1371.491
-46.115	34.063	1550.248	1334.909
-45.100	33.948	1546.543	1330.858
-44.086	33.873	1545.165	1329.094
-43.071	33.773	1543.147	1326.608
-42.057	33.693	1541.682	1324.738
-41.042	33.851	1540.003	1324.344
-40.027	33.812	1538.678	1322.880
-39.013	33.862	1537.194	1321.896
-37.998	33.759	1536.296	1320.356
-36.984	33.784	1535.030	1319.389
-35.969	33.841	1533.377	1318.316
-34.954	33.796	1531.921	1316.699
-33.940	33.804	1530.104	1315.138
-32.925	33.805	1529.364	1314.456
-31.911	33.806	1528.160	1313.377
-30.896	33.804	1526.814	1312.157
-29.881	33.853	1525.311	1311.152
-28.867	33.957	1523.413	1310.184
-27.852	33.851	1522.090	1308.266
-26.838	33.817	1521.220	1307.229
-25.823	33.805	1519.647	1305.744
-24.809	33.863	1517.675	1304.397
-23.794	33.795	1516.659	1303.002
-22.779	33.852	1514.925	1301.854
-21.765	33.809	1514.088	1300.787
-20.750	33.796	1513.108	1299.806
-19.736	33.788	1511.792	1298.569
-18.721	33.796	1510.839	1297.755
-17.706	33.746	1509.692	1296.372
-16.692	33.769	1508.522	1295.477
-15.677	33.767	1507.342	1294.396
-14.663	33.801	1506.579	1293.922
-13.648	33.743	1506.033	1293.009
-12.633	33.675	1504.930	1291.545
-11.619	33.783	1503.753	1291.218
-10.604	33.678	1503.203	1289.982
-9.590	33.770	1501.907	1289.444
-8.575	33.685	1501.083	1288.104
-7.560	33.711	1500.142	1287.427
-6.546	33.782	1499.271	1287.106
-5.531	33.644	1498.307	1285.295
-4.517	33.692	1497.341	1284.739
-3.502	33.716	1496.222	1283.892
-2.487	33.731	1495.307	1283.154
-1.473	33.724	1494.097	1282.018
-0.458	33.854	1492.854	1281.783
0.556	34.435	1484.191	1273.632
1.571	32.245	1458.444	1237.030
2.586	29.307	1396.676	1165.987
3.600	27.736	1312.577	1086.338
4.615	25.735	1265.339	1035.650
5.629	21.463	1205.743	963.312
6.644	12.141	1117.279	844.760
7.659	5.224	1074.933	778.295
8.673	4.089	1068.935	768.256
9.688	4.094	1066.096	766.175
10.702	4.021	1064.670	764.720
11.717	4.087	1062.723	763.579
12.731	6.717	1065.605	778.570
13.746	15.330	1077.627	830.085
14.761	20.670	1084.220	861.606
15.775	20.049	1083.185	857.637
16.790	19.212	1080.202	851.063
17.804	18.205	1077.897	844.204
18.819	17.274	1076.105	838.137
19.834	16.749	1075.087	834.687
20.848	16.534	1074.262	832.910
21.863	16.343	1073.640	831.417
22.877	16.190	1072.236	829.504
23.892	16.016	1071.861	828.286
24.907	15.927	1070.995	827.106
25.921	15.876	1070.332	826.268
26.936	15.936	1069.532	825.873
27.950	15.942	1068.791	825.255
28.965	15.965	1067.334	824.174
29.980	16.029	1066.639	823.874
30.994	16.025	1065.260	822.718
32.009	16.320	1064.065	823.159
33.023	16.123	1063.765	821.897
34.038	16.245	1062.934	821.772
35.053	16.207	1061.859	820.685
36.067	16.152	1060.489	819.286
37.082	16.041	1059.893	818.216
38.096	16.119	1059.184	817.974
39.111	16.069	1058.528	817.154
40.126	16.170	1057.451	816.737
41.140	16.071	1056.335	815.323
42.155	15.932	1054.932	813.497
43.169	15.789	1054.204	812.172
44.184	15.727	1053.371	811.160
45.199	15.705	1052.056	809.972
46.213	15.710	1051.408	809.424
47.228	15.701	1050.477	808.595
48.242	15.840	1049.429	808.385
49.257	15.983	1048.263	808.100
50.271	16.051	1047.693	807.916
51.286	16.012	1046.809	806.973
52.301	16.111	1046.212	806.917
53.315	15.907	1045.410	805.249
54.330	15.842	1044.693	804.317
55.344	15.898	1043.164	803.334
56.359	15.829	1042.185	802.184
57.374	15.817	1041.639	801.634
58.388	15.870	1040.488	800.931
59.403	15.700	1039.551	799.328
60.417	15.687	1038.902	798.696
61.432	15.733	1038.377	798.443
62.447	15.748	1037.295	797.610
63.461	15.679	1036.413	796.536
64.476	15.636	1035.788	795.779
65.490	15.586	1034.763	794.688
66.505	15.501	1033.942	793.581
67.520	15.549	1033.252	793.211
68.534	15.691	1032.251	793.039
69.549	15.712	1031.467	792.467
70.563	15.606	1030.833	791.412
71.578	15.593	1030.427	790.970
72.593	15.479	1029.504	789.653
73.607	15.492	1027.877	788.399
74.622	15.472	1026.857	787.451
75.636	15.536	1026.360	787.299
76.651	15.592	1025.504	786.834
77.666	15.605	1024.744	786.244
78.680	15.494	1024.019	785.097
79.695	15.553	1023.486	784.895
80.709	15.576	1023.038	784.592
81.724	15.668	1022.003	784.158
82.739	15.777	1020.903	783.751
83.753	15.776	1020.582	783.431
84.768	15.938	1019.778	783.500
85.782	16.070	1019.491	783.821
86.797	16.311	1018.073	783.780
87.812	16.130	1018.097	782.889
88.826	16.212	1016.501	781.976
89.841	15.901	1016.211	780.242
90.855	16.018	1015.548	780.203
91.870	16.102	1014.508	779.724
92.884	16.240	1013.661	779.644
93.899	16.183	1013.147	778.914
94.914	16.191	1012.207	778.160
95.928	16.329	1010.779	777.630
96.943	16.209	1010.914	777.110
97.957	16.266	1009.760	776.419
98.972	16.067	1008.973	774.828
99.987	16.032	1008.525	774.258
101.001	16.198	1007.266	773.981
102.016	16.049	1006.927	772.972
103.030	16.076	1005.693	772.079
104.045	16.127	1004.704	771.484
105.060	16.184	1003.767	770.957
106.074	16.107	1002.932	769.895
107.089	15.981	1001.616	768.245
108.103	15.845	1001.001	767.082
109.118	15.768	999.748	765.707
110.133	15.599	999.679	764.817
111.147	15.785	998.017	764.320
112.162	15.669	997.609	763.417
113.176	15.788	996.682	763.178
114.191	15.737	995.769	762.178
115.206	15.955	994.906	762.439
116.220	15.838	993.906	761.075
117.235	15.891	993.217	760.722
118.249	15.722	992.575	759.397
119.264	15.907	991.365	759.241
120.279	15.690	990.740	757.715
121.293	15.682	989.815	756.903
122.308	15.752	989.333	756.786
123.322	15.711	988.599	755.970
124.337	15.537	987.259	754.098
125.352	15.508	986.284	753.156
126.366	15.578	985.139	752.531
127.381	15.661	984.040	751.994
128.395	15.590	983.513	751.211
129.410	15.623	982.087	750.199
130.424	15.721	981.017	749.755
131.439	15.729	980.366	749.224
132.454	15.823	979.579	748.976
133.468	15.806	978.871	748.295
134.483	15.803	978.408	747.861
135.497	15.926	977.735	747.827
136.512	15.985	976.621	747.169
137.527	15.784	976.098	745.813
138.541	15.771	975.133	744.952
139.556	15.753	974.782	744.537
140.570	15.910	974.069	744.620
141.585	15.926	973.053	743.847
142.600	16.079	972.324	743.900
143.614	16.086	971.841	743.497
144.629	16.121	970.881	742.850
145.643	16.175	970.335	742.604
146.658	16.216	969.318	741.942
147.673	16.100	968.057	740.399
148.687	16.010	967.333	739.386
149.702	15.845	966.306	737.813
150.716	15.848	965.349	737.029
151.731	16.002	964.498	736.989
152.746	15.891	963.746	735.864
153.760	15.994	963.329	735.932
154.775	15.944	962.673	735.148
155.789	16.033	961.436	734.524
156.804	16.080	960.852	734.218
157.819	16.064	959.828	733.300
158.833	16.170	959.228	733.236
159.848	16.095	958.943	732.630
160.862	16.315	958.101	732.876
161.877	16.276	957.514	732.193
162.892	15.989	956.581	730.171
163.906	16.066	955.423	729.555
164.921	15.986	954.646	728.552
165.935	16.003	953.410	727.620
166.950	16.065	952.412	727.059
167.964	16.067	951.592	726.379
168.979	16.015	950.954	725.601
169.994	16.013	949.823	724.668
171.008	15.933	948.930	723.577
172.023	16.041	948.302	723.498
173.037	16.203	947.328	723.388
174.052	16.314	946.849	723.434
175.067	16.415	945.550	722.808
176.081	16.159	944.799	721.076
177.096	16.001	943.938	719.679
178.110	15.980	943.452	719.156
179.125	16.008	942.470	718.463
180.140	16.163	941.254	718.134
181.154	16.093	941.314	717.817
182.169	16.134	940.410	717.240
183.183	16.324	940.184	717.812
184.198	16.346	939.020	716.952
185.213	16.298	938.898	716.589
186.227	16.162	938.500	715.646
187.242	16.463	937.335	715.972
188.256	16.411	936.959	715.398
189.271	16.562	935.930	715.189
190.286	16.530	935.174	714.413
191.300	16.393	934.469	713.233
192.315	16.125	933.675	711.435
193.329	15.948	933.056	710.155
194.344	15.887	932.532	709.436
195.359	16.048	932.167	709.771
196.373	16.309	931.149	710.029
197.388	16.323	930.926	709.859
198.402	16.400	930.495	709.789
199.417	16.407	930.414	709.695
200.432	16.590	929.404	709.630
201.446	16.609	929.518	709.734
202.461	16.732	928.952	709.751
203.475	16.722	928.584	709.368
204.490	16.720	927.417	708.406
205.504	16.599	926.622	707.230
206.519	16.413	926.149	706.028
207.534	16.510	924.953	705.458
208.548	16.505	924.071	704.702
209.563	16.417	923.807	704.074
210.577	16.597	922.709	703.920
211.592	16.513	922.079	703.031
212.607	16.659	921.326	703.002
213.621	16.669	921.239	702.912
214.636	16.672	920.482	702.286
215.650	16.738	919.901	702.054
216.665	16.772	918.981	701.429
217.680	16.874	918.567	701.476
218.694	16.953	918.160	701.429
219.709	16.774	918.103	700.583
220.723	16.789	916.878	699.647
221.738	16.802	916.170	699.101
222.753	16.878	915.457	698.808
223.767	16.909	914.523	698.160
224.782	16.891	913.948	697.587
225.796	16.990	913.355	697.477
226.811	17.028	912.995	697.295
227.826	17.038	912.046	696.552
228.840	16.813	911.264	694.969
229.855	16.804	910.517	694.304
230.869	16.721	910.319	693.751
231.884	16.829	909.264	693.326
232.899	16.845	908.420	692.686
233.913	16.747	907.662	691.646
234.928	16.821	906.734	691.180
235.942	16.695	906.553	690.466
236.957	16.717	905.409	689.625
237.972	16.719	904.649	688.994
238.986	16.681	904.425	688.606
240.001	16.716	903.984	688.352
241.015	16.779	902.810	687.652
242.030	16.779	902.606	687.436
243.045	16.925	901.931	687.455
244.059	16.929	900.940	686.655
245.074	16.964	900.176	686.154
246.088	17.012	899.787	685.988
247.103	17.177	899.204	686.150
248.117	17.071	898.976	685.490
249.132	17.176	898.078	685.168
250.147	17.309	897.831	685.452
251.161	17.392	897.097	685.165
252.176	17.477	896.496	684.989
253.190	17.554	895.883	684.771
254.205	17.413	895.605	683.929
255.220	17.724	894.335	684.146
256.234	17.618	893.830	683.275
257.249	17.719	892.833	682.859
258.263	17.555	892.991	682.260
259.278	17.554	892.269	681.647
260.293	17.615	891.771	681.447
261.307	17.716	891.260	681.402
262.322	17.745	890.731	681.052
263.336	17.703	889.786	680.104
264.351	17.584	889.383	679.261
265.366	17.814	888.496	679.440
266.380	17.837	888.236	679.272
267.395	17.710	887.320	678.004
268.409	17.726	886.335	677.254
269.424	17.740	885.756	676.808
270.439	17.674	885.086	675.975
271.453	17.721	884.340	675.533
272.468	17.704	883.772	674.969
273.482	17.557	883.213	673.905
274.497	17.687	882.380	673.722
275.512	17.653	881.503	672.857
276.526	17.636	880.637	672.069
277.541	17.696	879.892	671.679
278.555	17.586	879.644	670.996
279.570	17.760	878.953	671.096
280.585	17.926	878.716	671.507
281.599	17.797	878.478	670.758
282.614	17.790	877.323	669.792
283.628	17.838	876.519	669.307
284.643	17.738	876.267	668.664
285.657	17.803	875.824	668.520
286.672	17.751	875.599	668.084
287.687	17.884	874.537	667.734
288.701	17.749	874.223	666.908
289.716	17.795	873.515	666.488
290.730	17.918	872.621	666.230
291.745	17.913	871.956	665.644
292.760	18.100	871.024	665.599
293.774	17.949	870.742	664.737
294.789	18.027	870.381	664.705
295.803	18.151	869.987	664.830
296.818	17.885	869.573	663.419
297.833	17.920	868.550	662.715
298.847	17.858	868.046	662.034
299.862	17.837	867.661	661.601
300.876	17.931	866.545	661.054
301.891	17.990	866.004	660.809
302.906	18.057	865.632	660.729
303.920	18.202	864.620	660.458
304.935	18.206	863.973	659.919
305.949	18.385	863.869	660.471
306.964	18.303	862.903	659.359
307.979	18.201	862.520	658.616
308.993	18.235	861.797	658.138
310.008	18.246	861.309	657.749
311.022	18.322	860.898	657.667
312.037	18.290	860.526	657.204
313.052	18.239	859.811	656.402
314.066	18.282	858.582	655.571
315.081	18.009	858.363	654.301
316.095	18.083	857.808	654.103
317.110	18.148	857.277	653.888
318.125	18.249	856.613	653.710
319.139	18.204	856.217	653.177
320.154	18.241	855.706	652.873
321.168	18.209	854.650	651.884
322.183	18.330	854.645	652.286
323.197	18.240	854.206	651.549
324.212	18.237	853.621	651.037
325.227	18.142	853.212	650.306
326.241	18.295	852.547	650.321
327.256	18.245	852.067	649.709
328.270	18.211	851.260	648.907
329.285	18.236	850.818	648.607
330.300	18.216	850.358	648.122
331.314	18.158	849.728	647.366
332.329	18.318	848.860	647.251
333.343	18.292	848.548	646.859
334.358	18.527	847.955	647.238
335.373	18.259	847.654	645.939
336.387	18.466	847.141	646.269
337.402	18.554	846.265	645.878
338.416	18.625	845.570	645.554
339.431	18.565	845.690	645.363
340.446	18.846	844.665	645.581
341.460	18.742	844.296	644.852
342.475	18.891	843.765	644.948
343.489	18.667	843.438	643.803
344.504	18.797	842.990	643.889
345.519	18.962	841.980	643.678
346.533	18.951	841.534	643.240
347.548	18.950	841.296	642.996
348.562	18.730	840.937	641.844
349.577	18.704	839.892	640.893
350.592	18.633	839.135	639.992
351.606	18.744	838.286	639.700
352.621	18.676	837.792	639.015
353.635	18.585	837.602	638.477
354.650	18.621	837.310	638.332
355.665	18.677	837.020	638.262
356.679	18.734	836.728	638.194
357.694	18.568	836.237	637.146
358.708	18.802	835.548	637.434
359.723	18.977	834.795	637.449
360.738	18.787	834.281	636.298
361.752	18.972	833.738	636.513
362.767	19.037	833.306	636.369
363.781	18.958	833.019	635.799
364.796	18.913	832.826	635.428
365.810	19.099	832.466	635.786
366.825	19.279	831.814	635.897
367.840	19.349	831.916	636.176
368.854	19.107	831.275	634.737
369.869	19.304	830.402	634.741
370.883	19.072	829.708	633.301
371.898	19.119	829.121	632.967
372.913	19.201	828.716	632.904
373.927	19.130	828.223	632.209
374.942	19.288	827.421	632.123
375.956	19.200	826.506	631.044
376.971	19.194	826.605	631.045
377.986	19.306	825.489	630.545
379.000	19.386	825.479	630.772
380.015	19.392	824.918	630.310
381.029	19.493	824.328	630.172
382.044	19.387	823.533	629.123
383.059	19.317	823.417	628.725
384.073	19.439	822.702	628.566
385.088	19.553	821.819	628.252
386.102	19.294	821.616	627.097
387.117	19.209	820.812	626.120
388.132	19.233	820.558	625.958
389.146	19.248	820.027	625.552
390.161	19.211	819.777	625.171
391.175	19.327	819.418	625.265
392.190	19.453	819.001	625.347
393.205	19.294	818.744	624.518
394.219	19.366	818.118	624.248
395.234	19.363	817.442	623.666
396.248	19.276	816.768	622.779
397.263	19.210	816.381	622.192
398.278	19.208	815.869	621.740
399.292	19.223	815.266	621.279
400.307	19.275	814.962	621.180
401.321	19.336	814.141	620.719
402.336	19.216	814.317	620.365
403.350	19.355	813.902	620.497
404.365	19.384	813.455	620.203
405.380	19.456	812.707	619.839
406.394	19.519	812.360	619.745
407.409	19.562	812.139	619.676
408.423	19.624	811.909	619.666
409.438	19.819	811.069	619.671
410.453	19.771	810.415	618.944
411.467	19.734	810.449	618.781
412.482	19.749	809.917	618.377
413.496	19.892	809.773	618.721
414.511	19.849	809.122	618.016
415.526	19.850	808.875	617.776
416.540	19.881	808.500	617.547
417.555	19.955	807.668	617.119
418.569	19.955	807.397	616.857
419.584	19.776	806.968	615.840
420.599	19.928	806.127	615.683
421.613	155.717	1370.409	1788.887
422.628	135.197	1452.670	1788.998
