DTS Sentinel unit serial number:	SN413079Multiplexer serial number:	ORYXHardware model number:	OX4-SRSoftware version number:	ORYX F/W v4.00 Oryx Data Collector v3.7.2.0data status	okinstallation	princeton_trtdifferential loss correction	single-endedforward channel	channel 3reverse channel	N/Adate	2019/09/15time	21:56:35forward acquisition time	60.00reverse acquisition time	0.00gamma	496.2192k internal	0.2329k external	0.2329temperature offset calibration	0.9940default loss term (dB/km)	0.3790temperature slope calibration	1.0000multiplexer offset coefficient	1.0000multiplexer slope coefficient	1.0000fibre end	0.00T internal ref (°C)	29.95T ext. ref 1 (°C)	8.51T ext. ref 2 (°C)	22.99length (m)	temperature (°C)	Stokes	anti-Stokes-747.200	46.021	0.258	0.241
-746.185	-160.951	-0.281	0.015
-745.171	-200.000	0.005	-0.112
-744.156	161.365	0.135	0.190
-743.142	-116.744	-0.303	-0.056
-742.127	-63.263	-0.071	0.030
-741.112	-53.341	0.312	0.144
-740.098	693.064	-0.099	0.263
-739.083	800.000	0.049	0.162
-738.069	800.000	0.045	0.154
-737.054	-59.287	-0.385	0.167
-736.039	800.000	-0.036	-0.107
-735.025	-24.430	0.109	0.065
-734.010	293.457	-0.205	-0.377
-732.996	800.000	0.088	-0.371
-731.981	135.457	0.093	-0.122
-730.966	318.178	-0.122	-0.233
-729.952	27.440	-0.339	-0.287
-728.937	-195.407	-0.389	-0.003
-727.923	-45.929	-0.083	0.041
-726.908	-43.265	-0.062	0.032
-725.894	-200.000	-0.010	-0.198
-724.879	189.284	0.144	0.217
-723.864	800.000	-0.046	-0.203
-722.850	-141.476	-0.142	0.014
-721.835	95.935	-0.189	-0.217
-720.821	626.339	0.015	-0.039
-719.806	-34.955	-0.134	-0.074
-718.791	800.000	0.137	-0.501
-717.777	147.807	-0.255	0.345
-716.762	29.249	-0.167	0.142
-715.748	657.969	-0.056	-0.145
-714.733	-138.121	-0.097	0.011
-713.718	-200.000	0.004	-0.081
-712.704	-84.173	-0.348	-0.111
-711.689	800.000	-0.028	0.085
-710.675	-109.850	0.120	0.025
-709.660	-200.000	0.034	-0.328
-708.645	194.625	-0.236	-0.360
-707.631	-85.360	0.133	0.042
-706.616	-151.987	-0.163	-0.012
-705.602	800.000	-0.034	-0.129
-704.587	-200.000	-0.030	-0.237
-703.572	145.001	-0.215	-0.290
-702.558	-116.749	-0.118	-0.022
-701.543	85.002	0.081	0.089
-700.529	-200.000	0.062	-0.433
-699.514	115.639	-0.056	-0.068
-698.499	-200.000	0.025	-0.200
-697.485	800.000	-0.064	-0.202
-696.470	-200.000	-0.063	0.383
-695.456	254.478	0.102	-0.175
-694.441	-108.954	-0.441	0.095
-693.426	-200.000	0.002	-0.094
-692.412	-91.749	-0.351	-0.100
-691.397	-145.692	-0.288	0.026
-690.383	22.221	0.186	-0.153
-689.368	-26.169	-0.096	-0.056
-688.354	48.634	0.016	-0.016
-687.339	-69.966	0.202	-0.078
-686.324	-200.000	0.034	-0.226
-685.310	8.768	-0.124	0.094
-684.295	-177.209	0.276	0.007
-683.281	88.859	-0.198	0.222
-682.266	163.182	-0.111	0.156
-681.251	800.000	0.126	-0.374
-680.237	582.893	-0.057	-0.139
-679.222	-70.189	0.228	0.087
-678.208	147.969	-0.201	0.273
-677.193	86.678	-0.091	0.101
-676.178	-55.683	-0.233	0.105
-675.164	96.656	-0.136	0.156
-674.149	129.939	0.126	0.162
-673.135	225.985	-0.141	-0.230
-672.120	-101.099	0.180	0.044
-671.105	-92.662	0.120	0.034
-670.091	800.000	-0.092	-0.272
-669.076	110.052	-0.039	0.047
-668.062	-112.639	-0.098	-0.020
-667.047	-185.649	-0.182	-0.003
-666.032	161.872	-0.047	0.066
-665.018	365.047	0.071	-0.143
-664.003	569.196	0.069	-0.169
-662.989	-103.837	-0.348	0.082
-661.974	800.000	-0.052	-0.177
-660.959	25.819	-0.173	-0.145
-659.945	94.976	-0.068	-0.078
-658.930	12.053	0.140	-0.108
-657.916	167.050	-0.099	0.141
-656.901	800.000	0.028	-0.077
-655.886	-90.879	-0.044	-0.013
-654.872	-172.528	0.277	0.009
-653.857	177.957	-0.139	0.203
-652.843	-90.721	-0.194	-0.056
-651.828	12.139	-0.378	0.292
-650.814	-108.957	-0.186	-0.040
-649.799	-25.263	0.151	-0.090
-648.784	800.000	0.036	0.112
-647.770	-77.119	-0.185	-0.065
-646.755	-68.200	-0.178	-0.069
-645.741	-127.207	0.164	-0.024
-644.726	-200.000	-0.001	-0.165
-643.711	-42.493	0.181	0.092
-642.697	-12.523	-0.164	0.107
-641.682	44.176	-0.081	0.075
-640.668	113.088	0.096	0.117
-639.653	-186.940	0.037	0.001
-638.638	-130.394	0.144	0.020
-637.624	800.000	0.065	-0.275
-636.609	13.332	-0.139	0.108
-635.595	-61.784	-0.206	-0.087
-634.580	-140.561	-0.165	-0.017
-633.565	-102.714	-0.096	0.023
-632.551	-200.000	-0.017	-0.163
-631.536	3.180	0.085	0.062
-630.522	-0.624	-0.085	0.061
-629.507	-116.924	-0.363	0.067
-628.492	136.853	0.154	0.202
-627.478	-12.132	-0.040	-0.026
-626.463	-29.766	0.090	-0.052
-625.449	45.960	-0.229	-0.212
-624.434	78.543	-0.299	-0.320
-623.419	12.803	-0.219	0.170
-622.405	-135.327	-0.138	-0.017
-621.390	380.305	-0.121	0.249
-620.376	-200.000	0.001	0.034
-619.361	-156.577	0.309	-0.019
-618.346	-200.000	-0.044	-0.232
-617.332	-200.000	0.025	-0.343
-616.317	-9.446	-0.363	-0.243
-615.303	11.976	-0.123	-0.095
-614.288	-84.241	0.256	-0.081
-613.273	-123.398	-0.242	0.039
-612.259	-163.958	-0.126	-0.006
-611.244	-200.000	-0.013	0.267
-610.230	-200.000	0.006	-0.222
-609.215	43.271	0.306	-0.280
-608.201	8.591	0.168	-0.127
-607.186	-92.718	-0.058	-0.016
-606.171	-146.098	-0.320	-0.028
-605.157	-36.600	-0.124	0.067
-604.142	-57.916	-0.423	0.185
-603.128	85.669	-0.084	0.093
-602.113	3.268	-0.110	0.080
-601.098	320.992	-0.135	-0.257
-600.084	800.000	0.065	-0.182
-599.069	-50.662	-0.181	-0.085
-598.055	-109.686	-0.127	0.027
-597.040	44.751	-0.101	0.093
-596.025	800.000	0.122	-0.455
-595.011	-145.122	0.201	-0.018
-593.996	90.686	-0.208	0.233
-592.982	305.658	-0.114	-0.213
-591.967	-200.000	-0.039	0.181
-590.952	164.547	0.133	-0.188
-589.938	-52.772	0.048	0.022
-588.923	42.767	0.203	-0.185
-587.909	-200.000	-0.015	-0.251
-586.894	-200.000	-0.087	-0.435
-585.879	-12.477	-0.233	-0.152
-584.865	-62.953	0.304	-0.126
-583.850	-200.000	-0.023	-0.202
-582.836	758.642	0.019	0.052
-581.821	1.646	0.068	0.049
-580.806	-92.721	-0.408	-0.114
-579.792	-16.086	0.383	0.244
-578.777	800.000	-0.031	0.128
-577.763	-156.470	-0.265	0.017
-576.748	-123.717	-0.248	-0.039
-575.733	-200.000	0.033	0.207
-574.719	147.882	0.105	-0.142
-573.704	119.837	-0.172	0.213
-572.690	-1.767	0.059	0.042
-571.675	32.136	-0.311	-0.269
-570.661	-23.937	-0.331	0.198
-569.646	-66.300	0.145	0.058
-568.631	-18.552	0.137	-0.085
-567.617	194.388	0.154	-0.234
-566.602	800.000	0.101	0.285
-565.588	327.590	-0.064	-0.124
-564.573	800.000	-0.133	0.375
-563.558	800.000	-0.102	-0.339
-562.544	19.198	0.270	-0.217
-561.529	178.352	0.077	-0.113
-560.515	99.999	-0.026	-0.030
-559.500	-59.925	-0.265	-0.113
-558.485	-5.109	-0.304	-0.209
-557.471	435.432	0.033	-0.073
-556.456	771.761	-0.021	-0.057
-555.442	39.560	-0.158	-0.142
-554.427	800.000	0.085	-0.338
-553.412	189.931	-0.083	0.124
-552.398	-6.218	0.046	-0.031
-551.383	-131.426	-0.100	0.013
-550.369	-164.653	0.346	-0.016
-549.354	-200.000	-0.029	-0.243
-548.339	53.861	0.114	0.110
-547.325	195.417	-0.178	0.270
-546.310	-145.520	-0.163	0.015
-545.296	800.000	-0.054	-0.151
-544.281	281.094	-0.094	-0.169
-543.266	-7.865	0.131	0.088
-542.252	800.000	-0.009	0.028
-541.237	145.589	0.106	-0.142
-540.223	599.079	-0.100	0.247
-539.208	164.691	-0.190	-0.267
-538.193	-11.883	-0.407	-0.267
-537.179	800.000	-0.015	-0.062
-536.164	800.000	0.057	0.232
-535.150	-53.730	-0.344	0.157
-534.135	-96.886	-0.249	0.065
-533.121	163.880	-0.130	-0.183
-532.106	-40.406	0.113	-0.059
-531.091	800.000	0.047	-0.172
-530.077	800.000	-0.112	-0.479
-529.062	-200.000	0.020	-0.280
-528.048	56.194	0.131	0.127
-527.033	260.391	0.078	-0.135
-526.018	-116.762	0.287	0.053
-525.004	-92.678	0.383	-0.107
-523.989	3.467	0.162	0.118
-522.975	-29.521	-0.211	0.120
-521.960	-85.385	0.182	0.057
-520.945	28.631	0.332	-0.281
-519.931	-180.164	-0.279	-0.006
-518.916	-31.776	0.238	0.133
-517.902	40.397	-0.248	-0.223
-516.887	-72.345	-0.170	0.063
-515.872	-200.000	-0.048	0.263
-514.858	33.968	-0.123	0.107
-513.843	800.000	0.029	-0.103
-512.829	54.644	-0.298	0.286
-511.814	-200.000	0.047	0.248
-510.799	260.582	-0.088	-0.152
-509.785	-26.333	0.168	0.098
-508.770	27.252	-0.205	-0.172
-507.756	-200.000	0.003	-0.288
-506.741	128.975	0.192	-0.245
-505.726	103.357	-0.170	0.199
-504.712	102.721	0.164	-0.191
-503.697	562.149	0.073	0.177
-502.683	-63.933	-0.189	0.077
-501.668	472.604	0.093	0.208
-500.653	46.923	-0.342	0.318
-499.639	-72.707	-0.241	0.088
-498.624	-1.776	0.237	-0.166
-497.610	-103.865	-0.263	-0.061
-496.595	672.029	0.136	-0.352
-495.581	-180.214	-0.110	-0.002
-494.566	93.776	0.048	0.054
-493.551	-200.000	-0.032	-0.187
-492.537	179.127	-0.180	0.263
-491.522	-173.940	-0.245	-0.007
-490.508	-114.636	0.159	-0.030
-489.493	19.314	0.058	-0.046
-488.478	-159.806	0.104	0.006
-487.464	-200.000	0.016	0.153
-486.449	-200.000	0.008	-0.055
-485.435	205.208	0.086	0.133
-484.420	-103.066	-0.269	-0.064
-483.405	-3.223	-0.114	-0.080
-482.391	-179.704	0.238	-0.005
-481.376	0.312	-0.455	0.324
-480.362	117.005	0.273	0.334
-479.347	-37.077	0.234	0.125
-478.332	82.319	0.293	0.316
-477.318	-145.224	0.039	-0.003
-476.303	-13.831	-0.209	0.135
-475.289	-98.269	0.148	-0.038
-474.274	-200.000	0.036	0.243
-473.259	-53.487	0.267	-0.122
-472.245	-13.406	-0.102	0.066
-471.230	58.812	0.192	0.188
-470.216	-64.963	0.062	0.025
-469.201	-152.924	0.477	0.034
-468.186	-10.571	0.231	-0.152
-467.172	47.804	-0.176	-0.163
-466.157	474.238	-0.073	0.165
-465.143	243.144	0.076	-0.127
-464.128	-98.836	0.120	0.030
-463.113	800.000	0.038	-0.132
-462.099	325.040	0.148	-0.282
-461.084	-5.313	0.152	-0.104
-460.070	-200.000	0.047	-0.428
-459.055	437.018	-0.056	-0.122
-458.040	800.000	0.060	0.175
-457.026	800.000	0.102	0.355
-456.011	-200.000	-0.032	-0.170
-454.997	166.550	0.162	0.228
-453.982	182.906	-0.188	-0.277
-452.968	-30.617	0.080	0.045
-451.953	-99.382	0.372	0.093
-450.938	-61.368	0.195	0.082
-449.924	544.668	-0.116	-0.276
-448.909	-85.286	-0.101	0.031
-447.895	-200.000	-0.032	-0.169
-446.880	800.000	-0.029	-0.115
-445.865	-200.000	0.071	-0.327
-444.851	-77.446	-0.213	-0.073
-443.836	-90.109	0.222	0.064
-442.822	44.184	0.269	-0.246
-441.807	160.224	0.089	0.124
-440.792	-57.127	0.275	0.121
-439.778	-200.000	0.003	-0.101
-438.763	101.031	-0.194	0.224
-437.749	-50.459	0.159	0.075
-436.734	67.027	-0.173	0.175
-435.719	6.994	-0.258	0.191
-434.705	192.139	0.232	-0.348
-433.690	800.000	0.040	-0.144
-432.676	-200.000	-0.030	0.251
-431.661	21.045	0.115	-0.093
-430.646	101.243	-0.224	-0.260
-429.632	-200.000	-0.021	-0.094
-428.617	481.471	0.127	0.287
-427.603	231.440	0.212	0.345
-426.588	-3.622	0.177	0.123
-425.573	-200.000	-0.010	0.403
-424.559	487.247	-0.039	0.088
-423.544	800.000	-0.109	-0.329
-422.530	-87.886	-0.051	-0.015
-421.515	54.146	0.018	0.017
-420.500	-85.720	0.031	0.010
-419.486	338.728	0.015	-0.029
-418.471	179.160	0.135	0.196
-417.457	190.693	0.148	0.222
-416.442	-200.000	0.020	0.177
-415.428	-77.901	-0.204	-0.070
-414.413	-16.402	0.174	-0.110
-413.398	156.427	0.075	-0.103
-412.384	800.000	0.070	-0.238
-411.369	-200.000	0.002	0.401
-410.355	-40.545	-0.222	0.114
-409.340	-200.000	-0.019	0.374
-408.325	54.189	-0.364	-0.348
-407.311	163.484	-0.080	0.112
-406.296	360.249	-0.082	0.164
-405.282	81.755	-0.143	-0.154
-404.267	-72.474	0.184	-0.068
-403.252	-200.000	-0.020	0.279
-402.238	-143.056	0.186	0.018
-401.223	-70.157	-0.140	-0.053
-400.209	91.912	0.129	0.145
-399.194	-98.522	0.230	-0.059
-398.179	-177.372	-0.148	0.004
-397.165	800.000	-0.105	0.329
-396.150	800.000	0.088	-0.347
-395.136	-24.219	0.151	0.089
-394.121	45.250	0.155	-0.142
-393.106	-15.397	0.037	0.024
-392.092	-31.210	0.317	0.177
-391.077	-187.961	0.273	-0.004
-390.063	800.000	-0.049	-0.148
-389.048	-159.845	0.230	-0.013
-388.033	-200.000	-0.033	0.156
-387.019	-35.581	0.347	-0.187
-386.004	-142.675	-0.193	-0.019
-384.990	101.356	-0.035	0.040
-383.975	389.196	0.177	-0.365
-382.960	786.559	-0.027	0.073
-381.946	-55.955	-0.072	0.032
-380.931	-5.462	0.059	0.040
-379.917	170.006	0.072	-0.103
-378.902	-200.000	0.039	0.247
-377.888	800.000	-0.026	-0.079
-376.873	-9.794	-0.231	-0.152
-375.858	-45.279	-0.094	-0.046
-374.844	-85.731	0.460	-0.142
-373.829	-137.991	0.223	-0.025
-372.815	-21.372	0.262	0.159
-371.800	605.246	0.113	0.281
-370.785	142.492	-0.166	-0.219
-369.771	253.119	0.279	-0.472
-368.756	580.541	-0.089	0.217
-367.742	84.518	0.051	0.055
-366.727	-200.000	0.009	-0.063
-365.712	-145.536	0.335	0.030
-364.698	800.000	0.028	-0.107
-363.683	-200.000	-0.031	0.165
-362.669	-147.670	-0.161	-0.013
-361.654	-138.134	0.465	-0.051
-360.639	-200.000	0.028	0.139
-359.625	463.659	-0.144	0.319
-358.610	-38.701	0.247	-0.129
-357.596	698.584	-0.121	-0.316
-356.581	332.725	-0.131	0.251
-355.566	-80.264	0.142	-0.047
-354.552	67.254	0.214	-0.217
-353.537	109.841	0.197	0.235
-352.523	178.029	-0.164	0.237
-351.508	124.902	0.235	0.294
-350.493	-65.505	0.125	-0.050
-349.479	86.433	-0.051	0.056
-348.464	-58.948	0.094	0.040
-347.450	-200.000	-0.004	-0.077
-346.435	61.603	0.044	-0.044
-345.420	800.000	0.050	0.197
-344.406	197.001	0.172	-0.261
-343.391	-143.008	-0.355	0.034
-342.377	-4.154	0.164	0.113
-341.362	96.852	0.101	0.114
-340.348	-200.000	0.015	0.167
-339.333	187.355	0.109	0.162
-338.318	60.619	0.228	0.224
-337.304	-200.000	-0.024	-0.180
-336.289	92.256	-0.340	-0.379
-335.275	-1.449	-0.199	0.139
-334.260	-9.642	0.158	0.104
-333.245	-200.000	-0.011	-0.189
-332.231	332.715	0.027	-0.052
-331.216	157.160	-0.131	-0.180
-330.202	-200.000	0.022	0.147
-329.187	-200.000	0.070	-0.428
-328.172	-95.907	0.204	0.054
-327.158	-60.957	-0.050	0.021
-326.143	-106.786	-0.091	0.020
-325.129	10.877	0.181	0.137
-324.114	137.693	-0.158	0.206
-323.099	-200.000	0.047	-0.391
-322.085	-163.177	0.207	-0.010
-321.070	-78.740	0.127	0.043
-320.056	-191.488	-0.233	-0.002
-319.041	800.000	-0.028	-0.083
-318.026	-115.339	0.115	-0.022
-317.012	-149.537	-0.044	0.003
-315.997	178.488	0.171	0.247
-314.983	-200.000	-0.008	-0.170
-313.968	-68.387	0.505	-0.194
-312.953	218.312	-0.182	-0.288
-311.939	-200.000	-0.042	-0.292
-310.924	-2.115	0.102	0.071
-309.910	-195.218	0.127	0.001
-308.895	800.000	-0.065	0.249
-307.880	12.048	-0.156	0.119
-306.866	-37.973	-0.057	0.030
-305.851	-75.831	-0.111	-0.039
-304.837	-200.000	0.057	-0.276
-303.822	389.001	-0.137	-0.281
-302.807	-56.106	-0.123	-0.054
-301.793	800.000	0.088	0.300
-300.778	-45.882	-0.196	-0.096
-299.764	-41.091	-0.121	0.062
-298.749	46.400	-0.140	0.129
-297.735	800.000	0.083	0.250
-296.720	-113.341	-0.375	0.073
-295.705	374.597	-0.035	-0.070
-294.691	-94.442	-0.243	0.066
-293.676	-44.499	-0.107	-0.053
-292.662	-117.895	-0.184	-0.033
-291.647	-15.904	0.177	-0.112
-290.632	-44.249	0.195	0.097
-289.618	325.944	-0.311	-0.589
-288.603	20.271	-0.143	-0.114
-287.589	800.000	0.063	0.271
-286.574	290.497	0.172	-0.310
-285.559	-158.850	0.140	0.008
-284.545	266.846	-0.107	0.185
-283.530	-130.701	0.260	0.035
-282.516	-59.243	0.432	0.184
-281.501	-67.879	-0.056	-0.022
-280.486	514.451	0.055	0.126
-279.472	270.933	0.073	0.126
-278.457	-27.787	0.139	-0.080
-277.443	-73.402	-0.343	0.124
-276.428	-76.204	0.052	0.018
-275.413	146.145	-0.155	-0.206
-274.399	63.416	-0.083	-0.082
-273.384	800.000	-0.077	-0.246
-272.370	-101.757	-0.314	0.075
-271.355	800.000	-0.084	0.262
-270.340	-64.517	-0.241	0.097
-269.326	800.000	0.078	-0.328
-268.311	800.000	-0.119	0.346
-267.297	92.175	0.189	0.210
-266.282	217.542	-0.033	0.052
-265.267	238.275	-0.064	0.104
-264.253	-109.717	-0.209	0.043
-263.238	56.219	0.141	-0.136
-262.224	134.715	-0.136	0.175
-261.209	-16.769	-0.072	-0.045
-260.195	202.555	0.057	0.087
-259.180	-17.231	-0.308	0.192
-258.165	-106.392	0.026	0.006
-257.151	-44.676	-0.093	-0.046
-256.136	-96.157	0.202	-0.053
-255.122	65.127	0.104	-0.104
-254.107	-200.000	-0.014	0.087
-253.092	800.000	-0.103	0.311
-252.078	-193.581	0.272	-0.002
-251.063	-200.000	0.016	0.124
-250.049	0.551	-0.161	0.114
-249.034	-200.000	-0.038	-0.186
-248.019	800.000	0.034	0.109
-247.005	243.444	0.110	0.183
-245.990	778.256	0.049	-0.131
-244.976	709.593	0.061	0.160
-243.961	-200.000	-0.004	0.141
-242.946	271.468	-0.085	0.149
-241.932	-200.000	-0.060	0.394
-240.917	194.531	-0.088	0.132
-239.903	237.568	-0.098	-0.161
-238.888	800.000	-0.092	-0.254
-237.873	210.495	-0.106	-0.165
-236.859	0.919	0.312	-0.220
-235.844	-108.333	0.520	-0.111
-234.830	-196.288	-0.335	0.002
-233.815	-143.453	-0.317	0.030
-232.800	152.182	-0.069	0.093
-231.786	-118.325	-0.221	0.039
-230.771	778.892	0.103	0.277
-229.757	-11.269	0.240	-0.156
-228.742	0.153	0.105	0.074
-227.727	38.836	-0.032	-0.028
-226.713	800.000	0.107	0.405
-225.698	656.718	0.168	0.427
-224.684	447.892	0.094	0.205
-223.669	0.701	0.053	-0.038
-222.655	800.000	-0.076	-0.317
-221.640	800.000	-0.031	-0.123
-220.625	800.000	-0.030	0.128
-219.611	-170.174	-0.146	0.005
-218.596	156.237	0.051	-0.069
-217.582	-28.805	0.110	-0.063
-216.567	-200.000	0.041	0.263
-215.552	800.000	0.034	0.101
-214.538	121.205	-0.238	-0.292
-213.523	-65.296	0.169	-0.067
-212.509	-48.847	-0.028	-0.013
-211.494	-104.531	0.219	-0.050
-210.479	273.727	0.064	0.111
-209.465	87.911	-0.254	0.278
-208.450	-95.913	0.146	0.038
-207.436	-200.000	0.023	-0.141
-206.421	800.000	-0.050	0.165
-205.406	-200.000	-0.059	0.287
-204.392	-190.707	-0.319	-0.003
-203.377	26.369	0.028	0.023
-202.363	800.000	0.030	0.113
-201.348	111.801	0.161	-0.191
-200.333	800.000	-0.081	0.231
-199.319	162.566	0.022	-0.030
-198.304	-31.264	0.143	0.080
-197.290	-113.304	0.177	-0.034
-196.275	-200.000	0.005	-0.096
-195.260	-200.000	-0.020	0.216
-194.246	800.000	-0.062	0.208
-193.231	-147.487	-0.446	-0.037
-192.217	-200.000	0.017	0.134
-191.202	11.533	0.043	0.033
-190.187	-120.696	-0.468	0.078
-189.173	-139.380	0.089	-0.009
-188.158	581.219	-0.143	-0.346
-187.144	14.268	0.052	0.040
-186.129	240.642	-0.085	-0.141
-185.114	-126.123	-0.281	-0.041
-184.100	-10.524	0.198	0.129
-183.085	226.071	0.101	0.162
-182.071	800.000	0.043	-0.126
-181.056	-200.000	0.004	0.113
-180.042	577.800	0.120	-0.290
-179.027	-200.000	-0.003	0.019
-178.012	80.900	-0.213	-0.226
-176.998	53.552	-0.212	-0.201
-175.983	166.413	0.311	0.434
-174.969	-57.621	-0.272	-0.117
-173.954	341.262	0.099	-0.191
-172.939	-98.146	0.154	0.039
-171.925	-38.558	-0.207	0.108
-170.910	209.520	0.107	-0.165
-169.896	-45.874	-0.039	-0.019
-168.881	50.881	-0.154	0.144
-167.866	-103.898	-0.350	0.081
-166.852	13.692	0.146	-0.112
-165.837	672.805	0.091	0.233
-164.823	5.201	0.110	0.080
-163.808	-92.765	0.413	0.114
-162.793	108.203	-0.135	-0.158
-161.779	-200.000	-0.007	-0.107
-160.764	351.470	0.051	-0.099
-159.750	-75.646	0.281	-0.098
-158.735	-122.791	-0.154	0.025
-157.720	189.486	-0.155	0.229
-156.706	-200.000	-0.015	0.310
-155.691	-17.134	0.135	-0.084
-154.677	-60.544	0.112	-0.047
-153.662	372.209	0.128	0.256
-152.647	97.501	0.159	0.180
-151.633	-12.718	-0.057	0.036
-150.618	800.000	0.044	0.174
-149.604	-200.000	-0.019	0.162
-148.589	-200.000	0.018	-0.184
-147.574	-200.000	0.013	-0.200
-146.560	142.174	0.067	0.087
-145.545	-49.290	-0.110	0.052
-144.531	53.771	-0.152	-0.144
-143.516	-97.802	0.334	-0.085
-142.502	-50.919	-0.210	0.097
-141.487	-98.051	0.086	0.022
-140.472	-141.142	-0.327	0.033
-139.458	-120.656	0.214	-0.036
-138.443	235.045	-0.133	-0.216
-137.429	-5.066	0.005	0.003
-136.414	-32.274	0.142	-0.078
-135.399	800.000	0.081	-0.314
-134.385	279.480	0.063	0.110
-133.370	-125.947	-0.220	-0.033
-132.356	-200.000	0.000	-0.016
-131.341	-46.076	-0.301	0.146
-130.326	-129.070	-0.323	0.044
-129.312	800.000	0.034	0.112
-128.297	-147.584	0.239	-0.020
-127.283	91.627	0.227	-0.250
-126.268	82.744	0.231	-0.247
-125.253	-200.000	0.025	0.197
-124.239	42.446	-0.050	-0.044
-123.224	-200.000	0.022	0.124
-122.210	-200.000	0.009	0.082
-121.195	424.156	-0.120	-0.254
-120.180	112.447	0.290	-0.345
-119.166	200.068	-0.047	-0.071
-118.151	-59.523	0.046	-0.019
-117.137	-200.000	-0.003	0.181
-116.122	282.797	0.157	-0.278
-115.107	-40.077	-0.425	0.218
-114.093	-200.000	0.045	0.324
-113.078	-104.975	0.225	0.051
-112.064	284.442	0.038	0.067
-111.049	800.000	0.084	0.289
-110.034	-0.242	-0.060	0.042
-109.020	51.917	0.237	0.222
-108.005	274.326	0.150	-0.262
-106.991	800.000	-0.120	0.329
-105.976	83.488	-0.022	-0.024
-104.962	278.394	0.187	0.327
-103.947	63.744	-0.119	0.118
-102.932	-18.240	-0.262	-0.161
-101.918	-68.857	0.281	-0.107
-100.903	87.639	-0.211	-0.230
-99.889	230.720	-0.197	0.317
-98.874	-155.193	0.170	0.011
-97.859	800.000	0.034	-0.104
-96.845	-98.976	0.272	-0.068
-95.830	800.000	0.040	-0.111
-94.816	75.353	0.206	-0.213
-93.801	25.818	0.187	0.153
-92.786	-12.103	-0.167	-0.107
-91.772	73.816	-0.108	0.111
-90.757	-200.000	0.040	0.238
-89.743	800.000	-0.064	-0.190
-88.728	-83.150	-0.120	-0.038
-87.713	-29.644	0.052	0.029
-86.699	-102.991	0.065	0.015
-85.684	800.000	0.070	0.201
-84.670	-200.000	-0.019	-0.088
-83.655	-7.791	0.219	0.145
-82.640	-200.000	0.038	-0.240
-81.626	515.736	-0.023	0.053
-80.611	141.659	0.203	0.264
-79.597	406.411	0.065	-0.135
-78.582	257.082	-0.145	0.244
-77.567	-200.000	-0.034	0.200
-76.553	667.337	-0.096	-0.244
-75.538	59.395	-0.119	-0.115
-74.524	-12.581	-0.058	-0.037
-73.509	-167.759	0.247	-0.010
-72.494	61.840	0.185	0.181
-71.480	-34.960	-0.296	0.158
-70.465	-181.527	0.391	0.007
-69.451	-200.000	0.051	-0.334
-68.436	800.000	0.046	-0.166
-67.422	585.134	0.088	-0.213
-66.407	-168.501	-0.212	-0.008
-65.392	-41.816	0.239	-0.120
-64.378	196.141	0.083	0.124
-63.363	-63.339	0.293	-0.118
-62.349	-54.958	-0.121	-0.053
-61.334	45.098	-0.823	-0.744
-60.319	145.255	0.550	0.722
-59.305	427.303	-0.572	-1.211
-58.290	142.449	0.879	1.144
-57.276	800.000	0.571	1.648
-56.261	-200.000	107.750	598.690
-55.246	455.701	1478.155	3214.710
-54.232	149.063	2652.608	3518.336
-53.217	106.463	2162.081	2513.271
-52.203	40.022	1698.586	1496.227
-51.188	33.053	1515.213	1287.374
-50.173	30.677	1488.906	1249.045
-49.159	52.416	1545.321	1445.690
-48.144	52.590	1561.521	1461.975
-47.130	33.249	1517.870	1290.767
-46.115	30.219	1503.396	1257.893
-45.100	30.094	1499.246	1253.526
-44.086	30.018	1497.570	1251.560
-43.071	29.979	1495.742	1249.725
-42.057	29.854	1493.991	1247.366
-41.042	29.863	1492.446	1246.087
-40.027	29.934	1491.128	1245.417
-39.013	29.857	1489.478	1243.471
-37.998	29.956	1487.981	1242.839
-36.984	29.924	1487.067	1241.810
-35.969	29.942	1485.636	1240.686
-34.954	30.082	1483.832	1240.068
-33.940	29.939	1482.929	1238.304
-32.925	29.919	1481.678	1237.076
-31.911	29.921	1480.666	1236.197
-30.896	30.033	1479.146	1235.629
-29.881	29.982	1478.205	1234.453
-28.867	29.921	1476.725	1232.764
-27.852	29.929	1475.138	1231.441
-26.838	30.035	1473.664	1230.868
-25.823	29.960	1472.627	1229.455
-24.809	29.980	1470.584	1227.831
-23.794	29.955	1469.305	1226.550
-22.779	29.975	1468.209	1225.718
-21.765	30.022	1467.431	1225.328
-20.750	30.087	1466.096	1224.597
-19.736	29.958	1464.509	1222.373
-18.721	29.987	1463.116	1221.348
-17.706	29.921	1462.837	1220.632
-16.692	30.076	1460.627	1219.764
-15.677	30.005	1460.318	1218.989
-14.663	29.983	1459.253	1217.905
-13.648	29.949	1458.685	1217.159
-12.633	29.941	1457.786	1216.311
-11.619	29.891	1457.519	1215.709
-10.604	29.928	1456.437	1215.002
-9.590	29.864	1455.657	1213.880
-8.575	29.996	1453.725	1213.090
-7.560	29.903	1453.545	1212.282
-6.546	29.920	1452.511	1211.481
-5.531	29.894	1451.933	1210.783
-4.517	29.859	1451.128	1209.831
-3.502	29.850	1449.830	1208.644
-2.487	29.882	1449.060	1208.166
-1.473	29.838	1448.134	1207.054
-0.458	29.888	1446.404	1205.893
0.556	27.883	1436.250	1193.326
1.571	24.505	1410.418	1150.040
2.586	20.591	1348.636	1075.410
3.600	18.745	1265.991	998.693
4.615	17.536	1220.975	956.311
5.629	16.206	1168.617	908.069
6.644	12.373	1092.156	829.267
7.659	8.970	1056.231	785.285
8.673	8.682	1050.336	779.430
9.688	8.485	1047.781	776.506
10.702	8.427	1045.775	774.670
11.717	8.446	1044.070	773.433
12.731	9.934	1044.598	780.952
13.746	13.971	1049.888	804.422
14.761	17.106	1053.415	822.259
15.775	17.613	1053.260	824.519
16.790	16.743	1051.189	818.625
17.804	15.658	1049.255	811.809
18.819	14.888	1047.083	806.345
19.834	14.279	1045.897	802.424
20.848	14.133	1044.607	800.660
21.863	13.684	1044.091	798.035
22.877	13.563	1043.268	796.752
23.892	13.277	1042.489	794.714
24.907	13.333	1041.362	794.052
25.921	13.266	1040.811	793.241
26.936	13.311	1040.331	793.020
27.950	13.282	1039.405	792.106
28.965	13.475	1037.861	791.780
29.980	13.361	1037.401	790.816
30.994	13.557	1035.525	790.251
32.009	13.497	1034.687	789.256
33.023	13.527	1034.333	789.057
34.038	13.522	1033.533	788.354
35.053	13.501	1032.699	787.550
36.067	13.440	1031.420	786.213
37.082	13.470	1030.350	785.471
38.096	13.424	1029.818	784.777
39.111	13.678	1028.593	784.975
40.126	13.562	1027.785	783.744
41.140	13.541	1026.546	782.627
42.155	13.361	1025.994	781.290
43.169	13.261	1024.907	779.921
44.184	13.285	1024.006	779.280
45.199	13.243	1022.805	778.098
46.213	13.183	1021.923	777.074
47.228	13.358	1020.694	776.895
48.242	13.352	1019.644	776.000
49.257	13.375	1018.771	775.375
50.271	13.388	1018.142	774.890
51.286	13.317	1017.305	773.850
52.301	13.306	1016.643	773.227
53.315	13.457	1015.832	773.248
54.330	13.478	1014.754	772.457
55.344	13.328	1014.234	771.294
56.359	13.239	1012.983	769.856
57.374	13.323	1011.999	769.433
58.388	13.392	1011.420	769.247
59.403	13.200	1010.800	767.814
60.417	13.217	1009.934	767.167
61.432	13.276	1008.771	766.487
62.447	13.176	1008.237	765.552
63.461	13.275	1007.210	765.162
64.476	13.089	1006.371	763.596
65.490	13.145	1005.216	762.912
66.505	13.099	1004.621	762.181
67.520	13.211	1004.041	762.190
68.534	13.180	1002.928	761.136
69.549	13.238	1002.258	760.824
70.563	13.051	1001.933	759.650
71.578	13.181	1000.998	759.471
72.593	13.086	999.901	758.136
73.607	13.134	999.039	757.635
74.622	13.087	997.908	756.497
75.636	13.094	997.312	756.012
76.651	13.032	996.712	755.206
77.666	13.158	995.651	754.909
78.680	13.043	995.300	754.050
79.695	13.100	994.967	753.990
80.709	13.157	993.932	753.402
81.724	13.212	993.265	753.081
82.739	13.231	992.387	752.435
83.753	13.145	991.620	751.393
84.768	13.303	991.076	751.636
85.782	13.489	990.352	751.864
86.797	13.502	989.804	751.442
87.812	13.493	988.997	750.721
88.826	13.379	987.802	749.229
89.841	13.443	987.353	749.114
90.855	13.356	986.793	748.226
91.870	13.397	985.968	747.723
92.884	13.550	985.153	747.730
93.899	13.531	984.489	747.074
94.914	13.587	982.984	746.115
95.928	13.577	982.712	745.801
96.943	13.608	982.364	745.610
97.957	13.516	981.161	744.215
98.972	13.456	980.674	743.510
99.987	13.549	979.876	743.258
101.001	13.525	979.157	742.539
102.016	13.495	978.332	741.712
103.030	13.506	977.255	740.879
104.045	13.500	976.299	740.064
105.060	13.460	975.504	739.214
106.074	13.452	974.459	738.325
107.089	13.430	973.493	737.428
108.103	13.363	972.620	736.405
109.118	13.229	971.960	735.241
110.133	13.130	971.469	734.366
111.147	13.343	970.076	734.192
112.162	13.343	968.841	733.193
113.176	13.338	968.222	732.639
114.191	13.471	967.525	732.634
115.206	13.292	967.033	731.404
116.220	13.398	965.996	731.023
117.235	13.367	965.691	730.594
118.249	13.323	964.655	729.549
119.264	13.381	963.381	728.776
120.279	13.369	962.530	728.016
121.293	13.229	962.153	727.053
122.308	13.316	961.461	726.846
123.322	13.189	960.717	725.664
124.337	13.086	959.715	724.391
125.352	13.224	958.436	723.962
126.366	13.271	957.031	723.046
127.381	13.174	956.285	721.991
128.395	13.189	955.176	721.157
129.410	13.232	954.289	720.610
130.424	13.290	953.485	720.191
131.439	13.281	952.575	719.403
132.454	13.377	951.495	718.940
133.468	13.442	950.940	718.741
134.483	13.459	950.841	718.675
135.497	13.331	949.878	717.329
136.512	13.239	949.352	716.469
137.527	13.404	948.735	716.654
138.541	13.344	947.421	715.341
139.556	13.520	947.056	715.760
140.570	13.400	946.501	714.758
141.585	13.381	945.397	713.780
142.600	13.457	944.853	713.635
143.614	13.622	943.993	713.633
144.629	13.509	943.430	712.660
145.643	13.589	943.037	712.644
146.658	13.688	941.692	711.988
147.673	13.637	940.846	711.067
148.687	13.545	939.709	709.750
149.702	13.405	939.124	708.644
150.716	13.412	938.442	708.097
151.731	13.399	937.492	707.265
152.746	13.402	936.517	706.479
153.760	13.482	936.152	706.483
154.775	13.471	935.257	705.696
155.789	13.480	934.737	705.280
156.804	13.600	933.798	705.018
157.819	13.619	933.083	704.497
158.833	13.593	932.686	704.025
159.848	13.797	931.622	704.026
160.862	13.660	931.147	703.026
161.877	13.696	930.624	702.720
162.892	13.616	929.420	701.410
163.906	13.538	928.583	700.385
164.921	13.490	928.115	699.769
165.935	13.477	927.174	698.941
166.950	13.578	925.889	698.337
167.964	13.497	925.174	697.393
168.979	13.563	923.946	696.685
169.994	13.591	922.927	695.975
171.008	13.619	922.141	695.436
172.023	13.622	921.900	695.205
173.037	13.666	921.096	694.722
174.052	13.749	919.884	694.096
175.067	13.718	919.257	693.428
176.081	13.802	918.673	693.278
177.096	13.693	917.587	691.943
178.110	13.596	917.070	691.086
179.125	13.639	916.289	690.616
180.140	13.614	915.632	689.956
181.154	13.662	914.593	689.313
182.169	13.610	914.064	688.635
183.183	13.672	913.886	688.699
184.198	13.793	913.134	688.574
185.213	13.894	912.151	688.189
186.227	13.920	911.543	687.779
187.242	13.814	911.542	687.276
188.256	13.913	910.502	686.843
189.271	14.006	909.551	686.446
190.286	13.995	909.131	686.027
191.300	13.835	907.987	684.442
192.315	13.766	907.375	683.635
193.329	13.577	906.824	682.381
194.344	13.622	906.149	681.998
195.359	13.639	905.719	681.685
196.373	13.872	905.227	682.212
197.388	13.837	904.896	681.758
198.402	13.942	903.719	681.243
199.417	13.997	903.442	681.196
200.432	14.118	903.480	681.663
201.446	14.120	903.091	681.317
202.461	14.104	902.524	680.763
203.475	14.160	902.229	680.710
204.490	14.232	901.381	680.303
205.504	14.260	900.189	679.459
206.519	14.075	899.866	678.397
207.534	14.022	899.249	677.659
208.548	14.079	898.034	676.915
209.563	14.031	897.484	676.244
210.577	13.999	897.000	675.690
211.592	14.114	896.012	675.353
212.607	14.159	895.549	675.127
213.621	14.211	895.466	675.217
214.636	14.229	894.106	674.204
215.650	14.285	893.735	674.092
216.665	14.307	893.032	673.589
217.680	14.373	892.443	673.351
218.694	14.304	892.250	672.870
219.709	14.363	891.551	672.519
220.723	14.301	891.269	671.995
221.738	14.485	890.249	671.909
222.753	14.375	889.529	670.864
223.767	14.433	888.783	670.476
224.782	14.459	888.018	669.943
225.796	14.380	887.508	669.181
226.811	14.312	887.208	668.624
227.826	14.485	886.087	668.416
228.840	14.335	885.692	667.457
229.855	14.432	884.674	667.019
230.869	14.495	883.956	666.669
231.884	14.516	883.335	666.226
232.899	14.329	882.951	665.130
233.913	14.483	881.956	664.937
234.928	14.439	881.381	664.270
235.942	14.235	880.961	663.083
236.957	14.330	880.185	662.817
237.972	14.334	879.595	662.327
238.986	14.455	878.792	662.147
240.001	14.242	878.445	660.981
241.015	14.380	877.730	660.931
242.030	14.561	876.290	660.507
243.045	14.499	875.930	659.930
244.059	14.449	875.732	659.524
245.074	14.656	874.942	659.691
246.088	14.522	874.183	658.530
247.103	14.525	874.269	658.548
248.117	14.725	873.084	658.385
249.132	14.578	872.850	657.573
250.147	14.699	872.269	657.552
251.161	14.872	871.814	657.833
252.176	14.973	871.125	657.651
253.190	15.011	870.235	657.072
254.205	14.968	869.574	656.346
255.220	15.072	868.773	656.090
256.234	14.899	868.415	655.082
257.249	15.093	867.854	655.361
258.263	14.929	867.572	654.449
259.278	15.045	866.728	654.207
260.293	15.009	866.466	653.810
261.307	15.011	865.969	653.386
262.322	15.104	865.367	653.237
263.336	15.229	864.833	653.265
264.351	15.223	863.839	652.433
265.366	15.134	862.660	651.139
266.380	15.113	862.543	650.910
267.395	15.293	861.643	650.872
268.409	15.192	861.021	649.953
269.424	15.089	860.655	649.220
270.439	15.092	859.860	648.573
271.453	15.204	859.064	648.351
272.468	15.376	857.965	648.129
273.482	15.114	857.668	646.834
274.497	15.041	857.296	646.214
275.512	15.169	856.301	645.899
276.526	15.174	855.479	645.241
277.541	15.222	855.045	645.044
278.555	15.156	854.887	644.613
279.570	15.213	854.312	644.343
280.585	15.355	853.652	644.332
281.599	15.316	853.400	643.933
282.614	15.307	852.629	643.264
283.628	15.283	852.107	642.719
284.643	15.255	851.529	642.120
285.657	15.245	850.682	641.387
286.672	15.295	850.541	641.414
287.687	15.385	849.845	641.175
288.701	15.311	849.278	640.410
289.716	15.350	848.622	640.007
290.730	15.404	848.201	639.838
291.745	15.357	847.727	639.246
292.760	15.423	846.614	638.599
293.774	15.406	846.450	638.355
294.789	15.532	845.926	638.382
295.803	15.487	845.345	637.715
296.818	15.481	844.517	637.013
297.833	15.432	844.046	636.414
298.847	15.425	843.133	635.646
299.862	15.540	842.275	635.378
300.876	15.443	842.049	634.784
301.891	15.554	841.084	634.418
302.906	15.607	840.256	633.939
303.920	15.582	840.103	633.672
304.935	15.707	839.605	633.712
305.949	15.855	838.301	633.228
306.964	15.809	837.724	632.562
307.979	15.817	837.572	632.424
308.993	15.793	837.132	631.945
310.008	15.840	836.499	631.585
311.022	15.838	836.161	631.269
312.037	15.687	835.901	630.451
313.052	15.723	835.058	629.893
314.066	15.744	834.392	629.414
315.081	15.606	833.968	628.522
316.095	15.697	833.408	628.386
317.110	15.830	832.468	628.114
318.125	15.849	831.920	627.717
319.139	15.798	831.410	627.089
320.154	15.769	831.099	626.690
321.168	15.783	830.357	626.129
322.183	15.850	829.914	625.987
323.197	15.755	830.034	625.670
324.212	15.812	828.973	625.025
325.227	15.812	828.641	624.720
326.241	15.897	828.200	624.647
327.256	15.752	827.499	623.524
328.270	15.885	826.982	623.573
329.285	15.814	826.531	622.917
330.300	15.879	825.574	622.380
331.314	15.968	824.710	622.002
332.329	15.869	824.328	621.295
333.343	16.002	823.728	621.277
334.358	16.117	822.913	621.028
335.373	16.016	822.920	620.607
336.387	16.040	822.037	619.977
337.402	16.119	821.580	619.866
338.416	16.165	820.762	619.363
339.431	16.120	820.627	619.041
340.446	16.293	819.992	619.144
341.460	16.288	819.270	618.526
342.475	16.271	818.953	618.168
343.489	16.352	818.344	617.949
344.504	16.420	817.969	617.860
345.519	16.267	817.442	616.848
346.533	16.374	817.116	616.940
347.548	16.322	816.460	616.200
348.562	16.196	816.310	615.571
349.577	16.211	815.688	615.104
350.592	16.274	814.923	614.700
351.606	16.146	814.648	613.972
352.621	16.400	813.735	614.155
353.635	16.324	813.466	613.620
354.650	16.234	812.811	612.745
355.665	16.307	812.419	612.661
356.679	16.296	812.509	612.637
357.694	16.369	811.926	612.405
358.708	16.426	811.067	611.912
359.723	16.466	810.135	611.296
360.738	16.358	810.226	610.922
361.752	16.353	809.629	610.399
362.767	16.452	809.323	610.473
363.781	16.555	808.580	610.228
364.796	16.532	808.571	610.085
365.810	16.611	807.825	609.753
366.825	16.596	807.638	609.505
367.840	16.834	807.142	609.932
368.854	16.757	806.656	609.233
369.869	16.639	806.615	608.726
370.883	16.780	805.555	608.378
371.898	16.530	805.454	607.350
372.913	16.706	804.465	607.181
373.927	16.772	804.209	607.170
374.942	16.723	803.531	606.431
375.956	16.748	802.432	605.637
376.971	16.857	801.931	605.594
377.986	16.851	801.818	605.434
379.000	16.977	801.369	605.492
380.015	16.916	800.801	604.791
381.029	16.923	800.272	604.363
382.044	16.816	799.987	603.714
383.059	17.032	799.194	603.830
384.073	16.874	798.239	602.494
385.088	17.007	798.119	602.823
386.102	16.916	797.313	601.836
387.117	16.985	796.810	601.650
388.132	16.902	796.336	600.944
389.146	16.869	796.296	600.742
390.161	16.779	795.859	600.041
391.175	16.750	795.667	599.742
392.190	17.172	794.797	600.525
393.205	16.914	794.692	599.478
394.219	17.066	793.899	599.366
395.234	17.029	793.274	598.709
396.248	16.949	793.136	598.270
397.263	16.993	792.382	597.805
398.278	16.915	791.998	597.185
399.292	16.819	791.548	596.457
400.307	16.968	791.085	596.580
401.321	16.876	790.916	596.076
402.336	16.830	791.021	595.938
403.350	17.017	790.198	595.925
404.365	17.120	789.974	596.063
405.380	17.021	789.407	595.235
406.394	17.247	788.599	595.364
407.409	17.058	788.344	594.459
408.423	17.028	788.313	594.276
409.438	17.306	787.589	594.650
410.453	17.218	787.206	594.001
411.467	17.316	786.517	593.771
412.482	17.423	786.221	593.869
413.496	17.426	785.631	593.383
414.511	17.370	785.453	593.000
415.526	17.370	785.206	592.762
416.540	17.516	784.551	592.720
417.555	17.382	784.334	592.040
418.569	17.310	783.876	591.390
419.584	17.405	783.282	591.220
420.599	17.502	782.780	591.126
421.613	109.569	1291.459	1470.441
422.628	93.820	1365.563	1470.531
