DTS Sentinel unit serial number:	SN413079Multiplexer serial number:	ORYXHardware model number:	OX4-SRSoftware version number:	ORYX F/W v4.00 Oryx Data Collector v3.7.2.0data status	okinstallation	princeton_trtdifferential loss correction	single-endedforward channel	channel 3reverse channel	N/Adate	2019/09/11time	04:34:11forward acquisition time	60.00reverse acquisition time	0.00gamma	496.2192k internal	0.2331k external	0.2331temperature offset calibration	0.9910default loss term (dB/km)	0.3790temperature slope calibration	1.0000multiplexer offset coefficient	1.0000multiplexer slope coefficient	1.0000fibre end	0.00T internal ref (°C)	29.55T ext. ref 1 (°C)	-0.28T ext. ref 2 (°C)	23.34length (m)	temperature (°C)	Stokes	anti-Stokes-747.200	-95.692	-0.161	0.043
-746.185	328.131	-0.095	0.184
-745.171	800.000	-0.171	-0.570
-744.156	237.273	0.093	-0.155
-743.142	-167.942	0.191	0.008
-742.127	11.548	0.211	0.163
-741.112	-200.000	0.023	0.146
-740.098	578.872	-0.094	0.231
-739.083	-46.121	-0.271	-0.135
-738.069	-8.439	-0.225	0.152
-737.054	-200.000	0.051	0.246
-736.039	-130.897	-0.328	-0.044
-735.025	-160.433	0.222	0.012
-734.010	-26.846	-0.319	-0.188
-732.996	81.167	0.221	-0.240
-731.981	15.372	-0.158	-0.125
-730.966	-4.325	-0.137	0.095
-729.952	-64.781	0.074	0.030
-728.937	-112.894	0.100	-0.020
-727.923	31.896	0.277	-0.240
-726.908	-21.069	0.210	0.129
-725.894	-15.359	0.025	-0.016
-724.879	3.707	-0.114	0.084
-723.864	-165.859	-0.426	0.018
-722.850	170.112	0.045	-0.065
-721.835	-200.000	0.035	-0.221
-720.821	-69.094	-0.262	-0.102
-719.806	-99.236	0.274	-0.070
-718.791	577.489	0.070	0.172
-717.777	-49.073	-0.305	0.147
-716.762	-13.861	-0.185	0.120
-715.748	67.390	-0.114	-0.117
-714.733	-200.000	0.015	0.430
-713.718	-200.000	-0.022	-0.110
-712.704	-153.808	-0.082	-0.006
-711.689	793.282	0.050	0.140
-710.675	147.908	0.187	0.253
-709.660	800.000	0.036	0.124
-708.645	12.491	0.257	0.199
-707.631	-200.000	0.024	0.118
-706.616	-200.000	0.043	-0.358
-705.602	-132.655	-0.179	-0.023
-704.587	-162.804	-0.200	-0.010
-703.572	-7.922	-0.151	0.103
-702.558	-121.492	0.183	-0.031
-701.543	84.110	-0.071	-0.078
-700.529	74.909	0.173	-0.184
-699.514	14.119	-0.231	0.181
-698.499	-42.161	0.123	0.063
-697.485	800.000	-0.047	0.190
-696.470	76.881	-0.109	0.116
-695.456	-136.997	-0.263	-0.030
-694.441	-102.358	0.071	0.017
-693.426	-31.645	0.269	0.152
-692.412	-70.798	-0.207	-0.078
-691.397	-62.986	-0.193	-0.080
-690.383	791.617	0.045	-0.125
-689.368	191.343	0.070	0.106
-688.354	-57.930	-0.146	-0.064
-687.339	496.622	0.097	-0.225
-686.324	-134.809	-0.140	0.017
-685.310	29.006	-0.143	-0.122
-684.295	-77.102	0.079	0.028
-683.281	-15.029	0.220	0.142
-682.266	51.287	-0.207	0.197
-681.251	306.718	-0.124	-0.231
-680.237	-200.000	-0.013	-0.247
-679.222	-13.885	0.368	-0.239
-678.208	387.055	-0.085	-0.177
-677.193	-50.276	-0.215	0.102
-676.178	-158.098	-0.196	0.012
-675.164	32.460	-0.103	0.090
-674.149	-200.000	0.016	0.106
-673.135	313.684	0.130	-0.245
-672.120	-52.701	0.142	-0.066
-671.105	126.334	0.177	0.225
-670.091	128.913	-0.125	-0.161
-669.076	-129.510	-0.172	0.024
-668.062	-200.000	0.032	0.160
-667.047	-29.188	0.105	-0.060
-666.032	-73.365	-0.303	0.111
-665.018	-85.902	-0.090	0.028
-664.003	-200.000	0.011	-0.213
-662.989	-200.000	-0.008	0.064
-661.974	-148.467	-0.358	-0.029
-660.959	-72.579	-0.180	0.067
-659.945	89.061	-0.148	0.165
-658.930	175.757	-0.196	-0.285
-657.916	191.336	0.061	-0.092
-656.901	-49.618	-0.406	0.194
-655.886	130.942	-0.114	-0.147
-654.872	125.679	-0.209	-0.264
-653.857	800.000	-0.047	-0.151
-652.843	800.000	0.048	0.157
-651.828	-200.000	-0.009	-0.202
-650.814	-200.000	0.119	-0.001
-649.799	150.821	-0.102	-0.139
-648.784	771.125	-0.042	-0.114
-647.770	-142.390	0.060	-0.006
-646.755	608.072	-0.127	0.317
-645.741	-200.000	0.010	0.082
-644.726	345.898	0.043	0.084
-643.711	497.871	0.057	-0.132
-642.697	-100.136	-0.123	-0.031
-641.682	-101.462	-0.142	-0.035
-640.668	-58.647	0.150	0.065
-639.653	-106.049	0.297	0.067
-638.638	217.710	0.185	0.296
-637.624	-75.121	-0.136	-0.049
-636.609	-82.489	-0.343	-0.112
-635.595	193.970	-0.151	-0.229
-634.580	-38.280	0.201	0.107
-633.565	14.435	-0.237	-0.185
-632.551	-162.474	-0.153	0.008
-631.536	-200.000	-0.004	0.104
-630.522	326.370	0.184	0.353
-629.507	380.718	-0.053	-0.109
-628.492	-200.000	-0.023	-0.241
-627.478	-28.019	0.385	0.223
-626.463	30.862	-0.085	0.073
-625.449	800.000	-0.109	-0.376
-624.434	138.645	0.233	0.307
-623.419	-67.242	0.305	0.120
-622.405	-125.950	-0.020	0.003
-621.390	-200.000	-0.030	0.210
-620.376	296.462	-0.040	0.074
-619.361	369.412	-0.036	0.073
-618.346	-200.000	-0.028	-0.361
-617.332	157.831	0.065	-0.090
-616.317	800.000	0.113	0.480
-615.303	-61.364	0.147	0.062
-614.288	158.776	-0.141	-0.196
-613.273	-116.886	-0.205	0.038
-612.259	1.878	0.169	-0.122
-611.244	-47.115	0.165	-0.081
-610.230	31.199	0.082	-0.070
-609.215	7.800	-0.257	-0.193
-608.201	-125.520	-0.270	-0.041
-607.186	31.633	0.234	0.202
-606.171	10.795	-0.228	-0.174
-605.157	322.181	-0.100	-0.190
-604.142	50.250	-0.288	0.273
-603.128	-28.732	-0.318	-0.183
-602.113	100.626	-0.198	-0.230
-601.098	22.871	0.134	-0.110
-600.084	89.578	-0.141	-0.158
-599.069	-200.000	-0.003	0.034
-598.055	-182.634	0.343	0.006
-597.040	-188.090	-0.080	0.001
-596.025	246.724	-0.070	0.118
-595.011	-2.174	0.132	-0.092
-593.996	-127.063	0.241	0.035
-592.982	-72.096	0.144	0.054
-591.967	469.622	-0.045	-0.101
-590.952	-11.084	0.295	-0.195
-589.938	-31.696	-0.052	-0.029
-588.923	-30.506	0.082	0.046
-587.909	169.233	0.154	-0.220
-586.894	-200.000	-0.020	0.126
-585.879	-200.000	-0.027	0.163
-584.865	-200.000	-0.050	0.251
-583.850	15.625	0.088	0.069
-582.836	656.569	-0.061	0.156
-581.821	299.973	0.261	-0.481
-580.806	-200.000	-0.036	-0.384
-579.792	-200.000	0.000	0.321
-578.777	800.000	0.042	-0.119
-577.763	-200.000	-0.021	-0.420
-576.748	472.693	-0.036	0.082
-575.733	286.747	-0.029	0.053
-574.719	-113.877	0.301	0.059
-573.704	-41.127	0.129	0.066
-572.690	259.485	-0.209	-0.360
-571.675	-200.000	-0.004	-0.408
-570.661	-200.000	-0.041	-0.215
-569.646	-200.000	-0.074	0.000
-568.631	-58.302	0.180	0.078
-567.617	45.927	-0.155	0.144
-566.602	178.672	-0.111	-0.162
-565.588	63.472	0.047	0.047
-564.573	197.279	0.125	-0.190
-563.558	-100.898	-0.120	0.030
-562.544	-105.431	0.247	0.056
-561.529	110.407	-0.098	0.117
-560.515	38.138	-0.176	-0.156
-559.500	-192.210	-0.252	0.002
-558.485	-89.469	0.132	0.039
-557.471	-92.990	-0.329	-0.092
-556.456	112.107	0.151	0.183
-555.442	30.179	-0.351	0.299
-554.427	-22.980	-0.154	-0.093
-553.412	70.047	0.160	-0.165
-552.398	110.827	0.078	0.094
-551.383	-200.000	-0.054	0.446
-550.369	213.778	-0.098	0.155
-549.354	-200.000	0.039	-0.522
-548.339	800.000	-0.075	-0.287
-547.325	171.678	0.067	0.096
-546.310	-129.307	-0.125	0.017
-545.296	16.794	-0.223	-0.176
-544.281	-200.000	-0.002	-0.218
-543.266	-200.000	0.029	0.241
-542.252	438.466	0.027	0.060
-541.237	12.480	0.393	-0.303
-540.223	800.000	-0.048	0.169
-539.208	64.943	-0.143	-0.145
-538.193	167.451	-0.028	-0.040
-537.179	800.000	0.103	0.353
-536.164	-200.000	-0.003	-0.070
-535.150	62.431	-0.206	-0.206
-534.135	-8.402	0.207	-0.139
-533.121	63.371	-0.293	0.293
-532.106	-70.583	0.236	-0.089
-531.091	-115.789	-0.107	-0.020
-530.077	-200.000	0.008	0.188
-529.062	177.051	-0.074	0.107
-528.048	226.773	-0.015	-0.025
-527.033	800.000	-0.082	0.282
-526.018	-36.791	-0.244	-0.131
-525.004	-200.000	0.200	0.000
-523.989	115.157	-0.176	-0.214
-522.975	-200.000	-0.050	-0.371
-521.960	2.105	-0.242	-0.175
-520.945	-200.000	0.006	0.112
-519.931	173.054	-0.134	-0.192
-518.916	128.070	-0.072	-0.092
-517.902	-110.733	0.311	0.064
-516.887	61.647	-0.168	-0.167
-515.872	-147.272	0.331	-0.028
-514.858	234.872	-0.017	0.028
-513.843	720.461	0.116	0.308
-512.829	504.130	-0.097	0.224
-511.814	472.150	0.007	-0.015
-510.799	800.000	0.056	-0.239
-509.785	-94.557	0.227	0.062
-508.770	227.410	0.071	-0.115
-507.756	135.726	-0.298	-0.386
-506.741	433.727	-0.155	-0.336
-505.726	-105.913	0.102	-0.023
-504.712	17.783	0.101	0.080
-503.697	-200.000	-0.046	-0.330
-502.683	-200.000	-0.022	-0.258
-501.668	-200.000	-0.060	-0.332
-500.653	281.672	0.137	0.245
-499.639	325.995	-0.130	-0.247
-498.624	-128.428	-0.151	0.021
-497.610	-143.593	0.086	0.008
-496.595	-154.921	0.313	-0.021
-495.581	-91.667	0.021	-0.006
-494.566	76.667	-0.256	-0.271
-493.551	270.907	0.159	-0.278
-492.537	800.000	0.100	0.280
-491.522	733.416	-0.105	0.281
-490.508	-200.000	-0.029	0.423
-489.493	800.000	-0.018	0.068
-488.478	-104.240	-0.247	0.057
-487.464	243.085	0.058	-0.097
-486.449	162.663	-0.135	-0.188
-485.435	355.965	-0.068	0.135
-484.420	-69.561	0.344	0.131
-483.405	368.537	-0.159	-0.321
-482.391	-49.190	0.205	-0.097
-481.376	-25.031	0.212	-0.125
-480.362	31.855	-0.112	-0.096
-479.347	-200.000	0.007	-0.288
-478.332	-48.763	-0.082	-0.039
-477.318	-200.000	0.058	0.530
-476.303	-114.620	-0.166	-0.032
-475.289	114.408	-0.216	0.262
-474.274	-69.146	0.160	-0.062
-473.259	69.134	0.205	-0.210
-472.245	72.939	0.035	-0.037
-471.230	516.274	-0.028	-0.065
-470.216	-36.315	-0.301	-0.162
-469.201	-8.618	-0.064	0.043
-468.186	161.184	-0.179	-0.249
-467.172	119.020	-0.196	0.241
-466.157	-154.088	0.112	-0.008
-465.143	800.000	-0.063	0.260
-464.128	-150.436	0.038	-0.003
-463.113	145.683	0.106	-0.142
-462.099	-136.422	-0.382	0.044
-461.084	238.875	-0.186	0.308
-460.070	-121.988	0.417	-0.068
-459.055	12.726	-0.257	0.197
-458.040	-66.713	-0.167	0.066
-457.026	-200.000	0.008	0.314
-456.011	-97.221	0.149	0.039
-454.997	-117.190	-0.339	0.061
-453.982	79.719	-0.105	0.112
-452.968	-121.939	-0.093	0.015
-451.953	-200.000	-0.006	-0.252
-450.938	-58.849	-0.193	0.083
-449.924	214.613	0.080	-0.127
-448.909	-200.000	0.017	0.255
-447.895	-3.656	-0.227	0.157
-446.880	87.404	0.230	-0.253
-445.865	-133.679	0.113	-0.014
-444.851	58.667	-0.104	-0.101
-443.836	123.508	0.120	0.150
-442.822	-38.871	-0.187	-0.098
-441.807	-108.461	0.400	0.086
-440.792	268.603	0.148	0.259
-439.778	466.022	-0.069	0.154
-438.763	-3.817	-0.060	-0.042
-437.749	102.307	-0.189	0.219
-436.734	-200.000	-0.027	-0.258
-435.719	-177.895	-0.043	-0.001
-434.705	118.228	-0.075	-0.092
-433.690	-186.764	0.480	0.007
-432.676	-16.933	0.055	0.035
-431.661	-49.335	0.283	0.134
-430.646	-121.922	-0.215	-0.035
-429.632	90.081	-0.183	0.203
-428.617	800.000	0.023	0.068
-427.603	186.456	-0.383	-0.566
-426.588	-200.000	-0.010	0.152
-425.573	-45.698	0.185	0.091
-424.559	-77.441	-0.401	-0.138
-423.544	-200.000	-0.041	-0.257
-422.530	-200.000	0.009	0.117
-421.515	239.259	-0.070	-0.115
-420.500	-55.790	0.210	0.093
-419.486	3.638	0.137	0.099
-418.471	623.915	0.059	-0.148
-417.457	-119.268	0.246	-0.043
-416.442	-12.965	-0.047	-0.030
-415.428	-199.389	0.336	-0.002
-414.413	-142.152	-0.032	-0.003
-413.398	118.762	-0.230	0.283
-412.384	-77.496	0.038	0.013
-411.369	70.671	0.140	-0.144
-410.355	258.557	-0.047	0.081
-409.340	-39.009	-0.084	-0.044
-408.325	255.892	-0.281	-0.479
-407.311	-96.507	0.143	0.038
-406.296	-128.793	-0.165	0.023
-405.282	-25.773	-0.048	-0.028
-404.267	30.535	-0.100	-0.085
-403.252	91.672	-0.171	-0.191
-402.238	800.000	0.032	0.112
-401.223	-36.303	0.349	0.187
-400.209	800.000	0.114	0.353
-399.194	-200.000	0.036	0.165
-398.179	-6.576	-0.236	0.160
-397.165	-102.404	0.214	0.051
-396.150	800.000	0.089	0.246
-395.136	-200.000	-0.026	0.247
-394.121	171.495	0.031	0.044
-393.106	43.502	-0.128	0.116
-392.092	-75.363	-0.166	-0.059
-391.077	-200.000	-0.048	-0.368
-390.063	-93.549	-0.297	0.082
-389.048	-200.000	-0.058	0.300
-388.033	4.169	-0.467	0.340
-387.019	472.880	-0.125	-0.280
-386.004	204.024	-0.049	-0.076
-384.990	141.255	-0.270	0.355
-383.975	-200.000	0.017	0.376
-382.960	800.000	0.114	0.373
-381.946	94.078	0.040	0.045
-380.931	139.195	-0.315	0.411
-379.917	59.170	0.103	0.100
-378.902	-64.767	0.275	-0.110
-377.888	-62.559	-0.109	0.045
-376.873	192.987	0.158	-0.237
-375.858	91.947	0.199	0.223
-374.844	11.649	0.173	-0.132
-373.829	-121.561	-0.116	-0.019
-372.815	-200.000	0.005	0.340
-371.800	-68.122	0.324	-0.125
-370.785	-13.208	-0.314	-0.203
-369.771	-66.012	-0.088	0.035
-368.756	-87.522	-0.165	0.050
-367.742	-54.499	0.121	-0.054
-366.727	752.583	0.070	0.186
-365.712	-129.907	-0.097	-0.013
-364.698	80.571	0.127	-0.135
-363.683	-200.000	0.025	-0.145
-362.669	343.468	0.122	-0.237
-361.654	30.890	0.058	-0.049
-360.639	234.907	-0.096	0.157
-359.625	-200.000	0.026	0.114
-358.610	-200.000	0.002	0.226
-357.596	-50.398	-0.175	-0.082
-356.581	55.775	-0.246	0.236
-355.566	-200.000	-0.009	0.181
-354.552	-200.000	0.016	-0.121
-353.537	-200.000	-0.033	0.153
-352.523	-23.359	0.054	-0.032
-351.508	-159.759	-0.264	-0.014
-350.493	-72.252	0.253	-0.093
-349.479	-71.107	0.195	-0.073
-348.464	434.420	0.077	-0.167
-347.450	47.040	-0.171	-0.158
-346.435	-76.364	0.173	-0.060
-345.420	-4.985	0.287	0.196
-344.406	800.000	-0.011	0.046
-343.391	-45.066	-0.062	-0.031
-342.377	-44.375	0.287	-0.142
-341.362	64.705	-0.064	0.064
-340.348	-129.602	0.398	0.054
-339.333	800.000	0.045	-0.177
-338.318	299.295	-0.048	0.088
-337.304	91.104	0.190	0.211
-336.289	-29.206	0.168	-0.095
-335.275	-111.167	-0.088	0.018
-334.260	16.276	0.170	-0.133
-333.245	-200.000	0.018	0.085
-332.231	-4.235	0.325	0.223
-331.216	-147.855	-0.183	0.015
-330.202	-0.483	-0.107	0.075
-329.187	257.257	-0.067	-0.114
-328.172	149.887	0.045	0.060
-327.158	800.000	-0.090	0.385
-326.143	-169.460	0.175	-0.006
-325.129	-200.000	-0.038	0.181
-324.114	-4.819	-0.203	-0.139
-323.099	-200.000	0.009	0.268
-322.085	56.030	-0.079	-0.076
-321.070	66.202	0.119	-0.120
-320.056	-200.000	0.031	-0.186
-319.041	-105.366	0.017	0.004
-318.026	-107.744	-0.279	0.060
-317.012	-1.504	-0.208	-0.145
-315.997	-200.000	0.025	-0.191
-314.983	-43.055	0.245	-0.123
-313.968	-162.767	0.482	0.023
-312.953	-200.000	-0.001	0.301
-311.939	-68.232	-0.340	0.131
-310.924	21.171	0.121	0.097
-309.910	-104.473	-0.150	-0.034
-308.895	-161.477	0.277	-0.014
-307.880	286.685	-0.013	-0.023
-306.866	-200.000	0.004	0.089
-305.851	-116.052	-0.151	-0.028
-304.837	-72.383	-0.149	0.054
-303.822	15.448	0.199	0.155
-302.807	-21.326	-0.099	0.060
-301.793	21.150	0.041	-0.033
-300.778	-63.826	0.468	-0.190
-299.764	-200.000	-0.051	0.245
-298.749	-200.000	0.030	-0.198
-297.735	-138.484	-0.222	0.024
-296.720	-65.105	-0.373	0.149
-295.705	279.912	-0.182	0.322
-294.691	-200.000	-0.027	-0.137
-293.676	194.422	0.059	0.089
-292.662	-102.133	0.328	-0.078
-291.647	800.000	-0.091	-0.325
-290.632	-31.081	-0.259	-0.144
-289.618	212.294	-0.157	0.245
-288.603	800.000	0.067	0.206
-287.589	-200.000	0.013	-0.245
-286.574	-10.584	0.288	-0.189
-285.559	114.677	-0.136	-0.164
-284.545	-200.000	0.055	-0.287
-283.530	-50.745	-0.148	-0.069
-282.516	139.745	0.141	-0.183
-281.501	-11.212	-0.202	-0.132
-280.486	200.729	0.020	-0.031
-279.472	-35.820	0.253	-0.136
-278.457	-110.618	0.031	-0.006
-277.443	800.000	0.076	0.245
-276.428	-13.053	-0.150	-0.097
-275.413	-28.395	-0.314	0.179
-274.399	97.262	-0.080	0.091
-273.384	-74.107	-0.156	0.056
-272.370	159.893	0.086	-0.119
-271.355	-124.806	-0.296	-0.045
-270.340	800.000	-0.053	0.205
-269.326	164.224	-0.165	-0.230
-268.311	800.000	-0.032	-0.087
-267.297	-180.427	0.110	0.002
-266.282	600.077	0.017	0.041
-265.267	-37.677	0.216	-0.114
-264.253	800.000	0.082	-0.277
-263.238	20.606	0.005	0.004
-262.224	-101.868	0.068	0.016
-261.209	-200.000	-0.004	-0.281
-260.195	-117.054	-0.257	0.046
-259.180	111.992	-0.138	0.165
-258.165	-28.177	0.090	0.051
-257.151	201.371	-0.108	-0.165
-256.136	-68.884	0.313	0.120
-255.122	227.054	-0.078	-0.126
-254.107	-13.608	-0.258	0.165
-253.092	664.378	0.026	0.067
-252.078	43.590	0.107	0.097
-251.063	29.796	0.058	0.049
-250.049	298.361	0.122	-0.222
-249.034	62.307	-0.221	0.218
-248.019	-157.778	0.516	-0.030
-247.005	-200.000	-0.023	-0.121
-245.990	-200.000	-0.001	-0.148
-244.976	-23.290	0.166	-0.098
-243.961	470.502	0.062	0.138
-242.946	-58.512	0.152	0.065
-241.932	202.126	0.099	0.151
-240.917	230.589	-0.165	-0.267
-239.903	-149.591	0.061	-0.005
-238.888	33.959	-0.105	-0.091
-237.873	-200.000	0.018	-0.276
-236.859	-86.216	0.132	-0.040
-235.844	-91.993	0.113	0.032
-234.830	-29.799	0.303	0.170
-233.815	-200.000	-0.006	0.329
-232.800	-151.940	0.310	-0.022
-231.786	-200.000	0.030	-0.149
-230.771	792.287	-0.028	0.076
-229.757	665.368	-0.101	-0.257
-228.742	141.744	0.167	0.218
-227.727	232.716	0.105	-0.170
-226.713	-200.000	0.017	-0.311
-225.698	55.062	0.360	0.343
-224.684	131.549	0.173	0.219
-223.669	-41.347	-0.220	-0.112
-222.655	87.546	-0.084	-0.092
-221.640	60.383	-0.062	-0.061
-220.625	-86.279	0.164	-0.050
-219.611	-87.760	-0.159	-0.047
-218.596	-73.155	-0.103	-0.037
-217.582	-200.000	0.032	0.349
-216.567	119.542	0.209	0.255
-215.552	-37.336	0.112	-0.059
-214.538	-192.342	-0.178	0.002
-213.523	-200.000	0.025	0.122
-212.509	-143.046	0.116	-0.011
-211.494	118.545	0.156	-0.190
-210.479	156.204	-0.157	0.214
-209.465	1.257	-0.047	-0.033
-208.450	800.000	-0.095	-0.353
-207.436	277.085	-0.146	0.256
-206.421	800.000	-0.052	0.175
-205.406	-200.000	-0.005	0.087
-204.392	567.140	0.063	-0.151
-203.377	800.000	-0.008	-0.027
-202.363	-55.098	0.336	0.149
-201.348	-74.932	-0.358	-0.127
-200.333	129.730	0.240	0.303
-199.319	51.895	0.089	0.083
-198.304	-22.048	0.122	-0.073
-197.290	661.111	0.022	0.055
-196.275	527.224	-0.112	-0.261
-195.260	91.480	0.173	0.192
-194.246	221.365	-0.123	0.195
-193.231	72.673	0.079	0.082
-192.217	-86.885	0.187	0.056
-191.202	-200.000	0.018	0.200
-190.187	25.249	-0.059	-0.048
-189.173	-104.452	0.324	-0.074
-188.158	69.126	0.172	-0.174
-187.144	-103.455	0.176	-0.041
-186.129	1.579	0.158	0.112
-185.114	800.000	-0.043	-0.175
-184.100	-200.000	0.000	-0.113
-183.085	20.185	0.012	-0.010
-182.071	-200.000	0.048	-0.436
-181.056	38.492	-0.068	0.060
-180.042	375.598	0.183	0.367
-179.027	-200.000	0.030	0.373
-178.012	98.109	0.152	-0.172
-176.998	-200.000	0.053	-0.304
-175.983	-200.000	-0.025	-0.126
-174.969	-113.039	-0.347	0.067
-173.954	50.165	-0.203	0.189
-172.939	192.066	0.076	0.113
-171.925	-200.000	-0.003	0.115
-170.910	231.566	0.040	0.064
-169.896	-111.804	0.202	-0.040
-168.881	81.403	-0.046	-0.049
-167.866	-59.963	-0.200	-0.084
-166.852	-5.415	-0.324	0.219
-165.837	-113.061	-0.082	-0.016
-164.823	-157.533	0.294	0.017
-163.808	-129.122	-0.113	0.016
-162.793	282.101	0.262	-0.462
-161.779	17.251	0.259	-0.202
-160.764	-49.642	-0.198	-0.093
-159.750	-185.989	-0.243	-0.004
-158.735	800.000	-0.157	0.490
-157.720	-123.863	-0.101	-0.016
-156.706	-54.149	-0.076	0.034
-155.691	687.768	-0.034	0.086
-154.677	-200.000	-0.011	0.273
-153.662	-14.256	-0.171	0.108
-152.647	655.757	0.107	-0.270
-151.633	-163.781	0.065	0.003
-150.618	621.385	-0.139	0.345
-149.604	36.233	0.222	0.193
-148.589	-67.000	0.149	0.058
-147.574	623.880	-0.055	-0.136
-146.560	-47.240	-0.223	-0.107
-145.545	-25.492	-0.201	-0.117
-144.531	-138.960	-0.363	-0.039
-143.516	29.804	0.179	-0.150
-142.502	84.153	-0.194	-0.208
-141.487	100.138	-0.037	0.043
-140.472	305.323	0.178	0.325
-139.458	232.256	-0.246	0.397
-138.443	127.880	-0.348	-0.435
-137.429	578.881	0.047	-0.113
-136.414	542.341	-0.093	-0.218
-135.399	207.489	-0.132	0.202
-134.385	-73.360	0.048	-0.017
-133.370	-200.000	-0.004	-0.257
-132.356	-135.692	-0.550	-0.064
-131.341	298.171	0.087	0.157
-130.326	62.112	0.095	-0.094
-129.312	-49.397	-0.159	-0.075
-128.297	415.216	0.017	0.037
-127.283	92.022	-0.141	-0.156
-126.268	-36.745	0.088	0.046
-125.253	-153.959	-0.410	0.027
-124.239	-112.352	0.227	0.045
-123.224	300.038	0.058	-0.105
-122.210	-56.289	0.276	-0.121
-121.195	3.170	0.093	0.066
-120.180	586.100	-0.138	-0.333
-119.166	800.000	0.111	-0.346
-118.151	-2.123	0.267	0.184
-117.137	198.390	0.144	-0.216
-116.122	800.000	-0.013	0.047
-115.107	106.335	-0.166	-0.193
-114.093	-141.378	0.310	-0.031
-113.078	-15.141	0.172	-0.108
-112.064	68.298	0.226	-0.227
-111.049	84.758	-0.310	-0.334
-110.034	122.522	-0.194	-0.238
-109.020	-104.905	-0.329	0.074
-108.005	-35.544	0.185	-0.099
-106.991	-21.889	0.145	-0.086
-105.976	231.810	-0.144	0.232
-104.962	800.000	-0.058	-0.235
-103.947	-200.000	0.048	-0.226
-102.932	-200.000	0.018	-0.390
-101.918	700.159	-0.126	0.325
-100.903	208.185	-0.133	0.204
-99.889	-200.000	0.050	0.514
-98.874	800.000	0.044	0.143
-97.859	-80.785	-0.228	-0.074
-96.845	-140.606	0.278	-0.028
-95.830	-39.457	-0.227	-0.117
-94.816	-116.642	0.255	0.046
-93.801	-130.399	-0.271	-0.036
-92.786	-117.088	0.070	-0.013
-91.772	613.930	-0.110	-0.271
-90.757	217.391	0.036	0.056
-89.743	-82.023	-0.136	0.044
-88.728	81.186	0.151	-0.160
-87.713	37.961	0.010	-0.009
-86.699	-42.184	-0.078	0.039
-85.684	-200.000	-0.045	-0.215
-84.670	-38.429	0.263	-0.137
-83.655	-200.000	0.007	0.077
-82.640	301.523	-0.024	0.043
-81.626	-180.276	-0.079	0.002
-80.611	48.141	0.049	-0.045
-79.597	-104.914	-0.105	0.024
-78.582	-194.437	0.116	0.001
-77.567	-69.394	0.160	-0.060
-76.553	-117.482	0.053	0.009
-75.538	-53.098	0.324	-0.146
-74.524	800.000	-0.050	0.149
-73.509	-57.480	-0.208	0.090
-72.494	210.719	-0.044	-0.068
-71.480	38.082	0.051	-0.044
-70.465	-200.000	0.083	0.426
-69.451	-200.000	0.015	0.264
-68.436	575.118	-0.092	0.220
-67.422	800.000	0.043	0.147
-66.407	677.023	0.084	-0.215
-65.392	-200.000	0.043	0.274
-64.378	-66.964	-0.118	-0.046
-63.363	-38.532	0.264	-0.137
-62.349	586.844	-0.037	0.090
-61.334	216.994	-0.739	-1.154
-60.319	118.148	0.677	0.818
-59.305	-200.000	-0.228	-0.995
-58.290	163.865	0.852	1.175
-57.276	250.859	0.781	1.301
-56.261	-200.000	106.184	615.259
-55.246	505.128	1508.638	3423.608
-54.232	176.331	2700.511	3843.921
-53.217	110.606	2186.468	2575.962
-52.203	40.105	1705.111	1501.569
-51.188	32.572	1515.074	1283.093
-50.173	30.318	1488.088	1245.088
-49.159	51.521	1544.052	1437.449
-48.144	51.684	1560.699	1454.004
-47.130	32.922	1516.076	1286.121
-46.115	29.803	1501.391	1252.535
-45.100	29.656	1497.588	1248.318
-44.086	29.626	1495.530	1246.349
-43.071	29.547	1493.319	1243.926
-42.057	29.543	1491.559	1242.384
-41.042	29.568	1490.515	1241.631
-40.027	29.522	1488.992	1240.005
-39.013	29.564	1487.347	1238.866
-37.998	29.528	1486.416	1237.805
-36.984	29.432	1485.420	1236.282
-35.969	29.613	1483.590	1235.916
-34.954	29.580	1482.096	1234.404
-33.940	29.389	1481.247	1232.371
-32.925	29.485	1479.823	1231.780
-31.911	29.563	1478.275	1230.965
-30.896	29.609	1477.139	1230.272
-29.881	29.657	1475.862	1229.483
-28.867	29.653	1474.589	1228.349
-27.852	29.529	1473.433	1226.514
-26.838	29.610	1471.337	1225.254
-25.823	29.567	1470.290	1224.050
-24.809	29.709	1467.977	1223.016
-23.794	29.630	1467.196	1221.794
-22.779	29.631	1466.203	1220.925
-21.765	29.641	1465.253	1220.153
-20.750	29.645	1463.758	1218.884
-19.736	29.549	1463.028	1217.595
-18.721	29.507	1461.446	1215.952
-17.706	29.485	1460.826	1215.245
-16.692	29.548	1459.667	1214.643
-15.677	29.657	1457.809	1213.764
-14.663	29.553	1457.050	1212.404
-13.648	29.556	1456.290	1211.740
-12.633	29.465	1455.982	1210.839
-11.619	29.500	1455.002	1210.206
-10.604	29.499	1453.648	1209.024
-9.590	29.539	1452.761	1208.503
-8.575	29.504	1452.398	1207.928
-7.560	29.471	1451.726	1207.103
-6.546	29.509	1450.905	1206.620
-5.531	29.444	1450.165	1205.535
-4.517	29.441	1449.016	1204.510
-3.502	29.461	1447.903	1203.665
-2.487	29.516	1446.563	1202.866
-1.473	29.461	1445.502	1201.576
-0.458	29.395	1444.805	1200.519
0.556	27.095	1435.051	1189.969
1.571	24.234	1409.461	1150.212
2.586	20.900	1351.429	1082.087
3.600	19.385	1270.454	1008.311
4.615	18.341	1225.944	967.005
5.629	16.186	1171.817	912.585
6.644	8.213	1088.329	807.286
7.659	1.143	1047.861	742.663
8.673	-0.054	1042.547	732.994
9.688	-0.226	1038.743	729.420
10.702	-0.436	1036.906	727.047
11.717	-0.423	1035.394	725.987
12.731	3.033	1039.007	745.230
13.746	11.807	1051.734	797.199
14.761	18.577	1060.563	836.968
15.775	20.513	1061.981	847.462
16.790	20.739	1061.712	848.274
17.804	20.635	1060.946	847.081
18.819	20.448	1060.236	845.527
19.834	20.476	1059.158	844.731
20.848	20.688	1058.756	845.365
21.863	20.532	1059.111	844.815
22.877	20.680	1058.326	844.835
23.892	20.641	1057.700	844.068
24.907	20.523	1056.650	842.584
25.921	20.521	1056.181	842.127
26.936	20.636	1055.383	841.970
27.950	20.570	1054.135	840.584
28.965	20.602	1052.907	839.684
29.980	20.423	1051.511	837.633
30.994	20.426	1050.024	836.388
32.009	20.640	1049.224	836.707
33.023	20.666	1048.389	836.092
34.038	20.437	1047.190	833.963
35.053	20.540	1046.358	833.719
36.067	20.676	1045.761	833.825
37.082	20.699	1044.924	833.193
38.096	20.734	1044.307	832.795
39.111	20.876	1043.617	832.850
40.126	21.034	1042.319	832.494
41.140	20.896	1041.043	830.744
42.155	20.575	1039.755	828.110
43.169	20.289	1038.176	825.421
44.184	20.290	1037.225	824.595
45.199	20.411	1036.381	824.430
46.213	20.377	1034.688	822.849
47.228	20.177	1034.556	821.722
48.242	20.315	1033.634	821.570
49.257	20.499	1032.750	821.665
50.271	20.546	1032.011	821.224
51.286	20.574	1031.294	820.716
52.301	20.759	1030.552	820.925
53.315	20.609	1029.968	819.682
54.330	20.584	1029.486	819.105
55.344	20.692	1027.875	818.259
56.359	20.586	1027.527	817.413
57.374	20.732	1026.569	817.264
58.388	20.490	1025.446	815.159
59.403	20.429	1024.519	814.068
60.417	20.558	1023.963	814.158
61.432	20.277	1022.954	811.965
62.447	20.284	1022.635	811.677
63.461	20.449	1021.491	811.465
64.476	20.431	1021.350	811.199
65.490	20.439	1020.055	810.136
66.505	20.395	1018.879	808.925
67.520	20.428	1018.176	808.447
68.534	20.458	1017.342	807.855
69.549	20.413	1016.357	806.792
70.563	20.015	1015.254	803.997
71.578	19.891	1014.531	802.777
72.593	20.024	1013.641	802.622
73.607	19.918	1012.436	801.105
74.622	19.952	1011.005	800.058
75.636	20.207	1010.844	801.036
76.651	20.182	1010.146	800.299
77.666	20.249	1008.795	799.467
78.680	20.149	1007.765	798.119
79.695	20.190	1007.662	798.154
80.709	20.201	1007.089	797.680
81.724	20.346	1006.013	797.425
82.739	20.149	1005.263	795.857
83.753	20.386	1004.062	795.921
84.768	20.551	1003.811	796.409
85.782	20.699	1003.360	796.657
86.797	20.973	1002.466	797.132
87.812	20.870	1001.399	795.741
88.826	20.721	1000.360	794.164
89.841	20.826	999.416	793.824
90.855	20.802	999.140	793.425
91.870	20.912	997.962	792.920
92.884	20.722	997.343	791.494
93.899	20.704	996.441	790.625
94.914	20.753	995.122	789.730
95.928	20.835	994.498	789.537
96.943	21.031	993.248	789.365
97.957	20.500	992.841	786.569
98.972	20.338	991.800	784.938
99.987	20.105	990.372	782.688
101.001	20.216	989.741	782.621
102.016	20.581	989.147	783.730
103.030	20.715	988.357	783.636
104.045	20.449	986.788	781.125
105.060	20.299	985.489	779.356
106.074	20.248	984.644	778.389
107.089	20.284	983.624	777.676
108.103	20.552	984.143	779.217
109.118	20.814	982.529	779.045
110.133	20.552	980.966	776.567
111.147	20.560	980.352	776.048
112.162	20.313	979.411	774.132
113.176	20.109	977.526	771.664
114.191	20.273	976.783	771.740
115.206	20.456	975.931	771.814
116.220	20.112	974.753	769.284
117.235	19.931	974.247	768.015
118.249	20.018	973.546	767.779
119.264	20.194	972.507	767.672
120.279	20.061	971.690	766.370
121.293	20.105	970.800	765.795
122.308	20.114	970.560	765.576
123.322	20.157	969.338	764.737
124.337	20.217	968.239	764.066
125.352	20.044	967.110	762.345
126.366	19.609	965.219	758.876
127.381	19.315	964.097	756.636
128.395	19.825	963.888	758.643
129.410	20.414	963.215	760.629
130.424	20.592	962.429	760.720
131.439	20.619	960.820	759.495
132.454	20.615	959.951	758.725
133.468	20.529	959.240	757.721
134.483	20.524	958.325	756.910
135.497	20.578	957.797	756.662
136.512	20.766	957.194	756.936
137.527	20.816	956.552	756.577
138.541	20.743	955.624	755.460
139.556	20.837	954.860	755.196
140.570	20.768	954.095	754.228
141.585	20.850	952.906	753.574
142.600	20.787	952.565	752.965
143.614	20.817	951.297	752.027
144.629	20.868	950.465	751.522
145.643	21.099	949.865	751.978
146.658	21.017	949.102	750.955
147.673	20.767	947.608	748.632
148.687	20.680	946.051	746.958
149.702	20.709	945.610	746.669
150.716	20.494	944.510	744.814
151.731	20.570	943.532	744.301
152.746	20.739	942.551	744.184
153.760	20.861	942.040	744.239
154.775	20.927	941.367	743.921
155.789	21.040	940.551	743.694
156.804	21.056	939.098	742.548
157.819	21.082	938.373	742.017
158.833	20.915	937.658	740.675
159.848	21.144	936.597	740.743
160.862	21.195	935.670	740.163
161.877	20.907	935.005	738.352
162.892	20.799	934.147	737.151
163.906	20.970	933.456	737.263
164.921	20.910	932.666	736.322
165.935	20.809	931.644	735.022
166.950	21.028	930.418	734.913
167.964	21.005	929.454	733.988
168.979	20.845	928.456	732.464
169.994	20.957	927.309	731.964
171.008	20.687	926.479	730.113
172.023	20.838	925.862	730.194
173.037	21.024	924.896	730.146
174.052	20.759	923.544	727.910
175.067	20.551	922.879	726.450
176.081	20.632	921.959	726.000
177.096	20.879	921.198	726.366
178.110	20.824	920.129	725.231
179.125	20.508	919.392	723.269
180.140	20.442	918.268	722.046
181.154	20.380	917.580	721.186
182.169	20.448	917.288	721.173
183.183	20.540	916.964	721.236
184.198	20.952	916.440	722.467
185.213	20.927	915.446	721.517
186.227	20.764	915.054	720.472
187.242	20.868	914.526	720.420
188.256	21.014	913.615	720.245
189.271	20.994	912.767	719.427
190.286	21.056	911.982	719.002
191.300	20.858	911.319	717.599
192.315	20.467	909.910	714.819
193.329	19.844	908.327	710.950
194.344	19.403	907.216	708.209
195.359	20.059	907.360	710.952
196.373	20.717	907.881	713.999
197.388	20.885	907.610	714.411
198.402	20.883	906.803	713.706
199.417	20.829	905.802	712.631
200.432	20.841	905.497	712.377
201.446	20.724	904.572	711.109
202.461	20.383	904.134	709.309
203.475	20.455	903.455	709.009
204.490	20.067	901.920	706.159
205.504	18.958	900.140	700.192
206.519	19.389	900.264	701.979
207.534	20.135	900.708	705.301
208.548	20.314	900.116	705.500
209.563	20.746	899.919	707.038
210.577	20.758	898.864	706.198
211.592	20.543	898.098	704.661
212.607	20.941	897.879	706.039
213.621	20.970	897.653	705.915
214.636	21.008	896.868	705.392
215.650	21.068	896.101	704.969
216.665	20.988	895.143	703.828
217.680	20.929	895.159	703.539
218.694	21.058	894.341	703.357
219.709	20.747	893.623	701.477
220.723	20.411	892.583	699.244
221.738	20.598	892.191	699.628
222.753	20.848	891.537	700.058
223.767	20.924	890.824	699.743
224.782	20.900	890.080	699.000
225.796	21.052	889.461	699.059
226.811	21.102	889.109	698.921
227.826	20.747	887.596	696.251
228.840	19.880	886.348	691.748
229.855	19.895	885.860	691.363
230.869	20.201	885.289	692.080
231.884	19.763	884.443	689.611
232.899	19.984	883.900	690.004
233.913	20.825	884.486	693.752
234.928	20.846	883.766	693.212
235.942	20.766	883.008	692.239
236.957	20.723	882.146	691.331
237.972	20.415	881.365	689.435
238.986	20.441	880.460	688.767
240.001	20.605	879.864	688.893
241.015	20.523	879.202	687.988
242.030	20.591	878.839	687.912
243.045	20.764	877.898	687.796
244.059	20.837	877.786	687.939
245.074	20.921	877.487	687.973
246.088	20.951	876.523	687.276
247.103	20.626	875.446	685.088
248.117	20.606	874.612	684.298
249.132	21.097	875.153	686.592
250.147	21.435	874.607	687.434
251.161	21.459	873.792	686.826
252.176	21.562	873.472	686.919
253.190	21.648	872.874	686.723
254.205	21.668	872.058	686.101
255.220	21.825	872.062	686.658
256.234	21.773	871.225	685.733
257.249	21.618	870.428	684.441
258.263	21.534	869.726	683.499
259.278	21.681	868.909	683.370
260.293	21.688	868.798	683.249
261.307	21.759	868.361	683.122
262.322	21.674	867.296	681.891
263.336	21.334	867.331	680.537
264.351	21.073	865.280	677.852
265.366	19.901	863.511	671.862
266.380	19.500	862.720	669.628
267.395	20.527	862.829	673.637
268.409	21.199	863.114	676.405
269.424	21.168	862.709	675.906
270.439	21.367	861.949	676.021
271.453	21.439	861.239	675.685
272.468	21.504	860.343	675.171
273.482	21.590	860.203	675.335
274.497	21.936	859.697	676.212
275.512	21.641	858.795	674.304
276.526	20.957	857.775	670.813
277.541	21.257	857.002	671.302
278.555	21.490	857.092	672.209
279.570	21.411	856.408	671.311
280.585	21.248	855.420	669.849
281.599	21.269	854.824	669.404
282.614	21.533	854.073	669.767
283.628	21.045	853.314	667.250
284.643	20.738	852.735	665.564
285.657	21.104	852.460	666.690
286.672	20.992	852.024	665.861
287.687	20.473	850.804	662.868
288.701	20.645	851.029	663.640
289.716	21.175	850.546	665.225
290.730	20.873	849.642	663.309
291.745	20.667	848.820	661.827
292.760	20.557	847.638	660.428
293.774	20.521	847.296	659.969
294.789	21.451	848.068	664.044
295.803	21.950	847.859	665.712
296.818	21.834	847.601	665.014
297.833	22.174	846.704	665.537
298.847	21.763	845.691	663.128
299.862	21.430	844.769	661.087
300.876	21.708	844.233	661.658
301.891	21.914	843.768	662.013
302.906	22.167	842.980	662.290
303.920	21.725	842.069	659.851
304.935	21.459	841.838	658.613
305.949	22.043	841.055	660.137
306.964	21.918	840.590	659.243
307.979	21.741	840.402	658.373
308.993	21.744	839.459	657.588
310.008	22.161	839.315	658.979
311.022	22.186	839.106	658.849
312.037	22.001	838.199	657.388
313.052	21.781	837.655	656.079
314.066	21.665	836.874	654.977
315.081	21.120	834.841	651.294
316.095	20.316	834.341	647.847
317.110	20.864	834.408	649.888
318.125	21.631	834.388	652.672
319.139	21.232	833.601	650.515
320.154	20.142	831.958	645.118
321.168	19.800	830.743	642.849
322.183	20.436	831.024	645.375
323.197	21.404	831.356	649.171
324.212	21.622	831.221	649.818
325.227	21.576	830.836	649.288
326.241	21.966	829.930	649.967
327.256	21.622	829.930	648.637
328.270	21.780	828.735	648.229
329.285	21.497	828.675	647.079
330.300	21.475	827.551	646.062
331.314	21.278	826.822	644.709
332.329	21.357	826.316	644.547
333.343	21.700	826.110	645.595
334.358	22.013	825.509	646.220
335.373	21.855	824.998	645.180
336.387	21.954	824.394	645.017
337.402	22.104	823.953	645.164
338.416	22.359	823.477	645.670
339.431	22.252	822.841	644.721
340.446	22.244	822.514	644.378
341.460	22.559	822.346	645.344
342.475	22.423	821.565	644.179
343.489	22.270	820.700	642.881
344.504	22.204	820.174	642.174
345.519	22.461	820.059	642.966
346.533	22.607	819.811	643.246
347.548	22.620	819.617	643.083
348.562	22.900	818.702	643.330
349.577	22.628	818.721	642.296
350.592	22.744	817.668	641.837
351.606	22.784	816.591	641.079
352.621	22.801	816.661	641.137
353.635	22.560	816.161	639.814
354.650	22.450	815.681	638.984
355.665	22.252	814.313	637.138
356.679	21.104	813.051	631.939
357.694	21.007	812.657	631.224
358.708	21.629	812.327	633.164
359.723	21.600	811.936	632.695
360.738	21.892	811.661	633.482
361.752	22.320	811.542	634.876
362.767	22.488	811.224	635.178
363.781	22.705	810.797	635.571
364.796	22.925	810.648	636.188
365.810	22.901	810.559	635.976
366.825	23.050	809.904	635.942
367.840	23.047	809.720	635.729
368.854	22.803	809.084	634.297
369.869	22.460	808.033	632.186
370.883	22.233	807.540	630.933
371.898	22.432	806.979	631.150
372.913	22.441	805.992	630.355
373.927	22.525	805.214	629.991
374.942	22.443	805.085	629.541
375.956	22.545	804.595	629.468
376.971	22.667	804.011	629.390
377.986	22.574	803.912	628.924
379.000	22.936	803.514	629.849
380.015	22.919	802.717	629.108
381.029	22.905	801.920	628.378
382.044	22.848	801.280	627.616
383.059	23.041	800.663	627.765
384.073	22.802	800.557	626.777
385.088	22.958	799.992	626.831
386.102	22.928	799.664	626.412
387.117	22.858	798.750	625.393
388.132	22.785	798.069	624.548
389.146	22.657	797.782	623.816
390.161	22.022	796.687	620.659
391.175	21.929	796.578	620.190
392.190	22.412	796.493	621.777
393.205	22.674	795.594	621.943
394.219	21.600	793.990	616.852
395.234	20.013	791.797	609.516
396.248	19.398	790.876	606.590
397.263	20.483	791.775	611.043
398.278	22.310	793.083	618.428
399.292	22.660	792.940	619.489
400.307	22.271	792.317	617.584
401.321	22.307	791.798	617.250
402.336	22.372	791.518	617.205
403.350	22.703	791.225	618.083
404.365	23.041	791.433	619.373
405.380	23.357	790.991	620.080
406.394	23.543	791.035	620.709
407.409	23.824	790.073	620.882
408.423	23.590	789.772	619.773
409.438	23.505	789.299	619.051
410.453	23.553	788.969	618.903
411.467	23.588	788.444	618.559
412.482	23.620	787.680	618.019
413.496	23.566	787.618	617.728
414.511	23.659	787.111	617.598
415.526	23.563	787.051	617.160
416.540	23.657	786.309	616.853
417.555	23.464	785.894	615.802
418.569	23.393	784.618	614.500
419.584	23.229	784.566	613.836
420.599	23.300	784.154	613.707
421.613	157.230	1364.416	1797.580
422.628	135.944	1448.950	1797.639
