DTS Sentinel unit serial number:	SN413079Multiplexer serial number:	ORYXHardware model number:	OX4-SRSoftware version number:	ORYX F/W v4.00 Oryx Data Collector v3.7.2.0data status	okinstallation	princeton_trtdifferential loss correction	single-endedforward channel	channel 3reverse channel	N/Adate	2019/09/15time	00:48:35forward acquisition time	60.00reverse acquisition time	0.00gamma	496.2192k internal	0.2319k external	0.2319temperature offset calibration	0.9973default loss term (dB/km)	0.3790temperature slope calibration	1.0000multiplexer offset coefficient	1.0000multiplexer slope coefficient	1.0000fibre end	0.00T internal ref (°C)	32.06T ext. ref 1 (°C)	4.59T ext. ref 2 (°C)	27.00length (m)	temperature (°C)	Stokes	anti-Stokes-747.200	-75.469	0.292	-0.105
-746.185	323.537	-0.141	0.273
-745.171	-200.000	-0.023	0.323
-744.156	91.168	0.142	0.161
-743.142	14.485	0.392	-0.310
-742.127	140.031	-0.078	0.104
-741.112	-142.671	0.126	0.012
-740.098	-4.588	-0.265	0.185
-739.083	-143.671	0.187	0.018
-738.069	-1.786	-0.262	0.186
-737.054	-20.935	-0.121	-0.075
-736.039	277.296	-0.199	-0.358
-735.025	-200.000	0.001	0.115
-734.010	800.000	0.066	-0.245
-732.996	800.000	-0.043	-0.130
-731.981	197.621	0.103	0.159
-730.966	800.000	-0.133	-0.380
-729.952	-0.915	0.116	0.083
-728.937	-103.795	0.327	-0.077
-727.923	-167.829	0.367	0.015
-726.908	599.840	0.084	0.210
-725.894	0.295	-0.204	-0.147
-724.879	-96.338	0.146	-0.039
-723.864	-200.000	0.008	-0.124
-722.850	215.596	-0.124	-0.198
-721.835	-84.384	-0.563	-0.180
-720.821	58.866	0.151	-0.150
-719.806	-161.628	-0.577	-0.030
-718.791	286.596	-0.118	-0.215
-717.777	-86.300	-0.255	0.079
-716.762	138.441	-0.400	-0.530
-715.748	-9.122	0.316	-0.213
-714.733	-74.290	-0.223	-0.082
-713.718	28.347	-0.181	-0.154
-712.704	135.232	-0.308	0.405
-711.689	579.137	0.130	-0.321
-710.675	800.000	-0.083	-0.287
-709.660	-123.957	-0.290	0.046
-708.645	-119.743	-0.176	0.031
-707.631	39.506	0.285	0.258
-706.616	-189.235	-0.360	0.004
-705.602	-109.750	-0.363	-0.077
-704.587	-200.000	-0.007	-0.241
-703.572	-174.905	0.421	-0.012
-702.558	-34.055	0.146	-0.081
-701.543	138.815	0.122	0.162
-700.529	-200.000	-0.027	0.135
-699.514	0.640	0.323	-0.234
-698.499	26.910	0.055	0.046
-697.485	143.626	0.082	0.111
-696.470	-200.000	0.014	-0.085
-695.456	800.000	0.066	0.257
-694.441	-70.653	0.178	-0.068
-693.426	-134.610	-0.116	0.014
-692.412	106.358	0.085	-0.101
-691.397	104.089	-0.235	0.278
-690.383	-200.000	-0.036	0.160
-689.368	-114.083	0.148	0.029
-688.354	-200.000	-0.026	0.209
-687.339	-200.000	0.004	0.049
-686.324	-123.465	-0.378	0.061
-685.310	108.072	-0.131	-0.158
-684.295	-134.025	-0.140	0.018
-683.281	-44.121	0.178	-0.090
-682.266	78.756	-0.184	-0.199
-681.251	-65.147	0.137	-0.056
-680.237	-139.391	0.223	0.024
-679.222	92.410	0.114	0.129
-678.208	52.233	0.213	0.205
-677.193	-67.961	0.142	0.056
-676.178	-12.445	0.048	-0.032
-675.164	800.000	0.114	-0.460
-674.149	255.053	0.145	0.251
-673.135	-70.417	0.491	-0.188
-672.120	161.096	0.126	-0.178
-671.105	800.000	-0.159	-0.473
-670.091	-7.834	0.078	-0.053
-669.076	-106.257	-0.227	0.051
-668.062	-27.830	0.272	0.159
-667.047	-19.757	-0.260	0.162
-666.032	800.000	0.099	0.421
-665.018	800.000	-0.046	-0.202
-664.003	236.033	0.074	0.124
-662.989	68.006	0.101	0.104
-661.974	-200.000	0.064	0.292
-660.959	-8.194	-0.198	0.134
-659.945	69.115	-0.223	-0.231
-658.930	-161.435	-0.218	0.011
-657.916	-85.462	0.341	0.107
-656.901	-126.557	0.004	0.001
-655.886	-200.000	0.043	-0.345
-654.872	-38.854	0.359	0.191
-653.857	800.000	0.055	0.208
-652.843	-74.922	0.226	-0.082
-651.828	-10.006	0.147	0.099
-650.814	290.869	-0.136	-0.250
-649.799	-194.755	-0.416	0.003
-648.784	800.000	-0.032	0.112
-647.770	-74.134	0.147	0.054
-646.755	-73.387	-0.551	0.203
-645.741	64.255	0.219	-0.222
-644.726	394.493	-0.150	-0.315
-643.711	-71.228	-0.248	0.094
-642.697	800.000	-0.080	-0.332
-641.682	800.000	-0.088	-0.351
-640.668	-41.267	-0.118	-0.061
-639.653	800.000	-0.031	-0.125
-638.638	-76.159	0.013	0.005
-637.624	121.957	0.128	-0.161
-636.609	-38.036	-0.445	-0.238
-635.595	-64.280	0.213	0.087
-634.580	-104.094	0.194	-0.045
-633.565	-200.000	0.003	0.015
-632.551	1.151	0.172	-0.124
-631.536	-123.582	-0.189	0.030
-630.522	800.000	0.023	0.066
-629.507	800.000	0.021	0.062
-628.492	800.000	0.045	0.144
-627.478	-119.751	0.282	-0.049
-626.463	199.536	0.053	-0.082
-625.449	-35.537	-0.186	0.102
-624.434	605.109	0.097	-0.242
-623.419	-44.130	0.328	0.166
-622.405	186.047	-0.120	-0.180
-621.390	257.827	-0.127	-0.221
-620.376	9.276	0.298	-0.227
-619.361	-200.000	-0.024	-0.278
-618.346	800.000	0.070	-0.262
-617.332	-77.622	-0.250	0.087
-616.317	-80.151	-0.285	0.096
-615.303	800.000	-0.054	-0.160
-614.288	-60.114	-0.252	-0.108
-613.273	407.820	0.098	0.209
-612.259	-80.595	0.217	0.073
-611.244	-16.942	0.072	0.046
-610.230	-18.409	-0.106	0.067
-609.215	41.632	0.170	-0.155
-608.201	-200.000	-0.002	0.050
-607.186	38.862	0.307	-0.276
-606.171	-31.616	-0.116	0.065
-605.157	-31.074	-0.004	0.002
-604.142	-60.813	0.347	0.148
-603.128	-174.957	-0.200	-0.006
-602.113	140.660	-0.113	0.150
-601.098	-103.796	-0.196	-0.046
-600.084	50.593	0.195	0.185
-599.069	-200.000	0.036	0.348
-598.055	171.301	0.217	-0.314
-597.040	166.654	-0.061	-0.087
-596.025	-200.000	-0.008	-0.097
-595.011	-200.000	0.006	0.558
-593.996	317.160	0.130	0.246
-592.982	800.000	-0.114	0.502
-591.967	493.193	0.078	0.181
-590.952	-52.318	-0.291	-0.135
-589.938	-200.000	0.035	0.272
-588.923	-79.482	0.065	0.022
-587.909	-20.947	0.326	0.201
-586.894	431.146	0.098	0.214
-585.879	240.531	0.042	0.071
-584.865	384.025	-0.052	0.107
-583.850	412.656	-0.064	0.137
-582.836	506.662	0.095	-0.221
-581.821	800.000	-0.053	-0.229
-580.806	664.196	-0.068	-0.175
-579.792	-200.000	-0.033	-0.291
-578.777	800.000	-0.091	0.264
-577.763	-49.881	-0.202	0.096
-576.748	26.518	0.133	-0.112
-575.733	4.579	-0.125	-0.092
-574.719	-120.508	0.164	-0.028
-573.704	-18.401	0.460	-0.289
-572.690	-200.000	0.024	0.108
-571.675	643.175	0.145	0.370
-570.661	-126.653	-0.150	-0.022
-569.646	-200.000	0.171	0.000
-568.631	-26.191	-0.122	0.072
-567.617	-95.069	-0.151	0.041
-566.602	-65.823	-0.275	0.111
-565.588	-16.096	0.389	0.248
-564.573	-200.000	0.002	-0.017
-563.558	-200.000	0.004	0.173
-562.544	-108.980	-0.235	-0.050
-561.529	-200.000	0.033	-0.227
-560.515	-200.000	0.129	0.000
-559.500	212.212	-0.128	0.203
-558.485	-64.399	-0.080	0.033
-557.471	800.000	0.067	-0.245
-556.456	69.570	-0.090	0.093
-555.442	-200.000	-0.049	-0.275
-554.427	800.000	-0.026	-0.075
-553.412	-67.538	-0.299	-0.118
-552.398	-173.294	0.330	-0.010
-551.383	-162.638	-0.179	0.009
-550.369	356.250	0.071	0.141
-549.354	-69.883	0.214	-0.082
-548.339	-167.466	-0.358	0.014
-547.325	198.887	0.194	0.298
-546.310	-21.653	-0.128	0.078
-545.296	325.500	0.099	0.190
-544.281	-200.000	0.008	-0.101
-543.266	800.000	0.065	-0.269
-542.252	-61.447	-0.306	0.129
-541.237	94.660	0.127	-0.144
-540.223	-142.914	0.160	-0.016
-539.208	800.000	0.079	-0.296
-538.193	66.050	0.135	0.137
-537.179	-49.325	-0.101	0.048
-536.164	352.835	0.076	0.152
-535.150	-51.508	-0.078	-0.037
-534.135	-94.470	-0.087	0.024
-533.121	-63.979	0.268	-0.110
-532.106	-23.830	-0.262	-0.157
-531.091	-137.186	-0.337	-0.038
-530.077	90.799	-0.140	-0.158
-529.062	-20.758	0.085	-0.052
-528.048	-134.173	-0.359	0.044
-527.033	166.161	0.165	-0.234
-526.018	18.251	-0.467	0.374
-525.004	507.637	-0.067	-0.156
-523.989	-200.000	-0.015	-0.229
-522.975	-200.000	-0.028	0.198
-521.960	-6.625	0.257	-0.175
-520.945	-200.000	-0.035	-0.265
-519.931	1.903	0.228	-0.165
-518.916	140.896	-0.039	-0.052
-517.902	-157.924	-0.130	0.008
-516.887	45.991	-0.116	0.107
-515.872	320.230	-0.136	-0.259
-514.858	-59.580	0.212	0.091
-513.843	-89.378	0.021	-0.006
-512.829	-200.000	-0.007	0.062
-511.814	-200.000	0.035	0.270
-510.799	-134.422	0.288	0.035
-509.785	-200.000	0.022	-0.261
-508.770	27.782	0.245	0.207
-507.756	-200.000	-0.069	0.304
-506.741	-200.000	-0.005	0.224
-505.726	-200.000	-0.040	0.279
-504.712	800.000	0.025	-0.088
-503.697	20.235	-0.152	-0.123
-502.683	666.353	0.072	0.187
-501.668	800.000	0.019	-0.066
-500.653	800.000	0.102	0.318
-499.639	-115.161	-0.241	-0.046
-498.624	-4.318	-0.251	-0.174
-497.610	-90.847	-0.124	-0.036
-496.595	-153.395	0.429	-0.030
-495.581	-79.285	-0.097	0.033
-494.566	214.763	0.037	-0.059
-493.551	132.311	-0.190	-0.245
-492.537	-23.225	-0.151	-0.091
-491.522	-60.108	-0.041	-0.018
-490.508	-156.740	-0.229	0.014
-489.493	251.156	-0.207	-0.352
-488.478	-200.000	-0.005	0.092
-487.464	800.000	-0.036	0.133
-486.449	11.876	-0.207	-0.159
-485.435	222.806	-0.226	-0.365
-484.420	472.844	0.094	0.211
-483.405	339.512	-0.106	0.207
-482.391	80.793	0.260	0.281
-481.376	116.437	0.033	0.040
-480.362	-60.922	-0.363	-0.154
-479.347	-200.000	-0.023	-0.311
-478.332	566.990	-0.178	0.432
-477.318	800.000	0.084	-0.235
-476.303	-200.000	-0.011	-0.084
-475.289	-103.065	-0.219	0.052
-474.274	29.852	0.152	0.130
-473.259	64.576	0.106	0.107
-472.245	800.000	0.080	-0.249
-471.230	-163.792	0.072	-0.003
-470.216	-107.104	-0.347	-0.077
-469.201	249.415	-0.138	0.233
-468.186	-200.000	0.035	-0.215
-467.172	800.000	0.070	0.203
-466.157	-200.000	0.047	-0.239
-465.143	-200.000	0.006	-0.273
-464.128	-152.904	0.192	-0.014
-463.113	47.925	0.235	0.219
-462.099	-200.000	0.007	0.130
-461.084	-200.000	0.001	0.081
-460.070	-128.280	0.299	-0.043
-459.055	-110.118	-0.121	-0.025
-458.040	772.614	0.065	0.177
-457.026	95.158	-0.109	0.125
-456.011	-119.212	0.074	0.013
-454.997	-93.421	0.049	0.014
-453.982	-9.571	-0.237	0.158
-452.968	-200.000	0.018	-0.096
-451.953	800.000	-0.071	-0.239
-450.938	-175.017	-0.218	0.006
-449.924	-200.000	0.012	-0.093
-448.909	-9.827	-0.192	0.128
-447.895	-22.441	-0.125	-0.075
-446.880	-35.577	0.124	-0.067
-445.865	-200.000	-0.018	0.227
-444.851	-172.064	0.137	-0.004
-443.836	104.708	0.223	-0.263
-442.822	800.000	0.126	0.406
-441.807	-200.000	0.004	-0.087
-440.792	-101.606	0.109	0.027
-439.778	-116.948	0.290	-0.053
-438.763	800.000	0.066	0.196
-437.749	156.787	-0.246	-0.340
-436.734	-91.706	-0.185	0.053
-435.719	366.581	0.104	-0.210
-434.705	-110.018	-0.069	0.014
-433.690	800.000	-0.048	0.193
-432.676	702.200	0.134	0.354
-431.661	800.000	-0.089	0.285
-430.646	-57.870	0.274	0.120
-429.632	-163.753	-0.377	-0.018
-428.617	52.889	0.096	-0.092
-427.603	-26.761	-0.063	-0.037
-426.588	-160.328	0.129	-0.007
-425.573	164.995	-0.102	-0.144
-424.559	-200.000	0.009	0.050
-423.544	800.000	-0.032	-0.126
-422.530	-200.000	0.004	-0.077
-421.515	35.461	-0.134	0.117
-420.500	-118.519	-0.472	0.084
-419.486	-78.179	0.341	-0.117
-418.471	164.759	-0.108	0.153
-417.457	-200.000	0.025	0.112
-416.442	38.500	-0.271	-0.241
-415.428	-53.108	-0.115	0.053
-414.413	-24.579	-0.211	0.126
-413.398	-200.000	-0.070	0.329
-412.384	-119.896	0.151	0.026
-411.369	-146.250	-0.229	-0.020
-410.355	-200.000	-0.023	0.145
-409.340	800.000	-0.090	0.250
-408.325	-200.000	0.056	-0.269
-407.311	-109.018	0.074	-0.016
-406.296	800.000	0.078	0.261
-405.282	-20.526	-0.188	0.116
-404.267	196.112	-0.071	0.108
-403.252	-75.049	0.132	0.047
-402.238	-49.965	0.113	0.053
-401.223	800.000	0.028	-0.078
-400.209	800.000	0.068	-0.203
-399.194	-70.111	-0.448	0.170
-398.179	-200.000	-0.079	0.407
-397.165	-4.169	0.180	0.124
-396.150	-29.053	0.147	-0.084
-395.136	-200.000	-0.018	-0.176
-394.121	-200.000	0.021	0.307
-393.106	196.433	0.192	-0.292
-392.092	265.149	-0.058	-0.101
-391.077	-128.521	-0.284	-0.040
-390.063	-200.000	-0.014	0.101
-389.048	61.088	-0.081	0.081
-388.033	303.201	-0.167	0.309
-387.019	194.201	0.074	-0.112
-386.004	291.780	0.071	-0.129
-384.990	-119.008	0.121	0.021
-383.975	-32.656	0.282	0.156
-382.960	-140.384	-0.066	0.007
-381.946	62.849	0.051	-0.051
-380.931	77.476	0.107	-0.114
-379.917	202.063	0.120	0.184
-378.902	-30.153	-0.187	-0.106
-377.888	-132.842	0.425	0.054
-376.873	288.255	0.149	0.269
-375.858	4.691	-0.033	0.024
-374.844	-112.811	0.327	0.065
-373.829	57.150	-0.190	-0.185
-372.815	-200.000	-0.134	-0.001
-371.800	-200.000	-0.039	-0.274
-370.785	-88.850	-0.428	-0.127
-369.771	-179.063	-0.173	0.004
-368.756	-200.000	-0.039	0.172
-367.742	-79.943	0.172	-0.058
-366.727	196.756	0.214	0.325
-365.712	800.000	0.033	0.118
-364.698	134.604	0.108	0.139
-363.683	497.034	-0.073	0.167
-362.669	182.446	0.193	0.283
-361.654	150.486	0.227	0.307
-360.639	-180.410	0.189	-0.004
-359.625	-50.697	-0.193	0.090
-358.610	331.467	-0.163	0.312
-357.596	366.742	0.054	0.109
-356.581	-52.666	-0.240	-0.110
-355.566	-173.654	-0.293	-0.009
-354.552	-160.335	0.131	-0.007
-353.537	378.878	0.146	-0.298
-352.523	-14.380	-0.193	-0.124
-351.508	-88.202	0.145	0.043
-350.493	-200.000	-0.039	-0.217
-349.479	-80.700	0.265	0.088
-348.464	-8.999	-0.106	-0.071
-347.450	100.236	0.248	-0.286
-346.435	4.109	0.120	0.087
-345.420	-200.000	-0.057	0.278
-344.406	445.605	-0.079	-0.172
-343.391	-91.790	0.116	0.033
-342.377	39.278	-0.206	0.184
-341.362	-200.000	0.008	0.225
-340.348	-200.000	-0.063	0.415
-339.333	38.684	-0.174	0.155
-338.318	14.924	-0.396	-0.308
-337.304	724.534	0.076	-0.202
-336.289	269.308	-0.095	-0.166
-335.275	-102.118	-0.336	-0.081
-334.260	-100.044	0.292	0.072
-333.245	219.117	0.254	0.404
-332.231	-200.000	0.070	-0.410
-331.216	-55.195	0.094	-0.042
-330.202	-67.906	-0.112	-0.044
-329.187	-39.878	0.277	0.144
-328.172	-140.829	0.216	0.022
-327.158	800.000	-0.049	0.152
-326.143	-85.715	0.444	0.137
-325.129	-142.914	-0.193	-0.019
-324.114	-112.580	0.386	-0.077
-323.099	72.939	0.125	-0.130
-322.085	800.000	-0.076	0.212
-321.070	249.732	-0.055	-0.093
-320.056	800.000	0.107	0.339
-319.041	-77.146	0.307	0.106
-318.026	351.578	-0.066	-0.129
-317.012	-17.106	0.103	0.064
-315.997	103.942	-0.053	-0.062
-314.983	207.747	-0.044	0.068
-313.968	-80.263	-0.353	-0.117
-312.953	-200.000	-0.032	-0.330
-311.939	169.137	-0.112	-0.158
-310.924	-200.000	0.017	-0.214
-309.910	188.786	0.152	0.227
-308.895	159.149	0.184	-0.254
-307.880	-200.000	0.015	-0.177
-306.866	-16.901	-0.219	-0.137
-305.851	800.000	0.020	-0.068
-304.837	402.464	-0.157	0.329
-303.822	799.643	-0.050	0.138
-302.807	-142.911	0.265	0.026
-301.793	52.726	-0.153	-0.145
-300.778	201.627	0.146	0.223
-299.764	122.386	-0.062	-0.076
-298.749	800.000	0.031	0.115
-297.735	-39.739	0.180	-0.093
-296.720	800.000	-0.076	0.300
-295.705	56.594	0.048	-0.046
-294.691	534.479	0.067	0.159
-293.676	-200.000	-0.023	-0.176
-292.662	41.866	-0.225	0.203
-291.647	486.994	-0.074	-0.168
-290.632	-131.498	-0.196	-0.026
-289.618	197.931	0.022	-0.034
-288.603	800.000	0.047	-0.175
-287.589	-200.000	-0.071	-0.328
-286.574	-74.604	-0.566	0.202
-285.559	157.781	-0.105	-0.145
-284.545	-161.066	0.129	0.007
-283.530	483.249	-0.108	0.244
-282.516	-20.605	0.163	-0.099
-281.501	-200.000	0.017	-0.155
-280.486	-200.000	-0.011	-0.102
-279.472	-192.941	-0.073	-0.001
-278.457	-65.421	-0.237	-0.094
-277.443	-41.435	0.087	0.044
-276.428	108.419	0.008	0.009
-275.413	-96.989	0.231	-0.060
-274.399	-200.000	0.018	-0.247
-273.384	-200.000	-0.034	0.163
-272.370	29.632	-0.219	-0.185
-271.355	-19.945	-0.195	-0.119
-270.340	-31.497	0.302	0.168
-269.326	800.000	0.064	0.261
-268.311	800.000	-0.070	-0.232
-267.297	-74.936	-0.187	0.066
-266.282	6.465	0.171	0.126
-265.267	-200.000	-0.022	-0.122
-264.253	-70.276	0.174	-0.066
-263.238	-94.328	-0.115	0.031
-262.224	-41.498	0.176	-0.090
-261.209	50.798	0.022	-0.020
-260.195	23.871	-0.197	0.161
-259.180	135.157	-0.126	-0.162
-258.165	37.268	0.140	-0.123
-257.151	65.351	-0.250	-0.251
-256.136	800.000	-0.035	-0.112
-255.122	-119.401	0.358	0.062
-254.107	109.680	-0.197	-0.234
-253.092	-108.113	0.371	0.080
-252.078	-200.000	0.012	0.156
-251.063	615.259	0.063	0.157
-250.049	-200.000	0.001	-0.139
-249.034	-9.823	0.207	0.137
-248.019	107.398	0.069	-0.081
-247.005	800.000	0.025	0.097
-245.990	800.000	-0.042	0.147
-244.976	66.250	-0.239	0.240
-243.961	-157.513	-0.077	0.005
-242.946	-200.000	0.068	-0.341
-241.932	-108.573	0.154	-0.033
-240.917	800.000	0.069	0.234
-239.903	363.438	-0.099	-0.197
-238.888	-134.490	0.166	0.020
-237.873	800.000	0.065	-0.221
-236.859	17.924	0.257	0.203
-235.844	-72.843	-0.170	-0.062
-234.830	-200.000	0.021	0.295
-233.815	-15.584	0.173	-0.109
-232.800	47.942	0.068	-0.063
-231.786	-200.000	-0.078	-0.424
-230.771	-200.000	-0.109	0.000
-229.757	-193.779	0.087	-0.001
-228.742	-169.247	-0.496	0.018
-227.727	-57.144	0.282	-0.123
-226.713	-179.121	0.131	0.003
-225.698	692.814	-0.110	-0.287
-224.684	-200.000	0.004	0.097
-223.669	-121.098	0.329	0.055
-222.655	800.000	0.096	-0.333
-221.640	-105.858	0.094	-0.021
-220.625	-96.768	0.152	0.040
-219.611	83.534	0.271	-0.292
-218.596	104.269	0.162	0.189
-217.582	-173.398	-0.257	0.008
-216.567	800.000	0.067	-0.195
-215.552	-200.000	-0.011	0.176
-214.538	-63.678	-0.253	0.103
-213.523	-190.853	-0.141	-0.001
-212.509	91.847	0.078	-0.087
-211.494	800.000	0.110	-0.331
-210.479	-200.000	0.003	-0.121
-209.465	380.099	0.134	-0.272
-208.450	800.000	-0.115	-0.316
-207.436	200.502	-0.084	0.128
-206.421	-70.803	0.180	0.067
-205.406	103.517	-0.177	-0.206
-204.392	210.246	0.144	0.224
-203.377	800.000	-0.096	-0.292
-202.363	179.167	-0.215	0.312
-201.348	-200.000	-0.017	-0.074
-200.333	-200.000	-0.011	-0.108
-199.319	320.915	-0.067	-0.127
-198.304	306.326	0.074	0.136
-197.290	189.489	-0.033	-0.049
-196.275	-131.532	0.229	0.030
-195.260	-61.257	0.167	0.070
-194.246	-200.000	-0.028	-0.420
-193.231	-35.412	-0.074	0.040
-192.217	-188.050	0.438	0.006
-191.202	41.168	-0.089	0.079
-190.187	202.270	-0.220	0.336
-189.173	356.318	0.163	0.321
-188.158	-47.920	-0.242	0.116
-187.144	-34.651	-0.111	0.060
-186.129	-68.020	0.252	0.097
-185.114	800.000	0.083	-0.273
-184.100	53.438	-0.033	0.031
-183.085	-80.178	0.346	-0.115
-182.071	484.779	0.090	0.203
-181.056	-3.649	0.314	-0.216
-180.042	262.590	-0.178	-0.305
-179.027	19.489	0.169	0.134
-178.012	70.417	-0.259	-0.265
-176.998	-125.792	0.141	-0.021
-175.983	374.345	-0.050	0.101
-174.969	-5.072	-0.061	0.042
-173.954	-162.696	-0.253	0.012
-172.939	114.677	0.183	-0.220
-171.925	800.000	-0.098	0.274
-170.910	111.068	-0.071	-0.085
-169.896	-59.478	-0.300	0.127
-168.881	201.695	0.146	0.222
-167.866	-35.202	-0.260	-0.140
-166.852	119.582	-0.110	-0.135
-165.837	800.000	-0.050	0.197
-164.823	-29.412	0.440	0.249
-163.808	61.253	0.132	-0.130
-162.793	-130.697	-0.109	0.015
-161.779	45.464	0.016	-0.015
-160.764	733.380	0.028	-0.073
-159.750	-0.224	0.209	-0.147
-158.735	800.000	0.097	-0.275
-157.720	183.366	-0.094	-0.138
-156.706	-50.242	0.297	-0.139
-155.691	-183.378	-0.236	-0.004
-154.677	175.234	0.115	0.165
-153.662	205.226	0.157	0.242
-152.647	-25.672	0.043	0.025
-151.633	-200.000	0.043	0.298
-150.618	688.683	0.103	-0.265
-149.604	174.275	0.106	-0.151
-148.589	-200.000	-0.003	0.013
-147.574	-81.613	-0.190	-0.062
-146.560	5.029	0.085	0.062
-145.545	367.502	-0.071	0.142
-144.531	-31.949	0.170	0.094
-143.516	-200.000	0.005	0.090
-142.502	111.228	-0.225	0.268
-141.487	-200.000	0.083	0.414
-140.472	-200.000	0.072	0.432
-139.458	-200.000	-0.021	-0.218
-138.443	63.148	0.140	-0.138
-137.429	800.000	-0.143	0.409
-136.414	800.000	0.027	0.091
-135.399	-163.131	-0.120	-0.006
-134.385	84.802	-0.195	-0.211
-133.370	-62.601	-0.103	0.042
-132.356	282.217	-0.135	-0.239
-131.341	112.753	-0.174	-0.208
-130.326	-94.593	-0.146	-0.039
-129.312	800.000	-0.091	0.267
-128.297	283.608	-0.072	-0.128
-127.283	800.000	-0.134	-0.382
-126.268	-122.257	0.179	0.029
-125.253	-61.670	-0.227	0.094
-124.239	-54.458	-0.065	0.029
-123.224	4.969	-0.115	0.084
-122.210	-45.105	-0.173	0.085
-121.195	213.844	0.066	0.104
-120.180	-142.641	-0.253	-0.024
-119.166	-147.680	-0.164	-0.014
-118.151	-200.000	0.006	0.279
-117.137	-200.000	0.012	0.067
-116.122	-200.000	0.002	-0.149
-115.107	-15.465	0.279	-0.176
-114.093	-45.821	0.388	-0.189
-113.078	349.437	-0.084	0.164
-112.064	-97.159	0.474	-0.122
-111.049	-61.507	-0.159	0.066
-110.034	-200.000	-0.002	0.010
-109.020	110.621	-0.189	0.224
-108.005	-91.820	-0.370	-0.104
-106.991	136.725	0.278	0.358
-105.976	38.372	0.107	0.094
-104.962	-200.000	0.000	0.049
-103.947	-135.955	0.138	0.016
-102.932	-25.317	0.109	0.064
-101.918	517.619	0.030	0.069
-100.903	316.179	-0.011	0.020
-99.889	-138.899	0.393	0.042
-98.874	-45.839	-0.149	-0.073
-97.859	800.000	0.076	0.253
-96.845	114.255	-0.047	-0.056
-95.830	8.486	0.133	0.098
-94.816	66.008	0.231	0.231
-93.801	459.204	0.031	0.068
-92.786	411.203	-0.146	-0.305
-91.772	158.973	0.074	-0.101
-90.757	-129.347	-0.301	0.041
-89.743	41.253	0.245	-0.219
-88.728	-172.917	-0.148	0.005
-87.713	13.721	-0.081	-0.062
-86.699	275.033	-0.232	0.406
-85.684	-27.571	0.300	-0.172
-84.670	269.146	0.021	0.036
-83.655	-128.806	0.215	-0.030
-82.640	-140.440	0.349	0.036
-81.626	13.896	0.206	0.158
-80.611	646.357	0.070	-0.175
-79.597	47.315	-0.209	-0.191
-78.582	-145.868	0.121	0.011
-77.567	-200.000	0.015	0.101
-76.553	-200.000	-0.028	0.246
-75.538	-200.000	0.025	0.266
-74.524	129.734	-0.182	-0.229
-73.509	-200.000	0.048	-0.280
-72.494	-65.161	0.034	0.013
-71.480	13.166	-0.087	0.066
-70.465	670.989	-0.029	-0.074
-69.451	-103.167	-0.258	-0.060
-68.436	664.870	0.029	0.073
-67.422	436.768	0.099	-0.213
-66.407	-200.000	-0.063	0.364
-65.392	-98.324	0.342	0.086
-64.378	32.201	-0.032	0.027
-63.363	-27.468	0.178	0.102
-62.349	627.566	0.119	0.296
-61.334	205.928	-0.551	-0.844
-60.319	95.548	0.364	0.409
-59.305	-200.000	-0.146	-1.273
-58.290	372.077	0.529	1.059
-57.276	165.788	0.864	1.203
-56.261	-200.000	95.533	593.712
-55.246	659.427	1367.408	3464.921
-54.232	199.809	2542.801	3841.693
-53.217	118.985	2159.378	2627.886
-52.203	42.853	1704.611	1529.265
-51.188	35.314	1517.448	1310.044
-50.173	32.892	1490.840	1270.737
-49.159	52.576	1539.053	1446.823
-48.144	54.343	1556.911	1475.634
-47.130	35.564	1516.968	1311.127
-46.115	32.244	1502.963	1276.468
-45.100	32.135	1499.372	1272.634
-44.086	32.120	1497.319	1270.734
-43.071	32.127	1495.130	1268.878
-42.057	32.153	1493.936	1267.985
-41.042	32.038	1492.340	1265.804
-40.027	32.064	1491.117	1264.898
-39.013	32.071	1489.233	1263.294
-37.998	32.018	1488.408	1262.185
-36.984	32.100	1486.883	1261.394
-35.969	32.116	1485.566	1260.338
-34.954	32.039	1484.297	1258.695
-33.940	32.049	1483.068	1257.664
-32.925	32.113	1481.398	1256.630
-31.911	32.021	1480.273	1255.011
-30.896	32.221	1478.237	1254.566
-29.881	32.200	1476.943	1253.279
-28.867	32.159	1475.821	1252.005
-27.852	32.221	1474.420	1251.184
-26.838	32.088	1473.571	1249.525
-25.823	32.183	1471.730	1248.549
-24.809	32.171	1469.681	1246.680
-23.794	32.087	1468.733	1245.269
-22.779	32.063	1467.490	1244.004
-21.765	32.056	1466.743	1243.274
-20.750	32.099	1465.208	1242.208
-19.736	32.043	1464.218	1240.950
-18.721	32.167	1462.823	1240.536
-17.706	32.040	1461.820	1238.804
-16.692	31.949	1461.207	1237.632
-15.677	32.006	1460.064	1236.988
-14.663	31.963	1459.052	1235.802
-13.648	32.032	1458.170	1235.462
-12.633	32.074	1456.403	1234.188
-11.619	32.015	1455.902	1233.326
-10.604	31.987	1455.513	1232.765
-9.590	32.060	1454.311	1232.178
-8.575	31.997	1454.058	1231.504
-7.560	32.057	1452.601	1230.614
-6.546	32.003	1451.611	1229.369
-5.531	31.881	1451.189	1228.168
-4.517	31.936	1449.992	1227.463
-3.502	31.995	1448.411	1226.462
-2.487	31.948	1447.653	1225.465
-1.473	31.964	1446.954	1224.929
-0.458	31.981	1445.354	1223.639
0.556	30.832	1435.953	1213.297
1.571	27.868	1410.709	1172.856
2.586	24.462	1351.124	1102.226
3.600	22.673	1270.226	1025.742
4.615	21.365	1223.967	980.963
5.629	18.483	1168.002	920.571
6.644	10.984	1084.643	817.258
7.659	5.391	1045.393	760.475
8.673	4.715	1040.034	753.237
9.688	4.671	1036.947	750.722
10.702	4.616	1035.418	749.284
11.717	4.338	1033.992	746.849
12.731	6.511	1035.591	758.403
13.746	13.431	1044.886	798.635
14.761	18.499	1050.834	827.644
15.775	18.391	1050.133	826.494
16.790	17.474	1047.649	820.053
17.804	16.415	1045.511	813.212
18.819	15.483	1043.528	807.119
19.834	14.979	1042.081	803.512
20.848	14.721	1041.343	801.629
21.863	14.630	1040.217	800.258
22.877	14.331	1039.858	798.478
23.892	14.130	1038.917	796.722
24.907	14.058	1038.459	795.953
25.921	14.100	1037.456	795.315
26.936	14.038	1036.980	794.583
27.950	14.137	1035.773	794.060
28.965	14.303	1034.714	793.970
29.980	14.155	1033.697	792.417
30.994	14.304	1032.737	792.319
32.009	14.349	1031.709	791.671
33.023	14.309	1030.944	790.828
34.038	14.440	1030.274	790.866
35.053	14.359	1029.078	789.490
36.067	14.238	1028.041	788.053
37.082	14.229	1027.115	787.233
38.096	14.322	1026.360	787.024
39.111	14.323	1025.719	786.465
40.126	14.404	1024.649	785.958
41.140	14.226	1023.739	784.355
42.155	14.232	1022.150	783.093
43.169	13.974	1021.381	781.222
44.184	14.051	1020.545	780.875
45.199	13.909	1019.304	779.193
46.213	14.065	1018.294	779.081
47.228	14.104	1017.474	778.566
48.242	13.971	1017.081	777.573
49.257	14.269	1015.832	777.946
50.271	14.195	1014.749	776.701
51.286	14.176	1014.130	776.069
52.301	14.182	1013.539	775.576
53.315	14.180	1012.657	774.826
54.330	14.174	1011.688	773.988
55.344	14.133	1010.755	773.012
56.359	14.159	1009.604	772.186
57.374	14.150	1008.683	771.372
58.388	14.003	1008.336	770.357
59.403	13.977	1007.674	769.661
60.417	13.892	1006.952	768.649
61.432	14.048	1005.726	768.367
62.447	13.850	1005.643	767.316
63.461	14.027	1004.554	767.235
64.476	13.914	1003.736	766.022
65.490	13.945	1002.674	765.290
66.505	13.953	1001.829	764.612
67.520	13.953	1001.206	764.068
68.534	14.103	999.993	763.766
69.549	14.101	999.031	762.952
70.563	13.965	998.815	762.097
71.578	13.912	998.377	761.453
72.593	13.664	997.738	759.762
73.607	13.762	996.488	759.192
74.622	13.799	995.235	758.338
75.636	13.778	994.523	757.635
76.651	13.833	993.693	757.185
77.666	13.758	993.017	756.259
78.680	13.907	992.100	756.175
79.695	13.859	991.847	755.695
80.709	13.828	991.236	755.020
81.724	13.828	990.570	754.448
82.739	13.962	989.675	754.309
83.753	14.017	989.079	754.038
84.768	14.160	988.618	754.268
85.782	14.233	987.587	753.741
86.797	14.333	986.904	753.606
87.812	14.366	985.816	752.862
88.826	14.182	985.401	751.644
89.841	14.206	984.600	751.075
90.855	14.282	984.095	750.965
91.870	14.263	983.292	750.200
92.884	14.339	982.460	749.841
93.899	14.490	981.787	749.942
94.914	14.369	981.076	748.790
95.928	14.473	980.332	748.623
96.943	14.484	979.509	747.979
97.957	14.374	978.624	746.742
98.972	14.318	978.022	745.966
99.987	14.420	976.863	745.470
101.001	14.513	975.879	745.070
102.016	14.374	975.404	744.021
103.030	14.333	974.490	743.075
104.045	14.394	973.572	742.583
105.060	14.437	972.787	742.108
106.074	14.275	971.597	740.416
107.089	14.073	971.097	739.071
108.103	14.001	970.064	737.900
109.118	13.928	969.098	736.773
110.133	14.132	968.148	736.893
111.147	14.012	967.423	735.746
112.162	14.004	966.486	734.932
113.176	14.017	965.947	734.513
114.191	14.181	964.657	734.191
115.206	14.148	964.281	733.694
116.220	14.093	963.397	732.713
117.235	14.162	962.568	732.322
118.249	14.023	962.232	731.390
119.264	13.998	961.106	730.361
120.279	14.097	959.840	729.767
121.293	14.000	959.345	728.899
122.308	13.935	958.466	727.885
123.322	14.005	957.285	727.229
124.337	13.891	956.665	726.195
125.352	13.934	955.589	725.500
126.366	14.052	954.031	724.770
127.381	13.970	953.235	723.742
128.395	13.875	952.285	722.545
129.410	13.987	951.372	722.276
130.424	14.036	950.353	721.653
131.439	14.036	949.781	721.152
132.454	14.094	948.976	720.727
133.468	14.086	948.435	720.219
134.483	14.130	947.852	719.903
135.497	14.044	946.997	718.817
136.512	14.130	945.889	718.284
137.527	14.087	945.308	717.596
138.541	14.094	944.735	717.125
139.556	14.075	944.341	716.682
140.570	14.065	943.808	716.172
141.585	14.215	942.710	715.919
142.600	14.272	942.151	715.677
143.614	14.331	941.652	715.486
144.629	14.325	940.400	714.450
145.643	14.439	939.664	714.315
146.658	14.385	938.982	713.503
147.673	14.366	937.193	711.997
148.687	14.336	936.731	711.455
149.702	14.198	936.150	710.364
150.716	14.203	934.936	709.398
151.731	14.239	933.997	708.775
152.746	14.245	933.413	708.296
153.760	14.278	932.681	707.820
154.775	14.222	931.875	706.906
155.789	14.355	931.397	707.049
156.804	14.321	930.725	706.328
157.819	14.384	929.805	705.834
158.833	14.357	929.414	705.362
159.848	14.393	928.800	704.986
160.862	14.423	928.116	704.532
161.877	14.566	927.444	704.562
162.892	14.363	926.383	702.839
163.906	14.313	925.470	701.872
164.921	14.176	924.918	700.814
165.935	14.245	923.655	700.084
166.950	14.351	922.670	699.722
167.964	14.377	921.865	699.160
168.979	14.359	920.708	698.146
169.994	14.310	920.082	697.402
171.008	14.248	919.361	696.535
172.023	14.217	918.831	695.943
173.037	14.427	917.886	696.045
174.052	14.558	916.830	695.725
175.067	14.557	916.556	695.454
176.081	14.425	915.840	694.298
177.096	14.292	914.836	692.925
178.110	14.204	914.151	691.975
179.125	14.279	913.533	691.758
180.140	14.392	912.575	691.442
181.154	14.491	911.763	691.174
182.169	14.462	911.549	690.833
183.183	14.611	910.831	690.844
184.198	14.629	910.010	690.234
185.213	14.631	909.417	689.730
186.227	14.566	909.082	689.147
187.242	14.654	908.604	689.088
188.256	14.662	907.791	688.442
189.271	14.822	906.905	688.371
190.286	14.700	906.423	687.439
191.300	14.587	905.517	686.228
192.315	14.507	904.512	685.075
193.329	14.319	903.934	683.805
194.344	14.328	902.974	683.056
195.359	14.407	902.749	683.152
196.373	14.561	902.108	683.236
197.388	14.632	901.520	683.022
198.402	14.671	901.459	683.073
199.417	14.807	900.691	682.988
200.432	14.970	900.327	683.316
201.446	14.937	899.945	682.832
202.461	14.853	899.878	682.374
203.475	15.160	899.220	683.070
204.490	15.026	898.486	681.905
205.504	15.017	897.483	681.049
206.519	14.788	897.175	679.822
207.534	14.813	896.297	679.196
208.548	14.832	895.440	678.567
209.563	14.822	894.529	677.774
210.577	15.007	894.103	678.141
211.592	14.909	893.175	676.980
212.607	15.016	893.054	677.261
213.621	15.104	892.237	676.937
214.636	15.053	891.600	676.189
215.650	14.939	891.311	675.451
216.665	14.864	890.830	674.725
217.680	15.068	890.029	674.879
218.694	14.995	889.782	674.337
219.709	15.187	889.260	674.655
220.723	15.184	888.456	673.973
221.738	15.238	887.349	673.293
222.753	15.214	886.852	672.758
223.767	15.184	885.954	671.898
224.782	15.023	885.771	671.056
225.796	15.123	884.949	670.771
226.811	15.287	884.115	670.738
227.826	15.201	883.530	669.891
228.840	15.140	882.796	669.030
229.855	15.194	882.160	668.705
230.869	15.058	881.530	667.628
231.884	15.155	880.887	667.468
232.899	15.100	880.101	666.592
233.913	15.091	879.394	665.961
234.928	15.060	878.628	665.200
235.942	15.071	877.878	664.619
236.957	15.075	876.932	663.856
237.972	14.958	876.740	663.192
238.986	14.991	875.963	662.675
240.001	15.195	875.014	662.705
241.015	15.176	874.531	662.204
242.030	15.223	873.545	661.585
243.045	15.236	873.428	661.492
244.059	15.089	873.158	660.645
245.074	15.231	872.417	660.587
246.088	15.187	871.997	660.038
247.103	15.399	871.049	660.095
248.117	15.478	870.382	659.843
249.132	15.410	869.880	659.137
250.147	15.475	869.847	659.309
251.161	15.673	869.023	659.404
252.176	15.721	868.387	659.050
253.190	15.842	867.344	658.674
254.205	15.708	866.700	657.601
255.220	15.915	866.456	658.167
256.234	15.840	865.880	657.379
257.249	15.763	865.782	656.946
258.263	15.774	864.836	656.211
259.278	15.828	864.359	656.001
260.293	15.949	863.421	655.705
261.307	15.968	863.072	655.456
262.322	15.754	863.040	654.540
263.336	15.844	862.093	654.114
264.351	16.001	861.295	654.061
265.366	16.020	860.611	653.557
266.380	15.900	860.334	652.822
267.395	16.110	859.142	652.676
268.409	15.901	858.787	651.537
269.424	15.776	858.159	650.519
270.439	16.023	857.126	650.635
271.453	15.936	856.408	649.695
272.468	15.789	855.764	648.583
273.482	15.957	855.136	648.696
274.497	15.952	854.570	648.191
275.512	15.873	854.121	647.489
276.526	15.986	852.799	646.863
277.541	15.969	852.374	646.417
278.555	15.981	851.703	645.898
279.570	15.959	851.556	645.645
280.585	16.021	851.299	645.629
281.599	16.223	850.158	645.480
282.614	16.034	849.965	644.555
283.628	16.101	848.962	643.993
284.643	15.873	848.587	642.781
285.657	16.081	848.319	643.314
286.672	16.105	847.339	642.605
287.687	16.077	846.755	642.000
288.701	16.120	846.523	641.932
289.716	16.128	846.133	641.610
290.730	16.040	845.734	640.916
291.745	16.262	844.928	641.091
292.760	16.177	844.204	640.161
293.774	16.091	843.670	639.374
294.789	16.317	843.048	639.704
295.803	16.351	842.589	639.426
296.818	16.259	841.850	638.461
297.833	16.135	841.327	637.540
298.847	16.274	840.392	637.297
299.862	16.323	839.625	636.846
300.876	16.247	839.110	636.112
301.891	16.391	838.519	636.150
302.906	16.485	838.146	636.167
303.920	16.539	837.177	635.574
304.935	16.588	836.699	635.341
305.949	16.570	835.941	634.643
306.964	16.520	835.450	634.027
307.979	16.500	835.032	633.575
308.993	16.394	834.852	632.985
310.008	16.625	833.961	633.121
311.022	16.638	833.682	632.901
312.037	16.580	832.862	632.004
313.052	16.498	832.348	631.255
314.066	16.449	831.698	630.522
315.081	16.492	830.736	629.899
316.095	16.417	830.355	629.274
317.110	16.406	829.925	628.852
318.125	16.325	829.376	628.078
319.139	16.423	828.838	627.977
320.154	16.386	828.704	627.684
321.168	16.551	828.111	627.791
322.183	16.487	827.486	627.027
323.197	16.608	826.717	626.836
324.212	16.581	826.650	626.628
325.227	16.609	825.773	626.014
326.241	16.610	825.096	625.447
327.256	16.566	824.877	625.063
328.270	16.503	824.431	624.439
329.285	16.479	823.829	623.837
330.300	16.531	823.081	623.409
331.314	16.563	822.280	622.862
332.329	16.592	821.887	622.618
333.343	16.684	821.093	622.301
334.358	16.848	821.075	622.835
335.373	16.718	820.389	621.783
336.387	16.809	819.446	621.345
337.402	16.803	819.243	621.116
338.416	16.866	818.420	620.667
339.431	16.870	818.260	620.503
340.446	17.008	817.565	620.428
341.460	16.891	817.241	619.697
342.475	17.029	816.832	619.838
343.489	16.931	816.419	619.113
344.504	17.012	815.593	618.724
345.519	17.027	815.404	618.582
346.533	17.071	814.655	618.121
347.548	17.217	814.060	618.145
348.562	17.072	813.575	617.195
349.577	17.054	812.777	616.470
350.592	17.070	812.166	616.010
351.606	16.981	811.746	615.312
352.621	16.966	811.169	614.765
353.635	16.916	810.917	614.340
354.650	17.096	810.635	614.725
355.665	16.933	810.210	613.759
356.679	17.075	809.802	613.908
357.694	17.126	809.077	613.490
358.708	17.060	808.295	612.604
359.723	17.018	808.232	612.348
360.738	17.175	807.455	612.274
361.752	17.118	806.950	611.629
362.767	17.305	806.552	611.948
363.781	17.218	806.272	611.368
364.796	17.433	805.860	611.773
365.810	17.424	805.359	611.309
366.825	17.341	805.196	610.832
367.840	17.504	804.502	610.834
368.854	17.535	803.937	610.465
369.869	17.408	804.018	610.015
370.883	17.407	803.085	609.251
371.898	17.389	802.825	608.934
372.913	17.461	802.035	608.541
373.927	17.604	801.525	608.608
374.942	17.524	800.910	607.802
375.956	17.440	800.452	607.102
376.971	17.432	800.192	606.822
377.986	17.580	799.270	606.598
379.000	17.567	798.839	606.171
380.015	17.691	798.312	606.159
381.029	17.598	797.945	605.496
382.044	17.547	797.537	604.951
383.059	17.611	796.857	604.607
384.073	17.715	796.270	604.478
385.088	17.728	795.709	604.043
386.102	17.641	794.995	603.142
387.117	17.294	794.767	601.686
388.132	17.696	794.068	602.524
389.146	17.502	793.724	601.526
390.161	17.713	793.094	601.741
391.175	17.819	792.622	601.701
392.190	17.759	792.525	601.366
393.205	17.681	792.229	600.810
394.219	17.553	791.859	600.026
395.234	17.667	791.065	599.773
396.248	17.624	790.388	599.057
397.263	17.563	790.346	598.757
398.278	17.575	789.844	598.364
399.292	17.502	789.324	597.661
400.307	17.664	788.535	597.580
401.321	17.681	788.132	597.282
402.336	17.596	788.183	596.970
403.350	17.608	787.859	596.712
404.365	17.682	787.060	596.314
405.380	17.725	786.766	596.188
406.394	17.855	786.222	596.179
407.409	17.810	786.259	595.995
408.423	17.940	785.571	595.877
409.438	17.991	785.088	595.635
410.453	18.047	784.838	595.585
411.467	17.945	784.299	594.769
412.482	18.018	783.997	594.743
413.496	18.156	783.268	594.615
414.511	18.174	782.920	594.362
415.526	17.950	783.145	593.703
416.540	18.114	782.346	593.614
417.555	18.090	781.793	593.056
418.569	18.161	781.473	593.009
419.584	18.099	781.304	592.612
420.599	18.208	780.885	592.619
421.613	155.924	1368.956	1794.491
422.628	134.576	1454.634	1794.611
