DTS Sentinel unit serial number:	SN413079Multiplexer serial number:	ORYXHardware model number:	OX4-SRSoftware version number:	ORYX F/W v4.00 Oryx Data Collector v3.7.2.0data status	okinstallation	princeton_trtdifferential loss correction	single-endedforward channel	channel 3reverse channel	N/Adate	2019/09/12time	01:22:11forward acquisition time	60.00reverse acquisition time	0.00gamma	496.2192k internal	0.2320k external	0.2320temperature offset calibration	1.0068default loss term (dB/km)	0.3790temperature slope calibration	1.0000multiplexer offset coefficient	1.0000multiplexer slope coefficient	1.0000fibre end	0.00T internal ref (°C)	33.00T ext. ref 1 (°C)	2.08T ext. ref 2 (°C)	27.93length (m)	temperature (°C)	Stokes	anti-Stokes-747.200	800.000	0.060	0.178
-746.185	-11.532	-0.204	0.136
-745.171	-56.993	-0.307	-0.137
-744.156	414.103	-0.137	0.295
-743.142	-41.774	-0.380	0.197
-742.127	-186.290	-0.314	-0.005
-741.112	-200.000	-0.010	-0.059
-740.098	321.827	-0.141	0.271
-739.083	-200.000	0.011	-0.102
-738.069	-200.000	0.004	0.369
-737.054	31.454	-0.166	0.145
-736.039	800.000	-0.103	-0.388
-735.025	338.593	-0.072	-0.142
-734.010	-102.577	0.154	0.037
-732.996	499.335	0.064	-0.148
-731.981	70.734	0.057	-0.059
-730.966	-123.786	-0.256	0.041
-729.952	-73.552	0.004	0.001
-728.937	24.406	-0.300	-0.251
-727.923	191.201	-0.068	0.104
-726.908	800.000	-0.060	-0.203
-725.894	-48.782	-0.357	0.173
-724.879	52.927	0.132	0.128
-723.864	-113.704	-0.126	-0.025
-722.850	800.000	-0.013	-0.056
-721.835	800.000	-0.018	-0.061
-720.821	191.992	-0.045	-0.069
-719.806	-200.000	0.006	0.029
-718.791	-115.959	0.320	-0.060
-717.777	-200.000	-0.016	-0.149
-716.762	131.216	-0.190	0.247
-715.748	-125.231	-0.077	0.012
-714.733	-200.000	0.041	-0.268
-713.718	-167.942	0.135	-0.005
-712.704	-39.707	-0.147	-0.078
-711.689	-157.582	0.358	0.022
-710.675	214.198	0.133	0.213
-709.660	115.531	0.107	0.132
-708.645	68.316	-0.119	0.123
-707.631	-100.903	-0.232	-0.058
-706.616	-29.413	0.105	-0.060
-705.602	-73.053	-0.185	-0.069
-704.587	-164.430	0.116	0.005
-703.572	-23.634	-0.196	-0.119
-702.558	43.653	-0.059	-0.054
-701.543	-135.283	-0.177	-0.021
-700.529	108.540	-0.278	-0.335
-699.514	-71.234	0.228	0.086
-698.499	800.000	-0.014	0.050
-697.485	6.787	0.240	-0.180
-696.470	-200.000	-0.001	0.087
-695.456	800.000	-0.099	0.382
-694.441	43.702	0.164	-0.152
-693.426	-200.000	0.325	-0.001
-692.412	-23.094	-0.225	-0.137
-691.397	244.184	-0.021	0.036
-690.383	-119.721	0.171	0.030
-689.368	-200.000	-0.016	0.276
-688.354	61.927	0.199	-0.201
-687.339	32.000	0.186	-0.161
-686.324	-128.701	0.594	0.085
-685.310	-137.286	-0.232	-0.027
-684.295	33.488	-0.047	-0.041
-683.281	168.941	-0.163	0.235
-682.266	226.674	-0.019	-0.032
-681.251	-175.423	-0.269	-0.007
-680.237	-98.173	0.108	0.028
-679.222	800.000	-0.044	0.123
-678.208	-126.811	-0.008	0.001
-677.193	100.668	0.180	0.211
-676.178	181.975	0.035	-0.052
-675.164	256.370	-0.108	0.187
-674.149	800.000	0.076	-0.242
-673.135	-137.804	0.322	0.036
-672.120	98.153	0.054	0.062
-671.105	-200.000	0.060	0.424
-670.091	63.499	-0.098	-0.099
-669.076	115.681	-0.203	-0.250
-668.062	-200.000	-0.024	-0.279
-667.047	47.097	-0.116	0.109
-666.032	-200.000	-0.017	0.229
-665.018	-4.148	-0.261	-0.182
-664.003	-69.274	-0.154	0.060
-662.989	-173.277	0.217	-0.007
-661.974	622.344	-0.100	-0.253
-660.959	800.000	-0.061	0.270
-659.945	235.944	0.027	-0.045
-658.930	-45.494	0.274	0.137
-657.916	-99.198	0.296	0.075
-656.901	-20.260	0.305	0.189
-655.886	-98.200	-0.104	-0.027
-654.872	-200.000	-0.061	0.270
-653.857	800.000	0.010	-0.044
-652.843	406.139	-0.083	0.176
-651.828	83.650	0.194	-0.213
-650.814	-22.720	-0.372	-0.227
-649.799	243.432	-0.029	0.049
-648.784	-200.000	-0.005	-0.209
-647.770	-42.280	0.171	-0.088
-646.755	-56.419	-0.245	0.110
-645.741	224.838	0.077	0.125
-644.726	-110.604	0.122	-0.025
-643.711	85.117	0.192	0.212
-642.697	581.329	-0.072	0.178
-641.682	33.292	-0.224	0.196
-640.668	153.123	0.167	-0.231
-639.653	-0.578	0.136	-0.097
-638.638	-200.000	-0.025	-0.557
-637.624	199.483	-0.123	-0.190
-636.609	55.357	0.232	0.226
-635.595	65.455	0.103	0.105
-634.580	-80.740	-0.355	0.119
-633.565	-164.748	-0.242	0.011
-632.551	42.228	-0.211	-0.193
-631.536	300.920	0.103	0.192
-630.522	646.062	0.064	0.164
-629.507	-143.626	-0.098	-0.009
-628.492	100.236	0.049	0.057
-627.478	337.512	-0.130	-0.253
-626.463	-163.473	0.205	-0.010
-625.449	-91.202	0.181	0.052
-624.434	72.683	-0.344	-0.361
-623.419	-124.727	-0.158	0.025
-622.405	-73.994	-0.094	-0.034
-621.390	-71.526	-0.079	-0.030
-620.376	-200.000	-0.002	-0.054
-619.361	-77.735	0.220	0.077
-618.346	800.000	0.023	0.087
-617.332	-200.000	-0.065	0.388
-616.317	-109.638	-0.211	-0.045
-615.303	76.548	-0.037	-0.040
-614.288	-200.000	0.014	0.174
-613.273	-200.000	-0.031	-0.142
-612.259	156.330	0.171	0.237
-611.244	171.185	0.196	-0.282
-610.230	800.000	0.069	-0.233
-609.215	-10.914	0.118	0.078
-608.201	46.305	0.192	0.179
-607.186	320.538	0.102	0.195
-606.171	214.051	0.105	0.167
-605.157	-200.000	-0.018	0.081
-604.142	-8.754	-0.099	0.067
-603.128	-30.701	-0.154	0.088
-602.113	-152.214	-0.120	-0.009
-601.098	68.319	0.202	0.208
-600.084	-200.000	0.055	-0.258
-599.069	800.000	-0.127	-0.430
-598.055	-200.000	0.020	-0.170
-597.040	133.989	0.109	-0.141
-596.025	-186.209	-0.122	-0.002
-595.011	-90.962	0.163	-0.047
-593.996	-19.943	0.080	-0.050
-592.982	-162.593	-0.144	0.007
-591.967	-200.000	0.040	0.259
-590.952	-85.053	0.068	-0.022
-589.938	151.994	-0.107	-0.146
-588.923	184.055	0.061	0.091
-587.909	-200.000	0.005	-0.079
-586.894	-44.102	0.153	-0.077
-585.879	800.000	-0.044	-0.164
-584.865	485.164	-0.018	-0.040
-583.850	800.000	-0.055	-0.166
-582.836	800.000	0.067	-0.238
-581.821	-25.663	-0.074	0.044
-580.806	-65.693	-0.019	-0.008
-579.792	-129.988	-0.252	0.035
-578.777	348.276	0.026	-0.051
-577.763	265.349	-0.108	-0.190
-576.748	-59.645	-0.330	-0.142
-575.733	-200.000	-0.038	0.170
-574.719	288.654	0.058	0.105
-573.704	98.136	-0.146	-0.169
-572.690	-200.000	-0.002	0.347
-571.675	47.103	-0.382	-0.357
-570.661	-200.000	-0.006	0.058
-569.646	526.542	0.080	0.190
-568.631	-91.368	0.034	0.010
-567.617	-2.607	-0.186	0.131
-566.602	-21.860	-0.299	-0.183
-565.588	622.717	0.096	0.242
-564.573	49.270	0.121	0.115
-563.558	518.497	-0.228	0.537
-562.544	-200.000	0.022	0.217
-561.529	-152.080	0.165	0.012
-560.515	-200.000	0.004	0.262
-559.500	72.942	-0.175	-0.183
-558.485	-177.925	-0.092	0.002
-557.471	177.288	0.188	0.275
-556.456	-86.802	0.273	-0.084
-555.442	23.322	0.128	0.106
-554.427	-137.638	-0.144	-0.016
-553.412	365.086	0.107	0.216
-552.398	287.369	0.130	-0.235
-551.383	-5.203	-0.023	0.016
-550.369	800.000	-0.018	0.066
-549.354	268.070	0.038	0.068
-548.339	223.851	0.152	0.247
-547.325	492.641	-0.150	0.344
-546.310	-200.000	0.055	0.409
-545.296	-96.808	0.276	-0.073
-544.281	-200.000	-0.031	-0.222
-543.266	-29.998	0.049	-0.028
-542.252	800.000	0.049	0.212
-541.237	66.373	0.166	0.169
-540.223	-96.813	0.187	-0.049
-539.208	-84.788	0.285	0.090
-538.193	-200.000	-0.011	-0.293
-537.179	100.494	-0.063	-0.073
-536.164	800.000	-0.063	-0.180
-535.150	99.627	0.107	-0.125
-534.135	44.794	0.207	-0.191
-533.121	-3.987	-0.356	0.247
-532.106	-82.028	0.196	0.064
-531.091	374.219	0.054	0.111
-530.077	-145.499	-0.236	-0.021
-529.062	342.530	0.118	0.231
-528.048	-7.551	0.187	-0.127
-527.033	-200.000	0.027	-0.231
-526.018	-200.000	-0.014	0.281
-525.004	174.164	-0.086	0.125
-523.989	-153.092	0.230	-0.016
-522.975	105.133	-0.213	-0.252
-521.960	-170.425	0.161	-0.006
-520.945	-65.075	0.203	0.082
-519.931	-170.727	-0.180	0.006
-518.916	-131.272	-0.134	-0.018
-517.902	-200.000	0.001	0.086
-516.887	-1.623	-0.186	-0.131
-515.872	197.972	-0.293	-0.449
-514.858	586.551	-0.168	-0.413
-513.843	-178.533	0.179	0.004
-512.829	-123.817	0.119	-0.019
-511.814	-200.000	0.008	0.073
-510.799	-42.163	-0.177	-0.091
-509.785	-200.000	-0.061	-0.292
-508.770	-25.912	-0.147	-0.087
-507.756	-139.096	0.252	-0.027
-506.741	327.679	-0.086	0.165
-505.726	102.700	-0.132	-0.155
-504.712	800.000	-0.109	0.386
-503.697	164.388	-0.169	0.238
-502.683	509.205	0.163	0.381
-501.668	800.000	0.072	-0.291
-500.653	500.686	0.185	-0.429
-499.639	369.125	0.103	0.209
-498.624	163.557	0.194	0.274
-497.610	-93.238	0.270	-0.075
-496.595	-55.665	0.123	0.055
-495.581	800.000	-0.026	0.088
-494.566	-47.798	0.157	-0.076
-493.551	-65.246	-0.078	-0.031
-492.537	-200.000	0.008	0.035
-491.522	-132.341	-0.459	0.059
-490.508	404.005	-0.183	0.387
-489.493	-111.165	0.342	-0.070
-488.478	-179.497	-0.264	-0.006
-487.464	-200.000	-0.063	-0.290
-486.449	87.247	-0.344	-0.381
-485.435	-14.863	0.252	0.162
-484.420	-148.672	-0.264	0.022
-483.405	339.767	0.204	0.399
-482.391	23.211	0.054	0.045
-481.376	-200.000	0.056	-0.282
-480.362	183.109	-0.110	0.163
-479.347	-200.000	-0.008	-0.089
-478.332	98.219	0.098	0.113
-477.318	-200.000	-0.009	-0.199
-476.303	109.066	-0.035	-0.042
-475.289	-119.389	-0.325	0.056
-474.274	-118.304	0.404	0.072
-473.259	542.344	-0.133	-0.318
-472.245	-200.000	-0.012	-0.122
-471.230	85.068	0.289	0.317
-470.216	-200.000	0.027	0.200
-469.201	-60.590	-0.135	-0.057
-468.186	-3.231	0.112	0.078
-467.172	222.352	0.085	-0.137
-466.157	199.517	0.150	0.230
-465.143	227.946	0.095	-0.155
-464.128	-43.935	0.392	-0.197
-463.113	-80.740	-0.112	-0.037
-462.099	114.660	-0.048	-0.058
-461.084	-19.197	-0.197	-0.123
-460.070	-126.442	-0.030	-0.004
-459.055	-87.622	-0.069	0.021
-458.040	-200.000	-0.056	-0.279
-457.026	-200.000	0.004	0.222
-456.011	229.738	-0.089	0.145
-454.997	-64.918	0.016	0.007
-453.982	-200.000	-0.007	0.324
-452.968	173.937	-0.063	-0.091
-451.953	-105.513	-0.524	-0.119
-450.938	-31.578	0.258	0.145
-449.924	-38.385	0.147	0.078
-448.909	-176.208	-0.102	-0.003
-447.895	-200.000	0.039	-0.186
-446.880	-20.409	0.217	-0.133
-445.865	-20.360	0.039	-0.024
-444.851	-85.169	-0.044	0.014
-443.836	-79.115	-0.199	-0.067
-442.822	-200.000	0.035	0.360
-441.807	-70.246	-0.280	0.106
-440.792	-69.191	-0.180	0.069
-439.778	30.384	0.287	0.245
-438.763	-200.000	0.005	-0.032
-437.749	-86.790	-0.127	0.039
-436.734	260.060	-0.082	0.141
-435.719	395.088	0.122	-0.253
-434.705	268.812	-0.052	-0.092
-433.690	507.123	-0.028	-0.066
-432.676	72.778	0.029	0.030
-431.661	-157.240	0.157	0.009
-430.646	-200.000	-0.016	-0.173
-429.632	-200.000	0.007	-0.041
-428.617	800.000	0.070	0.297
-427.603	-75.848	0.213	0.075
-426.588	75.722	-0.131	-0.138
-425.573	-83.963	0.288	-0.091
-424.559	-107.020	0.173	-0.038
-423.544	-180.434	-0.043	-0.001
-422.530	369.164	-0.247	-0.499
-421.515	-156.503	0.148	0.009
-420.500	800.000	0.162	-0.552
-419.486	-104.474	-0.183	-0.042
-418.471	-32.815	-0.194	0.108
-417.457	316.962	-0.064	0.122
-416.442	468.729	-0.147	0.329
-415.428	-46.582	-0.138	0.067
-414.413	42.401	-0.046	0.041
-413.398	424.360	0.105	-0.225
-412.384	-57.439	-0.123	-0.054
-411.369	-26.078	0.121	0.071
-410.355	-150.212	0.269	0.021
-409.340	298.883	0.069	0.126
-408.325	-59.624	0.147	-0.063
-407.311	-119.896	0.408	-0.070
-406.296	303.598	0.105	0.194
-405.282	-200.000	0.002	0.061
-404.267	19.847	0.338	0.272
-403.252	134.147	-0.152	-0.197
-402.238	-46.867	0.266	-0.130
-401.223	690.550	0.110	-0.288
-400.209	82.936	-0.155	-0.168
-399.194	-78.071	-0.197	-0.068
-398.179	-90.895	-0.301	-0.086
-397.165	-200.000	0.057	0.312
-396.150	-62.806	0.683	-0.282
-395.136	202.928	-0.106	0.164
-394.121	-179.725	-0.138	-0.003
-393.106	-200.000	-0.022	-0.263
-392.092	-83.150	-0.147	-0.047
-391.077	133.683	0.094	0.122
-390.063	-90.975	0.249	0.071
-389.048	800.000	0.019	0.079
-388.033	-132.639	-0.470	0.060
-387.019	800.000	0.083	-0.310
-386.004	800.000	-0.093	0.291
-384.990	91.382	-0.038	-0.042
-383.975	116.419	-0.062	-0.076
-382.960	554.015	-0.028	-0.066
-381.946	15.633	-0.164	-0.128
-380.931	-102.970	-0.065	0.015
-379.917	214.233	-0.215	-0.339
-378.902	33.484	0.244	0.211
-377.888	436.658	-0.120	0.261
-376.873	121.706	-0.178	0.222
-375.858	-93.080	0.206	-0.057
-374.844	800.000	-0.077	0.219
-373.829	48.774	0.054	-0.050
-372.815	152.290	-0.139	0.189
-371.800	8.602	-0.239	-0.179
-370.785	124.515	0.239	-0.299
-369.771	-200.000	-0.008	-0.146
-368.756	317.708	-0.131	0.246
-367.742	-200.000	-0.022	0.109
-366.727	29.527	0.129	0.109
-365.712	-40.371	-0.140	-0.073
-364.698	-81.293	0.312	0.103
-363.683	-200.000	0.042	-0.256
-362.669	428.062	-0.126	-0.272
-361.654	117.242	-0.292	0.357
-360.639	-78.440	-0.176	-0.060
-359.625	-32.663	0.069	-0.038
-358.610	95.456	-0.029	-0.033
-357.596	278.308	-0.166	-0.294
-356.581	305.254	-0.015	-0.028
-355.566	37.556	0.311	0.274
-354.552	800.000	0.113	-0.312
-353.537	-200.000	0.010	-0.203
-352.523	-200.000	-0.003	-0.212
-351.508	-200.000	0.002	-0.134
-350.493	563.210	-0.073	-0.176
-349.479	-184.117	-0.080	0.001
-348.464	-73.705	0.118	-0.043
-347.450	-200.000	-0.052	0.345
-346.435	144.840	0.134	0.178
-345.420	-200.000	-0.092	-0.000
-344.406	-74.892	0.162	-0.058
-343.391	582.633	-0.073	0.179
-342.377	31.792	0.131	-0.112
-341.362	259.579	-0.136	0.234
-340.348	128.266	-0.149	-0.189
-339.333	-200.000	0.000	0.241
-338.318	47.563	0.158	-0.146
-337.304	-167.951	-0.282	-0.011
-336.289	-56.866	-0.008	-0.004
-335.275	800.000	0.039	-0.115
-334.260	68.437	-0.092	-0.094
-333.245	-58.534	0.266	-0.115
-332.231	-174.278	0.473	-0.014
-331.216	800.000	-0.046	0.186
-330.202	353.806	-0.117	0.231
-329.187	38.328	-0.222	-0.197
-328.172	70.550	0.049	0.051
-327.158	-198.455	0.315	-0.002
-326.143	800.000	0.111	0.345
-325.129	-70.352	-0.149	0.056
-324.114	122.887	-0.022	-0.027
-323.099	76.272	0.104	-0.109
-322.085	-36.554	-0.018	0.009
-321.070	-30.939	-0.220	0.124
-320.056	-200.000	0.032	0.257
-319.041	-200.000	-0.002	0.239
-318.026	-200.000	0.048	0.228
-317.012	208.612	-0.088	0.137
-315.997	-122.320	-0.556	0.090
-314.983	360.174	0.037	0.074
-313.968	-137.312	-0.142	0.016
-312.953	651.753	-0.131	0.334
-311.939	-200.000	0.008	-0.262
-310.924	-148.997	0.148	0.012
-309.910	-200.000	-0.009	0.070
-308.895	-200.000	-0.004	0.022
-307.880	-96.384	-0.084	0.022
-306.866	-200.000	0.019	-0.127
-305.851	679.549	0.095	0.246
-304.837	46.288	-0.165	0.152
-303.822	-144.988	0.136	-0.012
-302.807	-61.127	-0.161	0.068
-301.793	-115.300	0.210	-0.039
-300.778	-33.228	0.222	0.122
-299.764	-200.000	0.002	-0.233
-298.749	-54.250	-0.367	-0.166
-297.735	-200.000	-0.039	0.230
-296.720	98.526	0.076	-0.087
-295.705	-122.878	-0.221	-0.035
-294.691	-200.000	-0.037	0.317
-293.676	62.412	0.160	-0.158
-292.662	-5.615	-0.267	-0.182
-291.647	800.000	0.083	-0.281
-290.632	-56.693	0.085	0.037
-289.618	-200.000	-0.380	-0.001
-288.603	326.333	-0.078	0.149
-287.589	356.616	-0.009	0.017
-286.574	197.551	0.277	0.420
-285.559	-11.989	0.319	0.207
-284.545	-152.087	0.115	0.008
-283.530	-117.811	-0.134	0.024
-282.516	-200.000	0.035	-0.191
-281.501	-200.000	-0.003	0.015
-280.486	108.599	0.037	0.044
-279.472	117.268	-0.163	0.199
-278.457	-200.000	0.039	-0.324
-277.443	50.567	0.206	0.194
-276.428	44.801	-0.217	-0.198
-275.413	800.000	-0.070	-0.264
-274.399	-200.000	0.032	-0.189
-273.384	-31.727	-0.141	-0.079
-272.370	-68.822	0.178	-0.068
-271.355	83.095	0.186	-0.201
-270.340	216.286	-0.084	-0.132
-269.326	800.000	-0.070	0.219
-268.311	240.063	0.123	-0.204
-267.297	-79.051	0.155	0.052
-266.282	800.000	-0.054	-0.214
-265.267	800.000	0.053	-0.147
-264.253	-200.000	-0.008	-0.283
-263.238	-37.033	-0.343	-0.183
-262.224	-152.641	0.080	-0.006
-261.209	800.000	-0.051	-0.143
-260.195	240.133	-0.134	0.221
-259.180	-40.661	0.163	0.084
-258.165	-99.460	-0.215	0.054
-257.151	204.319	-0.121	0.186
-256.136	-200.000	-0.024	-0.208
-255.122	725.912	-0.055	0.145
-254.107	-150.552	-0.096	-0.007
-253.092	800.000	0.058	0.247
-252.078	434.941	0.053	-0.114
-251.063	178.926	0.119	-0.173
-250.049	-200.000	0.052	0.316
-249.034	174.207	0.049	0.070
-248.019	-161.269	-0.066	0.003
-247.005	203.893	0.183	0.281
-245.990	-52.742	-0.076	0.035
-244.976	-38.748	0.088	0.046
-243.961	201.431	0.218	0.333
-242.946	-85.292	-0.118	0.036
-241.932	21.888	0.038	-0.031
-240.917	-200.000	-0.007	0.222
-239.903	-190.626	0.266	-0.003
-238.888	-48.670	-0.146	0.069
-237.873	800.000	0.103	0.320
-236.859	645.381	-0.087	0.221
-235.844	-200.000	0.037	0.271
-234.830	130.493	0.111	0.141
-233.815	46.645	-0.315	0.290
-232.800	-200.000	-0.017	-0.082
-231.786	-18.362	0.197	0.122
-230.771	-66.757	0.272	0.107
-229.757	-157.183	-0.160	-0.010
-228.742	288.792	0.085	-0.153
-227.727	137.417	0.071	-0.092
-226.713	800.000	-0.035	0.141
-225.698	-139.395	-0.146	0.016
-224.684	262.511	-0.086	-0.147
-223.669	-123.674	-0.306	0.048
-222.655	800.000	0.083	0.237
-221.640	393.247	0.131	0.271
-220.625	43.471	0.078	0.070
-219.611	800.000	-0.084	-0.323
-218.596	593.582	0.118	-0.289
-217.582	152.962	-0.168	-0.228
-216.567	-200.000	-0.049	-0.442
-215.552	-200.000	-0.008	0.230
-214.538	-200.000	-0.035	0.197
-213.523	-2.816	-0.289	-0.200
-212.509	-51.410	-0.099	-0.046
-211.494	800.000	0.089	-0.257
-210.479	66.956	-0.229	-0.231
-209.465	800.000	-0.009	-0.034
-208.450	-183.404	0.224	0.004
-207.436	-73.117	-0.134	-0.049
-206.421	-200.000	-0.016	-0.187
-205.406	676.044	-0.063	-0.163
-204.392	-200.000	-0.001	-0.059
-203.377	300.393	-0.030	0.056
-202.363	-23.650	0.299	-0.178
-201.348	-96.243	0.192	-0.050
-200.333	-200.000	-0.002	0.037
-199.319	44.447	0.207	-0.188
-198.304	216.106	0.062	0.097
-197.290	664.863	0.021	0.053
-196.275	800.000	0.033	-0.106
-195.260	-88.215	0.292	-0.087
-194.246	110.368	-0.216	-0.257
-193.231	-200.000	-0.023	0.210
-192.217	-200.000	0.004	0.085
-191.202	52.584	-0.187	-0.177
-190.187	-63.799	0.195	0.079
-189.173	800.000	-0.068	0.241
-188.158	-160.025	-0.327	0.018
-187.144	138.827	-0.097	0.126
-186.129	212.159	-0.139	0.217
-185.114	-24.038	-0.284	0.168
-184.100	800.000	0.064	-0.250
-183.085	28.382	0.391	0.327
-182.071	800.000	-0.092	-0.301
-181.056	9.407	0.146	-0.109
-180.042	-167.022	0.239	-0.010
-179.027	-200.000	-0.087	0.577
-178.012	-43.957	0.334	-0.166
-176.998	-84.252	-0.312	0.098
-175.983	645.489	0.075	0.188
-174.969	48.159	-0.072	0.066
-173.954	800.000	-0.099	-0.349
-172.939	-65.966	-0.172	0.068
-171.925	739.750	-0.076	-0.203
-170.910	109.350	-0.137	0.162
-169.896	-200.000	0.000	-0.081
-168.881	-80.259	-0.172	-0.057
-167.866	-166.562	-0.137	-0.006
-166.852	181.045	0.292	-0.424
-165.837	142.318	0.166	0.218
-164.823	-12.199	0.162	-0.105
-163.808	-200.000	0.041	-0.225
-162.793	-39.135	0.179	-0.093
-161.779	-85.849	0.004	-0.001
-160.764	800.000	0.062	0.191
-159.750	-86.970	-0.148	0.044
-158.735	96.034	0.176	-0.199
-157.720	800.000	0.063	-0.253
-156.706	192.900	0.267	-0.398
-155.691	-200.000	0.041	0.187
-154.677	-200.000	-0.034	-0.149
-153.662	-51.720	-0.155	0.071
-152.647	-74.943	0.222	-0.079
-151.633	307.994	-0.229	-0.422
-150.618	85.415	-0.022	-0.024
-149.604	-58.902	0.271	-0.116
-148.589	-84.289	0.321	-0.101
-147.574	323.724	-0.115	0.217
-146.560	-165.339	0.236	-0.010
-145.545	-149.752	-0.174	0.013
-144.531	-91.443	0.125	0.035
-143.516	214.310	0.103	-0.161
-142.502	-54.408	0.217	0.097
-141.487	-200.000	0.032	0.191
-140.472	-200.000	-0.028	-0.153
-139.458	-200.000	0.014	-0.116
-138.443	2.430	0.258	-0.184
-137.429	-200.000	-0.010	0.176
-136.414	755.753	-0.103	0.276
-135.399	-200.000	0.056	0.294
-134.385	71.595	0.094	0.096
-133.370	-200.000	0.006	0.359
-132.356	78.268	-0.084	0.089
-131.341	176.808	0.070	-0.100
-130.326	-42.614	-0.221	-0.111
-129.312	-53.650	-0.089	0.040
-128.297	93.804	0.073	-0.082
-127.283	-5.563	-0.228	-0.154
-126.268	800.000	0.129	0.358
-125.253	-200.000	-0.005	0.062
-124.239	8.908	0.046	-0.034
-123.224	-65.150	0.259	0.103
-122.210	-200.000	0.018	0.234
-121.195	94.281	-0.158	0.177
-120.180	155.374	0.179	0.243
-119.166	-200.000	0.007	-0.034
-118.151	-200.000	-0.060	-0.338
-117.137	-107.855	0.095	0.020
-116.122	-115.975	0.355	0.065
-115.107	72.617	0.328	-0.337
-114.093	-200.000	0.010	-0.293
-113.078	-200.000	0.018	-0.151
-112.064	-200.000	0.029	0.131
-111.049	-200.000	0.057	0.310
-110.034	800.000	-0.015	-0.043
-109.020	-200.000	-0.056	-0.252
-108.005	-200.000	-0.007	-0.051
-106.991	-24.657	0.201	-0.118
-105.976	800.000	-0.049	-0.161
-104.962	800.000	-0.096	0.301
-103.947	800.000	-0.013	0.041
-102.932	184.414	0.074	0.108
-101.918	-80.305	0.060	-0.020
-100.903	-90.226	0.369	0.106
-99.889	490.291	-0.067	0.151
-98.874	800.000	-0.068	0.209
-97.859	-24.621	0.065	0.038
-96.845	259.250	-0.140	-0.238
-95.830	-200.000	0.008	-0.146
-94.816	83.588	0.162	0.174
-93.801	-116.768	-0.225	-0.041
-92.786	-51.910	0.099	0.045
-91.772	580.002	-0.097	0.235
-90.757	-111.674	0.096	-0.019
-89.743	-143.002	-0.034	-0.003
-88.728	-200.000	-0.009	-0.040
-87.713	-200.000	0.009	0.177
-86.699	-200.000	-0.005	-0.073
-85.684	265.125	-0.280	-0.481
-84.670	656.303	-0.021	0.054
-83.655	217.952	0.084	-0.131
-82.640	-127.528	-0.203	0.029
-81.626	-62.117	0.277	0.114
-80.611	-200.000	-0.046	0.279
-79.597	-200.000	-0.046	0.232
-78.582	-200.000	-0.000	-0.088
-77.567	-127.853	0.178	0.025
-76.553	139.357	0.105	0.136
-75.538	-88.382	0.258	-0.076
-74.524	21.007	0.277	-0.221
-73.509	-156.623	0.170	-0.010
-72.494	27.005	0.156	-0.129
-71.480	209.311	-0.145	-0.224
-70.465	295.877	0.170	0.306
-69.451	189.606	-0.176	0.259
-68.436	633.315	0.168	0.420
-67.422	18.830	-0.081	-0.064
-66.407	-200.000	0.010	-0.173
-65.392	-58.808	-0.210	-0.089
-64.378	581.394	-0.038	0.091
-63.363	-107.181	0.336	-0.073
-62.349	536.000	0.131	0.305
-61.334	8.361	-0.946	-0.701
-60.319	148.965	0.094	0.125
-59.305	-200.000	-0.119	-0.910
-58.290	107.787	0.711	0.833
-57.276	341.858	0.585	1.125
-56.261	-200.000	96.462	577.471
-55.246	553.612	1378.372	3261.893
-54.232	160.014	2553.988	3503.092
-53.217	111.168	2162.835	2564.525
-52.203	43.324	1707.498	1535.024
-51.188	36.249	1520.538	1318.758
-50.173	33.838	1493.976	1279.448
-49.159	52.798	1542.972	1451.628
-48.144	54.588	1560.483	1480.299
-47.130	36.234	1519.927	1317.915
-46.115	33.207	1505.743	1285.035
-45.100	33.067	1502.208	1281.019
-44.086	33.132	1499.611	1279.193
-43.071	33.027	1498.193	1277.225
-42.057	33.059	1496.583	1276.014
-41.042	32.949	1495.195	1274.042
-40.027	32.957	1493.550	1272.640
-39.013	33.048	1492.035	1271.916
-37.998	32.857	1491.449	1270.078
-36.984	32.994	1489.685	1269.448
-35.969	33.071	1488.397	1268.814
-34.954	33.074	1487.274	1267.828
-33.940	32.932	1486.447	1266.118
-32.925	33.059	1484.294	1265.089
-31.911	33.134	1483.059	1264.488
-30.896	33.095	1481.543	1262.883
-29.881	33.015	1480.251	1261.199
-28.867	33.029	1479.002	1260.173
-27.852	33.075	1477.306	1258.987
-26.838	33.108	1475.753	1257.831
-25.823	33.050	1474.716	1256.511
-24.809	33.011	1473.114	1254.839
-23.794	33.055	1471.425	1253.643
-22.779	33.018	1470.392	1252.472
-21.765	33.056	1469.127	1251.592
-20.750	32.996	1468.235	1250.387
-19.736	32.989	1467.190	1249.398
-18.721	32.956	1466.460	1248.511
-17.706	32.853	1465.239	1246.744
-16.692	32.978	1463.814	1246.306
-15.677	33.042	1463.082	1246.053
-14.663	33.068	1461.925	1245.193
-13.648	32.938	1461.087	1243.573
-12.633	32.966	1460.198	1242.947
-11.619	32.992	1459.058	1242.102
-10.604	33.004	1457.956	1241.191
-9.590	32.974	1457.292	1240.379
-8.575	32.921	1456.739	1239.516
-7.560	32.991	1455.727	1239.063
-6.546	32.945	1454.924	1238.026
-5.531	32.950	1454.100	1237.308
-4.517	32.908	1453.118	1236.150
-3.502	32.908	1452.400	1235.492
-2.487	32.803	1451.193	1233.730
-1.473	32.878	1449.900	1233.068
-0.458	32.920	1448.926	1232.466
0.556	33.522	1439.549	1221.920
1.571	30.688	1415.626	1183.509
2.586	27.554	1362.394	1119.679
3.600	26.011	1285.120	1047.127
4.615	24.703	1237.804	1001.166
5.629	21.047	1179.878	934.680
6.644	11.236	1091.841	815.973
7.659	3.320	1049.061	745.728
8.673	2.234	1043.459	736.450
9.688	2.126	1040.550	733.810
10.702	1.978	1038.388	731.511
11.717	1.983	1036.989	730.486
12.731	5.536	1041.483	750.648
13.746	15.535	1055.786	809.293
14.761	23.246	1064.901	853.535
15.775	24.959	1067.277	863.636
16.790	25.335	1066.636	864.853
17.804	25.275	1065.688	863.716
18.819	24.956	1065.090	861.623
19.834	25.093	1064.473	861.705
20.848	25.324	1064.058	862.402
21.863	25.285	1063.959	862.061
22.877	25.283	1063.314	861.448
23.892	25.214	1062.740	860.577
24.907	25.258	1061.417	859.640
25.921	25.131	1061.207	858.785
26.936	25.229	1060.400	858.526
27.950	25.071	1059.193	856.717
28.965	25.024	1058.186	855.603
29.980	24.981	1056.765	854.174
30.994	24.980	1055.663	853.205
32.009	25.158	1054.811	853.286
33.023	25.362	1054.095	853.601
34.038	25.093	1053.133	851.471
35.053	25.004	1052.254	850.260
36.067	25.162	1051.785	850.557
37.082	25.081	1051.045	849.499
38.096	25.360	1050.097	849.977
39.111	25.338	1049.715	849.488
40.126	25.527	1048.360	849.209
41.140	25.343	1047.600	847.653
42.155	25.190	1045.777	845.379
43.169	24.817	1045.021	842.938
44.184	24.799	1043.791	841.787
45.199	24.881	1042.538	841.084
46.213	24.805	1042.023	840.239
47.228	24.787	1040.728	839.036
48.242	24.866	1040.800	839.389
49.257	25.046	1039.639	839.223
50.271	25.217	1038.990	839.425
51.286	25.285	1038.217	839.045
52.301	25.277	1037.708	838.522
53.315	25.238	1036.758	837.496
54.330	25.320	1035.978	837.176
55.344	25.266	1035.017	836.074
56.359	25.234	1034.442	835.385
57.374	25.241	1033.600	834.663
58.388	25.118	1032.883	833.441
59.403	24.817	1032.279	831.481
60.417	25.012	1031.461	831.652
61.432	24.862	1030.261	829.917
62.447	24.937	1029.554	829.620
63.461	24.953	1029.243	829.374
64.476	25.069	1028.241	829.030
65.490	25.006	1027.355	827.949
66.505	24.828	1026.594	826.438
67.520	24.984	1025.675	826.346
68.534	25.017	1024.605	825.565
69.549	24.949	1024.107	824.779
70.563	24.644	1022.733	822.196
71.578	24.392	1022.264	820.585
72.593	24.521	1021.747	820.689
73.607	24.323	1020.530	818.733
74.622	24.389	1019.601	818.217
75.636	24.586	1018.655	818.289
76.651	24.757	1018.138	818.585
77.666	24.681	1017.187	817.398
78.680	24.617	1016.548	816.517
79.695	24.558	1016.054	815.780
80.709	24.753	1015.084	815.818
81.724	24.776	1014.390	815.297
82.739	24.774	1013.736	814.688
83.753	24.865	1012.751	814.240
84.768	25.086	1012.359	814.857
85.782	25.365	1011.879	815.666
86.797	25.449	1011.257	815.471
87.812	25.529	1009.868	814.644
88.826	25.365	1008.895	813.043
89.841	25.531	1008.013	813.010
90.855	25.536	1007.783	812.776
91.870	25.532	1006.789	811.885
92.884	25.513	1006.108	811.177
93.899	25.464	1004.689	809.744
94.914	25.332	1003.789	808.352
95.928	25.360	1003.547	808.211
96.943	25.390	1002.724	807.612
97.957	25.257	1001.404	805.878
98.972	24.831	1000.210	802.933
99.987	24.811	999.230	801.989
101.001	24.759	999.046	801.539
102.016	25.217	998.355	802.961
103.030	25.326	997.283	802.516
104.045	25.201	996.344	801.131
105.060	25.051	995.065	799.361
106.074	24.915	993.704	797.595
107.089	24.899	993.097	796.965
108.103	25.179	992.769	797.874
109.118	25.288	992.377	797.975
110.133	24.879	991.183	795.130
111.147	24.977	990.325	794.804
112.162	24.678	989.212	792.514
113.176	24.540	987.655	790.589
114.191	24.842	986.559	790.975
115.206	25.019	986.020	791.254
116.220	24.565	985.078	788.425
117.235	24.458	984.360	787.311
118.249	24.580	983.769	787.303
119.264	24.545	983.052	786.506
120.279	24.484	982.002	785.329
121.293	24.538	981.128	784.797
122.308	24.653	980.455	784.695
123.322	24.678	979.607	784.054
124.337	24.658	978.635	783.120
125.352	24.442	977.501	781.200
126.366	24.014	976.042	778.095
127.381	23.718	974.802	775.744
128.395	24.364	974.474	778.231
129.410	24.942	974.556	780.751
130.424	25.141	973.641	780.814
131.439	25.215	972.711	780.322
132.454	25.102	971.632	778.896
133.468	25.088	970.722	778.039
134.483	24.845	970.541	776.768
135.497	25.130	969.566	777.153
136.512	25.316	969.101	777.521
137.527	25.482	968.178	777.426
138.541	25.435	967.171	776.350
139.556	25.304	966.899	775.493
140.570	25.320	966.019	774.787
141.585	25.352	964.981	774.025
142.600	25.484	964.210	773.909
143.614	25.348	963.406	772.608
144.629	25.466	962.834	772.589
145.643	25.646	962.194	772.778
146.658	25.762	960.504	771.851
147.673	25.370	959.622	769.396
148.687	25.235	958.823	768.109
149.702	25.245	957.547	767.060
150.716	25.128	956.857	765.943
151.731	25.035	956.456	765.156
152.746	25.161	955.224	764.639
153.760	25.459	954.545	765.299
154.775	25.674	953.655	765.430
155.789	25.551	953.158	764.441
156.804	25.569	952.451	763.883
157.819	25.488	951.593	762.784
158.833	25.551	950.578	762.170
159.848	25.617	949.820	761.774
160.862	25.584	949.487	761.302
161.877	25.528	948.203	759.965
162.892	25.414	947.603	758.935
163.906	25.579	946.800	758.925
164.921	25.552	945.718	757.875
165.935	25.487	944.567	756.612
166.950	25.655	943.018	756.011
167.964	25.517	942.690	755.100
168.979	25.605	941.613	754.540
169.994	25.381	940.948	753.003
171.008	25.268	939.703	751.465
172.023	25.519	938.681	751.630
173.037	25.704	938.480	752.178
174.052	25.433	937.598	750.272
175.067	25.240	936.352	748.405
176.081	25.244	935.438	747.622
177.096	25.431	934.696	747.745
178.110	25.370	933.854	746.750
179.125	25.310	932.724	745.530
180.140	24.819	932.357	743.133
181.154	24.876	931.340	742.492
182.169	24.991	930.887	742.541
183.183	25.249	930.791	743.468
184.198	25.462	930.133	743.759
185.213	25.409	929.627	743.071
186.227	25.400	928.632	742.172
187.242	25.407	928.165	741.764
188.256	25.431	927.753	741.466
189.271	25.566	926.860	741.245
190.286	25.731	925.754	740.971
191.300	25.503	925.147	739.482
192.315	24.882	923.854	735.833
193.329	24.149	922.304	731.524
194.344	23.833	920.750	728.929
195.359	24.366	920.960	731.216
196.373	25.237	921.554	735.196
197.388	25.540	921.184	736.075
198.402	25.446	920.571	735.136
199.417	25.359	920.161	734.387
200.432	25.451	919.857	734.457
201.446	25.353	918.595	732.983
202.461	25.020	917.971	731.063
203.475	25.060	917.394	730.703
204.490	24.611	916.338	727.967
205.504	23.464	914.525	721.794
206.519	23.877	914.400	723.312
207.534	24.931	914.691	727.766
208.548	24.973	914.076	727.381
209.563	25.243	914.050	728.395
210.577	25.350	913.076	727.989
211.592	25.181	911.801	726.223
212.607	25.512	912.412	727.988
213.621	25.709	911.336	727.859
214.636	25.534	911.205	726.982
215.650	25.688	910.092	726.652
216.665	25.443	909.341	725.001
217.680	25.540	909.320	725.312
218.694	25.648	908.537	725.057
219.709	25.288	907.700	722.876
220.723	25.080	906.309	720.868
221.738	25.203	906.629	721.552
222.753	25.317	905.758	721.252
223.767	25.336	904.787	720.492
224.782	25.421	904.324	720.403
225.796	25.483	904.203	720.489
226.811	25.731	903.187	720.608
227.826	25.282	902.124	717.900
228.840	24.565	900.250	713.484
229.855	24.480	899.654	712.608
230.869	24.610	899.740	713.133
231.884	24.392	898.479	711.201
232.899	24.475	897.956	711.055
233.913	25.232	898.324	714.297
234.928	25.311	897.815	714.144
235.942	25.279	896.981	713.293
236.957	25.317	896.435	712.947
237.972	25.071	895.201	710.924
238.986	24.963	894.851	710.157
240.001	25.074	894.165	709.988
241.015	25.021	893.461	709.156
242.030	25.112	892.875	708.991
243.045	25.292	892.969	709.713
244.059	25.387	892.668	709.786
245.074	25.615	891.445	709.651
246.088	25.553	891.059	709.037
247.103	25.089	890.350	706.579
248.117	25.143	889.725	706.234
249.132	25.688	889.666	708.272
250.147	26.011	889.901	709.668
251.161	26.037	888.879	708.889
252.176	26.408	888.314	709.836
253.190	26.331	887.509	708.824
254.205	26.297	887.810	708.872
255.220	26.440	887.486	709.110
256.234	26.423	886.700	708.354
257.249	26.252	886.223	707.240
258.263	26.172	885.445	706.242
259.278	26.248	884.738	705.911
260.293	26.411	884.269	706.112
261.307	26.384	883.736	705.521
262.322	26.357	882.887	704.675
263.336	26.316	882.179	703.888
264.351	25.778	880.512	700.405
265.366	24.631	878.902	694.606
266.380	24.172	878.001	692.048
267.395	25.098	878.618	696.073
268.409	25.915	878.637	699.194
269.424	25.883	877.685	698.254
270.439	26.031	877.030	698.244
271.453	26.008	876.654	697.793
272.468	26.181	875.770	697.697
273.482	26.384	875.436	698.152
274.497	26.452	875.360	698.292
275.512	26.249	874.258	696.567
276.526	25.585	873.019	692.962
277.541	25.750	872.755	693.326
278.555	26.220	872.521	694.886
279.570	26.033	871.566	693.348
280.585	25.689	871.063	691.564
281.599	25.901	870.542	691.902
282.614	26.067	869.908	691.974
283.628	25.530	869.112	689.223
284.643	25.098	868.419	686.959
285.657	25.605	868.210	688.672
286.672	25.455	867.566	687.527
287.687	25.022	866.146	684.685
288.701	25.324	866.640	686.170
289.716	25.691	866.316	687.256
290.730	25.557	865.249	685.838
291.745	25.224	864.394	683.830
292.760	25.207	863.284	682.824
293.774	25.038	863.119	681.990
294.789	26.142	863.470	686.410
295.803	26.812	863.277	688.741
296.818	26.642	863.187	687.964
297.833	26.792	862.769	688.138
298.847	26.386	861.651	685.646
299.862	26.127	860.482	683.675
300.876	26.357	860.021	684.118
301.891	26.712	859.633	685.091
302.906	26.703	858.971	684.468
303.920	26.193	858.340	681.980
304.935	26.294	857.370	681.532
305.949	26.574	857.397	682.548
306.964	26.795	856.797	682.843
307.979	26.403	856.533	681.095
308.993	26.346	855.799	680.237
310.008	26.727	855.227	681.153
311.022	26.841	855.029	681.365
312.037	26.636	854.285	679.943
313.052	26.401	853.660	678.500
314.066	26.286	852.592	677.163
315.081	25.724	851.141	673.846
316.095	24.886	850.185	669.897
317.110	25.243	850.672	671.556
318.125	26.237	850.855	675.361
319.139	25.881	849.850	673.173
320.154	24.795	847.570	667.261
321.168	24.315	846.753	664.768
322.183	24.961	847.193	667.465
323.197	25.895	847.484	671.114
324.212	26.175	847.101	671.792
325.227	26.240	847.053	671.936
326.241	26.479	846.498	672.325
327.256	26.433	845.584	671.371
328.270	26.303	844.986	670.352
329.285	26.269	844.304	669.628
330.300	26.045	843.762	668.308
331.314	25.598	843.136	666.096
332.329	25.763	842.393	666.062
333.343	26.316	841.949	667.698
334.358	26.490	841.826	668.182
335.373	26.401	841.303	667.380
336.387	26.533	840.769	667.382
337.402	26.803	840.254	667.911
338.416	27.010	839.991	668.402
339.431	26.981	839.557	667.894
340.446	27.011	838.670	667.238
341.460	27.245	838.247	667.701
342.475	27.144	837.831	666.942
343.489	26.958	836.799	665.378
344.504	26.853	836.635	664.806
345.519	27.047	836.268	665.166
346.533	27.327	835.783	665.744
347.548	27.325	835.355	665.339
348.562	27.316	835.074	665.021
349.577	27.376	834.560	664.773
350.592	27.297	833.841	663.852
351.606	27.194	833.359	663.034
352.621	27.148	833.102	662.603
353.635	27.080	832.472	661.798
354.650	27.136	831.805	661.411
355.665	26.749	830.972	659.283
356.679	25.794	829.178	654.334
357.694	25.679	828.540	653.356
358.708	26.261	828.650	655.498
359.723	26.266	827.882	654.852
360.738	26.321	827.779	654.909
361.752	26.964	827.834	657.223
362.767	26.934	827.417	656.726
363.781	27.307	827.263	657.897
364.796	27.525	827.267	658.627
365.810	27.606	826.766	658.464
366.825	27.793	826.554	658.912
367.840	27.633	826.091	657.908
368.854	27.459	825.568	656.806
369.869	27.122	824.343	654.559
370.883	26.944	823.871	653.483
371.898	27.048	823.085	653.178
372.913	27.040	822.298	652.466
373.927	26.913	821.833	651.583
374.942	27.043	821.274	651.550
375.956	27.328	820.778	652.120
376.971	27.322	820.386	651.731
377.986	27.464	820.027	651.893
379.000	27.667	819.201	651.906
380.015	27.712	818.772	651.668
381.029	27.587	818.272	650.766
382.044	27.457	817.659	649.757
383.059	27.519	817.623	649.892
384.073	27.606	817.016	649.662
385.088	27.572	816.101	648.756
386.102	27.790	815.263	648.809
387.117	27.491	815.109	647.567
388.132	27.189	814.521	645.967
389.146	27.026	813.891	644.831
390.161	26.676	812.764	642.641
391.175	26.709	812.396	642.411
392.190	27.299	812.777	644.745
393.205	27.229	812.293	644.059
394.219	26.266	810.470	639.150
395.234	24.683	808.018	631.570
396.248	24.003	806.780	628.150
397.263	24.868	808.030	632.123
398.278	26.759	809.254	639.704
399.292	27.182	809.075	641.000
400.307	26.810	808.670	639.311
401.321	26.901	808.015	639.056
402.336	27.046	807.747	639.298
403.350	27.252	807.746	639.968
404.365	27.636	807.652	641.185
405.380	27.904	807.273	641.770
406.394	28.266	806.925	642.708
407.409	28.456	806.687	643.128
408.423	28.381	805.991	642.253
409.438	28.251	805.261	641.158
410.453	28.182	805.335	640.920
411.467	28.537	804.571	641.497
412.482	28.403	804.157	640.643
413.496	28.316	803.790	639.990
414.511	28.249	803.312	639.317
415.526	28.503	802.935	639.847
416.540	28.248	802.792	638.785
417.555	28.296	802.011	638.275
418.569	28.053	801.175	636.708
419.584	27.993	800.473	635.886
420.599	28.088	800.246	635.978
421.613	110.687	1284.625	1455.147
422.628	95.492	1355.172	1455.269
