DTS Sentinel unit serial number:	SN413079Multiplexer serial number:	ORYXHardware model number:	OX4-SRSoftware version number:	ORYX F/W v4.00 Oryx Data Collector v3.7.2.0data status	okinstallation	princeton_trtdifferential loss correction	single-endedforward channel	channel 3reverse channel	N/Adate	2019/09/12time	06:54:10forward acquisition time	60.00reverse acquisition time	0.00gamma	496.2192k internal	0.2320k external	0.2320temperature offset calibration	1.0035default loss term (dB/km)	0.3790temperature slope calibration	1.0000multiplexer offset coefficient	1.0000multiplexer slope coefficient	1.0000fibre end	0.00T internal ref (°C)	32.14T ext. ref 1 (°C)	1.58T ext. ref 2 (°C)	27.25length (m)	temperature (°C)	Stokes	anti-Stokes-747.200	-135.979	-0.121	-0.014
-746.185	-116.966	0.093	0.017
-745.171	800.000	-0.039	0.134
-744.156	50.447	-0.223	0.213
-743.142	105.985	-0.086	0.103
-742.127	97.038	0.237	0.275
-741.112	174.493	-0.197	0.289
-740.098	800.000	-0.123	0.418
-739.083	602.371	0.066	-0.165
-738.069	264.587	-0.106	0.187
-737.054	155.956	-0.245	-0.341
-736.039	-156.772	-0.572	-0.036
-735.025	800.000	0.103	0.334
-734.010	-81.113	-0.121	0.040
-732.996	148.326	0.104	-0.142
-731.981	-157.597	0.087	-0.005
-730.966	428.978	0.162	-0.354
-729.952	-200.000	-0.007	-0.073
-728.937	-79.483	0.191	0.065
-727.923	223.002	0.090	0.147
-726.908	-165.212	-0.232	0.010
-725.894	-74.817	-0.157	0.057
-724.879	30.385	-0.179	-0.155
-723.864	9.812	0.080	0.061
-722.850	155.035	0.032	0.044
-721.835	314.808	-0.148	0.282
-720.821	800.000	-0.093	0.317
-719.806	209.030	-0.050	-0.079
-718.791	-156.330	-0.346	0.022
-717.777	13.437	-0.360	-0.282
-716.762	-200.000	0.012	-0.132
-715.748	-97.527	-0.141	-0.037
-714.733	-170.432	0.185	-0.007
-713.718	124.660	-0.146	0.186
-712.704	-90.970	0.339	-0.098
-711.689	-90.632	-0.306	0.089
-710.675	269.460	0.111	-0.197
-709.660	-200.000	-0.038	-0.244
-708.645	-68.807	0.257	0.100
-707.631	201.849	0.043	0.066
-706.616	-155.913	-0.236	-0.015
-705.602	397.426	0.121	0.255
-704.587	644.024	-0.232	0.599
-703.572	-200.000	0.017	-0.189
-702.558	33.038	-0.113	-0.099
-701.543	-107.029	0.305	0.068
-700.529	-155.691	0.278	-0.018
-699.514	257.026	-0.169	0.293
-698.499	-166.344	-0.262	-0.011
-697.485	40.398	0.255	0.232
-696.470	-200.000	-0.012	-0.263
-695.456	-121.065	0.503	-0.085
-694.441	-57.562	-0.143	0.063
-693.426	-13.758	-0.420	0.274
-692.412	327.925	0.167	-0.324
-691.397	-65.235	0.131	0.053
-690.383	800.000	-0.088	-0.305
-689.368	-200.000	-0.004	-0.310
-688.354	800.000	-0.016	0.048
-687.339	234.298	-0.238	-0.396
-686.324	-120.706	0.204	-0.035
-685.310	-200.000	-0.002	0.096
-684.295	73.500	0.141	-0.149
-683.281	335.245	0.112	-0.220
-682.266	-58.251	-0.168	0.074
-681.251	800.000	0.029	-0.107
-680.237	122.009	-0.170	-0.214
-679.222	10.282	-0.083	0.064
-678.208	423.260	-0.106	-0.229
-677.193	-134.405	0.104	0.013
-676.178	13.927	0.288	0.226
-675.164	5.531	0.357	-0.266
-674.149	66.575	-0.138	-0.141
-673.135	800.000	-0.012	-0.035
-672.120	-32.610	0.095	0.054
-671.105	172.776	-0.137	0.198
-670.091	251.206	0.120	-0.205
-669.076	-109.132	-0.264	0.057
-668.062	-181.123	0.043	0.001
-667.047	-33.104	0.288	-0.161
-666.032	-89.593	0.312	0.092
-665.018	437.173	0.054	0.118
-664.003	-68.751	-0.140	0.055
-662.989	50.114	0.283	-0.269
-661.974	2.610	-0.090	-0.066
-660.959	-144.363	-0.281	0.026
-659.945	-33.487	-0.245	0.136
-658.930	123.102	-0.135	0.170
-657.916	800.000	0.025	-0.110
-656.901	800.000	0.042	0.142
-655.886	103.133	-0.254	-0.300
-654.872	-23.412	-0.162	0.098
-653.857	-109.126	-0.305	-0.065
-652.843	-200.000	0.014	-0.091
-651.828	33.583	0.116	-0.102
-650.814	288.584	-0.107	-0.196
-649.799	23.839	-0.167	-0.139
-648.784	-125.522	0.212	-0.033
-647.770	-60.550	-0.212	0.091
-646.755	652.424	0.096	-0.249
-645.741	-16.496	0.332	-0.212
-644.726	-147.643	0.342	-0.029
-643.711	-200.000	0.037	-0.375
-642.697	800.000	0.075	-0.238
-641.682	286.164	-0.206	-0.374
-640.668	-27.732	0.298	0.174
-639.653	14.199	-0.316	-0.248
-638.638	-200.000	-0.027	-0.207
-637.624	800.000	0.026	0.083
-636.609	-46.101	-0.370	-0.184
-635.595	800.000	-0.078	-0.244
-634.580	-165.246	-0.302	-0.013
-633.565	-182.909	-0.165	-0.003
-632.551	101.240	0.263	0.308
-631.536	2.193	0.119	0.086
-630.522	29.644	-0.198	0.169
-629.507	3.377	-0.373	0.273
-628.492	-76.319	0.250	0.089
-627.478	-117.418	-0.383	-0.070
-626.463	44.775	-0.227	0.210
-625.449	350.469	-0.044	0.087
-624.434	64.193	0.171	0.173
-623.419	-186.091	-0.072	-0.001
-622.405	-75.001	-0.227	-0.082
-621.390	800.000	0.038	-0.164
-620.376	800.000	0.090	-0.281
-619.361	24.321	0.118	0.098
-618.346	68.515	-0.150	0.154
-617.332	-168.784	0.270	-0.010
-616.317	369.580	0.090	0.183
-615.303	-158.992	-0.156	-0.009
-614.288	191.909	0.111	-0.169
-613.273	97.521	-0.123	-0.142
-612.259	201.594	0.223	0.346
-611.244	288.217	-0.108	-0.197
-610.230	-200.000	-0.090	0.405
-609.215	164.030	0.108	0.153
-608.201	-116.352	0.181	0.034
-607.186	-200.000	-0.062	0.349
-606.171	296.183	-0.096	0.177
-605.157	23.581	-0.060	0.050
-604.142	-145.234	-0.396	-0.036
-603.128	-101.669	-0.413	0.101
-602.113	-144.403	0.088	0.008
-601.098	-12.757	-0.193	0.126
-600.084	-113.074	-0.210	-0.042
-599.069	223.584	0.087	-0.142
-598.055	-200.000	-0.012	-0.272
-597.040	-92.229	-0.082	-0.023
-596.025	305.891	-0.113	0.212
-595.011	-182.202	-0.111	-0.002
-593.996	-134.884	0.376	0.046
-592.982	-119.580	-0.189	-0.033
-591.967	174.443	-0.024	0.035
-590.952	-77.293	-0.267	-0.093
-589.938	37.759	-0.286	-0.256
-588.923	-200.000	-0.014	0.103
-587.909	28.636	0.106	-0.091
-586.894	-83.802	-0.168	-0.054
-585.879	-200.000	0.001	-0.005
-584.865	191.134	0.152	-0.230
-583.850	-200.000	-0.042	0.452
-582.836	724.409	0.123	-0.330
-581.821	-80.675	0.138	-0.046
-580.806	-45.835	-0.170	0.084
-579.792	-200.000	-0.009	-0.090
-578.777	-200.000	0.070	-0.451
-577.763	-200.000	0.025	0.192
-576.748	-200.000	-0.009	0.174
-575.733	800.000	0.106	0.327
-574.719	130.043	-0.155	0.200
-573.704	49.941	0.073	0.069
-572.690	218.450	-0.091	0.146
-571.675	176.763	0.019	-0.027
-570.661	-119.908	0.124	-0.021
-569.646	487.663	-0.044	0.101
-568.631	270.552	-0.242	-0.427
-567.617	-29.481	-0.184	0.105
-566.602	-106.854	-0.409	0.091
-565.588	334.885	0.086	-0.168
-564.573	-200.000	0.010	0.244
-563.558	-160.610	-0.326	0.017
-562.544	-45.849	-0.339	-0.168
-561.529	367.446	0.018	-0.036
-560.515	117.902	-0.051	-0.063
-559.500	231.469	-0.102	0.168
-558.485	-48.349	0.162	-0.079
-557.471	401.580	0.077	-0.162
-556.456	-197.897	0.194	0.001
-555.442	128.918	-0.160	0.205
-554.427	-126.696	0.248	-0.037
-553.412	-200.000	-0.024	-0.107
-552.398	-57.598	-0.139	-0.061
-551.383	555.554	0.082	-0.197
-550.369	-65.891	0.211	0.085
-549.354	-15.550	0.213	-0.136
-548.339	218.943	-0.174	0.279
-547.325	-35.993	0.103	-0.056
-546.310	476.031	0.150	0.339
-545.296	446.670	0.009	-0.019
-544.281	-113.164	0.249	-0.049
-543.266	-120.628	0.093	0.016
-542.252	250.824	-0.012	-0.021
-541.237	-200.000	-0.007	0.037
-540.223	-200.000	0.059	0.365
-539.208	145.703	0.179	-0.241
-538.193	-81.253	-0.111	-0.037
-537.179	800.000	-0.061	-0.249
-536.164	-166.621	0.320	0.013
-535.150	800.000	-0.065	0.264
-534.135	128.965	0.057	-0.073
-533.121	-79.824	0.152	-0.051
-532.106	-4.880	0.200	0.138
-531.091	125.587	-0.084	-0.107
-530.077	85.981	-0.027	-0.030
-529.062	191.691	-0.138	-0.209
-528.048	-65.217	0.294	0.119
-527.033	-67.767	-0.313	0.123
-526.018	9.010	-0.276	-0.209
-525.004	215.485	0.107	0.170
-523.989	-89.551	0.327	-0.096
-522.975	-83.866	0.022	-0.007
-521.960	-72.724	0.079	-0.029
-520.945	-200.000	-0.020	0.252
-519.931	152.573	0.068	-0.094
-518.916	66.882	-0.065	0.067
-517.902	-200.000	0.033	-0.251
-516.887	184.477	0.264	0.393
-515.872	-200.000	0.035	-0.210
-514.858	-60.245	0.304	-0.130
-513.843	157.553	-0.088	-0.121
-512.829	-200.000	-0.037	0.265
-511.814	800.000	0.045	0.141
-510.799	131.314	0.023	-0.029
-509.785	594.908	0.063	-0.157
-508.770	-200.000	-0.077	-0.365
-507.756	-186.982	-0.376	-0.005
-506.741	-32.334	-0.109	0.061
-505.726	-109.815	0.267	0.056
-504.712	-163.575	0.230	-0.011
-503.697	-89.283	0.234	0.069
-502.683	-27.746	0.119	0.069
-501.668	214.044	-0.217	-0.344
-500.653	360.568	-0.237	-0.476
-499.639	-45.773	-0.119	-0.059
-498.624	-12.041	0.208	0.136
-497.610	-26.604	-0.067	0.039
-496.595	-73.969	0.302	-0.110
-495.581	-200.000	0.016	0.137
-494.566	-37.508	-0.332	-0.177
-493.551	15.308	0.060	0.047
-492.537	350.974	0.124	-0.246
-491.522	425.261	0.195	-0.420
-490.508	-157.778	-0.273	-0.016
-489.493	800.000	0.027	0.085
-488.478	800.000	-0.081	0.288
-487.464	-200.000	0.013	0.168
-486.449	-58.975	-0.046	-0.020
-485.435	-141.487	-0.252	-0.026
-484.420	226.570	0.231	0.376
-483.405	-200.000	0.015	0.121
-482.391	21.146	0.047	0.038
-481.376	-12.982	-0.035	0.023
-480.362	246.336	-0.073	0.123
-479.347	-73.572	-0.167	-0.061
-478.332	-4.974	-0.175	0.120
-477.318	321.630	0.137	0.260
-476.303	-200.000	0.002	0.125
-475.289	-162.165	-0.103	0.005
-474.274	-29.168	-0.099	0.057
-473.259	800.000	0.011	-0.039
-472.245	78.115	0.252	-0.269
-471.230	-200.000	-0.021	-0.164
-470.216	800.000	-0.133	0.427
-469.201	-69.056	-0.256	-0.099
-468.186	87.909	0.136	0.151
-467.172	-95.670	-0.309	0.083
-466.157	19.107	-0.124	0.100
-465.143	-97.941	0.434	-0.112
-464.128	-200.000	-0.029	-0.372
-463.113	373.175	-0.155	-0.316
-462.099	68.331	-0.180	0.185
-461.084	716.599	0.047	0.124
-460.070	-200.000	-0.001	0.060
-459.055	-60.312	-0.276	0.118
-458.040	-24.903	0.045	-0.027
-457.026	-177.335	0.145	-0.004
-456.011	29.878	-0.064	0.055
-454.997	207.994	0.132	-0.206
-453.982	4.265	-0.183	-0.134
-452.968	-200.000	0.003	-0.076
-451.953	-125.923	0.382	-0.057
-450.938	-37.860	-0.116	0.062
-449.924	511.329	0.055	0.127
-448.909	25.126	0.400	-0.332
-447.895	-61.269	-0.373	-0.157
-446.880	271.113	0.226	0.398
-445.865	3.968	-0.285	0.208
-444.851	-195.650	-0.228	-0.002
-443.836	140.339	-0.092	-0.121
-442.822	147.366	0.096	-0.129
-441.807	11.522	-0.089	0.068
-440.792	-38.145	0.104	0.055
-439.778	-158.783	-0.251	0.014
-438.763	800.000	0.012	-0.042
-437.749	415.861	-0.090	0.193
-436.734	800.000	-0.103	-0.330
-435.719	800.000	0.101	-0.291
-434.705	217.516	-0.095	0.152
-433.690	-200.000	-0.018	-0.216
-432.676	-200.000	0.004	0.105
-431.661	36.327	-0.045	-0.040
-430.646	-140.818	0.165	0.017
-429.632	-52.119	-0.105	-0.049
-428.617	-4.461	-0.267	0.184
-427.603	-83.397	-0.061	-0.020
-426.588	112.678	0.134	0.162
-425.573	235.040	0.088	-0.144
-424.559	41.136	-0.245	-0.221
-423.544	-84.155	0.286	0.091
-422.530	4.161	-0.442	0.323
-421.515	-106.621	-0.346	-0.077
-420.500	-200.000	0.028	0.169
-419.486	-37.180	-0.124	-0.066
-418.471	-26.275	0.151	-0.089
-417.457	-96.627	-0.105	0.028
-416.442	-79.258	0.164	0.056
-415.428	15.261	0.384	-0.301
-414.413	800.000	-0.118	-0.441
-413.398	410.636	0.117	0.248
-412.384	800.000	0.120	-0.381
-411.369	515.723	0.122	0.285
-410.355	285.953	-0.186	0.336
-409.340	530.005	-0.089	-0.210
-408.325	-58.053	-0.346	0.151
-407.311	-200.000	0.052	-0.251
-406.296	-84.313	-0.240	0.076
-405.282	800.000	-0.102	-0.384
-404.267	168.845	0.098	0.140
-403.252	51.082	-0.147	-0.139
-402.238	21.041	0.056	0.045
-401.223	-200.000	0.018	-0.196
-400.209	273.578	0.077	-0.135
-399.194	9.273	0.092	-0.070
-398.179	-200.000	0.001	0.455
-397.165	-154.565	-0.253	0.017
-396.150	271.688	0.186	-0.327
-395.136	-130.385	0.197	-0.027
-394.121	27.491	-0.050	0.042
-393.106	583.083	0.170	-0.417
-392.092	-192.798	-0.361	-0.003
-391.077	167.423	0.269	0.382
-390.063	-200.000	0.033	0.417
-389.048	-200.000	-0.014	-0.191
-388.033	789.567	-0.033	-0.090
-387.019	-107.351	0.114	0.025
-386.004	-200.000	0.070	-0.306
-384.990	212.015	-0.107	-0.168
-383.975	103.510	-0.097	0.114
-382.960	-200.000	0.009	-0.369
-381.946	82.489	-0.201	-0.218
-380.931	453.831	0.055	-0.122
-379.917	-200.000	-0.038	-0.268
-378.902	-18.746	0.202	0.126
-377.888	38.314	-0.138	0.123
-376.873	114.286	-0.071	0.086
-375.858	107.863	-0.061	0.073
-374.844	10.713	0.064	-0.049
-373.829	146.977	0.103	0.138
-372.815	168.314	0.178	-0.252
-371.800	91.535	-0.106	-0.119
-370.785	247.963	-0.077	-0.131
-369.771	19.934	0.147	-0.118
-368.756	132.572	-0.077	0.099
-367.742	773.313	0.120	-0.325
-366.727	-43.449	-0.279	0.141
-365.712	-187.675	-0.205	-0.003
-364.698	78.098	-0.172	0.183
-363.683	669.586	0.065	0.168
-362.669	15.997	-0.295	0.231
-361.654	163.839	0.035	0.049
-360.639	1.539	-0.190	-0.136
-359.625	-75.699	0.049	0.017
-358.610	56.425	-0.118	-0.114
-357.596	-127.364	-0.297	0.043
-356.581	-98.135	0.119	0.030
-355.566	121.228	-0.080	0.099
-354.552	800.000	-0.111	0.349
-353.537	-200.000	-0.047	0.495
-352.523	76.995	-0.065	0.068
-351.508	48.726	0.181	0.169
-350.493	800.000	-0.056	0.164
-349.479	120.873	0.166	-0.205
-348.464	-72.641	0.215	-0.079
-347.450	-200.000	-0.000	-0.107
-346.435	60.180	-0.181	0.178
-345.420	481.464	-0.063	-0.142
-344.406	233.176	0.099	0.162
-343.391	-12.078	-0.152	0.099
-342.377	391.011	0.124	0.256
-341.362	-64.409	0.129	0.052
-340.348	-86.463	-0.119	-0.036
-339.333	-200.000	0.007	0.103
-338.318	102.235	-0.389	-0.452
-337.304	800.000	-0.038	0.107
-336.289	-77.335	-0.185	0.064
-335.275	-20.822	0.280	-0.171
-334.260	800.000	-0.019	-0.067
-333.245	62.472	-0.206	-0.205
-332.231	255.686	-0.090	-0.154
-331.216	-45.475	0.182	0.090
-330.202	47.797	-0.115	0.106
-329.187	320.801	0.171	-0.324
-328.172	59.810	0.133	0.130
-327.158	307.448	0.296	-0.549
-326.143	166.454	-0.104	-0.147
-325.129	512.607	-0.133	-0.308
-324.114	571.201	-0.074	0.179
-323.099	145.779	-0.048	-0.063
-322.085	800.000	-0.057	-0.184
-321.070	-23.321	-0.130	0.078
-320.056	800.000	0.134	0.449
-319.041	-200.000	-0.008	0.050
-318.026	385.419	0.157	-0.322
-317.012	116.046	-0.028	-0.034
-315.997	138.047	0.028	-0.037
-314.983	8.044	0.226	-0.168
-313.968	-200.000	0.010	-0.202
-312.953	-110.884	-0.386	0.079
-311.939	-37.760	0.217	0.115
-310.924	89.077	0.040	0.045
-309.910	800.000	-0.018	0.053
-308.895	255.286	0.095	-0.161
-307.880	-200.000	0.009	-0.236
-306.866	337.295	-0.036	-0.070
-305.851	-59.527	0.150	0.064
-304.837	-110.864	0.137	0.028
-303.822	-200.000	-0.016	0.189
-302.807	800.000	0.099	0.273
-301.793	111.219	-0.222	0.266
-300.778	-126.754	-0.225	-0.033
-299.764	-74.963	0.226	0.081
-298.749	-118.817	-0.461	0.081
-297.735	707.437	-0.165	-0.433
-296.720	-15.354	0.137	-0.087
-295.705	92.564	0.023	0.026
-294.691	8.943	0.226	-0.170
-293.676	-32.395	-0.063	0.035
-292.662	-200.000	0.013	0.076
-291.647	-200.000	0.036	-0.248
-290.632	-83.811	-0.261	-0.083
-289.618	756.513	-0.041	0.111
-288.603	-173.947	-0.273	0.008
-287.589	131.814	-0.107	0.136
-286.574	24.132	-0.113	-0.093
-285.559	30.139	-0.124	-0.105
-284.545	243.871	0.057	-0.094
-283.530	-39.873	0.347	-0.180
-282.516	-200.000	-0.017	0.321
-281.501	-200.000	-0.027	-0.280
-280.486	-21.504	0.018	0.011
-279.472	177.262	0.049	0.070
-278.457	3.703	-0.098	0.071
-277.443	38.301	0.245	0.217
-276.428	-16.653	0.164	-0.103
-275.413	399.738	-0.076	0.159
-274.399	-95.822	0.128	0.034
-273.384	-125.588	-0.296	-0.045
-272.370	50.082	-0.180	-0.168
-271.355	-127.150	-0.262	0.038
-270.340	-90.924	-0.220	0.063
-269.326	39.069	-0.343	0.304
-268.311	577.199	0.118	0.286
-267.297	-52.416	0.174	-0.080
-266.282	-91.085	0.196	-0.056
-265.267	34.819	0.079	0.068
-264.253	-200.000	0.001	-0.150
-263.238	169.963	0.125	0.177
-262.224	197.918	0.046	-0.070
-261.209	-129.577	0.454	-0.062
-260.195	400.398	-0.112	0.232
-259.180	-89.799	0.360	-0.105
-258.165	43.403	0.119	0.108
-257.151	-101.594	0.116	0.028
-256.136	-114.596	0.135	-0.026
-255.122	-200.000	-0.015	-0.137
-254.107	-200.000	0.013	0.301
-253.092	800.000	-0.028	-0.105
-252.078	218.356	0.113	0.179
-251.063	17.958	0.130	-0.103
-250.049	800.000	0.029	0.087
-249.034	-200.000	-0.010	0.147
-248.019	-198.932	0.352	0.002
-247.005	286.746	0.074	0.133
-245.990	-92.633	0.101	-0.028
-244.976	-101.703	-0.217	-0.052
-243.961	-90.924	-0.275	0.078
-242.946	-200.000	-0.005	0.079
-241.932	245.789	0.157	0.261
-240.917	-56.549	-0.085	-0.038
-239.903	800.000	-0.045	0.171
-238.888	105.259	0.123	0.145
-237.873	800.000	0.072	0.262
-236.859	47.266	0.180	-0.166
-235.844	-200.000	-0.038	0.211
-234.830	-180.667	-0.107	0.002
-233.815	259.205	0.187	0.320
-232.800	-20.963	0.080	-0.049
-231.786	179.297	0.118	-0.171
-230.771	67.795	0.054	-0.055
-229.757	-82.852	-0.093	0.030
-228.742	-79.790	0.117	-0.039
-227.727	-116.712	0.136	0.025
-226.713	-74.720	-0.085	0.030
-225.698	38.437	-0.092	-0.081
-224.684	-105.330	-0.206	0.047
-223.669	-9.538	0.196	0.129
-222.655	-61.088	-0.106	-0.044
-221.640	773.647	0.076	-0.206
-220.625	10.626	0.272	0.205
-219.611	521.914	0.117	-0.272
-218.596	541.424	0.103	0.244
-217.582	327.007	0.122	0.232
-216.567	800.000	0.028	-0.087
-215.552	-10.374	0.149	0.098
-214.538	-90.657	-0.227	-0.065
-213.523	-30.621	0.191	0.107
-212.509	284.874	-0.117	0.209
-211.494	505.137	0.187	0.428
-210.479	48.702	-0.237	-0.220
-209.465	82.405	0.193	-0.208
-208.450	-200.000	0.007	0.213
-207.436	581.611	-0.041	0.100
-206.421	322.759	-0.107	-0.202
-205.406	-200.000	-0.035	0.257
-204.392	58.009	-0.030	-0.029
-203.377	205.022	0.081	-0.125
-202.363	-160.301	0.129	-0.007
-201.348	-115.836	0.454	0.084
-200.333	-200.000	0.007	0.152
-199.319	-88.757	0.062	-0.018
-198.304	800.000	0.021	0.092
-197.290	800.000	0.025	0.106
-196.275	-76.006	0.293	-0.102
-195.260	334.069	0.046	-0.088
-194.246	678.382	0.070	-0.180
-193.231	91.776	0.123	0.137
-192.217	-200.000	-0.013	-0.163
-191.202	108.636	0.149	-0.177
-190.187	-93.594	0.390	0.107
-189.173	439.666	0.054	0.116
-188.158	526.507	0.104	-0.243
-187.144	-137.105	0.072	0.008
-186.129	776.662	0.089	0.241
-185.114	-200.000	-0.008	0.116
-184.100	800.000	0.070	-0.289
-183.085	-30.475	0.242	0.136
-182.071	79.623	-0.238	0.252
-181.056	-104.354	0.271	-0.062
-180.042	800.000	0.061	0.221
-179.027	-152.243	-0.255	-0.018
-178.012	21.535	-0.137	0.110
-176.998	137.430	0.183	0.237
-175.983	-34.215	0.219	0.119
-174.969	49.804	-0.215	-0.201
-173.954	800.000	0.142	-0.449
-172.939	-200.000	-0.005	-0.139
-171.925	-200.000	0.055	-0.333
-170.910	-129.044	0.335	-0.046
-169.896	15.485	0.078	-0.061
-168.881	800.000	-0.007	-0.022
-167.866	10.518	-0.154	0.116
-166.852	126.339	0.199	-0.249
-165.837	-124.936	-0.160	-0.024
-164.823	-58.640	0.441	0.189
-163.808	-137.627	0.085	0.009
-162.793	283.299	-0.064	-0.113
-161.779	-47.604	0.135	-0.065
-160.764	25.804	-0.226	0.186
-159.750	261.799	0.064	0.110
-158.735	161.749	0.042	0.058
-157.720	52.688	-0.192	0.181
-156.706	-64.976	-0.146	0.058
-155.691	86.039	-0.091	-0.099
-154.677	-141.864	0.039	0.004
-153.662	-40.849	-0.083	0.042
-152.647	-200.000	-0.039	0.261
-151.633	-200.000	0.041	-0.252
-150.618	-200.000	-0.022	0.098
-149.604	209.395	0.133	0.207
-148.589	-73.818	0.147	-0.053
-147.574	-112.898	-0.059	-0.011
-146.560	-36.198	-0.478	-0.255
-145.545	800.000	-0.098	-0.348
-144.531	-54.088	0.363	-0.163
-143.516	-200.000	-0.026	0.373
-142.502	99.356	-0.100	-0.114
-141.487	389.527	-0.024	0.050
-140.472	-200.000	0.013	0.086
-139.458	76.191	0.146	-0.153
-138.443	-88.763	0.302	-0.089
-137.429	-200.000	-0.008	-0.189
-136.414	8.437	-0.101	0.075
-135.399	-47.862	-0.244	-0.116
-134.385	800.000	-0.060	0.182
-133.370	325.828	0.198	0.374
-132.356	-200.000	0.024	0.341
-131.341	91.864	-0.115	-0.128
-130.326	-115.189	0.178	0.033
-129.312	-54.028	0.281	-0.126
-128.297	800.000	-0.041	-0.155
-127.283	-101.992	0.223	0.053
-126.268	559.885	-0.052	0.124
-125.253	159.200	-0.156	0.214
-124.239	800.000	0.156	0.482
-123.224	-34.320	0.075	-0.041
-122.210	-66.467	-0.115	-0.045
-121.195	-11.416	-0.339	0.220
-120.180	139.573	-0.085	-0.110
-119.166	800.000	-0.081	-0.268
-118.151	-53.095	-0.204	-0.093
-117.137	448.917	-0.056	-0.123
-116.122	-200.000	-0.016	0.077
-115.107	-60.439	0.180	0.075
-114.093	-200.000	-0.000	0.192
-113.078	-200.000	0.023	-0.225
-112.064	229.066	-0.056	-0.091
-111.049	-200.000	0.032	-0.158
-110.034	-200.000	-0.051	0.286
-109.020	800.000	-0.065	-0.178
-108.005	-107.408	0.095	-0.021
-106.991	-96.867	0.357	-0.092
-105.976	-148.626	-0.473	-0.038
-104.962	-200.000	0.010	-0.055
-103.947	-57.461	-0.244	-0.105
-102.932	-200.000	0.018	0.345
-101.918	800.000	-0.065	0.204
-100.903	123.050	0.096	-0.119
-99.889	238.067	-0.113	-0.186
-98.874	-63.963	-0.109	0.044
-97.859	-200.000	-0.030	0.485
-96.845	162.893	0.223	0.309
-95.830	-200.000	-0.001	-0.009
-94.816	-61.359	-0.251	0.104
-93.801	352.531	0.088	-0.173
-92.786	-16.199	0.290	-0.181
-91.772	33.970	-0.393	-0.338
-90.757	19.882	0.354	-0.281
-89.743	297.390	-0.040	-0.073
-88.728	-200.000	-0.009	-0.303
-87.713	-200.000	-0.033	-0.212
-86.699	-200.000	0.038	-0.423
-85.684	-172.523	-0.147	0.005
-84.670	-161.895	-0.302	0.015
-83.655	48.204	0.043	0.040
-82.640	-200.000	-0.004	-0.027
-81.626	-49.059	-0.178	-0.084
-80.611	-200.000	-0.022	-0.178
-79.597	-19.309	0.299	-0.183
-78.582	605.757	0.047	-0.116
-77.567	-87.799	-0.279	-0.083
-76.553	-78.730	0.272	0.092
-75.538	217.395	-0.188	0.295
-74.524	233.400	0.042	-0.069
-73.509	-41.473	-0.101	0.051
-72.494	-42.138	0.250	0.126
-71.480	-200.000	0.229	-0.001
-70.465	-101.023	-0.220	0.053
-69.451	-16.667	0.341	-0.213
-68.436	1.079	-0.132	0.094
-67.422	71.937	0.153	0.156
-66.407	-113.731	-0.160	-0.031
-65.392	-7.233	-0.085	-0.057
-64.378	-61.875	0.123	-0.051
-63.363	-182.113	-0.255	0.005
-62.349	-140.849	0.154	0.016
-61.334	84.654	-0.789	-0.850
-60.319	100.208	0.368	0.420
-59.305	-200.000	-0.113	-1.349
-58.290	104.854	0.687	0.798
-57.276	260.772	0.805	1.370
-56.261	-200.000	95.942	593.730
-55.246	566.589	1370.832	3274.589
-54.232	160.874	2550.368	3506.414
-53.217	112.261	2164.116	2575.699
-52.203	42.803	1708.750	1532.334
-51.188	35.330	1521.722	1313.619
-50.173	33.086	1495.209	1275.554
-49.159	52.050	1544.127	1447.772
-48.144	53.947	1561.378	1476.902
-47.130	35.528	1521.523	1314.594
-46.115	32.416	1506.491	1280.420
-45.100	32.266	1503.559	1276.857
-44.086	32.153	1501.996	1274.711
-43.071	32.193	1499.487	1272.802
-42.057	32.178	1498.165	1271.525
-41.042	32.227	1496.557	1270.444
-40.027	32.251	1494.812	1269.075
-39.013	32.113	1493.876	1267.295
-37.998	32.025	1492.996	1265.907
-36.984	32.079	1491.815	1265.218
-35.969	32.105	1490.557	1264.281
-34.954	32.300	1488.019	1263.384
-33.940	32.077	1487.657	1261.527
-32.925	32.108	1485.922	1260.219
-31.911	32.196	1484.204	1259.298
-30.896	32.211	1482.707	1258.080
-29.881	32.186	1481.637	1256.953
-28.867	32.204	1480.179	1255.790
-27.852	32.242	1479.113	1255.090
-26.838	32.227	1477.663	1253.705
-25.823	32.218	1475.885	1252.089
-24.809	32.210	1474.196	1250.555
-23.794	32.238	1472.838	1249.536
-22.779	32.034	1471.975	1247.398
-21.765	32.276	1470.289	1247.530
-20.750	32.201	1469.266	1246.114
-19.736	32.127	1468.276	1244.736
-18.721	32.208	1466.825	1243.991
-17.706	32.175	1465.776	1242.836
-16.692	32.173	1464.913	1242.043
-15.677	32.083	1464.346	1240.914
-14.663	32.104	1463.005	1239.866
-13.648	32.091	1461.859	1238.759
-12.633	32.149	1460.888	1238.274
-11.619	32.086	1460.354	1237.353
-10.604	32.105	1459.594	1236.784
-9.590	32.115	1458.459	1235.840
-8.575	32.085	1457.672	1234.929
-7.560	32.126	1456.270	1233.964
-6.546	32.155	1455.504	1233.453
-5.531	31.993	1455.287	1232.155
-4.517	32.088	1453.683	1231.375
-3.502	32.115	1452.690	1230.663
-2.487	32.072	1451.555	1229.369
-1.473	32.018	1450.522	1228.090
-0.458	32.185	1448.984	1227.830
0.556	32.061	1439.715	1216.760
1.571	29.117	1414.875	1176.875
2.586	25.765	1358.668	1109.409
3.600	24.276	1279.599	1036.109
4.615	22.891	1232.326	989.983
5.629	19.148	1174.455	923.378
6.644	9.687	1088.003	808.112
7.659	2.686	1046.725	743.527
8.673	1.841	1041.216	735.474
9.688	1.616	1038.101	732.126
10.702	1.441	1036.864	730.346
11.717	1.432	1034.745	728.746
12.731	4.260	1037.709	744.355
13.746	13.932	1051.693	801.175
14.761	22.220	1062.482	849.545
15.775	24.527	1064.764	862.450
16.790	25.034	1064.675	864.749
17.804	24.962	1063.712	863.542
18.819	24.762	1063.057	861.969
19.834	24.796	1062.338	861.474
20.848	25.029	1062.354	862.535
21.863	24.982	1062.197	862.104
22.877	25.169	1060.952	861.917
23.892	24.998	1060.851	860.939
24.907	24.958	1060.069	860.033
25.921	24.851	1059.473	858.961
26.936	24.907	1058.160	858.086
27.950	25.006	1056.982	857.530
28.965	24.971	1056.020	856.508
29.980	24.760	1054.416	854.123
30.994	24.710	1053.828	853.333
32.009	24.961	1052.762	853.591
33.023	25.145	1052.060	853.820
34.038	24.952	1050.524	851.580
35.053	24.817	1049.894	850.355
36.067	25.024	1049.629	851.049
37.082	24.932	1048.738	849.812
38.096	25.127	1047.725	849.842
39.111	25.112	1047.647	849.634
40.126	25.420	1046.281	849.909
41.140	25.185	1045.182	847.829
42.155	24.955	1043.563	845.353
43.169	24.533	1043.113	842.925
44.184	24.700	1041.648	842.453
45.199	24.762	1040.339	841.611
46.213	24.583	1039.441	839.969
47.228	24.678	1038.527	839.603
48.242	24.689	1038.156	839.281
49.257	24.928	1037.277	839.615
50.271	24.850	1036.951	838.912
51.286	24.933	1036.358	838.745
52.301	25.055	1035.522	838.564
53.315	25.102	1035.016	838.303
54.330	25.041	1034.001	837.120
55.344	24.941	1033.098	835.847
56.359	24.974	1032.125	835.142
57.374	25.093	1031.107	834.800
58.388	24.909	1030.310	833.223
59.403	24.623	1030.283	831.794
60.417	24.710	1029.461	831.466
61.432	24.585	1028.306	829.877
62.447	24.658	1027.615	829.587
63.461	24.697	1027.369	829.494
64.476	24.868	1026.307	829.357
65.490	24.845	1025.433	828.471
66.505	24.656	1024.574	826.826
67.520	24.646	1024.089	826.316
68.534	24.768	1023.121	826.025
69.549	24.605	1022.178	824.438
70.563	24.188	1021.025	821.515
71.578	24.186	1020.014	820.617
72.593	24.315	1019.341	820.597
73.607	24.151	1017.805	818.536
74.622	24.157	1017.479	818.229
75.636	24.391	1016.875	818.743
76.651	24.717	1015.970	819.440
77.666	24.470	1015.071	817.507
78.680	24.363	1014.187	816.237
79.695	24.311	1014.013	815.787
80.709	24.486	1013.202	815.861
81.724	24.589	1012.600	815.774
82.739	24.597	1011.509	814.862
83.753	24.545	1010.883	814.045
84.768	24.821	1010.488	814.914
85.782	25.257	1009.566	816.082
86.797	25.333	1009.069	815.952
87.812	25.272	1008.120	814.837
88.826	25.111	1006.756	812.930
89.841	25.139	1006.081	812.442
90.855	25.147	1005.720	812.113
91.870	25.278	1004.921	811.991
92.884	25.274	1003.444	810.707
93.899	25.113	1003.266	809.764
94.914	25.050	1002.000	808.386
95.928	25.022	1001.757	807.990
96.943	25.254	1000.428	807.893
97.957	24.907	999.428	805.452
98.972	24.665	998.212	803.313
99.987	24.539	996.996	801.698
101.001	24.700	996.508	801.959
102.016	24.849	996.229	802.330
103.030	24.963	994.862	801.668
104.045	24.895	994.189	800.750
105.060	24.781	992.401	798.731
106.074	24.594	991.757	797.309
107.089	24.701	990.983	797.094
108.103	24.966	990.412	797.743
109.118	24.816	990.111	796.761
110.133	24.631	989.061	795.025
111.147	24.747	987.590	794.287
112.162	24.657	986.687	793.090
113.176	24.461	985.256	791.001
114.191	24.481	985.063	790.865
115.206	24.658	984.129	790.830
116.220	24.276	982.887	788.071
117.235	24.154	981.973	786.730
118.249	24.305	981.703	787.112
119.264	24.384	980.422	786.366
120.279	24.263	979.869	785.318
121.293	24.284	979.143	784.759
122.308	24.458	978.536	784.967
123.322	24.434	977.608	784.051
124.337	24.401	976.554	782.990
125.352	24.220	975.190	781.035
126.366	23.769	973.884	777.944
127.381	23.478	972.475	775.478
128.395	24.001	972.216	777.489
129.410	24.641	972.690	780.595
130.424	24.852	971.564	780.543
131.439	24.844	970.519	779.599
132.454	24.806	969.841	778.821
133.468	24.865	968.728	778.114
134.483	24.739	967.946	776.870
135.497	24.842	967.121	776.584
136.512	25.088	966.605	777.170
137.527	25.102	966.108	776.762
138.541	25.230	964.936	776.303
139.556	25.075	964.539	775.244
140.570	25.140	963.820	774.881
141.585	25.080	963.273	774.112
142.600	25.267	962.124	773.928
143.614	25.192	960.811	772.479
144.629	25.012	960.534	771.415
145.643	25.390	960.294	772.780
146.658	25.237	959.235	771.199
147.673	25.152	957.411	769.303
148.687	25.043	956.436	767.982
149.702	24.949	955.494	766.757
150.716	24.863	954.639	765.634
151.731	24.849	953.642	764.708
152.746	24.965	952.919	764.554
153.760	25.128	952.457	764.813
154.775	25.236	951.929	764.781
155.789	25.272	950.784	763.949
156.804	25.225	949.902	762.970
157.819	25.176	948.838	761.842
158.833	25.283	948.117	761.648
159.848	25.330	947.309	761.131
160.862	25.504	946.248	760.947
161.877	25.242	945.531	759.197
162.892	25.151	944.894	758.233
163.906	25.310	943.784	757.947
164.921	25.246	942.877	756.879
165.935	25.201	942.026	755.940
166.950	25.234	941.103	755.272
167.964	25.288	940.563	754.999
168.979	25.192	939.646	753.791
169.994	25.148	938.207	752.388
171.008	25.009	937.344	751.045
172.023	25.158	936.424	750.869
173.037	25.323	936.131	751.254
174.052	25.265	934.675	749.777
175.067	25.009	933.877	748.004
176.081	25.060	933.095	747.522
177.096	25.042	932.393	746.820
178.110	25.041	931.583	746.101
179.125	24.914	930.220	744.414
180.140	24.672	929.267	742.583
181.154	24.679	928.723	742.109
182.169	24.813	928.256	742.225
183.183	24.973	928.157	742.746
184.198	25.160	927.885	743.239
185.213	25.321	926.676	742.868
186.227	25.306	925.817	742.055
187.242	25.153	926.133	741.608
188.256	25.283	925.107	741.258
189.271	25.331	924.441	740.857
190.286	25.350	923.524	740.134
191.300	25.282	922.512	738.979
192.315	24.703	921.447	735.677
193.329	23.913	920.040	731.241
194.344	23.574	918.816	728.815
195.359	24.075	919.245	731.149
196.373	24.942	919.679	734.988
197.388	25.261	919.671	736.226
198.402	25.115	919.018	735.037
199.417	25.054	918.401	734.229
200.432	25.089	917.962	733.959
201.446	24.987	916.987	732.695
202.461	24.832	915.712	730.978
203.475	24.829	915.592	730.808
204.490	24.341	914.191	727.633
205.504	23.380	911.859	721.802
206.519	23.659	911.848	722.864
207.534	24.656	912.772	727.595
208.548	24.556	912.107	726.593
209.563	25.117	911.578	728.386
210.577	25.085	910.730	727.516
211.592	24.903	910.051	726.171
212.607	25.344	910.043	727.889
213.621	25.419	909.526	727.711
214.636	25.305	909.026	726.788
215.650	25.395	907.656	725.990
216.665	25.276	907.540	725.352
217.680	25.316	906.993	725.015
218.694	25.549	906.678	725.640
219.709	25.123	905.391	722.827
220.723	24.711	904.942	720.744
221.738	25.048	903.650	721.009
222.753	25.251	903.525	721.662
223.767	25.209	902.968	720.984
224.782	25.177	902.074	720.079
225.796	25.377	901.966	720.729
226.811	25.558	901.436	720.969
227.826	25.016	899.953	717.549
228.840	24.260	898.597	713.379
229.855	24.182	898.095	712.604
230.869	24.342	897.641	712.820
231.884	24.129	896.440	710.955
232.899	24.121	895.888	710.421
233.913	25.021	896.293	714.270
234.928	25.096	896.032	714.296
235.942	25.162	895.223	713.851
236.957	25.071	894.916	713.181
237.972	24.678	893.878	710.730
238.986	24.646	892.838	709.714
240.001	24.822	892.284	709.908
241.015	24.722	891.721	709.000
242.030	24.971	891.172	709.488
243.045	24.954	890.779	709.047
244.059	25.094	890.430	709.260
245.074	25.189	889.931	709.174
246.088	25.082	889.552	708.385
247.103	24.828	888.064	706.139
248.117	24.875	887.649	705.930
249.132	25.352	887.905	707.951
250.147	25.799	887.777	709.548
251.161	25.945	886.556	709.086
252.176	26.015	886.857	709.538
253.190	25.952	886.195	708.699
254.205	26.098	885.288	708.483
255.220	26.314	884.955	709.000
256.234	26.282	884.186	708.198
257.249	26.086	883.590	706.887
258.263	25.867	883.177	705.640
259.278	25.888	882.737	705.305
260.293	26.061	882.191	705.485
261.307	26.192	881.655	705.504
262.322	26.091	880.655	704.249
263.336	25.859	880.382	703.061
264.351	25.384	878.935	699.995
265.366	24.207	876.933	693.760
266.380	23.931	876.003	691.890
267.395	24.756	876.689	695.578
268.409	25.690	876.369	698.892
269.424	25.542	875.748	697.760
270.439	25.699	875.348	697.989
271.453	25.854	874.870	698.148
272.468	25.870	874.372	697.749
273.482	26.031	873.567	697.668
274.497	26.177	873.429	698.063
275.512	25.909	872.426	696.161
276.526	25.323	871.153	692.826
277.541	25.472	870.774	693.038
278.555	25.859	870.400	694.170
279.570	25.788	869.584	693.183
280.585	25.579	869.250	692.051
281.599	25.645	868.608	691.733
282.614	25.796	868.347	692.044
283.628	25.308	866.908	688.963
284.643	24.877	866.644	687.040
285.657	25.354	866.242	688.489
286.672	25.208	865.602	687.361
287.687	24.785	864.546	684.843
288.701	25.036	864.793	685.938
289.716	25.530	864.369	687.429
290.730	25.103	863.490	685.039
291.745	25.125	862.356	684.162
292.760	24.830	861.520	682.314
293.774	24.770	861.160	681.741
294.789	25.707	861.663	685.648
295.803	26.264	861.721	687.758
296.818	26.469	861.030	687.924
297.833	26.324	860.934	687.235
298.847	26.190	859.431	685.466
299.862	25.826	858.749	683.478
300.876	26.094	858.132	683.945
301.891	26.292	858.244	684.724
302.906	26.371	857.381	684.271
303.920	26.031	856.008	681.832
304.935	26.045	855.304	681.263
305.949	26.415	855.589	682.827
306.964	26.438	855.186	682.532
307.979	26.215	854.116	680.776
308.993	26.097	854.093	680.255
310.008	26.298	853.919	680.813
311.022	26.526	853.050	680.916
312.037	26.370	852.337	679.703
313.052	25.987	851.825	677.795
314.066	25.971	851.423	677.355
315.081	25.163	850.024	673.149
316.095	24.670	848.418	669.971
317.110	25.174	848.415	671.796
318.125	26.066	848.700	675.305
319.139	25.615	848.001	673.000
320.154	24.452	845.904	666.935
321.168	24.096	844.902	664.755
322.183	24.687	845.656	667.499
323.197	25.526	845.955	670.809
324.212	25.843	845.626	671.671
325.227	26.067	845.491	672.336
326.241	26.116	844.832	671.936
327.256	25.942	844.333	670.834
328.270	25.901	843.223	669.739
329.285	25.757	842.812	668.819
330.300	25.734	842.058	668.078
331.314	25.594	841.173	666.794
332.329	25.710	840.354	666.518
333.343	25.915	840.766	667.545
334.358	26.242	840.309	668.333
335.373	26.171	839.754	667.567
336.387	26.235	839.003	667.149
337.402	26.475	838.784	667.802
338.416	26.758	838.380	668.464
339.431	26.748	837.891	667.980
340.446	26.635	837.493	667.188
341.460	26.886	836.981	667.644
342.475	26.861	836.302	666.951
343.489	26.613	835.596	665.419
344.504	26.587	835.104	664.873
345.519	27.006	834.774	666.087
346.533	27.033	834.505	665.913
347.548	27.204	833.740	665.870
348.562	27.135	833.472	665.344
349.577	27.069	833.049	664.708
350.592	26.984	832.211	663.668
351.606	27.039	831.793	663.477
352.621	26.888	831.232	662.418
353.635	26.908	830.699	662.008
354.650	26.628	830.322	660.628
355.665	26.428	829.403	659.110
356.679	25.332	827.797	653.788
357.694	25.273	827.018	652.899
358.708	26.067	827.181	655.860
359.723	25.887	826.744	654.800
360.738	26.238	826.174	655.566
361.752	26.549	826.344	656.772
362.767	26.733	825.888	657.018
363.781	26.972	825.604	657.600
364.796	27.229	825.483	658.375
365.810	27.215	825.424	658.220
366.825	27.368	825.287	658.604
367.840	27.421	824.731	658.293
368.854	27.152	824.026	656.701
369.869	26.803	823.014	654.576
370.883	26.710	821.820	653.233
371.898	26.848	821.618	653.512
372.913	26.648	820.774	652.065
373.927	26.695	820.322	651.815
374.942	26.959	819.635	652.162
375.956	26.951	819.264	651.782
376.971	27.121	818.799	651.964
377.986	27.197	818.143	651.655
379.000	27.369	817.661	651.831
380.015	27.477	817.495	652.027
381.029	27.168	816.770	650.284
382.044	27.076	816.205	649.448
383.059	27.382	815.679	650.066
384.073	27.397	815.340	649.793
385.088	27.459	814.813	649.534
386.102	27.388	814.203	648.738
387.117	27.379	813.227	647.872
388.132	27.086	813.008	646.597
389.146	26.859	812.300	645.169
390.161	26.331	811.117	642.296
391.175	26.394	810.947	642.329
392.190	26.976	811.043	644.414
393.205	27.024	810.367	643.991
394.219	26.074	808.904	639.408
395.234	24.278	806.548	631.137
396.248	23.634	805.438	627.935
397.263	24.778	806.146	632.478
398.278	26.506	807.651	639.718
399.292	26.956	807.524	641.152
400.307	26.611	806.601	639.146
401.321	26.641	806.381	639.018
402.336	26.704	806.036	638.911
403.350	26.993	805.921	639.782
404.365	27.449	805.849	641.275
405.380	27.614	805.774	641.740
406.394	28.087	805.147	642.847
407.409	28.082	805.214	642.825
408.423	27.840	804.728	641.530
409.438	28.030	803.967	641.534
410.453	28.107	803.592	641.448
411.467	28.096	803.383	641.186
412.482	27.875	802.952	640.011
413.496	27.778	802.411	639.182
414.511	28.074	801.788	639.664
415.526	27.971	801.697	639.177
416.540	28.168	801.185	639.399
417.555	28.063	800.350	638.310
418.569	27.779	799.821	636.840
419.584	27.741	799.243	636.194
420.599	27.852	798.479	635.914
421.613	110.030	1286.005	1458.434
422.628	94.801	1357.047	1458.553
