DTS Sentinel unit serial number:	SN413079Multiplexer serial number:	ORYXHardware model number:	OX4-SRSoftware version number:	ORYX F/W v4.00 Oryx Data Collector v3.7.2.0data status	okinstallation	princeton_trtdifferential loss correction	single-endedforward channel	channel 3reverse channel	N/Adate	2019/09/14time	22:40:35forward acquisition time	60.00reverse acquisition time	0.00gamma	496.2192k internal	0.2318k external	0.2318temperature offset calibration	0.9989default loss term (dB/km)	0.3790temperature slope calibration	1.0000multiplexer offset coefficient	1.0000multiplexer slope coefficient	1.0000fibre end	0.00T internal ref (°C)	32.50T ext. ref 1 (°C)	4.68T ext. ref 2 (°C)	27.55length (m)	temperature (°C)	Stokes	anti-Stokes-747.200	-200.000	-0.020	-0.120
-746.185	179.470	-0.204	-0.303
-745.171	-50.457	0.089	0.043
-744.156	-161.898	-0.390	-0.020
-743.142	-60.637	0.039	0.017
-742.127	46.594	-0.163	0.154
-741.112	-200.000	-0.024	0.243
-740.098	57.455	0.299	0.295
-739.083	242.457	0.195	0.331
-738.069	-88.756	-0.172	-0.052
-737.054	332.068	0.119	-0.233
-736.039	-200.000	-0.034	-0.309
-735.025	-58.843	0.228	-0.100
-734.010	75.641	-0.361	-0.385
-732.996	-131.480	-0.168	0.022
-731.981	-30.309	-0.056	0.032
-730.966	403.270	-0.199	-0.423
-729.952	-122.632	-0.110	0.018
-728.937	-97.014	-0.034	0.009
-727.923	-105.339	-0.309	-0.071
-726.908	-200.000	0.022	-0.217
-725.894	65.827	0.252	0.258
-724.879	-35.533	0.109	-0.060
-723.864	34.538	-0.178	-0.157
-722.850	262.303	-0.103	-0.181
-721.835	-55.619	-0.104	0.047
-720.821	273.097	0.209	-0.373
-719.806	156.152	-0.312	-0.435
-718.791	-3.733	0.121	-0.085
-717.777	378.606	-0.130	0.269
-716.762	-200.000	0.027	-0.250
-715.748	-84.906	-0.153	-0.049
-714.733	695.295	0.085	-0.227
-713.718	-67.416	0.383	-0.152
-712.704	-137.308	0.107	0.012
-711.689	-70.849	0.334	-0.127
-710.675	233.821	-0.141	0.235
-709.660	315.136	0.084	-0.160
-708.645	91.273	-0.323	-0.367
-707.631	-200.000	0.018	0.269
-706.616	800.000	-0.075	0.281
-705.602	-162.736	-0.338	-0.017
-704.587	-154.865	-0.113	0.008
-703.572	-111.429	-0.157	0.032
-702.558	-35.837	0.353	0.193
-701.543	-112.504	-0.442	-0.089
-700.529	215.824	-0.058	0.093
-699.514	14.311	-0.062	-0.049
-698.499	5.492	-0.240	-0.179
-697.485	-131.437	0.401	-0.054
-696.470	-118.767	0.138	0.024
-695.456	-120.271	-0.375	0.065
-694.441	-59.064	-0.089	0.039
-693.426	170.645	0.097	0.140
-692.412	3.071	-0.267	0.196
-691.397	383.573	0.126	-0.263
-690.383	800.000	-0.029	-0.083
-689.368	-200.000	-0.038	-0.225
-688.354	-12.255	-0.209	-0.138
-687.339	-33.569	-0.070	-0.039
-686.324	-118.234	-0.257	0.046
-685.310	70.298	-0.049	0.051
-684.295	-87.634	0.220	-0.067
-683.281	-20.140	-0.297	-0.185
-682.266	-200.000	-0.010	-0.322
-681.251	102.545	0.137	-0.162
-680.237	-43.726	-0.236	-0.120
-679.222	-147.963	0.290	0.024
-678.208	71.899	0.094	-0.099
-677.193	11.470	0.202	-0.157
-676.178	173.282	-0.064	-0.093
-675.164	-59.558	0.196	0.085
-674.149	-31.084	0.338	-0.192
-673.135	-200.000	-0.012	0.380
-672.120	-24.972	-0.263	-0.157
-671.105	800.000	0.059	-0.190
-670.091	-106.483	-0.255	-0.057
-669.076	320.807	-0.095	0.182
-668.062	116.841	-0.049	0.060
-667.047	800.000	0.119	0.335
-666.032	161.985	0.196	-0.277
-665.018	-169.410	-0.282	0.010
-664.003	-200.000	-0.032	0.219
-662.989	136.882	0.161	-0.212
-661.974	-90.911	-0.386	-0.112
-660.959	800.000	-0.070	0.232
-659.945	284.648	0.199	-0.362
-658.930	92.003	-0.113	-0.128
-657.916	-54.597	-0.382	-0.174
-656.901	-0.653	0.102	-0.073
-655.886	-99.236	-0.120	0.031
-654.872	675.206	-0.153	0.400
-653.857	166.777	-0.027	-0.039
-652.843	-102.816	0.491	0.118
-651.828	-98.177	-0.041	-0.011
-650.814	-74.943	0.160	-0.058
-649.799	13.262	0.038	0.030
-648.784	463.261	-0.130	0.293
-647.770	-200.000	-0.050	0.399
-646.755	245.066	-0.074	-0.125
-645.741	-120.701	0.278	-0.047
-644.726	21.869	0.124	-0.102
-643.711	-152.004	0.133	0.010
-642.697	28.867	-0.118	0.101
-641.682	140.327	-0.096	-0.128
-640.668	38.903	0.029	-0.026
-639.653	-84.315	0.059	-0.019
-638.638	-116.917	0.312	-0.058
-637.624	-200.000	0.010	0.422
-636.609	56.051	-0.266	-0.260
-635.595	-167.603	-0.051	0.002
-634.580	-34.183	-0.135	-0.075
-633.565	800.000	0.011	-0.042
-632.551	3.815	-0.223	0.164
-631.536	-200.000	0.000	0.110
-630.522	-187.641	-0.325	0.004
-629.507	-174.973	0.217	-0.006
-628.492	-102.829	-0.220	0.053
-627.478	-143.540	0.334	0.032
-626.463	800.000	0.096	-0.397
-625.449	-200.000	0.006	-0.132
-624.434	9.134	-0.115	0.087
-623.419	386.047	0.194	0.404
-622.405	177.386	0.102	-0.150
-621.390	-22.953	-0.121	-0.073
-620.376	-200.000	-0.348	-0.001
-619.361	16.592	0.077	-0.061
-618.346	60.316	0.307	0.306
-617.332	237.258	-0.179	0.298
-616.317	-34.733	0.169	-0.093
-615.303	-200.000	0.059	-0.390
-614.288	-200.000	0.016	-0.137
-613.273	-13.464	0.209	-0.137
-612.259	793.374	-0.084	0.232
-611.244	-200.000	0.006	0.068
-610.230	-130.276	-0.401	0.055
-609.215	800.000	0.074	-0.271
-608.201	59.378	-0.272	0.270
-607.186	290.005	-0.160	-0.293
-606.171	230.776	-0.149	-0.245
-605.157	-46.899	-0.225	0.111
-604.142	-200.000	-0.085	0.390
-603.128	-129.937	0.299	-0.041
-602.113	-200.000	-0.003	0.029
-601.098	56.562	0.176	0.172
-600.084	-154.736	-0.198	0.013
-599.069	-89.601	0.195	0.058
-598.055	13.150	-0.098	0.076
-597.040	445.576	0.044	0.098
-596.025	-117.779	0.049	0.009
-595.011	-200.000	-0.020	-0.376
-593.996	800.000	-0.050	-0.145
-592.982	-120.826	0.352	0.060
-591.967	-27.303	0.277	-0.162
-590.952	421.249	-0.091	0.197
-589.938	537.068	-0.030	0.072
-588.923	178.507	-0.037	-0.055
-587.909	7.895	0.157	-0.119
-586.894	-46.870	0.117	0.058
-585.879	334.483	0.098	0.190
-584.865	-65.963	0.132	0.053
-583.850	800.000	0.075	0.220
-582.836	92.559	-0.096	0.109
-581.821	-27.422	-0.161	0.094
-580.806	-150.959	-0.277	0.021
-579.792	-10.079	-0.184	-0.123
-578.777	231.868	-0.097	-0.159
-577.763	108.087	0.151	-0.181
-576.748	24.014	0.213	-0.177
-575.733	-10.216	0.062	-0.042
-574.719	-67.260	0.115	0.046
-573.704	-81.259	0.127	-0.042
-572.690	589.216	0.185	-0.459
-571.675	65.853	-0.062	-0.063
-570.661	-32.750	0.345	0.193
-569.646	-200.000	-0.062	0.309
-568.631	-99.586	0.034	-0.008
-567.617	-106.130	-0.407	0.092
-566.602	270.213	-0.004	-0.007
-565.588	-200.000	-0.019	0.154
-564.573	-102.716	-0.349	0.084
-563.558	-42.039	-0.131	0.067
-562.544	-151.067	-0.104	0.008
-561.529	-89.615	-0.151	-0.045
-560.515	800.000	-0.039	0.163
-559.500	326.201	0.144	-0.277
-558.485	186.235	-0.065	-0.097
-557.471	-200.000	0.094	0.414
-556.456	-165.259	-0.172	-0.008
-555.442	-200.000	-0.011	0.200
-554.427	19.844	0.071	0.057
-553.412	-152.490	-0.506	-0.036
-552.398	-92.031	-0.394	-0.112
-551.383	-200.000	-0.024	-0.183
-550.369	-102.628	0.286	-0.069
-549.354	-40.968	0.274	-0.142
-548.339	122.527	0.121	0.152
-547.325	44.670	-0.187	-0.172
-546.310	-200.000	-0.011	-0.172
-545.296	-114.017	0.280	0.055
-544.281	-19.808	0.192	0.119
-543.266	-200.000	-0.045	0.256
-542.252	223.570	0.066	-0.107
-541.237	-72.075	-0.138	0.052
-540.223	155.136	0.109	0.151
-539.208	319.818	0.054	0.102
-538.193	-83.036	0.301	-0.097
-537.179	-106.038	0.256	0.058
-536.164	-62.454	0.313	0.130
-535.150	-74.775	-0.094	-0.034
-534.135	-101.471	-0.329	-0.080
-533.121	-200.000	-0.006	0.278
-532.106	18.965	0.261	0.210
-531.091	-94.399	0.201	-0.055
-530.077	-200.000	-0.019	-0.361
-529.062	223.064	0.103	-0.167
-528.048	618.344	-0.063	-0.159
-527.033	-30.295	0.153	0.087
-526.018	-200.000	0.022	0.190
-525.004	197.405	-0.278	-0.426
-523.989	-94.999	0.128	0.035
-522.975	-174.041	0.304	0.009
-521.960	224.991	-0.074	-0.120
-520.945	800.000	0.041	0.155
-519.931	-105.723	-0.127	-0.029
-518.916	800.000	0.059	0.250
-517.902	800.000	-0.082	-0.308
-516.887	800.000	-0.061	0.192
-515.872	-169.709	-0.359	0.013
-514.858	-200.000	-0.013	-0.505
-513.843	-200.000	0.018	-0.156
-512.829	-23.734	0.227	-0.137
-511.814	-109.503	0.241	-0.051
-510.799	761.651	-0.089	0.242
-509.785	800.000	0.056	0.207
-508.770	114.777	-0.097	0.119
-507.756	-15.496	-0.307	0.197
-506.741	-132.435	0.269	-0.035
-505.726	-101.272	-0.339	0.083
-504.712	800.000	-0.062	-0.225
-503.697	-38.881	-0.233	0.123
-502.683	93.123	-0.194	0.220
-501.668	-166.682	0.271	0.011
-500.653	176.828	-0.094	-0.137
-499.639	171.423	-0.129	-0.186
-498.624	356.013	-0.016	0.031
-497.610	141.031	0.085	0.113
-496.595	-53.304	-0.431	-0.198
-495.581	-163.002	-0.138	-0.007
-494.566	131.450	-0.165	-0.212
-493.551	-22.167	0.071	-0.043
-492.537	-99.553	-0.545	0.137
-491.522	-101.822	0.138	-0.033
-490.508	-61.701	0.339	0.143
-489.493	257.983	-0.170	-0.293
-488.478	29.213	0.037	0.031
-487.464	-33.353	-0.286	-0.159
-486.449	170.529	-0.177	-0.255
-485.435	-45.509	-0.122	0.061
-484.420	-80.380	-0.063	-0.021
-483.405	-52.623	-0.258	0.119
-482.391	-89.199	-0.390	0.115
-481.376	-98.058	-0.186	-0.048
-480.362	40.168	-0.172	-0.155
-479.347	800.000	-0.042	0.130
-478.332	206.602	0.026	-0.040
-477.318	-200.000	0.013	-0.138
-476.303	149.833	0.100	-0.135
-475.289	373.217	0.042	-0.085
-474.274	-37.473	0.249	-0.133
-473.259	800.000	-0.036	0.157
-472.245	100.097	0.189	-0.220
-471.230	-160.614	-0.348	-0.019
-470.216	411.153	0.010	-0.021
-469.201	-136.697	0.199	0.023
-468.186	-78.714	0.268	0.092
-467.172	34.797	0.174	-0.152
-466.157	-148.760	-0.121	0.010
-465.143	-73.532	0.295	-0.108
-464.128	15.681	0.315	0.248
-463.113	107.166	0.283	0.336
-462.099	574.574	-0.043	-0.106
-461.084	-200.000	0.049	-0.229
-460.070	800.000	0.074	-0.289
-459.055	-200.000	0.043	-0.238
-458.040	-99.512	0.173	-0.043
-457.026	-62.603	0.050	-0.021
-456.011	80.466	0.144	-0.155
-454.997	-88.247	-0.504	0.151
-453.982	-97.797	-0.210	0.054
-452.968	-90.091	0.437	-0.127
-451.953	-104.398	-0.240	-0.056
-450.938	-200.000	-0.004	-0.249
-449.924	800.000	0.050	-0.214
-448.909	142.349	0.088	0.117
-447.895	-200.000	0.323	-0.001
-446.880	240.492	-0.133	-0.223
-445.865	-200.000	-0.072	0.318
-444.851	800.000	-0.073	0.308
-443.836	-142.509	-0.122	-0.012
-442.822	-127.576	0.411	-0.060
-441.807	91.089	-0.115	-0.129
-440.792	41.868	-0.059	0.053
-439.778	-49.863	-0.255	-0.121
-438.763	-200.000	-0.022	0.162
-437.749	451.829	0.163	-0.361
-436.734	-200.000	0.034	-0.257
-435.719	459.289	-0.136	0.303
-434.705	58.745	-0.006	0.006
-433.690	145.156	-0.162	-0.217
-432.676	-53.323	0.166	0.076
-431.661	103.254	0.180	0.211
-430.646	-124.886	-0.072	-0.011
-429.632	-130.811	-0.119	-0.016
-428.617	-200.000	-0.068	0.368
-427.603	-109.056	0.220	0.047
-426.588	-142.695	0.051	0.005
-425.573	-200.000	-0.024	-0.289
-424.559	-138.983	0.092	-0.010
-423.544	800.000	-0.120	0.360
-422.530	10.899	0.092	-0.071
-421.515	27.888	0.330	0.278
-420.500	572.183	-0.072	-0.176
-419.486	-68.174	0.229	-0.089
-418.471	154.063	0.121	0.167
-417.457	-24.949	-0.053	-0.031
-416.442	118.563	-0.168	-0.207
-415.428	-16.136	-0.207	0.131
-414.413	-139.725	-0.162	0.017
-413.398	32.910	0.327	0.283
-412.384	-200.000	-0.046	-0.361
-411.369	800.000	0.175	-0.497
-410.355	64.999	0.175	-0.177
-409.340	-45.930	-0.359	-0.177
-408.325	-200.000	0.028	0.366
-407.311	-200.000	0.016	0.078
-406.296	273.752	-0.127	-0.225
-405.282	26.008	0.064	-0.054
-404.267	-200.000	0.077	-0.474
-403.252	-54.996	0.187	-0.084
-402.238	-15.391	-0.312	0.199
-401.223	632.447	-0.148	-0.374
-400.209	-200.000	-0.001	-0.230
-399.194	-121.092	-0.168	-0.028
-398.179	314.528	-0.039	0.073
-397.165	314.796	0.036	-0.067
-396.150	800.000	0.044	0.144
-395.136	800.000	-0.038	-0.127
-394.121	-82.796	-0.252	-0.081
-393.106	-95.781	0.352	-0.094
-392.092	-71.050	-0.102	-0.038
-391.077	318.207	-0.039	-0.073
-390.063	542.653	0.152	0.363
-389.048	2.787	-0.095	-0.069
-388.033	-41.291	-0.195	0.100
-387.019	-73.318	-0.302	-0.110
-386.004	-91.422	-0.063	-0.018
-384.990	176.666	-0.187	-0.271
-383.975	-175.842	-0.057	-0.002
-382.960	-200.000	0.029	0.269
-381.946	-121.700	0.153	0.025
-380.931	13.394	-0.152	-0.118
-379.917	-15.694	-0.286	-0.182
-378.902	-200.000	0.001	0.067
-377.888	-200.000	0.029	-0.281
-376.873	-179.838	-0.154	0.003
-375.858	211.169	-0.166	-0.260
-374.844	-84.788	0.037	0.012
-373.829	-82.483	0.203	-0.066
-372.815	630.799	0.041	-0.103
-371.800	-53.286	-0.236	-0.108
-370.785	-97.931	-0.022	-0.006
-369.771	-200.000	-0.013	0.367
-368.756	283.276	0.109	-0.195
-367.742	22.041	-0.175	0.142
-366.727	800.000	0.044	0.187
-365.712	-1.522	-0.164	-0.116
-364.698	-19.683	-0.054	-0.033
-363.683	29.643	-0.385	-0.327
-362.669	-200.000	-0.014	0.086
-361.654	-200.000	-0.005	0.121
-360.639	-200.000	0.060	-0.309
-359.625	-169.258	-0.261	0.010
-358.610	800.000	-0.133	0.448
-357.596	-20.147	-0.425	0.261
-356.581	-200.000	-0.002	-0.020
-355.566	25.692	-0.305	-0.254
-354.552	91.692	0.118	-0.133
-353.537	-200.000	-0.014	0.284
-352.523	-67.187	0.221	-0.087
-351.508	800.000	-0.059	0.211
-350.493	485.575	0.140	0.318
-349.479	-31.488	0.060	-0.034
-348.464	-86.173	0.329	-0.101
-347.450	-149.856	-0.162	-0.013
-346.435	-80.009	0.144	0.048
-345.420	-68.539	0.168	0.065
-344.406	167.254	-0.219	-0.310
-343.391	177.484	-0.095	0.138
-342.377	-104.585	-0.152	0.035
-341.362	187.400	-0.181	0.269
-340.348	66.509	-0.092	-0.093
-339.333	233.249	0.091	-0.149
-338.318	-200.000	0.041	0.264
-337.304	800.000	-0.039	0.132
-336.289	294.011	-0.249	0.453
-335.275	83.183	0.108	0.117
-334.260	-113.537	-0.393	-0.077
-333.245	-200.000	-0.006	-0.279
-332.231	716.827	-0.058	-0.154
-331.216	800.000	-0.098	-0.276
-330.202	9.022	0.171	-0.128
-329.187	-27.066	-0.021	0.012
-328.172	-134.657	-0.201	0.024
-327.158	640.724	0.053	-0.135
-326.143	-200.000	-0.004	0.186
-325.129	-22.086	0.187	-0.113
-324.114	-45.868	0.351	0.173
-323.099	-200.000	-0.020	0.100
-322.085	496.086	0.084	0.193
-321.070	-200.000	0.021	-0.168
-320.056	550.340	0.097	0.232
-319.041	-90.143	-0.146	-0.042
-318.026	-200.000	-0.001	0.082
-317.012	-200.000	-0.039	-0.261
-315.997	-118.698	0.265	0.046
-314.983	-200.000	0.009	0.234
-313.968	30.095	0.039	0.033
-312.953	282.180	0.129	-0.230
-311.939	-107.825	0.063	0.014
-310.924	-200.000	-0.041	-0.370
-309.910	8.291	-0.192	-0.144
-308.895	-99.944	0.151	0.038
-307.880	-107.580	0.197	0.043
-306.866	79.890	0.224	0.239
-305.851	800.000	0.167	-0.533
-304.837	678.312	-0.082	-0.213
-303.822	23.245	0.155	0.127
-302.807	242.630	0.087	0.144
-301.793	-115.390	0.133	0.025
-300.778	187.015	0.090	-0.133
-299.764	800.000	-0.064	0.201
-298.749	-200.000	-0.024	0.132
-297.735	-59.557	0.365	-0.156
-296.720	-104.635	0.219	0.050
-295.705	800.000	0.072	-0.257
-294.691	43.305	0.127	-0.115
-293.676	-5.990	0.037	0.025
-292.662	-200.000	-0.005	-0.056
-291.647	319.497	0.149	0.281
-290.632	-139.492	-0.212	-0.023
-289.618	-180.110	-0.083	-0.002
-288.603	-169.903	-0.312	0.011
-287.589	110.774	-0.031	0.037
-286.574	521.277	-0.043	0.100
-285.559	36.437	0.136	0.120
-284.545	-14.987	-0.102	0.065
-283.530	800.000	0.017	0.061
-282.516	138.065	0.166	0.217
-281.501	6.877	0.264	-0.196
-280.486	-134.581	0.130	-0.016
-279.472	-200.000	0.004	0.179
-278.457	59.909	0.043	-0.042
-277.443	-200.000	-0.021	0.216
-276.428	800.000	0.092	0.268
-275.413	-200.000	0.021	0.177
-274.399	27.256	0.083	0.069
-273.384	96.083	0.355	-0.403
-272.370	-142.031	-0.240	0.024
-271.355	-200.000	0.044	0.270
-270.340	-200.000	-0.029	0.170
-269.326	234.833	-0.033	-0.054
-268.311	-59.507	0.209	0.089
-267.297	51.841	-0.179	0.169
-266.282	97.962	-0.134	-0.154
-265.267	410.503	0.104	0.220
-264.253	118.754	0.056	0.069
-263.238	111.228	0.112	0.133
-262.224	268.928	-0.160	-0.278
-261.209	-106.520	-0.283	-0.063
-260.195	84.429	-0.200	0.217
-259.180	792.390	-0.063	0.171
-258.165	-200.000	-0.004	0.102
-257.151	145.810	0.126	0.168
-256.136	-142.259	0.143	0.014
-255.122	213.897	0.095	-0.150
-254.107	327.818	-0.044	-0.084
-253.092	31.859	-0.125	-0.107
-252.078	-49.206	0.120	-0.057
-251.063	-52.841	0.223	0.102
-250.049	70.866	-0.130	-0.133
-249.034	800.000	-0.164	-0.471
-248.019	452.345	0.142	0.311
-247.005	27.330	-0.056	-0.047
-245.990	35.583	0.056	-0.049
-244.976	-150.545	-0.330	-0.025
-243.961	23.994	0.070	-0.057
-242.946	-114.415	-0.117	0.022
-241.932	38.814	0.165	-0.146
-240.917	88.564	0.200	0.221
-239.903	83.688	-0.137	0.149
-238.888	81.836	-0.239	-0.257
-237.873	38.417	0.193	-0.171
-236.859	-53.889	0.205	-0.093
-235.844	329.488	-0.141	-0.269
-234.830	-153.098	0.285	-0.020
-233.815	192.063	0.019	-0.028
-232.800	64.312	0.175	0.175
-231.786	-200.000	0.025	0.226
-230.771	-200.000	-0.045	0.278
-229.757	-200.000	-0.009	0.333
-228.742	113.986	-0.062	-0.075
-227.727	-143.464	-0.240	0.023
-226.713	-20.641	0.210	0.128
-225.698	354.423	0.031	0.061
-224.684	800.000	-0.031	-0.128
-223.669	-37.665	0.154	-0.082
-222.655	-113.579	0.132	-0.026
-221.640	220.126	0.113	-0.180
-220.625	-58.536	-0.097	-0.042
-219.611	-161.011	0.246	-0.013
-218.596	-108.237	0.505	0.108
-217.582	123.138	-0.104	-0.129
-216.567	-81.455	-0.166	-0.054
-215.552	-17.605	-0.158	-0.098
-214.538	-200.000	0.028	-0.259
-213.523	-46.589	0.416	-0.202
-212.509	-18.202	0.065	-0.040
-211.494	25.594	0.169	0.139
-210.479	33.262	-0.189	-0.162
-209.465	604.674	-0.058	0.144
-208.450	-123.319	0.397	0.063
-207.436	0.307	-0.256	0.181
-206.421	91.983	-0.059	0.066
-205.406	111.167	-0.107	-0.128
-204.392	-32.041	-0.266	0.148
-203.377	-169.435	0.269	0.010
-202.363	-114.065	0.250	0.048
-201.348	-46.079	-0.290	0.141
-200.333	-200.000	0.328	0.000
-199.319	-76.172	0.091	0.032
-198.304	616.915	-0.055	-0.137
-197.290	-50.444	0.032	0.015
-196.275	50.528	-0.201	-0.188
-195.260	-1.857	0.228	-0.159
-194.246	-147.325	-0.214	0.018
-193.231	-200.000	0.007	-0.059
-192.217	-153.597	-0.380	0.026
-191.202	779.905	-0.035	0.094
-190.187	-100.004	-0.052	0.013
-189.173	35.898	0.098	-0.086
-188.158	-0.834	0.220	-0.154
-187.144	-85.032	0.278	0.086
-186.129	-59.844	0.374	-0.159
-185.114	122.649	-0.137	-0.170
-184.100	165.553	0.140	-0.197
-183.085	384.321	-0.062	0.127
-182.071	-154.313	0.429	-0.029
-181.056	33.893	-0.050	0.043
-180.042	-200.000	-0.042	0.264
-179.027	800.000	0.021	-0.080
-178.012	32.265	-0.134	-0.114
-176.998	584.961	0.045	0.109
-175.983	-200.000	-0.091	0.412
-174.969	6.554	-0.133	-0.098
-173.954	-122.320	-0.209	-0.034
-172.939	-200.000	-0.072	0.327
-171.925	-200.000	0.008	0.109
-170.910	-22.545	0.099	0.059
-169.896	108.111	-0.150	0.177
-168.881	178.109	-0.118	0.171
-167.866	300.312	-0.097	-0.178
-166.852	220.258	-0.138	0.219
-165.837	303.876	-0.133	0.243
-164.823	19.285	0.058	0.046
-163.808	63.221	-0.136	0.135
-162.793	800.000	0.059	0.171
-161.779	-49.228	0.272	0.128
-160.764	-77.367	-0.322	-0.111
-159.750	430.877	-0.060	0.129
-158.735	127.244	0.177	0.222
-157.720	401.079	0.049	-0.102
-156.706	-137.350	0.226	0.025
-155.691	-200.000	-0.042	-0.270
-154.677	201.532	-0.125	0.191
-153.662	800.000	-0.091	0.262
-152.647	91.671	0.165	0.183
-151.633	96.661	-0.047	-0.053
-150.618	-170.313	-0.206	-0.007
-149.604	162.225	0.242	0.336
-148.589	472.186	0.107	-0.238
-147.574	-95.230	0.151	0.040
-146.560	-85.209	-0.098	-0.030
-145.545	-200.000	-0.011	0.174
-144.531	800.000	0.062	0.201
-143.516	-150.217	-0.311	0.024
-142.502	-200.000	0.003	-0.187
-141.487	759.665	0.062	0.167
-140.472	-35.953	-0.295	0.158
-139.458	-137.088	0.184	-0.021
-138.443	-46.411	-0.149	-0.072
-137.429	101.796	0.195	0.225
-136.414	-143.717	0.091	-0.008
-135.399	26.925	-0.111	0.092
-134.385	-153.017	0.122	-0.008
-133.370	402.552	-0.109	-0.227
-132.356	-61.192	0.102	-0.042
-131.341	-200.000	0.015	-0.185
-130.326	-200.000	0.009	-0.066
-129.312	68.048	0.052	0.053
-128.297	170.196	0.114	-0.162
-127.283	800.000	0.083	-0.301
-126.268	-169.503	-0.552	-0.020
-125.253	-200.000	-0.061	0.349
-124.239	321.078	-0.084	0.159
-123.224	326.887	0.022	-0.041
-122.210	0.497	0.484	0.341
-121.195	691.377	-0.022	0.058
-120.180	5.719	0.108	0.079
-119.166	-130.647	-0.168	0.022
-118.151	-96.563	-0.166	-0.043
-117.137	-98.467	0.076	0.019
-116.122	-48.072	-0.114	0.054
-115.107	-110.453	0.383	-0.078
-114.093	-139.488	0.129	-0.014
-113.078	39.629	-0.239	-0.211
-112.064	348.723	-0.146	-0.284
-111.049	52.126	-0.068	-0.064
-110.034	3.345	0.149	-0.107
-109.020	-115.822	-0.193	-0.036
-108.005	-90.626	-0.147	0.042
-106.991	151.722	0.334	0.449
-105.976	-175.078	-0.271	-0.007
-104.962	174.266	-0.165	-0.236
-103.947	44.582	-0.067	0.061
-102.932	-200.000	0.037	-0.213
-101.918	59.170	0.108	0.105
-100.903	96.665	0.285	-0.322
-99.889	-72.068	0.073	-0.027
-98.874	11.194	-0.153	0.116
-97.859	800.000	-0.042	0.129
-96.845	-111.252	0.185	-0.037
-95.830	-33.701	-0.154	0.084
-94.816	800.000	0.065	-0.260
-93.801	10.656	-0.162	-0.122
-92.786	-144.523	-0.186	0.017
-91.772	151.009	0.038	0.051
-90.757	51.864	0.032	0.030
-89.743	66.391	-0.132	0.132
-88.728	-200.000	0.016	-0.198
-87.713	196.113	0.203	-0.305
-86.699	-200.000	0.004	-0.030
-85.684	-108.722	0.080	0.017
-84.670	-200.000	-0.002	0.084
-83.655	150.552	0.157	0.210
-82.640	137.088	-0.089	0.115
-81.626	293.923	-0.117	-0.211
-80.611	-43.543	-0.174	-0.087
-79.597	-95.103	0.090	-0.024
-78.582	-200.000	0.002	0.054
-77.567	800.000	0.035	-0.096
-76.553	800.000	0.085	0.246
-75.538	426.085	-0.116	-0.247
-74.524	-148.018	0.156	0.013
-73.509	390.055	-0.049	0.100
-72.494	-60.151	-0.199	0.084
-71.480	800.000	-0.077	0.315
-70.465	-133.387	0.224	-0.028
-69.451	726.132	-0.096	0.252
-68.436	-200.000	-0.032	-0.426
-67.422	-147.062	0.032	-0.003
-66.407	-200.000	-0.005	-0.185
-65.392	118.679	0.064	0.078
-64.378	-176.067	0.212	0.006
-63.363	-117.921	0.387	-0.068
-62.349	-129.528	-0.458	0.063
-61.334	19.445	-0.843	-0.668
-60.319	123.311	0.343	0.424
-59.305	237.021	-0.648	-1.058
-58.290	800.000	0.389	1.102
-57.276	800.000	0.414	1.511
-56.261	-200.000	95.013	579.217
-55.246	660.782	1368.782	3473.709
-54.232	199.778	2540.817	3841.337
-53.217	119.308	2160.297	2633.732
-52.203	43.147	1707.340	1535.110
-51.188	35.727	1520.823	1316.779
-50.173	33.332	1493.807	1277.204
-49.159	52.259	1541.841	1448.391
-48.144	54.149	1559.501	1477.882
-47.130	35.852	1519.363	1316.163
-46.115	32.691	1504.961	1282.176
-45.100	32.582	1501.347	1278.306
-44.086	32.644	1499.554	1277.152
-43.071	32.661	1497.213	1275.221
-42.057	32.489	1496.395	1273.308
-41.042	32.536	1494.682	1272.122
-40.027	32.662	1492.841	1271.353
-39.013	32.484	1491.978	1269.366
-37.998	32.455	1490.633	1267.976
-36.984	32.542	1489.394	1267.460
-35.969	32.551	1487.946	1266.238
-34.954	32.622	1486.338	1265.296
-33.940	32.525	1485.564	1263.933
-32.925	32.547	1484.354	1263.004
-31.911	32.511	1482.768	1261.360
-30.896	32.581	1481.344	1260.566
-29.881	32.524	1480.040	1259.027
-28.867	32.539	1478.559	1257.817
-27.852	32.502	1477.300	1256.448
-26.838	32.570	1475.599	1255.404
-25.823	32.587	1473.824	1253.961
-24.809	32.523	1472.049	1251.974
-23.794	32.565	1470.682	1251.043
-22.779	32.527	1469.785	1249.976
-21.765	32.526	1468.260	1248.621
-20.750	32.536	1467.368	1247.883
-19.736	32.455	1466.431	1246.497
-18.721	32.521	1465.353	1245.971
-17.706	32.372	1464.601	1244.295
-16.692	32.458	1463.036	1243.483
-15.677	32.498	1462.198	1242.987
-14.663	32.500	1460.977	1241.914
-13.648	32.410	1460.299	1240.693
-12.633	32.506	1459.090	1240.247
-11.619	32.443	1458.580	1239.350
-10.604	32.517	1457.543	1238.906
-9.590	32.522	1456.858	1238.310
-8.575	32.423	1456.235	1237.080
-7.560	32.475	1454.998	1236.321
-6.546	32.402	1454.549	1235.415
-5.531	32.524	1452.750	1234.634
-4.517	32.353	1452.336	1233.113
-3.502	32.426	1450.885	1232.309
-2.487	32.419	1450.107	1231.554
-1.473	32.428	1449.545	1231.088
-0.458	32.446	1447.954	1229.806
0.556	31.441	1438.202	1218.170
1.571	28.649	1412.454	1178.356
2.586	25.203	1351.573	1106.260
3.600	23.351	1270.026	1028.680
4.615	22.030	1224.149	984.033
5.629	19.099	1167.331	922.592
6.644	11.380	1085.013	818.854
7.659	5.428	1045.577	760.161
8.673	4.726	1039.788	752.494
9.688	4.706	1036.857	750.211
10.702	4.590	1035.440	748.557
11.717	4.678	1033.285	747.358
12.731	6.713	1035.368	758.587
13.746	13.790	1045.494	800.176
14.761	18.914	1051.204	829.258
15.775	18.837	1049.667	827.600
16.790	17.731	1047.545	820.532
17.804	16.591	1045.545	813.419
18.819	15.779	1043.797	808.084
19.834	15.297	1042.053	804.352
20.848	14.959	1041.235	802.032
21.863	14.797	1040.428	800.560
22.877	14.621	1039.931	799.266
23.892	14.403	1038.957	797.401
24.907	14.341	1038.008	796.308
25.921	14.299	1037.615	795.735
26.936	14.327	1036.817	795.185
27.950	14.504	1035.525	794.969
28.965	14.455	1034.991	794.257
29.980	14.475	1033.474	793.115
30.994	14.542	1032.435	792.569
32.009	14.662	1031.420	792.287
33.023	14.695	1030.626	791.764
34.038	14.595	1029.941	790.694
35.053	14.594	1028.800	789.745
36.067	14.495	1028.550	789.012
37.082	14.436	1027.167	787.603
38.096	14.437	1026.602	787.105
39.111	14.538	1025.938	787.005
40.126	14.595	1024.669	786.228
41.140	14.495	1023.718	784.957
42.155	14.334	1022.376	783.105
43.169	14.267	1021.681	782.189
44.184	14.289	1020.493	781.313
45.199	14.240	1019.447	780.212
46.213	14.090	1018.486	778.705
47.228	14.172	1017.542	778.298
48.242	14.452	1016.504	778.742
49.257	14.367	1016.114	777.978
50.271	14.478	1014.499	777.188
51.286	14.444	1013.838	776.459
52.301	14.525	1012.931	776.071
53.315	14.361	1012.135	774.632
54.330	14.436	1011.254	774.237
55.344	14.293	1010.539	772.954
56.359	14.273	1009.698	772.153
57.374	14.361	1008.604	771.654
58.388	14.341	1007.504	770.653
59.403	14.207	1006.976	769.560
60.417	14.157	1006.501	768.898
61.432	14.293	1005.148	768.425
62.447	14.336	1004.821	768.304
63.461	14.187	1003.929	766.867
64.476	14.145	1002.818	765.757
65.490	14.119	1001.927	764.890
66.505	14.135	1001.282	764.403
67.520	14.192	1000.648	764.115
68.534	14.210	999.406	763.181
69.549	14.184	999.313	762.924
70.563	14.251	997.992	762.154
71.578	14.124	997.516	761.139
72.593	14.112	996.424	760.186
73.607	14.108	995.426	759.340
74.622	13.969	994.671	758.062
75.636	14.198	993.882	758.435
76.651	14.047	993.294	757.235
77.666	14.113	992.147	756.591
78.680	14.058	991.452	755.747
79.695	14.027	991.264	755.395
80.709	14.000	991.031	755.027
81.724	14.169	989.646	754.673
82.739	14.146	989.338	754.264
83.753	14.262	988.308	753.940
84.768	14.343	987.496	753.619
85.782	14.497	986.255	753.304
86.797	14.615	985.813	753.429
87.812	14.523	985.072	752.381
88.826	14.608	983.920	751.817
89.841	14.498	983.503	750.938
90.855	14.581	982.629	750.578
91.870	14.634	981.783	750.104
92.884	14.562	981.265	749.318
93.899	14.586	980.619	748.868
94.914	14.538	979.854	748.002
95.928	14.642	979.148	747.860
96.943	14.648	978.464	747.299
97.957	14.628	977.372	746.311
98.972	14.455	977.180	745.323
99.987	14.541	976.444	745.081
101.001	14.634	975.007	744.334
102.016	14.631	974.196	743.634
103.030	14.707	973.107	743.077
104.045	14.632	972.499	742.211
105.060	14.722	971.303	741.634
106.074	14.536	970.875	740.417
107.089	14.359	970.253	739.089
108.103	14.173	969.214	737.409
109.118	14.279	968.104	736.968
110.133	14.092	967.764	735.815
111.147	14.217	966.726	735.517
112.162	14.315	965.551	734.987
113.176	14.172	964.791	733.713
114.191	14.339	964.126	733.882
115.206	14.273	963.160	732.791
116.220	14.316	962.497	732.411
117.235	14.286	961.669	731.584
118.249	14.288	960.572	730.692
119.264	14.192	960.176	729.907
120.279	14.266	958.976	729.253
121.293	14.199	958.160	728.276
122.308	14.138	957.396	727.361
123.322	14.122	956.808	726.779
124.337	14.134	955.874	726.059
125.352	14.282	954.263	725.415
126.366	14.219	953.698	724.651
127.381	14.215	952.545	723.691
128.395	14.035	951.770	722.254
129.410	14.102	950.784	721.737
130.424	14.211	949.740	721.351
131.439	14.225	949.018	720.802
132.454	14.173	948.672	720.248
133.468	14.317	947.672	720.049
134.483	14.369	946.858	719.591
135.497	14.317	946.200	718.800
136.512	14.435	945.300	718.564
137.527	14.363	944.755	717.773
138.541	14.245	943.872	716.533
139.556	14.441	942.824	716.515
140.570	14.346	942.321	715.665
141.585	14.489	941.902	715.895
142.600	14.541	941.319	715.611
143.614	14.664	940.116	715.160
144.629	14.789	939.015	714.793
145.643	14.667	938.659	713.938
146.658	14.550	938.166	712.999
147.673	14.404	937.363	711.703
148.687	14.415	935.986	710.642
149.702	14.474	935.239	710.263
150.716	14.345	934.492	709.084
151.731	14.470	933.578	708.858
152.746	14.454	933.106	708.369
153.760	14.325	932.457	707.266
154.775	14.441	931.839	707.228
155.789	14.586	930.533	706.788
156.804	14.525	930.443	706.400
157.819	14.528	929.623	705.730
158.833	14.641	928.643	705.399
159.848	14.767	928.418	705.699
160.862	14.761	927.496	704.907
161.877	14.679	926.755	703.940
162.892	14.578	926.032	702.902
163.906	14.495	924.904	701.632
164.921	14.305	924.443	700.421
165.935	14.494	923.536	700.466
166.950	14.468	922.668	699.638
167.964	14.596	921.252	699.037
168.979	14.506	920.820	698.271
169.994	14.489	919.536	697.164
171.008	14.523	918.979	696.821
172.023	14.651	918.000	696.554
173.037	14.672	917.103	695.900
174.052	14.755	916.594	695.798
175.067	14.710	915.858	694.990
176.081	14.703	915.139	694.351
177.096	14.525	914.249	692.879
178.110	14.421	913.391	691.732
179.125	14.570	912.712	691.775
180.140	14.590	911.842	691.139
181.154	14.482	911.200	690.144
182.169	14.652	910.429	690.203
183.183	14.684	910.315	690.187
184.198	14.907	909.490	690.423
185.213	14.760	908.886	689.293
186.227	14.853	907.941	688.901
187.242	14.817	907.893	688.653
188.256	15.008	906.981	688.686
189.271	14.938	906.546	688.009
190.286	15.012	905.912	687.772
191.300	14.904	904.969	686.549
192.315	14.647	903.906	684.631
193.329	14.483	903.180	683.346
194.344	14.617	902.986	683.690
195.359	14.717	901.989	683.282
196.373	14.678	901.795	682.915
197.388	14.691	901.443	682.642
198.402	15.069	900.569	683.465
199.417	15.222	899.834	683.467
200.432	15.318	899.741	683.727
201.446	15.089	899.702	682.705
202.461	15.221	899.492	683.023
203.475	15.192	898.654	682.210
204.490	15.371	897.653	682.117
205.504	15.028	896.794	680.010
206.519	15.111	896.020	679.702
207.534	14.986	895.507	678.744
208.548	14.956	894.797	678.023
209.563	15.135	894.033	678.112
210.577	15.110	893.052	677.205
211.592	15.157	892.684	677.053
212.607	15.132	892.333	676.629
213.621	15.272	892.115	676.968
214.636	15.173	891.196	675.813
215.650	15.244	889.866	675.030
216.665	15.266	889.801	675.008
217.680	15.256	889.370	674.581
218.694	15.404	888.898	674.759
219.709	15.318	888.606	674.131
220.723	15.354	888.030	673.781
221.738	15.286	886.945	672.625
222.753	15.253	886.206	671.873
223.767	15.312	885.396	671.434
224.782	15.408	884.779	671.294
225.796	15.347	884.128	670.495
226.811	15.477	883.147	670.213
227.826	15.530	882.414	669.806
228.840	15.357	882.326	668.989
229.855	15.472	881.425	668.707
230.869	15.463	880.585	667.976
231.884	15.238	880.447	666.915
232.899	15.343	879.565	666.604
233.913	15.385	878.807	666.140
234.928	15.137	878.615	664.950
235.942	15.197	877.743	664.469
236.957	15.264	876.784	663.948
237.972	15.280	876.307	663.593
238.986	15.284	875.342	662.818
240.001	15.281	874.695	662.260
241.015	15.302	874.228	661.931
242.030	15.274	873.951	661.550
243.045	15.475	873.314	661.801
244.059	15.509	872.251	661.073
245.074	15.370	872.121	660.366
246.088	15.384	871.207	659.673
247.103	15.609	870.550	660.001
248.117	15.513	870.431	659.476
249.132	15.786	869.515	659.796
250.147	15.674	869.408	659.214
251.161	15.830	868.186	658.841
252.176	16.028	867.723	659.206
253.190	15.915	867.468	658.514
254.205	15.890	866.721	657.790
255.220	15.966	866.339	657.739
256.234	16.120	865.366	657.540
257.249	16.091	864.734	656.892
258.263	16.068	864.558	656.608
259.278	16.047	863.893	655.963
260.293	16.017	863.181	655.246
261.307	16.093	862.608	655.051
262.322	16.137	862.267	654.903
263.336	16.023	861.767	654.025
264.351	16.217	860.801	653.986
265.366	16.164	860.042	653.145
266.380	16.231	859.457	652.901
267.395	16.221	859.182	652.597
268.409	16.192	857.981	651.515
269.424	16.238	857.181	651.026
270.439	16.116	856.771	650.187
271.453	16.140	856.064	649.685
272.468	16.143	855.236	649.014
273.482	16.053	854.769	648.256
274.497	16.082	854.169	647.854
275.512	16.069	853.730	647.415
276.526	16.145	852.798	646.941
277.541	16.085	852.149	646.161
278.555	16.093	851.744	645.827
279.570	16.334	851.001	646.131
280.585	16.421	850.409	645.954
281.599	16.485	849.592	645.523
282.614	16.171	849.653	644.310
283.628	16.195	849.160	643.974
284.643	16.208	848.491	643.456
285.657	16.318	847.457	643.037
286.672	16.276	846.909	642.405
287.687	16.396	846.327	642.363
288.701	16.417	846.203	642.289
289.716	16.204	845.750	641.080
290.730	16.304	845.395	641.134
291.745	16.385	844.607	640.787
292.760	16.324	844.131	640.138
293.774	16.534	843.292	640.239
294.789	16.448	842.940	639.591
295.803	16.496	842.125	639.098
296.818	16.396	841.490	638.181
297.833	16.286	841.030	637.359
298.847	16.502	840.522	637.733
299.862	16.450	839.374	636.609
300.876	16.439	838.796	636.075
301.891	16.380	838.566	635.621
302.906	16.534	837.802	635.567
303.920	16.642	837.145	635.417
304.935	16.524	836.717	634.593
305.949	16.871	835.886	635.206
306.964	16.834	835.392	634.636
307.979	16.712	834.643	633.556
308.993	16.667	834.367	633.121
310.008	16.725	833.624	632.717
311.022	16.930	833.000	632.953
312.037	16.811	833.048	632.491
313.052	16.683	832.647	631.653
314.066	16.701	831.240	630.597
315.081	16.655	830.765	630.010
316.095	16.726	830.350	629.902
317.110	16.566	829.869	628.886
318.125	16.758	828.961	628.856
319.139	16.557	828.937	628.036
320.154	16.599	828.438	627.757
321.168	16.787	827.659	627.808
322.183	16.680	827.212	627.016
323.197	16.821	826.698	627.095
324.212	16.817	825.938	626.450
325.227	16.726	825.847	625.986
326.241	16.799	824.935	625.511
327.256	16.783	824.638	625.169
328.270	16.740	824.082	624.534
329.285	16.772	823.531	624.178
330.300	16.789	823.054	623.826
331.314	16.637	822.700	622.943
332.329	16.688	821.439	622.119
333.343	16.808	820.723	621.965
334.358	16.890	820.553	622.080
335.373	16.944	819.845	621.688
336.387	16.898	819.629	621.299
337.402	17.022	819.135	621.323
338.416	17.147	818.205	621.019
339.431	17.163	817.892	620.787
340.446	17.185	817.387	620.429
341.460	17.135	816.746	619.704
342.475	17.230	816.341	619.690
343.489	17.333	815.624	619.467
344.504	17.318	815.378	619.169
345.519	17.359	814.597	618.672
346.533	17.348	814.169	618.249
347.548	17.411	813.623	618.009
348.562	17.156	813.333	616.809
349.577	17.127	812.750	616.208
350.592	17.247	811.805	615.871
351.606	17.150	811.857	615.504
352.621	17.077	811.345	614.798
353.635	17.174	810.780	614.668
354.650	17.296	810.383	614.753
355.665	17.165	810.054	613.974
356.679	17.234	809.491	613.741
357.694	17.261	809.180	613.548
358.708	17.198	808.565	612.801
359.723	17.198	807.931	612.266
360.738	17.481	807.602	612.982
361.752	17.341	807.109	612.050
362.767	17.329	806.387	611.405
363.781	17.374	806.262	611.418
364.796	17.531	805.843	611.612
365.810	17.637	805.062	611.344
366.825	17.620	804.990	611.176
367.840	17.590	804.747	610.830
368.854	17.617	804.126	610.398
369.869	17.625	803.887	610.192
370.883	17.648	803.113	609.633
371.898	17.582	802.409	608.808
372.913	17.680	801.777	608.626
373.927	17.677	801.322	608.217
374.942	17.820	800.560	608.094
375.956	17.617	800.139	606.997
376.971	17.705	799.458	606.741
377.986	17.649	799.466	606.491
379.000	18.020	798.442	606.981
380.015	17.970	797.863	606.310
381.029	17.859	797.721	605.755
382.044	17.913	796.840	605.221
383.059	17.843	796.626	604.760
384.073	17.859	796.136	604.391
385.088	17.904	795.506	604.016
386.102	17.834	794.826	603.200
387.117	17.725	794.645	602.624
388.132	17.680	793.909	601.855
389.146	17.767	793.451	601.760
390.161	17.774	793.110	601.472
391.175	17.772	793.018	601.342
392.190	17.959	792.593	601.625
393.205	17.927	791.780	600.842
394.219	17.947	791.397	600.571
395.234	17.865	790.799	599.775
396.248	17.820	790.135	599.060
397.263	17.769	789.557	598.391
398.278	17.818	789.422	598.408
399.292	17.763	788.903	597.768
400.307	17.720	788.956	597.606
401.321	17.719	788.376	597.108
402.336	17.833	788.045	597.205
403.350	17.657	787.645	596.232
404.365	17.901	786.968	596.519
405.380	17.928	786.657	596.326
406.394	18.027	785.852	596.007
407.409	18.022	786.101	596.125
408.423	18.283	785.010	596.156
409.438	18.144	785.016	595.623
410.453	18.142	784.598	595.246
411.467	18.261	784.139	595.260
412.482	18.367	783.515	595.101
413.496	18.333	783.149	594.653
414.511	18.408	782.965	594.719
415.526	18.281	782.876	594.159
416.540	18.270	782.211	593.565
417.555	18.311	781.551	593.154
418.569	18.582	781.001	593.621
419.584	18.228	781.009	592.348
420.599	18.293	780.212	591.917
421.613	156.012	1369.545	1794.217
422.628	134.614	1455.426	1794.316
