DTS Sentinel unit serial number:	SN413079Multiplexer serial number:	ORYXHardware model number:	OX4-SRSoftware version number:	ORYX F/W v4.00 Oryx Data Collector v3.7.2.0data status	okinstallation	princeton_trtdifferential loss correction	single-endedforward channel	channel 3reverse channel	N/Adate	2019/09/13time	18:28:35forward acquisition time	60.00reverse acquisition time	0.00gamma	496.2192k internal	0.2315k external	0.2315temperature offset calibration	1.0115default loss term (dB/km)	0.3790temperature slope calibration	1.0000multiplexer offset coefficient	1.0000multiplexer slope coefficient	1.0000fibre end	0.00T internal ref (°C)	33.48T ext. ref 1 (°C)	4.28T ext. ref 2 (°C)	26.46length (m)	temperature (°C)	Stokes	anti-Stokes-747.200	-200.000	-0.090	0.428
-746.185	315.503	0.045	0.085
-745.171	378.882	0.101	0.209
-744.156	-107.781	0.022	0.005
-743.142	76.842	0.241	-0.260
-742.127	-127.181	0.156	-0.023
-741.112	-41.474	-0.197	0.103
-740.098	68.624	-0.113	0.118
-739.083	734.610	0.148	0.402
-738.069	-57.748	-0.696	0.309
-737.054	-200.000	-0.060	-0.294
-736.039	72.810	0.264	0.279
-735.025	-51.906	0.154	0.072
-734.010	-117.646	0.163	0.030
-732.996	-8.305	-0.227	-0.155
-731.981	-96.319	0.109	0.029
-730.966	180.706	-0.155	-0.230
-729.952	-200.000	0.008	-0.128
-728.937	96.408	-0.101	0.117
-727.923	-44.328	0.345	0.175
-726.908	16.537	-0.180	-0.144
-725.894	-107.741	-0.206	0.045
-724.879	6.441	0.086	-0.065
-723.864	-120.060	-0.284	0.049
-722.850	54.757	0.256	0.250
-721.835	-200.000	-0.005	0.417
-720.821	163.662	-0.038	0.054
-719.806	-12.919	0.239	0.157
-718.791	-140.507	-0.203	-0.021
-717.777	-106.430	0.462	0.104
-716.762	-106.492	0.331	0.075
-715.748	424.406	0.071	0.155
-714.733	-86.270	-0.449	0.140
-713.718	180.635	-0.307	-0.456
-712.704	800.000	0.098	-0.282
-711.689	-36.673	-0.216	0.118
-710.675	-18.442	-0.099	-0.063
-709.660	320.698	-0.080	-0.154
-708.645	-7.576	0.260	-0.178
-707.631	123.668	0.052	0.065
-706.616	193.660	0.127	0.194
-705.602	37.346	0.136	-0.122
-704.587	800.000	-0.035	-0.099
-703.572	-34.259	0.151	0.084
-702.558	134.623	0.045	-0.059
-701.543	-33.332	0.188	-0.105
-700.529	16.777	0.091	0.072
-699.514	-128.091	0.557	-0.081
-698.499	-133.477	-0.335	0.042
-697.485	-200.000	-0.035	0.195
-696.470	-159.735	0.216	0.012
-695.456	-2.752	-0.323	-0.228
-694.441	-11.448	-0.090	-0.060
-693.426	179.705	0.132	-0.196
-692.412	-200.000	0.015	-0.275
-691.397	-61.412	0.193	0.082
-690.383	-84.062	0.152	-0.049
-689.368	-68.914	0.188	-0.073
-688.354	800.000	-0.069	-0.234
-687.339	-85.148	0.129	-0.041
-686.324	-67.849	-0.354	-0.140
-685.310	135.089	-0.262	0.344
-684.295	-73.649	-0.393	-0.145
-683.281	118.987	0.062	-0.077
-682.266	-4.939	-0.252	-0.175
-681.251	539.457	-0.128	-0.308
-680.237	27.607	0.139	0.118
-679.222	-82.076	-0.146	0.048
-678.208	22.421	0.151	0.125
-677.193	-200.000	-0.008	0.220
-676.178	-57.259	-0.290	-0.129
-675.164	800.000	0.110	0.358
-674.149	-200.000	0.013	0.063
-673.135	-78.912	0.304	0.105
-672.120	-22.217	-0.311	0.191
-671.105	-16.236	-0.296	-0.190
-670.091	-72.589	-0.327	-0.122
-669.076	-200.000	-0.032	-0.418
-668.062	800.000	0.038	-0.133
-667.047	-200.000	-0.031	0.190
-666.032	800.000	-0.107	-0.315
-665.018	-134.407	-0.144	0.018
-664.003	78.981	-0.184	-0.200
-662.989	-79.009	0.096	-0.033
-661.974	357.827	0.104	-0.210
-660.959	2.447	-0.273	-0.200
-659.945	322.050	0.146	-0.280
-658.930	800.000	0.081	0.312
-657.916	-51.133	0.181	0.086
-656.901	-200.000	0.022	-0.220
-655.886	349.887	0.054	-0.107
-654.872	800.000	0.027	0.094
-653.857	800.000	0.064	0.198
-652.843	373.757	0.061	0.125
-651.828	143.224	-0.138	-0.186
-650.814	-141.470	-0.483	-0.049
-649.799	134.332	-0.082	0.107
-648.784	-98.737	-0.162	-0.042
-647.770	91.280	-0.122	-0.138
-646.755	116.603	-0.191	0.236
-645.741	-144.107	-0.207	0.020
-644.726	-114.149	-0.129	0.025
-643.711	-98.511	0.251	-0.065
-642.697	175.778	-0.135	0.198
-641.682	101.842	0.159	-0.187
-640.668	121.453	-0.030	-0.038
-639.653	-83.968	0.098	0.031
-638.638	369.439	0.026	0.053
-637.624	445.639	0.172	-0.382
-636.609	54.793	-0.203	-0.198
-635.595	-38.547	0.178	-0.095
-634.580	-37.241	0.340	-0.184
-633.565	34.103	-0.271	0.239
-632.551	4.077	0.237	-0.175
-631.536	-200.000	-0.013	-0.152
-630.522	-200.000	-0.009	0.219
-629.507	587.926	0.083	0.207
-628.492	-145.876	-0.108	-0.010
-627.478	-38.353	0.188	0.101
-626.463	497.299	-0.014	-0.032
-625.449	-115.882	-0.175	-0.033
-624.434	-83.281	0.227	-0.074
-623.419	20.455	-0.195	-0.159
-622.405	90.998	-0.139	0.158
-621.390	-61.350	-0.298	0.127
-620.376	425.277	-0.076	0.166
-619.361	-83.567	-0.266	0.086
-618.346	340.847	-0.236	-0.466
-617.332	-90.109	-0.044	0.013
-616.317	657.215	-0.085	0.219
-615.303	-200.000	-0.033	0.186
-614.288	52.365	-0.101	-0.097
-613.273	-200.000	0.058	-0.356
-612.259	119.712	-0.162	-0.203
-611.244	16.133	-0.086	-0.068
-610.230	-123.768	0.142	0.023
-609.215	66.836	-0.078	0.080
-608.201	-147.074	0.177	-0.015
-607.186	-200.000	-0.045	0.247
-606.171	-60.766	-0.225	0.096
-605.157	24.086	0.223	-0.185
-604.142	77.096	-0.260	-0.278
-603.128	-200.000	-0.020	-0.117
-602.113	25.692	0.106	0.089
-601.098	-46.683	-0.090	-0.044
-600.084	-200.000	0.006	-0.274
-599.069	220.834	-0.030	0.049
-598.055	-146.291	0.259	-0.023
-597.040	-200.000	-0.001	0.203
-596.025	20.446	0.108	0.088
-595.011	26.231	-0.160	0.134
-593.996	-91.519	-0.312	0.090
-592.982	-5.088	-0.066	0.046
-591.967	-174.894	0.215	-0.006
-590.952	-5.258	-0.069	-0.048
-589.938	693.564	-0.117	-0.308
-588.923	-200.000	-0.033	-0.340
-587.909	-123.300	0.084	0.014
-586.894	115.839	-0.098	-0.121
-585.879	-200.000	0.024	0.181
-584.865	-114.738	0.187	-0.036
-583.850	393.434	0.062	0.131
-582.836	-111.931	-0.096	0.019
-581.821	44.220	-0.301	0.278
-580.806	153.374	0.051	-0.070
-579.792	-82.609	-0.056	0.018
-578.777	-84.464	0.163	-0.052
-577.763	-179.930	-0.324	0.007
-576.748	-200.000	0.009	-0.163
-575.733	800.000	-0.058	-0.190
-574.719	-137.563	-0.090	-0.010
-573.704	800.000	-0.055	0.165
-572.690	-54.478	-0.054	0.025
-571.675	338.378	0.027	-0.054
-570.661	139.434	-0.289	0.383
-569.646	-200.000	0.003	-0.024
-568.631	297.330	-0.106	-0.197
-567.617	143.535	0.068	0.091
-566.602	800.000	0.067	0.187
-565.588	211.341	0.172	-0.272
-564.573	200.561	0.141	0.218
-563.558	-136.289	0.206	-0.024
-562.544	176.820	0.086	0.125
-561.529	100.484	0.157	0.183
-560.515	198.509	0.060	0.093
-559.500	92.631	0.090	0.102
-558.485	800.000	-0.090	0.258
-557.471	-200.000	0.016	0.189
-556.456	437.449	0.099	-0.217
-555.442	-87.440	0.154	-0.047
-554.427	-77.362	-0.290	-0.101
-553.412	-96.433	0.058	0.015
-552.398	-53.423	0.214	0.099
-551.383	-82.504	-0.192	-0.063
-550.369	800.000	0.039	-0.165
-549.354	-115.790	-0.284	-0.053
-548.339	-84.288	0.144	0.046
-547.325	519.658	0.161	-0.380
-546.310	367.754	0.138	-0.280
-545.296	47.381	-0.323	-0.302
-544.281	-124.718	-0.253	0.039
-543.266	-200.000	-0.045	-0.351
-542.252	-43.705	0.094	0.048
-541.237	-160.924	0.418	0.022
-540.223	800.000	0.037	-0.139
-539.208	74.510	0.020	-0.021
-538.193	-200.000	0.004	-0.248
-537.179	247.587	-0.031	-0.053
-536.164	-156.014	-0.079	-0.005
-535.150	-74.831	-0.107	0.038
-534.135	-200.000	0.097	-0.431
-533.121	147.183	-0.074	-0.100
-532.106	476.390	0.090	-0.205
-531.091	84.110	0.047	0.051
-530.077	-154.329	-0.123	0.008
-529.062	-200.000	0.002	-0.412
-528.048	-6.397	-0.288	0.197
-527.033	-200.000	0.030	0.283
-526.018	5.851	0.260	0.193
-525.004	-200.000	-0.011	0.235
-523.989	-41.750	-0.120	-0.062
-522.975	-200.000	-0.025	-0.158
-521.960	-114.668	0.347	-0.067
-520.945	-200.000	-0.020	-0.258
-519.931	800.000	-0.007	0.031
-518.916	-22.378	-0.385	-0.234
-517.902	-106.860	-0.181	-0.040
-516.887	-30.637	0.072	-0.041
-515.872	-45.327	-0.330	-0.165
-514.858	-129.027	-0.137	0.019
-513.843	-154.201	0.315	-0.021
-512.829	-153.780	-0.287	-0.020
-511.814	-67.298	0.211	-0.083
-510.799	-37.905	-0.158	0.084
-509.785	30.973	-0.183	0.157
-508.770	130.670	-0.116	0.150
-507.756	407.044	0.091	-0.193
-506.741	-10.927	-0.204	-0.135
-505.726	-182.915	-0.274	0.005
-504.712	-64.678	0.325	0.132
-503.697	-63.825	0.508	-0.209
-502.683	74.104	-0.249	0.262
-501.668	167.071	0.090	0.128
-500.653	800.000	0.020	-0.062
-499.639	-60.954	-0.101	-0.043
-498.624	-38.300	-0.047	-0.025
-497.610	-23.808	0.193	0.116
-496.595	-142.098	-0.170	0.017
-495.581	-200.000	0.048	-0.270
-494.566	329.697	-0.117	0.226
-493.551	77.366	-0.159	-0.170
-492.537	-106.189	0.123	-0.028
-491.522	-26.552	-0.183	-0.107
-490.508	74.514	0.142	-0.150
-489.493	-82.009	-0.260	-0.085
-488.478	-164.228	0.312	-0.014
-487.464	-155.976	-0.161	-0.010
-486.449	711.762	-0.073	-0.193
-485.435	-78.736	0.368	-0.126
-484.420	409.487	0.138	0.294
-483.405	8.929	0.012	-0.009
-482.391	800.000	0.122	-0.350
-481.376	436.663	0.024	-0.053
-480.362	-64.163	-0.413	0.169
-479.347	725.025	0.236	0.631
-478.332	29.425	0.085	-0.072
-477.318	592.284	0.117	0.290
-476.303	88.964	0.061	0.068
-475.289	-200.000	-0.031	0.401
-474.274	800.000	0.076	-0.311
-473.259	-200.000	-0.007	-0.195
-472.245	-118.463	0.091	0.016
-471.230	800.000	-0.107	-0.395
-470.216	-49.227	0.260	0.125
-469.201	264.368	0.035	0.060
-468.186	-200.000	-0.057	0.362
-467.172	-194.805	-0.308	0.002
-466.157	15.986	0.149	0.118
-465.143	226.553	-0.205	-0.334
-464.128	-188.520	-0.286	-0.004
-463.113	-5.864	0.213	0.146
-462.099	39.044	-0.115	-0.104
-461.084	252.064	-0.033	0.056
-460.070	67.883	-0.274	0.281
-459.055	109.620	0.110	0.132
-458.040	-14.223	0.086	0.055
-457.026	-163.527	-0.126	0.006
-456.011	800.000	-0.062	0.181
-454.997	31.324	0.129	-0.111
-453.982	268.249	0.127	0.223
-452.968	52.864	-0.194	-0.186
-451.953	130.964	-0.216	0.277
-450.938	-61.966	-0.231	0.097
-449.924	-166.943	0.181	0.007
-448.909	-92.266	0.256	0.072
-447.895	-94.616	-0.033	0.009
-446.880	742.147	0.013	-0.035
-445.865	-39.193	0.174	-0.092
-444.851	255.853	0.078	0.134
-443.836	95.846	0.273	-0.313
-442.822	800.000	0.007	0.023
-441.807	31.314	0.223	-0.192
-440.792	587.346	-0.058	-0.142
-439.778	497.124	0.032	0.074
-438.763	800.000	-0.040	0.157
-437.749	-36.809	0.167	0.090
-436.734	-58.588	0.200	-0.087
-435.719	24.966	0.283	-0.235
-434.705	445.525	-0.104	-0.229
-433.690	-200.000	0.003	0.150
-432.676	21.397	-0.224	0.183
-431.661	-98.782	0.097	0.025
-430.646	-107.156	-0.212	-0.047
-429.632	-200.000	-0.059	0.441
-428.617	-200.000	-0.028	0.161
-427.603	17.351	0.172	0.137
-426.588	607.109	0.074	-0.184
-425.573	67.485	0.195	-0.199
-424.559	111.785	-0.011	0.013
-423.544	-123.394	0.152	0.024
-422.530	145.558	0.011	0.015
-421.515	-38.168	-0.174	0.093
-420.500	217.387	0.074	-0.118
-419.486	9.397	-0.356	0.270
-418.471	2.706	-0.201	-0.146
-417.457	-200.000	-0.028	-0.191
-416.442	128.330	0.191	0.243
-415.428	-66.782	-0.259	-0.102
-414.413	3.293	-0.090	-0.065
-413.398	549.914	0.023	-0.055
-412.384	-191.051	-0.169	-0.002
-411.369	42.450	-0.222	0.202
-410.355	-120.240	0.218	0.037
-409.340	-21.941	0.327	-0.199
-408.325	-200.000	0.004	-0.077
-407.311	98.686	0.069	-0.080
-406.296	40.853	0.380	-0.343
-405.282	-146.828	-0.127	0.011
-404.267	-200.000	0.044	-0.293
-403.252	241.721	-0.083	-0.139
-402.238	371.215	-0.146	-0.296
-401.223	-160.511	-0.408	0.022
-400.209	-41.315	0.110	0.056
-399.194	-200.000	-0.011	0.214
-398.179	-22.793	0.371	-0.224
-397.165	-200.000	-0.020	0.088
-396.150	538.570	-0.098	-0.234
-395.136	74.665	-0.038	-0.040
-394.121	386.698	-0.056	0.116
-393.106	158.339	-0.238	-0.330
-392.092	225.888	0.171	0.277
-391.077	-55.940	0.380	0.169
-390.063	32.206	0.188	-0.162
-389.048	37.885	0.191	0.169
-388.033	-17.614	0.045	0.028
-387.019	-139.482	0.065	0.007
-386.004	-65.633	0.242	0.097
-384.990	-125.346	-0.054	-0.008
-383.975	-200.000	-0.011	-0.066
-382.960	800.000	-0.163	0.509
-381.946	-200.000	0.081	-0.425
-380.931	-200.000	-0.076	0.389
-379.917	479.017	-0.071	-0.160
-378.902	800.000	-0.013	-0.039
-377.888	95.473	-0.044	0.050
-376.873	310.298	-0.275	0.515
-375.858	178.830	-0.129	-0.189
-374.844	475.479	0.091	0.205
-373.829	31.243	0.183	-0.157
-372.815	-200.000	0.032	0.286
-371.800	567.392	0.078	0.189
-370.785	190.180	-0.069	-0.104
-369.771	800.000	0.016	0.060
-368.756	-63.117	0.248	0.102
-367.742	-84.908	-0.109	0.034
-366.727	89.846	0.082	-0.092
-365.712	-99.545	-0.194	0.049
-364.698	-80.383	0.217	0.072
-363.683	257.842	0.146	-0.251
-362.669	-76.644	-0.226	0.079
-361.654	233.468	-0.139	0.229
-360.639	128.963	-0.093	0.118
-359.625	-42.386	-0.035	-0.018
-358.610	800.000	0.106	0.391
-357.596	-80.357	0.210	0.070
-356.581	-29.706	0.109	-0.062
-355.566	295.706	0.009	0.016
-354.552	-16.000	0.154	0.098
-353.537	-200.000	0.033	0.160
-352.523	-63.732	-0.047	0.019
-351.508	-39.537	-0.166	0.087
-350.493	-200.000	0.045	-0.276
-349.479	176.686	0.136	0.198
-348.464	800.000	0.044	-0.145
-347.450	691.411	0.079	0.207
-346.435	-200.000	-0.010	-0.074
-345.420	-200.000	-0.020	-0.223
-344.406	106.205	0.050	0.060
-343.391	800.000	0.062	0.191
-342.377	-200.000	-0.036	-0.162
-341.362	81.904	0.114	-0.124
-340.348	-43.186	-0.089	-0.045
-339.333	-161.149	-0.263	0.014
-338.318	-45.173	0.146	0.072
-337.304	408.294	-0.078	0.164
-336.289	800.000	0.031	0.099
-335.275	202.042	-0.104	-0.161
-334.260	800.000	0.038	-0.162
-333.245	-101.093	0.081	-0.020
-332.231	800.000	0.007	-0.023
-331.216	-24.353	-0.087	-0.052
-330.202	800.000	0.067	0.256
-329.187	-200.000	-0.037	-0.318
-328.172	-200.000	0.040	-0.277
-327.158	158.924	-0.268	0.372
-326.143	-4.212	-0.212	-0.147
-325.129	-200.000	-0.010	-0.208
-324.114	91.364	-0.168	0.188
-323.099	152.541	0.244	0.332
-322.085	-78.014	0.408	-0.140
-321.070	19.032	0.070	-0.056
-320.056	44.801	0.087	0.079
-319.041	-113.344	-0.347	0.068
-318.026	800.000	-0.122	-0.497
-317.012	13.425	-0.045	0.034
-315.997	613.932	-0.055	0.138
-314.983	692.255	0.080	-0.208
-313.968	499.886	-0.006	0.014
-312.953	-200.000	0.008	0.089
-311.939	173.713	-0.167	0.240
-310.924	-200.000	-0.020	0.168
-309.910	-126.452	-0.227	0.034
-308.895	-152.846	-0.255	0.018
-307.880	-200.000	-0.045	-0.252
-306.866	14.209	0.289	0.224
-305.851	-112.649	0.392	0.078
-304.837	-200.000	0.004	0.236
-303.822	101.358	-0.032	-0.037
-302.807	-115.895	-0.109	0.020
-301.793	-137.701	0.356	0.040
-300.778	-200.000	0.156	0.000
-299.764	378.393	-0.120	-0.244
-298.749	-125.607	-0.349	0.053
-297.735	-110.591	-0.344	-0.071
-296.720	14.944	0.144	0.112
-295.705	583.917	0.036	-0.088
-294.691	-38.786	-0.410	0.215
-293.676	-126.411	0.266	0.039
-292.662	-32.771	0.260	-0.144
-291.647	-23.471	-0.137	0.082
-290.632	25.976	-0.247	-0.205
-289.618	-7.440	0.130	0.088
-288.603	800.000	-0.103	0.298
-287.589	-200.000	0.001	-0.421
-286.574	-7.819	-0.151	0.101
-285.559	125.651	-0.065	0.082
-284.545	137.098	-0.182	0.237
-283.530	-125.477	-0.249	0.038
-282.516	23.883	0.036	0.030
-281.501	-200.000	0.093	-0.465
-280.486	-200.000	0.010	0.191
-279.472	-35.631	0.104	-0.056
-278.457	32.603	0.203	0.175
-277.443	-37.670	0.150	-0.079
-276.428	154.220	-0.073	-0.100
-275.413	-200.000	0.011	0.105
-274.399	-200.000	0.021	-0.189
-273.384	531.845	0.068	0.161
-272.370	-200.000	0.042	-0.276
-271.355	390.616	0.098	-0.203
-270.340	-42.320	-0.116	-0.059
-269.326	272.818	-0.208	0.366
-268.311	-155.447	-0.173	-0.011
-267.297	-73.746	-0.070	-0.025
-266.282	-200.000	-0.015	0.315
-265.267	79.970	0.019	0.020
-264.253	449.733	0.087	0.191
-263.238	-92.136	0.496	-0.139
-262.224	-137.346	-0.147	-0.017
-261.209	148.496	-0.099	0.133
-260.195	-123.898	-0.063	-0.010
-259.180	-65.910	0.184	-0.073
-258.165	134.198	0.164	0.211
-257.151	49.542	0.182	-0.170
-256.136	15.764	0.123	0.096
-255.122	115.834	-0.108	0.131
-254.107	800.000	-0.105	-0.340
-253.092	-19.928	0.261	0.160
-252.078	-105.663	0.314	-0.071
-251.063	40.373	0.287	-0.257
-250.049	-26.643	-0.245	0.142
-249.034	617.180	0.044	-0.110
-248.019	-170.987	0.312	0.011
-247.005	118.717	-0.251	0.308
-245.990	140.379	0.061	-0.079
-244.976	-200.000	-0.012	0.129
-243.961	5.813	0.166	-0.122
-242.946	98.817	-0.220	-0.253
-241.932	-200.000	0.013	0.257
-240.917	800.000	0.033	0.108
-239.903	800.000	-0.043	-0.175
-238.888	22.806	0.132	-0.108
-237.873	-23.815	0.348	-0.207
-236.859	462.572	-0.092	-0.205
-235.844	-200.000	-0.070	-0.374
-234.830	79.199	0.101	-0.107
-233.815	160.957	-0.159	0.220
-232.800	-200.000	0.031	-0.250
-231.786	-122.696	-0.294	-0.047
-230.771	-100.930	-0.043	0.010
-229.757	800.000	0.127	0.352
-228.742	90.816	0.255	0.284
-227.727	800.000	-0.075	-0.246
-226.713	384.424	-0.117	-0.240
-225.698	289.395	0.066	-0.119
-224.684	800.000	-0.066	0.231
-223.669	99.893	0.056	0.064
-222.655	-153.785	0.297	-0.020
-221.640	-10.181	-0.169	-0.111
-220.625	-113.864	-0.374	-0.072
-219.611	-200.000	0.017	0.534
-218.596	-95.727	-0.058	0.015
-217.582	-85.038	0.174	0.054
-216.567	360.563	0.169	-0.336
-215.552	-200.000	-0.014	0.184
-214.538	-115.454	-0.268	0.050
-213.523	101.812	-0.170	-0.196
-212.509	-200.000	0.033	-0.164
-211.494	13.818	-0.138	-0.106
-210.479	-166.413	0.107	-0.004
-209.465	415.795	0.116	0.245
-208.450	39.253	-0.226	0.200
-207.436	179.530	-0.151	0.220
-206.421	93.568	0.284	0.319
-205.406	85.446	0.065	-0.071
-204.392	-200.000	-0.018	-0.277
-203.377	164.364	0.085	-0.119
-202.363	-21.673	0.097	-0.059
-201.348	-153.671	-0.056	-0.004
-200.333	155.361	-0.129	-0.176
-199.319	-9.101	-0.071	-0.047
-198.304	-106.563	-0.228	0.050
-197.290	126.194	0.064	0.080
-196.275	-200.000	0.020	-0.178
-195.260	-9.798	-0.065	0.043
-194.246	-10.417	0.180	-0.119
-193.231	151.896	0.074	0.101
-192.217	251.163	0.134	-0.227
-191.202	-200.000	0.047	-0.272
-190.187	800.000	-0.075	-0.316
-189.173	-200.000	-0.060	-0.300
-188.158	198.798	-0.111	0.169
-187.144	131.004	0.035	-0.045
-186.129	-200.000	0.024	0.209
-185.114	-52.813	-0.236	-0.108
-184.100	86.420	0.169	-0.185
-183.085	800.000	-0.128	0.476
-182.071	-200.000	-0.002	0.448
-181.056	161.974	0.085	0.119
-180.042	533.520	0.037	0.088
-179.027	756.547	0.073	0.196
-178.012	-68.890	0.180	-0.069
-176.998	-22.276	0.162	-0.097
-175.983	158.315	-0.090	-0.124
-174.969	800.000	-0.077	0.303
-173.954	-4.613	0.184	-0.126
-172.939	92.713	-0.059	-0.067
-171.925	232.745	-0.075	0.122
-170.910	80.737	0.228	-0.244
-169.896	-200.000	-0.020	0.443
-168.881	-155.015	0.171	0.011
-167.866	-96.460	-0.148	0.039
-166.852	-56.856	0.311	0.136
-165.837	254.733	0.174	0.294
-164.823	-29.627	0.139	0.079
-163.808	-71.224	-0.062	0.023
-162.793	-84.771	0.281	0.087
-161.779	345.486	-0.184	-0.359
-160.764	800.000	0.009	0.033
-159.750	57.126	-0.118	0.114
-158.735	186.730	0.063	0.093
-157.720	-200.000	-0.005	-0.101
-156.706	64.107	-0.049	0.049
-155.691	800.000	0.041	0.123
-154.677	-200.000	0.012	0.109
-153.662	698.368	-0.053	0.138
-152.647	800.000	-0.075	0.253
-151.633	-200.000	-0.047	-0.210
-150.618	-25.174	0.072	0.042
-149.604	-200.000	-0.031	0.294
-148.589	-60.833	-0.424	0.178
-147.574	432.407	0.101	-0.218
-146.560	-200.000	-0.028	0.373
-145.545	-161.708	-0.123	0.006
-144.531	-110.579	-0.057	0.012
-143.516	59.615	0.040	0.039
-142.502	-71.576	0.051	0.019
-141.487	-67.471	-0.492	-0.191
-140.472	50.816	0.183	-0.171
-139.458	-117.780	-0.338	-0.060
-138.443	332.100	-0.061	-0.116
-137.429	83.888	0.151	-0.163
-136.414	-31.433	-0.191	0.106
-135.399	233.032	-0.095	-0.154
-134.385	-40.484	-0.141	-0.072
-133.370	-200.000	-0.003	-0.201
-132.356	-76.645	0.068	0.023
-131.341	317.389	0.027	-0.051
-130.326	-200.000	-0.030	-0.159
-129.312	800.000	-0.081	0.259
-128.297	40.969	-0.145	0.129
-127.283	136.610	0.208	-0.268
-126.268	-30.155	-0.153	-0.086
-125.253	9.817	0.162	-0.122
-124.239	25.481	0.302	-0.249
-123.224	707.054	0.028	-0.074
-122.210	-100.213	-0.162	-0.040
-121.195	-200.000	0.060	-0.311
-120.180	-52.925	0.540	-0.246
-119.166	526.655	-0.056	0.130
-118.151	5.021	0.190	0.138
-117.137	-78.387	0.186	0.063
-116.122	-4.947	0.174	-0.118
-115.107	237.001	0.141	-0.231
-114.093	52.048	-0.083	-0.078
-113.078	-98.996	-0.342	-0.086
-112.064	38.399	0.210	-0.185
-111.049	800.000	0.093	-0.376
-110.034	-95.099	0.245	-0.065
-109.020	800.000	-0.067	-0.210
-108.005	-157.611	-0.070	-0.004
-106.991	-90.613	0.196	-0.056
-105.976	-200.000	0.002	-0.306
-104.962	-149.687	0.284	0.022
-103.947	-137.930	-0.307	-0.034
-102.932	800.000	-0.044	-0.170
-101.918	12.904	0.113	-0.087
-100.903	-45.794	0.210	-0.103
-99.889	17.827	0.201	-0.158
-98.874	-200.000	0.035	-0.157
-97.859	65.601	0.089	0.089
-96.845	-200.000	-0.032	-0.180
-95.830	-78.084	0.223	-0.076
-94.816	-197.143	-0.164	0.001
-93.801	-43.921	0.194	-0.097
-92.786	406.605	0.071	-0.149
-91.772	272.397	-0.176	-0.306
-90.757	800.000	-0.041	-0.174
-89.743	6.906	-0.179	-0.131
-88.728	-37.698	-0.359	0.189
-87.713	-200.000	-0.031	-0.159
-86.699	-153.761	-0.162	-0.011
-85.684	-17.611	-0.090	0.056
-84.670	800.000	0.092	0.309
-83.655	800.000	0.067	0.232
-82.640	-4.705	-0.078	0.053
-81.626	-74.461	-0.337	-0.120
-80.611	-200.000	-0.015	0.274
-79.597	-28.516	-0.069	-0.039
-78.582	146.515	-0.043	0.057
-77.567	37.212	0.175	-0.153
-76.553	642.692	-0.112	-0.282
-75.538	150.582	0.079	-0.106
-74.524	-200.000	0.046	-0.380
-73.509	-120.966	0.407	-0.068
-72.494	-143.113	-0.270	-0.026
-71.480	-111.066	0.218	-0.044
-70.465	-94.329	-0.219	-0.059
-69.451	238.393	0.101	0.165
-68.436	-54.173	0.200	-0.090
-67.422	244.249	0.098	0.163
-66.407	-200.000	-0.030	0.144
-65.392	-200.000	0.004	0.267
-64.378	-123.971	0.176	0.027
-63.363	-74.727	-0.156	0.055
-62.349	-172.909	0.107	-0.003
-61.334	24.601	-0.947	-0.774
-60.319	-22.547	0.336	0.201
-59.305	800.000	-0.256	-0.888
-58.290	273.112	0.579	1.010
-57.276	652.506	0.631	1.595
-56.261	-200.000	95.742	568.595
-55.246	632.732	1383.949	3459.415
-54.232	195.482	2561.454	3840.491
-53.217	118.152	2169.826	2638.945
-52.203	43.949	1714.533	1549.733
-51.188	36.630	1527.857	1330.821
-50.173	34.320	1500.680	1291.464
-49.159	53.041	1548.780	1462.154
-48.144	55.025	1567.151	1493.108
-47.130	36.903	1526.516	1331.322
-46.115	33.679	1512.548	1297.086
-45.100	33.635	1508.743	1293.474
-44.086	33.576	1506.900	1291.439
-43.071	33.440	1505.385	1289.162
-42.057	33.547	1503.702	1288.400
-41.042	33.547	1502.010	1286.902
-40.027	33.498	1500.491	1285.217
-39.013	33.569	1499.049	1284.411
-37.998	33.439	1497.933	1282.520
-36.984	33.501	1496.717	1281.850
-35.969	33.490	1495.451	1280.639
-34.954	33.523	1494.164	1279.710
-33.940	33.496	1492.782	1278.290
-32.925	33.533	1491.078	1277.034
-31.911	33.554	1490.077	1276.265
-30.896	33.548	1488.904	1275.173
-29.881	33.517	1487.414	1273.633
-28.867	33.543	1485.889	1272.456
-27.852	33.607	1483.871	1271.106
-26.838	33.522	1483.264	1269.962
-25.823	33.489	1481.922	1268.544
-24.809	33.508	1479.968	1266.946
-23.794	33.479	1478.578	1265.514
-22.779	33.522	1477.179	1264.550
-21.765	33.462	1476.252	1263.306
-20.750	33.610	1474.632	1262.857
-19.736	33.482	1474.448	1261.799
-18.721	33.543	1473.081	1260.987
-17.706	33.406	1472.217	1259.284
-16.692	33.517	1470.623	1258.608
-15.677	33.461	1469.628	1257.335
-14.663	33.456	1469.039	1256.747
-13.648	33.505	1467.918	1256.066
-12.633	33.446	1466.655	1254.543
-11.619	33.397	1466.414	1253.960
-10.604	33.443	1465.475	1253.415
-9.590	33.395	1464.410	1252.133
-8.575	33.389	1463.899	1251.608
-7.560	33.515	1462.397	1251.108
-6.546	33.431	1461.923	1250.094
-5.531	33.411	1460.990	1249.117
-4.517	33.350	1459.939	1247.771
-3.502	33.349	1459.151	1247.038
-2.487	33.510	1457.521	1246.654
-1.473	33.482	1456.680	1245.703
-0.458	33.508	1455.324	1244.665
0.556	34.606	1445.404	1231.007
1.571	30.633	1417.608	1182.040
2.586	25.838	1353.321	1099.157
3.600	23.547	1270.093	1018.337
4.615	21.800	1224.071	971.675
5.629	18.527	1167.958	909.712
6.644	11.095	1085.096	808.331
7.659	5.202	1046.009	750.873
8.673	4.341	1040.324	742.606
9.688	4.288	1037.153	740.024
10.702	4.203	1035.487	738.364
11.717	4.279	1034.369	737.867
12.731	6.262	1035.384	747.959
13.746	13.392	1045.302	789.172
14.761	19.901	1053.594	826.552
15.775	21.196	1054.331	833.240
16.790	20.417	1052.642	828.120
17.804	19.490	1050.640	822.056
18.819	18.709	1048.590	816.664
19.834	18.103	1047.415	812.800
20.848	18.219	1045.902	812.104
21.863	17.970	1045.765	810.742
22.877	17.829	1045.028	809.431
23.892	17.561	1044.544	807.714
24.907	17.653	1043.125	806.980
25.921	17.423	1043.144	805.834
26.936	17.559	1041.739	805.322
27.950	17.460	1040.963	804.182
28.965	17.509	1039.900	803.519
29.980	17.593	1038.641	802.872
30.994	17.522	1037.971	801.948
32.009	17.890	1036.616	802.562
33.023	17.875	1036.331	802.199
34.038	17.664	1035.633	800.597
35.053	17.680	1034.823	799.978
36.067	17.662	1033.410	798.728
37.082	17.592	1032.796	797.855
38.096	17.551	1032.188	797.125
39.111	17.802	1030.959	797.278
40.126	17.858	1030.138	796.835
41.140	17.710	1029.167	795.322
42.155	17.311	1028.289	792.714
43.169	17.350	1027.017	791.845
44.184	17.307	1025.911	790.720
45.199	17.184	1025.183	789.520
46.213	17.227	1024.473	789.100
47.228	17.269	1023.091	788.159
48.242	17.505	1022.317	788.586
49.257	17.625	1021.273	788.268
50.271	17.445	1020.740	786.956
51.286	17.515	1019.890	786.553
52.301	17.702	1019.201	786.816
53.315	17.663	1018.521	786.040
54.330	17.570	1017.837	785.017
55.344	17.395	1016.931	783.443
56.359	17.461	1015.629	782.670
57.374	17.394	1014.765	781.628
58.388	17.406	1013.901	780.949
59.403	17.276	1013.177	779.724
60.417	17.288	1012.420	779.130
61.432	17.170	1012.059	778.245
62.447	17.277	1011.131	777.951
63.461	17.204	1009.984	776.664
64.476	17.205	1008.974	775.823
65.490	17.099	1008.383	774.819
66.505	17.146	1007.124	773.995
67.520	17.108	1007.221	773.831
68.534	17.071	1006.179	772.792
69.549	17.140	1005.198	772.283
70.563	17.162	1004.161	771.520
71.578	17.081	1004.084	771.022
72.593	16.960	1003.043	769.608
73.607	16.972	1001.775	768.622
74.622	16.963	1000.979	767.900
75.636	17.004	999.826	767.134
76.651	16.988	999.510	766.753
77.666	17.051	998.527	766.212
78.680	16.962	998.113	765.428
79.695	16.964	997.590	764.965
80.709	17.111	996.744	764.912
81.724	17.247	995.852	764.772
82.739	17.165	995.717	764.229
83.753	17.274	995.103	764.185
84.768	17.624	993.945	764.799
85.782	17.755	993.443	764.929
86.797	17.772	993.339	764.859
87.812	17.876	992.119	764.320
88.826	17.556	991.794	762.569
89.841	17.719	990.299	762.080
90.855	17.698	989.617	761.392
91.870	17.856	988.935	761.506
92.884	17.867	988.388	761.067
93.899	17.804	987.453	760.001
94.914	17.771	986.653	759.171
95.928	17.824	986.023	758.853
96.943	18.019	985.016	758.875
97.957	17.750	984.536	757.246
98.972	17.792	983.432	756.516
99.987	17.874	982.770	756.302
101.001	17.855	981.892	755.477
102.016	17.886	981.117	754.950
103.030	17.752	980.167	753.560
104.045	17.715	979.622	752.911
105.060	17.811	977.777	751.848
106.074	17.848	976.757	751.163
107.089	17.543	976.474	749.534
108.103	17.338	975.348	747.705
109.118	17.167	974.113	745.939
110.133	17.145	973.856	745.581
111.147	17.194	972.607	744.771
112.162	17.218	971.345	743.845
113.176	17.104	971.185	743.159
114.191	17.340	970.301	743.448
115.206	17.383	969.644	743.066
116.220	17.429	968.876	742.614
117.235	17.434	967.930	741.844
118.249	17.294	967.137	740.559
119.264	17.357	966.233	740.077
120.279	17.247	965.608	739.053
121.293	17.191	964.452	737.863
122.308	17.057	964.029	736.891
123.322	17.107	962.937	736.209
124.337	17.004	961.461	734.568
125.352	16.971	960.420	733.564
126.366	16.952	959.761	732.917
127.381	17.036	958.166	731.995
128.395	16.977	957.966	731.524
129.410	17.043	957.051	731.043
130.424	17.092	956.304	730.621
131.439	17.145	955.409	730.097
132.454	17.143	954.739	729.514
133.468	17.401	953.365	729.506
134.483	17.328	953.370	729.133
135.497	17.389	952.762	728.862
136.512	17.418	951.776	728.170
137.527	17.254	951.217	726.976
138.541	17.350	950.806	727.006
139.556	17.335	949.797	726.106
140.570	17.417	949.204	725.939
141.585	17.435	948.650	725.528
142.600	17.612	947.732	725.517
143.614	17.638	947.255	725.198
144.629	17.679	946.644	724.841
145.643	17.766	946.258	724.848
146.658	17.777	945.201	724.022
147.673	17.662	943.653	722.286
148.687	17.529	943.051	721.197
149.702	17.471	941.870	719.987
150.716	17.345	941.058	718.770
151.731	17.329	940.625	718.309
152.746	17.379	939.831	717.849
153.760	17.409	939.057	717.321
154.775	17.467	938.053	716.734
155.789	17.500	937.739	716.570
156.804	17.563	936.792	716.048
157.819	17.575	936.012	715.437
158.833	17.636	935.529	715.260
159.848	17.829	934.468	715.196
160.862	17.854	934.073	714.936
161.877	17.779	933.318	713.980
162.892	17.684	931.771	712.339
163.906	17.414	931.097	710.632
164.921	17.390	930.033	709.656
165.935	17.370	929.302	708.953
166.950	17.457	928.123	708.353
167.964	17.516	927.845	708.323
168.979	17.594	926.830	707.811
169.994	17.546	925.792	706.755
171.008	17.535	924.479	705.646
172.023	17.557	924.239	705.488
173.037	17.645	924.008	705.614
174.052	17.765	923.343	705.542
175.067	17.811	922.495	705.023
176.081	17.563	921.149	702.906
177.096	17.444	920.147	701.590
178.110	17.439	919.178	700.769
179.125	17.342	918.989	700.161
180.140	17.321	918.362	699.536
181.154	17.474	917.343	699.328
182.169	17.498	917.186	699.243
183.183	17.795	916.492	699.872
184.198	17.833	915.970	699.567
185.213	17.854	915.166	698.975
186.227	17.905	914.189	698.379
187.242	17.815	914.478	698.169
188.256	17.992	913.885	698.377
189.271	18.081	912.638	697.726
190.286	18.070	912.083	697.193
191.300	17.865	911.047	695.506
192.315	17.576	910.026	693.488
193.329	17.299	909.466	691.873
194.344	17.492	908.750	692.054
195.359	17.499	908.518	691.842
196.373	17.601	907.925	691.744
197.388	17.768	907.686	692.177
198.402	18.032	906.950	692.627
199.417	18.127	906.388	692.520
200.432	18.154	906.249	692.462
201.446	18.219	906.090	692.542
202.461	18.267	906.020	692.623
203.475	18.465	904.777	692.412
204.490	18.339	904.216	691.409
205.504	18.233	903.089	690.061
206.519	18.051	902.172	688.567
207.534	18.042	901.090	687.643
208.548	18.019	900.846	687.305
209.563	18.043	900.273	686.904
210.577	17.981	899.417	685.940
211.592	18.098	899.039	686.060
212.607	18.134	898.718	685.897
213.621	18.345	898.217	686.300
214.636	18.184	897.920	685.368
215.650	18.272	896.768	684.782
216.665	18.214	896.391	684.200
217.680	18.297	895.777	684.002
218.694	18.496	895.541	684.556
219.709	18.452	895.118	683.997
220.723	18.352	894.348	682.950
221.738	18.348	893.445	682.185
222.753	18.322	893.257	681.876
223.767	18.248	892.061	680.608
224.782	18.486	891.168	680.811
225.796	18.539	890.285	680.287
226.811	18.500	890.228	680.029
227.826	18.578	889.212	679.503
228.840	18.469	888.256	678.282
229.855	18.348	887.725	677.336
230.869	18.223	887.464	676.583
231.884	18.252	887.013	676.296
232.899	18.345	885.923	675.771
233.913	18.363	884.596	674.768
234.928	18.204	884.407	673.940
235.942	18.154	883.536	673.020
236.957	17.997	883.251	672.125
237.972	18.128	882.464	671.982
238.986	18.100	882.079	671.517
240.001	18.148	881.365	671.104
241.015	18.274	880.302	670.728
242.030	18.320	879.767	670.442
243.045	18.209	879.680	669.880
244.059	18.392	878.582	669.701
245.074	18.456	878.023	669.466
246.088	18.492	877.892	669.450
247.103	18.571	877.046	669.051
248.117	18.653	876.496	668.893
249.132	18.769	876.203	669.060
250.147	18.935	875.765	669.314
251.161	19.093	875.283	669.500
252.176	19.286	874.455	669.558
253.190	19.140	873.778	668.414
254.205	19.314	873.637	668.922
255.220	19.392	873.004	668.682
256.234	19.320	871.926	667.520
257.249	19.295	871.258	666.850
258.263	19.210	871.210	666.426
259.278	19.250	870.480	665.961
260.293	19.156	870.031	665.198
261.307	19.349	869.562	665.525
262.322	19.346	869.127	665.122
263.336	19.402	868.074	664.473
264.351	19.475	867.673	664.388
265.366	19.469	867.314	664.029
266.380	19.387	867.007	663.423
267.395	19.253	866.005	662.082
268.409	19.188	865.285	661.223
269.424	19.195	864.761	660.792
270.439	19.258	864.085	660.457
271.453	19.244	863.093	659.589
272.468	19.201	862.234	658.710
273.482	19.034	861.848	657.717
274.497	19.066	861.396	657.435
275.512	19.180	860.304	656.978
276.526	19.107	859.609	656.113
277.541	19.068	859.325	655.690
278.555	19.138	858.519	655.280
279.570	19.364	858.414	656.005
280.585	19.427	857.766	655.689
281.599	19.461	857.668	655.688
282.614	19.454	856.561	654.756
283.628	19.309	855.986	653.709
284.643	19.141	855.584	652.706
285.657	19.060	855.139	652.004
286.672	19.317	854.478	652.414
287.687	19.332	854.155	652.168
288.701	19.335	853.355	651.507
289.716	19.404	852.590	651.128
290.730	19.481	851.860	650.802
291.745	19.373	851.276	649.891
292.760	19.341	851.346	649.766
293.774	19.473	850.493	649.557
294.789	19.597	850.084	649.652
295.803	19.581	849.632	649.190
296.818	19.310	848.832	647.503
297.833	19.295	848.222	646.925
298.847	19.327	847.606	646.518
299.862	19.504	846.616	646.368
300.876	19.406	846.009	645.480
301.891	19.478	845.485	645.292
302.906	19.560	845.036	645.199
303.920	19.750	844.016	645.073
304.935	19.858	843.749	645.215
305.949	19.973	843.451	645.358
306.964	19.947	842.501	644.476
307.979	19.763	841.916	643.289
308.993	19.631	841.844	642.686
310.008	19.760	841.347	642.730
311.022	19.902	840.224	642.341
312.037	19.837	840.081	641.934
313.052	19.667	839.534	640.827
314.066	19.571	838.294	639.470
315.081	19.626	837.751	639.202
316.095	19.534	836.986	638.223
317.110	19.446	836.916	637.787
318.125	19.404	836.297	637.102
319.139	19.521	835.864	637.148
320.154	19.561	835.620	637.054
321.168	19.534	834.632	636.144
322.183	19.507	834.363	635.785
323.197	19.674	833.686	635.825
324.212	19.647	833.277	635.361
325.227	19.753	832.716	635.265
326.241	19.675	831.915	634.310
327.256	19.617	831.657	633.847
328.270	19.677	831.433	633.837
329.285	19.618	830.285	632.690
330.300	19.663	829.948	632.543
331.314	19.638	829.051	631.711
332.329	19.722	828.445	631.501
333.343	19.759	828.143	631.351
334.358	19.829	827.751	631.253
335.373	19.984	826.977	631.169
336.387	20.094	826.261	630.969
337.402	20.092	826.192	630.854
338.416	20.070	825.714	630.351
339.431	20.076	825.535	630.179
340.446	20.225	824.976	630.239
341.460	20.371	824.699	630.502
342.475	20.305	823.898	629.595
343.489	20.289	823.462	629.147
344.504	20.415	822.851	629.083
345.519	20.358	822.415	628.488
346.533	20.492	821.988	628.591
347.548	20.514	821.485	628.230
348.562	20.310	820.691	626.831
349.577	20.192	819.689	625.583
350.592	20.125	819.491	625.134
351.606	20.037	819.047	624.423
352.621	20.069	818.359	623.959
353.635	19.914	818.021	623.087
354.650	20.115	817.736	623.541
355.665	20.002	817.386	622.811
356.679	20.199	816.836	623.043
357.694	20.298	816.068	622.759
358.708	20.203	816.040	622.341
359.723	20.346	815.163	622.129
360.738	20.287	814.830	621.608
361.752	20.351	814.178	621.287
362.767	20.114	814.211	620.407
363.781	20.387	813.545	620.822
364.796	20.671	812.653	621.100
365.810	20.620	812.866	621.026
366.825	20.825	812.080	621.100
367.840	20.865	812.085	621.192
368.854	20.815	811.537	620.541
369.869	20.603	811.151	619.434
370.883	20.643	810.157	618.766
371.898	20.646	809.627	618.316
372.913	20.691	809.207	618.098
373.927	20.778	808.497	617.810
374.942	20.804	807.846	617.353
375.956	20.809	807.229	616.842
376.971	20.926	806.511	616.655
377.986	20.928	806.402	616.522
379.000	21.009	805.561	616.111
380.015	20.987	805.401	615.857
381.029	21.041	804.907	615.616
382.044	20.936	804.041	614.529
383.059	20.961	803.769	614.353
384.073	20.853	803.617	613.802
385.088	20.940	803.068	613.635
386.102	20.774	802.306	612.415
387.117	20.717	801.389	611.461
388.132	20.627	801.040	610.825
389.146	20.571	800.656	610.281
390.161	20.842	800.038	610.707
391.175	20.823	799.700	610.329
392.190	20.944	799.576	610.604
393.205	20.863	799.253	610.020
394.219	20.714	798.826	609.116
395.234	20.803	797.731	608.541
396.248	20.673	797.280	607.687
397.263	20.650	796.703	607.116
398.278	20.521	796.125	606.170
399.292	20.424	796.028	605.705
400.307	20.615	795.269	605.737
401.321	20.509	795.451	605.454
402.336	20.645	794.859	605.425
403.350	20.783	794.054	605.237
404.365	20.775	793.923	605.056
405.380	20.945	793.716	605.435
406.394	21.047	793.471	605.547
407.409	21.189	792.891	605.545
408.423	21.079	792.684	604.951
409.438	21.217	792.202	605.008
410.453	21.166	791.728	604.418
411.467	21.299	791.085	604.331
412.482	21.420	790.437	604.200
413.496	21.446	790.188	604.048
414.511	21.476	789.814	603.812
415.526	21.521	789.383	603.584
416.540	21.540	789.360	603.577
417.555	21.291	788.834	602.264
418.569	21.283	788.364	601.824
419.584	21.531	787.924	602.290
420.599	21.445	787.014	601.244
421.613	160.256	1368.989	1793.594
422.628	138.686	1453.795	1793.688
