DTS Sentinel unit serial number:	SN413079Multiplexer serial number:	ORYXHardware model number:	OX4-SRSoftware version number:	ORYX F/W v4.00 Oryx Data Collector v3.7.2.0data status	okinstallation	princeton_trtdifferential loss correction	single-endedforward channel	channel 3reverse channel	N/Adate	2019/09/19time	10:48:34forward acquisition time	60.00reverse acquisition time	0.00gamma	496.2192k internal	0.2342k external	0.2342temperature offset calibration	0.9984default loss term (dB/km)	0.3790temperature slope calibration	1.0000multiplexer offset coefficient	1.0000multiplexer slope coefficient	1.0000fibre end	0.00T internal ref (°C)	24.69T ext. ref 1 (°C)	0.73T ext. ref 2 (°C)	20.10length (m)	temperature (°C)	Stokes	anti-Stokes-747.200	-200.000	-0.006	-0.139
-746.185	159.001	0.052	0.073
-745.171	-47.265	0.186	-0.091
-744.156	-94.109	0.178	-0.049
-743.142	-200.000	0.016	0.239
-742.127	-87.274	-0.119	0.036
-741.112	65.262	0.029	0.030
-740.098	129.945	-0.219	0.281
-739.083	-178.790	0.331	0.008
-738.069	-140.221	-0.238	0.025
-737.054	61.900	0.167	0.167
-736.039	138.808	-0.098	-0.129
-735.025	90.277	-0.035	0.039
-734.010	175.936	-0.255	-0.371
-732.996	-24.584	0.320	-0.191
-731.981	-39.125	-0.093	-0.049
-730.966	-174.294	-0.215	0.006
-729.952	139.038	0.108	-0.142
-728.937	-14.434	0.144	0.093
-727.923	-200.000	-0.044	-0.237
-726.908	-137.330	-0.171	-0.019
-725.894	-78.816	0.122	0.042
-724.879	-200.000	-0.197	-0.001
-723.864	-160.170	0.380	-0.021
-722.850	-118.007	0.128	-0.023
-721.835	-15.453	0.015	0.009
-720.821	7.625	-0.154	-0.115
-719.806	-200.000	0.040	-0.279
-718.791	-95.205	-0.431	-0.116
-717.777	-20.106	-0.172	-0.106
-716.762	-200.000	-0.026	0.255
-715.748	96.626	-0.082	0.094
-714.733	-200.000	-0.014	0.260
-713.718	-26.520	0.179	-0.105
-712.704	221.743	-0.151	0.242
-711.689	-61.988	-0.136	-0.057
-710.675	-152.467	-0.198	0.014
-709.660	282.561	0.151	0.271
-708.645	-125.452	0.083	-0.013
-707.631	-200.000	-0.069	0.372
-706.616	-61.369	-0.055	0.023
-705.602	-39.900	0.257	0.134
-704.587	-21.294	0.184	-0.112
-703.572	-110.562	0.155	0.032
-702.558	-141.421	-0.359	-0.036
-701.543	626.922	-0.086	0.217
-700.529	-176.179	-0.125	-0.003
-699.514	197.007	0.066	0.101
-698.499	-200.000	0.056	0.300
-697.485	800.000	-0.034	0.097
-696.470	-200.000	-0.039	-0.246
-695.456	-65.416	-0.118	-0.047
-694.441	3.135	-0.344	-0.250
-693.426	275.605	0.167	-0.296
-692.412	724.396	-0.130	-0.346
-691.397	-200.000	-0.017	-0.276
-690.383	30.128	0.295	0.251
-689.368	-200.000	0.039	0.207
-688.354	-137.362	0.068	0.008
-687.339	-70.165	-0.619	-0.235
-686.324	39.339	-0.133	0.119
-685.310	-200.000	0.062	-0.307
-684.295	-46.735	-0.322	0.157
-683.281	186.862	-0.128	-0.190
-682.266	-4.571	0.232	0.160
-681.251	-59.308	-0.460	0.198
-680.237	-122.780	-0.252	0.041
-679.222	-119.168	-0.243	0.042
-678.208	-36.274	0.225	-0.121
-677.193	360.109	-0.162	0.323
-676.178	49.948	0.294	-0.277
-675.164	-200.000	0.003	-0.056
-674.149	-47.054	0.139	-0.068
-673.135	-42.314	-0.157	-0.080
-672.120	186.717	0.104	-0.155
-671.105	183.403	0.139	-0.206
-670.091	-50.252	0.264	0.125
-669.076	45.627	-0.137	0.126
-668.062	-24.815	-0.033	-0.020
-667.047	800.000	0.014	0.040
-666.032	800.000	-0.107	0.415
-665.018	800.000	-0.059	0.192
-664.003	-14.589	-0.045	0.029
-662.989	-200.000	-0.033	0.228
-661.974	779.065	0.107	-0.291
-660.959	23.029	-0.344	0.282
-659.945	36.044	0.139	-0.122
-658.930	58.162	-0.184	-0.180
-657.916	-200.000	-0.015	-0.202
-656.901	-200.000	-0.019	0.305
-655.886	-93.771	0.367	0.101
-654.872	-128.305	-0.155	0.022
-653.857	-83.744	0.304	0.097
-652.843	108.244	0.101	-0.120
-651.828	302.659	0.142	0.262
-650.814	-87.816	0.339	0.102
-649.799	351.349	0.108	0.214
-648.784	-168.228	-0.246	-0.010
-647.770	150.730	0.219	0.297
-646.755	42.011	-0.198	0.180
-645.741	-200.000	-0.041	-0.199
-644.726	143.740	-0.058	0.078
-643.711	-124.917	-0.216	0.033
-642.697	-25.461	0.133	-0.078
-641.682	800.000	-0.089	0.360
-640.668	-81.153	-0.242	-0.080
-639.653	31.198	0.077	0.066
-638.638	-200.000	-0.060	-0.390
-637.624	-56.568	-0.272	0.120
-636.609	7.240	-0.379	-0.282
-635.595	45.166	0.120	0.111
-634.580	1.484	0.248	-0.178
-633.565	-200.000	-0.012	-0.297
-632.551	235.547	0.110	-0.181
-631.536	49.738	-0.373	-0.351
-630.522	800.000	-0.018	-0.060
-629.507	760.536	-0.097	-0.263
-628.492	378.568	0.052	0.106
-627.478	-38.892	0.168	0.088
-626.463	-200.000	-0.019	0.666
-625.449	-119.572	-0.162	0.028
-624.434	-200.000	0.006	0.133
-623.419	-45.719	-0.330	0.163
-622.405	-200.000	0.018	0.106
-621.390	110.399	-0.050	0.060
-620.376	225.528	-0.009	0.015
-619.361	-200.000	-0.026	-0.230
-618.346	-161.477	0.202	0.010
-617.332	-200.000	0.064	0.318
-616.317	-66.411	0.119	-0.047
-615.303	-200.000	-0.004	-0.278
-614.288	310.121	0.118	-0.220
-613.273	-200.000	0.039	-0.177
-612.259	264.637	0.217	0.376
-611.244	-200.000	-0.456	-0.001
-610.230	135.196	-0.153	-0.198
-609.215	-90.214	0.266	0.077
-608.201	557.758	0.058	-0.140
-607.186	255.107	-0.083	0.142
-606.171	-200.000	0.012	0.134
-605.157	0.606	0.315	0.224
-604.142	45.051	0.255	-0.234
-603.128	-200.000	-0.029	-0.171
-602.113	326.925	-0.056	0.108
-601.098	-37.561	-0.032	0.017
-600.084	64.222	-0.056	-0.057
-599.069	-81.774	0.083	0.027
-598.055	-200.000	-0.000	-0.123
-597.040	-200.000	0.017	0.248
-596.025	800.000	0.069	-0.263
-595.011	155.204	-0.409	-0.561
-593.996	-200.000	0.052	0.311
-592.982	-185.786	0.328	0.005
-591.967	635.307	0.107	0.270
-590.952	431.667	-0.061	-0.132
-589.938	30.839	-0.158	-0.135
-588.923	-124.272	0.268	-0.042
-587.909	-153.677	0.251	0.017
-586.894	86.704	-0.100	-0.110
-585.879	62.957	0.198	-0.197
-584.865	-117.814	-0.246	-0.044
-583.850	-200.000	0.038	-0.244
-582.836	242.261	0.049	0.082
-581.821	112.595	-0.158	-0.190
-580.806	-88.365	-0.046	0.014
-579.792	10.345	0.147	0.111
-578.777	358.632	-0.102	0.203
-577.763	321.748	-0.063	0.120
-576.748	-200.000	0.089	0.415
-575.733	-200.000	-0.034	-0.217
-574.719	410.518	-0.073	-0.153
-573.704	800.000	0.084	-0.242
-572.690	-52.576	0.291	-0.134
-571.675	-117.492	0.107	-0.019
-570.661	-5.949	0.196	-0.133
-569.646	447.904	-0.074	0.163
-568.631	800.000	0.031	-0.105
-567.617	-185.606	0.126	0.002
-566.602	-200.000	0.016	-0.091
-565.588	-116.941	-0.239	-0.043
-564.573	54.579	0.135	0.129
-563.558	503.593	-0.175	-0.403
-562.544	231.371	0.138	-0.225
-561.529	-200.000	0.037	-0.315
-560.515	-108.557	-0.202	-0.043
-559.500	-200.000	0.022	0.113
-558.485	-200.000	0.003	0.252
-557.471	388.429	0.049	0.101
-556.456	169.299	-0.100	-0.142
-555.442	-140.742	-0.410	-0.042
-554.427	-51.849	0.208	0.096
-553.412	222.320	0.090	0.144
-552.398	-200.000	-0.007	-0.106
-551.383	-20.413	0.177	-0.108
-550.369	75.845	0.086	-0.091
-549.354	177.963	0.110	-0.159
-548.339	-112.744	-0.186	0.037
-547.325	-92.502	-0.085	0.024
-546.310	-6.829	0.245	-0.166
-545.296	-112.652	-0.152	-0.030
-544.281	85.205	-0.061	0.067
-543.266	1.018	-0.251	-0.179
-542.252	-200.000	-0.007	-0.194
-541.237	800.000	-0.090	-0.279
-540.223	800.000	0.028	0.100
-539.208	87.933	-0.071	0.078
-538.193	72.057	0.258	0.267
-537.179	-200.000	-0.012	-0.070
-536.164	-86.825	0.432	0.131
-535.150	-174.054	-0.142	0.004
-534.135	-200.000	-0.004	0.024
-533.121	800.000	0.055	0.173
-532.106	-200.000	-0.024	-0.110
-531.091	193.716	-0.144	0.216
-530.077	-200.000	0.029	0.164
-529.062	598.082	0.009	0.021
-528.048	189.253	-0.011	0.016
-527.033	-66.786	-0.091	-0.036
-526.018	-200.000	-0.083	-0.381
-525.004	43.081	-0.062	-0.056
-523.989	-75.152	-0.211	-0.075
-522.975	-78.310	0.427	-0.146
-521.960	-200.000	-0.002	-0.043
-520.945	-64.501	-0.322	0.130
-519.931	33.346	-0.141	0.122
-518.916	-82.437	0.066	0.021
-517.902	-89.723	-0.081	0.024
-516.887	483.227	-0.105	0.236
-515.872	31.724	0.269	0.230
-514.858	800.000	0.086	-0.346
-513.843	-73.450	-0.364	-0.132
-512.829	800.000	-0.015	-0.053
-511.814	-200.000	0.004	-0.148
-510.799	158.644	0.207	0.286
-509.785	-200.000	0.073	-0.342
-508.770	55.882	0.107	0.103
-507.756	213.392	-0.223	0.350
-506.741	-75.068	0.364	0.129
-505.726	59.508	-0.236	-0.231
-504.712	-144.847	0.220	0.020
-503.697	-64.933	-0.150	0.060
-502.683	340.958	-0.113	-0.218
-501.668	-137.646	-0.032	0.004
-500.653	-200.000	-0.008	0.091
-499.639	-200.000	-0.023	-0.155
-498.624	800.000	-0.050	-0.164
-497.610	514.990	0.202	-0.469
-496.595	-185.280	0.147	-0.002
-495.581	109.418	-0.115	0.137
-494.566	56.694	-0.032	0.031
-493.551	68.257	0.107	0.109
-492.537	-200.000	-0.014	-0.148
-491.522	-200.000	-0.033	-0.241
-490.508	376.656	0.055	0.111
-489.493	-200.000	-0.038	0.298
-488.478	531.224	-0.156	-0.367
-487.464	-113.181	-0.133	0.026
-486.449	-200.000	-0.038	0.167
-485.435	800.000	-0.117	0.358
-484.420	800.000	-0.107	-0.328
-483.405	-10.078	-0.303	0.199
-482.391	48.797	0.102	0.095
-481.376	-88.563	0.199	0.059
-480.362	-160.898	0.292	0.015
-479.347	-200.000	-0.044	-0.293
-478.332	40.485	-0.292	-0.260
-477.318	435.479	0.084	0.180
-476.303	153.162	-0.171	0.231
-475.289	800.000	-0.054	-0.190
-474.274	25.361	0.026	-0.021
-473.259	800.000	-0.073	-0.199
-472.245	-200.000	0.011	-0.083
-471.230	-126.331	0.140	0.021
-470.216	-73.797	0.204	0.074
-469.201	106.100	-0.285	0.335
-468.186	215.266	-0.170	-0.267
-467.172	-72.311	-0.236	0.086
-466.157	98.582	-0.112	-0.128
-465.143	-200.000	-0.018	0.389
-464.128	-51.064	-0.330	0.153
-463.113	-80.577	-0.203	0.067
-462.099	429.802	0.160	-0.344
-461.084	-39.105	0.197	-0.103
-460.070	-61.058	-0.251	-0.105
-459.055	600.739	-0.044	-0.108
-458.040	92.730	-0.117	-0.131
-457.026	-160.285	0.172	-0.009
-456.011	-200.000	-0.004	0.152
-454.997	181.416	0.149	-0.217
-453.982	93.090	-0.261	0.293
-452.968	-59.518	0.144	0.061
-451.953	800.000	0.007	0.026
-450.938	511.794	-0.219	-0.505
-449.924	345.547	0.054	0.105
-448.909	-0.366	0.237	0.167
-447.895	439.839	-0.142	0.308
-446.880	-64.981	-0.307	-0.123
-445.865	-200.000	0.020	-0.231
-444.851	800.000	-0.044	0.190
-443.836	146.770	0.140	-0.186
-442.822	-200.000	0.008	-0.232
-441.807	-66.763	-0.066	0.026
-440.792	-200.000	-0.010	-0.052
-439.778	-47.273	0.287	-0.138
-438.763	83.325	0.170	-0.184
-437.749	628.372	0.194	0.486
-436.734	800.000	-0.106	0.354
-435.719	21.749	0.092	-0.074
-434.705	489.504	0.131	-0.297
-433.690	375.386	0.036	0.072
-432.676	-8.360	0.046	0.031
-431.661	-56.832	0.087	-0.038
-430.646	-96.959	-0.049	0.013
-429.632	-105.849	0.285	0.064
-428.617	170.151	0.224	-0.318
-427.603	800.000	0.043	0.173
-426.588	-200.000	-0.074	0.544
-425.573	-36.305	-0.096	0.051
-424.559	372.457	-0.074	0.149
-423.544	290.232	-0.087	0.156
-422.530	-200.000	0.013	0.125
-421.515	-81.390	-0.322	-0.105
-420.500	-156.990	0.299	0.018
-419.486	105.264	0.284	-0.332
-418.471	340.323	0.131	-0.253
-417.457	170.079	0.093	-0.131
-416.442	272.278	-0.161	-0.282
-415.428	168.493	-0.180	-0.253
-414.413	-88.998	-0.308	-0.090
-413.398	-200.000	0.006	-0.385
-412.384	-106.918	-0.118	0.026
-411.369	259.432	0.157	0.269
-410.355	-200.000	-0.021	-0.147
-409.340	67.767	-0.037	0.037
-408.325	-99.844	0.098	-0.024
-407.311	52.669	0.173	-0.163
-406.296	-69.300	-0.105	-0.040
-405.282	-65.667	-0.105	0.041
-404.267	612.687	-0.097	-0.240
-403.252	41.589	-0.078	-0.070
-402.238	-150.559	0.332	-0.025
-401.223	204.717	0.130	0.200
-400.209	-37.293	0.201	0.106
-399.194	-138.048	0.214	0.024
-398.179	221.160	-0.115	-0.182
-397.165	800.000	-0.094	0.318
-396.150	-34.749	-0.265	0.143
-395.136	-7.144	-0.285	0.191
-394.121	800.000	0.055	0.159
-393.106	41.343	0.015	-0.013
-392.092	-29.620	0.266	-0.150
-391.077	79.797	-0.022	-0.023
-390.063	-200.000	0.058	-0.431
-389.048	-27.132	-0.207	0.119
-388.033	800.000	-0.072	-0.254
-387.019	496.254	-0.131	-0.298
-386.004	-68.179	0.412	-0.159
-384.990	-200.000	0.002	-0.049
-383.975	-94.518	0.391	-0.105
-382.960	94.661	0.160	-0.179
-381.946	24.056	0.137	0.112
-380.931	-87.093	0.282	-0.085
-379.917	-140.637	0.194	0.020
-378.902	-200.000	-0.025	0.164
-377.888	211.913	-0.070	-0.109
-376.873	-200.000	-0.046	-0.222
-375.858	-11.445	0.069	-0.045
-374.844	800.000	-0.093	0.321
-373.829	800.000	-0.057	0.167
-372.815	800.000	0.089	-0.289
-371.800	-133.855	-0.319	-0.039
-370.785	225.733	-0.164	-0.263
-369.771	-200.000	-0.052	0.427
-368.756	-43.048	-0.204	0.102
-367.742	64.425	-0.096	0.095
-366.727	800.000	0.056	0.190
-365.712	141.004	-0.082	-0.107
-364.698	-18.914	-0.091	-0.056
-363.683	-192.557	-0.065	-0.001
-362.669	-200.000	-0.038	0.180
-361.654	-200.000	0.052	0.238
-360.639	-52.952	-0.310	0.141
-359.625	-139.555	-0.130	-0.014
-358.610	-23.317	0.116	-0.069
-357.596	-102.382	-0.175	0.041
-356.581	-200.000	-0.035	0.301
-355.566	327.573	0.066	0.125
-354.552	-169.804	0.304	0.011
-353.537	353.132	-0.111	0.218
-352.523	-200.000	-0.019	0.134
-351.508	9.754	0.199	0.149
-350.493	-92.737	-0.293	-0.081
-349.479	43.524	0.093	-0.084
-348.464	423.670	0.196	0.417
-347.450	-105.150	-0.066	0.015
-346.435	-200.000	-0.005	0.273
-345.420	708.744	0.059	-0.154
-344.406	-73.959	0.254	0.091
-343.391	-49.522	0.050	-0.023
-342.377	-200.000	-0.034	0.155
-341.362	6.640	0.040	-0.030
-340.348	-200.000	0.030	0.172
-339.333	800.000	0.070	0.211
-338.318	-200.000	-0.029	-0.201
-337.304	57.181	0.281	0.270
-336.289	-127.324	-0.130	0.019
-335.275	-193.997	0.073	-0.001
-334.260	173.209	0.289	0.410
-333.245	-3.927	0.344	0.235
-332.231	-200.000	-0.045	0.322
-331.216	93.879	-0.040	0.044
-330.202	114.447	-0.143	0.171
-329.187	-148.725	-0.154	-0.012
-328.172	-30.231	0.320	0.179
-327.158	800.000	-0.044	-0.130
-326.143	182.346	0.123	0.179
-325.129	18.995	-0.210	0.166
-324.114	64.055	-0.067	-0.066
-323.099	620.925	-0.096	0.237
-322.085	800.000	-0.030	0.086
-321.070	479.110	-0.150	-0.335
-320.056	-32.145	-0.193	-0.106
-319.041	762.897	-0.134	0.358
-318.026	-200.000	-0.016	0.125
-317.012	313.788	-0.112	0.208
-315.997	277.884	-0.153	0.268
-314.983	53.238	0.122	0.115
-313.968	246.832	0.026	-0.043
-312.953	-139.825	-0.294	0.031
-311.939	-134.240	0.483	-0.059
-310.924	-7.613	0.066	0.044
-309.910	158.335	0.175	-0.239
-308.895	56.152	-0.246	0.235
-307.880	-161.894	0.163	0.008
-306.866	-113.124	-0.326	0.063
-305.851	-38.267	-0.494	0.258
-304.837	306.287	0.034	-0.063
-303.822	161.100	0.145	-0.200
-302.807	65.308	-0.122	-0.121
-301.793	-200.000	-0.027	-0.332
-300.778	-200.000	-0.003	0.014
-299.764	21.059	0.090	-0.072
-298.749	-34.954	0.425	0.228
-297.735	800.000	-0.019	-0.066
-296.720	57.042	0.141	-0.135
-295.705	257.103	0.117	0.198
-294.691	-84.728	0.306	-0.095
-293.676	-200.000	-0.011	0.066
-292.662	55.339	-0.249	0.237
-291.647	-108.626	0.079	-0.017
-290.632	168.489	-0.169	-0.237
-289.618	-136.529	-0.161	0.018
-288.603	43.839	-0.020	0.018
-287.589	527.210	0.113	0.262
-286.574	-167.997	-0.146	0.006
-285.559	-165.278	-0.120	-0.005
-284.545	-44.169	0.076	0.038
-283.530	-10.548	-0.162	0.106
-282.516	-136.364	-0.206	0.024
-281.501	-3.029	0.109	-0.075
-280.486	-200.000	0.172	-0.000
-279.472	-50.760	-0.065	0.030
-278.457	-200.000	0.005	-0.051
-277.443	-2.904	-0.105	-0.072
-276.428	-44.289	0.213	-0.105
-275.413	-200.000	-0.005	0.098
-274.399	157.099	-0.214	-0.291
-273.384	-110.540	0.112	-0.023
-272.370	-54.317	-0.224	-0.100
-271.355	-125.854	-0.244	-0.036
-270.340	69.967	0.241	0.245
-269.326	-200.000	0.014	0.063
-268.311	-132.799	-0.230	-0.029
-267.297	-200.000	0.287	0.001
-266.282	-70.267	0.225	-0.084
-265.267	-37.048	0.225	-0.118
-264.253	-124.656	-0.232	0.035
-263.238	-200.000	-0.013	-0.208
-262.224	264.728	-0.180	0.308
-261.209	800.000	-0.117	0.333
-260.195	-200.000	0.006	-0.305
-259.180	-47.318	-0.137	-0.066
-258.165	-200.000	0.060	-0.411
-257.151	28.583	-0.132	-0.110
-256.136	-137.131	-0.082	0.009
-255.122	-30.112	0.171	-0.095
-254.107	56.994	0.255	0.244
-253.092	-34.939	-0.303	-0.163
-252.078	800.000	-0.070	-0.216
-251.063	-35.008	-0.182	-0.098
-250.049	-38.465	-0.149	0.077
-249.034	800.000	-0.111	-0.399
-248.019	244.766	0.133	0.220
-247.005	-42.937	0.176	0.088
-245.990	492.472	0.097	-0.219
-244.976	-81.296	-0.302	0.098
-243.961	800.000	-0.048	0.132
-242.946	113.166	0.091	0.108
-241.932	-84.911	0.202	-0.062
-240.917	-17.027	-0.276	-0.171
-239.903	-145.268	0.117	-0.010
-238.888	496.972	-0.069	-0.156
-237.873	50.293	0.204	-0.190
-236.859	8.418	0.228	-0.169
-235.844	-4.505	0.389	0.264
-234.830	100.632	-0.108	-0.123
-233.815	-59.687	-0.088	0.037
-232.800	-200.000	-0.003	0.088
-231.786	-59.959	-0.190	0.080
-230.771	-12.235	-0.066	-0.043
-229.757	-111.115	0.315	-0.063
-228.742	158.050	-0.215	-0.292
-227.727	-102.117	-0.247	0.058
-226.713	27.017	0.424	0.349
-225.698	-94.743	0.154	0.041
-224.684	321.758	0.142	0.265
-223.669	-200.000	0.032	-0.266
-222.655	-200.000	0.045	-0.262
-221.640	-165.240	-0.157	0.007
-220.625	-156.865	-0.164	0.010
-219.611	-200.000	-0.032	-0.225
-218.596	92.930	0.197	0.218
-217.582	-84.711	0.124	-0.038
-216.567	-117.969	0.226	-0.040
-215.552	-98.428	0.649	0.163
-214.538	-200.000	-0.104	0.000
-213.523	-103.280	0.241	0.056
-212.509	-112.351	-0.150	-0.029
-211.494	800.000	-0.028	-0.100
-210.479	-200.000	-0.012	0.083
-209.465	-103.330	-0.158	-0.036
-208.450	-120.775	0.104	-0.017
-207.436	-6.875	0.185	0.123
-206.421	-200.000	0.004	0.377
-205.406	-200.000	0.019	0.129
-204.392	496.345	0.098	0.221
-203.377	800.000	0.057	-0.223
-202.363	800.000	0.085	-0.291
-201.348	121.000	0.116	0.141
-200.333	45.511	-0.240	-0.217
-199.319	44.988	0.276	0.249
-198.304	800.000	0.070	0.296
-197.290	800.000	-0.046	-0.190
-196.275	-54.516	-0.250	-0.111
-195.260	33.530	-0.230	-0.196
-194.246	-200.000	0.045	-0.289
-193.231	-13.317	-0.125	-0.079
-192.217	800.000	0.053	0.226
-191.202	-182.322	-0.285	-0.005
-190.187	70.576	0.064	0.065
-189.173	-156.820	-0.344	0.021
-188.158	-142.869	0.338	-0.032
-187.144	800.000	0.103	-0.288
-186.129	-163.773	-0.333	-0.015
-185.114	23.213	0.145	-0.116
-184.100	124.979	-0.136	-0.168
-183.085	-42.695	0.230	0.114
-182.071	187.237	0.030	0.044
-181.056	13.102	-0.057	0.044
-180.042	-75.821	-0.022	0.008
-179.027	3.077	-0.302	0.215
-178.012	-78.892	0.102	-0.034
-176.998	800.000	0.083	-0.281
-175.983	269.829	-0.109	-0.187
-174.969	256.108	0.027	0.045
-173.954	-200.000	-0.187	0.000
-172.939	732.898	0.038	0.101
-171.925	-200.000	-0.054	0.304
-170.910	437.985	-0.033	0.070
-169.896	-139.864	0.422	-0.044
-168.881	208.195	-0.105	0.160
-167.866	151.047	-0.088	-0.117
-166.852	-90.824	0.022	-0.006
-165.837	13.994	-0.065	-0.049
-164.823	-200.000	-0.020	0.347
-163.808	-6.381	-0.214	0.143
-162.793	-83.182	0.471	-0.148
-161.779	-56.957	0.235	-0.102
-160.764	344.117	-0.086	-0.164
-159.750	67.325	0.246	0.246
-158.735	-200.000	0.021	0.119
-157.720	-200.000	-0.019	0.128
-156.706	460.699	-0.102	0.223
-155.691	159.269	0.031	-0.042
-154.677	-5.230	-0.244	-0.164
-153.662	103.553	0.133	0.152
-152.647	302.218	-0.094	0.170
-151.633	-200.000	-0.003	0.067
-150.618	-128.726	0.129	-0.018
-149.604	48.640	0.163	-0.149
-148.589	236.937	-0.161	0.261
-147.574	53.711	0.059	0.055
-146.560	-43.947	0.218	0.107
-145.545	65.604	0.130	0.129
-144.531	800.000	0.087	0.275
-143.516	-200.000	-0.063	-0.364
-142.502	-200.000	-0.060	0.375
-141.487	-118.546	0.249	-0.043
-140.472	224.437	-0.030	-0.048
-139.458	-7.736	0.130	0.086
-138.443	-200.000	0.094	-0.484
-137.429	800.000	-0.053	0.202
-136.414	-200.000	-0.038	0.254
-135.399	-121.480	-0.244	-0.040
-134.385	39.720	0.134	-0.117
-133.370	250.705	0.108	-0.180
-132.356	-200.000	-0.010	0.160
-131.341	279.796	0.060	0.105
-130.326	395.566	-0.010	0.021
-129.312	12.728	0.041	0.031
-128.297	413.216	0.056	-0.117
-127.283	-146.178	-0.166	-0.014
-126.268	-200.000	-0.001	-0.168
-125.253	800.000	0.051	-0.156
-124.239	-134.527	0.308	-0.037
-123.224	17.851	-0.056	-0.044
-122.210	-116.813	-0.404	-0.072
-121.195	-41.590	0.198	-0.099
-120.180	82.293	-0.117	-0.124
-119.166	-159.177	-0.351	-0.019
-118.151	32.762	-0.078	-0.066
-117.137	-91.719	0.160	0.044
-116.122	-154.630	0.116	-0.008
-115.107	260.786	0.147	0.249
-114.093	-200.000	-0.013	0.214
-113.078	800.000	0.024	0.074
-112.064	731.557	0.044	0.114
-111.049	-200.000	-0.022	0.407
-110.034	-200.000	0.043	-0.408
-109.020	260.526	-0.149	-0.251
-108.005	18.002	-0.134	-0.104
-106.991	-200.000	0.060	0.325
-105.976	-101.980	0.144	-0.034
-104.962	586.512	-0.148	-0.357
-103.947	-200.000	-0.001	-0.371
-102.932	-200.000	0.031	0.161
-101.918	-200.000	0.023	0.100
-100.903	-178.432	-0.110	0.002
-99.889	-123.056	-0.106	0.017
-98.874	22.085	0.159	0.127
-97.859	87.360	0.112	-0.121
-96.845	37.644	0.016	-0.014
-95.830	-118.913	-0.081	-0.014
-94.816	7.602	0.153	-0.112
-93.801	-30.956	0.200	-0.110
-92.786	-71.656	-0.227	-0.083
-91.772	800.000	0.036	-0.110
-90.757	70.942	0.186	-0.188
-89.743	-200.000	0.042	-0.272
-88.728	-200.000	-0.254	0.001
-87.713	-120.853	0.322	-0.053
-86.699	-1.838	0.222	-0.153
-85.684	800.000	-0.023	-0.082
-84.670	800.000	-0.023	-0.077
-83.655	-6.739	-0.247	-0.164
-82.640	-60.802	0.244	-0.101
-81.626	-200.000	0.012	-0.081
-80.611	800.000	0.053	-0.152
-79.597	-77.740	-0.425	-0.144
-78.582	-169.033	-0.473	-0.017
-77.567	-200.000	0.210	-0.001
-76.553	-104.816	-0.083	-0.019
-75.538	449.249	0.193	0.416
-74.524	-200.000	0.020	0.091
-73.509	-200.000	-0.012	-0.197
-72.494	188.023	0.043	0.063
-71.480	-54.973	0.078	-0.034
-70.465	800.000	0.040	0.157
-69.451	-61.596	0.465	-0.190
-68.436	800.000	0.114	-0.360
-67.422	-200.000	-0.047	0.203
-66.407	124.481	0.035	0.043
-65.392	-159.164	0.232	0.013
-64.378	98.947	-0.215	-0.242
-63.363	-84.016	0.246	-0.076
-62.349	-44.853	-0.277	0.135
-61.334	189.345	-0.700	-1.023
-60.319	211.113	0.373	0.572
-59.305	68.549	-0.871	-0.871
-58.290	299.802	0.741	1.332
-57.276	383.416	0.767	1.540
-56.261	-200.000	121.590	615.042
-55.246	379.560	1583.084	3162.192
-54.232	139.539	2752.791	3533.563
-53.217	94.492	2209.408	2447.447
-52.203	35.180	1719.977	1469.540
-51.188	27.763	1534.604	1260.116
-50.173	25.675	1510.160	1225.787
-49.159	47.818	1577.229	1435.562
-48.144	45.984	1591.561	1435.737
-47.130	27.755	1542.142	1266.048
-46.115	25.071	1525.706	1234.052
-45.100	24.830	1522.685	1229.901
-44.086	24.750	1520.877	1227.847
-43.071	24.726	1518.974	1226.096
-42.057	24.683	1517.610	1224.649
-41.042	24.633	1515.889	1222.875
-40.027	24.660	1514.576	1221.946
-39.013	24.750	1512.654	1220.963
-37.998	24.636	1511.619	1219.302
-36.984	24.708	1510.359	1218.728
-35.969	24.720	1508.912	1217.592
-34.954	24.663	1507.633	1216.129
-33.940	24.612	1506.162	1214.546
-32.925	24.673	1504.873	1213.871
-31.911	24.718	1503.710	1213.189
-30.896	24.739	1502.227	1212.089
-29.881	24.774	1501.160	1211.418
-28.867	24.778	1499.661	1210.186
-27.852	24.833	1498.169	1209.307
-26.838	24.783	1496.725	1207.753
-25.823	24.688	1495.644	1206.196
-24.809	24.591	1494.057	1204.209
-23.794	24.755	1492.218	1203.783
-22.779	24.603	1491.366	1202.028
-21.765	24.669	1490.220	1201.502
-20.750	24.755	1489.066	1201.101
-19.736	24.732	1487.821	1199.890
-18.721	24.693	1487.122	1199.019
-17.706	24.733	1485.850	1198.218
-16.692	24.674	1485.263	1197.297
-15.677	24.766	1483.609	1196.535
-14.663	24.710	1482.720	1195.398
-13.648	24.616	1482.319	1194.395
-12.633	24.709	1480.827	1193.770
-11.619	24.617	1480.169	1192.578
-10.604	24.713	1479.397	1192.547
-9.590	24.548	1478.699	1190.838
-8.575	24.639	1477.721	1190.611
-7.560	24.695	1476.703	1190.110
-6.546	24.685	1475.770	1189.249
-5.531	24.610	1475.209	1188.249
-4.517	24.701	1473.639	1187.545
-3.502	24.679	1472.346	1186.304
-2.487	24.671	1471.754	1185.732
-1.473	24.669	1470.640	1184.770
-0.458	24.776	1469.176	1184.253
0.556	23.720	1459.645	1173.307
1.571	20.706	1435.551	1134.223
2.586	17.410	1372.289	1063.577
3.600	15.774	1287.301	988.016
4.615	14.683	1242.698	947.511
5.629	12.807	1186.462	894.379
6.644	6.622	1102.719	799.895
7.659	1.506	1065.708	747.859
8.673	0.780	1060.781	740.782
9.688	0.625	1057.627	737.758
10.702	0.777	1055.696	737.086
11.717	0.748	1053.599	735.417
12.731	2.761	1055.003	746.126
13.746	9.215	1063.922	783.942
14.761	15.049	1070.900	817.586
15.775	17.087	1073.246	829.270
16.790	17.034	1072.108	828.059
17.804	16.032	1069.966	821.452
18.819	15.136	1068.019	815.521
19.834	14.655	1066.910	812.266
20.848	14.345	1066.076	810.048
21.863	14.122	1065.009	808.085
22.877	14.084	1063.643	806.789
23.892	13.678	1063.580	804.701
24.907	13.589	1062.745	803.568
25.921	13.585	1061.476	802.518
26.936	13.618	1061.266	802.449
27.950	13.821	1060.036	802.430
28.965	13.699	1059.560	801.406
29.980	13.699	1058.527	800.556
30.994	13.766	1057.739	800.213
32.009	13.840	1056.765	799.759
33.023	13.820	1055.894	798.934
34.038	13.771	1055.603	798.408
35.053	13.859	1054.562	797.975
36.067	13.756	1053.703	796.755
37.082	13.779	1052.520	795.903
38.096	13.823	1051.662	795.394
39.111	13.956	1050.920	795.399
40.126	13.838	1050.237	794.248
41.140	13.821	1048.647	792.892
42.155	13.640	1048.328	791.718
43.169	13.679	1047.285	791.045
44.184	13.689	1046.100	790.129
45.199	13.568	1045.116	788.740
46.213	13.581	1044.495	788.261
47.228	13.542	1043.230	787.052
48.242	13.524	1042.416	786.282
49.257	13.606	1041.534	785.936
50.271	13.746	1040.302	785.604
51.286	13.624	1039.613	784.433
52.301	13.696	1038.988	784.233
53.315	13.800	1037.653	783.646
54.330	13.703	1036.995	782.624
55.344	13.660	1036.166	781.729
56.359	13.689	1034.910	780.847
57.374	13.603	1034.545	780.096
58.388	13.640	1033.465	779.389
59.403	13.706	1032.657	779.022
60.417	13.642	1031.549	777.815
61.432	13.667	1030.987	777.438
62.447	13.530	1031.209	776.896
63.461	13.734	1029.739	776.675
64.476	13.643	1028.707	775.400
65.490	13.612	1028.003	774.655
66.505	13.619	1026.627	773.585
67.520	13.571	1026.246	773.006
68.534	13.630	1025.151	772.387
69.549	13.612	1024.683	771.882
70.563	13.657	1023.900	771.433
71.578	13.649	1023.215	770.812
72.593	13.549	1022.418	769.680
73.607	13.508	1021.346	768.612
74.622	13.574	1020.600	768.292
75.636	13.640	1019.497	767.699
76.651	13.613	1018.898	767.054
77.666	13.658	1017.844	766.401
78.680	13.577	1017.134	765.422
79.695	13.542	1017.207	765.250
80.709	13.582	1016.122	764.548
81.724	13.631	1015.319	764.104
82.739	13.668	1014.705	763.743
83.753	13.595	1014.171	762.941
84.768	13.778	1012.549	762.492
85.782	13.645	1012.395	761.698
86.797	13.820	1011.499	761.759
87.812	13.881	1010.422	761.160
88.826	13.738	1009.849	760.005
89.841	13.735	1009.080	759.349
90.855	13.674	1008.692	758.710
91.870	13.750	1007.836	758.343
92.884	13.817	1007.020	757.969
93.899	13.845	1006.298	757.489
94.914	13.812	1005.323	756.535
95.928	13.880	1004.947	756.497
96.943	14.032	1003.731	756.206
97.957	13.896	1002.639	754.697
98.972	13.713	1002.604	753.772
99.987	13.847	1001.591	753.552
101.001	13.823	1001.007	752.938
102.016	13.770	1000.077	751.933
103.030	13.879	998.843	751.431
104.045	13.898	997.885	750.730
105.060	13.938	996.993	750.175
106.074	13.854	996.280	749.189
107.089	13.804	995.790	748.528
108.103	13.714	994.672	747.220
109.118	13.774	993.966	746.892
110.133	13.697	992.953	745.720
111.147	13.774	991.751	745.097
112.162	13.727	991.110	744.336
113.176	13.940	989.922	744.334
114.191	13.822	989.327	743.292
115.206	13.791	988.332	742.340
116.220	13.844	987.640	741.993
117.235	13.789	987.134	741.299
118.249	13.773	985.865	740.210
119.264	13.828	985.215	739.904
120.279	13.806	984.321	739.067
121.293	13.668	983.639	737.876
122.308	13.865	982.730	738.003
123.322	13.727	981.777	736.611
124.337	13.800	980.576	735.968
125.352	13.694	979.871	734.902
126.366	13.709	978.568	733.930
127.381	13.822	977.130	733.285
128.395	13.820	976.257	732.553
129.410	13.689	975.772	731.546
130.424	13.687	974.876	730.804
131.439	13.763	973.793	730.260
132.454	13.699	973.247	729.506
133.468	13.875	972.227	729.451
134.483	13.948	971.253	728.976
135.497	13.774	970.586	727.648
136.512	13.845	969.960	727.424
137.527	13.696	969.358	726.255
138.541	13.673	969.020	725.836
139.556	13.868	967.755	725.681
140.570	13.917	966.785	725.102
141.585	13.831	966.555	724.488
142.600	13.919	965.858	724.285
143.614	13.947	964.872	723.606
144.629	13.981	964.105	723.114
145.643	14.046	962.970	722.481
146.658	14.106	962.239	722.128
147.673	13.938	961.584	720.842
148.687	14.009	960.574	720.333
149.702	13.935	959.710	719.299
150.716	13.852	958.835	718.220
151.731	14.022	958.051	718.304
152.746	13.952	957.143	717.260
153.760	14.055	956.368	717.056
154.775	13.975	955.733	716.173
155.789	13.951	954.852	715.346
156.804	13.901	954.311	714.664
157.819	14.044	953.673	714.736
158.833	14.051	952.545	713.860
159.848	14.152	952.017	713.832
160.862	14.069	951.531	713.047
161.877	14.060	950.607	712.256
162.892	13.909	950.058	711.134
163.906	14.019	949.048	710.787
164.921	14.018	948.286	710.149
165.935	14.080	947.250	709.573
166.950	14.048	946.397	708.736
167.964	14.064	945.166	707.820
168.979	14.109	944.179	707.211
169.994	14.058	943.334	706.296
171.008	14.082	942.436	705.666
172.023	14.326	941.095	705.631
173.037	14.157	941.117	704.868
174.052	14.205	939.911	704.109
175.067	14.092	939.452	703.221
176.081	14.065	938.866	702.606
177.096	14.066	938.153	702.014
178.110	14.124	936.983	701.325
179.125	14.201	936.259	701.043
180.140	14.277	935.315	700.595
181.154	14.305	934.945	700.374
182.169	14.225	934.703	699.792
183.183	14.297	933.772	699.338
184.198	14.329	932.758	698.651
185.213	14.327	932.465	698.363
186.227	14.491	931.632	698.361
187.242	14.438	931.341	697.861
188.256	14.318	930.457	696.634
189.271	14.464	929.941	696.797
190.286	14.490	929.147	696.249
191.300	14.347	928.110	694.814
192.315	14.301	927.764	694.300
193.329	14.266	927.136	693.624
194.344	14.336	926.028	693.024
195.359	14.409	925.809	693.101
196.373	14.463	925.251	692.848
197.388	14.472	924.855	692.528
198.402	14.361	924.459	691.709
199.417	14.463	923.367	691.252
200.432	14.585	922.915	691.359
201.446	14.614	922.627	691.202
202.461	14.554	922.454	690.765
203.475	14.700	921.740	690.772
204.490	14.695	920.934	690.085
205.504	14.737	919.871	689.401
206.519	14.564	919.313	688.208
207.534	14.609	918.553	687.767
208.548	14.548	917.728	686.835
209.563	14.572	917.191	686.470
210.577	14.565	916.532	685.888
211.592	14.581	915.609	685.203
212.607	14.670	915.460	685.395
213.621	14.747	914.717	685.096
214.636	14.646	914.227	684.254
215.650	14.768	913.637	684.252
216.665	14.791	912.800	683.657
217.680	14.695	912.348	682.866
218.694	14.815	911.560	682.706
219.709	14.886	910.795	682.364
220.723	14.794	910.489	681.698
221.738	14.791	909.596	680.958
222.753	14.721	909.135	680.264
223.767	14.879	908.258	680.191
224.782	14.889	907.285	679.442
225.796	14.803	907.048	678.859
226.811	14.942	905.915	678.512
227.826	14.984	905.538	678.340
228.840	15.042	904.523	677.756
229.855	15.104	903.728	677.351
230.869	14.918	903.262	676.191
231.884	14.984	902.421	675.768
232.899	15.007	901.883	675.396
233.913	15.081	900.887	674.888
234.928	15.054	900.238	674.237
235.942	14.874	900.101	673.349
236.957	15.000	899.296	673.193
237.972	15.011	898.677	672.714
238.986	15.138	897.612	672.367
240.001	15.032	897.058	671.469
241.015	14.932	896.735	670.767
242.030	15.128	895.631	670.664
243.045	15.026	895.053	669.764
244.059	15.070	895.011	669.849
245.074	15.119	894.002	669.232
246.088	15.188	893.028	668.718
247.103	15.182	892.779	668.451
248.117	15.223	892.085	668.033
249.132	15.165	891.597	667.377
250.147	15.260	890.971	667.229
251.161	15.313	890.289	666.869
252.176	15.398	889.707	666.713
253.190	15.347	888.854	665.811
254.205	15.368	888.625	665.664
255.220	15.336	887.961	664.983
256.234	15.364	887.212	664.473
257.249	15.355	886.705	663.997
258.263	15.384	885.936	663.478
259.278	15.454	885.269	663.198
260.293	15.508	884.937	663.102
261.307	15.495	884.406	662.594
262.322	15.642	883.567	662.487
263.336	15.637	883.066	662.032
264.351	15.564	882.227	661.059
265.366	15.565	881.956	660.800
266.380	15.630	881.015	660.294
267.395	15.763	880.108	660.076
268.409	15.788	879.626	659.755
269.424	15.592	878.899	658.382
270.439	15.642	878.176	657.978
271.453	15.697	877.223	657.421
272.468	15.725	876.507	656.938
273.482	15.665	875.917	656.200
274.497	15.662	875.915	656.132
275.512	15.746	875.261	655.912
276.526	15.725	874.257	655.020
277.541	15.789	873.503	654.646
278.555	15.810	872.932	654.238
279.570	15.671	872.838	653.570
280.585	15.907	871.797	653.652
281.599	15.873	871.485	653.225
282.614	15.985	870.489	652.857
283.628	15.925	870.192	652.344
284.643	15.918	869.768	651.940
285.657	15.840	869.406	651.311
286.672	15.798	869.027	650.807
287.687	16.012	868.111	650.890
288.701	16.003	867.728	650.509
289.716	15.990	867.039	649.887
290.730	16.084	866.375	649.693
291.745	16.030	865.471	648.750
292.760	15.988	865.051	648.214
293.774	16.059	864.555	648.058
294.789	16.118	864.000	647.814
295.803	16.092	863.079	646.965
296.818	16.200	862.498	646.887
297.833	16.015	861.877	645.656
298.847	16.116	861.197	645.475
299.862	16.143	860.576	645.055
300.876	16.263	859.615	644.737
301.891	16.177	858.896	643.810
302.906	16.186	858.279	643.326
303.920	16.229	857.843	643.108
304.935	16.152	857.592	642.568
305.949	16.350	856.393	642.368
306.964	16.453	855.524	642.048
307.979	16.308	855.505	641.428
308.993	16.319	855.418	641.348
310.008	16.341	854.273	640.513
311.022	16.455	853.613	640.397
312.037	16.337	853.406	639.736
313.052	16.427	852.881	639.626
314.066	16.317	852.333	638.744
315.081	16.359	851.935	638.545
316.095	16.326	851.133	637.764
317.110	16.324	850.785	637.441
318.125	16.361	849.950	636.896
319.139	16.326	849.402	636.301
320.154	16.383	848.996	636.154
321.168	16.348	848.108	635.299
322.183	16.471	847.703	635.404
323.197	16.331	847.589	634.736
324.212	16.342	846.762	634.101
325.227	16.465	845.875	633.841
326.241	16.507	845.466	633.637
327.256	16.474	845.040	633.136
328.270	16.502	844.337	632.660
329.285	16.496	843.926	632.274
330.300	16.461	843.141	631.498
331.314	16.502	842.767	631.317
332.329	16.521	841.801	630.606
333.343	16.420	841.543	629.982
334.358	16.470	841.266	629.903
335.373	16.719	840.286	630.041
336.387	16.620	839.905	629.332
337.402	16.762	839.426	629.445
338.416	16.612	838.674	628.269
339.431	16.748	838.123	628.303
340.446	16.777	837.747	628.075
341.460	16.722	837.432	627.580
342.475	16.783	836.550	627.087
343.489	16.994	835.517	627.040
344.504	16.949	835.337	626.681
345.519	16.883	834.919	626.069
346.533	16.977	834.016	625.684
347.548	16.948	833.916	625.446
348.562	16.953	833.145	624.830
349.577	16.905	832.806	624.343
350.592	16.812	832.736	623.895
351.606	16.814	832.286	623.510
352.621	16.786	831.709	622.917
353.635	16.835	831.511	622.895
354.650	16.857	830.820	622.405
355.665	16.873	830.301	622.017
356.679	17.087	829.381	622.060
357.694	17.104	829.173	621.911
358.708	17.045	828.740	621.313
359.723	16.991	828.152	620.621
360.738	17.053	827.254	620.118
361.752	17.188	826.840	620.248
362.767	17.082	826.924	619.868
363.781	17.076	826.109	619.181
364.796	17.096	825.696	618.889
365.810	17.159	825.113	618.626
366.825	17.276	824.783	618.749
367.840	17.280	824.655	618.614
368.854	17.380	823.828	618.302
369.869	17.239	823.590	617.557
370.883	17.127	822.801	616.505
371.898	17.245	822.318	616.516
372.913	17.331	821.944	616.494
373.927	17.326	821.056	615.754
374.942	17.352	820.454	615.341
375.956	17.379	819.894	614.967
376.971	17.221	819.763	614.241
377.986	17.576	818.639	614.626
379.000	17.356	818.273	613.504
380.015	17.503	817.604	613.478
381.029	17.470	817.299	613.075
382.044	17.565	816.619	612.853
383.059	17.485	815.994	612.041
384.073	17.454	815.708	611.662
385.088	17.564	814.983	611.459
386.102	17.643	814.348	611.213
387.117	17.555	814.124	610.675
388.132	17.589	813.548	610.311
389.146	17.560	813.300	609.967
390.161	17.481	813.076	609.460
391.175	17.577	812.302	609.170
392.190	17.624	812.306	609.287
393.205	17.524	811.953	608.611
394.219	17.564	811.198	608.134
395.234	17.537	810.572	607.516
396.248	17.581	810.029	607.211
397.263	17.501	809.842	606.732
398.278	17.801	808.689	606.883
399.292	17.558	808.781	606.032
400.307	17.703	808.221	606.076
401.321	17.702	807.720	605.643
402.336	17.619	808.060	605.549
403.350	17.712	807.305	605.260
404.365	17.755	806.403	604.683
405.380	17.783	806.578	604.860
406.394	17.815	805.785	604.325
407.409	17.874	805.157	604.007
408.423	17.945	804.691	603.855
409.438	17.874	804.251	603.224
410.453	17.913	804.004	603.121
411.467	17.888	803.362	602.498
412.482	17.965	803.233	602.621
413.496	17.822	802.466	601.487
414.511	18.028	801.923	601.752
415.526	18.004	801.921	601.615
416.540	18.111	801.129	601.341
417.555	18.000	800.708	600.583
418.569	17.992	800.397	600.267
419.584	18.102	799.954	600.269
420.599	18.121	799.337	599.818
421.613	114.545	1296.763	1486.376
422.628	98.794	1369.197	1486.472
