DTS Sentinel unit serial number:	SN413079Multiplexer serial number:	ORYXHardware model number:	OX4-SRSoftware version number:	ORYX F/W v4.00 Oryx Data Collector v3.7.2.0data status	okinstallation	princeton_trtdifferential loss correction	single-endedforward channel	channel 3reverse channel	N/Adate	2019/09/19time	02:52:35forward acquisition time	60.00reverse acquisition time	0.00gamma	496.2192k internal	0.2348k external	0.2348temperature offset calibration	0.9991default loss term (dB/km)	0.3790temperature slope calibration	1.0000multiplexer offset coefficient	1.0000multiplexer slope coefficient	1.0000fibre end	0.00T internal ref (°C)	20.87T ext. ref 1 (°C)	0.66T ext. ref 2 (°C)	14.72length (m)	temperature (°C)	Stokes	anti-Stokes-747.200	40.124	0.142	-0.127
-746.185	-200.000	0.014	-0.088
-745.171	43.470	0.043	-0.039
-744.156	-47.234	-0.231	0.112
-743.142	-103.603	0.331	0.078
-742.127	237.471	-0.130	0.216
-741.112	1.356	0.042	0.030
-740.098	-161.792	-0.200	0.010
-739.083	246.928	0.070	-0.119
-738.069	79.087	-0.238	0.255
-737.054	278.971	-0.219	0.389
-736.039	-90.215	-0.167	0.048
-735.025	800.000	0.071	0.221
-734.010	-64.964	-0.275	0.111
-732.996	245.346	0.176	-0.295
-731.981	-24.427	-0.346	-0.206
-730.966	-200.000	0.051	0.368
-729.952	218.268	-0.079	0.126
-728.937	55.569	-0.193	0.187
-727.923	-200.000	0.043	-0.224
-726.908	-135.072	-0.288	0.035
-725.894	-44.838	-0.170	-0.085
-724.879	19.325	-0.219	0.176
-723.864	800.000	0.107	-0.357
-722.850	26.411	0.073	-0.061
-721.835	-136.296	0.085	0.010
-720.821	358.441	0.102	-0.203
-719.806	800.000	-0.041	0.168
-718.791	-173.862	0.019	0.001
-717.777	236.394	0.148	0.245
-716.762	-110.909	-0.134	-0.027
-715.748	726.790	0.014	0.038
-714.733	375.599	0.058	-0.118
-713.718	-0.774	-0.092	-0.065
-712.704	46.384	0.114	0.106
-711.689	-95.221	0.089	-0.024
-710.675	-200.000	0.004	0.221
-709.660	97.863	0.199	0.229
-708.645	-200.000	0.002	-0.088
-707.631	249.816	-0.050	0.085
-706.616	-151.529	-0.153	-0.011
-705.602	72.158	0.262	-0.272
-704.587	63.583	-0.251	-0.252
-703.572	800.000	-0.063	-0.269
-702.558	293.125	-0.137	0.250
-701.543	266.208	-0.078	-0.136
-700.529	-141.368	-0.087	-0.009
-699.514	-43.686	0.055	0.028
-698.499	-129.716	-0.242	0.033
-697.485	215.447	0.160	0.254
-696.470	-96.778	0.536	0.141
-695.456	1.245	-0.315	-0.226
-694.441	-2.063	0.179	-0.126
-693.426	-140.907	0.101	-0.010
-692.412	405.290	-0.143	-0.300
-691.397	-200.000	0.027	0.152
-690.383	-92.670	-0.064	0.018
-689.368	-200.000	0.038	0.264
-688.354	2.536	-0.342	0.247
-687.339	-87.354	-0.520	-0.157
-686.324	526.329	-0.090	0.211
-685.310	67.038	0.080	-0.082
-684.295	-200.000	0.023	-0.293
-683.281	64.033	0.147	-0.147
-682.266	-200.000	-0.285	-0.001
-681.251	451.228	-0.126	-0.278
-680.237	-200.000	-0.024	-0.162
-679.222	317.728	0.045	-0.084
-678.208	-31.037	-0.319	-0.179
-677.193	-101.321	-0.251	0.061
-676.178	-200.000	-0.029	-0.306
-675.164	285.697	0.228	-0.410
-674.149	213.534	0.142	0.224
-673.135	-108.929	-0.094	-0.020
-672.120	-95.622	-0.068	-0.018
-671.105	-12.699	-0.071	-0.046
-670.091	65.191	-0.155	-0.156
-669.076	154.628	-0.300	-0.411
-668.062	207.549	0.105	0.164
-667.047	-91.854	0.184	0.052
-666.032	-92.967	-0.088	-0.024
-665.018	26.090	0.472	-0.392
-664.003	-125.874	-0.247	-0.037
-662.989	-48.432	-0.153	-0.073
-661.974	27.699	-0.352	0.295
-660.959	-139.523	0.228	0.024
-659.945	-129.648	0.147	0.020
-658.930	-116.923	0.197	-0.036
-657.916	307.103	0.228	-0.423
-656.901	-90.875	-0.299	-0.086
-655.886	-200.000	-0.041	0.408
-654.872	-132.337	0.261	-0.034
-653.857	66.596	0.113	0.114
-652.843	13.464	0.141	0.109
-651.828	-200.000	-0.054	-0.341
-650.814	-131.488	-0.342	-0.045
-649.799	-200.000	-0.082	0.562
-648.784	-200.000	0.073	-0.349
-647.770	-30.780	-0.063	0.036
-646.755	183.952	-0.044	0.065
-645.741	800.000	0.078	0.286
-644.726	36.848	0.070	0.061
-643.711	-25.495	0.058	0.034
-642.697	-144.220	-0.138	-0.013
-641.682	-53.995	-0.119	-0.054
-640.668	-98.526	0.248	0.063
-639.653	-89.206	0.136	0.040
-638.638	-100.218	0.265	0.065
-637.624	69.996	-0.291	-0.299
-636.609	-63.908	-0.511	-0.208
-635.595	96.586	0.273	0.312
-634.580	61.177	0.056	0.055
-633.565	107.450	0.364	0.431
-632.551	23.149	-0.216	-0.176
-631.536	-129.003	0.281	0.039
-630.522	800.000	0.016	0.051
-629.507	278.381	0.039	0.069
-628.492	186.365	-0.053	0.078
-627.478	-183.405	-0.118	0.002
-626.463	76.481	0.048	-0.051
-625.449	800.000	0.011	-0.032
-624.434	-39.743	-0.171	0.089
-623.419	-172.941	-0.198	-0.006
-622.405	470.709	0.061	0.136
-621.390	-153.180	0.241	-0.017
-620.376	-200.000	0.020	0.122
-619.361	-72.774	-0.397	-0.146
-618.346	800.000	0.055	0.157
-617.332	800.000	-0.066	-0.240
-616.317	5.955	-0.140	0.103
-615.303	24.839	0.323	-0.267
-614.288	-82.965	-0.300	-0.096
-613.273	800.000	0.039	-0.146
-612.259	-8.157	-0.144	-0.097
-611.244	114.346	-0.247	-0.299
-610.230	12.747	-0.175	-0.135
-609.215	-134.049	0.260	-0.032
-608.201	45.275	-0.093	0.086
-607.186	510.917	-0.102	0.236
-606.171	52.659	0.163	0.155
-605.157	23.388	0.162	0.132
-604.142	-166.963	0.195	0.008
-603.128	68.295	-0.182	0.185
-602.113	-91.770	-0.078	-0.022
-601.098	-200.000	0.055	0.435
-600.084	191.781	-0.086	0.128
-599.069	-20.078	-0.071	-0.044
-598.055	-200.000	-0.050	0.263
-597.040	-200.000	0.007	0.238
-596.025	-28.747	-0.166	-0.095
-595.011	-52.893	0.191	-0.088
-593.996	22.501	0.168	-0.137
-592.982	-138.696	-0.179	-0.019
-591.967	-200.000	0.020	-0.260
-590.952	-112.734	0.418	0.082
-589.938	-200.000	-0.042	-0.235
-588.923	800.000	0.044	0.186
-587.909	-112.585	0.218	-0.043
-586.894	-61.556	0.273	-0.114
-585.879	-12.147	0.398	-0.259
-584.865	51.805	-0.096	-0.090
-583.850	7.587	0.171	-0.127
-582.836	-94.545	-0.053	-0.014
-581.821	258.136	0.086	0.147
-580.806	-133.823	-0.379	0.047
-579.792	800.000	-0.100	0.278
-578.777	-25.945	0.237	0.138
-577.763	293.789	0.212	0.384
-576.748	-157.584	-0.299	0.018
-575.733	91.532	0.093	-0.104
-574.719	-91.676	-0.101	0.029
-573.704	-200.000	0.060	0.371
-572.690	51.025	0.134	0.126
-571.675	-71.331	0.129	-0.048
-570.661	800.000	-0.073	-0.307
-569.646	451.460	0.074	-0.162
-568.631	-200.000	0.004	-0.339
-567.617	-200.000	-0.017	-0.127
-566.602	-87.656	-0.300	0.090
-565.588	-200.000	-0.022	0.202
-564.573	300.894	-0.034	0.062
-563.558	-131.827	0.147	-0.019
-562.544	22.042	-0.079	0.064
-561.529	-49.578	-0.190	-0.090
-560.515	-200.000	-0.002	-0.026
-559.500	800.000	-0.041	-0.114
-558.485	-145.257	0.238	0.021
-557.471	23.524	-0.249	0.203
-556.456	-84.142	-0.388	-0.122
-555.442	354.791	0.018	0.036
-554.427	800.000	-0.035	-0.109
-553.412	-200.000	0.043	-0.236
-552.398	-200.000	0.030	-0.149
-551.383	114.901	-0.106	-0.128
-550.369	-78.652	-0.214	-0.073
-549.354	-130.347	-0.159	-0.021
-548.339	-7.338	-0.194	0.130
-547.325	-30.800	-0.340	-0.190
-546.310	-15.318	-0.257	0.163
-545.296	550.828	0.008	-0.020
-544.281	-63.050	0.105	-0.043
-543.266	82.592	-0.206	-0.222
-542.252	-176.781	0.107	-0.003
-541.237	-63.386	0.203	-0.083
-540.223	-121.812	0.019	0.003
-539.208	-6.202	-0.133	0.090
-538.193	-200.000	0.024	-0.328
-537.179	69.040	0.140	-0.143
-536.164	-107.943	0.054	0.012
-535.150	181.274	-0.132	0.192
-534.135	-109.213	-0.256	-0.054
-533.121	-175.607	0.030	0.001
-532.106	-93.022	-0.257	0.071
-531.091	800.000	-0.039	0.110
-530.077	-118.771	0.354	0.062
-529.062	800.000	-0.063	-0.251
-528.048	57.910	0.196	-0.190
-527.033	800.000	-0.072	0.264
-526.018	-200.000	-0.005	0.188
-525.004	-34.630	0.056	-0.031
-523.989	240.736	-0.075	-0.124
-522.975	688.179	-0.034	0.087
-521.960	216.239	-0.126	0.198
-520.945	-125.885	0.149	-0.022
-519.931	330.078	-0.130	-0.249
-518.916	-147.047	0.191	0.016
-517.902	1.099	-0.061	-0.043
-516.887	-43.755	0.061	-0.031
-515.872	97.197	-0.017	0.020
-514.858	-200.000	-0.024	-0.185
-513.843	-151.288	0.111	-0.008
-512.829	197.593	-0.191	0.289
-511.814	-43.427	0.033	-0.017
-510.799	269.486	-0.145	-0.253
-509.785	150.249	-0.092	0.124
-508.770	141.594	0.173	0.227
-507.756	455.317	-0.074	-0.161
-506.741	205.099	0.069	-0.106
-505.726	-24.787	0.115	0.067
-504.712	-106.242	-0.067	-0.015
-503.697	-117.476	0.194	0.035
-502.683	-25.045	-0.459	-0.269
-501.668	653.508	0.066	0.168
-500.653	800.000	-0.050	-0.213
-499.639	-200.000	-0.040	0.230
-498.624	-123.847	-0.234	0.037
-497.610	795.177	0.024	0.066
-496.595	-149.667	-0.094	-0.007
-495.581	9.028	0.279	0.209
-494.566	-64.105	-0.169	-0.068
-493.551	-102.610	0.066	-0.016
-492.537	-200.000	-0.016	-0.422
-491.522	-38.772	0.517	-0.270
-490.508	-200.000	0.003	-0.177
-489.493	-108.159	0.129	0.028
-488.478	-105.991	0.263	0.059
-487.464	800.000	-0.103	0.411
-486.449	438.356	0.082	-0.178
-485.435	-38.520	-0.227	0.118
-484.420	-141.031	0.415	-0.042
-483.405	82.519	0.084	-0.090
-482.391	-113.828	-0.178	0.034
-481.376	77.429	0.204	-0.215
-480.362	800.000	-0.058	0.239
-479.347	-69.723	0.062	0.024
-478.332	-200.000	-0.075	-0.366
-477.318	-200.000	-0.019	-0.108
-476.303	-51.925	0.286	-0.131
-475.289	-107.100	0.221	-0.048
-474.274	-26.619	0.122	-0.071
-473.259	-131.626	-0.281	-0.037
-472.245	531.533	0.125	-0.292
-471.230	-102.086	-0.141	-0.034
-470.216	-45.770	-0.180	0.088
-469.201	-79.582	0.197	0.066
-468.186	-200.000	-0.050	-0.405
-467.172	36.441	-0.288	-0.251
-466.157	-200.000	-0.004	0.236
-465.143	-100.967	-0.387	-0.094
-464.128	-111.176	0.199	0.040
-463.113	-200.000	0.039	0.417
-462.099	-200.000	0.015	-0.302
-461.084	800.000	0.030	-0.085
-460.070	66.677	0.184	-0.185
-459.055	-87.876	0.340	-0.101
-458.040	292.376	-0.117	-0.211
-457.026	-54.338	-0.305	0.137
-456.011	-76.525	-0.110	-0.038
-454.997	279.903	0.147	0.259
-453.982	540.529	-0.040	-0.094
-452.968	800.000	-0.080	-0.236
-451.953	157.885	-0.112	0.153
-450.938	-39.054	-0.308	-0.160
-449.924	-123.380	-0.249	-0.039
-448.909	-133.593	0.236	0.029
-447.895	308.380	-0.156	-0.288
-446.880	-102.738	-0.237	-0.056
-445.865	16.792	0.193	-0.151
-444.851	800.000	0.048	-0.197
-443.836	-96.135	0.185	-0.048
-442.822	800.000	-0.056	-0.157
-441.807	-40.173	-0.303	-0.156
-440.792	-123.504	-0.200	0.031
-439.778	-62.851	-0.567	0.232
-438.763	706.853	-0.090	0.236
-437.749	1.332	0.090	0.064
-436.734	261.551	-0.075	-0.128
-435.719	-33.789	0.328	0.178
-434.705	-33.738	0.284	-0.155
-433.690	-180.139	0.210	0.004
-432.676	100.651	-0.127	-0.145
-431.661	2.507	-0.140	-0.100
-430.646	-61.497	0.154	0.064
-429.632	-107.623	-0.198	0.043
-428.617	-79.443	0.283	0.094
-427.603	142.579	0.150	0.196
-426.588	66.045	0.309	0.309
-425.573	271.630	0.093	-0.161
-424.559	178.516	0.092	-0.133
-423.544	-200.000	0.015	0.110
-422.530	-200.000	0.031	0.161
-421.515	58.925	-0.127	0.123
-420.500	132.320	0.257	-0.327
-419.486	-127.638	0.185	-0.026
-418.471	800.000	-0.052	0.155
-417.457	-155.088	0.215	-0.014
-416.442	-124.022	-0.220	0.034
-415.428	-120.328	-0.315	-0.053
-414.413	-114.806	-0.150	0.028
-413.398	80.665	0.185	0.196
-412.384	-55.022	-0.251	-0.111
-411.369	-118.020	0.117	-0.021
-410.355	22.559	-0.257	0.208
-409.340	48.459	-0.203	0.188
-408.325	-111.148	-0.152	-0.031
-407.311	800.000	-0.081	0.292
-406.296	-27.349	0.144	-0.082
-405.282	-111.717	0.207	0.041
-404.267	800.000	-0.027	0.095
-403.252	748.291	-0.010	-0.026
-402.238	-38.700	-0.339	0.176
-401.223	-49.533	0.212	-0.100
-400.209	67.391	0.088	0.089
-399.194	91.162	0.137	-0.152
-398.179	-159.732	0.069	-0.004
-397.165	-85.564	0.260	-0.080
-396.150	-200.000	0.003	0.177
-395.136	78.181	-0.090	-0.095
-394.121	39.307	0.114	0.101
-393.106	-187.494	0.118	-0.002
-392.092	206.720	-0.196	0.301
-391.077	-168.886	-0.102	-0.004
-390.063	-56.174	0.030	0.013
-389.048	83.498	0.220	-0.236
-388.033	213.312	0.032	-0.050
-387.019	7.282	-0.021	-0.015
-386.004	-21.162	-0.139	0.084
-384.990	-87.894	-0.116	-0.034
-383.975	-68.928	-0.186	-0.071
-382.960	15.981	-0.239	0.186
-381.946	-200.000	-0.030	0.201
-380.931	214.779	0.134	0.209
-379.917	800.000	-0.094	-0.285
-378.902	529.947	-0.094	0.219
-377.888	-126.145	-0.320	-0.047
-376.873	800.000	-0.238	0.660
-375.858	-50.375	0.224	-0.104
-374.844	169.567	-0.154	0.217
-373.829	-107.055	-0.197	0.043
-372.815	127.884	0.097	0.122
-371.800	-86.536	-0.241	0.073
-370.785	-122.632	-0.078	-0.012
-369.771	800.000	-0.064	-0.275
-368.756	224.583	0.148	-0.235
-367.742	800.000	-0.047	0.130
-366.727	-80.868	-0.337	0.110
-365.712	-132.866	-0.177	0.022
-364.698	-20.542	0.413	-0.250
-363.683	-200.000	-0.002	0.138
-362.669	413.244	-0.163	0.341
-361.654	-92.620	0.399	-0.110
-360.639	-96.970	0.275	-0.071
-359.625	152.986	0.206	0.277
-358.610	221.741	0.047	-0.074
-357.596	-200.000	-0.028	-0.225
-356.581	-59.654	0.219	0.093
-355.566	77.674	0.151	-0.158
-354.552	-71.582	0.101	-0.037
-353.537	53.725	0.235	0.222
-352.523	-0.568	0.176	-0.123
-351.508	202.462	-0.206	-0.312
-350.493	-148.004	-0.268	-0.022
-349.479	9.776	-0.069	0.051
-348.464	-200.000	0.014	-0.395
-347.450	164.205	0.089	0.123
-346.435	-110.757	-0.134	-0.027
-345.420	3.701	0.177	0.127
-344.406	-18.564	0.176	0.108
-343.391	373.629	0.096	-0.192
-342.377	139.640	-0.128	-0.166
-341.362	800.000	0.066	0.207
-340.348	-99.147	-0.096	-0.024
-339.333	111.074	0.108	-0.128
-338.318	800.000	-0.080	0.243
-337.304	-57.399	0.194	-0.084
-336.289	-200.000	-0.008	0.178
-335.275	-124.103	0.193	0.030
-334.260	79.508	0.358	-0.377
-333.245	-200.000	-0.020	-0.302
-332.231	-200.000	0.062	0.296
-331.216	-126.221	-0.153	-0.023
-330.202	-200.000	-0.039	0.179
-329.187	-62.524	-0.253	-0.103
-328.172	86.833	0.147	-0.159
-327.158	-200.000	0.067	0.334
-326.143	-51.229	-0.180	0.083
-325.129	114.048	-0.172	-0.206
-324.114	18.327	-0.089	-0.070
-323.099	84.149	-0.043	-0.046
-322.085	395.980	-0.102	0.210
-321.070	449.149	0.089	0.192
-320.056	778.559	-0.061	0.163
-319.041	149.469	-0.052	0.069
-318.026	232.696	-0.139	-0.224
-317.012	468.084	0.098	-0.216
-315.997	-138.497	-0.351	0.038
-314.983	-142.034	0.347	-0.034
-313.968	442.392	0.046	-0.098
-312.953	56.934	0.125	-0.120
-311.939	800.000	0.073	-0.282
-310.924	64.009	0.214	0.212
-309.910	35.797	-0.267	-0.231
-308.895	304.759	-0.047	-0.086
-307.880	-112.871	0.220	0.043
-306.866	-122.612	-0.443	-0.071
-305.851	-200.000	-0.002	0.120
-304.837	800.000	0.108	0.305
-303.822	29.600	-0.121	-0.101
-302.807	-53.216	0.124	0.056
-301.793	-200.000	-0.008	0.071
-300.778	114.776	0.105	-0.126
-299.764	-97.855	-0.279	0.071
-298.749	-104.192	0.184	-0.042
-297.735	-200.000	-0.023	0.133
-296.720	408.701	-0.058	-0.121
-295.705	15.246	0.109	0.084
-294.691	528.650	0.181	0.420
-293.676	800.000	0.105	0.371
-292.662	496.788	0.111	-0.250
-291.647	239.518	0.163	-0.267
-290.632	-30.835	-0.235	0.130
-289.618	-40.999	-0.203	0.103
-288.603	-119.805	0.221	-0.037
-287.589	-74.538	0.221	0.078
-286.574	-200.000	-0.044	-0.297
-285.559	189.272	0.090	-0.132
-284.545	-24.515	0.106	0.062
-283.530	240.289	0.065	0.106
-282.516	18.208	0.103	0.080
-281.501	-174.555	0.214	-0.006
-280.486	800.000	0.010	0.039
-279.472	224.942	0.141	0.223
-278.457	49.105	-0.285	-0.263
-277.443	-200.000	-0.010	-0.365
-276.428	-157.407	-0.257	-0.015
-275.413	-21.945	0.106	-0.063
-274.399	800.000	0.045	0.139
-273.384	800.000	0.025	-0.070
-272.370	-200.000	0.008	-0.045
-271.355	-86.702	0.394	0.118
-270.340	-200.000	0.032	-0.185
-269.326	800.000	0.200	0.567
-268.311	-30.531	0.086	-0.048
-267.297	-200.000	-0.023	-0.269
-266.282	-59.571	-0.268	0.113
-265.267	185.365	-0.219	-0.318
-264.253	-200.000	-0.040	0.203
-263.238	-55.053	-0.164	0.072
-262.224	-43.870	0.174	0.086
-261.209	178.633	-0.123	0.176
-260.195	10.292	0.037	-0.027
-259.180	-42.129	0.055	-0.028
-258.165	800.000	0.027	-0.113
-257.151	-23.176	0.138	0.082
-256.136	-200.000	-0.002	0.063
-255.122	33.973	0.317	0.270
-254.107	67.219	0.133	0.133
-253.092	800.000	-0.024	0.103
-252.078	-86.377	-0.163	0.049
-251.063	429.081	-0.047	0.099
-250.049	80.223	0.200	0.211
-249.034	78.336	-0.247	0.259
-248.019	-200.000	-0.008	-0.201
-247.005	-94.177	-0.248	-0.067
-245.990	-200.000	0.080	-0.411
-244.976	-4.551	0.144	-0.098
-243.961	-200.000	0.004	-0.065
-242.946	-7.214	0.051	-0.034
-241.932	-181.674	0.116	0.002
-240.917	459.663	0.134	0.292
-239.903	100.408	-0.317	-0.361
-238.888	-200.000	0.012	0.201
-237.873	121.482	0.198	0.242
-236.859	-31.385	0.293	-0.161
-235.844	74.099	-0.201	0.207
-234.830	96.239	0.124	-0.139
-233.815	11.678	0.417	-0.313
-232.800	288.104	0.230	0.407
-231.786	-132.800	0.110	0.014
-230.771	240.066	0.101	0.165
-229.757	-124.179	-0.134	0.021
-228.742	-116.464	0.186	0.034
-227.727	537.384	-0.128	-0.297
-226.713	158.657	-0.180	-0.244
-225.698	424.051	-0.080	-0.168
-224.684	103.114	-0.331	0.379
-223.669	5.384	0.271	0.196
-222.655	-200.000	-0.016	0.374
-221.640	-33.466	-0.209	0.113
-220.625	800.000	-0.081	0.286
-219.611	-4.766	0.093	0.063
-218.596	-200.000	-0.008	-0.172
-217.582	800.000	0.122	0.352
-216.567	-200.000	-0.014	0.352
-215.552	541.951	-0.111	0.259
-214.538	101.498	-0.204	-0.233
-213.523	-60.821	0.078	-0.032
-212.509	166.623	-0.167	0.231
-211.494	-200.000	0.039	-0.192
-210.479	182.272	0.093	0.135
-209.465	-122.353	-0.272	-0.043
-208.450	31.849	0.070	0.059
-207.436	-38.303	0.152	0.079
-206.421	-25.764	0.141	0.081
-205.406	-200.000	0.038	0.518
-204.392	349.420	0.077	-0.149
-203.377	-200.000	0.024	-0.278
-202.363	54.779	-0.255	0.241
-201.348	166.879	0.144	-0.200
-200.333	35.085	0.196	-0.168
-199.319	-140.146	0.355	-0.037
-198.304	771.084	-0.088	-0.235
-197.290	-119.934	0.337	-0.057
-196.275	-200.000	0.030	-0.153
-195.260	-65.194	-0.049	-0.019
-194.246	-200.000	-0.086	0.414
-193.231	273.361	0.038	0.066
-192.217	380.119	0.085	-0.170
-191.202	105.713	-0.260	0.301
-190.187	-1.574	0.175	-0.120
-189.173	148.183	-0.143	-0.189
-188.158	-200.000	0.023	-0.306
-187.144	-110.528	-0.231	-0.047
-186.129	-145.191	-0.282	-0.025
-185.114	-7.344	0.077	-0.051
-184.100	101.586	-0.011	0.013
-183.085	330.784	-0.115	-0.216
-182.071	645.165	-0.104	0.260
-181.056	112.040	0.063	0.074
-180.042	-153.952	-0.217	0.014
-179.027	59.159	-0.093	0.090
-178.012	10.818	0.260	-0.194
-176.998	-200.000	-0.018	-0.084
-175.983	264.127	0.272	-0.462
-174.969	-200.000	-0.023	0.218
-173.954	105.579	-0.226	0.261
-172.939	800.000	-0.044	-0.185
-171.925	-11.037	0.042	0.027
-170.910	-200.000	-0.012	-0.456
-169.896	-19.434	-0.142	0.086
-168.881	-161.129	-0.223	0.011
-167.866	-27.223	-0.070	0.040
-166.852	328.707	0.075	-0.141
-165.837	-20.958	-0.185	-0.111
-164.823	-52.985	-0.327	-0.147
-163.808	70.475	-0.067	-0.068
-162.793	-72.057	0.068	-0.024
-161.779	166.402	0.195	-0.270
-160.764	-54.241	-0.203	-0.090
-159.750	244.877	0.086	0.142
-158.735	-17.523	0.088	-0.054
-157.720	-44.935	0.251	-0.122
-156.706	-200.000	-0.000	-0.104
-155.691	-200.000	-0.001	-0.266
-154.677	800.000	0.028	-0.105
-153.662	-23.225	-0.042	-0.024
-152.647	522.826	-0.023	0.054
-151.633	108.145	-0.200	0.233
-150.618	-59.771	0.149	0.062
-149.604	105.545	-0.174	-0.201
-148.589	7.190	0.288	-0.210
-147.574	-60.603	0.195	0.081
-146.560	800.000	0.019	0.067
-145.545	155.710	0.069	-0.092
-144.531	-34.228	0.009	0.005
-143.516	19.640	-0.161	0.126
-142.502	18.326	-0.296	0.231
-141.487	-56.268	-0.304	0.132
-140.472	-65.326	0.123	0.048
-139.458	800.000	-0.007	0.027
-138.443	800.000	-0.082	0.262
-137.429	-46.137	0.178	0.086
-136.414	90.934	0.091	0.099
-135.399	326.779	-0.115	0.216
-134.385	800.000	-0.073	0.296
-133.370	-76.097	0.113	-0.039
-132.356	70.469	-0.283	-0.286
-131.341	175.719	0.320	-0.453
-130.326	270.132	0.088	-0.151
-129.312	-200.000	-0.063	-0.358
-128.297	51.994	0.137	0.127
-127.283	234.543	0.087	-0.140
-126.268	436.448	-0.087	-0.185
-125.253	124.903	-0.045	0.055
-124.239	-81.296	-0.150	0.048
-123.224	-200.000	-0.024	-0.150
-122.210	177.880	0.108	0.154
-121.195	-85.663	0.109	-0.033
-120.180	-133.991	0.356	0.043
-119.166	-81.302	0.200	0.064
-118.151	-108.633	0.133	-0.028
-117.137	199.042	0.126	0.188
-116.122	83.654	0.147	0.156
-115.107	207.947	0.121	0.184
-114.093	-78.997	0.189	-0.063
-113.078	100.819	-0.325	-0.368
-112.064	800.000	-0.066	-0.181
-111.049	-70.203	0.164	-0.061
-110.034	187.849	0.057	-0.083
-109.020	800.000	0.090	-0.284
-108.005	-67.947	-0.493	-0.188
-106.991	800.000	-0.126	-0.357
-105.976	196.892	-0.160	0.237
-104.962	174.737	0.114	-0.160
-103.947	72.990	-0.131	0.134
-102.932	-107.634	-0.033	-0.007
-101.918	-20.869	-0.429	0.256
-100.903	800.000	0.040	-0.155
-99.889	-108.991	0.125	-0.026
-98.874	161.728	0.225	0.307
-97.859	-123.282	0.054	-0.008
-96.845	-22.116	-0.060	0.036
-95.830	-200.000	0.039	0.231
-94.816	134.803	-0.075	-0.095
-93.801	-200.000	-0.012	-0.073
-92.786	115.769	0.189	0.226
-91.772	-65.432	-0.308	0.120
-90.757	744.279	-0.047	-0.122
-89.743	58.850	0.059	-0.057
-88.728	-143.041	-0.127	0.012
-87.713	-14.259	-0.068	0.043
-86.699	-88.636	-0.162	-0.047
-85.684	-104.673	-0.224	-0.050
-84.670	-54.168	0.166	-0.074
-83.655	-105.017	0.147	0.033
-82.640	-126.029	0.170	0.025
-81.626	202.331	-0.166	0.250
-80.611	-200.000	-0.047	0.364
-79.597	-200.000	-0.049	0.294
-78.582	-109.244	0.272	-0.056
-77.567	71.256	-0.077	0.078
-76.553	800.000	-0.039	-0.136
-75.538	-117.551	-0.139	0.024
-74.524	591.426	-0.102	0.245
-73.509	800.000	-0.035	-0.130
-72.494	-70.204	0.246	0.091
-71.480	9.993	0.194	-0.144
-70.465	800.000	-0.009	0.030
-69.451	386.181	0.079	-0.158
-68.436	103.163	0.167	-0.191
-67.422	638.386	-0.077	0.190
-66.407	-62.500	-0.189	-0.076
-65.392	-119.941	-0.117	-0.020
-64.378	-121.380	-0.054	0.009
-63.363	-200.000	0.021	0.116
-62.349	-19.150	-0.314	-0.190
-61.334	90.061	-1.290	-1.403
-60.319	69.476	0.815	0.816
-59.305	800.000	-0.480	-1.406
-58.290	800.000	0.652	1.771
-57.276	366.546	0.832	1.632
-56.261	-200.000	135.949	684.267
-55.246	340.152	1679.303	3186.483
-54.232	134.826	2802.220	3538.530
-53.217	86.980	2194.415	2357.455
-52.203	30.983	1711.358	1426.485
-51.188	23.907	1535.261	1230.875
-50.173	22.099	1514.132	1201.531
-49.159	46.428	1589.977	1433.878
-48.144	43.026	1599.191	1418.235
-47.130	23.926	1548.397	1241.341
-46.115	21.099	1532.603	1209.072
-45.100	20.915	1528.840	1204.780
-44.086	20.887	1527.306	1203.332
-43.071	20.869	1525.407	1201.666
-42.057	20.839	1523.790	1200.136
-41.042	20.807	1522.823	1199.109
-40.027	20.791	1520.695	1197.272
-39.013	20.717	1519.124	1195.481
-37.998	20.828	1518.103	1195.392
-36.984	20.773	1517.239	1194.289
-35.969	20.933	1515.153	1193.691
-34.954	20.703	1514.608	1191.642
-33.940	20.734	1513.264	1190.747
-32.925	20.809	1511.261	1189.634
-31.911	20.876	1510.268	1189.267
-30.896	20.909	1508.429	1187.995
-29.881	20.923	1507.440	1187.267
-28.867	21.028	1505.684	1186.552
-27.852	20.962	1504.841	1185.391
-26.838	20.956	1503.727	1184.423
-25.823	21.023	1501.490	1183.067
-24.809	20.996	1500.059	1181.712
-23.794	20.926	1499.184	1180.501
-22.779	20.869	1498.135	1179.244
-21.765	20.899	1496.887	1178.418
-20.750	20.939	1496.227	1178.123
-19.736	20.868	1495.276	1176.848
-18.721	20.985	1493.589	1176.258
-17.706	20.866	1493.053	1174.988
-16.692	20.888	1491.794	1174.103
-15.677	20.960	1490.525	1173.537
-14.663	20.894	1489.603	1172.320
-13.648	20.859	1489.013	1171.578
-12.633	20.903	1487.587	1170.701
-11.619	20.781	1487.092	1169.450
-10.604	20.861	1485.970	1169.057
-9.590	20.893	1484.953	1168.425
-8.575	20.855	1484.508	1167.771
-7.560	20.795	1483.511	1166.540
-6.546	20.846	1482.193	1165.797
-5.531	20.926	1481.262	1165.556
-4.517	20.889	1480.555	1164.707
-3.502	20.810	1479.453	1163.265
-2.487	20.843	1477.942	1162.249
-1.473	20.813	1477.138	1161.376
-0.458	20.952	1476.026	1161.378
0.556	19.772	1466.581	1148.869
1.571	16.750	1441.744	1109.548
2.586	13.306	1379.236	1039.727
3.600	11.829	1293.803	966.522
4.615	10.994	1250.210	929.107
5.629	9.802	1193.011	880.025
6.644	5.109	1112.575	796.703
7.659	1.234	1077.772	752.520
8.673	0.762	1072.609	746.518
9.688	0.650	1069.680	743.862
10.702	0.664	1068.192	742.827
11.717	0.554	1066.003	740.702
12.731	2.177	1065.944	748.551
13.746	7.726	1073.271	780.949
14.761	14.055	1082.033	818.508
15.775	16.985	1085.337	835.381
16.790	16.878	1084.016	833.768
17.804	16.037	1082.013	828.022
18.819	15.053	1080.240	821.765
19.834	14.635	1078.642	818.428
20.848	14.529	1077.635	817.073
21.863	14.029	1077.134	814.170
22.877	13.876	1076.378	812.778
23.892	13.807	1075.085	811.389
24.907	13.717	1073.986	810.049
25.921	13.714	1073.656	809.714
26.936	13.654	1073.184	808.993
27.950	13.683	1072.307	808.403
28.965	13.778	1071.689	808.327
29.980	13.822	1070.589	807.644
30.994	13.880	1069.261	806.852
32.009	13.893	1068.627	806.363
33.023	13.846	1068.072	805.644
34.038	14.037	1067.115	805.777
35.053	13.884	1066.629	804.601
36.067	13.836	1065.817	803.682
37.082	13.790	1064.691	802.542
38.096	13.807	1064.200	802.182
39.111	13.868	1063.249	801.688
40.126	13.932	1062.006	800.990
41.140	13.749	1061.378	799.562
42.155	13.698	1060.482	798.569
43.169	13.612	1059.789	797.563
44.184	13.637	1058.939	796.973
45.199	13.626	1057.618	795.857
46.213	13.648	1056.210	794.831
47.228	13.607	1055.473	794.013
48.242	13.789	1053.953	793.666
49.257	13.826	1052.899	792.979
50.271	13.770	1052.358	792.234
51.286	13.777	1051.394	791.472
52.301	13.811	1050.691	791.035
53.315	13.731	1050.033	790.092
54.330	13.822	1049.193	789.823
55.344	13.712	1048.426	788.651
56.359	13.734	1047.338	787.868
57.374	13.781	1046.372	787.294
58.388	13.793	1045.275	786.456
59.403	13.740	1044.488	785.543
60.417	13.818	1043.613	785.184
61.432	13.765	1043.043	784.434
62.447	13.769	1042.694	784.123
63.461	13.765	1041.667	783.261
64.476	13.729	1040.513	782.156
65.490	13.552	1039.865	780.764
66.505	13.600	1039.429	780.595
67.520	13.661	1038.384	780.027
68.534	13.655	1037.662	779.386
69.549	13.742	1036.814	779.093
70.563	13.715	1036.195	778.432
71.578	13.701	1035.467	777.750
72.593	13.605	1034.351	776.389
73.607	13.499	1033.660	775.310
74.622	13.619	1032.260	774.753
75.636	13.528	1031.837	773.940
76.651	13.705	1030.197	773.468
77.666	13.509	1030.133	772.437
78.680	13.572	1029.182	771.948
79.695	13.626	1028.661	771.741
80.709	13.703	1027.850	771.422
81.724	13.662	1027.316	770.763
82.739	13.792	1026.012	770.320
83.753	13.654	1025.629	769.323
84.768	13.706	1024.932	768.971
85.782	13.789	1023.845	768.473
86.797	13.907	1023.125	768.411
87.812	13.870	1022.629	767.799
88.826	13.789	1021.458	766.479
89.841	13.832	1020.806	766.118
90.855	13.701	1020.107	764.923
91.870	13.804	1019.083	764.564
92.884	13.869	1018.160	764.102
93.899	13.813	1018.284	763.869
94.914	13.936	1016.826	763.272
95.928	13.866	1016.587	762.705
96.943	13.936	1015.217	761.932
97.957	13.950	1014.336	761.267
98.972	13.828	1013.714	760.175
99.987	13.840	1012.685	759.389
101.001	13.800	1012.245	758.811
102.016	13.833	1011.762	758.529
103.030	13.854	1010.423	757.555
104.045	13.717	1010.150	756.661
105.060	13.925	1008.174	756.061
106.074	13.816	1007.760	755.187
107.089	13.859	1006.723	754.538
108.103	13.847	1005.828	753.747
109.118	13.835	1004.529	752.650
110.133	13.727	1004.216	751.859
111.147	13.773	1003.333	751.340
112.162	13.776	1002.273	750.494
113.176	13.797	1001.167	749.696
114.191	13.801	1000.651	749.260
115.206	13.902	999.487	748.777
116.220	13.827	998.884	747.920
117.235	13.716	998.131	746.790
118.249	13.780	997.305	746.397
119.264	13.931	995.874	745.936
120.279	13.798	995.578	745.053
121.293	13.699	994.787	743.949
122.308	13.704	994.185	743.456
123.322	13.810	992.521	742.621
124.337	13.842	991.758	742.129
125.352	13.687	990.732	740.602
126.366	13.666	989.755	739.712
127.381	13.822	987.948	738.988
128.395	13.702	987.334	737.930
129.410	13.825	986.118	737.505
130.424	13.770	985.698	736.881
131.439	13.806	984.437	736.033
132.454	13.743	983.899	735.287
133.468	13.760	983.308	734.853
134.483	13.732	982.471	734.039
135.497	13.829	981.832	733.925
136.512	13.871	980.504	733.055
137.527	13.861	980.331	732.814
138.541	13.885	979.318	732.100
139.556	13.758	978.832	731.112
140.570	13.815	977.917	730.614
141.585	13.882	977.103	730.235
142.600	13.942	976.497	729.985
143.614	13.914	975.827	729.294
144.629	13.945	974.974	728.728
145.643	14.033	974.132	728.419
146.658	14.002	973.370	727.651
147.673	13.989	972.367	726.779
148.687	13.829	971.604	725.446
149.702	13.998	970.303	725.145
150.716	13.880	969.774	724.173
151.731	13.944	968.824	723.678
152.746	13.921	968.373	723.179
153.760	13.838	967.641	722.207
154.775	13.973	966.588	721.943
155.789	14.021	966.022	721.666
156.804	14.031	965.216	721.042
157.819	14.057	964.270	720.385
158.833	13.973	963.643	719.488
159.848	14.080	962.655	719.149
160.862	14.193	962.207	719.238
161.877	14.139	961.458	718.384
162.892	14.036	960.501	717.159
163.906	14.059	959.684	716.585
164.921	14.004	959.193	715.917
165.935	14.090	957.688	715.103
166.950	14.257	956.633	714.967
167.964	14.163	955.937	713.983
168.979	14.222	955.014	713.484
169.994	14.181	953.572	712.168
171.008	14.022	953.638	711.472
172.023	14.100	952.554	710.932
173.037	14.243	951.901	710.994
174.052	14.370	950.706	710.580
175.067	14.146	950.073	709.089
176.081	14.276	949.159	708.899
177.096	14.197	948.487	707.996
178.110	14.212	947.731	707.436
179.125	14.247	946.770	706.805
180.140	14.244	946.332	706.401
181.154	14.309	945.347	705.878
182.169	14.239	944.762	705.083
183.183	14.281	944.573	705.059
184.198	14.327	943.668	704.514
185.213	14.359	942.927	704.035
186.227	14.291	942.331	703.239
187.242	14.298	942.136	703.061
188.256	14.470	940.937	702.830
189.271	14.380	940.099	701.764
190.286	14.539	939.426	701.869
191.300	14.382	938.569	700.505
192.315	14.266	938.032	699.554
193.329	14.257	937.385	698.974
194.344	14.392	936.480	698.803
195.359	14.292	936.146	698.073
196.373	14.441	935.600	698.225
197.388	14.473	934.963	697.823
198.402	14.599	934.437	697.898
199.417	14.648	934.138	697.818
200.432	14.630	933.214	696.990
201.446	14.659	933.352	697.152
202.461	14.680	932.897	696.837
203.475	14.750	932.238	696.575
204.490	14.705	931.426	695.720
205.504	14.610	930.281	694.407
206.519	14.655	929.679	694.082
207.534	14.481	929.052	692.832
208.548	14.667	928.313	692.991
209.563	14.724	927.294	692.406
210.577	14.677	926.541	691.587
211.592	14.616	926.437	691.195
212.607	14.690	926.071	691.170
213.621	14.690	925.010	690.314
214.636	14.743	924.438	690.045
215.650	14.800	923.751	689.707
216.665	14.713	923.435	689.052
217.680	14.830	922.554	688.816
218.694	14.848	922.140	688.518
219.709	14.885	921.590	688.201
220.723	14.889	920.888	687.629
221.738	14.825	920.317	686.882
222.753	14.703	919.533	685.734
223.767	14.796	918.861	685.555
224.782	14.878	917.677	684.946
225.796	14.979	916.709	684.577
226.811	14.983	916.328	684.246
227.826	15.031	915.603	683.841
228.840	14.947	914.998	682.987
229.855	15.013	914.416	682.763
230.869	14.965	913.731	681.994
231.884	15.000	913.015	681.541
232.899	15.069	911.741	680.810
233.913	15.032	911.292	680.266
234.928	14.980	911.158	679.895
235.942	14.971	910.244	679.113
236.957	14.844	910.159	678.477
237.972	14.909	909.121	677.903
238.986	15.003	908.240	677.567
240.001	14.943	907.654	676.830
241.015	14.885	906.909	675.979
242.030	15.086	906.164	676.174
243.045	15.129	905.224	675.589
244.059	15.129	904.716	675.149
245.074	15.265	903.820	674.966
246.088	15.120	903.231	673.887
247.103	15.166	903.353	674.102
248.117	15.185	902.100	673.182
249.132	15.149	901.675	672.663
250.147	15.310	900.844	672.630
251.161	15.240	900.419	671.973
252.176	15.287	899.491	671.407
253.190	15.375	898.953	671.298
254.205	15.397	898.317	670.854
255.220	15.319	897.896	670.168
256.234	15.416	897.154	669.940
257.249	15.501	896.383	669.643
258.263	15.503	895.885	669.220
259.278	15.600	895.209	669.045
260.293	15.592	894.711	668.582
261.307	15.522	894.393	668.005
262.322	15.685	893.767	668.126
263.336	15.576	893.121	667.152
264.351	15.600	892.712	666.882
265.366	15.617	892.060	666.402
266.380	15.612	891.201	665.685
267.395	15.525	890.770	664.958
268.409	15.771	889.276	664.758
269.424	15.754	888.599	664.123
270.439	15.676	888.135	663.410
271.453	15.721	887.535	663.082
272.468	15.730	886.692	662.429
273.482	15.712	886.087	661.846
274.497	15.662	885.294	660.998
275.512	15.847	884.307	660.931
276.526	15.768	884.073	660.388
277.541	15.759	883.276	659.699
278.555	15.751	882.823	659.269
279.570	15.746	882.180	658.712
280.585	15.740	882.116	658.583
281.599	15.858	881.200	658.301
282.614	15.947	880.345	657.952
283.628	15.807	879.998	657.087
284.643	15.848	879.297	656.665
285.657	15.887	878.859	656.433
286.672	15.942	878.312	656.181
287.687	15.910	877.837	655.643
288.701	15.891	877.305	655.112
289.716	16.077	876.523	655.194
290.730	15.902	876.247	654.252
291.745	15.986	875.202	653.737
292.760	16.043	874.126	653.099
293.774	15.967	873.575	652.334
294.789	16.152	873.088	652.628
295.803	16.066	872.575	651.856
296.818	16.071	872.185	651.526
297.833	16.093	871.209	650.822
298.847	16.148	870.639	650.553
299.862	16.057	869.930	649.613
300.876	16.217	869.205	649.633
301.891	16.203	868.739	649.173
302.906	16.144	868.077	648.391
303.920	16.256	867.526	648.354
304.935	16.364	866.672	648.072
305.949	16.316	865.802	647.180
306.964	16.204	865.514	646.479
307.979	16.171	864.696	645.684
308.993	16.254	864.290	645.641
310.008	16.243	864.264	645.525
311.022	16.404	863.099	645.211
312.037	16.410	862.829	644.975
313.052	16.592	861.877	644.899
314.066	16.474	861.454	644.078
315.081	16.322	861.022	643.119
316.095	16.291	860.615	642.638
317.110	16.298	859.980	642.133
318.125	16.323	859.341	641.695
319.139	16.425	858.710	641.555
320.154	16.391	858.168	640.965
321.168	16.317	857.704	640.281
322.183	16.468	857.063	640.317
323.197	16.292	856.900	639.473
324.212	16.572	855.723	639.595
325.227	16.468	855.307	638.837
326.241	16.401	855.176	638.430
327.256	16.267	854.652	637.474
328.270	16.467	853.551	637.350
329.285	16.501	853.124	637.103
330.300	16.455	852.739	636.586
331.314	16.369	851.960	635.626
332.329	16.468	851.143	635.330
333.343	16.545	850.306	634.939
334.358	16.591	850.008	634.834
335.373	16.557	849.733	634.443
336.387	16.651	849.176	634.326
337.402	16.792	848.434	634.243
338.416	16.572	848.061	633.082
339.431	16.716	847.381	633.060
340.446	16.839	846.897	633.099
341.460	16.833	846.136	632.455
342.475	16.862	845.639	632.136
343.489	16.775	845.307	631.507
344.504	16.825	844.582	631.096
345.519	16.876	843.970	630.770
346.533	17.002	843.272	630.664
347.548	16.973	842.924	630.237
348.562	16.819	842.779	629.503
349.577	16.902	841.757	628.992
350.592	16.875	841.268	628.470
351.606	16.859	841.058	628.198
352.621	16.936	840.224	627.806
353.635	16.971	840.038	627.741
354.650	17.077	839.194	627.446
355.665	16.992	839.527	627.323
356.679	16.965	838.766	626.602
357.694	17.043	838.126	626.356
358.708	17.054	837.990	626.238
359.723	16.911	837.101	624.993
360.738	17.021	836.528	624.912
361.752	17.182	836.006	625.061
362.767	17.021	835.615	624.120
363.781	16.939	835.385	623.594
364.796	17.023	834.958	623.527
365.810	17.058	834.223	623.053
366.825	17.310	833.586	623.447
367.840	17.232	833.126	622.760
368.854	17.266	832.763	622.557
369.869	17.152	832.947	622.225
370.883	17.258	831.967	621.824
371.898	17.222	831.459	621.259
372.913	17.438	830.548	621.311
373.927	17.428	830.160	620.928
374.942	17.363	829.355	620.035
375.956	17.368	828.720	619.525
376.971	17.422	828.204	619.279
377.986	17.481	827.845	619.172
379.000	17.419	827.291	618.475
380.015	17.474	827.004	618.406
381.029	17.571	826.007	617.957
382.044	17.463	825.732	617.305
383.059	17.453	825.347	616.929
384.073	17.537	824.643	616.650
385.088	17.514	824.277	616.241
386.102	17.541	823.974	616.056
387.117	17.529	823.261	615.424
388.132	17.356	822.539	614.206
389.146	17.518	822.364	614.607
390.161	17.512	822.027	614.280
391.175	17.507	821.613	613.896
392.190	17.722	820.931	614.105
393.205	17.527	820.763	613.223
394.219	17.648	819.842	612.919
395.234	17.576	819.274	612.181
396.248	17.574	819.272	612.117
397.263	17.531	818.302	611.185
398.278	17.482	818.125	610.822
399.292	17.545	817.692	610.671
400.307	17.448	817.592	610.195
401.321	17.645	816.757	610.221
402.336	17.522	816.795	609.757
403.350	17.618	816.197	609.599
404.365	17.619	815.618	609.116
405.380	17.700	815.089	608.956
406.394	17.802	814.654	608.941
407.409	17.904	813.903	608.691
408.423	17.799	813.324	607.831
409.438	17.859	812.849	607.634
410.453	17.856	812.726	607.478
411.467	17.853	812.572	607.299
412.482	17.871	811.785	606.721
413.496	17.944	811.354	606.605
414.511	18.098	810.556	606.499
415.526	17.996	810.569	606.093
416.540	18.050	810.297	606.029
417.555	18.039	809.768	605.541
418.569	18.035	809.312	605.133
419.584	18.036	808.650	604.585
420.599	18.155	808.319	604.707
421.613	116.004	1300.282	1492.709
422.628	100.338	1371.911	1492.779
