DTS Sentinel unit serial number:	SN413079Multiplexer serial number:	ORYXHardware model number:	OX4-SRSoftware version number:	ORYX F/W v4.00 Oryx Data Collector v3.7.2.0data status	okinstallation	princeton_trtdifferential loss correction	single-endedforward channel	channel 3reverse channel	N/Adate	2019/09/15time	08:36:35forward acquisition time	60.00reverse acquisition time	0.00gamma	496.2192k internal	0.2319k external	0.2319temperature offset calibration	0.9980default loss term (dB/km)	0.3790temperature slope calibration	1.0000multiplexer offset coefficient	1.0000multiplexer slope coefficient	1.0000fibre end	0.00T internal ref (°C)	31.83T ext. ref 1 (°C)	4.99T ext. ref 2 (°C)	29.28length (m)	temperature (°C)	Stokes	anti-Stokes-747.200	-200.000	0.029	0.351
-746.185	-38.262	0.210	0.112
-745.171	800.000	0.093	0.305
-744.156	-59.182	-0.277	0.121
-743.142	-122.847	-0.249	-0.041
-742.127	19.095	0.181	0.147
-741.112	-142.287	-0.206	-0.021
-740.098	800.000	-0.087	0.261
-739.083	30.272	-0.101	0.088
-738.069	292.186	-0.227	0.418
-737.054	-133.688	-0.072	0.009
-736.039	-22.568	-0.217	0.133
-735.025	-42.736	0.212	0.109
-734.010	-158.718	-0.371	-0.022
-732.996	-159.486	-0.264	0.015
-731.981	97.995	-0.208	-0.242
-730.966	-73.108	-0.414	-0.153
-729.952	-83.775	-0.112	0.036
-728.937	-200.000	0.023	-0.306
-727.923	208.087	-0.206	-0.326
-726.908	86.388	-0.264	-0.294
-725.894	-200.000	-0.022	-0.244
-724.879	-152.904	-0.483	-0.035
-723.864	-65.445	0.156	-0.064
-722.850	146.262	-0.068	0.092
-721.835	-200.000	0.027	0.284
-720.821	-124.106	-0.257	0.041
-719.806	-155.013	-0.217	-0.014
-718.791	-98.019	0.068	-0.018
-717.777	-160.375	-0.082	-0.004
-716.762	385.980	-0.018	0.038
-715.748	-133.585	-0.214	-0.027
-714.733	-200.000	0.027	0.229
-713.718	-66.755	-0.164	0.065
-712.704	800.000	0.070	-0.248
-711.689	30.373	-0.258	-0.223
-710.675	252.074	0.090	0.155
-709.660	-70.951	-0.084	-0.032
-708.645	0.990	0.236	-0.171
-707.631	451.643	0.094	0.209
-706.616	-72.711	0.347	0.129
-705.602	-128.446	0.236	-0.034
-704.587	-3.770	-0.156	-0.110
-703.572	-110.242	-0.295	-0.062
-702.558	-18.504	0.177	-0.111
-701.543	-147.228	0.241	0.021
-700.529	-109.201	-0.312	-0.067
-699.514	-200.000	-0.001	-0.045
-698.499	10.601	-0.173	0.133
-697.485	170.405	0.106	-0.154
-696.470	-106.090	0.086	0.019
-695.456	800.000	-0.078	0.288
-694.441	-200.000	0.009	-0.059
-693.426	26.239	0.147	-0.124
-692.412	-79.933	-0.241	-0.082
-691.397	124.831	-0.300	0.382
-690.383	-3.503	-0.241	0.169
-689.368	-200.000	-0.011	0.093
-688.354	-54.144	-0.072	-0.033
-687.339	-127.825	-0.339	0.049
-686.324	-120.644	-0.358	-0.061
-685.310	-113.941	0.199	-0.039
-684.295	-12.750	0.123	-0.081
-683.281	407.301	-0.066	0.141
-682.266	-200.000	0.012	0.148
-681.251	-200.000	-0.094	0.462
-680.237	48.317	0.219	-0.207
-679.222	-200.000	0.003	-0.164
-678.208	24.129	0.169	0.141
-677.193	-40.739	0.116	-0.060
-676.178	-174.225	0.376	0.011
-675.164	352.779	0.080	0.160
-674.149	-200.000	-0.001	0.141
-673.135	-65.590	-0.062	0.025
-672.120	178.347	-0.290	-0.427
-671.105	-200.000	-0.017	-0.089
-670.091	800.000	-0.030	-0.118
-669.076	83.908	-0.263	0.290
-668.062	34.288	-0.171	-0.151
-667.047	137.907	0.151	-0.200
-666.032	-34.700	0.098	-0.054
-665.018	-200.000	-0.049	0.249
-664.003	-127.070	0.402	0.060
-662.989	-12.161	-0.270	0.178
-661.974	552.668	-0.109	-0.263
-660.959	800.000	-0.102	-0.308
-659.945	-112.316	-0.045	-0.009
-658.930	-200.000	0.032	0.205
-657.916	121.911	-0.050	0.063
-656.901	141.618	-0.103	0.137
-655.886	13.760	-0.152	0.119
-654.872	-24.139	0.221	0.133
-653.857	-21.343	-0.067	-0.041
-652.843	25.055	0.116	0.097
-651.828	-134.763	-0.201	-0.025
-650.814	-168.436	0.288	0.011
-649.799	-106.638	-0.093	0.021
-648.784	-6.399	-0.087	-0.060
-647.770	-129.197	-0.222	-0.031
-646.755	245.757	-0.185	0.313
-645.741	-144.632	-0.112	0.010
-644.726	277.324	-0.076	-0.135
-643.711	130.142	-0.129	-0.166
-642.697	-200.000	0.019	-0.180
-641.682	10.099	-0.119	0.091
-640.668	270.273	0.018	0.033
-639.653	-200.000	0.020	-0.128
-638.638	28.002	-0.131	-0.111
-637.624	-144.253	0.415	-0.039
-636.609	-200.000	-0.056	-0.298
-635.595	-138.192	-0.221	-0.025
-634.580	51.006	-0.242	-0.231
-633.565	-119.494	-0.229	0.040
-632.551	109.532	0.053	-0.064
-631.536	115.414	0.102	-0.126
-630.522	800.000	-0.155	0.660
-629.507	-57.634	0.543	-0.240
-628.492	-24.061	-0.188	-0.113
-627.478	674.707	0.035	-0.093
-626.463	800.000	0.056	0.218
-625.449	485.075	-0.150	-0.343
-624.434	-87.054	-0.157	0.048
-623.419	-200.000	-0.085	-0.432
-622.405	-200.000	-0.061	0.280
-621.390	-177.040	-0.096	0.002
-620.376	-143.659	-0.334	-0.032
-619.361	800.000	0.095	0.269
-618.346	-82.180	0.172	0.056
-617.332	800.000	0.087	-0.280
-616.317	-200.000	0.028	-0.355
-615.303	70.728	-0.125	-0.130
-614.288	-200.000	0.003	0.450
-613.273	-27.741	0.096	-0.056
-612.259	33.987	-0.186	0.163
-611.244	-200.000	-0.009	-0.072
-610.230	-84.669	0.222	-0.070
-609.215	-64.466	-0.354	0.145
-608.201	-136.962	0.166	0.019
-607.186	-29.775	-0.153	0.088
-606.171	-95.589	-0.337	-0.091
-605.157	800.000	0.046	0.130
-604.142	562.278	0.091	0.222
-603.128	599.822	-0.068	0.169
-602.113	692.208	0.122	0.321
-601.098	40.170	0.211	-0.191
-600.084	-154.280	-0.297	0.020
-599.069	39.170	0.056	-0.051
-598.055	800.000	-0.060	-0.186
-597.040	-71.030	-0.157	0.060
-596.025	1.323	0.293	-0.212
-595.011	17.752	0.014	-0.011
-593.996	-29.184	0.062	-0.035
-592.982	-47.217	-0.261	0.128
-591.967	-173.885	0.210	-0.006
-590.952	-14.227	-0.069	-0.045
-589.938	25.976	-0.137	0.115
-588.923	-67.655	-0.191	-0.075
-587.909	86.128	0.233	-0.258
-586.894	-200.000	0.027	0.140
-585.879	114.206	-0.195	-0.238
-584.865	-102.627	0.196	-0.047
-583.850	-14.027	0.055	0.036
-582.836	124.099	0.307	0.388
-581.821	-106.972	0.278	0.062
-580.806	375.258	-0.104	0.213
-579.792	-19.198	0.230	0.144
-578.777	-124.636	0.133	0.021
-577.763	211.153	0.047	-0.074
-576.748	-88.124	0.258	0.078
-575.733	-176.998	0.188	-0.005
-574.719	-66.607	0.232	-0.092
-573.704	63.815	-0.114	0.116
-572.690	103.639	-0.112	-0.133
-571.675	-42.517	-0.201	-0.103
-570.661	-200.000	-0.047	0.264
-569.646	-42.565	-0.291	0.149
-568.631	138.258	0.246	0.324
-567.617	-200.000	0.034	-0.267
-566.602	800.000	0.057	0.249
-565.588	33.942	-0.079	0.069
-564.573	-200.000	0.013	-0.086
-563.558	-24.775	-0.273	-0.163
-562.544	800.000	0.057	-0.178
-561.529	-12.549	-0.044	0.029
-560.515	-193.835	-0.118	-0.001
-559.500	16.452	0.262	-0.208
-558.485	280.738	0.132	-0.237
-557.471	584.855	-0.094	-0.232
-556.456	128.535	-0.162	-0.207
-555.442	194.681	0.151	-0.231
-554.427	369.369	-0.144	-0.293
-553.412	25.654	-0.189	0.158
-552.398	-1.700	0.230	-0.163
-551.383	202.600	-0.053	-0.083
-550.369	-80.973	-0.254	-0.084
-549.354	-29.047	-0.225	-0.130
-548.339	-109.379	0.163	0.035
-547.325	-61.205	0.248	0.105
-546.310	26.907	-0.213	0.179
-545.296	-76.388	-0.254	0.090
-544.281	800.000	-0.079	-0.321
-543.266	480.457	0.071	-0.161
-542.252	-90.243	0.101	-0.029
-541.237	-68.832	-0.053	0.021
-540.223	-200.000	0.038	-0.191
-539.208	2.660	0.061	-0.044
-538.193	-145.386	-0.245	0.022
-537.179	800.000	-0.038	-0.148
-536.164	-200.000	0.008	0.141
-535.150	-39.070	0.216	0.114
-534.135	270.283	0.112	0.197
-533.121	-194.752	-0.134	-0.001
-532.106	-200.000	-0.002	-0.203
-531.091	-16.616	0.270	-0.172
-530.077	-66.340	0.270	0.108
-529.062	117.938	-0.153	0.189
-528.048	178.140	-0.043	-0.063
-527.033	-3.725	0.147	-0.103
-526.018	-200.000	-0.012	-0.078
-525.004	-70.201	-0.171	-0.065
-523.989	-95.166	-0.175	0.047
-522.975	-114.419	0.055	0.011
-521.960	-50.097	0.096	-0.045
-520.945	-145.719	0.131	-0.012
-519.931	-105.961	0.203	-0.046
-518.916	135.796	-0.096	0.126
-517.902	-200.000	0.013	0.155
-516.887	-154.246	-0.142	0.010
-515.872	-200.000	-0.007	-0.065
-514.858	171.542	-0.172	-0.248
-513.843	-17.796	0.089	0.056
-512.829	800.000	0.119	0.392
-511.814	-200.000	0.071	0.322
-510.799	147.798	0.223	-0.301
-509.785	-200.000	-0.020	-0.165
-508.770	-200.000	-0.042	0.251
-507.756	25.384	0.058	0.048
-506.741	-37.224	0.076	0.041
-505.726	209.298	-0.106	-0.166
-504.712	148.723	0.339	0.460
-503.697	800.000	0.020	0.074
-502.683	800.000	-0.049	0.150
-501.668	420.949	-0.148	0.319
-500.653	140.821	0.039	0.051
-499.639	800.000	-0.058	-0.178
-498.624	-23.021	-0.066	0.040
-497.610	128.223	0.100	-0.127
-496.595	-7.190	-0.091	-0.062
-495.581	418.592	-0.058	-0.124
-494.566	108.087	0.183	-0.218
-493.551	-200.000	-0.017	0.318
-492.537	-200.000	-0.009	-0.091
-491.522	-200.000	0.017	0.392
-490.508	150.416	0.062	-0.084
-489.493	-119.188	0.214	-0.037
-488.478	-140.325	0.228	-0.024
-487.464	-200.000	-0.248	-0.000
-486.449	155.997	-0.017	-0.023
-485.435	-89.251	-0.338	-0.100
-484.420	-168.944	-0.605	-0.023
-483.405	150.538	0.195	0.266
-482.391	104.131	0.030	-0.036
-481.376	-42.225	-0.248	0.127
-480.362	-62.292	-0.242	-0.101
-479.347	-200.000	0.001	0.017
-478.332	3.411	0.175	0.128
-477.318	557.984	-0.069	-0.166
-476.303	496.979	-0.033	0.077
-475.289	800.000	0.045	-0.186
-474.274	453.823	-0.067	0.148
-473.259	10.226	-0.276	0.210
-472.245	167.227	-0.192	0.273
-471.230	-116.161	0.068	-0.013
-470.216	-124.065	0.113	0.018
-469.201	-200.000	0.062	-0.502
-468.186	-73.342	-0.229	0.084
-467.172	-15.456	0.275	0.176
-466.157	-200.000	0.011	0.147
-465.143	284.735	0.078	0.140
-464.128	-200.000	-0.032	0.305
-463.113	155.222	0.172	0.236
-462.099	520.127	0.036	0.084
-461.084	-200.000	0.031	-0.178
-460.070	-93.175	0.353	0.098
-459.055	800.000	-0.021	-0.073
-458.040	-119.968	0.284	0.049
-457.026	321.595	-0.129	-0.245
-456.011	-147.239	0.191	0.016
-454.997	800.000	0.036	0.145
-453.982	660.616	-0.132	0.339
-452.968	35.924	-0.152	0.134
-451.953	-19.864	-0.162	0.100
-450.938	-200.000	-0.002	-0.406
-449.924	-200.000	-0.033	-0.218
-448.909	-135.206	-0.192	0.023
-447.895	800.000	-0.051	0.217
-446.880	-200.000	0.000	0.045
-445.865	-141.243	-0.194	0.020
-444.851	-156.186	0.091	-0.006
-443.836	-82.297	0.340	-0.111
-442.822	-147.610	-0.018	0.002
-441.807	79.544	0.182	-0.195
-440.792	320.584	-0.088	0.167
-439.778	-200.000	-0.018	-0.258
-438.763	44.295	0.355	0.326
-437.749	336.693	-0.116	0.225
-436.734	163.066	0.115	0.161
-435.719	-49.684	-0.101	0.048
-434.705	199.522	0.207	0.317
-433.690	331.081	0.144	0.278
-432.676	-148.768	0.109	0.009
-431.661	-83.512	-0.337	0.108
-430.646	324.830	-0.095	0.181
-429.632	-200.000	0.002	0.360
-428.617	-200.000	0.028	-0.300
-427.603	-18.761	0.196	-0.122
-426.588	69.711	-0.016	-0.017
-425.573	652.972	-0.119	0.304
-424.559	133.011	-0.125	-0.161
-423.544	87.079	0.117	0.129
-422.530	-56.265	-0.154	0.068
-421.515	-189.788	0.288	-0.003
-420.500	-200.000	-0.005	-0.215
-419.486	-84.615	-0.139	-0.044
-418.471	-23.468	0.044	0.026
-417.457	586.233	0.127	0.312
-416.442	-120.398	-0.161	0.027
-415.428	-180.210	0.057	-0.001
-414.413	161.400	-0.190	0.265
-413.398	-200.000	0.040	0.177
-412.384	605.509	-0.064	0.159
-411.369	-114.553	0.127	-0.024
-410.355	-200.000	0.079	0.352
-409.340	53.295	-0.094	0.090
-408.325	-200.000	0.017	0.151
-407.311	-200.000	0.058	0.334
-406.296	239.005	0.177	-0.293
-405.282	57.454	-0.068	0.066
-404.267	-8.596	0.063	0.042
-403.252	-103.776	0.298	-0.070
-402.238	-175.689	0.261	0.007
-401.223	800.000	0.087	-0.265
-400.209	-200.000	0.009	0.090
-399.194	-28.563	-0.313	-0.180
-398.179	321.451	0.111	0.210
-397.165	450.799	0.057	0.126
-396.150	-37.904	-0.399	0.212
-395.136	80.412	-0.085	-0.091
-394.121	-200.000	0.019	0.111
-393.106	429.071	-0.063	0.135
-392.092	-200.000	0.025	-0.252
-391.077	53.279	0.124	-0.118
-390.063	154.039	0.194	0.265
-389.048	5.834	-0.149	0.110
-388.033	-200.000	-0.064	0.391
-387.019	800.000	-0.037	0.118
-386.004	-200.000	0.017	-0.251
-384.990	95.674	-0.048	0.054
-383.975	52.761	-0.052	0.049
-382.960	-39.443	0.363	0.190
-381.946	414.688	-0.202	0.429
-380.931	-165.170	0.222	0.010
-379.917	26.805	-0.162	0.135
-378.902	-54.133	-0.156	-0.071
-377.888	-176.508	0.108	-0.003
-376.873	183.797	0.119	-0.176
-375.858	-200.000	-0.038	0.263
-374.844	-200.000	0.010	0.194
-373.829	279.487	-0.192	0.342
-372.815	53.284	0.175	-0.168
-371.800	-65.583	-0.264	-0.105
-370.785	267.383	0.098	-0.172
-369.771	165.247	0.335	0.472
-368.756	163.489	0.136	-0.190
-367.742	-172.618	0.277	-0.009
-366.727	-142.523	-0.388	-0.038
-365.712	-200.000	-0.003	0.018
-364.698	-34.215	-0.295	-0.162
-363.683	800.000	0.077	0.238
-362.669	173.940	0.036	0.052
-361.654	-63.460	-0.277	-0.113
-360.639	59.250	0.269	-0.264
-359.625	-54.224	0.110	-0.050
-358.610	-146.858	0.085	-0.007
-357.596	372.787	-0.092	-0.187
-356.581	96.097	0.119	0.135
-355.566	-57.779	-0.221	-0.097
-354.552	-200.000	0.000	-0.049
-353.537	260.547	-0.102	-0.175
-352.523	-58.328	0.236	-0.102
-351.508	-123.851	-0.164	0.026
-350.493	80.861	-0.147	-0.158
-349.479	-200.000	0.030	-0.137
-348.464	620.353	-0.100	-0.251
-347.450	41.570	-0.118	0.107
-346.435	-200.000	0.002	-0.066
-345.420	-200.000	-0.080	0.402
-344.406	434.460	-0.110	-0.237
-343.391	-101.831	-0.241	-0.058
-342.377	-156.657	-0.142	-0.009
-341.362	-174.685	-0.233	0.007
-340.348	-200.000	-0.002	0.238
-339.333	800.000	0.025	-0.098
-338.318	207.590	-0.105	0.163
-337.304	28.473	0.127	-0.107
-336.289	-104.747	0.139	-0.032
-335.275	0.013	0.311	-0.220
-334.260	-18.834	-0.352	-0.218
-333.245	102.522	0.139	0.162
-332.231	420.172	0.102	-0.217
-331.216	-47.599	-0.088	0.043
-330.202	-168.333	-0.434	-0.017
-329.187	-32.910	0.197	0.109
-328.172	271.676	0.056	-0.099
-327.158	-29.654	0.280	-0.159
-326.143	146.636	0.062	0.082
-325.129	-182.142	0.355	-0.007
-324.114	-40.484	0.249	-0.129
-323.099	-100.846	-0.205	-0.050
-322.085	1.149	0.203	-0.145
-321.070	-140.497	0.104	0.011
-320.056	263.945	0.055	-0.096
-319.041	-66.324	-0.466	-0.185
-318.026	263.274	0.109	-0.188
-317.012	-200.000	0.012	-0.081
-315.997	-13.107	0.296	0.192
-314.983	-90.108	0.042	0.012
-313.968	-200.000	-0.052	-0.253
-312.953	385.125	0.125	0.257
-311.939	223.652	-0.106	0.169
-310.924	601.487	0.082	-0.202
-309.910	313.569	0.075	0.141
-308.895	98.672	0.095	-0.109
-307.880	-97.755	0.195	0.050
-306.866	800.000	0.059	-0.183
-305.851	-200.000	-0.012	-0.167
-304.837	800.000	0.075	-0.272
-303.822	486.149	0.062	-0.141
-302.807	-150.611	-0.088	0.007
-301.793	22.194	-0.334	-0.271
-300.778	-90.654	-0.180	0.052
-299.764	-162.126	-0.288	0.014
-298.749	240.185	0.142	-0.235
-297.735	-169.074	0.197	-0.007
-296.720	800.000	0.044	0.157
-295.705	405.825	0.109	-0.229
-294.691	144.424	0.125	-0.166
-293.676	-50.578	0.119	-0.056
-292.662	193.440	-0.066	0.099
-291.647	267.993	0.108	-0.189
-290.632	-142.424	-0.222	0.022
-289.618	133.510	0.122	-0.157
-288.603	25.679	-0.038	-0.032
-287.589	13.452	-0.173	0.134
-286.574	-118.993	0.197	-0.034
-285.559	-111.933	-0.353	0.071
-284.545	-62.271	0.362	0.150
-283.530	-101.546	0.150	0.036
-282.516	800.000	-0.115	-0.394
-281.501	800.000	-0.049	-0.157
-280.486	131.025	0.178	-0.228
-279.472	-125.993	-0.127	-0.019
-278.457	800.000	0.077	0.317
-277.443	116.713	-0.085	-0.104
-276.428	-200.000	-0.049	-0.321
-275.413	-75.523	-0.311	0.110
-274.399	764.897	0.061	0.165
-273.384	-78.233	0.250	0.085
-272.370	-101.563	0.072	-0.017
-271.355	101.738	-0.167	0.194
-270.340	232.139	0.084	-0.137
-269.326	800.000	-0.059	-0.204
-268.311	-158.047	0.331	0.019
-267.297	-200.000	-0.036	0.270
-266.282	-200.000	0.034	-0.372
-265.267	756.318	-0.063	-0.170
-264.253	-104.354	-0.246	0.057
-263.238	14.583	-0.159	-0.124
-262.224	-200.000	-0.006	0.070
-261.209	-200.000	0.019	0.089
-260.195	237.543	-0.189	-0.311
-259.180	147.140	0.311	0.415
-258.165	-156.658	0.294	-0.018
-257.151	-27.316	-0.133	0.077
-256.136	-200.000	-0.355	-0.001
-255.122	282.389	-0.100	-0.177
-254.107	-78.803	0.044	-0.015
-253.092	728.438	-0.041	-0.110
-252.078	-54.104	0.082	0.037
-251.063	-130.853	-0.221	-0.029
-250.049	800.000	-0.054	0.231
-249.034	371.199	-0.063	-0.126
-248.019	-63.412	0.177	-0.072
-247.005	155.814	-0.154	-0.211
-245.990	-97.719	0.228	0.059
-244.976	800.000	0.048	0.150
-243.961	-90.737	-0.150	-0.043
-242.946	63.131	-0.103	-0.102
-241.932	187.926	0.070	0.103
-240.917	-200.000	-0.003	-0.101
-239.903	115.510	0.108	-0.131
-238.888	-200.000	0.024	0.184
-237.873	-200.000	0.011	-0.198
-236.859	-200.000	-0.015	-0.235
-235.844	779.930	0.057	-0.156
-234.830	110.775	0.148	-0.177
-233.815	-78.131	0.046	0.016
-232.800	389.703	0.144	-0.295
-231.786	86.414	0.153	0.167
-230.771	-128.059	-0.605	0.086
-229.757	32.003	-0.245	-0.209
-228.742	101.913	0.435	0.503
-227.727	-79.657	-0.172	0.058
-226.713	587.995	-0.036	0.089
-225.698	151.993	-0.198	0.268
-224.684	298.987	-0.055	-0.100
-223.669	358.376	0.084	-0.166
-222.655	114.007	-0.114	-0.137
-221.640	-200.000	-0.095	-0.465
-220.625	-116.763	0.154	0.028
-219.611	634.589	0.109	0.274
-218.596	309.009	-0.006	-0.010
-217.582	676.403	0.038	-0.098
-216.567	775.739	0.019	0.052
-215.552	-130.008	-0.315	0.043
-214.538	-200.000	-0.025	-0.184
-213.523	-200.000	0.039	0.318
-212.509	56.187	0.058	-0.055
-211.494	145.015	-0.134	0.177
-210.479	-167.037	-0.092	-0.004
-209.465	-153.943	-0.262	0.018
-208.450	800.000	0.029	0.086
-207.436	-47.477	0.141	0.068
-206.421	13.691	0.185	0.142
-205.406	-200.000	0.006	-0.269
-204.392	-98.550	-0.270	0.068
-203.377	-194.430	0.080	0.001
-202.363	407.050	0.073	-0.153
-201.348	-200.000	0.015	-0.099
-200.333	-116.419	-0.312	0.057
-199.319	52.438	-0.030	0.029
-198.304	-164.783	0.243	-0.011
-197.290	-43.857	0.325	-0.162
-196.275	28.730	-0.066	-0.056
-195.260	-200.000	0.005	-0.125
-194.246	800.000	0.022	0.087
-193.231	24.560	0.180	-0.147
-192.217	204.366	0.143	0.219
-191.202	-200.000	-0.024	0.105
-190.187	-199.972	0.088	0.000
-189.173	-200.000	-0.026	-0.125
-188.158	-123.343	0.215	0.034
-187.144	-89.764	-0.057	-0.017
-186.129	183.413	0.186	-0.272
-185.114	-200.000	0.001	0.197
-184.100	163.710	0.068	-0.094
-183.085	800.000	0.035	-0.134
-182.071	147.436	-0.183	-0.243
-181.056	43.271	0.168	-0.152
-180.042	-62.070	-0.052	0.021
-179.027	-200.000	0.097	0.506
-178.012	94.798	0.241	0.271
-176.998	800.000	-0.046	0.189
-175.983	-14.068	0.256	-0.163
-174.969	-200.000	0.032	0.148
-173.954	-200.000	-0.004	0.136
-172.939	-81.447	0.159	-0.052
-171.925	-200.000	0.007	0.117
-170.910	-70.378	-0.468	0.176
-169.896	800.000	0.028	0.119
-168.881	55.554	-0.140	-0.134
-167.866	-75.351	-0.218	0.077
-166.852	168.765	0.146	-0.206
-165.837	117.157	0.128	0.155
-164.823	460.108	0.036	-0.078
-163.808	361.570	-0.031	-0.061
-162.793	-82.957	0.006	0.002
-161.779	-200.000	0.069	-0.426
-160.764	75.991	-0.107	-0.112
-159.750	-112.744	0.387	0.076
-158.735	-193.711	-0.200	0.002
-157.720	-102.162	-0.245	-0.058
-156.706	-64.845	-0.203	-0.081
-155.691	-2.243	0.318	0.221
-154.677	-200.000	-0.006	-0.305
-153.662	-1.213	0.078	0.055
-152.647	-200.000	0.009	0.198
-151.633	-80.526	-0.207	-0.068
-150.618	10.769	0.077	-0.058
-149.604	-200.000	0.017	0.310
-148.589	800.000	-0.097	-0.308
-147.574	-135.574	0.352	-0.041
-146.560	118.066	-0.034	-0.042
-145.545	726.416	-0.031	-0.081
-144.531	69.889	0.206	0.210
-143.516	73.203	-0.091	0.094
-142.502	-200.000	0.010	-0.232
-141.487	-200.000	0.064	-0.330
-140.472	57.759	0.123	-0.119
-139.458	8.736	-0.031	-0.023
-138.443	57.247	0.078	-0.075
-137.429	-200.000	0.010	0.077
-136.414	217.480	0.178	-0.280
-135.399	-200.000	0.010	0.291
-134.385	-95.558	-0.137	-0.036
-133.370	-146.187	-0.246	-0.021
-132.356	287.782	0.193	0.345
-131.341	479.980	-0.117	0.261
-130.326	293.971	-0.111	-0.200
-129.312	-111.861	-0.134	-0.027
-128.297	-90.193	-0.134	-0.038
-127.283	578.125	-0.073	0.176
-126.268	-25.382	0.158	0.092
-125.253	-200.000	-0.019	-0.135
-124.239	-99.799	-0.113	-0.028
-123.224	11.424	0.088	0.066
-122.210	800.000	0.067	0.186
-121.195	-87.605	0.286	0.085
-120.180	-56.908	-0.232	-0.101
-119.166	208.997	0.067	-0.103
-118.151	-45.739	0.168	-0.082
-117.137	-110.167	0.019	0.004
-116.122	26.115	0.094	-0.078
-115.107	277.470	0.089	-0.157
-114.093	-24.238	0.082	0.049
-113.078	-67.072	-0.166	0.065
-112.064	800.000	-0.081	-0.254
-111.049	37.518	0.207	-0.181
-110.034	74.227	0.093	0.096
-109.020	-123.854	-0.326	-0.051
-108.005	-200.000	-0.051	-0.251
-106.991	-167.309	0.272	0.011
-105.976	415.309	0.115	-0.241
-104.962	800.000	0.017	0.063
-103.947	136.341	-0.109	0.140
-102.932	575.775	-0.079	-0.191
-101.918	42.793	0.105	-0.095
-100.903	-200.000	-0.033	0.219
-99.889	-200.000	0.258	0.000
-98.874	55.636	-0.219	0.209
-97.859	-83.714	0.248	0.078
-96.845	189.800	-0.128	-0.189
-95.830	-168.706	-0.168	0.006
-94.816	-133.457	-0.224	-0.028
-93.801	-200.000	0.016	0.090
-92.786	-26.547	-0.038	-0.022
-91.772	399.724	-0.192	-0.397
-90.757	329.227	0.135	0.256
-89.743	-38.971	-0.251	-0.130
-88.728	780.458	-0.043	0.117
-87.713	-6.615	-0.261	-0.175
-86.699	-92.969	0.249	-0.069
-85.684	314.482	-0.044	0.082
-84.670	10.274	0.164	0.123
-83.655	800.000	-0.078	-0.239
-82.640	61.184	0.104	-0.102
-81.626	-77.817	-0.031	0.010
-80.611	-200.000	0.008	0.223
-79.597	-113.904	0.429	0.082
-78.582	14.383	0.369	0.284
-77.567	-66.428	-0.190	0.074
-76.553	-200.000	0.026	0.154
-75.538	-58.126	0.122	-0.053
-74.524	446.366	-0.122	0.265
-73.509	103.216	-0.101	0.117
-72.494	-14.412	-0.224	0.142
-71.480	800.000	0.105	-0.394
-70.465	800.000	0.094	-0.288
-69.451	-151.596	-0.202	0.015
-68.436	4.617	-0.214	-0.155
-67.422	-132.537	0.045	-0.006
-66.407	-11.290	0.217	0.141
-65.392	104.614	0.066	0.077
-64.378	-4.355	0.236	0.161
-63.363	-58.678	0.099	-0.042
-62.349	177.022	0.122	0.175
-61.334	99.031	-0.927	-1.055
-60.319	-71.251	0.596	0.220
-59.305	800.000	-0.174	-0.696
-58.290	67.897	0.777	0.782
-57.276	211.067	0.875	1.355
-56.261	-200.000	96.378	598.762
-55.246	650.378	1393.832	3514.482
-54.232	194.033	2574.356	3840.307
-53.217	118.978	2176.026	2648.819
-52.203	42.761	1714.567	1537.919
-51.188	35.053	1526.954	1316.821
-50.173	32.658	1499.868	1277.203
-49.159	52.604	1549.120	1456.883
-48.144	54.234	1566.176	1484.074
-47.130	35.271	1526.422	1317.653
-46.115	32.087	1511.700	1283.174
-45.100	32.006	1508.471	1279.828
-44.086	31.984	1506.386	1277.861
-43.071	31.849	1504.451	1275.251
-42.057	31.854	1503.071	1274.063
-41.042	31.873	1501.543	1272.849
-40.027	31.865	1500.277	1271.665
-39.013	31.718	1499.365	1269.846
-37.998	31.785	1497.400	1268.585
-36.984	31.843	1496.303	1268.001
-35.969	31.769	1494.752	1266.136
-34.954	31.820	1493.688	1265.528
-33.940	31.771	1492.289	1263.961
-32.925	31.788	1490.828	1262.789
-31.911	31.889	1489.228	1262.063
-30.896	31.904	1488.128	1261.182
-29.881	32.008	1486.513	1260.465
-28.867	31.928	1485.155	1258.722
-27.852	31.902	1484.044	1257.558
-26.838	31.958	1481.985	1256.141
-25.823	31.955	1480.040	1254.417
-24.809	31.864	1479.106	1252.972
-23.794	31.875	1477.658	1251.765
-22.779	31.769	1476.402	1249.950
-21.765	31.838	1475.692	1249.758
-20.750	31.980	1474.048	1249.258
-19.736	31.879	1473.028	1247.677
-18.721	31.888	1471.741	1246.594
-17.706	31.787	1471.285	1245.486
-16.692	31.844	1469.923	1244.664
-15.677	31.822	1469.059	1243.735
-14.663	31.841	1467.839	1242.776
-13.648	31.850	1466.615	1241.756
-12.633	31.735	1466.661	1240.984
-11.619	31.760	1465.206	1239.868
-10.604	31.827	1464.330	1239.519
-9.590	31.816	1463.419	1238.628
-8.575	31.794	1462.761	1237.874
-7.560	31.700	1462.042	1236.593
-6.546	31.753	1460.879	1235.914
-5.531	31.726	1459.831	1234.798
-4.517	31.752	1458.701	1233.964
-3.502	31.802	1457.538	1233.259
-2.487	31.704	1457.230	1232.306
-1.473	31.776	1455.552	1231.314
-0.458	31.801	1454.395	1230.448
0.556	30.819	1445.269	1220.584
1.571	28.508	1419.912	1184.157
2.586	25.636	1359.692	1116.052
3.600	24.241	1278.355	1041.053
4.615	22.759	1232.845	995.549
5.629	19.882	1176.091	934.128
6.644	12.190	1091.747	828.367
7.659	5.992	1051.886	767.824
8.673	5.112	1046.618	759.628
9.688	4.978	1043.212	756.442
10.702	4.955	1041.349	754.909
11.717	4.895	1039.883	753.493
12.731	7.481	1043.024	768.228
13.746	14.897	1053.129	811.731
14.761	19.413	1057.584	837.057
15.775	18.657	1056.311	832.310
16.790	17.439	1054.020	824.535
17.804	16.419	1051.548	817.593
18.819	15.493	1049.813	811.697
19.834	15.158	1047.911	808.538
20.848	14.849	1047.252	806.469
21.863	14.533	1046.314	804.152
22.877	14.244	1045.756	802.256
23.892	14.155	1044.455	800.762
24.907	14.224	1043.460	800.258
25.921	14.113	1043.236	799.484
26.936	14.027	1042.871	798.718
27.950	14.166	1041.285	798.102
28.965	14.106	1040.525	797.161
29.980	14.257	1039.027	796.666
30.994	14.267	1038.048	795.889
32.009	14.465	1036.978	795.946
33.023	14.396	1036.529	795.201
34.038	14.402	1035.458	794.338
35.053	14.380	1034.966	793.786
36.067	14.368	1033.762	792.737
37.082	14.341	1032.761	791.770
38.096	14.342	1032.047	791.156
39.111	14.378	1031.260	790.653
40.126	14.320	1030.473	789.704
41.140	14.183	1029.702	788.397
42.155	14.213	1028.135	787.270
43.169	14.110	1027.212	786.007
44.184	14.057	1026.484	785.128
45.199	13.983	1025.374	783.858
46.213	13.956	1024.304	782.848
47.228	13.964	1023.576	782.257
48.242	14.061	1022.378	781.731
49.257	14.219	1021.485	781.721
50.271	14.171	1020.828	780.922
51.286	14.155	1019.668	779.891
52.301	14.263	1019.178	779.954
53.315	14.178	1018.760	779.165
54.330	14.286	1017.098	778.330
55.344	14.236	1016.534	777.595
56.359	14.135	1015.755	776.460
57.374	14.092	1014.793	775.456
58.388	14.188	1013.933	775.179
59.403	14.091	1013.137	774.051
60.417	14.068	1012.275	773.214
61.432	14.034	1011.841	772.657
62.447	13.995	1011.200	771.916
63.461	13.884	1010.265	770.621
64.476	13.866	1009.362	769.780
65.490	13.890	1008.555	769.210
66.505	13.937	1007.314	768.411
67.520	13.969	1006.655	767.987
68.534	14.031	1005.873	767.608
69.549	14.009	1005.158	766.895
70.563	13.992	1004.460	766.216
71.578	13.995	1004.128	765.906
72.593	13.960	1003.071	764.873
73.607	13.931	1002.165	763.980
74.622	13.870	1001.181	762.883
75.636	13.831	1000.200	761.891
76.651	13.853	999.594	761.462
77.666	13.896	998.882	761.049
78.680	13.947	998.109	760.628
79.695	13.895	997.999	760.235
80.709	13.980	997.373	760.082
81.724	14.087	995.907	759.385
82.739	14.013	995.640	758.779
83.753	14.191	994.546	758.687
84.768	14.287	994.091	758.711
85.782	14.238	993.819	758.213
86.797	14.348	992.787	757.861
87.812	14.461	991.661	757.445
88.826	14.211	991.097	755.814
89.841	14.257	990.381	755.408
90.855	14.250	989.602	754.714
91.870	14.261	989.127	754.339
92.884	14.173	988.464	753.365
93.899	14.296	987.415	753.057
94.914	14.458	986.301	752.871
95.928	14.334	986.211	752.178
96.943	14.509	985.024	751.994
97.957	14.475	984.224	751.162
98.972	14.217	983.705	749.541
99.987	14.383	982.650	749.414
101.001	14.313	982.294	748.761
102.016	14.368	981.728	748.515
103.030	14.337	980.370	747.270
104.045	14.328	979.370	746.404
105.060	14.477	978.410	746.274
106.074	14.408	977.404	745.129
107.089	14.135	976.987	743.526
108.103	14.093	976.251	742.715
109.118	13.979	974.988	741.176
110.133	13.918	974.547	740.507
111.147	13.965	973.604	739.934
112.162	14.123	972.666	739.855
113.176	14.062	971.812	738.870
114.191	14.231	970.781	738.774
115.206	14.249	970.201	738.345
116.220	14.004	969.458	736.629
117.235	14.111	968.603	736.387
118.249	14.100	967.942	735.771
119.264	14.067	966.985	734.831
120.279	14.104	965.844	734.066
121.293	14.039	965.333	733.324
122.308	14.057	964.520	732.720
123.322	14.195	963.576	732.546
124.337	13.920	962.539	730.484
125.352	14.033	961.565	730.177
126.366	14.085	960.169	729.279
127.381	14.162	958.751	728.473
128.395	13.910	958.634	727.221
129.410	14.004	957.774	726.914
130.424	14.040	956.648	726.151
131.439	14.071	955.957	725.698
132.454	14.148	955.144	725.350
133.468	14.159	954.625	724.941
134.483	14.208	953.817	724.477
135.497	14.200	952.872	723.663
136.512	14.196	952.470	723.275
137.527	14.120	951.607	722.227
138.541	14.255	950.274	721.735
139.556	14.194	949.940	721.153
140.570	14.229	949.408	720.838
141.585	14.218	948.748	720.225
142.600	14.274	948.280	720.049
143.614	14.351	947.193	719.490
144.629	14.380	946.194	718.794
145.643	14.280	945.979	718.136
146.658	14.278	944.873	717.222
147.673	14.373	943.938	716.861
148.687	14.315	942.768	715.657
149.702	14.383	941.594	714.994
150.716	14.150	941.165	713.607
151.731	14.131	940.252	712.770
152.746	14.211	939.621	712.572
153.760	14.127	938.745	711.484
154.775	14.272	937.844	711.361
155.789	14.363	937.083	711.105
156.804	14.390	936.674	710.849
157.819	14.384	935.619	709.961
158.833	14.410	935.280	709.750
159.848	14.471	934.716	709.520
160.862	14.486	934.220	709.145
161.877	14.401	933.388	708.089
162.892	14.454	932.360	707.472
163.906	14.249	931.567	705.939
164.921	14.249	930.709	705.223
165.935	14.200	929.826	704.285
166.950	14.350	928.865	704.131
167.964	14.336	927.947	703.311
168.979	14.401	926.872	702.709
169.994	14.275	926.022	701.473
171.008	14.360	925.219	701.159
172.023	14.378	924.912	700.942
173.037	14.488	923.935	700.600
174.052	14.578	923.015	700.220
175.067	14.620	922.429	699.887
176.081	14.482	921.172	698.295
177.096	14.315	920.769	697.227
178.110	14.384	919.609	696.577
179.125	14.471	918.881	696.329
180.140	14.406	917.984	695.312
181.154	14.457	917.672	695.231
182.169	14.514	917.317	695.137
183.183	14.574	916.298	694.553
184.198	14.720	915.600	694.569
185.213	14.668	915.220	694.005
186.227	14.630	914.761	693.434
187.242	14.622	914.284	692.979
188.256	14.700	913.533	692.675
189.271	14.771	912.593	692.192
190.286	14.828	911.821	691.783
191.300	14.609	910.948	690.152
192.315	14.440	909.959	688.643
193.329	14.354	909.895	688.181
194.344	14.458	908.938	687.824
195.359	14.532	908.596	687.810
196.373	14.491	908.316	687.368
197.388	14.516	907.730	686.966
198.402	14.641	906.976	686.850
199.417	14.740	906.892	687.132
200.432	14.942	906.253	687.418
201.446	14.954	905.770	687.041
202.461	14.959	905.244	686.599
203.475	15.018	904.777	686.429
204.490	15.061	903.913	685.888
205.504	14.922	903.100	684.643
206.519	14.927	901.959	683.735
207.534	14.855	901.381	682.943
208.548	14.919	900.811	682.711
209.563	14.680	900.575	681.497
210.577	14.942	899.378	681.598
211.592	14.880	898.723	680.790
212.607	14.967	898.389	680.830
213.621	15.036	897.895	680.675
214.636	15.056	897.238	680.201
215.650	15.038	896.564	679.556
216.665	14.989	895.727	678.663
217.680	14.963	895.384	678.238
218.694	15.194	894.412	678.377
219.709	15.081	894.526	677.944
220.723	15.123	893.908	677.588
221.738	15.168	892.612	676.725
222.753	15.169	892.423	676.529
223.767	15.044	891.330	675.136
224.782	15.290	890.334	675.313
225.796	15.240	890.055	674.839
226.811	15.263	888.993	674.066
227.826	15.252	888.737	673.767
228.840	15.149	887.558	672.402
229.855	15.183	887.014	672.066
230.869	15.141	886.458	671.418
231.884	15.098	885.993	670.833
232.899	15.090	885.830	670.618
233.913	15.181	884.707	670.072
234.928	15.196	883.631	669.259
235.942	15.025	882.984	668.028
236.957	15.077	882.217	667.595
237.972	14.980	881.929	666.933
238.986	15.068	881.088	666.588
240.001	15.162	880.602	666.535
241.015	15.183	879.819	665.966
242.030	15.221	879.214	665.599
243.045	15.253	878.393	665.045
244.059	15.373	878.131	665.267
245.074	15.346	877.248	664.429
246.088	15.220	876.919	663.622
247.103	15.316	876.509	663.636
248.117	15.359	875.333	662.856
249.132	15.464	874.983	662.946
250.147	15.625	874.614	663.243
251.161	15.693	873.961	662.957
252.176	15.718	873.014	662.278
253.190	15.720	872.533	661.864
254.205	15.735	872.043	661.491
255.220	15.658	871.747	660.907
256.234	15.905	870.603	660.951
257.249	15.786	870.165	660.094
258.263	15.753	869.649	659.512
259.278	15.786	869.087	659.160
260.293	15.825	868.526	658.827
261.307	15.835	867.897	658.330
262.322	15.807	867.541	657.894
263.336	15.935	866.954	657.890
264.351	15.892	866.130	657.036
265.366	15.880	865.646	656.564
266.380	15.925	865.009	656.199
267.395	16.096	864.310	656.279
268.409	15.848	863.765	654.839
269.424	15.966	862.785	654.500
270.439	15.936	862.109	653.812
271.453	15.933	861.702	653.432
272.468	15.965	860.903	652.892
273.482	15.759	860.671	651.860
274.497	15.876	859.738	651.548
275.512	15.931	859.156	651.265
276.526	15.949	858.168	650.527
277.541	15.949	857.283	649.799
278.555	16.018	857.034	649.820
279.570	15.914	856.555	648.998
280.585	16.213	855.622	649.385
281.599	16.201	855.549	649.223
282.614	16.110	854.677	648.157
283.628	16.084	854.253	647.678
284.643	15.924	853.844	646.693
285.657	16.020	853.278	646.576
286.672	16.105	852.739	646.438
287.687	16.248	851.880	646.275
288.701	16.088	851.593	645.390
289.716	16.035	851.205	644.834
290.730	16.132	850.657	644.732
291.745	16.120	850.074	644.189
292.760	16.093	849.409	643.525
293.774	16.105	848.579	642.886
294.789	16.288	848.292	643.310
295.803	16.155	847.757	642.341
296.818	16.223	846.715	641.753
297.833	16.174	845.810	640.822
298.847	16.134	845.447	640.338
299.862	16.199	844.897	640.112
300.876	16.359	843.910	639.915
301.891	16.422	843.315	639.644
302.906	16.442	842.661	639.170
303.920	16.558	842.295	639.273
304.935	16.529	841.542	638.535
305.949	16.558	841.195	638.324
306.964	16.502	840.769	637.735
307.979	16.534	839.888	637.130
308.993	16.413	839.656	636.440
310.008	16.661	838.622	636.534
311.022	16.538	838.113	635.627
312.037	16.581	837.851	635.536
313.052	16.483	837.415	634.781
314.066	16.352	836.773	633.746
315.081	16.373	836.044	633.217
316.095	16.515	835.434	633.230
317.110	16.296	835.613	632.489
318.125	16.542	834.368	632.413
319.139	16.574	833.942	632.151
320.154	16.487	833.238	631.240
321.168	16.353	833.108	630.584
322.183	16.527	832.578	630.774
323.197	16.470	832.187	630.210
324.212	16.583	831.153	629.793
325.227	16.575	830.852	629.480
326.241	16.580	830.579	629.234
327.256	16.547	829.745	628.425
328.270	16.537	829.306	628.002
329.285	16.627	828.254	627.481
330.300	16.639	827.954	627.244
331.314	16.489	827.555	626.330
332.329	16.512	826.971	625.918
333.343	16.683	826.132	625.859
334.358	16.876	825.633	626.138
335.373	16.750	825.365	625.414
336.387	16.690	824.621	624.575
337.402	16.711	824.448	624.466
338.416	16.763	823.733	624.062
339.431	16.819	823.295	623.880
340.446	16.918	822.585	623.652
341.460	17.029	821.874	623.465
342.475	17.122	821.233	623.263
343.489	17.172	820.712	622.999
344.504	17.013	820.517	622.210
345.519	17.032	820.064	621.881
346.533	17.148	819.389	621.738
347.548	17.302	818.397	621.494
348.562	17.116	818.527	620.860
349.577	16.914	817.853	619.553
350.592	16.921	817.288	619.097
351.606	16.918	816.769	618.640
352.621	16.974	816.317	618.444
353.635	16.895	816.152	617.978
354.650	17.001	815.529	617.837
355.665	17.026	815.107	617.554
356.679	17.163	814.777	617.747
357.694	17.068	814.377	617.044
358.708	17.190	813.308	616.621
359.723	17.122	813.149	616.203
360.738	17.094	812.348	615.437
361.752	16.992	812.277	614.960
362.767	17.259	811.565	615.334
363.781	17.194	811.050	614.653
364.796	17.280	810.991	614.864
365.810	17.281	810.356	614.332
366.825	17.355	810.200	614.427
367.840	17.454	809.722	614.366
368.854	17.486	808.971	613.860
369.869	17.407	809.006	613.547
370.883	17.454	808.009	612.904
371.898	17.444	807.535	612.456
372.913	17.570	806.972	612.427
373.927	17.535	806.198	611.662
374.942	17.538	805.541	611.119
375.956	17.531	805.138	610.734
376.971	17.580	804.658	610.491
377.986	17.646	804.329	610.423
379.000	17.474	803.927	609.448
380.015	17.608	803.551	609.590
381.029	17.619	802.870	609.058
382.044	17.778	802.175	609.046
383.059	17.632	801.337	607.835
384.073	17.747	801.049	607.973
385.088	17.665	800.503	607.213
386.102	17.666	799.723	606.570
387.117	17.645	799.198	606.044
388.132	17.573	798.840	605.462
389.146	17.429	798.597	604.712
390.161	17.600	798.195	604.962
391.175	17.582	797.524	604.337
392.190	17.728	797.522	604.798
393.205	17.652	796.862	603.975
394.219	17.636	796.525	603.612
395.234	17.741	795.986	603.519
396.248	17.574	795.206	602.284
397.263	17.603	794.784	602.012
398.278	17.559	794.576	601.649
399.292	17.500	793.906	600.878
400.307	17.673	793.581	601.192
401.321	17.467	793.375	600.256
402.336	17.655	792.831	600.452
403.350	17.633	792.906	600.377
404.365	17.675	792.502	600.169
405.380	17.775	791.519	599.721
406.394	17.970	790.752	599.773
407.409	18.054	790.817	600.063
408.423	17.869	790.671	599.249
409.438	18.035	789.639	598.998
410.453	18.235	789.230	599.334
411.467	17.974	789.023	598.209
412.482	18.150	788.470	598.355
413.496	18.195	787.961	598.073
414.511	18.276	787.725	598.123
415.526	18.248	787.540	597.831
416.540	18.054	786.919	596.628
417.555	18.011	786.787	596.326
418.569	18.207	785.935	596.313
419.584	18.155	785.379	595.656
420.599	18.246	784.952	595.596
421.613	155.683	1369.332	1793.089
422.628	134.479	1454.512	1793.208
