DTS Sentinel unit serial number:	SN413079Multiplexer serial number:	ORYXHardware model number:	OX4-SRSoftware version number:	ORYX F/W v4.00 Oryx Data Collector v3.7.2.0data status	okinstallation	princeton_trtdifferential loss correction	single-endedforward channel	channel 3reverse channel	N/Adate	2019/09/12time	15:30:10forward acquisition time	60.00reverse acquisition time	0.00gamma	496.2192k internal	0.2293k external	0.2293temperature offset calibration	1.0060default loss term (dB/km)	0.3790temperature slope calibration	1.0000multiplexer offset coefficient	1.0000multiplexer slope coefficient	1.0000fibre end	0.00T internal ref (°C)	40.61T ext. ref 1 (°C)	2.40T ext. ref 2 (°C)	33.83length (m)	temperature (°C)	Stokes	anti-Stokes-747.200	7.944	-0.198	-0.152
-746.185	15.482	-0.257	0.207
-745.171	-77.651	0.290	0.103
-744.156	212.859	0.205	0.331
-743.142	-200.000	0.015	0.189
-742.127	172.056	-0.059	0.087
-741.112	520.122	-0.073	-0.175
-740.098	-80.452	0.183	0.062
-739.083	99.629	0.028	-0.033
-738.069	464.323	0.152	0.348
-737.054	-154.935	0.033	-0.002
-736.039	-99.698	-0.133	0.034
-735.025	57.659	-0.222	0.222
-734.010	-200.000	-0.033	-0.234
-732.996	-32.471	-0.151	-0.086
-731.981	58.192	-0.260	0.261
-730.966	-64.939	-0.186	-0.077
-729.952	-139.493	-0.219	0.024
-728.937	51.816	-0.352	-0.343
-727.923	311.403	-0.079	0.152
-726.908	-135.198	-0.277	-0.034
-725.894	-23.002	-0.164	-0.101
-724.879	-124.380	-0.318	0.051
-723.864	-193.716	0.181	-0.002
-722.850	22.676	0.267	-0.223
-721.835	179.227	-0.074	0.111
-720.821	-46.910	0.388	-0.194
-719.806	3.040	0.256	0.190
-718.791	-200.000	-0.002	0.319
-717.777	-161.695	0.144	-0.008
-716.762	-59.531	0.268	0.118
-715.748	-153.907	0.248	-0.017
-714.733	-200.000	0.032	0.213
-713.718	126.872	0.166	-0.215
-712.704	393.024	0.155	0.330
-711.689	-200.000	-0.033	0.254
-710.675	-138.606	0.164	0.018
-709.660	125.352	0.241	-0.311
-708.645	77.233	-0.110	-0.120
-707.631	-20.260	0.416	0.262
-706.616	39.306	0.066	-0.060
-705.602	-200.000	0.035	0.181
-704.587	-19.258	0.127	0.080
-703.572	509.284	0.166	0.395
-702.558	-148.550	-0.164	-0.014
-701.543	800.000	0.122	0.480
-700.529	0.383	-0.109	0.079
-699.514	72.850	0.245	-0.261
-698.499	-68.250	0.224	-0.089
-697.485	16.034	-0.061	-0.049
-696.470	-5.360	-0.153	0.107
-695.456	800.000	0.031	0.103
-694.441	-200.000	0.000	-0.288
-693.426	86.382	-0.176	-0.199
-692.412	193.504	-0.041	0.064
-691.397	-71.502	-0.106	-0.041
-690.383	-75.019	-0.175	-0.064
-689.368	111.304	-0.077	-0.095
-688.354	405.834	-0.089	-0.191
-687.339	34.004	0.209	-0.186
-686.324	65.974	0.191	0.198
-685.310	351.826	-0.080	-0.162
-684.295	-98.117	0.139	0.037
-683.281	225.479	0.145	0.240
-682.266	-28.226	0.187	0.110
-681.251	588.147	-0.131	-0.330
-680.237	-48.922	-0.219	0.107
-679.222	293.095	-0.034	-0.064
-678.208	-200.000	-0.020	0.260
-677.193	-40.756	-0.203	0.107
-676.178	-111.212	0.171	-0.036
-675.164	90.615	0.189	-0.216
-674.149	-14.750	-0.202	-0.132
-673.135	800.000	0.019	-0.066
-672.120	-200.000	-0.012	-0.114
-671.105	62.901	-0.318	-0.324
-670.091	11.557	-0.197	0.154
-669.076	-182.767	0.092	0.002
-668.062	800.000	0.022	0.086
-667.047	10.400	-0.126	0.097
-666.032	20.456	0.080	-0.066
-665.018	642.652	-0.121	0.315
-664.003	-146.050	-0.132	0.012
-662.989	-53.791	0.117	0.055
-661.974	-200.000	-0.013	0.274
-660.959	-89.635	0.154	0.046
-659.945	-68.938	-0.218	-0.086
-658.930	27.772	0.163	-0.140
-657.916	74.070	0.183	0.196
-656.901	38.439	-0.125	0.114
-655.886	160.200	-0.115	-0.164
-654.872	44.378	-0.139	-0.130
-653.857	351.900	-0.100	-0.202
-652.843	-152.752	-0.196	-0.014
-651.828	-15.805	-0.132	-0.085
-650.814	-200.000	-0.016	-0.259
-649.799	800.000	0.086	0.256
-648.784	800.000	0.034	0.103
-647.770	800.000	-0.056	-0.224
-646.755	119.896	-0.201	-0.255
-645.741	-132.789	-0.284	0.037
-644.726	699.103	-0.103	0.275
-643.711	-70.853	-0.315	-0.121
-642.697	292.902	-0.069	-0.129
-641.682	117.822	-0.184	0.231
-640.668	350.273	0.063	0.127
-639.653	-3.257	-0.374	0.266
-638.638	87.072	-0.134	-0.151
-637.624	800.000	-0.065	-0.274
-636.609	-34.599	0.127	-0.071
-635.595	-200.000	0.039	0.253
-634.580	-57.219	-0.107	0.048
-633.565	415.579	0.132	-0.287
-632.551	49.128	0.233	0.223
-631.536	121.708	-0.193	-0.245
-630.522	19.995	-0.325	0.267
-629.507	-73.891	0.229	-0.085
-628.492	140.839	0.095	0.128
-627.478	-58.957	0.211	-0.093
-626.463	794.678	-0.050	0.139
-625.449	-126.564	-0.471	0.071
-624.434	25.322	0.078	0.066
-623.419	371.660	-0.136	-0.280
-622.405	47.340	0.043	-0.041
-621.390	-40.914	-0.083	0.044
-620.376	-124.280	-0.294	0.047
-619.361	78.702	0.318	0.347
-618.346	489.727	-0.188	0.436
-617.332	-111.572	-0.231	0.048
-616.317	800.000	0.063	-0.256
-615.303	-200.000	-0.002	-0.012
-614.288	-200.000	-0.035	-0.265
-613.273	-165.311	0.265	-0.012
-612.259	201.142	-0.093	-0.146
-611.244	109.312	-0.185	-0.225
-610.230	-200.000	0.037	-0.273
-609.215	41.197	0.039	-0.036
-608.201	-200.000	-0.015	-0.072
-607.186	-200.000	0.001	0.076
-606.171	-200.000	0.002	0.540
-605.157	75.373	-0.296	-0.318
-604.142	0.713	0.148	0.107
-603.128	201.804	-0.073	-0.115
-602.113	-200.000	-0.001	0.274
-601.098	-125.128	0.171	-0.027
-600.084	56.742	-0.189	0.187
-599.069	108.662	0.135	-0.164
-598.055	-200.000	0.001	-0.076
-597.040	82.623	-0.068	-0.075
-596.025	-127.381	0.219	-0.032
-595.011	435.265	-0.109	0.241
-593.996	443.391	-0.162	-0.362
-592.982	-119.316	0.358	-0.063
-591.967	-200.000	-0.022	0.169
-590.952	-34.293	-0.117	0.065
-589.938	300.790	-0.106	-0.200
-588.923	-2.555	-0.175	-0.124
-587.909	103.543	-0.209	-0.249
-586.894	-200.000	-0.047	0.248
-585.879	251.593	-0.040	0.070
-584.865	88.336	-0.159	0.179
-583.850	70.095	-0.090	-0.095
-582.836	355.825	0.153	-0.310
-581.821	233.821	-0.117	0.195
-580.806	79.015	0.142	-0.155
-579.792	-71.950	-0.331	0.125
-578.777	-200.000	0.000	0.269
-577.763	-17.122	0.068	0.044
-576.748	-199.954	0.120	-0.001
-575.733	-79.226	0.205	-0.071
-574.719	-66.351	0.122	0.049
-573.704	21.688	0.199	0.165
-572.690	117.694	0.071	0.089
-571.675	520.879	0.036	-0.085
-570.661	-163.300	-0.064	-0.003
-569.646	-57.898	-0.087	0.039
-568.631	-82.387	0.471	-0.155
-567.617	62.755	-0.118	0.120
-566.602	800.000	0.144	0.488
-565.588	-200.000	-0.025	-0.475
-564.573	-200.000	0.014	-0.138
-563.558	-79.304	0.142	-0.049
-562.544	498.731	0.107	-0.251
-561.529	-54.083	-0.173	0.080
-560.515	-65.291	0.394	0.161
-559.500	-166.321	0.089	-0.004
-558.485	390.428	0.061	-0.128
-557.471	800.000	0.069	0.223
-556.456	800.000	0.113	0.383
-555.442	-200.000	-0.061	0.284
-554.427	735.079	-0.053	-0.145
-553.412	308.029	-0.079	-0.150
-552.398	-188.888	-0.420	0.005
-551.383	-113.903	0.289	0.057
-550.369	46.603	-0.078	0.073
-549.354	-28.580	-0.119	-0.069
-548.339	-138.343	0.292	-0.033
-547.325	-76.781	-0.262	-0.093
-546.310	592.894	0.024	-0.061
-545.296	-191.825	-0.378	0.004
-544.281	343.600	-0.082	-0.164
-543.266	53.824	-0.024	0.023
-542.252	-100.763	0.180	-0.045
-541.237	-115.488	0.182	-0.035
-540.223	-200.000	0.027	-0.125
-539.208	60.326	0.068	-0.068
-538.193	-200.000	0.013	-0.421
-537.179	386.845	0.112	-0.236
-536.164	-43.628	-0.114	-0.059
-535.150	-30.652	-0.189	0.109
-534.135	60.734	0.100	-0.100
-533.121	-107.249	0.348	-0.078
-532.106	453.333	0.071	0.160
-531.091	800.000	-0.044	-0.156
-530.077	-200.000	0.060	-0.299
-529.062	26.714	-0.061	0.052
-528.048	800.000	0.118	0.487
-527.033	91.624	-0.113	0.129
-526.018	-170.305	-0.029	-0.001
-525.004	379.279	-0.068	0.142
-523.989	800.000	0.035	-0.141
-522.975	-200.000	-0.052	-0.445
-521.960	-86.342	-0.202	0.063
-520.945	602.095	-0.130	0.328
-519.931	89.166	0.264	-0.298
-518.916	33.863	0.042	-0.037
-517.902	-14.296	-0.148	-0.097
-516.887	-25.321	0.188	-0.113
-515.872	-109.018	0.254	0.055
-514.858	-123.612	-0.305	0.049
-513.843	87.575	-0.145	0.163
-512.829	-200.000	0.034	0.233
-511.814	-7.802	0.163	0.112
-510.799	-130.018	0.096	0.013
-509.785	503.567	-0.060	0.141
-508.770	-145.226	0.261	0.024
-507.756	800.000	-0.038	0.159
-506.741	-99.567	-0.167	0.042
-505.726	101.570	0.181	-0.214
-504.712	40.625	-0.070	-0.064
-503.697	-200.000	0.012	0.102
-502.683	-200.000	0.059	0.347
-501.668	12.902	-0.239	0.187
-500.653	-96.085	0.126	-0.034
-499.639	661.887	0.058	0.151
-498.624	-12.182	-0.278	0.184
-497.610	-200.000	-0.003	-0.069
-496.595	214.673	0.101	-0.163
-495.581	-200.000	0.024	-0.252
-494.566	800.000	0.045	0.165
-493.551	-156.767	0.155	-0.010
-492.537	0.874	0.027	0.019
-491.522	156.468	0.149	0.208
-490.508	-117.332	0.114	-0.021
-489.493	344.610	-0.098	0.195
-488.478	455.626	0.071	-0.158
-487.464	148.049	-0.117	0.159
-486.449	-153.434	-0.267	0.019
-485.435	800.000	-0.049	-0.192
-484.420	584.047	-0.034	-0.084
-483.405	-141.265	0.217	0.022
-482.391	-81.405	-0.080	-0.027
-481.376	-200.000	0.030	-0.196
-480.362	-100.851	0.131	-0.033
-479.347	261.054	-0.102	0.180
-478.332	-106.683	0.523	0.118
-477.318	-57.268	0.057	-0.025
-476.303	-200.000	-0.003	-0.241
-475.289	-147.670	-0.089	-0.008
-474.274	638.437	0.106	-0.274
-473.259	27.394	-0.205	0.175
-472.245	-200.000	0.050	0.352
-471.230	-16.628	-0.290	-0.186
-470.216	-2.249	0.275	-0.195
-469.201	-147.874	-0.282	0.024
-468.186	-169.562	-0.203	0.007
-467.172	-50.208	0.128	0.061
-466.157	-60.327	-0.077	-0.033
-465.143	-200.000	0.051	-0.372
-464.128	1.100	0.079	-0.057
-463.113	-150.935	0.438	0.034
-462.099	-17.208	-0.266	0.170
-461.084	200.216	-0.128	-0.198
-460.070	319.012	0.036	-0.068
-459.055	-27.978	0.257	-0.150
-458.040	166.267	0.211	-0.302
-457.026	43.958	0.155	0.144
-456.011	-36.915	-0.326	0.177
-454.997	-76.593	0.181	0.064
-453.982	0.669	0.142	-0.103
-452.968	-74.901	-0.054	-0.020
-451.953	22.314	-0.219	-0.181
-450.938	-200.000	0.012	-0.233
-449.924	-177.382	0.193	0.005
-448.909	800.000	-0.085	-0.239
-447.895	-74.060	0.497	0.182
-446.880	-47.027	-0.080	-0.039
-445.865	-93.054	0.208	0.058
-444.851	-90.428	0.191	0.056
-443.836	26.188	0.268	0.226
-442.822	315.953	-0.115	0.219
-441.807	-93.144	-0.335	0.094
-440.792	-134.710	0.263	0.032
-439.778	-120.299	0.202	0.035
-438.763	-200.000	-0.009	0.146
-437.749	-200.000	-0.055	-0.287
-436.734	-69.367	0.222	0.086
-435.719	-200.000	-0.009	0.134
-434.705	800.000	-0.090	-0.263
-433.690	800.000	-0.114	-0.348
-432.676	-119.485	0.346	0.061
-431.661	-200.000	0.055	-0.260
-430.646	-129.969	-0.103	0.014
-429.632	0.051	-0.341	0.246
-428.617	800.000	-0.036	-0.099
-427.603	47.520	-0.118	0.111
-426.588	53.842	-0.163	0.158
-425.573	314.769	-0.178	-0.338
-424.559	-140.625	0.349	-0.036
-423.544	47.621	-0.276	-0.260
-422.530	-166.831	-0.128	0.005
-421.515	800.000	0.057	-0.162
-420.500	157.586	-0.050	-0.070
-419.486	514.947	-0.128	-0.302
-418.471	50.504	0.017	-0.016
-417.457	449.245	0.123	0.274
-416.442	-200.000	0.022	0.293
-415.428	-139.690	0.331	-0.036
-414.413	-42.262	-0.192	-0.099
-413.398	-34.630	0.347	-0.192
-412.384	800.000	-0.005	-0.020
-411.369	-83.811	-0.158	-0.051
-410.355	-93.305	-0.304	0.085
-409.340	800.000	0.061	-0.238
-408.325	-43.388	0.150	-0.077
-407.311	-29.667	-0.387	0.223
-406.296	248.076	-0.098	0.167
-405.282	-44.662	-0.372	0.188
-404.267	379.364	-0.046	0.095
-403.252	331.172	0.182	0.354
-402.238	356.346	0.225	-0.452
-401.223	-72.646	0.131	0.049
-400.209	-8.430	0.352	0.239
-399.194	67.760	-0.098	0.101
-398.179	-139.761	0.072	-0.008
-397.165	12.900	0.089	0.069
-396.150	-140.847	-0.200	0.021
-395.136	-77.462	0.069	0.024
-394.121	337.870	-0.124	-0.243
-393.106	-73.731	-0.101	-0.037
-392.092	-200.000	-0.015	-0.090
-391.077	223.458	0.100	0.162
-390.063	-27.503	0.149	-0.088
-389.048	-200.000	0.017	-0.202
-388.033	34.382	0.099	-0.088
-387.019	-130.537	0.265	-0.036
-386.004	-78.256	-0.166	-0.058
-384.990	-200.000	0.046	0.329
-383.975	98.057	-0.109	0.127
-382.960	-43.352	0.104	0.053
-381.946	144.093	0.033	0.045
-380.931	-139.825	-0.141	0.015
-379.917	-6.605	-0.287	-0.197
-378.902	-87.402	0.135	0.041
-377.888	-139.692	-0.471	-0.051
-376.873	-105.961	-0.232	0.053
-375.858	-195.744	-0.145	-0.001
-374.844	127.421	0.100	-0.129
-373.829	-133.602	-0.130	0.016
-372.815	154.856	-0.097	-0.134
-371.800	-200.000	0.041	-0.190
-370.785	14.294	0.147	0.116
-369.771	-57.664	-0.185	0.082
-368.756	800.000	0.053	-0.153
-367.742	-200.000	0.027	-0.366
-366.727	-90.622	0.319	-0.093
-365.712	-200.000	0.060	0.366
-364.698	93.868	0.124	0.142
-363.683	-127.419	-0.138	-0.020
-362.669	-140.007	-0.270	0.029
-361.654	-74.878	-0.134	-0.048
-360.639	-69.280	0.357	0.138
-359.625	-48.922	0.283	-0.137
-358.610	576.891	0.150	-0.368
-357.596	219.537	-0.042	-0.067
-356.581	-70.042	-0.147	-0.056
-355.566	-60.553	0.273	0.117
-354.552	-49.577	0.134	-0.064
-353.537	-117.602	0.297	0.054
-352.523	266.305	-0.011	0.020
-351.508	149.464	-0.079	-0.107
-350.493	-189.961	0.162	0.002
-349.479	-59.189	0.110	0.048
-348.464	-156.458	-0.389	-0.024
-347.450	-200.000	0.034	0.161
-346.435	-200.000	-0.027	-0.337
-345.420	58.011	-0.066	0.065
-344.406	-75.586	0.238	-0.085
-343.391	51.676	-0.155	-0.148
-342.377	-193.256	0.261	-0.002
-341.362	-132.056	0.157	0.021
-340.348	-200.000	-0.009	0.079
-339.333	-50.724	-0.163	0.077
-338.318	800.000	0.049	-0.209
-337.304	88.708	0.137	0.154
-336.289	97.670	-0.086	-0.099
-335.275	391.091	-0.066	-0.138
-334.260	-151.595	-0.025	-0.002
-333.245	-200.000	-0.004	0.191
-332.231	-84.885	0.162	0.051
-331.216	-200.000	0.009	0.203
-330.202	181.323	0.201	0.297
-329.187	-200.000	-0.012	-0.123
-328.172	-34.767	0.177	-0.097
-327.158	-200.000	-0.036	0.221
-326.143	-105.782	0.291	0.066
-325.129	88.021	0.095	0.106
-324.114	-200.000	-0.011	-0.067
-323.099	-56.677	-0.106	-0.047
-322.085	800.000	-0.020	0.074
-321.070	-27.601	0.017	-0.010
-320.056	-128.789	0.269	0.038
-319.041	800.000	0.025	0.070
-318.026	-25.378	0.054	0.032
-317.012	488.148	0.012	0.028
-315.997	-18.067	-0.215	0.135
-314.983	200.200	-0.082	0.126
-313.968	135.356	-0.009	-0.012
-312.953	190.434	0.116	-0.175
-311.939	-200.000	-0.032	0.371
-310.924	641.409	0.128	0.328
-309.910	115.588	0.159	0.196
-308.895	-11.245	0.158	0.105
-307.880	-50.266	-0.416	0.198
-306.866	-73.939	-0.192	-0.070
-305.851	-15.164	0.162	-0.104
-304.837	-200.000	-0.026	0.143
-303.822	-121.423	0.268	-0.045
-302.807	110.065	-0.088	0.106
-301.793	48.074	0.105	0.098
-300.778	391.243	0.124	0.260
-299.764	-71.672	-0.095	-0.036
-298.749	43.415	-0.095	-0.087
-297.735	-81.217	0.248	0.082
-296.720	800.000	0.085	0.299
-295.705	-102.379	-0.342	-0.082
-294.691	478.457	0.111	0.253
-293.676	800.000	0.161	0.465
-292.662	-200.000	0.042	0.314
-291.647	-69.449	-0.303	-0.117
-290.632	564.247	-0.102	-0.249
-289.618	-38.898	-0.195	-0.103
-288.603	-46.224	-0.394	0.195
-287.589	-49.000	0.190	0.091
-286.574	96.336	-0.213	-0.245
-285.559	-78.777	0.079	-0.027
-284.545	252.371	0.112	0.191
-283.530	177.014	0.103	0.150
-282.516	46.377	-0.209	0.194
-281.501	-56.974	-0.065	0.029
-280.486	106.663	0.418	-0.499
-279.472	-200.000	0.012	-0.302
-278.457	147.175	0.062	0.084
-277.443	-48.783	0.215	0.104
-276.428	183.352	0.126	0.188
-275.413	-75.824	-0.100	0.036
-274.399	800.000	-0.090	-0.264
-273.384	-98.082	-0.225	-0.058
-272.370	-134.075	-0.204	-0.025
-271.355	-129.821	-0.192	0.026
-270.340	-200.000	-0.000	-0.132
-269.326	-200.000	0.015	-0.119
-268.311	11.825	-0.053	-0.041
-267.297	-126.633	0.329	-0.049
-266.282	-200.000	0.002	0.144
-265.267	-200.000	0.004	-0.134
-264.253	471.523	-0.151	0.341
-263.238	9.043	0.236	0.179
-262.224	-113.732	0.190	-0.037
-261.209	800.000	-0.074	0.253
-260.195	654.592	-0.150	-0.387
-259.180	102.661	-0.059	-0.069
-258.165	-59.865	-0.235	-0.101
-257.151	-15.524	-0.320	0.205
-256.136	182.295	-0.191	-0.282
-255.122	-9.261	0.065	-0.044
-254.107	-117.233	0.350	-0.064
-253.092	-26.727	0.106	0.062
-252.078	-186.169	-0.355	-0.005
-251.063	157.076	0.035	-0.048
-250.049	-200.000	-0.055	0.387
-249.034	95.970	-0.090	-0.104
-248.019	-67.949	-0.090	0.035
-247.005	-76.193	0.327	0.116
-245.990	-200.000	-0.038	0.245
-244.976	157.338	-0.267	-0.371
-243.961	98.784	0.195	-0.226
-242.946	-145.135	0.375	-0.034
-241.932	-103.653	0.317	-0.075
-240.917	-197.849	-0.108	0.001
-239.903	-67.654	0.087	0.034
-238.888	-150.196	0.079	-0.006
-237.873	-146.504	0.321	0.028
-236.859	-200.000	0.018	-0.224
-235.844	-36.584	-0.087	-0.047
-234.830	157.672	-0.170	0.236
-233.815	-200.000	-0.202	-0.000
-232.800	-137.968	-0.542	-0.061
-231.786	-200.000	-0.016	-0.347
-230.771	80.883	-0.132	0.143
-229.757	-200.000	-0.023	0.110
-228.742	-23.583	0.312	0.188
-227.727	-200.000	-0.007	0.119
-226.713	-200.000	0.003	-0.123
-225.698	-57.354	-0.390	-0.172
-224.684	-200.000	-0.018	0.104
-223.669	-33.199	0.210	-0.117
-222.655	-139.098	0.062	-0.007
-221.640	-69.252	-0.130	-0.050
-220.625	-133.090	-0.079	0.010
-219.611	105.299	-0.044	0.052
-218.596	-128.356	0.095	0.014
-217.582	-177.027	0.235	0.006
-216.567	200.964	0.177	-0.273
-215.552	147.757	0.218	0.295
-214.538	148.157	0.118	-0.159
-213.523	110.424	-0.048	-0.058
-212.509	153.976	-0.231	-0.317
-211.494	-142.695	-0.138	-0.014
-210.479	-19.836	0.276	-0.171
-209.465	800.000	-0.062	0.175
-208.450	59.044	-0.083	0.082
-207.436	51.829	-0.162	-0.155
-206.421	-102.612	0.330	0.079
-205.406	-80.994	-0.206	0.068
-204.392	0.356	-0.144	0.103
-203.377	-62.286	-0.182	-0.076
-202.363	113.917	0.052	0.063
-201.348	188.828	-0.165	-0.248
-200.333	800.000	-0.065	0.199
-199.319	-200.000	0.012	-0.182
-198.304	34.448	-0.182	-0.159
-197.290	-42.484	0.160	0.082
-196.275	-144.738	-0.297	-0.027
-195.260	-84.525	-0.128	-0.040
-194.246	21.297	-0.098	0.080
-193.231	-200.000	-0.001	-0.043
-192.217	-200.000	0.044	0.228
-191.202	79.899	-0.234	0.252
-190.187	-200.000	0.027	-0.369
-189.173	-200.000	0.001	-0.053
-188.158	-53.274	-0.134	0.061
-187.144	117.896	0.201	-0.248
-186.129	-105.990	0.304	-0.069
-185.114	39.956	0.063	0.057
-184.100	-21.032	-0.271	-0.166
-183.085	-200.000	0.001	0.067
-182.071	-123.991	-0.242	-0.038
-181.056	-199.729	-0.143	0.001
-180.042	89.451	-0.160	0.178
-179.027	208.489	0.085	-0.133
-178.012	-100.098	-0.148	-0.037
-176.998	-87.923	-0.098	0.029
-175.983	-152.698	-0.171	0.012
-174.969	-104.797	-0.146	0.034
-173.954	147.856	-0.155	-0.209
-172.939	-0.019	-0.093	0.067
-171.925	-129.680	0.418	-0.058
-170.910	351.338	-0.166	0.330
-169.896	800.000	-0.060	-0.250
-168.881	-62.546	0.215	0.089
-167.866	-104.871	-0.149	0.034
-166.852	-87.349	0.199	-0.060
-165.837	-126.311	0.364	0.054
-164.823	-200.000	-0.064	0.418
-163.808	254.176	-0.030	0.051
-162.793	-9.555	0.069	0.046
-161.779	166.010	-0.219	0.311
-160.764	-56.591	-0.210	0.093
-159.750	414.210	0.068	-0.145
-158.735	-0.426	0.394	-0.280
-157.720	30.463	-0.228	-0.195
-156.706	-138.637	0.145	0.016
-155.691	-200.000	0.007	0.142
-154.677	-85.851	0.134	-0.041
-153.662	59.523	0.125	-0.123
-152.647	-13.396	0.250	-0.162
-151.633	90.079	-0.057	0.064
-150.618	-123.102	0.168	-0.027
-149.604	800.000	-0.148	-0.489
-148.589	-104.826	0.387	-0.089
-147.574	-200.000	-0.043	0.388
-146.560	268.120	-0.036	-0.063
-145.545	-72.032	0.292	-0.108
-144.531	800.000	-0.055	-0.172
-143.516	800.000	-0.039	0.126
-142.502	800.000	0.095	-0.313
-141.487	678.852	-0.080	-0.207
-140.472	-100.171	-0.251	-0.062
-139.458	800.000	0.029	0.120
-138.443	-81.374	-0.044	-0.015
-137.429	-67.469	-0.281	-0.110
-136.414	800.000	0.049	-0.204
-135.399	-161.552	-0.299	-0.015
-134.385	-56.540	-0.202	0.089
-133.370	476.428	0.093	0.209
-132.356	68.517	-0.038	-0.039
-131.341	-200.000	0.021	-0.240
-130.326	800.000	0.024	0.075
-129.312	800.000	0.032	0.122
-128.297	293.536	0.072	0.132
-127.283	-200.000	-0.162	0.000
-126.268	-55.454	-0.078	-0.035
-125.253	27.481	-0.344	-0.289
-124.239	-200.000	-0.014	-0.073
-123.224	800.000	0.048	-0.167
-122.210	-172.067	0.133	0.004
-121.195	-14.014	0.190	-0.123
-120.180	382.829	-0.017	0.035
-119.166	-200.000	-0.006	0.207
-118.151	-109.035	0.290	0.062
-117.137	-200.000	-0.019	-0.234
-116.122	39.664	0.143	0.128
-115.107	-73.419	0.218	-0.079
-114.093	52.901	0.132	0.126
-113.078	-93.639	-0.185	0.051
-112.064	77.201	-0.090	-0.096
-111.049	-200.000	0.007	0.118
-110.034	800.000	-0.086	0.248
-109.020	-164.203	-0.153	0.007
-108.005	-151.470	0.134	0.010
-106.991	-78.438	0.227	0.077
-105.976	-200.000	-0.041	0.574
-104.962	800.000	-0.101	0.290
-103.947	234.254	0.124	0.203
-102.932	-60.709	0.192	0.081
-101.918	-162.123	0.080	-0.004
-100.903	-101.698	0.341	0.083
-99.889	-67.705	0.147	0.057
-98.874	-128.483	0.089	-0.013
-97.859	204.359	0.206	-0.319
-96.845	-13.170	0.108	-0.070
-95.830	-147.041	-0.192	0.016
-94.816	-67.609	0.063	-0.025
-93.801	191.348	-0.174	0.261
-92.786	123.987	-0.087	-0.109
-91.772	-101.244	-0.298	-0.073
-90.757	227.564	-0.138	-0.224
-89.743	800.000	-0.099	0.300
-88.728	9.268	-0.113	-0.085
-87.713	-151.169	0.216	-0.016
-86.699	-87.050	0.246	0.075
-85.684	-200.000	0.005	0.202
-84.670	-92.239	0.341	-0.096
-83.655	-200.000	0.017	-0.152
-82.640	-106.395	0.137	-0.030
-81.626	-200.000	-0.014	0.063
-80.611	-200.000	-0.048	-0.236
-79.597	800.000	0.055	-0.183
-78.582	-5.575	0.175	-0.120
-77.567	-70.992	-0.247	0.093
-76.553	185.900	0.117	-0.173
-75.538	132.778	0.068	-0.088
-74.524	-40.682	0.161	0.083
-73.509	99.609	-0.233	-0.269
-72.494	-104.061	-0.118	-0.027
-71.480	21.861	0.277	0.225
-70.465	-200.000	-0.020	0.143
-69.451	800.000	0.102	0.296
-68.436	-64.094	0.442	-0.180
-67.422	424.317	-0.106	-0.227
-66.407	-26.873	0.407	-0.237
-65.392	-38.240	0.200	0.106
-64.378	317.647	-0.076	0.144
-63.363	800.000	-0.111	0.419
-62.349	37.698	0.257	0.228
-61.334	-6.213	-0.733	-0.499
-60.319	557.369	0.272	0.654
-59.305	-200.000	0.038	-1.215
-58.290	27.285	0.583	0.488
-57.276	447.458	0.654	1.433
-56.261	-200.000	76.771	512.344
-55.246	518.433	1320.264	3078.269
-54.232	148.885	2544.692	3426.697
-53.217	114.995	2240.459	2722.550
-52.203	50.921	1769.806	1670.213
-51.188	43.871	1570.631	1432.568
-50.173	41.288	1540.804	1387.350
-49.159	57.228	1578.164	1533.352
-48.144	63.058	1597.844	1593.370
-47.130	44.565	1560.941	1428.380
-46.115	40.916	1546.454	1389.615
-45.100	40.763	1543.198	1385.571
-44.086	40.665	1541.205	1383.041
-43.071	40.606	1538.745	1380.371
-42.057	40.637	1536.857	1378.836
-41.042	40.666	1535.389	1377.665
-40.027	40.587	1534.208	1376.000
-39.013	40.506	1532.423	1373.783
-37.998	40.574	1531.284	1373.183
-36.984	40.521	1530.228	1371.809
-35.969	40.491	1529.384	1370.793
-34.954	40.603	1527.736	1370.036
-33.940	40.693	1525.402	1368.509
-32.925	40.668	1523.914	1366.949
-31.911	40.660	1522.454	1365.532
-30.896	40.631	1521.649	1364.555
-29.881	40.699	1520.100	1363.580
-28.867	40.718	1519.104	1362.759
-27.852	40.662	1517.534	1360.916
-26.838	40.654	1515.875	1359.318
-25.823	40.636	1514.492	1357.897
-24.809	40.678	1512.392	1356.250
-23.794	40.623	1511.332	1354.873
-22.779	40.609	1509.935	1353.470
-21.765	40.707	1509.065	1353.301
-20.750	40.645	1507.637	1351.549
-19.736	40.579	1506.936	1350.416
-18.721	40.666	1505.652	1349.805
-17.706	40.674	1503.603	1347.968
-16.692	40.597	1503.217	1347.046
-15.677	40.489	1502.198	1345.347
-14.663	40.588	1501.037	1344.924
-13.648	40.618	1499.763	1343.931
-12.633	40.593	1498.843	1342.886
-11.619	40.559	1498.239	1342.061
-10.604	40.672	1497.349	1341.974
-9.590	40.612	1496.223	1340.504
-8.575	40.589	1495.275	1339.448
-7.560	40.638	1494.615	1339.132
-6.546	40.537	1493.981	1337.830
-5.531	40.585	1493.003	1337.229
-4.517	40.592	1492.232	1336.530
-3.502	40.537	1491.261	1335.236
-2.487	40.567	1489.706	1333.995
-1.473	40.665	1488.952	1333.921
-0.458	40.574	1487.741	1332.178
0.556	40.885	1477.764	1319.423
1.571	37.131	1449.039	1269.160
2.586	32.436	1385.159	1183.662
3.600	30.131	1300.326	1097.439
4.615	28.222	1251.421	1045.182
5.629	23.597	1192.909	970.990
6.644	12.654	1102.810	841.904
7.659	3.894	1056.564	763.442
8.673	2.706	1050.540	753.191
9.688	2.456	1047.147	749.468
10.702	2.195	1045.694	747.088
11.717	2.254	1044.203	746.242
12.731	5.659	1048.169	765.677
13.746	16.052	1063.714	828.280
14.761	24.359	1073.515	876.854
15.775	25.879	1075.192	885.624
16.790	25.967	1074.369	885.302
17.804	25.756	1073.866	883.773
18.819	25.545	1073.083	882.012
19.834	25.657	1071.746	881.388
20.848	25.765	1071.991	882.037
21.863	25.811	1071.568	881.836
22.877	25.822	1071.241	881.547
23.892	25.849	1070.228	880.766
24.907	25.791	1069.323	879.661
25.921	25.679	1068.849	878.644
26.936	25.712	1068.701	878.607
27.950	25.615	1067.146	876.778
28.965	25.721	1065.912	876.202
29.980	25.593	1064.340	874.210
30.994	25.646	1063.011	873.300
32.009	25.703	1062.702	873.242
33.023	25.844	1061.897	873.190
34.038	25.684	1060.981	871.584
35.053	25.588	1060.101	870.320
36.067	25.876	1059.147	870.850
37.082	25.796	1058.619	869.955
38.096	25.670	1058.294	869.000
39.111	25.966	1057.467	869.672
40.126	26.163	1056.416	869.679
41.140	25.937	1055.095	867.426
42.155	25.710	1053.781	865.181
43.169	25.331	1052.663	862.368
44.184	25.332	1051.706	861.511
45.199	25.488	1050.668	861.334
46.213	25.312	1049.989	859.856
47.228	25.290	1048.962	858.835
48.242	25.434	1048.618	859.166
49.257	25.671	1047.479	859.285
50.271	25.706	1046.652	858.701
51.286	25.774	1046.216	858.592
52.301	25.809	1045.623	858.197
53.315	25.871	1044.687	857.647
54.330	25.820	1044.312	857.017
55.344	25.602	1043.477	855.220
56.359	25.618	1042.629	854.525
57.374	25.841	1041.313	854.433
58.388	25.643	1040.616	852.844
59.403	25.540	1040.001	851.775
60.417	25.538	1039.272	851.094
61.432	25.480	1038.657	850.242
62.447	25.320	1037.922	848.809
63.461	25.362	1037.721	848.768
64.476	25.463	1036.453	848.134
65.490	25.574	1035.251	847.595
66.505	25.434	1034.484	846.234
67.520	25.443	1034.173	845.947
68.534	25.554	1032.984	845.423
69.549	25.370	1032.422	844.022
70.563	25.147	1030.971	841.716
71.578	25.048	1030.170	840.521
72.593	25.022	1030.104	840.271
73.607	24.820	1028.551	837.985
74.622	24.849	1027.527	837.212
75.636	25.091	1026.866	837.733
76.651	25.250	1026.236	837.884
77.666	25.222	1025.249	836.874
78.680	25.085	1024.430	835.494
79.695	25.089	1024.332	835.356
80.709	25.089	1023.700	834.768
81.724	25.354	1022.454	834.914
82.739	25.307	1021.689	833.996
83.753	25.312	1020.852	833.260
84.768	25.613	1020.472	834.274
85.782	25.921	1020.159	835.371
86.797	26.075	1019.473	835.448
87.812	26.113	1018.474	834.730
88.826	25.812	1017.769	832.690
89.841	25.827	1016.988	832.044
90.855	26.047	1016.012	832.189
91.870	25.963	1015.212	831.073
92.884	25.975	1014.498	830.469
93.899	25.831	1013.789	829.155
94.914	25.824	1012.325	827.850
95.928	25.882	1012.232	827.967
96.943	25.934	1011.018	827.138
97.957	25.701	1010.175	825.309
98.972	25.384	1008.845	822.697
99.987	25.356	1007.289	821.229
101.001	25.462	1007.339	821.679
102.016	25.578	1006.708	821.621
103.030	25.745	1005.699	821.488
104.045	25.665	1005.035	820.508
105.060	25.562	1003.326	818.573
106.074	25.468	1002.079	817.054
107.089	25.406	1001.641	816.344
108.103	25.626	1001.342	817.026
109.118	25.623	1001.019	816.676
110.133	25.340	999.850	814.367
111.147	25.573	998.350	814.132
112.162	25.458	997.282	812.665
113.176	25.267	995.713	810.452
114.191	25.258	995.628	810.273
115.206	25.354	994.961	810.091
116.220	25.021	993.951	807.698
117.235	24.957	992.751	806.359
118.249	25.045	992.217	806.253
119.264	25.180	991.345	806.081
120.279	25.106	990.292	804.821
121.293	24.956	989.588	803.504
122.308	25.186	989.340	804.265
123.322	25.131	988.425	803.200
124.337	25.199	987.186	802.426
125.352	25.015	985.959	800.536
126.366	24.598	984.390	797.332
127.381	24.436	982.880	795.315
128.395	24.756	982.843	796.641
129.410	25.469	982.382	799.370
130.424	25.671	982.118	799.985
131.439	25.580	981.379	798.906
132.454	25.539	980.330	797.798
133.468	25.710	979.362	797.701
134.483	25.521	978.729	796.275
135.497	25.602	977.862	795.858
136.512	25.892	977.163	796.499
137.527	25.940	976.845	796.382
138.541	25.877	975.928	795.289
139.556	26.021	975.369	795.396
140.570	25.999	974.206	794.279
141.585	26.048	973.097	793.520
142.600	25.973	972.961	793.012
143.614	25.956	971.516	791.689
144.629	26.076	971.175	791.866
145.643	26.257	970.430	791.983
146.658	26.235	969.302	790.895
147.673	26.029	968.019	788.879
148.687	25.956	966.890	787.571
149.702	25.737	966.187	785.971
150.716	25.630	965.310	784.720
151.731	25.649	964.012	783.679
152.746	25.703	963.685	783.579
153.760	25.873	963.128	783.796
154.775	25.975	962.313	783.508
155.789	26.116	961.306	783.230
156.804	25.965	960.669	781.987
157.819	26.018	959.152	780.912
158.833	25.921	958.649	780.016
159.848	26.038	958.107	780.012
160.862	26.208	957.219	779.951
161.877	26.060	956.221	778.430
162.892	25.916	955.525	777.174
163.906	25.998	954.885	776.939
164.921	26.029	953.774	776.101
165.935	25.955	952.695	774.837
166.950	25.922	952.066	774.113
167.964	26.044	950.852	773.584
168.979	25.977	949.971	772.507
169.994	25.756	949.084	770.774
171.008	25.743	947.650	769.483
172.023	25.884	947.188	769.645
173.037	26.090	946.332	769.759
174.052	25.984	945.082	768.222
175.067	25.789	944.302	766.692
176.081	25.664	943.534	765.466
177.096	25.693	943.093	765.164
178.110	25.860	941.551	764.556
179.125	25.581	941.281	763.086
180.140	25.315	940.101	760.935
181.154	25.427	939.115	760.544
182.169	25.434	939.035	760.441
183.183	25.668	938.780	761.158
184.198	26.033	938.624	762.504
185.213	26.005	937.551	761.447
186.227	25.828	936.952	760.148
187.242	25.847	936.515	759.804
188.256	26.034	935.629	759.808
189.271	25.946	935.053	758.901
190.286	25.990	934.508	758.578
191.300	25.935	933.451	757.421
192.315	25.361	931.936	753.719
193.329	24.500	930.544	748.914
194.344	24.139	929.239	746.284
195.359	24.658	929.394	748.519
196.373	25.575	930.252	752.986
197.388	25.835	929.986	753.790
198.402	25.829	929.174	753.041
199.417	25.842	928.523	752.502
200.432	26.039	927.938	752.782
201.446	25.872	927.231	751.448
202.461	25.503	926.390	749.159
203.475	25.638	926.031	749.368
204.490	25.096	924.977	746.191
205.504	24.115	922.635	740.160
206.519	24.449	922.248	741.171
207.534	25.509	922.747	745.909
208.548	25.445	922.097	745.053
209.563	25.824	922.033	746.505
210.577	25.912	921.255	746.176
211.592	25.611	920.735	744.440
212.607	25.915	920.898	745.763
213.621	26.081	920.221	745.837
214.636	26.081	919.586	745.257
215.650	26.057	918.763	744.426
216.665	25.907	918.580	743.590
217.680	26.025	917.737	743.328
218.694	26.176	917.200	743.450
219.709	25.895	916.295	741.494
220.723	25.458	915.440	738.940
221.738	25.765	914.454	739.342
222.753	25.972	914.162	739.890
223.767	25.902	913.502	739.001
224.782	25.926	912.816	738.482
225.796	26.052	912.677	738.818
226.811	26.127	912.021	738.530
227.826	25.939	910.506	736.467
228.840	24.938	909.577	731.565
229.855	24.814	908.610	730.216
230.869	25.088	908.707	731.348
231.884	24.862	907.435	729.337
232.899	24.868	906.904	728.874
233.913	25.711	907.227	732.497
234.928	25.947	906.279	732.629
235.942	25.883	905.264	731.485
236.957	25.766	905.026	730.749
237.972	25.496	904.137	728.875
238.986	25.340	903.696	727.820
240.001	25.463	903.292	727.929
241.015	25.361	902.844	727.091
242.030	25.625	901.961	727.383
243.045	25.762	901.438	727.450
244.059	25.778	901.104	727.183
245.074	26.004	900.161	727.268
246.088	25.934	899.401	726.308
247.103	25.503	898.885	724.093
248.117	25.683	897.836	723.905
249.132	26.130	897.851	725.653
250.147	26.608	898.001	727.632
251.161	26.622	897.683	727.362
252.176	26.773	897.056	727.397
253.190	26.851	896.144	726.907
254.205	26.697	896.076	726.170
255.220	27.062	895.310	726.946
256.234	26.932	895.213	726.284
257.249	26.984	894.013	725.451
258.263	26.808	893.501	724.272
259.278	26.747	892.758	723.360
260.293	26.800	892.567	723.352
261.307	26.880	891.873	723.046
262.322	26.725	891.541	722.093
263.336	26.694	890.612	721.154
264.351	26.299	889.247	718.416
265.366	25.112	887.514	712.241
266.380	24.530	886.482	709.040
267.395	25.516	886.833	713.169
268.409	26.310	886.999	716.389
269.424	26.371	886.086	715.828
270.439	26.455	886.230	716.215
271.453	26.569	885.250	715.813
272.468	26.522	884.729	715.141
273.482	26.693	884.044	715.200
274.497	26.890	883.713	715.646
275.512	26.500	882.981	713.453
276.526	26.030	881.389	710.254
277.541	26.303	881.236	711.140
278.555	26.647	880.729	712.021
279.570	26.413	879.936	710.400
280.585	26.374	879.508	709.835
281.599	26.475	879.000	709.759
282.614	26.444	878.589	709.245
283.628	25.844	877.344	705.827
284.643	25.615	876.522	704.207
285.657	26.052	876.566	705.890
286.672	25.945	875.918	704.885
287.687	25.556	874.727	702.345
288.701	25.783	874.717	703.164
289.716	26.318	874.216	704.784
290.730	25.797	873.618	702.209
291.745	25.618	872.617	700.646
292.760	25.768	871.159	699.996
293.774	25.407	871.207	698.570
294.789	26.434	871.777	702.960
295.803	27.022	872.049	705.400
296.818	26.963	871.342	704.535
297.833	27.185	871.049	705.099
298.847	26.910	869.842	702.995
299.862	26.458	868.982	700.486
300.876	26.675	868.288	700.705
301.891	26.999	868.248	701.865
302.906	27.180	867.528	701.920
303.920	26.743	866.618	699.436
304.935	26.603	866.071	698.391
305.949	26.904	865.705	699.196
306.964	27.165	864.785	699.393
307.979	26.886	864.384	697.934
308.993	26.680	863.987	696.761
310.008	27.150	863.617	698.206
311.022	27.246	863.114	698.106
312.037	27.067	862.297	696.697
313.052	26.791	861.842	695.208
314.066	26.651	861.334	694.201
315.081	26.090	859.400	690.436
316.095	25.250	858.370	686.337
317.110	25.872	858.541	688.790
318.125	26.703	858.689	692.022
319.139	26.319	858.050	689.983
320.154	25.181	855.960	683.905
321.168	24.775	854.604	681.216
322.183	25.341	855.019	683.641
323.197	26.178	855.551	687.194
324.212	26.580	855.323	688.477
325.227	26.781	855.046	688.957
326.241	27.013	854.327	689.198
327.256	26.773	853.768	687.775
328.270	26.800	853.099	687.276
329.285	26.630	852.865	686.385
330.300	26.413	851.982	684.792
331.314	26.206	851.230	683.345
332.329	26.181	850.469	682.576
333.343	26.647	850.420	684.238
334.358	27.066	849.796	685.256
335.373	27.055	849.364	684.805
336.387	26.801	849.200	683.656
337.402	27.051	848.832	684.241
338.416	27.352	847.985	684.632
339.431	27.174	847.706	683.677
340.446	27.498	846.793	684.096
341.460	27.512	846.894	684.169
342.475	27.526	846.100	683.519
343.489	27.267	845.691	682.157
344.504	27.280	844.990	681.582
345.519	27.584	844.475	682.244
346.533	27.748	844.165	682.544
347.548	27.763	844.046	682.446
348.562	27.854	843.549	682.325
349.577	27.757	842.893	681.371
350.592	27.638	842.166	680.278
351.606	27.499	841.760	679.371
352.621	27.572	841.184	679.120
353.635	27.545	840.649	678.526
354.650	27.478	839.999	677.692
355.665	27.211	839.322	676.095
356.679	26.101	837.401	670.366
357.694	26.019	836.897	669.599
358.708	26.662	836.776	671.829
359.723	26.696	836.280	671.495
360.738	26.661	836.487	671.474
361.752	27.298	836.049	673.421
362.767	27.489	835.818	673.880
363.781	27.660	835.802	674.444
364.796	27.940	835.314	675.023
365.810	28.174	835.024	675.593
366.825	28.138	834.608	675.063
367.840	28.167	834.678	675.167
368.854	27.961	834.029	673.825
369.869	27.613	832.664	671.380
370.883	27.423	831.942	670.039
371.898	27.425	831.615	669.723
372.913	27.352	830.591	668.571
373.927	27.436	829.920	668.282
374.942	27.530	829.559	668.276
375.956	27.704	828.912	668.333
376.971	27.816	828.516	668.365
377.986	27.880	828.075	668.183
379.000	28.045	827.786	668.494
380.015	28.089	827.276	668.183
381.029	27.839	826.762	666.796
382.044	27.756	826.316	666.078
383.059	27.971	825.650	666.265
384.073	28.095	825.000	666.134
385.088	28.032	824.406	665.366
386.102	27.911	824.252	664.742
387.117	28.005	822.927	663.957
388.132	27.623	822.517	662.179
389.146	27.632	822.018	661.749
390.161	27.127	820.770	658.857
391.175	27.045	820.896	658.603
392.190	27.686	820.801	660.790
393.205	27.797	820.127	660.591
394.219	26.883	818.173	655.657
395.234	25.242	816.072	647.997
396.248	24.183	815.509	643.669
397.263	25.229	816.011	647.786
398.278	27.117	817.395	655.648
399.292	27.609	817.376	657.349
400.307	27.162	816.800	655.217
401.321	27.349	815.795	655.025
402.336	27.468	815.614	655.252
403.350	27.596	815.817	655.816
404.365	28.003	815.834	657.237
405.380	28.271	815.577	657.933
406.394	28.630	815.230	658.885
407.409	28.845	814.734	659.194
408.423	28.675	814.336	658.206
409.438	28.751	813.610	657.833
410.453	28.620	813.503	657.219
411.467	28.703	813.330	657.319
412.482	28.727	812.253	656.474
413.496	28.646	811.849	655.801
414.511	28.942	811.110	656.202
415.526	28.815	811.143	655.718
416.540	28.767	810.839	655.243
417.555	28.693	810.313	654.498
418.569	28.359	809.528	652.615
419.584	28.421	808.819	652.206
420.599	28.560	808.394	652.301
421.613	96.049	1265.001	1378.628
422.628	82.532	1331.541	1378.760
