DTS Sentinel unit serial number:	SN413079Multiplexer serial number:	ORYXHardware model number:	OX4-SRSoftware version number:	ORYX F/W v4.00 Oryx Data Collector v3.7.2.0data status	okinstallation	princeton_trtdifferential loss correction	single-endedforward channel	channel 3reverse channel	N/Adate	2019/09/18time	12:12:35forward acquisition time	60.00reverse acquisition time	0.00gamma	496.2192k internal	0.2323k external	0.2323temperature offset calibration	0.9959default loss term (dB/km)	0.3790temperature slope calibration	1.0000multiplexer offset coefficient	1.0000multiplexer slope coefficient	1.0000fibre end	0.00T internal ref (°C)	31.70T ext. ref 1 (°C)	0.50T ext. ref 2 (°C)	27.19length (m)	temperature (°C)	Stokes	anti-Stokes-747.200	171.428	0.065	0.094
-746.185	-136.957	-0.324	0.038
-745.171	-138.857	-0.168	-0.019
-744.156	-101.855	0.110	-0.027
-743.142	217.357	-0.224	-0.360
-742.127	-118.064	-0.120	0.022
-741.112	1.369	-0.168	0.122
-740.098	-200.000	0.008	-0.050
-739.083	-92.479	-0.086	0.024
-738.069	800.000	0.029	-0.099
-737.054	-200.000	0.110	-0.580
-736.039	-90.561	-0.065	0.019
-735.025	-200.000	-0.035	0.376
-734.010	128.121	-0.191	0.246
-732.996	-21.588	-0.360	0.221
-731.981	-75.635	-0.147	-0.053
-730.966	38.616	-0.008	0.007
-729.952	-12.404	-0.174	-0.115
-728.937	-86.158	-0.106	-0.033
-727.923	-65.324	-0.359	0.146
-726.908	-140.718	-0.313	0.033
-725.894	-200.000	0.013	-0.186
-724.879	18.789	-0.178	-0.144
-723.864	-123.048	0.198	-0.032
-722.850	-116.995	-0.377	0.069
-721.835	54.203	0.122	-0.119
-720.821	231.568	0.207	0.343
-719.806	800.000	-0.057	0.233
-718.791	-155.512	0.151	0.010
-717.777	135.132	0.049	-0.065
-716.762	-200.000	-0.036	-0.256
-715.748	82.648	0.124	-0.136
-714.733	800.000	0.124	0.440
-713.718	-97.700	-0.088	0.023
-712.704	-99.007	0.280	0.072
-711.689	435.663	0.077	0.168
-710.675	197.511	-0.098	0.152
-709.660	472.427	-0.093	-0.211
-708.645	-200.000	0.017	-0.077
-707.631	-82.059	0.307	-0.101
-706.616	394.299	-0.096	0.203
-705.602	12.321	-0.109	0.084
-704.587	148.345	0.134	0.183
-703.572	443.627	-0.099	-0.219
-702.558	800.000	0.112	-0.403
-701.543	-39.730	-0.364	0.192
-700.529	31.293	0.037	-0.032
-699.514	112.755	-0.176	0.215
-698.499	-98.308	0.203	-0.052
-697.485	-164.196	-0.249	0.012
-696.470	800.000	0.069	-0.204
-695.456	-16.374	-0.371	-0.237
-694.441	800.000	-0.041	0.164
-693.426	800.000	-0.055	-0.234
-692.412	-200.000	0.027	0.257
-691.397	-200.000	-0.021	0.093
-690.383	97.741	-0.122	-0.141
-689.368	-200.000	-0.036	-0.219
-688.354	-86.975	0.055	0.017
-687.339	380.173	0.138	-0.285
-686.324	-2.259	0.160	0.113
-685.310	399.091	-0.037	0.077
-684.295	-157.607	-0.020	0.001
-683.281	-200.000	0.050	-0.308
-682.266	-70.508	-0.266	0.101
-681.251	-33.993	0.216	-0.120
-680.237	59.042	0.195	-0.193
-679.222	-87.331	-0.415	-0.127
-678.208	-66.351	0.212	0.085
-677.193	-78.259	-0.151	0.052
-676.178	-72.564	0.141	0.052
-675.164	-94.162	-0.129	0.035
-674.149	-63.172	-0.239	0.099
-673.135	-200.000	-0.039	0.178
-672.120	-191.111	0.059	0.001
-671.105	-27.613	-0.231	0.135
-670.091	-200.000	0.035	0.223
-669.076	169.839	0.248	0.357
-668.062	-67.090	0.337	0.134
-667.047	-200.000	0.032	-0.410
-666.032	-106.097	-0.153	-0.035
-665.018	-200.000	-0.009	0.122
-664.003	-65.333	0.210	-0.085
-662.989	-54.567	0.264	0.120
-661.974	-62.737	0.134	0.056
-660.959	359.365	-0.061	0.122
-659.945	-1.540	-0.156	-0.111
-658.930	-79.031	0.157	0.054
-657.916	-146.303	0.202	0.018
-656.901	-50.933	-0.247	-0.117
-655.886	-192.388	-0.171	-0.002
-654.872	9.199	0.151	-0.115
-653.857	792.538	-0.129	-0.357
-652.843	-87.302	-0.243	0.074
-651.828	-200.000	-0.001	0.086
-650.814	-200.000	-0.003	0.086
-649.799	-93.438	-0.124	0.034
-648.784	-200.000	-0.053	-0.268
-647.770	-126.971	-0.402	-0.059
-646.755	-24.716	0.125	-0.075
-645.741	-43.889	-0.312	-0.158
-644.726	-44.358	-0.273	-0.137
-643.711	-142.111	-0.345	0.034
-642.697	-124.492	0.426	0.067
-641.682	-10.317	0.146	-0.097
-640.668	329.250	-0.024	0.046
-639.653	-19.344	0.191	0.119
-638.638	89.856	-0.268	-0.301
-637.624	-200.000	0.017	-0.467
-636.609	800.000	0.078	-0.280
-635.595	-87.829	0.240	-0.073
-634.580	20.060	0.087	-0.071
-633.565	215.269	0.155	0.247
-632.551	-145.244	0.173	-0.016
-631.536	64.848	-0.093	0.095
-630.522	-200.000	0.030	0.289
-629.507	55.970	-0.011	-0.010
-628.492	92.822	0.117	-0.133
-627.478	-200.000	0.021	0.119
-626.463	27.417	0.244	-0.206
-625.449	118.847	-0.023	0.028
-624.434	29.657	-0.121	0.103
-623.419	-141.416	0.133	0.014
-622.405	800.000	-0.082	-0.281
-621.390	95.155	-0.161	-0.184
-620.376	4.291	-0.239	-0.176
-619.361	-0.527	0.139	0.099
-618.346	-200.000	-0.037	0.327
-617.332	-200.000	-0.011	-0.084
-616.317	-78.800	-0.212	-0.073
-615.303	232.404	0.058	-0.095
-614.288	-162.807	-0.051	-0.003
-613.273	-200.000	-0.020	-0.191
-612.259	-172.742	0.175	0.005
-611.244	-86.044	-0.245	0.076
-610.230	6.163	-0.338	-0.252
-609.215	72.334	0.097	0.102
-608.201	-34.711	-0.193	-0.106
-607.186	-200.000	0.005	-0.217
-606.171	-51.869	0.026	0.012
-605.157	-19.992	-0.056	-0.035
-604.142	-195.448	-0.259	-0.002
-603.128	-92.473	0.363	0.103
-602.113	22.254	0.078	-0.064
-601.098	800.000	0.059	-0.241
-600.084	-200.000	0.020	0.253
-599.069	-24.280	-0.214	0.128
-598.055	-115.457	-0.300	0.057
-597.040	213.207	-0.078	0.123
-596.025	194.813	-0.136	-0.207
-595.011	-132.691	-0.172	0.022
-593.996	800.000	-0.122	0.395
-592.982	-115.379	0.008	0.001
-591.967	5.353	0.309	0.229
-590.952	720.065	-0.143	0.382
-589.938	-195.315	0.355	-0.003
-588.923	195.836	0.088	0.134
-587.909	-200.000	0.053	-0.279
-586.894	216.756	0.076	0.122
-585.879	277.937	-0.183	0.328
-584.865	8.463	-0.068	0.051
-583.850	-18.633	-0.223	-0.140
-582.836	-200.000	0.038	-0.357
-581.821	147.486	-0.044	-0.060
-580.806	-200.000	0.013	0.101
-579.792	-66.816	-0.108	-0.043
-578.777	0.485	0.178	-0.128
-577.763	230.298	-0.044	-0.072
-576.748	-200.000	-0.056	0.378
-575.733	800.000	0.048	0.206
-574.719	345.815	0.035	0.070
-573.704	64.317	0.133	0.135
-572.690	229.212	-0.087	0.143
-571.675	78.612	-0.153	0.164
-570.661	182.387	0.311	0.460
-569.646	-200.000	-0.004	0.093
-568.631	-53.368	-0.158	-0.073
-567.617	-106.600	0.396	0.089
-566.602	-44.689	0.300	-0.150
-565.588	126.872	-0.115	-0.146
-564.573	-53.250	-0.028	-0.013
-563.558	765.219	-0.024	-0.065
-562.544	-106.234	0.097	0.022
-561.529	-200.000	-0.019	0.274
-560.515	93.273	0.250	0.284
-559.500	-200.000	-0.020	0.247
-558.485	263.658	-0.078	-0.136
-557.471	-95.191	-0.065	-0.017
-556.456	-116.263	-0.063	0.012
-555.442	-200.000	0.059	-0.319
-554.427	4.219	-0.327	-0.240
-553.412	74.889	0.089	0.094
-552.398	161.590	-0.090	-0.127
-551.383	40.190	0.094	0.085
-550.369	-139.394	-0.109	-0.012
-549.354	-200.000	-0.016	0.210
-548.339	34.205	-0.026	-0.022
-547.325	-71.176	0.189	0.071
-546.310	155.236	0.078	-0.108
-545.296	-200.000	-0.011	-0.051
-544.281	-46.429	-0.164	0.081
-543.266	-200.000	-0.033	0.181
-542.252	-138.891	-0.208	-0.023
-541.237	6.349	-0.230	0.171
-540.223	-198.508	-0.153	-0.001
-539.208	-48.784	0.135	-0.065
-538.193	-200.000	-0.006	-0.089
-537.179	-122.107	-0.413	0.068
-536.164	-200.000	-0.036	0.350
-535.150	-138.649	0.107	0.012
-534.135	165.896	0.181	-0.256
-533.121	-56.778	-0.184	0.081
-532.106	11.091	-0.127	-0.097
-531.091	-200.000	-0.006	0.141
-530.077	180.738	0.086	0.127
-529.062	65.422	-0.183	0.186
-528.048	662.526	0.110	-0.284
-527.033	-39.990	0.106	-0.056
-526.018	16.975	0.288	0.229
-525.004	6.211	-0.287	0.213
-523.989	20.561	0.100	0.081
-522.975	-30.149	-0.194	-0.111
-521.960	-79.915	-0.276	0.093
-520.945	-114.788	0.256	0.049
-519.931	-26.744	-0.091	0.054
-518.916	-200.000	-0.006	0.111
-517.902	-185.386	0.221	-0.003
-516.887	-80.374	-0.118	-0.039
-515.872	-200.000	0.047	0.221
-514.858	177.649	0.038	-0.056
-513.843	-200.000	0.025	0.203
-512.829	142.168	0.106	0.141
-511.814	-66.518	0.024	0.010
-510.799	58.593	-0.191	0.188
-509.785	17.866	-0.062	-0.049
-508.770	22.269	-0.226	0.185
-507.756	-197.050	-0.186	0.001
-506.741	55.372	-0.099	0.096
-505.726	-142.020	0.193	-0.019
-504.712	-118.079	-0.092	0.016
-503.697	-200.000	0.000	-0.033
-502.683	165.021	-0.043	-0.060
-501.668	800.000	-0.043	0.160
-500.653	800.000	-0.062	-0.175
-499.639	158.340	-0.060	-0.083
-498.624	-30.350	0.203	-0.116
-497.610	60.066	0.033	-0.032
-496.595	-161.464	0.069	0.004
-495.581	70.756	-0.132	0.136
-494.566	-167.440	-0.318	-0.013
-493.551	601.279	-0.090	-0.224
-492.537	-191.043	0.115	0.001
-491.522	-113.130	0.299	-0.059
-490.508	64.070	-0.091	0.091
-489.493	45.185	0.079	-0.073
-488.478	221.930	0.051	-0.082
-487.464	333.701	0.079	-0.152
-486.449	-63.892	-0.213	-0.087
-485.435	-200.000	0.014	0.204
-484.420	622.772	-0.055	0.139
-483.405	-67.872	0.130	0.051
-482.391	55.122	0.170	-0.164
-481.376	17.121	0.187	0.148
-480.362	-38.607	0.183	0.097
-479.347	-102.800	-0.446	0.106
-478.332	81.456	0.046	-0.050
-477.318	21.143	-0.317	-0.257
-476.303	364.968	0.114	-0.229
-475.289	103.502	0.042	-0.050
-474.274	-73.735	0.390	-0.142
-473.259	345.269	-0.082	-0.161
-472.245	483.118	-0.021	-0.049
-471.230	800.000	-0.045	-0.184
-470.216	-49.689	0.218	-0.104
-469.201	119.109	-0.044	0.054
-468.186	462.908	-0.055	0.122
-467.172	-78.254	-0.194	0.066
-466.157	26.852	-0.176	-0.147
-465.143	-200.000	-0.029	0.135
-464.128	-200.000	-0.016	0.144
-463.113	-112.839	-0.128	0.025
-462.099	-200.000	-0.005	-0.166
-461.084	128.674	-0.214	-0.272
-460.070	800.000	-0.094	-0.289
-459.055	-59.189	0.213	-0.092
-458.040	8.847	-0.037	0.028
-457.026	679.789	-0.072	-0.188
-456.011	32.062	-0.165	0.142
-454.997	398.215	0.066	-0.139
-453.982	-200.000	-0.012	-0.066
-452.968	800.000	0.021	0.078
-451.953	-179.723	-0.152	0.003
-450.938	-140.731	-0.408	0.042
-449.924	-83.202	0.387	-0.124
-448.909	740.189	-0.043	-0.115
-447.895	-126.616	0.251	-0.037
-446.880	1.639	0.095	0.068
-445.865	345.864	0.084	0.165
-444.851	-116.775	-0.243	0.045
-443.836	800.000	0.085	-0.329
-442.822	52.810	0.132	-0.126
-441.807	-200.000	0.001	-0.302
-440.792	28.298	0.049	-0.041
-439.778	127.002	0.147	-0.185
-438.763	-25.757	0.246	0.145
-437.749	24.813	0.105	-0.087
-436.734	-184.977	0.105	0.002
-435.719	-50.395	-0.373	0.176
-434.705	-200.000	0.095	0.564
-433.690	-174.980	0.117	-0.003
-432.676	-24.543	0.370	0.220
-431.661	-200.000	-0.022	-0.127
-430.646	-4.463	0.075	-0.052
-429.632	800.000	0.054	-0.212
-428.617	87.081	-0.120	-0.133
-427.603	-25.196	0.203	-0.120
-426.588	539.694	-0.078	-0.185
-425.573	800.000	-0.096	0.264
-424.559	-114.877	0.479	-0.091
-423.544	-29.189	0.197	-0.112
-422.530	-200.000	0.017	0.087
-421.515	78.493	-0.276	-0.295
-420.500	-23.112	-0.070	-0.042
-419.486	343.169	-0.066	-0.129
-418.471	395.320	-0.161	0.334
-417.457	-200.000	-0.040	0.191
-416.442	-157.096	-0.369	0.022
-415.428	-200.000	0.039	-0.225
-414.413	62.699	0.115	0.115
-413.398	-40.702	0.276	-0.142
-412.384	800.000	-0.037	-0.106
-411.369	220.179	0.134	0.215
-410.355	-3.145	0.277	0.193
-409.340	-200.000	0.067	0.330
-408.325	-76.198	0.276	-0.097
-407.311	51.978	0.187	-0.177
-406.296	-58.824	0.157	-0.068
-405.282	249.361	-0.033	0.056
-404.267	51.752	0.105	-0.099
-403.252	57.253	0.096	-0.094
-402.238	800.000	0.017	0.052
-401.223	186.013	-0.091	-0.135
-400.209	-124.039	0.485	0.076
-399.194	-200.000	-0.013	-0.279
-398.179	-18.059	-0.190	0.118
-397.165	488.512	0.118	-0.269
-396.150	143.107	0.049	-0.065
-395.136	121.261	0.261	0.324
-394.121	29.933	-0.072	0.061
-393.106	-161.450	-0.343	-0.018
-392.092	-135.861	0.188	-0.022
-391.077	-99.980	-0.380	0.094
-390.063	800.000	0.049	-0.142
-389.048	-139.815	0.327	-0.035
-388.033	-146.135	0.071	-0.006
-387.019	157.739	-0.117	-0.161
-386.004	-200.000	-0.027	-0.295
-384.990	571.516	-0.146	0.353
-383.975	103.056	0.098	0.115
-382.960	155.329	-0.090	-0.123
-381.946	-97.120	-0.174	0.045
-380.931	-86.739	0.226	0.069
-379.917	225.979	-0.082	-0.133
-378.902	-95.747	0.060	-0.016
-377.888	488.883	-0.102	0.232
-376.873	-58.550	-0.016	-0.007
-375.858	-109.725	0.098	-0.020
-374.844	-200.000	-0.033	0.200
-373.829	472.266	0.076	-0.171
-372.815	20.689	0.111	-0.089
-371.800	800.000	0.070	0.225
-370.785	-131.623	0.336	0.044
-369.771	-99.544	-0.143	0.036
-368.756	-53.200	0.127	0.058
-367.742	-151.176	-0.336	-0.025
-366.727	-200.000	0.025	-0.155
-365.712	23.738	0.168	0.138
-364.698	69.017	0.093	-0.096
-363.683	800.000	0.118	-0.354
-362.669	800.000	0.087	-0.283
-361.654	-97.511	-0.195	-0.050
-360.639	36.276	-0.183	-0.160
-359.625	-126.539	-0.264	0.039
-358.610	31.054	0.334	0.285
-357.596	-200.000	0.040	0.181
-356.581	270.698	0.081	-0.141
-355.566	77.337	-0.190	-0.201
-354.552	-44.061	-0.273	0.137
-353.537	-110.513	0.407	0.084
-352.523	-96.806	-0.267	0.070
-351.508	-25.699	-0.146	-0.086
-350.493	1.745	0.243	-0.174
-349.479	223.074	0.186	0.298
-348.464	-200.000	-0.024	0.193
-347.450	-200.000	0.087	0.384
-346.435	-200.000	0.002	0.061
-345.420	242.900	-0.089	-0.149
-344.406	194.840	-0.033	0.050
-343.391	-76.498	-0.132	-0.046
-342.377	-110.544	-0.099	0.020
-341.362	83.310	0.071	0.077
-340.348	-200.000	-0.024	0.427
-339.333	-70.409	-0.050	0.019
-338.318	-81.616	-0.208	-0.068
-337.304	304.554	-0.293	-0.540
-336.289	-200.000	-0.046	-0.207
-335.275	118.664	-0.148	-0.182
-334.260	174.986	0.039	0.056
-333.245	287.351	0.203	0.365
-332.231	-200.000	0.056	0.325
-331.216	163.438	0.160	0.224
-330.202	-103.049	-0.023	0.005
-329.187	-200.000	0.064	0.326
-328.172	6.112	0.195	-0.143
-327.158	-28.359	-0.188	-0.108
-326.143	-74.021	0.070	-0.025
-325.129	800.000	0.024	0.074
-324.114	24.418	-0.205	0.168
-323.099	800.000	-0.074	0.212
-322.085	-172.984	0.386	-0.012
-321.070	11.210	0.392	0.298
-320.056	-126.420	-0.285	-0.042
-319.041	-200.000	0.007	0.154
-318.026	17.594	-0.143	0.113
-317.012	-37.287	0.298	-0.158
-315.997	-5.355	0.182	-0.124
-314.983	-74.984	0.210	-0.075
-313.968	615.804	-0.082	0.204
-312.953	80.190	-0.137	0.147
-311.939	-63.576	-0.068	0.028
-310.924	174.791	-0.042	0.061
-309.910	-4.667	0.113	0.077
-308.895	151.012	0.023	-0.032
-307.880	68.161	-0.086	0.088
-306.866	-74.191	0.283	-0.102
-305.851	-200.000	-0.057	-0.457
-304.837	-15.384	-0.162	0.103
-303.822	143.786	-0.184	-0.244
-302.807	800.000	-0.061	-0.174
-301.793	-200.000	-0.007	0.404
-300.778	-200.000	0.016	-0.144
-299.764	-77.377	-0.208	-0.072
-298.749	18.551	0.103	0.082
-297.735	-119.339	0.179	0.031
-296.720	68.807	-0.119	-0.121
-295.705	-57.365	-0.102	-0.044
-294.691	80.933	0.156	-0.167
-293.676	800.000	0.054	-0.159
-292.662	-94.406	-0.093	-0.025
-291.647	151.131	0.048	0.065
-290.632	-134.386	-0.194	-0.024
-289.618	-8.767	-0.021	0.014
-288.603	291.421	0.129	-0.234
-287.589	-129.452	-0.357	0.049
-286.574	158.717	0.058	-0.080
-285.559	-135.800	0.380	0.045
-284.545	-103.071	-0.313	0.073
-283.530	-200.000	0.071	0.312
-282.516	54.714	0.215	-0.206
-281.501	-4.839	-0.179	-0.122
-280.486	-105.104	-0.213	0.048
-279.472	7.566	-0.210	-0.156
-278.457	475.393	0.079	0.177
-277.443	-18.254	0.198	0.123
-276.428	27.471	-0.176	-0.147
-275.413	233.300	0.186	0.303
-274.399	30.909	-0.066	0.056
-273.384	-16.797	-0.033	0.021
-272.370	642.885	0.128	-0.324
-271.355	-35.164	-0.171	-0.093
-270.340	-147.497	0.292	-0.024
-269.326	4.000	0.121	-0.088
-268.311	-139.082	-0.123	-0.013
-267.297	800.000	0.072	0.269
-266.282	14.334	0.180	0.139
-265.267	766.662	0.069	0.185
-264.253	-200.000	-0.014	-0.085
-263.238	42.500	0.063	0.057
-262.224	800.000	0.096	0.327
-261.209	-49.228	0.139	0.066
-260.195	-31.347	0.285	-0.159
-259.180	-19.091	-0.239	0.147
-258.165	111.975	0.125	0.149
-257.151	110.642	-0.328	-0.391
-256.136	-200.000	0.069	-0.330
-255.122	-176.389	0.046	-0.001
-254.107	-26.962	0.182	-0.105
-253.092	106.309	-0.064	-0.075
-252.078	-200.000	0.053	0.388
-251.063	-7.754	0.028	-0.019
-250.049	-35.833	-0.164	0.088
-249.034	255.383	0.178	-0.302
-248.019	347.428	0.060	0.116
-247.005	35.129	-0.044	-0.038
-245.990	17.588	0.333	-0.262
-244.976	-12.118	0.298	0.193
-243.961	30.478	-0.128	0.109
-242.946	-45.557	-0.151	-0.074
-241.932	-56.454	0.082	-0.036
-240.917	-200.000	0.019	-0.112
-239.903	-55.086	-0.112	-0.050
-238.888	20.106	0.178	-0.143
-237.873	170.160	0.059	0.083
-236.859	-86.020	0.533	0.163
-235.844	-35.199	0.267	0.144
-234.830	12.317	0.368	0.280
-233.815	62.772	-0.120	-0.118
-232.800	405.122	-0.130	-0.270
-231.786	194.810	0.084	-0.126
-230.771	800.000	-0.085	0.310
-229.757	800.000	0.019	0.081
-228.742	-200.000	0.003	-0.145
-227.727	-91.852	-0.480	-0.135
-226.713	-185.997	0.142	-0.002
-225.698	499.326	0.116	0.264
-224.684	-200.000	0.093	0.000
-223.669	-200.000	-0.062	0.277
-222.655	-200.000	0.005	0.203
-221.640	-200.000	-0.004	-0.088
-220.625	-97.824	0.071	-0.018
-219.611	-130.649	0.290	-0.039
-218.596	-112.903	-0.182	-0.036
-217.582	-134.968	-0.142	0.017
-216.567	-200.000	0.018	0.130
-215.552	-63.507	-0.371	0.151
-214.538	113.957	0.070	0.084
-213.523	800.000	-0.043	-0.138
-212.509	-102.759	0.227	-0.053
-211.494	-200.000	0.009	0.056
-210.479	-1.484	-0.063	0.044
-209.465	701.369	-0.038	0.100
-208.450	-33.057	0.316	-0.173
-207.436	738.586	-0.013	-0.035
-206.421	161.254	-0.106	0.146
-205.406	800.000	-0.054	0.152
-204.392	325.915	-0.152	0.287
-203.377	175.160	-0.161	0.231
-202.363	112.464	0.288	-0.345
-201.348	69.542	-0.187	-0.191
-200.333	-171.827	0.216	0.007
-199.319	200.218	0.137	-0.208
-198.304	718.003	-0.062	-0.163
-197.290	22.856	-0.132	0.107
-196.275	-200.000	0.010	-0.172
-195.260	-200.000	-0.008	0.399
-194.246	-200.000	0.008	-0.112
-193.231	-79.803	-0.383	-0.127
-192.217	152.978	-0.072	0.097
-191.202	-27.624	-0.265	-0.152
-190.187	-135.790	-0.064	0.007
-189.173	-25.312	-0.130	0.076
-188.158	-160.479	-0.137	-0.007
-187.144	420.900	-0.037	0.079
-186.129	-108.683	-0.369	-0.078
-185.114	-118.467	0.524	-0.092
-184.100	-20.309	-0.026	0.016
-183.085	103.350	0.212	0.246
-182.071	-87.436	-0.327	0.098
-181.056	-102.023	0.427	-0.102
-180.042	-200.000	-0.015	0.104
-179.027	-97.545	-0.367	-0.094
-178.012	-136.529	-0.379	-0.043
-176.998	25.856	-0.080	-0.066
-175.983	76.227	-0.128	-0.134
-174.969	-41.293	0.165	-0.084
-173.954	204.873	0.101	-0.155
-172.939	-48.867	-0.115	-0.054
-171.925	63.253	-0.258	0.256
-170.910	-146.527	0.119	-0.010
-169.896	151.662	0.076	-0.103
-168.881	-14.827	0.254	0.161
-167.866	3.480	0.128	0.092
-166.852	115.758	-0.136	-0.164
-165.837	-200.000	-0.047	0.285
-164.823	-124.537	-0.302	-0.046
-163.808	84.700	0.083	0.090
-162.793	638.966	-0.111	-0.279
-161.779	-172.928	-0.170	0.005
-160.764	-200.000	0.035	-0.416
-159.750	800.000	0.041	0.140
-158.735	443.011	-0.053	-0.115
-157.720	-114.072	-0.102	-0.020
-156.706	-84.463	-0.338	-0.105
-155.691	-79.361	0.250	-0.084
-154.677	445.929	0.144	-0.312
-153.662	-186.040	0.093	0.001
-152.647	138.110	-0.197	-0.255
-151.633	193.524	-0.057	-0.085
-150.618	-37.974	0.264	-0.138
-149.604	800.000	-0.068	0.196
-148.589	800.000	0.027	-0.114
-147.574	147.707	-0.131	0.174
-146.560	-99.018	0.244	-0.061
-145.545	-47.996	-0.379	-0.181
-144.531	-28.261	0.177	0.101
-143.516	108.181	0.106	-0.125
-142.502	213.616	-0.232	-0.362
-141.487	-113.243	0.202	-0.039
-140.472	-81.821	-0.310	-0.100
-139.458	112.413	0.238	0.284
-138.443	101.504	0.089	0.102
-137.429	-130.078	-0.239	-0.032
-136.414	-200.000	0.011	0.369
-135.399	-200.000	0.004	0.189
-134.385	548.916	-0.024	-0.056
-133.370	-88.613	0.171	0.050
-132.356	63.257	0.071	-0.070
-131.341	-51.584	-0.228	-0.105
-130.326	335.810	-0.138	0.264
-129.312	-164.756	0.217	-0.010
-128.297	-78.850	0.236	0.079
-127.283	-181.761	-0.102	0.002
-126.268	-186.404	0.221	0.003
-125.253	-200.000	0.012	-0.092
-124.239	128.655	-0.250	0.314
-123.224	190.897	-0.150	0.222
-122.210	105.621	-0.141	-0.164
-121.195	222.871	0.118	0.187
-120.180	288.494	-0.081	-0.145
-119.166	-68.754	0.072	-0.027
-118.151	320.995	0.116	-0.217
-117.137	-68.678	0.244	0.093
-116.122	-200.000	0.009	-0.106
-115.107	-79.914	-0.350	0.116
-114.093	71.914	-0.121	0.124
-113.078	800.000	0.043	-0.144
-112.064	259.578	-0.280	0.476
-111.049	226.482	0.124	0.198
-110.034	-134.049	0.074	0.009
-109.020	800.000	-0.019	-0.080
-108.005	436.855	0.176	-0.377
-106.991	800.000	0.077	-0.245
-105.976	-48.916	-0.122	-0.058
-104.962	74.062	-0.178	-0.184
-103.947	-184.373	-0.350	0.006
-102.932	105.135	0.177	0.206
-101.918	104.161	-0.065	-0.075
-100.903	30.680	0.101	0.085
-99.889	14.648	0.130	-0.100
-98.874	358.282	-0.106	-0.208
-97.859	-66.335	0.091	-0.036
-96.845	-142.590	0.215	-0.021
-95.830	560.293	-0.084	0.200
-94.816	800.000	-0.107	0.300
-93.801	246.891	-0.029	0.047
-92.786	-117.323	-0.169	0.030
-91.772	-200.000	-0.025	-0.151
-90.757	710.368	-0.033	-0.085
-89.743	98.802	-0.191	-0.217
-88.728	199.886	-0.021	0.031
-87.713	24.472	0.148	0.120
-86.699	-200.000	-0.002	-0.025
-85.684	800.000	0.044	-0.166
-84.670	258.864	-0.069	0.117
-83.655	-200.000	0.040	0.307
-82.640	199.239	0.146	-0.221
-81.626	-200.000	-0.007	-0.160
-80.611	-200.000	0.008	0.313
-79.597	-92.584	0.203	0.056
-78.582	-25.442	0.381	-0.222
-77.567	77.895	0.044	-0.046
-76.553	-33.290	-0.180	0.098
-75.538	323.413	0.050	-0.094
-74.524	118.479	0.113	-0.137
-73.509	-107.046	0.101	-0.022
-72.494	-200.000	-0.012	-0.432
-71.480	133.562	0.042	-0.054
-70.465	-43.833	-0.282	0.140
-69.451	-200.000	-0.059	0.491
-68.436	668.365	0.106	0.269
-67.422	300.817	0.127	-0.231
-66.407	200.903	0.101	-0.152
-65.392	-115.146	-0.287	-0.054
-64.378	-100.291	0.134	-0.033
-63.363	-200.000	0.033	0.180
-62.349	-134.803	-0.117	-0.014
-61.334	17.621	-0.974	-0.762
-60.319	-71.978	0.448	0.164
-59.305	-200.000	-0.102	-1.062
-58.290	255.872	0.879	1.483
-57.276	275.224	1.064	1.854
-56.261	-200.000	94.603	569.693
-55.246	513.049	1406.073	3222.546
-54.232	154.284	2601.997	3510.814
-53.217	110.084	2208.902	2606.815
-52.203	42.548	1740.299	1556.839
-51.188	34.876	1548.429	1331.960
-50.173	32.502	1521.581	1292.540
-49.159	51.875	1568.959	1468.142
-48.144	53.182	1587.002	1494.077
-47.130	35.135	1547.600	1332.840
-46.115	32.035	1533.045	1298.838
-45.100	31.792	1529.758	1294.327
-44.086	31.760	1528.161	1292.701
-43.071	31.874	1525.306	1291.022
-42.057	31.747	1523.673	1288.711
-41.042	31.792	1522.367	1287.867
-40.027	31.663	1521.378	1286.094
-39.013	31.683	1519.497	1284.589
-37.998	31.647	1518.835	1283.732
-36.984	31.703	1516.810	1282.355
-35.969	31.698	1515.732	1281.352
-34.954	31.619	1514.485	1279.711
-33.940	31.681	1512.976	1278.804
-32.925	31.814	1510.924	1277.927
-31.911	31.766	1509.969	1276.743
-30.896	31.778	1508.928	1275.895
-29.881	31.768	1507.365	1274.453
-28.867	31.741	1506.172	1273.211
-27.852	31.712	1504.601	1271.638
-26.838	31.764	1503.136	1270.700
-25.823	31.749	1501.861	1269.470
-24.809	31.751	1500.035	1267.893
-23.794	31.742	1498.658	1266.616
-22.779	31.734	1497.530	1265.559
-21.765	31.775	1496.419	1264.848
-20.750	31.629	1495.381	1262.933
-19.736	31.735	1494.139	1262.551
-18.721	31.674	1493.108	1261.215
-17.706	31.740	1491.326	1260.105
-16.692	31.739	1490.322	1259.197
-15.677	31.631	1489.780	1257.968
-14.663	31.720	1488.275	1257.243
-13.648	31.753	1487.501	1256.759
-12.633	31.662	1486.560	1255.309
-11.619	31.722	1486.030	1255.208
-10.604	31.677	1485.183	1254.145
-9.590	31.745	1483.969	1253.523
-8.575	31.661	1483.088	1252.169
-7.560	31.698	1482.305	1251.707
-6.546	31.644	1481.054	1250.238
-5.531	31.581	1480.627	1249.404
-4.517	31.613	1479.693	1248.784
-3.502	31.570	1478.563	1247.494
-2.487	31.652	1477.523	1247.113
-1.473	31.675	1476.266	1246.158
-0.458	31.757	1474.750	1245.372
0.556	30.247	1465.675	1234.591
1.571	27.192	1439.049	1192.058
2.586	23.437	1376.354	1116.422
3.600	21.464	1292.439	1036.583
4.615	19.732	1247.067	990.192
5.629	17.078	1189.641	929.995
6.644	8.707	1102.423	819.069
7.659	1.692	1060.462	753.203
8.673	0.609	1054.683	743.702
9.688	0.497	1051.455	740.811
10.702	0.481	1050.371	739.905
11.717	0.403	1048.520	738.155
12.731	2.878	1051.263	752.152
13.746	10.985	1061.967	799.730
14.761	16.739	1068.681	833.100
15.775	17.085	1068.507	834.592
16.790	16.716	1066.755	831.340
17.804	15.733	1064.855	824.964
18.819	14.892	1062.862	819.227
19.834	14.387	1061.393	815.551
20.848	14.093	1060.669	813.487
21.863	13.742	1060.077	811.242
22.877	13.511	1059.167	809.349
23.892	13.432	1057.950	807.957
24.907	13.212	1057.326	806.335
25.921	13.227	1056.578	805.768
26.936	13.281	1055.903	805.445
27.950	13.356	1055.424	805.373
28.965	13.262	1054.271	803.966
29.980	13.345	1053.507	803.716
30.994	13.567	1052.292	803.793
32.009	13.449	1051.346	802.431
33.023	13.542	1051.154	802.664
34.038	13.531	1050.307	801.893
35.053	13.393	1049.384	800.447
36.067	13.337	1048.517	799.447
37.082	13.388	1047.656	798.964
38.096	13.459	1046.685	798.498
39.111	13.331	1046.033	797.310
40.126	13.452	1045.147	797.149
41.140	13.351	1044.072	795.771
42.155	13.334	1043.444	795.141
43.169	13.207	1042.273	793.570
44.184	13.203	1041.050	792.547
45.199	13.421	1039.553	792.381
46.213	13.253	1039.208	791.245
47.228	13.276	1038.197	790.514
48.242	13.395	1037.224	790.271
49.257	13.319	1036.507	789.292
50.271	13.411	1035.179	788.652
51.286	13.400	1034.268	787.835
52.301	13.363	1033.905	787.313
53.315	13.375	1032.873	786.516
54.330	13.352	1031.936	785.624
55.344	13.323	1030.901	784.624
56.359	13.353	1029.975	783.994
57.374	13.305	1029.055	782.999
58.388	13.305	1028.395	782.425
59.403	13.271	1027.434	781.466
60.417	13.315	1026.574	780.948
61.432	13.317	1026.116	780.543
62.447	13.205	1025.229	779.271
63.461	13.143	1024.484	778.344
64.476	13.225	1023.527	777.931
65.490	13.191	1023.029	777.325
66.505	13.194	1021.851	776.377
67.520	13.220	1021.395	776.083
68.534	13.200	1020.951	775.580
69.549	13.259	1019.774	774.895
70.563	13.289	1019.150	774.496
71.578	13.155	1018.840	773.564
72.593	13.245	1017.429	772.844
73.607	13.156	1016.420	771.594
74.622	13.265	1015.131	771.053
75.636	13.207	1014.840	770.494
76.651	13.108	1014.084	769.390
77.666	13.223	1012.989	769.028
78.680	13.112	1012.724	768.244
79.695	13.085	1012.142	767.607
80.709	13.244	1011.394	767.709
81.724	13.316	1010.450	767.262
82.739	13.287	1009.717	766.502
83.753	13.359	1008.866	766.121
84.768	13.332	1008.121	765.364
85.782	13.387	1007.490	765.069
86.797	13.562	1006.476	765.042
87.812	13.338	1006.193	763.722
88.826	13.430	1004.887	763.087
89.841	13.442	1004.545	762.817
90.855	13.401	1003.628	761.866
91.870	13.526	1002.257	761.330
92.884	13.545	1001.914	761.092
93.899	13.470	1001.610	760.448
94.914	13.424	1000.470	759.302
95.928	13.556	999.631	759.206
96.943	13.487	998.951	758.304
97.957	13.457	998.263	757.578
98.972	13.409	997.345	756.597
99.987	13.413	996.902	756.212
101.001	13.443	995.966	755.570
102.016	13.603	995.271	755.707
103.030	13.380	994.546	754.072
104.045	13.353	993.693	753.238
105.060	13.466	992.466	752.755
106.074	13.552	991.635	752.448
107.089	13.476	990.228	750.967
108.103	13.326	990.394	750.345
109.118	13.264	989.494	749.321
110.133	13.345	988.066	748.539
111.147	13.289	987.415	747.725
112.162	13.298	986.327	746.873
113.176	13.239	985.927	746.240
114.191	13.334	984.602	745.599
115.206	13.403	983.806	745.240
116.220	13.350	983.452	744.670
117.235	13.361	982.064	743.599
118.249	13.561	981.100	743.703
119.264	13.388	980.524	742.426
120.279	13.400	979.685	741.776
121.293	13.413	978.773	741.082
122.308	13.482	977.954	740.705
123.322	13.449	977.317	740.007
124.337	13.326	976.388	738.690
125.352	13.293	975.403	737.730
126.366	13.326	973.726	736.545
127.381	13.303	972.851	735.716
128.395	13.247	972.167	734.886
129.410	13.311	971.056	734.263
130.424	13.323	969.983	733.441
131.439	13.421	969.085	733.132
132.454	13.499	968.054	732.631
133.468	13.353	967.897	731.801
134.483	13.417	967.239	731.521
135.497	13.500	966.447	731.226
136.512	13.566	965.373	730.641
137.527	13.534	964.361	729.666
138.541	13.372	964.640	729.098
139.556	13.314	963.688	728.058
140.570	13.398	962.978	727.830
141.585	13.407	962.235	727.243
142.600	13.422	961.214	726.474
143.614	13.515	960.459	726.247
144.629	13.559	959.561	725.694
145.643	13.518	959.162	725.147
146.658	13.646	957.893	724.684
147.673	13.523	957.241	723.589
148.687	13.413	956.343	722.370
149.702	13.531	955.593	722.253
150.716	13.499	954.523	721.241
151.731	13.386	954.112	720.375
152.746	13.477	953.422	720.183
153.760	13.640	952.145	719.865
154.775	13.484	951.679	718.770
155.789	13.540	950.754	718.253
156.804	13.683	949.924	718.179
157.819	13.620	949.004	717.150
158.833	13.728	948.323	717.037
159.848	13.738	947.901	716.697
160.862	13.608	947.395	715.692
161.877	13.706	946.318	715.238
162.892	13.588	945.569	714.097
163.906	13.535	944.820	713.243
164.921	13.572	944.388	713.014
165.935	13.686	942.579	712.072
166.950	13.690	941.850	711.476
167.964	13.648	941.059	710.638
168.979	13.716	939.872	709.970
169.994	13.755	938.877	709.320
171.008	13.678	938.526	708.662
172.023	13.743	937.241	707.909
173.037	13.675	936.620	707.087
174.052	13.758	936.150	707.024
175.067	13.757	935.514	706.475
176.081	13.634	934.993	705.494
177.096	13.624	933.841	704.521
178.110	13.699	932.927	704.088
179.125	13.727	932.199	703.597
180.140	13.730	931.486	703.006
181.154	13.738	930.732	702.412
182.169	13.672	930.340	701.771
183.183	13.658	930.088	701.462
184.198	13.818	928.943	701.211
185.213	13.945	927.587	700.660
186.227	13.848	927.857	700.396
187.242	13.873	926.914	699.727
188.256	13.874	926.086	699.042
189.271	13.928	925.322	698.631
190.286	13.983	924.336	698.057
191.300	13.964	923.098	696.982
192.315	13.807	922.847	696.070
193.329	13.748	922.491	695.493
194.344	13.752	921.572	694.756
195.359	13.910	920.915	694.859
196.373	13.934	920.563	694.634
197.388	13.956	919.840	694.117
198.402	14.033	919.565	694.169
199.417	14.047	919.180	693.876
200.432	14.082	918.662	693.570
201.446	14.110	918.139	693.232
202.461	14.209	917.389	693.016
203.475	14.205	916.995	692.638
204.490	14.183	916.182	691.873
205.504	14.152	915.635	691.271
206.519	14.047	914.813	690.155
207.534	14.242	913.465	689.884
208.548	14.203	912.830	689.179
209.563	14.087	912.593	688.459
210.577	14.249	911.582	688.307
211.592	14.198	910.896	687.517
212.607	14.195	910.635	687.248
213.621	14.220	910.190	686.953
214.636	14.276	909.184	686.363
215.650	14.139	909.062	685.649
216.665	14.279	908.449	685.701
217.680	14.349	907.565	685.262
218.694	14.411	907.162	685.149
219.709	14.368	906.546	684.447
220.723	14.407	906.023	684.152
221.738	14.311	905.399	683.229
222.753	14.444	904.875	683.317
223.767	14.354	903.905	682.157
224.782	14.381	903.071	681.578
225.796	14.410	902.385	681.117
226.811	14.504	901.422	680.713
227.826	14.483	900.911	680.182
228.840	14.517	900.343	679.830
229.855	14.470	899.926	679.264
230.869	14.545	898.586	678.497
231.884	14.414	898.524	677.860
232.899	14.464	897.528	677.249
233.913	14.482	896.672	676.619
234.928	14.458	896.334	676.204
235.942	14.417	895.380	675.258
236.957	14.469	894.885	675.037
237.972	14.461	894.111	674.363
238.986	14.518	893.487	674.059
240.001	14.405	892.624	672.895
241.015	14.496	892.225	672.902
242.030	14.595	891.520	672.708
243.045	14.567	890.556	671.809
244.059	14.487	890.371	671.289
245.074	14.659	889.562	671.311
246.088	14.559	889.162	670.549
247.103	14.692	888.365	670.420
248.117	14.794	887.754	670.310
249.132	14.695	887.357	669.553
250.147	14.748	886.780	669.273
251.161	14.809	885.939	668.823
252.176	14.863	885.187	668.413
253.190	14.882	884.515	667.921
254.205	14.944	883.944	667.678
255.220	14.950	883.172	667.058
256.234	14.943	882.847	666.727
257.249	14.923	882.012	665.957
258.263	15.052	881.332	665.900
259.278	15.046	880.317	665.049
260.293	14.988	880.451	664.862
261.307	15.125	879.861	664.902
262.322	15.108	879.282	664.336
263.336	15.143	878.480	663.811
264.351	14.997	878.381	663.099
265.366	15.193	877.049	662.808
266.380	15.162	876.602	662.291
267.395	15.196	876.035	661.939
268.409	15.219	875.406	661.495
269.424	15.328	874.490	661.173
270.439	15.251	873.955	660.407
271.453	15.245	872.931	659.554
272.468	15.151	872.582	658.859
273.482	15.089	872.075	658.175
274.497	15.093	871.677	657.831
275.512	15.393	870.389	657.978
276.526	15.392	869.536	657.273
277.541	15.294	869.129	656.520
278.555	15.347	868.478	656.182
279.570	15.339	867.954	655.695
280.585	15.352	867.768	655.547
281.599	15.362	866.902	654.875
282.614	15.334	865.828	653.895
283.628	15.288	865.622	653.502
284.643	15.192	865.280	652.811
285.657	15.312	864.665	652.758
286.672	15.455	863.936	652.705
287.687	15.412	863.593	652.222
288.701	15.512	862.923	652.045
289.716	15.469	862.359	651.396
290.730	15.649	861.650	651.500
291.745	15.498	861.216	650.529
292.760	15.467	860.477	649.794
293.774	15.579	859.984	649.796
294.789	15.519	859.391	649.060
295.803	15.554	858.899	648.768
296.818	15.590	858.352	648.435
297.833	15.574	857.448	647.633
298.847	15.555	856.666	646.913
299.862	15.559	856.218	646.532
300.876	15.662	855.292	646.172
301.891	15.682	854.853	645.860
302.906	15.627	854.059	644.989
303.920	15.595	853.382	644.301
304.935	15.788	852.904	644.622
305.949	15.746	852.232	643.896
306.964	15.746	851.689	643.430
307.979	15.878	850.807	643.209
308.993	15.879	850.734	643.100
310.008	15.889	849.694	642.296
311.022	15.896	849.355	642.010
312.037	15.867	848.986	641.562
313.052	15.909	848.313	641.157
314.066	15.854	847.633	640.377
315.081	15.787	847.029	639.611
316.095	15.738	846.634	639.069
317.110	15.711	846.144	638.541
318.125	15.817	845.642	638.506
319.139	15.870	845.115	638.253
320.154	15.937	844.208	637.766
321.168	15.836	844.124	637.265
322.183	15.962	843.617	637.302
323.197	15.864	843.387	636.700
324.212	15.988	842.368	636.342
325.227	15.840	841.885	635.363
326.241	16.011	841.365	635.561
327.256	16.076	840.443	635.051
328.270	15.920	840.040	634.104
329.285	15.951	839.595	633.827
330.300	15.971	839.246	633.584
331.314	16.056	838.578	633.345
332.329	16.055	837.901	632.773
333.343	16.119	837.375	632.560
334.358	16.058	836.723	631.783
335.373	16.170	836.342	631.857
336.387	16.149	835.786	631.303
337.402	16.127	835.600	631.023
338.416	16.236	834.372	630.449
339.431	16.190	833.888	629.855
340.446	16.337	833.340	629.933
341.460	16.299	832.925	629.425
342.475	16.115	832.553	628.400
343.489	16.378	831.818	628.768
344.504	16.285	831.369	628.029
345.519	16.380	830.512	627.679
346.533	16.379	830.363	627.509
347.548	16.437	829.849	627.278
348.562	16.412	829.164	626.612
349.577	16.393	828.984	626.349
350.592	16.386	828.078	625.586
351.606	16.317	827.590	624.904
352.621	16.345	827.197	624.657
353.635	16.382	827.116	624.677
354.650	16.484	826.461	624.504
355.665	16.347	826.059	623.641
356.679	16.423	825.429	623.389
357.694	16.466	825.169	623.294
358.708	16.477	824.302	622.627
359.723	16.557	823.738	622.437
360.738	16.584	823.082	621.987
361.752	16.620	822.937	621.954
362.767	16.601	822.240	621.304
363.781	16.582	821.785	620.835
364.796	16.663	821.454	620.826
365.810	16.709	820.915	620.534
366.825	16.707	820.418	620.097
367.840	16.766	820.512	620.329
368.854	16.700	820.043	619.676
369.869	16.826	818.874	619.199
370.883	16.757	818.591	618.678
371.898	16.712	818.445	618.349
372.913	16.653	817.750	617.554
373.927	16.733	816.700	617.000
374.942	16.688	816.693	616.775
375.956	16.839	815.930	616.693
376.971	16.882	815.115	616.178
377.986	16.949	814.996	616.278
379.000	16.949	814.100	615.547
380.015	16.981	813.766	615.353
381.029	16.981	813.212	614.880
382.044	16.985	812.487	614.292
383.059	16.990	811.912	613.824
384.073	16.949	811.472	613.285
385.088	16.964	811.236	613.110
386.102	16.938	811.072	612.837
387.117	16.929	810.245	612.123
388.132	16.928	809.638	611.607
389.146	16.944	808.949	611.093
390.161	17.018	808.756	611.158
391.175	17.048	808.597	611.092
392.190	16.994	808.007	610.398
393.205	16.992	807.751	610.144
394.219	17.064	807.141	609.888
395.234	17.032	806.813	609.472
396.248	16.996	806.411	608.982
397.263	16.990	805.596	608.293
398.278	17.047	805.092	608.061
399.292	17.061	804.748	607.799
400.307	17.049	804.159	607.257
401.321	17.073	803.845	607.053
402.336	17.089	803.694	606.942
403.350	17.231	803.127	606.965
404.365	17.192	802.640	606.405
405.380	17.138	802.286	605.893
406.394	17.375	801.415	606.025
407.409	17.253	801.295	605.446
408.423	17.293	801.188	605.456
409.438	17.408	800.153	605.028
410.453	17.339	799.950	604.575
411.467	17.379	799.600	604.400
412.482	17.359	799.072	603.875
413.496	17.369	798.569	603.477
414.511	17.400	798.255	603.298
415.526	17.651	797.688	603.705
416.540	17.531	797.095	602.777
417.555	17.512	797.017	602.597
418.569	17.444	796.795	602.135
419.584	17.540	795.993	601.817
420.599	17.569	795.271	601.320
421.613	108.296	1289.218	1462.824
422.628	93.046	1361.200	1462.925
