DTS Sentinel unit serial number:	SN413079Multiplexer serial number:	ORYXHardware model number:	OX4-SRSoftware version number:	ORYX F/W v4.00 Oryx Data Collector v3.7.2.0data status	okinstallation	princeton_trtdifferential loss correction	single-endedforward channel	channel 3reverse channel	N/Adate	2019/09/12time	19:57:03forward acquisition time	15.00reverse acquisition time	0.00gamma	496.2192k internal	0.2323k external	0.2323temperature offset calibration	1.0116default loss term (dB/km)	0.3790temperature slope calibration	1.0000multiplexer offset coefficient	1.0000multiplexer slope coefficient	1.0000fibre end	0.00T internal ref (°C)	31.81T ext. ref 1 (°C)	3.39T ext. ref 2 (°C)	26.39length (m)	temperature (°C)	Stokes	anti-Stokes-747.200	641.243	-0.322	-0.829
-746.185	-80.834	-0.653	-0.219
-745.171	246.846	0.492	0.838
-744.156	800.000	0.085	-0.332
-743.142	92.439	0.207	0.236
-742.127	-200.000	-0.019	-0.210
-741.112	-200.000	0.024	-0.436
-740.098	800.000	-0.206	0.911
-739.083	26.953	-0.536	0.454
-738.069	-200.000	-0.098	0.947
-737.054	-37.950	-0.762	0.409
-736.039	800.000	-0.176	-0.547
-735.025	-200.000	0.059	1.201
-734.010	-80.499	0.906	0.305
-732.996	-200.000	-0.027	0.407
-731.981	4.756	0.539	0.400
-730.966	-145.041	-0.514	-0.047
-729.952	-200.000	0.043	0.877
-728.937	261.570	-0.144	-0.252
-727.923	14.680	0.057	0.045
-726.908	218.472	-0.287	-0.462
-725.894	-200.000	0.011	0.149
-724.879	-200.000	0.121	0.793
-723.864	-101.097	-0.294	-0.073
-722.850	-7.322	0.797	-0.545
-721.835	351.337	-0.356	-0.711
-720.821	37.250	0.321	-0.287
-719.806	-48.686	0.506	0.245
-718.791	589.619	-0.120	-0.298
-717.777	216.740	0.311	-0.499
-716.762	-200.000	0.002	-0.277
-715.748	-69.449	0.274	-0.106
-714.733	-128.403	-0.611	0.088
-713.718	426.584	-0.147	0.320
-712.704	-66.521	0.719	0.288
-711.689	800.000	0.172	0.522
-710.675	-109.608	-1.110	0.236
-709.660	308.134	-0.173	0.326
-708.645	-200.000	-0.029	-0.674
-707.631	-57.736	-0.381	0.168
-706.616	-200.000	-0.038	0.294
-705.602	60.562	-0.161	0.161
-704.587	-107.023	0.900	0.201
-703.572	-75.118	-0.420	-0.151
-702.558	77.213	0.179	0.191
-701.543	-100.593	-0.165	-0.041
-700.529	-38.691	0.284	-0.151
-699.514	-114.266	-0.498	-0.097
-698.499	64.932	0.295	-0.300
-697.485	-99.871	0.404	-0.102
-696.470	-200.000	-0.162	1.249
-695.456	36.148	-0.894	0.794
-694.441	98.924	0.364	-0.424
-693.426	414.015	-0.157	0.336
-692.412	-111.085	-0.761	0.157
-691.397	-200.000	-0.174	-0.909
-690.383	61.405	0.358	-0.359
-689.368	-86.096	0.572	-0.178
-688.354	-200.000	0.087	-0.620
-687.339	254.931	0.226	-0.390
-686.324	-32.474	1.306	0.734
-685.310	236.656	0.290	0.483
-684.295	-200.000	0.087	-0.665
-683.281	-200.000	0.006	-0.470
-682.266	648.811	0.061	-0.158
-681.251	228.969	-0.229	0.376
-680.237	71.596	0.250	-0.262
-679.222	-188.683	-0.432	0.005
-678.208	230.263	0.227	-0.373
-677.193	40.283	-0.185	-0.168
-676.178	263.855	0.338	-0.593
-675.164	-200.000	0.066	-0.664
-674.149	800.000	-0.224	0.713
-673.135	-64.319	0.856	0.351
-672.120	422.181	0.262	0.567
-671.105	-35.453	-0.522	0.286
-670.091	-69.953	-0.319	0.123
-669.076	-6.226	-0.579	0.398
-668.062	-122.626	-0.646	0.106
-667.047	-200.000	-0.012	-0.084
-666.032	21.599	0.338	-0.277
-665.018	-85.362	0.476	-0.149
-664.003	-10.501	0.267	-0.178
-662.989	-200.000	-0.096	-0.810
-661.974	-75.873	0.319	0.114
-660.959	-86.863	-0.915	-0.281
-659.945	30.382	0.169	-0.145
-658.930	-200.000	0.011	0.177
-657.916	-105.757	-0.804	-0.183
-656.901	-69.722	0.575	-0.221
-655.886	-59.002	0.425	0.185
-654.872	229.899	-0.148	-0.243
-653.857	-64.124	0.982	0.403
-652.843	-200.000	0.003	-0.498
-651.828	-138.982	-0.291	0.032
-650.814	-152.537	0.562	-0.040
-649.799	-116.202	0.471	0.088
-648.784	291.879	-0.274	0.502
-647.770	40.178	-0.267	-0.242
-646.755	-72.349	-0.489	-0.182
-645.741	-52.495	0.383	0.178
-644.726	-9.699	-0.689	-0.462
-643.711	-39.594	-0.259	-0.136
-642.697	-18.211	-0.798	0.502
-641.682	262.223	-0.167	-0.291
-640.668	18.284	-0.298	-0.240
-639.653	-200.000	-0.008	1.018
-638.638	800.000	-0.131	-0.559
-637.624	-155.291	-1.129	0.074
-636.609	-87.751	0.293	-0.089
-635.595	-75.266	0.508	0.182
-634.580	800.000	-0.099	-0.363
-633.565	-91.486	0.495	-0.142
-632.551	-196.536	0.512	0.003
-631.536	800.000	-0.162	-0.612
-630.522	-102.435	-0.867	0.209
-629.507	-122.042	0.632	0.104
-628.492	-100.947	0.169	0.042
-627.478	119.415	0.116	-0.144
-626.463	800.000	0.121	0.500
-625.449	-124.394	-0.463	0.073
-624.434	-87.759	0.114	-0.034
-623.419	-25.652	-0.691	0.410
-622.405	688.193	0.085	0.222
-621.390	405.711	0.239	0.507
-620.376	-147.152	0.611	-0.052
-619.361	-97.497	0.543	-0.142
-618.346	-68.993	0.736	-0.285
-617.332	800.000	0.195	-0.736
-616.317	97.428	0.227	-0.262
-615.303	-57.089	1.202	0.533
-614.288	-69.901	0.488	0.187
-613.273	683.500	-0.192	0.504
-612.259	-87.097	0.435	-0.133
-611.244	56.582	0.150	-0.146
-610.230	-200.000	-0.059	0.367
-609.215	540.233	-0.142	-0.338
-608.201	-92.864	-0.664	0.186
-607.186	800.000	0.052	-0.203
-606.171	-51.714	-0.837	0.392
-605.157	-60.619	0.942	0.401
-604.142	-198.384	-0.981	-0.006
-603.128	-71.222	-0.198	-0.075
-602.113	-156.611	0.374	0.023
-601.098	-200.000	0.018	-0.256
-600.084	591.070	0.068	0.169
-599.069	-153.359	-0.733	0.051
-598.055	-25.667	0.553	0.328
-597.040	-59.708	-0.491	-0.211
-596.025	-46.103	0.407	0.201
-595.011	9.415	0.317	-0.241
-593.996	-200.000	-0.087	-0.862
-592.982	43.709	-0.286	-0.263
-591.967	-139.087	-0.100	-0.011
-590.952	260.691	0.440	-0.765
-589.938	-200.000	-0.030	0.727
-588.923	225.962	-0.159	0.259
-587.909	-123.591	-0.164	0.026
-586.894	196.944	0.430	-0.657
-585.879	-143.170	0.461	0.045
-584.865	251.134	0.563	-0.960
-583.850	337.070	0.228	-0.445
-582.836	177.419	-0.218	0.319
-581.821	333.569	0.444	-0.861
-580.806	216.137	-0.159	-0.253
-579.792	278.283	0.473	-0.846
-578.777	-10.365	0.525	0.349
-577.763	-200.000	0.164	0.860
-576.748	-200.000	0.035	-0.313
-575.733	-106.377	0.470	0.106
-574.719	114.197	0.373	-0.455
-573.704	-1.166	0.039	0.028
-572.690	255.790	0.334	-0.574
-571.675	75.468	-0.246	0.261
-570.661	-154.979	0.103	0.007
-569.646	-200.000	0.066	-0.413
-568.631	-90.877	-0.264	-0.076
-567.617	800.000	0.338	-0.969
-566.602	-59.879	-0.665	0.285
-565.588	22.614	-0.343	0.282
-564.573	7.780	0.589	0.442
-563.558	588.814	0.279	0.690
-562.544	244.376	-0.311	0.523
-561.529	-14.907	-0.529	0.340
-560.515	-99.824	0.688	0.173
-559.500	-200.000	0.281	0.001
-558.485	-200.000	-0.056	-0.693
-557.471	-24.262	0.204	0.122
-556.456	351.756	0.128	0.253
-555.442	-153.231	0.042	0.003
-554.427	-124.049	0.998	-0.157
-553.412	800.000	0.159	-0.472
-552.398	800.000	-0.149	-0.485
-551.383	-52.666	-0.176	-0.081
-550.369	-200.000	0.030	0.706
-549.354	140.586	0.147	0.194
-548.339	-131.418	-0.318	-0.042
-547.325	280.213	-0.366	-0.655
-546.310	-84.103	-0.642	0.204
-545.296	-116.164	0.373	-0.069
-544.281	134.262	0.325	0.422
-543.266	365.178	0.227	-0.457
-542.252	201.197	-0.164	0.252
-541.237	28.907	-0.329	-0.279
-540.223	-128.805	-0.062	0.009
-539.208	-200.000	-0.104	0.728
-538.193	60.104	-0.855	-0.847
-537.179	78.940	-0.014	-0.015
-536.164	-200.000	0.089	0.566
-535.150	587.949	0.257	0.635
-534.135	-200.000	0.130	0.615
-533.121	5.183	-0.679	-0.501
-532.106	54.828	-0.214	0.207
-531.091	-19.845	0.835	-0.517
-530.077	-179.703	0.609	-0.013
-529.062	615.765	0.165	0.415
-528.048	-200.000	0.052	-0.338
-527.033	-141.599	0.280	-0.028
-526.018	379.008	-0.195	-0.400
-525.004	800.000	0.120	-0.358
-523.989	-200.000	-0.004	-0.189
-522.975	-149.099	0.412	0.033
-521.960	2.190	-0.689	-0.498
-520.945	-66.266	-0.118	0.047
-519.931	-200.000	0.008	0.548
-518.916	-133.537	0.869	0.109
-517.902	-125.657	0.928	0.141
-516.887	-200.000	0.013	-0.267
-515.872	15.346	0.223	-0.175
-514.858	-200.000	-0.100	0.547
-513.843	-200.000	0.023	-0.434
-512.829	-200.000	0.007	-0.968
-511.814	31.671	0.337	-0.290
-510.799	-200.000	0.163	0.881
-509.785	18.105	-0.753	0.601
-508.770	-12.197	-0.525	0.344
-507.756	14.957	0.264	-0.207
-506.741	55.765	-0.395	0.383
-505.726	-38.926	-0.791	0.417
-504.712	-177.971	0.620	-0.015
-503.697	-125.116	-0.499	-0.077
-502.683	-200.000	-0.021	-0.373
-501.668	-200.000	0.069	0.800
-500.653	135.974	0.363	-0.473
-499.639	24.520	-0.555	0.459
-498.624	311.080	-0.209	0.392
-497.610	328.263	-0.186	-0.358
-496.595	-31.137	0.772	0.435
-495.581	92.840	-0.349	-0.394
-494.566	45.183	0.531	-0.489
-493.551	-44.183	0.555	0.278
-492.537	99.076	-0.304	-0.351
-491.522	-0.886	-0.691	-0.489
-490.508	1.340	-0.659	-0.474
-489.493	800.000	-0.200	-0.582
-488.478	-62.183	0.503	-0.210
-487.464	-16.650	0.161	-0.102
-486.449	800.000	0.106	-0.411
-485.435	800.000	0.201	0.601
-484.420	-8.304	-0.759	-0.510
-483.405	-39.190	0.405	-0.213
-482.391	-103.526	-0.251	-0.059
-481.376	-180.745	0.220	0.004
-480.362	-200.000	-0.183	-1.069
-479.347	-16.215	-0.673	-0.427
-478.332	-33.259	-0.192	-0.107
-477.318	68.301	-0.802	0.821
-476.303	722.412	0.087	-0.232
-475.289	-56.211	0.886	0.394
-474.274	98.670	0.555	0.640
-473.259	800.000	0.128	0.417
-472.245	323.471	-0.224	-0.426
-471.230	-5.393	-0.586	0.402
-470.216	223.046	-0.272	-0.438
-469.201	-83.901	-0.069	-0.022
-468.186	-80.658	-0.561	0.187
-467.172	-200.000	-0.001	-1.014
-466.157	-83.863	-0.190	0.060
-465.143	40.461	0.154	0.138
-464.128	-200.000	-0.025	-0.557
-463.113	4.289	0.583	0.426
-462.099	-200.000	-0.007	0.749
-461.084	68.994	0.112	0.115
-460.070	-96.470	0.008	-0.002
-459.055	333.413	-0.246	-0.475
-458.040	0.942	-0.255	-0.182
-457.026	283.424	0.117	0.209
-456.011	-115.856	-1.069	-0.200
-454.997	-122.541	0.697	0.113
-453.982	-182.098	-0.214	0.004
-452.968	47.189	-0.305	0.284
-451.953	-61.265	0.467	0.196
-450.938	-114.749	-0.259	0.049
-449.924	-22.297	-0.517	0.313
-448.909	317.569	-0.197	0.372
-447.895	552.272	-0.115	-0.275
-446.880	740.959	-0.409	1.097
-445.865	800.000	-0.129	-0.393
-444.851	-125.778	-0.620	0.094
-443.836	9.976	-0.528	0.401
-442.822	-1.255	-0.369	0.260
-441.807	-83.714	0.375	-0.119
-440.792	-124.304	-0.695	-0.108
-439.778	-124.858	0.600	-0.092
-438.763	-134.556	0.361	-0.044
-437.749	-200.000	0.017	-0.679
-436.734	-26.402	1.147	0.671
-435.719	800.000	0.085	0.358
-434.705	-121.439	-0.485	0.081
-433.690	18.876	-0.300	-0.240
-432.676	-200.000	0.064	0.426
-431.661	196.071	0.049	0.075
-430.646	-54.895	0.183	0.082
-429.632	152.811	0.533	0.727
-428.617	49.886	-0.699	-0.657
-427.603	0.997	0.245	0.175
-426.588	-200.000	-0.036	-0.178
-425.573	9.850	0.874	0.661
-424.559	-88.264	-0.648	-0.193
-423.544	-77.108	-0.805	0.280
-422.530	83.077	0.232	0.251
-421.515	165.624	0.330	-0.465
-420.500	-167.596	-0.913	-0.036
-419.486	87.939	-0.645	-0.714
-418.471	-38.996	-0.577	0.303
-417.457	66.341	0.398	0.403
-416.442	199.843	0.361	0.553
-415.428	-40.831	-0.144	0.074
-414.413	800.000	0.335	-1.025
-413.398	60.280	-0.821	0.810
-412.384	-102.774	0.385	0.091
-411.369	-93.199	-0.332	-0.092
-410.355	342.636	0.296	0.578
-409.340	64.629	-0.599	0.602
-408.325	428.016	-0.228	-0.491
-407.311	-200.000	0.021	0.956
-406.296	-95.149	0.406	0.109
-405.282	-200.000	0.060	0.294
-404.267	-200.000	-0.046	-0.475
-403.252	79.796	0.263	0.282
-402.238	65.662	-0.200	0.202
-401.223	-68.537	0.291	0.112
-400.209	2.454	-0.447	0.322
-399.194	-31.966	-0.739	-0.412
-398.179	-200.000	0.034	-0.724
-397.165	-200.000	-0.141	-0.758
-396.150	-200.000	-0.100	0.869
-395.136	184.142	-0.295	0.436
-394.121	800.000	-0.086	0.312
-393.106	-88.283	-0.602	0.179
-392.092	-55.812	0.521	0.232
-391.077	51.227	-0.322	-0.304
-390.063	641.963	-0.149	-0.377
-389.048	800.000	-0.125	-0.445
-388.033	40.293	0.396	0.355
-387.019	-152.199	-0.758	0.055
-386.004	-200.000	-0.063	-0.401
-384.990	-124.333	-0.221	0.034
-383.975	224.426	0.402	0.648
-382.960	-127.062	-0.245	-0.036
-381.946	-8.471	0.597	-0.399
-380.931	-90.684	0.292	-0.084
-379.917	203.296	-0.622	-0.958
-378.902	574.110	-0.174	-0.422
-377.888	-200.000	0.101	0.538
-376.873	123.259	-0.151	0.189
-375.858	293.221	0.161	0.293
-374.844	136.950	0.389	0.506
-373.829	18.197	-0.373	-0.296
-372.815	353.541	0.351	0.695
-371.800	-133.160	-0.574	0.072
-370.785	800.000	-0.155	0.616
-369.771	-99.034	-0.404	-0.102
-368.756	57.508	0.542	0.527
-367.742	101.613	0.328	-0.381
-366.727	-200.000	-0.007	-0.264
-365.712	259.461	-0.183	0.314
-364.698	-9.685	0.855	-0.567
-363.683	16.374	-0.838	0.658
-362.669	122.557	0.329	0.409
-361.654	256.441	-0.244	-0.417
-360.639	55.579	0.123	0.118
-359.625	-82.816	-0.667	-0.214
-358.610	-185.440	0.745	-0.011
-357.596	-135.896	0.618	0.073
-356.581	-133.829	-0.778	0.096
-355.566	641.943	-0.119	0.301
-354.552	67.260	-0.629	0.638
-353.537	800.000	-0.221	0.758
-352.523	-176.410	-0.491	-0.013
-351.508	117.773	-0.371	0.454
-350.493	38.301	0.246	0.218
-349.479	-109.333	0.490	-0.103
-348.464	-200.000	0.040	0.194
-347.450	-1.721	0.254	0.178
-346.435	280.484	0.418	-0.744
-345.420	-83.612	-0.642	0.204
-344.406	10.800	0.082	0.062
-343.391	-14.172	-0.779	0.500
-342.377	-200.000	-0.020	0.723
-341.362	-69.329	0.525	-0.200
-340.348	-44.612	-0.591	0.294
-339.333	120.735	-0.180	-0.223
-338.318	-112.437	0.748	-0.149
-337.304	-86.504	0.911	-0.278
-336.289	-137.315	0.871	0.098
-335.275	-200.000	0.115	0.580
-334.260	98.666	0.368	0.422
-333.245	49.409	0.199	-0.187
-332.231	-200.000	0.174	0.828
-331.216	152.113	-0.478	-0.648
-330.202	-166.716	0.776	-0.032
-329.187	343.962	-0.241	0.469
-328.172	-80.276	0.069	0.023
-327.158	8.864	0.642	-0.481
-326.143	-40.537	0.180	0.093
-325.129	-131.296	0.483	-0.064
-324.114	252.142	0.368	0.623
-323.099	-160.865	0.528	-0.028
-322.085	-138.053	-0.526	0.058
-321.070	121.699	-0.303	0.375
-320.056	-102.054	0.517	0.124
-319.041	256.170	-0.461	-0.786
-318.026	66.834	-0.626	0.633
-317.012	-6.148	-0.516	0.350
-315.997	-68.921	-0.250	-0.096
-314.983	-114.488	-0.973	-0.186
-313.968	-200.000	-0.137	-0.792
-312.953	-142.095	0.129	-0.013
-311.939	-200.000	0.245	1.193
-310.924	-193.739	0.362	0.003
-309.910	30.942	0.584	0.497
-308.895	211.787	-0.073	0.115
-307.880	97.150	-0.074	0.084
-306.866	434.011	-0.158	-0.340
-305.851	-119.773	-0.211	0.036
-304.837	-23.244	0.214	-0.128
-303.822	-150.268	0.266	0.020
-302.807	111.954	-0.219	-0.262
-301.793	-41.304	1.340	0.686
-300.778	-200.000	-0.025	0.484
-299.764	800.000	-0.051	0.201
-298.749	344.962	0.206	-0.402
-297.735	53.563	0.381	0.363
-296.720	35.679	0.788	-0.687
-295.705	150.205	0.343	-0.461
-294.691	-109.011	0.897	-0.190
-293.676	-110.214	-0.125	-0.026
-292.662	356.822	-0.208	0.412
-291.647	-70.928	0.259	0.097
-290.632	-106.293	0.713	-0.158
-289.618	66.424	-0.320	-0.323
-288.603	-44.377	-0.354	-0.176
-287.589	-200.000	-0.012	-0.128
-286.574	47.439	-0.634	0.586
-285.559	109.346	-0.738	0.877
-284.545	-200.000	0.165	0.833
-283.530	-12.917	-0.497	0.321
-282.516	34.508	0.305	-0.264
-281.501	-21.236	-0.879	-0.533
-280.486	-200.000	0.065	-0.331
-279.472	-101.689	0.473	0.114
-278.457	146.761	0.186	-0.249
-277.443	47.994	-0.091	-0.084
-276.428	36.335	0.272	0.237
-275.413	5.600	-0.337	-0.247
-274.399	-114.498	-0.449	-0.086
-273.384	-67.138	-0.586	-0.229
-272.370	-27.512	-0.437	-0.252
-271.355	-48.703	0.384	0.183
-270.340	114.463	0.265	-0.320
-269.326	7.267	-0.170	0.126
-268.311	112.552	0.323	-0.388
-267.297	-73.338	-0.948	-0.344
-266.282	-79.454	-0.539	0.181
-265.267	43.424	0.396	-0.359
-264.253	43.840	0.722	-0.655
-263.238	-147.948	0.506	-0.042
-262.224	40.877	0.362	-0.324
-261.209	-113.369	-0.930	0.181
-260.195	-135.612	0.720	0.085
-259.180	-200.000	0.121	-0.645
-258.165	279.941	0.123	0.218
-257.151	269.096	0.158	0.275
-256.136	73.550	0.258	0.268
-255.122	402.930	-0.175	0.364
-254.107	800.000	-0.199	-0.551
-253.092	-200.000	0.109	-0.790
-252.078	-150.131	-0.374	0.029
-251.063	6.156	0.356	0.262
-250.049	6.126	0.584	0.429
-249.034	394.049	0.192	0.397
-248.019	-200.000	0.064	-0.846
-247.005	73.203	-0.530	-0.549
-245.990	800.000	-0.068	-0.209
-244.976	-53.909	0.351	-0.158
-243.961	-53.667	0.405	0.183
-242.946	228.952	-0.230	-0.372
-241.932	-37.429	-0.141	0.074
-240.917	54.345	-0.951	-0.907
-239.903	-200.000	-0.014	-0.441
-238.888	56.469	-0.368	0.354
-237.873	133.744	-0.214	-0.274
-236.859	-154.184	-0.680	-0.046
-235.844	181.303	0.456	0.663
-234.830	-200.000	-0.088	0.451
-233.815	7.235	0.148	-0.109
-232.800	644.282	0.148	0.373
-231.786	800.000	0.111	0.444
-230.771	71.500	-0.328	0.338
-229.757	-82.820	0.995	-0.318
-228.742	630.461	-0.074	0.185
-227.727	-16.454	0.213	0.134
-226.713	7.631	-0.151	0.112
-225.698	705.082	-0.342	-0.892
-224.684	-200.000	0.073	-0.779
-223.669	-200.000	-0.071	-0.637
-222.655	267.963	0.414	0.717
-221.640	-42.375	0.267	0.135
-220.625	-71.182	-0.533	0.198
-219.611	-79.715	0.110	0.037
-218.596	-177.129	-0.792	-0.020
-217.582	691.436	-0.277	-0.719
-216.567	-200.000	0.030	-0.395
-215.552	-22.742	0.368	-0.220
-214.538	-147.916	0.453	-0.037
-213.523	-139.338	-0.823	0.087
-212.509	-127.025	0.439	-0.064
-211.494	-41.601	-0.503	-0.256
-210.479	-86.209	0.911	-0.278
-209.465	-130.873	-0.796	-0.105
-208.450	-181.698	0.583	-0.011
-207.436	302.827	0.322	0.590
-206.421	44.810	-0.117	0.106
-205.406	409.995	0.270	-0.567
-204.392	-200.000	-0.075	-0.678
-203.377	120.107	0.253	-0.311
-202.363	-46.492	-0.435	-0.211
-201.348	-23.955	0.129	-0.076
-200.333	-54.351	0.559	-0.251
-199.319	42.901	-0.292	-0.263
-198.304	749.960	-0.406	-1.084
-197.290	255.628	0.489	-0.829
-196.275	356.184	-0.217	-0.428
-195.260	-63.621	-0.210	0.085
-194.246	157.365	0.293	-0.400
-193.231	60.467	-0.287	0.281
-192.217	-32.448	-0.858	-0.473
-191.202	13.514	-0.612	0.469
-190.187	59.296	0.485	-0.472
-189.173	-26.895	0.784	0.452
-188.158	800.000	0.142	-0.503
-187.144	-151.553	0.223	-0.016
-186.129	-49.670	-0.285	0.134
-185.114	-28.778	-0.307	0.175
-184.100	-61.487	-0.596	-0.248
-183.085	-200.000	-0.049	0.342
-182.071	-22.490	0.760	-0.454
-181.056	-200.000	-0.037	0.830
-180.042	423.374	-0.155	-0.329
-179.027	125.455	-0.320	0.398
-178.012	2.687	-0.561	0.402
-176.998	-17.911	-0.125	-0.078
-175.983	-121.349	0.323	0.053
-174.969	-200.000	0.077	0.549
-173.954	-200.000	0.043	-0.240
-172.939	-39.963	-0.374	-0.193
-171.925	-34.995	0.489	-0.263
-170.910	800.000	-0.229	0.775
-169.896	-4.900	-0.161	-0.110
-168.881	-91.315	0.474	0.134
-167.866	0.936	-0.297	-0.210
-166.852	45.648	0.421	0.384
-165.837	256.418	0.456	0.774
-164.823	800.000	-0.010	-0.045
-163.808	313.748	-0.033	0.061
-162.793	-200.000	0.012	0.176
-161.779	467.529	-0.153	-0.339
-160.764	168.681	0.574	-0.808
-159.750	800.000	0.110	0.316
-158.735	220.286	-0.455	-0.721
-157.720	78.788	0.263	-0.278
-156.706	-191.878	-1.377	0.013
-155.691	263.924	0.390	0.670
-154.677	-138.249	0.539	0.059
-153.662	-32.029	0.322	0.178
-152.647	111.016	-0.178	0.211
-151.633	-118.356	0.530	-0.093
-150.618	-32.249	-0.848	-0.467
-149.604	-200.000	-0.073	0.531
-148.589	13.902	0.450	0.345
-147.574	19.246	-0.417	0.331
-146.560	-200.000	0.024	0.468
-145.545	45.220	0.333	0.303
-144.531	-82.483	-0.788	0.252
-143.516	800.000	-0.260	-0.856
-142.502	45.630	-0.209	0.190
-141.487	-200.000	0.053	0.370
-140.472	-75.779	0.088	0.031
-139.458	-40.735	0.312	0.159
-138.443	-36.143	-0.751	-0.400
-137.429	-157.153	0.716	-0.043
-136.414	209.373	-0.325	0.502
-135.399	-52.825	-0.401	0.182
-134.385	-200.000	-0.039	0.618
-133.370	-81.258	-0.565	-0.184
-132.356	0.394	0.382	-0.269
-131.341	-122.979	-0.134	-0.021
-130.326	95.565	-0.475	0.535
-129.312	-5.825	-0.575	-0.388
-128.297	-7.233	0.655	-0.438
-127.283	107.992	0.073	-0.086
-126.268	-145.435	0.270	0.024
-125.253	-15.715	-0.365	-0.229
-124.239	23.024	-0.511	-0.414
-123.224	24.596	-0.160	-0.131
-122.210	-95.012	0.349	0.093
-121.195	315.944	0.342	0.637
-120.180	3.174	-0.499	-0.358
-119.166	221.493	-0.273	0.433
-118.151	73.387	0.468	0.483
-117.137	800.000	0.262	-0.823
-116.122	-136.067	0.096	0.011
-115.107	549.734	-0.447	1.056
-114.093	-2.109	0.164	-0.113
-113.078	171.484	-0.050	-0.071
-112.064	-40.645	0.234	0.119
-111.049	9.989	-0.566	-0.423
-110.034	-9.690	0.232	-0.152
-109.020	376.723	-0.225	0.453
-108.005	-200.000	-0.011	1.173
-106.991	144.041	0.015	0.020
-105.976	54.375	0.487	-0.462
-104.962	408.372	0.185	-0.387
-103.947	-200.000	-0.204	0.986
-102.932	800.000	0.258	0.858
-101.918	-62.443	0.524	-0.215
-100.903	-151.925	-0.637	0.046
-99.889	307.189	-0.497	-0.912
-98.874	-200.000	0.164	-0.796
-97.859	-200.000	-0.036	-0.532
-96.845	-108.528	-1.086	0.230
-95.830	800.000	-0.202	-0.607
-94.816	-83.320	0.242	0.076
-93.801	531.368	0.195	-0.454
-92.786	12.245	0.322	-0.244
-91.772	-123.444	0.589	-0.092
-90.757	63.293	-0.386	-0.381
-89.743	61.968	0.270	0.265
-88.728	800.000	0.125	0.490
-87.713	-200.000	-0.046	0.655
-86.699	3.663	0.280	0.201
-85.684	724.741	0.130	-0.342
-84.670	-200.000	-0.062	0.446
-83.655	-2.737	-0.203	0.140
-82.640	-182.868	0.509	-0.009
-81.626	64.375	-0.451	0.447
-80.611	120.823	-0.144	-0.177
-79.597	211.512	0.468	0.726
-78.582	727.166	0.304	0.797
-77.567	-200.000	0.196	-1.010
-76.553	-200.000	-0.145	1.107
-75.538	545.399	-0.340	-0.798
-74.524	276.331	0.134	-0.235
-73.509	-200.000	-0.041	0.408
-72.494	800.000	-0.127	0.503
-71.480	2.300	0.405	0.288
-70.465	103.050	-0.269	-0.310
-69.451	-112.189	-0.615	-0.122
-68.436	145.301	0.570	0.750
-67.422	-46.235	-0.879	-0.425
-66.407	-23.606	-0.996	0.588
-65.392	-3.365	0.838	0.574
-64.378	-37.398	-0.453	-0.238
-63.363	800.000	0.369	-1.057
-62.349	-42.408	0.460	0.231
-61.334	190.368	-0.916	-1.353
-60.319	578.338	0.459	1.105
-59.305	800.000	0.379	-1.160
-58.290	525.288	0.875	2.025
-57.276	343.905	0.815	1.571
-56.261	-200.000	97.857	601.928
-55.246	631.347	1368.992	3407.408
-54.232	201.747	2534.664	3840.545
-53.217	117.386	2138.442	2585.398
-52.203	42.666	1687.377	1510.311
-51.188	35.064	1501.204	1292.548
-50.173	32.688	1476.140	1255.119
-49.159	53.324	1529.058	1440.472
-48.144	53.963	1546.140	1460.838
-47.130	35.270	1504.029	1296.171
-46.115	32.029	1489.387	1261.754
-45.100	31.715	1485.987	1256.718
-44.086	31.788	1483.703	1255.226
-43.071	31.795	1481.396	1253.273
-42.057	31.777	1479.877	1251.816
-41.042	31.645	1479.242	1250.347
-40.027	31.798	1477.855	1250.150
-39.013	31.664	1476.325	1247.910
-37.998	31.737	1474.759	1247.025
-36.984	31.810	1473.726	1246.583
-35.969	31.653	1473.364	1245.187
-34.954	31.707	1471.998	1244.343
-33.940	31.781	1469.678	1242.818
-32.925	31.722	1468.398	1241.299
-31.911	31.867	1466.740	1240.805
-30.896	31.868	1465.736	1239.913
-29.881	31.862	1463.467	1237.904
-28.867	31.874	1462.534	1237.150
-27.852	31.831	1460.757	1235.311
-26.838	31.915	1460.249	1235.390
-25.823	31.933	1457.561	1233.183
-24.809	31.702	1457.096	1231.220
-23.794	31.873	1455.156	1230.654
-22.779	31.913	1453.681	1229.619
-21.765	31.700	1453.734	1228.223
-20.750	32.105	1451.036	1228.546
-19.736	31.786	1451.111	1226.472
-18.721	31.608	1450.478	1224.724
-17.706	31.861	1448.783	1224.897
-16.692	31.829	1447.559	1223.603
-15.677	31.962	1446.509	1223.534
-14.663	31.886	1445.847	1222.430
-13.648	31.778	1445.155	1221.094
-12.633	31.789	1443.564	1219.773
-11.619	31.869	1443.349	1220.063
-10.604	31.519	1443.341	1217.730
-9.590	31.818	1441.492	1218.067
-8.575	31.856	1441.079	1217.911
-7.560	31.958	1439.765	1217.415
-6.546	31.936	1438.382	1216.058
-5.531	31.888	1437.523	1214.971
-4.517	31.564	1437.666	1212.946
-3.502	31.896	1435.688	1213.376
-2.487	31.844	1435.076	1212.471
-1.473	31.522	1433.658	1209.149
-0.458	31.719	1432.723	1209.583
0.556	32.960	1423.597	1197.702
1.571	29.972	1398.101	1157.507
2.586	26.335	1339.955	1087.428
3.600	24.496	1260.694	1012.598
4.615	23.197	1215.403	969.025
5.629	19.970	1158.792	906.935
6.644	11.354	1074.673	798.992
7.659	4.435	1034.587	736.403
8.673	3.439	1029.145	727.764
9.688	3.270	1025.778	724.524
10.702	3.466	1023.569	723.820
11.717	3.385	1022.089	722.328
12.731	6.328	1024.593	737.847
13.746	15.148	1037.398	788.701
14.761	22.482	1046.391	830.167
15.775	24.272	1047.611	839.498
16.790	23.904	1047.461	837.572
17.804	23.448	1045.204	833.548
18.819	23.177	1044.639	831.753
19.834	23.120	1043.074	830.164
20.848	23.039	1041.945	828.814
21.863	23.307	1042.660	830.563
22.877	23.285	1041.738	829.654
23.892	23.204	1040.910	828.544
24.907	22.998	1040.418	827.114
25.921	22.952	1039.364	825.987
26.936	22.901	1039.631	825.886
27.950	22.865	1038.161	824.479
28.965	22.540	1037.428	822.305
29.980	22.912	1034.791	821.874
30.994	22.831	1034.972	821.572
32.009	23.333	1033.552	822.701
33.023	23.130	1032.857	821.133
34.038	23.142	1031.502	820.038
35.053	23.008	1031.588	819.416
36.067	22.793	1030.341	817.358
37.082	23.122	1028.893	817.655
38.096	22.642	1029.120	815.543
39.111	22.830	1028.312	815.700
40.126	22.742	1027.155	814.306
41.140	22.717	1025.511	812.815
42.155	22.586	1024.903	811.659
43.169	22.381	1024.033	809.952
44.184	22.455	1021.475	808.199
45.199	22.294	1021.347	807.286
46.213	22.115	1020.261	805.538
47.228	22.377	1019.513	806.075
48.242	22.643	1019.831	807.471
49.257	22.927	1020.107	808.919
50.271	23.073	1019.122	808.734
51.286	23.068	1016.828	806.821
52.301	23.114	1017.020	807.113
53.315	23.236	1015.432	806.337
54.330	23.130	1015.559	805.883
55.344	22.868	1015.265	804.384
56.359	22.740	1012.564	801.592
57.374	22.634	1012.555	801.030
58.388	22.932	1011.237	801.271
59.403	22.387	1010.641	798.257
60.417	22.212	1010.793	797.512
61.432	22.507	1008.129	796.673
62.447	22.479	1008.656	796.895
63.461	22.160	1008.776	795.476
64.476	22.082	1007.462	794.013
65.490	22.079	1006.940	793.519
66.505	22.153	1005.199	792.411
67.520	22.300	1003.740	791.851
68.534	22.316	1003.814	791.913
69.549	22.266	1002.533	790.606
70.563	22.210	1001.446	789.427
71.578	21.841	1001.738	787.932
72.593	21.960	1000.061	787.076
73.607	21.644	998.735	784.547
74.622	21.344	999.055	783.387
75.636	21.662	997.851	783.796
76.651	21.810	997.208	783.884
77.666	21.744	996.988	783.343
78.680	21.958	995.881	783.360
79.695	21.641	995.667	781.709
80.709	21.985	994.566	782.309
81.724	22.149	993.571	782.185
82.739	21.900	993.830	781.213
83.753	21.933	992.575	780.306
84.768	22.520	992.031	782.416
85.782	23.143	992.462	785.454
86.797	23.717	991.814	787.414
87.812	23.684	989.952	785.722
88.826	23.147	988.875	782.423
89.841	23.230	988.562	782.472
90.855	23.500	987.558	782.802
91.870	23.280	987.025	781.339
92.884	23.657	985.982	782.105
93.899	23.520	984.611	780.347
94.914	22.958	985.221	778.288
95.928	23.030	984.516	777.977
96.943	23.275	983.137	777.896
97.957	23.246	981.566	776.455
98.972	23.015	981.565	775.374
99.987	23.260	979.728	774.927
101.001	23.077	980.052	774.312
102.016	23.181	978.861	773.760
103.030	23.048	977.709	772.198
104.045	23.090	976.628	771.459
105.060	23.168	976.366	771.526
106.074	23.322	975.280	771.268
107.089	22.750	975.472	768.862
108.103	22.704	972.922	766.583
109.118	22.634	973.353	766.552
110.133	22.475	971.837	764.596
111.147	22.027	971.196	762.081
112.162	22.029	969.086	760.369
113.176	22.206	968.300	760.448
114.191	22.095	967.510	759.282
115.206	22.032	967.152	758.662
116.220	22.276	966.103	758.826
117.235	22.214	965.056	757.667
118.249	21.970	966.154	757.411
119.264	22.018	964.593	756.325
120.279	21.843	963.176	754.395
121.293	21.788	963.105	754.036
122.308	21.800	961.610	752.851
123.322	21.673	959.996	750.975
124.337	21.662	959.359	750.366
125.352	21.580	958.378	749.180
126.366	21.202	957.123	746.518
127.381	21.382	956.357	746.623
128.395	21.806	955.765	747.905
129.410	22.156	954.165	748.074
130.424	22.085	954.109	747.662
131.439	22.061	953.347	746.899
132.454	22.224	953.530	747.670
133.468	22.452	951.613	747.067
134.483	22.526	951.657	747.347
135.497	22.259	950.941	745.588
136.512	22.546	949.602	745.689
137.527	22.705	948.997	745.820
138.541	22.508	948.993	744.918
139.556	22.444	947.417	743.345
140.570	22.651	946.955	743.787
141.585	22.675	946.612	743.556
142.600	22.971	946.447	744.608
143.614	23.170	945.591	744.704
144.629	23.413	945.186	745.343
145.643	23.490	944.766	745.270
146.658	23.440	943.731	744.176
147.673	23.129	941.562	741.096
148.687	22.819	940.513	738.909
149.702	22.778	939.642	737.986
150.716	22.469	939.300	736.364
151.731	22.574	938.107	735.800
152.746	22.708	937.401	735.740
153.760	22.600	937.046	734.948
154.775	22.845	935.916	735.014
155.789	22.879	935.294	734.601
156.804	23.263	934.657	735.632
157.819	23.089	933.979	734.311
158.833	22.777	933.845	732.848
159.848	23.199	933.071	733.922
160.862	23.147	933.063	733.637
161.877	23.050	931.335	731.811
162.892	22.825	929.562	729.425
163.906	22.563	929.520	728.245
164.921	22.635	928.351	727.564
165.935	22.327	926.437	724.729
166.950	22.490	926.394	725.304
167.964	22.592	925.747	725.153
168.979	22.563	925.388	724.688
169.994	22.347	923.619	722.352
171.008	22.473	923.037	722.349
172.023	22.389	922.256	721.328
173.037	22.631	921.231	721.456
174.052	23.415	919.762	723.440
175.067	23.114	920.026	722.356
176.081	22.552	918.907	719.121
177.096	22.308	916.927	716.512
178.110	22.359	916.077	715.995
179.125	22.484	915.563	716.036
180.140	22.265	914.758	714.454
181.154	22.265	915.526	714.992
182.169	23.066	913.903	716.911
183.183	23.141	913.612	716.923
184.198	23.110	912.515	715.873
185.213	22.852	912.870	715.044
186.227	22.983	912.261	715.030
187.242	22.991	912.095	714.872
188.256	22.956	910.982	713.794
189.271	22.945	911.072	713.756
190.286	23.011	910.354	713.399
191.300	22.874	908.578	711.390
192.315	22.538	907.197	708.897
193.329	21.956	906.405	705.874
194.344	22.172	905.569	706.028
195.359	22.522	905.486	707.306
196.373	22.641	905.923	708.061
197.388	23.019	905.268	709.003
198.402	23.066	904.773	708.744
199.417	23.349	904.475	709.579
200.432	23.366	905.093	710.072
201.446	23.589	903.646	709.765
202.461	23.757	903.517	710.272
203.475	23.720	902.658	709.385
204.490	23.185	902.827	707.318
205.504	23.070	901.166	705.496
206.519	22.615	900.933	703.436
207.534	23.035	899.018	703.552
208.548	22.887	898.894	702.801
209.563	22.850	897.978	701.877
210.577	23.254	897.101	702.734
211.592	22.919	896.778	701.089
212.607	23.053	897.196	701.887
213.621	23.666	895.618	703.015
214.636	23.289	895.614	701.460
215.650	23.035	895.447	700.260
216.665	23.308	894.284	700.369
217.680	23.104	893.805	699.122
218.694	23.275	894.420	700.220
219.709	23.524	892.645	699.749
220.723	23.239	893.005	698.845
221.738	23.268	891.711	697.888
222.753	23.199	891.729	697.568
223.767	23.067	890.154	695.751
224.782	22.968	890.754	695.770
225.796	23.053	889.743	695.254
226.811	23.647	888.011	696.169
227.826	23.217	887.813	694.264
228.840	22.844	887.099	692.185
229.855	22.655	886.093	690.600
230.869	22.854	885.790	691.080
231.884	22.820	884.292	689.715
232.899	22.703	884.004	688.975
233.913	22.715	884.326	689.211
234.928	22.518	882.433	686.906
235.942	22.317	882.065	685.777
236.957	22.318	880.922	684.829
237.972	22.362	880.162	684.352
238.986	22.346	879.718	683.884
240.001	22.595	879.790	684.846
241.015	22.543	877.534	682.826
242.030	22.509	877.775	682.822
243.045	22.538	878.033	683.076
244.059	23.016	876.815	683.918
245.074	22.788	876.775	682.942
246.088	23.096	875.861	683.362
247.103	22.826	875.985	682.354
248.117	23.247	875.442	683.495
249.132	23.375	875.221	683.758
250.147	24.018	874.915	685.939
251.161	24.082	874.655	685.920
252.176	24.335	873.215	685.701
253.190	24.395	874.059	686.536
254.205	24.081	873.539	684.860
255.220	24.514	872.917	685.976
256.234	24.563	871.342	684.862
257.249	23.981	871.393	682.611
258.263	24.016	870.377	681.888
259.278	24.061	869.548	681.353
260.293	23.984	868.898	680.486
261.307	24.096	869.610	681.413
262.322	24.251	868.111	680.772
263.336	24.142	867.699	679.971
264.351	24.707	866.287	680.958
265.366	24.220	866.361	679.100
266.380	24.000	865.188	677.282
267.395	24.385	864.986	678.530
268.409	24.316	864.211	677.601
269.424	24.083	864.357	676.766
270.439	24.257	862.698	676.067
271.453	23.993	862.981	675.228
272.468	23.861	862.091	673.974
273.482	23.919	860.523	672.908
274.497	24.271	860.114	673.859
275.512	24.159	859.762	673.098
276.526	23.798	859.273	671.294
277.541	24.079	857.504	670.910
278.555	23.835	858.771	670.921
279.570	24.055	858.189	671.237
280.585	24.252	857.923	671.712
281.599	24.577	856.356	671.650
282.614	24.090	856.339	669.747
283.628	23.631	855.709	667.467
284.643	24.011	854.382	667.799
285.657	23.741	853.981	666.414
286.672	23.826	854.341	666.957
287.687	23.346	853.860	664.721
288.701	23.693	853.600	665.761
289.716	23.524	853.122	664.696
290.730	23.533	852.108	663.882
291.745	23.640	852.047	664.175
292.760	23.971	850.757	664.344
293.774	23.838	850.568	663.641
294.789	24.385	850.297	665.414
295.803	24.642	848.976	665.279
296.818	24.198	848.396	663.112
297.833	23.974	848.416	662.237
298.847	24.087	846.655	661.221
299.862	23.858	846.823	660.443
300.876	24.170	845.809	660.755
301.891	24.404	845.486	661.310
302.906	24.714	844.709	661.792
303.920	24.545	844.029	660.574
304.935	25.140	843.660	662.427
305.949	24.792	844.138	661.454
306.964	25.100	842.532	661.277
307.979	24.405	841.950	658.199
308.993	24.124	841.520	656.768
310.008	24.259	842.246	657.772
311.022	24.468	841.547	657.941
312.037	24.338	840.183	656.337
313.052	24.330	839.755	655.914
314.066	24.043	838.434	653.772
315.081	23.464	837.515	650.872
316.095	24.074	836.796	652.493
317.110	23.683	837.367	651.446
318.125	23.709	836.968	651.171
319.139	23.889	835.780	650.848
320.154	23.449	834.584	648.251
321.168	23.480	833.643	647.578
322.183	23.611	833.825	648.139
323.197	23.491	834.114	647.870
324.212	23.644	833.065	647.554
325.227	23.723	832.664	647.476
326.241	23.418	832.582	646.241
327.256	23.685	831.370	646.214
328.270	23.623	830.106	644.951
329.285	23.738	830.176	645.366
330.300	23.580	828.707	643.593
331.314	23.479	828.922	643.336
332.329	23.426	828.338	642.635
333.343	23.745	827.703	643.240
334.358	24.231	827.463	644.755
335.373	24.000	826.950	643.465
336.387	24.184	826.243	643.519
337.402	24.096	826.139	643.065
338.416	24.259	825.646	643.214
339.431	25.043	824.069	644.751
340.446	24.919	824.120	644.286
341.460	25.498	823.936	646.168
342.475	25.034	824.417	644.818
343.489	24.910	824.347	644.259
344.504	25.119	824.036	644.711
345.519	25.056	823.555	644.052
346.533	25.365	823.134	644.774
347.548	25.252	822.004	643.427
348.562	24.748	821.717	641.341
349.577	24.811	820.151	640.287
350.592	24.591	820.340	639.588
351.606	24.564	819.703	638.939
352.621	24.347	819.428	637.891
353.635	24.045	818.657	636.156
354.650	24.180	818.075	636.129
355.665	24.473	817.004	636.286
356.679	24.520	816.481	635.990
357.694	24.678	816.227	636.299
358.708	24.604	815.873	635.704
359.723	24.723	814.876	635.291
360.738	24.481	814.745	634.275
361.752	24.309	814.472	633.395
362.767	24.149	814.058	632.448
363.781	24.578	814.206	634.032
364.796	24.998	814.204	635.464
365.810	25.070	813.592	635.186
366.825	25.147	813.142	635.050
367.840	25.579	812.341	635.898
368.854	25.172	812.350	634.408
369.869	24.836	811.252	632.305
370.883	24.897	810.591	631.949
371.898	24.746	810.219	631.073
372.913	24.768	809.884	630.833
373.927	25.355	807.948	631.334
374.942	25.048	807.740	630.037
375.956	24.963	807.093	629.176
376.971	24.799	807.485	628.849
377.986	25.288	807.024	630.155
379.000	25.530	805.680	629.898
380.015	25.412	806.435	630.017
381.029	25.420	805.330	629.126
382.044	25.112	804.432	627.292
383.059	25.330	804.243	627.852
384.073	25.192	804.340	627.388
385.088	25.383	803.399	627.265
386.102	25.384	801.586	625.798
387.117	24.702	801.388	623.212
388.132	24.920	800.588	623.294
389.146	24.667	800.409	622.216
390.161	24.536	799.921	621.329
391.175	24.636	800.588	622.139
392.190	25.276	800.055	623.894
393.205	25.053	800.092	623.093
394.219	24.655	799.681	621.336
395.234	24.306	798.020	618.778
396.248	24.377	795.964	617.377
397.263	24.511	795.674	617.560
398.278	24.524	795.900	617.725
399.292	24.269	795.584	616.544
400.307	24.097	794.373	614.957
401.321	24.683	793.594	616.321
402.336	24.016	794.734	614.849
403.350	24.415	794.685	616.133
404.365	24.785	794.294	617.053
405.380	25.213	793.367	617.752
406.394	25.160	794.244	618.197
407.409	25.790	793.360	619.622
408.423	25.808	792.228	618.747
409.438	25.943	792.172	619.109
410.453	25.855	792.253	618.818
411.467	25.810	791.419	617.956
412.482	25.573	790.917	616.698
413.496	25.227	791.535	615.937
414.511	25.764	790.337	616.792
415.526	25.972	789.643	616.906
416.540	25.923	789.865	616.856
417.555	25.682	788.599	614.989
418.569	25.663	788.450	614.754
419.584	25.651	787.464	613.892
420.599	25.374	787.966	613.283
421.613	161.466	1369.808	1794.008
422.628	139.808	1454.542	1794.103
