DTS Sentinel unit serial number:	SN413079Multiplexer serial number:	ORYXHardware model number:	OX4-SRSoftware version number:	ORYX F/W v4.00 Oryx Data Collector v3.7.2.0data status	okinstallation	princeton_trtdifferential loss correction	single-endedforward channel	channel 3reverse channel	N/Adate	2019/09/13time	17:20:35forward acquisition time	60.00reverse acquisition time	0.00gamma	496.2192k internal	0.2294k external	0.2294temperature offset calibration	1.0124default loss term (dB/km)	0.3790temperature slope calibration	1.0000multiplexer offset coefficient	1.0000multiplexer slope coefficient	1.0000fibre end	0.00T internal ref (°C)	36.00T ext. ref 1 (°C)	4.78T ext. ref 2 (°C)	33.51length (m)	temperature (°C)	Stokes	anti-Stokes-747.200	-200.000	-0.017	0.211
-746.185	533.607	0.075	0.183
-745.171	500.583	-0.021	-0.049
-744.156	35.391	0.040	0.036
-743.142	265.889	-0.137	0.245
-742.127	64.544	0.213	0.220
-741.112	137.374	-0.137	-0.183
-740.098	111.337	-0.056	-0.069
-739.083	361.635	-0.164	-0.337
-738.069	800.000	-0.072	0.278
-737.054	-27.824	0.081	-0.048
-736.039	-122.708	-0.171	0.028
-735.025	-47.061	0.203	0.101
-734.010	247.935	0.091	-0.157
-732.996	65.979	-0.084	-0.087
-731.981	-13.754	0.123	0.081
-730.966	-200.000	-0.057	-0.362
-729.952	-120.648	0.150	0.026
-728.937	-127.151	-0.230	0.034
-727.923	-200.000	-0.025	0.119
-726.908	-64.668	0.088	-0.036
-725.894	144.464	0.149	-0.203
-724.879	800.000	0.026	0.086
-723.864	39.782	-0.170	0.156
-722.850	308.418	0.096	-0.184
-721.835	-55.934	0.203	-0.093
-720.821	800.000	-0.023	0.083
-719.806	-200.000	0.033	-0.203
-718.791	-200.000	-0.001	-0.111
-717.777	359.669	0.173	0.353
-716.762	-33.731	-0.266	-0.150
-715.748	778.094	-0.151	-0.421
-714.733	800.000	-0.033	-0.093
-713.718	676.277	0.091	0.242
-712.704	87.108	-0.098	-0.110
-711.689	-57.845	-0.077	-0.034
-710.675	536.851	-0.103	-0.251
-709.660	-50.845	-0.285	-0.137
-708.645	-44.255	-0.303	-0.155
-707.631	26.024	0.339	0.289
-706.616	-200.000	-0.031	-0.434
-705.602	-6.496	-0.075	-0.052
-704.587	-116.307	0.190	-0.036
-703.572	392.262	0.072	-0.153
-702.558	-200.000	-0.001	-0.276
-701.543	622.565	-0.076	0.196
-700.529	5.065	-0.081	-0.061
-699.514	32.232	0.082	0.072
-698.499	244.465	-0.058	0.100
-697.485	-69.518	0.221	-0.087
-696.470	800.000	-0.012	0.044
-695.456	69.982	-0.075	0.079
-694.441	-86.318	-0.128	-0.040
-693.426	-25.235	-0.084	-0.051
-692.412	17.845	0.175	0.142
-691.397	-89.072	0.048	0.015
-690.383	-94.645	-0.235	0.065
-689.368	-200.000	0.026	0.119
-688.354	4.310	-0.276	-0.207
-687.339	326.815	-0.035	0.068
-686.324	461.272	0.009	-0.019
-685.310	9.653	-0.094	0.073
-684.295	-28.880	-0.171	0.100
-683.281	84.165	0.247	-0.276
-682.266	-200.000	0.020	0.525
-681.251	722.755	0.110	-0.298
-680.237	287.296	0.041	0.076
-679.222	26.181	0.194	-0.165
-678.208	-104.340	0.243	0.058
-677.193	-35.885	-0.271	-0.149
-676.178	-156.173	0.394	0.025
-675.164	-200.000	0.015	0.101
-674.149	-175.949	-0.236	-0.006
-673.135	800.000	-0.015	-0.058
-672.120	-200.000	0.000	-0.081
-671.105	-200.000	-0.310	0.000
-670.091	-40.737	-0.171	-0.090
-669.076	355.193	0.140	0.283
-668.062	-20.283	0.128	0.081
-667.047	-77.764	-0.199	0.070
-666.032	86.427	-0.109	-0.122
-665.018	-200.000	0.060	-0.525
-664.003	800.000	0.077	-0.330
-662.989	-200.000	-0.010	-0.197
-661.974	85.777	-0.141	0.158
-660.959	800.000	-0.081	-0.291
-659.945	-200.000	-0.023	-0.236
-658.930	167.542	0.220	-0.319
-657.916	-30.488	-0.197	0.114
-656.901	437.251	-0.030	-0.066
-655.886	18.376	-0.061	0.050
-654.872	-82.781	0.239	0.079
-653.857	-57.477	0.195	-0.087
-652.843	-81.251	0.283	0.095
-651.828	-140.552	0.209	-0.022
-650.814	-167.487	-0.007	0.000
-649.799	-86.780	0.224	-0.070
-648.784	90.446	0.084	-0.096
-647.770	6.691	-0.139	-0.105
-646.755	688.989	-0.071	-0.190
-645.741	179.629	0.188	-0.281
-644.726	666.023	0.112	0.296
-643.711	-20.607	-0.253	-0.158
-642.697	-59.839	-0.152	0.066
-641.682	111.202	0.054	0.066
-640.668	133.072	-0.136	-0.179
-639.653	21.464	-0.042	-0.034
-638.638	289.266	-0.074	-0.137
-637.624	-84.696	0.277	0.089
-636.609	-48.169	-0.305	-0.150
-635.595	72.172	0.042	0.045
-634.580	-119.834	-0.336	0.059
-633.565	-200.000	0.064	0.403
-632.551	-134.795	0.047	0.006
-631.536	-1.856	0.217	0.156
-630.522	112.595	0.181	-0.223
-629.507	-133.349	-0.135	0.017
-628.492	34.504	0.234	-0.208
-627.478	-200.000	0.013	0.088
-626.463	-161.298	-0.267	0.014
-625.449	-76.090	0.305	-0.110
-624.434	613.102	0.061	0.156
-623.419	-21.495	-0.024	-0.015
-622.405	154.020	-0.159	0.221
-621.390	-73.133	0.160	0.060
-620.376	410.548	-0.136	0.293
-619.361	-200.000	0.033	-0.456
-618.346	346.425	-0.040	-0.080
-617.332	-108.290	0.284	-0.062
-616.317	578.445	0.090	-0.225
-615.303	-121.720	-0.102	-0.017
-614.288	800.000	-0.009	-0.038
-613.273	91.453	-0.144	-0.165
-612.259	-64.821	-0.359	-0.148
-611.244	800.000	-0.037	0.125
-610.230	-200.000	0.016	-0.118
-609.215	270.823	-0.210	-0.375
-608.201	-53.091	-0.087	-0.041
-607.186	33.260	-0.127	0.112
-606.171	-122.374	0.172	0.028
-605.157	-58.009	-0.314	-0.139
-604.142	-78.344	0.236	-0.082
-603.128	260.876	0.108	-0.190
-602.113	389.644	0.081	0.170
-601.098	-200.000	-0.014	-0.098
-600.084	317.791	-0.069	0.134
-599.069	-138.376	-0.312	-0.035
-598.055	-200.000	-0.051	0.358
-597.040	91.063	0.111	0.127
-596.025	-39.780	0.266	0.141
-595.011	16.319	-0.095	-0.077
-593.996	-26.214	0.284	0.170
-592.982	275.030	0.107	-0.193
-591.967	-200.000	0.039	0.200
-590.952	158.926	0.069	-0.098
-589.938	-40.653	-0.395	0.208
-588.923	-200.000	0.116	0.567
-587.909	96.813	-0.061	-0.071
-586.894	153.717	-0.021	0.029
-585.879	-7.472	-0.146	0.100
-584.865	46.894	0.119	-0.113
-583.850	191.220	0.223	0.341
-582.836	-39.674	-0.174	-0.092
-581.821	40.201	-0.121	0.111
-580.806	230.180	0.143	0.238
-579.792	696.553	-0.086	0.229
-578.777	-36.323	0.295	0.162
-577.763	273.646	0.147	-0.264
-576.748	-110.572	0.365	0.077
-575.733	169.173	-0.045	0.066
-574.719	-103.333	-0.085	0.020
-573.704	272.484	-0.253	0.454
-572.690	-200.000	-0.069	0.510
-571.675	397.332	0.082	-0.175
-570.661	159.871	0.102	-0.144
-569.646	-200.000	0.025	0.217
-568.631	-200.000	0.053	0.280
-567.617	-83.970	-0.102	-0.033
-566.602	-153.390	-0.086	0.006
-565.588	150.072	0.035	-0.048
-564.573	-200.000	-0.036	0.192
-563.558	682.084	-0.082	-0.216
-562.544	800.000	0.045	0.132
-561.529	121.688	-0.230	-0.291
-560.515	-200.000	-0.008	-0.065
-559.500	-166.228	-0.152	0.007
-558.485	116.304	0.092	-0.115
-557.471	734.510	-0.075	-0.205
-556.456	-58.242	-0.459	0.203
-555.442	291.111	-0.100	0.184
-554.427	-200.000	-0.011	-0.059
-553.412	102.405	0.169	-0.200
-552.398	-38.372	0.043	-0.023
-551.383	-19.143	0.035	-0.022
-550.369	13.565	0.247	0.195
-549.354	731.144	-0.037	0.101
-548.339	-43.989	0.295	0.150
-547.325	93.883	0.056	0.065
-546.310	800.000	0.017	0.048
-545.296	267.810	-0.125	-0.223
-544.281	61.565	-0.163	0.165
-543.266	800.000	0.027	-0.086
-542.252	-5.053	-0.201	-0.140
-541.237	-109.315	-0.279	-0.060
-540.223	244.023	-0.110	-0.188
-539.208	38.463	0.088	-0.080
-538.193	725.591	-0.100	-0.271
-537.179	123.985	-0.161	-0.205
-536.164	-9.020	-0.198	-0.135
-535.150	-134.554	0.188	0.023
-534.135	-145.728	-0.315	0.028
-533.121	-34.670	0.331	-0.184
-532.106	665.063	-0.063	-0.165
-531.091	-109.201	0.551	-0.119
-530.077	-48.326	0.219	0.107
-529.062	-21.754	-0.241	-0.149
-528.048	-200.000	-0.025	0.219
-527.033	-135.067	-0.244	0.030
-526.018	800.000	-0.045	-0.176
-525.004	40.953	0.238	-0.218
-523.989	800.000	0.116	0.482
-522.975	7.787	0.019	0.014
-521.960	-200.000	0.007	0.121
-520.945	-20.201	-0.287	0.180
-519.931	-200.000	-0.049	0.334
-518.916	-99.887	0.247	0.062
-517.902	-200.000	-0.036	-0.281
-516.887	-200.000	0.042	-0.308
-515.872	203.277	0.087	-0.137
-514.858	-80.612	0.511	-0.172
-513.843	-12.243	-0.227	-0.151
-512.829	-150.851	0.334	-0.026
-511.814	-41.677	-0.058	-0.030
-510.799	800.000	-0.120	-0.531
-509.785	183.704	-0.068	0.102
-508.770	-100.432	-0.027	-0.007
-507.756	800.000	-0.065	0.246
-506.741	609.512	-0.122	0.308
-505.726	505.242	-0.082	-0.192
-504.712	-200.000	0.027	-0.121
-503.697	-37.712	0.287	-0.155
-502.683	498.635	0.147	-0.344
-501.668	47.026	0.187	0.176
-500.653	-29.283	-0.265	0.154
-499.639	-200.000	0.040	0.357
-498.624	800.000	0.040	-0.157
-497.610	-134.026	0.311	0.039
-496.595	-78.248	-0.200	0.069
-495.581	-3.853	-0.217	-0.152
-494.566	800.000	0.036	-0.124
-493.551	-54.102	0.220	0.101
-492.537	460.522	-0.077	-0.173
-491.522	-77.314	-0.320	0.113
-490.508	-167.487	0.154	-0.006
-489.493	800.000	0.027	-0.081
-488.478	-182.979	0.230	-0.004
-487.464	800.000	-0.030	-0.120
-486.449	-38.055	0.046	-0.025
-485.435	-3.176	-0.185	-0.131
-484.420	39.613	-0.137	-0.124
-483.405	-35.726	-0.145	-0.080
-482.391	-200.000	0.021	-0.249
-481.376	800.000	0.109	0.338
-480.362	193.327	0.101	0.155
-479.347	125.477	0.242	-0.309
-478.332	88.018	-0.133	-0.149
-477.318	-128.093	0.464	-0.067
-476.303	-183.660	-0.317	-0.005
-475.289	-141.304	0.252	0.026
-474.274	-200.000	0.049	-0.239
-473.259	-21.977	0.260	0.160
-472.245	-148.791	-0.235	-0.019
-471.230	-41.780	0.192	-0.100
-470.216	-143.763	0.149	0.014
-469.201	-200.000	0.055	-0.251
-468.186	22.683	0.122	0.101
-467.172	263.432	-0.152	0.267
-466.157	21.729	-0.151	0.124
-465.143	12.826	0.176	0.138
-464.128	-20.273	-0.098	0.061
-463.113	-200.000	0.015	0.127
-462.099	-29.098	0.105	0.061
-461.084	164.926	-0.058	0.082
-460.070	-200.000	-0.013	0.069
-459.055	-153.711	-0.297	-0.021
-458.040	475.545	-0.103	0.235
-457.026	319.322	-0.088	0.169
-456.011	55.602	-0.016	-0.016
-454.997	19.706	-0.219	-0.178
-453.982	227.135	-0.156	-0.257
-452.968	786.863	-0.040	0.110
-451.953	374.782	0.133	0.274
-450.938	-200.000	0.012	0.161
-449.924	36.003	-0.089	-0.079
-448.909	722.641	0.152	0.410
-447.895	-134.845	-0.285	-0.035
-446.880	-44.481	0.022	-0.011
-445.865	800.000	-0.029	0.084
-444.851	-200.000	-0.015	-0.284
-443.836	800.000	0.067	-0.194
-442.822	-130.507	0.186	0.025
-441.807	113.051	0.049	-0.060
-440.792	-19.712	0.085	-0.053
-439.778	-39.060	-0.110	-0.058
-438.763	-200.000	-0.024	-0.287
-437.749	800.000	0.082	-0.311
-436.734	146.686	-0.178	-0.242
-435.719	504.086	0.146	0.342
-434.705	-94.085	-0.021	-0.006
-433.690	82.022	-0.213	0.233
-432.676	96.732	-0.322	0.373
-431.661	-23.470	-0.206	-0.125
-430.646	125.063	-0.171	0.218
-429.632	664.109	-0.060	0.157
-428.617	-200.000	-0.012	0.057
-427.603	60.875	-0.138	-0.138
-426.588	334.547	-0.080	0.157
-425.573	-200.000	0.029	-0.131
-424.559	-18.025	-0.254	0.161
-423.544	-60.270	0.205	0.088
-422.530	468.190	0.181	-0.411
-421.515	-200.000	0.038	0.224
-420.500	-157.860	0.213	0.013
-419.486	-66.295	0.124	0.050
-418.471	788.997	0.138	0.382
-417.457	-7.644	-0.316	0.216
-416.442	-200.000	0.059	-0.262
-415.428	800.000	-0.060	-0.247
-414.413	31.700	-0.367	-0.319
-413.398	234.089	-0.084	0.140
-412.384	-200.000	0.002	0.067
-411.369	800.000	0.022	0.066
-410.355	476.604	0.082	0.188
-409.340	-187.001	-0.277	0.004
-408.325	-200.000	0.006	0.055
-407.311	666.874	0.153	0.399
-406.296	158.101	-0.129	0.181
-405.282	107.395	-0.132	0.159
-404.267	-106.480	0.260	-0.059
-403.252	210.810	0.040	0.063
-402.238	-142.020	-0.161	-0.016
-401.223	-200.000	0.029	0.516
-400.209	-174.264	0.172	0.005
-399.194	24.483	0.193	-0.161
-398.179	15.047	-0.297	-0.235
-397.165	-200.000	-0.027	-0.127
-396.150	-150.251	0.101	0.008
-395.136	61.272	0.081	0.081
-394.121	14.374	0.131	-0.103
-393.106	-76.159	-0.255	0.091
-392.092	-200.000	-0.005	-0.035
-391.077	504.179	0.119	0.277
-390.063	-77.425	-0.121	-0.042
-389.048	0.662	-0.182	-0.132
-388.033	-83.454	-0.225	0.073
-387.019	14.075	0.132	-0.104
-386.004	630.638	0.088	0.225
-384.990	800.000	-0.111	-0.319
-383.975	-111.075	-0.230	0.048
-382.960	-65.360	0.173	0.070
-381.946	-90.063	-0.134	-0.039
-380.931	800.000	-0.020	0.059
-379.917	-96.956	0.208	-0.055
-378.902	319.537	-0.124	-0.238
-377.888	51.301	0.067	-0.064
-376.873	-92.077	0.047	0.013
-375.858	-1.532	-0.258	-0.183
-374.844	-160.001	0.181	-0.010
-373.829	72.709	-0.124	0.131
-372.815	-106.068	-0.153	-0.035
-371.800	-200.000	-0.003	-0.325
-370.785	176.137	-0.148	-0.216
-369.771	-7.721	-0.284	-0.194
-368.756	153.672	-0.251	0.346
-367.742	800.000	-0.066	-0.252
-366.727	296.089	-0.131	0.242
-365.712	773.207	0.178	0.488
-364.698	261.971	0.110	0.192
-363.683	-200.000	-0.088	0.443
-362.669	182.558	-0.052	-0.077
-361.654	800.000	0.040	0.128
-360.639	188.674	0.191	0.288
-359.625	-200.000	0.027	-0.157
-358.610	113.613	0.331	-0.406
-357.596	-84.977	0.372	0.117
-356.581	331.749	0.035	0.068
-355.566	-200.000	0.037	-0.291
-354.552	33.212	0.385	-0.336
-353.537	190.262	-0.347	-0.525
-352.523	147.870	-0.091	-0.123
-351.508	22.019	0.094	-0.077
-350.493	-85.578	-0.165	-0.052
-349.479	-66.719	-0.186	-0.074
-348.464	195.125	-0.080	-0.122
-347.450	-62.500	0.401	-0.168
-346.435	74.203	-0.233	0.246
-345.420	108.476	0.065	0.078
-344.406	-200.000	-0.017	0.146
-343.391	-200.000	-0.032	-0.175
-342.377	-80.464	0.124	-0.042
-341.362	54.905	-0.351	0.341
-340.348	389.121	-0.139	-0.289
-339.333	-181.203	0.291	-0.006
-338.318	41.819	0.123	-0.113
-337.304	-68.263	-0.147	0.057
-336.289	319.191	0.049	-0.094
-335.275	-53.495	-0.348	0.160
-334.260	-127.070	-0.315	-0.046
-333.245	-200.000	0.001	-0.270
-332.231	196.573	-0.086	0.131
-331.216	-133.609	0.224	-0.028
-330.202	9.468	0.186	-0.142
-329.187	78.336	-0.055	0.059
-328.172	-138.521	0.196	0.022
-327.158	491.713	-0.119	0.273
-326.143	453.368	-0.086	-0.192
-325.129	243.564	0.080	0.135
-324.114	55.593	0.021	0.021
-323.099	657.579	0.072	0.186
-322.085	476.927	-0.042	0.095
-321.070	8.826	0.215	-0.163
-320.056	-200.000	0.000	0.201
-319.041	375.803	0.147	-0.301
-318.026	-200.000	-0.014	-0.167
-317.012	404.508	0.039	-0.082
-315.997	67.646	0.191	0.196
-314.983	-200.000	-0.065	0.329
-313.968	-200.000	0.041	-0.452
-312.953	-47.940	0.333	-0.162
-311.939	500.873	0.039	0.091
-310.924	-14.899	0.136	0.088
-309.910	630.414	-0.037	-0.093
-308.895	-200.000	-0.002	0.028
-307.880	-124.789	0.431	0.067
-306.866	-88.956	-0.126	0.038
-305.851	-97.398	0.319	0.084
-304.837	583.464	0.076	-0.188
-303.822	133.037	0.117	-0.151
-302.807	335.224	-0.004	-0.008
-301.793	-118.140	-0.185	-0.033
-300.778	35.396	-0.294	-0.259
-299.764	192.337	-0.073	0.111
-298.749	485.913	-0.086	0.197
-297.735	288.351	0.108	-0.197
-296.720	800.000	-0.025	0.076
-295.705	-106.452	0.296	-0.066
-294.691	-197.442	0.312	-0.002
-293.676	-83.782	0.217	0.069
-292.662	30.589	-0.217	0.186
-291.647	91.319	-0.159	-0.180
-290.632	45.171	-0.030	-0.028
-289.618	-5.332	0.218	0.150
-288.603	-81.396	-0.411	0.136
-287.589	-125.691	0.127	0.019
-286.574	-200.000	0.040	0.229
-285.559	-200.000	-0.047	-0.246
-284.545	788.166	0.121	0.334
-283.530	233.106	-0.231	0.381
-282.516	-80.183	0.098	0.033
-281.501	-200.000	0.043	0.255
-280.486	-89.665	-0.015	0.004
-279.472	319.298	-0.123	-0.235
-278.457	-8.463	-0.190	-0.129
-277.443	57.963	0.015	0.015
-276.428	90.513	0.185	-0.208
-275.413	-200.000	0.001	0.115
-274.399	258.600	0.152	-0.263
-273.384	500.567	-0.038	0.087
-272.370	240.293	0.031	0.051
-271.355	-16.837	0.174	0.110
-270.340	800.000	0.079	0.274
-269.326	-111.780	0.380	0.077
-268.311	15.752	-0.102	0.080
-267.297	-53.169	0.058	0.027
-266.282	700.146	0.119	-0.313
-265.267	16.340	-0.023	-0.018
-264.253	-200.000	-0.011	0.209
-263.238	-120.568	0.351	-0.060
-262.224	65.356	0.328	-0.333
-261.209	-200.000	0.002	0.082
-260.195	91.907	-0.094	0.106
-259.180	-95.944	-0.139	-0.037
-258.165	146.025	0.114	-0.154
-257.151	800.000	-0.103	0.310
-256.136	254.520	-0.010	-0.017
-255.122	-29.874	0.209	0.120
-254.107	150.140	-0.093	0.126
-253.092	146.046	0.145	0.195
-252.078	184.178	-0.038	-0.057
-251.063	800.000	0.069	0.202
-250.049	68.531	0.115	0.118
-249.034	349.317	-0.147	-0.292
-248.019	-200.000	0.046	-0.470
-247.005	-200.000	0.008	0.175
-245.990	-133.815	-0.343	0.043
-244.976	-200.000	-0.051	-0.260
-243.961	593.279	-0.059	-0.146
-242.946	31.562	-0.405	0.349
-241.932	-22.707	-0.147	-0.089
-240.917	-90.686	0.229	-0.066
-239.903	263.588	0.173	-0.302
-238.888	-200.000	0.007	0.040
-237.873	296.963	-0.101	-0.187
-236.859	399.067	-0.078	-0.164
-235.844	-56.451	-0.084	0.038
-234.830	-200.000	-0.028	0.197
-233.815	92.949	0.021	-0.023
-232.800	-200.000	0.018	0.141
-231.786	-2.513	-0.188	0.132
-230.771	-200.000	-0.018	0.113
-229.757	3.663	-0.142	0.104
-228.742	-113.910	0.220	0.043
-227.727	-32.133	0.052	-0.029
-226.713	644.693	0.050	-0.127
-225.698	-200.000	0.060	0.298
-224.684	139.247	-0.150	0.198
-223.669	-49.045	-0.279	0.134
-222.655	-200.000	-0.040	0.270
-221.640	-140.084	-0.011	0.001
-220.625	-54.127	-0.132	0.060
-219.611	662.926	0.117	-0.303
-218.596	-139.764	0.040	0.004
-217.582	-200.000	0.005	-0.083
-216.567	-200.000	-0.014	-0.113
-215.552	15.107	-0.012	0.009
-214.538	-50.840	-0.164	-0.077
-213.523	43.962	-0.206	-0.189
-212.509	-54.203	-0.240	0.109
-211.494	-141.067	0.295	0.030
-210.479	3.987	-0.217	-0.159
-209.465	-200.000	-0.041	0.450
-208.450	800.000	0.070	0.204
-207.436	-67.652	-0.171	-0.067
-206.421	4.723	0.086	0.063
-205.406	-200.000	0.032	-0.207
-204.392	-74.356	-0.070	0.025
-203.377	800.000	0.055	0.233
-202.363	-200.000	-0.039	-0.303
-201.348	186.633	0.127	-0.189
-200.333	-46.164	0.101	0.050
-199.319	800.000	-0.027	0.082
-198.304	-148.287	0.081	-0.007
-197.290	579.692	0.068	-0.168
-196.275	26.999	-0.149	-0.125
-195.260	-175.523	-0.154	-0.004
-194.246	-200.000	0.043	-0.211
-193.231	-85.086	0.462	-0.145
-192.217	-76.166	0.103	-0.036
-191.202	-92.433	0.113	0.032
-190.187	-146.240	0.167	0.015
-189.173	800.000	-0.009	0.032
-188.158	-143.863	0.220	-0.021
-187.144	800.000	-0.102	-0.440
-186.129	-27.264	-0.152	-0.089
-185.114	45.269	0.116	-0.107
-184.100	280.908	0.098	0.175
-183.085	-89.408	-0.281	0.083
-182.071	-126.119	-0.216	-0.032
-181.056	111.216	0.129	0.155
-180.042	-84.693	-0.232	-0.073
-179.027	-76.967	-0.266	-0.093
-178.012	321.999	0.127	0.242
-176.998	80.325	0.212	0.228
-175.983	105.601	0.131	-0.155
-174.969	800.000	0.046	0.166
-173.954	-200.000	-0.002	0.070
-172.939	-200.000	-0.011	-0.259
-171.925	116.243	-0.162	-0.198
-170.910	-89.801	-0.501	0.147
-169.896	394.829	0.068	0.141
-168.881	77.543	-0.130	0.139
-167.866	54.040	-0.166	0.160
-166.852	-86.348	0.054	0.017
-165.837	-200.000	0.004	0.085
-164.823	-17.821	0.144	-0.091
-163.808	-55.210	-0.109	0.049
-162.793	800.000	0.111	-0.376
-161.779	-100.346	0.410	0.102
-160.764	-74.817	-0.080	-0.029
-159.750	117.036	-0.054	0.066
-158.735	-181.467	0.204	0.004
-157.720	27.936	0.107	-0.090
-156.706	80.083	-0.122	0.131
-155.691	44.387	0.246	-0.226
-154.677	-200.000	0.001	-0.125
-153.662	452.301	0.105	-0.231
-152.647	-182.604	0.096	0.002
-151.633	232.112	-0.004	-0.007
-150.618	-200.000	-0.020	0.196
-149.604	-92.120	0.110	0.031
-148.589	-99.199	-0.276	0.070
-147.574	74.960	-0.039	-0.041
-146.560	596.314	0.132	-0.328
-145.545	-200.000	0.021	-0.102
-144.531	337.775	-0.038	0.075
-143.516	-79.726	0.253	-0.085
-142.502	-200.000	0.138	0.001
-141.487	-200.000	-0.013	-0.277
-140.472	800.000	-0.047	-0.173
-139.458	-160.246	0.712	-0.038
-138.443	-200.000	-0.045	0.224
-137.429	-58.776	-0.355	0.154
-136.414	-145.756	-0.117	-0.010
-135.399	-38.961	-0.155	-0.081
-134.385	-200.000	0.012	0.109
-133.370	395.011	0.026	0.055
-132.356	281.403	-0.177	0.316
-131.341	-135.017	0.415	-0.050
-130.326	800.000	-0.033	0.135
-129.312	-92.836	-0.174	0.049
-128.297	-52.235	-0.183	-0.085
-127.283	33.572	0.146	-0.127
-126.268	-200.000	-0.058	0.328
-125.253	-200.000	-0.020	0.327
-124.239	296.610	-0.106	-0.193
-123.224	472.252	0.141	0.316
-122.210	-98.511	-0.159	0.040
-121.195	-200.000	-0.085	-0.518
-120.180	-39.625	0.135	-0.071
-119.166	800.000	-0.080	0.229
-118.151	187.582	0.018	-0.027
-117.137	44.071	0.238	0.218
-116.122	-42.256	-0.155	0.079
-115.107	800.000	0.059	0.252
-114.093	67.149	-0.117	0.119
-113.078	-29.649	-0.145	-0.082
-112.064	-200.000	0.062	-0.345
-111.049	379.202	0.106	0.216
-110.034	-31.529	-0.328	-0.184
-109.020	-200.000	-0.068	0.320
-108.005	-200.000	0.023	0.137
-106.991	204.465	0.121	-0.187
-105.976	505.799	0.220	-0.509
-104.962	-105.245	-0.210	-0.048
-103.947	-136.656	-0.132	0.015
-102.932	-37.327	-0.304	-0.162
-101.918	105.135	0.157	-0.185
-100.903	-97.164	0.381	-0.099
-99.889	-135.363	-0.260	-0.031
-98.874	800.000	-0.084	-0.346
-97.859	72.226	0.071	-0.074
-96.845	-68.685	0.185	-0.071
-95.830	-74.811	0.420	-0.150
-94.816	79.156	0.136	-0.145
-93.801	-200.000	0.006	-0.312
-92.786	-200.000	-0.024	0.232
-91.772	61.003	0.188	-0.186
-90.757	-102.251	-0.121	-0.029
-89.743	-156.319	-0.259	0.016
-88.728	-96.647	0.358	-0.094
-87.713	800.000	0.099	0.320
-86.699	-200.000	-0.038	0.305
-85.684	267.365	-0.141	0.246
-84.670	449.355	0.044	-0.097
-83.655	170.800	0.091	0.130
-82.640	-45.502	0.068	-0.033
-81.626	679.454	-0.123	0.319
-80.611	77.779	0.227	-0.241
-79.597	26.043	-0.244	0.203
-78.582	-186.682	0.211	-0.003
-77.567	800.000	0.069	-0.268
-76.553	62.163	-0.151	-0.150
-75.538	75.048	-0.330	0.346
-74.524	800.000	-0.012	0.043
-73.509	493.722	0.088	0.200
-72.494	56.102	0.372	-0.360
-71.480	302.965	0.091	-0.167
-70.465	19.023	0.166	-0.133
-69.451	-11.612	-0.062	0.040
-68.436	-119.572	0.100	0.017
-67.422	-200.000	0.094	-0.449
-66.407	-148.433	-0.234	0.019
-65.392	-200.000	-0.068	-0.493
-64.378	21.788	-0.238	0.193
-63.363	775.443	-0.157	-0.428
-62.349	-110.737	-0.175	-0.036
-61.334	-9.582	-1.080	-0.717
-60.319	371.786	0.229	0.462
-59.305	231.408	-0.336	-0.548
-58.290	203.346	0.663	1.021
-57.276	597.956	0.606	1.495
-56.261	-200.000	89.365	507.752
-55.246	525.942	1400.981	3283.959
-54.232	182.413	2611.044	3831.753
-53.217	117.420	2226.964	2726.216
-52.203	45.820	1750.527	1611.174
-51.188	38.934	1556.544	1384.236
-50.173	36.561	1527.973	1342.316
-49.159	53.795	1575.071	1505.575
-48.144	57.717	1594.458	1551.708
-47.130	39.608	1551.968	1384.683
-46.115	36.336	1536.579	1348.092
-45.100	36.008	1533.960	1343.458
-44.086	36.052	1531.894	1341.897
-43.071	36.053	1529.699	1339.931
-42.057	36.002	1528.052	1338.077
-41.042	36.054	1526.351	1336.898
-40.027	36.010	1525.505	1335.796
-39.013	35.921	1523.628	1333.485
-37.998	35.846	1522.834	1332.221
-36.984	35.929	1521.653	1331.705
-35.969	35.920	1520.186	1330.310
-34.954	36.034	1518.243	1329.340
-33.940	35.990	1516.793	1327.716
-32.925	36.128	1515.624	1327.590
-31.911	36.120	1514.146	1326.191
-30.896	36.158	1512.611	1325.054
-29.881	36.132	1511.526	1323.872
-28.867	36.042	1510.275	1322.103
-27.852	36.045	1508.827	1320.805
-26.838	36.019	1507.230	1319.173
-25.823	36.022	1505.531	1317.654
-24.809	36.139	1503.763	1316.861
-23.794	36.127	1502.698	1315.792
-22.779	36.027	1501.558	1314.061
-21.765	36.053	1500.494	1313.255
-20.750	36.137	1499.139	1312.589
-19.736	36.027	1498.095	1310.868
-18.721	36.010	1496.879	1309.641
-17.706	36.070	1495.630	1308.904
-16.692	36.017	1494.948	1307.891
-15.677	35.950	1494.039	1306.591
-14.663	35.972	1492.409	1305.264
-13.648	35.975	1491.672	1304.588
-12.633	35.948	1490.583	1303.403
-11.619	35.963	1489.836	1302.797
-10.604	35.930	1489.232	1301.993
-9.590	35.881	1488.356	1300.843
-8.575	35.892	1487.666	1300.268
-7.560	35.895	1486.781	1299.463
-6.546	35.941	1485.661	1298.740
-5.531	35.989	1484.112	1297.659
-4.517	35.964	1483.293	1296.721
-3.502	36.033	1482.154	1296.140
-2.487	36.032	1481.168	1295.221
-1.473	36.022	1480.094	1294.158
-0.458	35.936	1479.101	1292.663
0.556	37.972	1470.724	1284.920
1.571	35.328	1443.022	1243.490
2.586	31.062	1378.087	1160.942
3.600	28.411	1291.286	1072.238
4.615	25.497	1241.750	1014.591
5.629	21.177	1183.615	943.711
6.644	12.903	1098.329	833.957
7.659	6.209	1055.891	769.025
8.673	4.955	1050.198	758.705
9.688	4.696	1047.157	755.185
10.702	4.558	1044.835	752.777
11.717	4.922	1043.641	753.610
12.731	7.872	1046.902	770.193
13.746	15.460	1057.596	814.960
14.761	21.052	1065.000	847.850
15.775	21.642	1064.209	850.010
16.790	21.052	1062.221	845.488
17.804	19.881	1059.888	837.892
18.819	18.938	1058.098	831.842
19.834	18.539	1057.257	829.179
20.848	18.293	1056.524	827.342
21.863	18.056	1055.814	825.565
22.877	17.986	1055.124	824.617
23.892	17.850	1054.001	823.011
24.907	17.758	1053.381	822.012
25.921	17.785	1052.759	821.580
26.936	17.675	1051.931	820.333
27.950	17.667	1050.705	819.267
28.965	17.724	1049.333	818.396
29.980	17.957	1048.115	818.490
30.994	17.955	1047.873	818.219
32.009	18.048	1047.238	818.100
33.023	18.231	1046.071	817.992
34.038	18.133	1045.263	816.817
35.053	17.957	1044.529	815.329
36.067	17.993	1043.131	814.338
37.082	17.901	1042.070	813.000
38.096	17.944	1041.397	812.610
39.111	17.997	1041.171	812.613
40.126	18.037	1040.376	812.110
41.140	18.008	1038.737	810.619
42.155	17.807	1037.500	808.632
43.169	17.490	1036.634	806.383
44.184	17.433	1035.586	805.227
45.199	17.480	1034.243	804.334
46.213	17.562	1033.487	804.063
47.228	17.557	1032.562	803.248
48.242	17.784	1031.819	803.667
49.257	17.834	1031.141	803.304
50.271	17.803	1029.866	802.093
51.286	17.828	1028.964	801.438
52.301	17.954	1028.459	801.567
53.315	17.930	1027.453	800.600
54.330	17.913	1026.351	799.588
55.344	17.650	1026.132	798.117
56.359	17.523	1024.909	796.502
57.374	17.605	1023.940	796.058
58.388	17.645	1023.382	795.744
59.403	17.555	1022.684	794.709
60.417	17.512	1021.303	793.364
61.432	17.466	1020.869	792.744
62.447	17.651	1019.829	792.725
63.461	17.428	1019.404	791.290
64.476	17.380	1018.115	789.995
65.490	17.335	1017.481	789.225
66.505	17.389	1016.243	788.447
67.520	17.311	1016.017	787.841
68.534	17.342	1015.296	787.355
69.549	17.332	1014.500	786.619
70.563	17.364	1013.094	785.608
71.578	17.324	1013.013	785.291
72.593	17.182	1011.961	783.751
73.607	17.124	1010.578	782.343
74.622	17.266	1009.395	782.011
75.636	17.108	1009.223	781.081
76.651	17.236	1008.071	780.712
77.666	17.109	1007.848	779.886
78.680	17.207	1006.881	779.516
79.695	17.203	1006.568	779.187
80.709	17.294	1006.069	779.151
81.724	17.546	1005.206	779.565
82.739	17.527	1004.230	778.652
83.753	17.628	1003.824	778.729
84.768	17.759	1003.075	778.681
85.782	17.839	1002.859	778.810
86.797	18.153	1001.712	779.280
87.812	18.129	1001.381	778.845
88.826	17.879	1000.239	776.751
89.841	17.777	999.280	775.473
90.855	17.915	998.612	775.512
91.870	18.109	997.548	775.495
92.884	18.036	997.178	774.812
93.899	18.046	996.512	774.271
94.914	17.888	995.807	772.937
95.928	18.027	995.058	772.917
96.943	18.208	994.222	773.017
97.957	17.976	993.239	771.135
98.972	17.977	992.147	770.224
99.987	17.932	991.363	769.343
101.001	18.077	990.836	769.522
102.016	17.901	990.295	768.242
103.030	17.913	988.740	767.023
104.045	17.968	988.165	766.755
105.060	18.058	987.201	766.343
106.074	18.046	985.602	764.979
107.089	17.784	984.960	763.242
108.103	17.486	984.019	761.114
109.118	17.403	983.074	759.943
110.133	17.382	982.170	759.082
111.147	17.355	981.443	758.334
112.162	17.345	980.682	757.635
113.176	17.433	979.856	757.320
114.191	17.449	979.098	756.740
115.206	17.636	978.154	756.773
116.220	17.595	977.592	756.087
117.235	17.564	976.471	755.018
118.249	17.516	975.742	754.174
119.264	17.596	974.695	753.653
120.279	17.358	973.961	751.967
121.293	17.454	972.807	751.432
122.308	17.299	972.588	750.515
123.322	17.295	971.413	749.523
124.337	17.329	970.216	748.681
125.352	17.179	969.247	747.210
126.366	17.198	968.209	746.426
127.381	17.272	966.839	745.630
128.395	17.222	966.233	744.877
129.410	17.222	965.052	743.901
130.424	17.332	964.512	743.898
131.439	17.374	963.827	743.488
132.454	17.440	963.104	743.153
133.468	17.407	962.473	742.455
134.483	17.551	962.304	742.890
135.497	17.532	961.552	742.159
136.512	17.476	960.933	741.373
137.527	17.586	959.968	741.039
138.541	17.519	959.097	740.010
139.556	17.654	958.032	739.710
140.570	17.660	957.616	739.350
141.585	17.556	957.045	738.393
142.600	17.893	956.393	739.285
143.614	18.085	955.233	739.150
144.629	18.051	954.668	738.504
145.643	18.161	953.766	738.214
146.658	17.962	953.158	736.819
147.673	17.939	951.830	735.631
148.687	17.708	950.998	733.926
149.702	17.710	950.229	733.276
150.716	17.521	949.247	731.643
151.731	17.714	947.870	731.344
152.746	17.594	947.469	730.457
153.760	17.509	947.032	729.691
154.775	17.612	946.208	729.432
155.789	17.733	945.331	729.207
156.804	17.825	945.052	729.320
157.819	17.817	943.884	728.320
158.833	17.907	943.090	728.027
159.848	18.050	942.918	728.442
160.862	18.069	942.418	728.071
161.877	17.927	941.779	726.909
162.892	17.848	940.208	725.298
163.906	17.643	939.265	723.633
164.921	17.577	938.373	722.601
165.935	17.469	937.424	721.348
166.950	17.591	936.418	721.030
167.964	17.777	935.242	720.844
168.979	17.778	934.210	719.992
169.994	17.781	932.938	718.959
171.008	17.754	932.328	718.311
172.023	17.705	931.714	717.570
173.037	17.797	931.399	717.649
174.052	17.946	930.977	717.886
175.067	17.957	929.547	716.768
176.081	17.825	928.907	715.658
177.096	17.508	928.077	713.626
178.110	17.626	926.731	713.022
179.125	17.608	926.450	712.666
180.140	17.741	925.601	712.506
181.154	17.827	925.056	712.383
182.169	17.727	925.023	711.876
183.183	17.735	924.532	711.472
184.198	17.960	923.599	711.628
185.213	18.058	922.407	711.054
186.227	18.123	921.954	710.912
187.242	18.114	921.538	710.491
188.256	18.191	920.483	709.933
189.271	18.190	920.364	709.776
190.286	18.295	919.694	709.629
191.300	18.002	918.545	707.469
192.315	17.762	917.138	705.327
193.329	17.467	916.846	703.823
194.344	17.496	916.006	703.236
195.359	17.645	916.138	703.890
196.373	17.796	915.277	703.789
197.388	17.904	914.935	703.909
198.402	18.017	914.450	703.938
199.417	18.142	914.219	704.214
200.432	18.396	913.508	704.650
201.446	18.332	913.594	704.391
202.461	18.571	912.472	704.445
203.475	18.430	912.844	704.090
204.490	18.638	911.431	703.791
205.504	18.307	910.832	701.910
206.519	18.158	909.827	700.462
207.534	18.101	909.100	699.606
208.548	18.290	908.127	699.567
209.563	18.229	907.641	698.883
210.577	18.297	906.814	698.462
211.592	18.162	906.489	697.601
212.607	18.396	906.122	698.208
213.621	18.555	905.763	698.517
214.636	18.514	904.794	697.541
215.650	18.344	904.227	696.351
216.665	18.425	903.707	696.220
217.680	18.535	903.348	696.329
218.694	18.501	902.910	695.793
219.709	18.658	902.384	695.961
220.723	18.536	901.606	694.806
221.738	18.496	900.776	693.942
222.753	18.534	900.051	693.474
223.767	18.522	899.126	692.653
224.782	18.638	898.611	692.662
225.796	18.561	897.991	691.815
226.811	18.937	897.001	692.504
227.826	18.552	896.722	690.675
228.840	18.541	895.900	689.940
229.855	18.468	895.246	689.082
230.869	18.376	894.560	688.122
231.884	18.429	893.867	687.742
232.899	18.360	893.085	686.803
233.913	18.329	892.402	686.093
234.928	18.425	891.999	686.105
235.942	18.292	890.917	684.680
236.957	18.225	890.345	683.913
237.972	18.361	889.701	683.900
238.986	18.379	888.891	683.289
240.001	18.350	888.413	682.746
241.015	18.326	887.654	682.005
242.030	18.457	886.777	681.791
243.045	18.514	886.321	681.607
244.059	18.526	886.301	681.583
245.074	18.666	885.151	681.192
246.088	18.624	884.800	680.694
247.103	18.648	884.256	680.313
248.117	18.809	883.493	680.302
249.132	18.915	883.331	680.536
250.147	19.176	882.582	680.933
251.161	19.303	882.065	680.976
252.176	19.326	881.775	680.782
253.190	19.226	881.004	679.732
254.205	19.291	880.571	679.591
255.220	19.467	880.012	679.794
256.234	19.291	879.365	678.543
257.249	19.192	878.817	677.669
258.263	19.303	878.190	677.561
259.278	19.427	877.213	677.236
260.293	19.359	876.647	676.473
261.307	19.213	876.790	675.948
262.322	19.388	875.996	675.965
263.336	19.480	875.134	675.597
264.351	19.359	874.886	674.873
265.366	19.473	874.182	674.716
266.380	19.592	873.495	674.593
267.395	19.485	872.963	673.703
268.409	19.442	871.691	672.496
269.424	19.357	871.318	671.819
270.439	19.406	870.253	671.126
271.453	19.209	869.789	669.943
272.468	19.181	868.986	669.155
273.482	19.130	868.240	668.325
274.497	19.338	867.731	668.679
275.512	19.325	867.190	668.156
276.526	19.292	866.217	667.217
277.541	19.294	865.727	666.789
278.555	19.360	865.139	666.534
279.570	19.598	864.414	666.836
280.585	19.589	864.202	666.577
281.599	19.749	863.722	666.764
282.614	19.610	863.014	665.625
283.628	19.495	862.196	664.491
284.643	19.454	861.423	663.678
285.657	19.370	861.335	663.227
286.672	19.605	860.623	663.527
287.687	19.418	860.119	662.360
288.701	19.320	860.032	661.857
289.716	19.582	858.833	661.883
290.730	19.591	858.473	661.579
291.745	19.594	857.977	661.151
292.760	19.491	857.103	660.026
293.774	19.670	856.397	660.106
294.789	19.645	856.402	659.957
295.803	19.666	855.781	659.498
296.818	19.656	854.553	658.456
297.833	19.388	854.461	657.305
298.847	19.434	853.940	657.023
299.862	19.608	852.896	656.821
300.876	19.627	852.387	656.443
301.891	19.683	851.571	655.970
302.906	19.767	851.010	655.799
303.920	19.927	850.266	655.774
304.935	20.009	849.858	655.712
305.949	20.104	849.447	655.697
306.964	20.003	848.979	654.893
307.979	19.918	848.291	653.983
308.993	19.898	847.398	653.162
310.008	19.878	847.079	652.783
311.022	19.884	846.946	652.646
312.037	19.931	846.395	652.340
313.052	19.776	845.729	651.189
314.066	19.712	844.890	650.240
315.081	19.610	844.213	649.280
316.095	19.569	843.970	648.881
317.110	19.654	843.084	648.464
318.125	19.736	842.335	648.136
319.139	19.690	842.054	647.692
320.154	19.726	841.400	647.263
321.168	19.779	840.581	646.778
322.183	19.802	839.996	646.355
323.197	19.718	840.230	646.162
324.212	19.760	839.702	645.858
325.227	19.898	838.625	645.485
326.241	19.771	838.543	644.894
327.256	19.872	837.764	644.612
328.270	19.777	836.933	643.563
329.285	19.677	836.613	642.889
330.300	19.692	836.068	642.469
331.314	19.586	835.802	641.814
332.329	19.849	834.704	641.887
333.343	19.933	834.299	641.832
334.358	20.043	833.943	641.907
335.373	20.001	833.584	641.421
336.387	19.918	832.886	640.517
337.402	20.141	832.463	640.963
338.416	20.268	831.707	640.792
339.431	20.263	831.402	640.480
340.446	20.383	830.869	640.457
341.460	20.446	830.770	640.555
342.475	20.477	829.789	639.857
343.489	20.480	829.348	639.470
344.504	20.493	828.809	639.049
345.519	20.587	828.603	639.176
346.533	20.673	828.204	639.129
347.548	20.653	827.696	638.607
348.562	20.487	826.777	637.232
349.577	20.379	825.881	636.091
350.592	20.358	825.081	635.340
351.606	20.172	824.682	634.296
352.621	20.254	824.104	634.097
353.635	20.105	823.819	633.276
354.650	20.222	823.312	633.257
355.665	20.322	823.157	633.447
356.679	20.357	822.565	633.063
357.694	20.283	822.631	632.790
358.708	20.321	822.157	632.508
359.723	20.412	821.097	631.968
360.738	20.422	820.521	631.503
361.752	20.600	819.939	631.645
362.767	20.466	819.767	630.971
363.781	20.618	819.307	631.112
364.796	20.598	819.102	630.825
365.810	20.677	819.033	631.003
366.825	20.868	818.527	631.251
367.840	21.012	817.990	631.301
368.854	20.895	817.471	630.422
369.869	20.768	816.800	629.389
370.883	20.777	816.018	628.764
371.898	20.741	815.661	628.304
372.913	20.797	815.183	628.082
373.927	20.830	814.750	627.811
374.942	20.837	813.807	627.056
375.956	20.747	813.357	626.329
376.971	20.954	812.654	626.474
377.986	20.840	812.087	625.574
379.000	21.093	811.838	626.236
380.015	21.091	811.460	625.881
381.029	21.196	810.614	625.549
382.044	21.114	809.862	624.619
383.059	21.013	809.653	624.043
384.073	20.982	809.508	623.764
385.088	21.112	808.030	623.034
386.102	20.928	807.481	621.901
387.117	20.823	806.958	621.069
388.132	20.751	806.701	620.559
389.146	20.678	806.192	619.852
390.161	20.857	806.037	620.314
391.175	21.098	805.531	620.726
392.190	21.096	805.318	620.503
393.205	20.842	805.037	619.328
394.219	21.010	804.079	619.133
395.234	20.891	803.779	618.424
396.248	20.848	803.145	617.729
397.263	20.672	802.554	616.595
398.278	20.555	802.412	616.018
399.292	20.642	801.617	615.661
400.307	20.675	801.020	615.263
401.321	20.667	800.440	614.736
402.336	20.778	800.280	614.952
403.350	20.726	800.525	614.902
404.365	20.826	799.568	614.465
405.380	21.060	799.142	614.909
406.394	21.060	799.100	614.822
407.409	21.231	798.477	614.888
408.423	21.253	798.025	614.564
409.438	21.320	797.548	614.379
410.453	21.341	797.397	614.281
411.467	21.401	796.908	614.061
412.482	21.477	796.429	613.903
413.496	21.575	795.921	613.800
414.511	21.668	795.541	613.781
415.526	21.555	795.470	613.274
416.540	21.628	794.987	613.106
417.555	21.469	794.369	612.016
418.569	21.470	793.906	611.608
419.584	21.387	793.344	610.833
420.599	21.386	792.991	610.504
421.613	155.963	1366.642	1784.443
422.628	135.051	1450.284	1784.569
