DTS Sentinel unit serial number:	SN413079Multiplexer serial number:	ORYXHardware model number:	OX4-SRSoftware version number:	ORYX F/W v4.00 Oryx Data Collector v3.7.2.0data status	okinstallation	princeton_trtdifferential loss correction	single-endedforward channel	channel 3reverse channel	N/Adate	2019/09/15time	20:24:35forward acquisition time	60.00reverse acquisition time	0.00gamma	496.2192k internal	0.2322k external	0.2322temperature offset calibration	0.9938default loss term (dB/km)	0.3790temperature slope calibration	1.0000multiplexer offset coefficient	1.0000multiplexer slope coefficient	1.0000fibre end	0.00T internal ref (°C)	33.83T ext. ref 1 (°C)	7.76T ext. ref 2 (°C)	25.34length (m)	temperature (°C)	Stokes	anti-Stokes-747.200	-41.090	-0.106	0.055
-746.185	-12.404	-0.151	0.100
-745.171	-82.087	-0.152	0.050
-744.156	-45.271	-0.257	0.129
-743.142	-138.497	0.164	0.018
-742.127	-3.749	0.279	0.195
-741.112	-200.000	0.022	-0.222
-740.098	-200.000	-0.001	0.158
-739.083	-200.000	-0.001	-0.005
-738.069	800.000	0.089	0.340
-737.054	120.061	-0.070	0.088
-736.039	-55.532	-0.039	-0.018
-735.025	-58.972	0.216	-0.094
-734.010	-200.000	-0.085	0.479
-732.996	4.871	-0.222	0.165
-731.981	83.871	-0.293	-0.322
-730.966	-200.000	0.071	0.475
-729.952	-71.207	0.179	0.068
-728.937	-200.000	-0.026	-0.120
-727.923	800.000	-0.052	0.223
-726.908	289.438	0.147	-0.270
-725.894	19.188	0.236	-0.191
-724.879	-91.325	0.047	-0.014
-723.864	164.851	-0.160	0.228
-722.850	241.104	0.022	0.037
-721.835	13.766	0.125	0.098
-720.821	-84.805	-0.244	0.078
-719.806	636.650	0.046	0.119
-718.791	-200.000	0.033	0.399
-717.777	-94.302	-0.198	-0.055
-716.762	-170.220	0.142	-0.005
-715.748	-200.000	0.003	-0.176
-714.733	-39.454	-0.110	0.058
-713.718	-153.974	0.031	-0.002
-712.704	339.035	0.049	-0.097
-711.689	-114.847	-0.106	-0.020
-710.675	-82.067	-0.239	0.079
-709.660	-200.000	-0.055	-0.355
-708.645	-145.847	-0.184	-0.016
-707.631	-35.529	-0.266	-0.146
-706.616	85.328	0.088	0.098
-705.602	150.145	0.147	-0.201
-704.587	209.167	-0.105	0.166
-703.572	-200.000	0.008	0.056
-702.558	-80.314	0.062	0.021
-701.543	-200.000	0.066	-0.322
-700.529	496.159	0.085	-0.197
-699.514	-17.315	0.045	0.029
-698.499	800.000	0.026	-0.105
-697.485	800.000	0.075	0.266
-696.470	-200.000	0.024	-0.357
-695.456	-200.000	0.012	-0.076
-694.441	31.473	-0.051	-0.044
-693.426	-200.000	0.007	-0.065
-692.412	103.113	0.193	-0.228
-691.397	-176.985	-0.448	-0.011
-690.383	284.725	0.117	-0.212
-689.368	475.149	-0.080	0.183
-688.354	-25.649	-0.208	-0.124
-687.339	-98.202	-0.229	0.059
-686.324	-18.609	-0.125	0.079
-685.310	13.126	0.319	0.249
-684.295	-36.971	-0.159	0.086
-683.281	161.516	0.029	0.041
-682.266	321.314	-0.041	-0.078
-681.251	800.000	-0.140	-0.456
-680.237	104.910	-0.242	-0.287
-679.222	432.676	0.046	-0.100
-678.208	-200.000	0.048	-0.255
-677.193	-200.000	-0.001	0.086
-676.178	-200.000	-0.008	-0.185
-675.164	784.466	0.148	-0.409
-674.149	22.691	0.119	-0.098
-673.135	56.976	-0.121	0.118
-672.120	285.143	-0.046	0.083
-671.105	93.043	-0.055	-0.063
-670.091	409.876	-0.103	-0.219
-669.076	365.283	0.146	-0.296
-668.062	-200.000	-0.030	0.147
-667.047	-166.107	-0.123	-0.005
-666.032	42.216	0.175	-0.160
-665.018	1.992	-0.290	-0.211
-664.003	-19.810	0.233	0.145
-662.989	800.000	-0.047	0.179
-661.974	-69.327	-0.185	0.072
-660.959	-200.000	-0.039	0.327
-659.945	-91.005	0.238	-0.069
-658.930	-200.000	0.005	0.205
-657.916	-95.610	-0.210	-0.057
-656.901	-106.100	-0.226	-0.051
-655.886	-105.089	0.340	-0.078
-654.872	-114.430	0.347	-0.067
-653.857	344.120	-0.115	-0.227
-652.843	15.559	-0.262	-0.208
-651.828	-200.000	-0.008	-0.145
-650.814	-44.108	-0.071	-0.036
-649.799	-85.685	-0.067	0.021
-648.784	-150.814	-0.279	-0.021
-647.770	16.794	-0.266	0.212
-646.755	-59.825	-0.239	0.103
-645.741	-68.213	-0.251	-0.098
-644.726	-200.000	0.036	0.325
-643.711	-187.820	0.158	0.002
-642.697	-200.000	-0.015	-0.116
-641.682	-200.000	-0.003	0.098
-640.668	-60.666	-0.220	0.094
-639.653	-136.314	0.061	-0.007
-638.638	168.241	-0.161	0.230
-637.624	-60.374	0.184	0.079
-636.609	800.000	-0.042	0.178
-635.595	-200.000	0.232	0.001
-634.580	109.387	0.044	0.053
-633.565	9.445	-0.034	0.026
-632.551	-59.170	0.080	0.035
-631.536	-96.201	-0.154	0.041
-630.522	-43.737	-0.479	0.243
-629.507	131.623	-0.163	-0.211
-628.492	471.541	0.061	-0.138
-627.478	-188.437	-0.224	0.003
-626.463	28.920	0.157	0.134
-625.449	31.995	-0.119	0.103
-624.434	800.000	0.042	-0.147
-623.419	-200.000	-0.035	0.391
-622.405	116.189	-0.038	-0.047
-621.390	352.829	-0.174	0.347
-620.376	-80.781	0.126	-0.042
-619.361	-17.806	-0.181	-0.114
-618.346	-160.267	-0.395	-0.021
-617.332	-200.000	-0.027	0.284
-616.317	341.111	-0.117	-0.230
-615.303	-58.621	0.106	0.046
-614.288	800.000	0.039	-0.164
-613.273	-94.610	0.253	0.069
-612.259	-135.013	-0.187	-0.023
-611.244	-101.431	0.332	0.081
-610.230	-200.000	-0.002	-0.288
-609.215	80.793	0.049	0.053
-608.201	-200.000	-0.005	-0.319
-607.186	333.380	-0.190	0.369
-606.171	105.064	-0.198	0.235
-605.157	-80.622	0.202	-0.068
-604.142	-200.000	-0.024	-0.122
-603.128	-59.402	-0.143	0.062
-602.113	-14.009	-0.046	0.030
-601.098	282.752	-0.105	0.189
-600.084	-116.285	0.270	0.050
-599.069	-200.000	-0.021	0.107
-598.055	71.650	0.107	-0.112
-597.040	800.000	0.096	0.348
-596.025	-96.003	-0.106	0.028
-595.011	-73.932	-0.184	0.067
-593.996	-17.977	0.202	-0.127
-592.982	-7.614	-0.314	-0.213
-591.967	-47.324	-0.008	0.004
-590.952	-200.000	0.004	-0.096
-589.938	-8.406	0.082	0.055
-588.923	-200.000	0.010	0.238
-587.909	128.205	0.257	0.328
-586.894	21.547	0.209	0.171
-585.879	-100.008	-0.208	0.052
-584.865	-155.988	-0.049	-0.003
-583.850	-164.497	0.115	0.005
-582.836	-124.902	-0.100	0.015
-581.821	800.000	-0.072	-0.269
-580.806	144.423	0.134	-0.180
-579.792	147.546	0.062	-0.084
-578.777	-123.701	0.213	0.034
-577.763	-86.535	-0.447	-0.138
-576.748	248.642	-0.081	-0.138
-575.733	168.775	0.143	-0.204
-574.719	1.974	-0.130	0.094
-573.704	31.424	-0.196	0.169
-572.690	-200.000	-0.020	0.113
-571.675	-96.048	-0.069	-0.018
-570.661	69.121	0.088	-0.091
-569.646	403.359	-0.060	0.128
-568.631	128.846	0.177	0.227
-567.617	-200.000	0.001	0.268
-566.602	-103.030	0.181	0.043
-565.588	-200.000	-0.009	-0.146
-564.573	-200.000	-0.039	-0.230
-563.558	-41.008	-0.084	0.043
-562.544	800.000	0.107	0.308
-561.529	-123.315	-0.267	-0.043
-560.515	247.951	-0.225	-0.381
-559.500	800.000	-0.059	0.235
-558.485	-200.000	0.007	-0.052
-557.471	583.356	-0.077	-0.189
-556.456	10.691	0.080	-0.061
-555.442	-50.420	-0.405	0.192
-554.427	800.000	0.064	-0.239
-553.412	9.900	-0.159	-0.121
-552.398	-67.040	-0.345	-0.136
-551.383	308.981	-0.054	-0.102
-550.369	800.000	0.102	-0.361
-549.354	211.905	0.279	-0.441
-548.339	-31.331	-0.278	-0.157
-547.325	244.117	0.054	0.091
-546.310	14.528	-0.246	-0.193
-545.296	800.000	0.065	0.229
-544.281	-200.000	-0.007	0.144
-543.266	-117.018	0.351	0.064
-542.252	-51.947	0.270	-0.126
-541.237	132.401	-0.060	0.077
-540.223	-200.000	-0.030	0.421
-539.208	-58.136	0.125	0.055
-538.193	-45.154	-0.245	0.122
-537.179	23.611	-0.235	0.194
-536.164	-30.639	0.349	0.198
-535.150	-155.005	0.152	0.010
-534.135	800.000	-0.053	-0.167
-533.121	-67.704	-0.119	0.047
-532.106	253.324	-0.153	-0.262
-531.091	-141.424	-0.150	0.015
-530.077	140.038	-0.111	0.147
-529.062	-62.644	0.172	-0.072
-528.048	638.379	-0.091	-0.232
-527.033	191.553	-0.204	0.308
-526.018	800.000	0.059	-0.256
-525.004	88.489	0.198	0.220
-523.989	-162.628	0.422	-0.021
-522.975	-200.000	-0.026	-0.312
-521.960	553.413	-0.111	0.268
-520.945	800.000	0.110	-0.324
-519.931	33.422	-0.221	-0.192
-518.916	-27.509	-0.259	0.150
-517.902	-25.306	-0.344	-0.204
-516.887	26.169	-0.127	0.107
-515.872	-93.058	0.276	0.077
-514.858	231.883	-0.105	-0.173
-513.843	-55.659	-0.347	0.156
-512.829	800.000	-0.053	-0.196
-511.814	-200.000	-0.022	0.185
-510.799	800.000	-0.027	-0.084
-509.785	800.000	-0.049	-0.151
-508.770	-92.180	-0.322	-0.091
-507.756	-200.000	-0.024	-0.183
-506.741	559.926	0.098	-0.238
-505.726	-100.612	-0.276	-0.068
-504.712	422.835	0.084	-0.180
-503.697	-200.000	-0.001	0.146
-502.683	112.447	-0.116	0.141
-501.668	-50.063	-0.057	0.027
-500.653	-82.790	-0.259	-0.084
-499.639	186.691	-0.176	-0.263
-498.624	398.365	0.086	0.179
-497.610	-121.772	0.259	-0.043
-496.595	-200.000	-0.023	0.299
-495.581	137.797	0.052	0.068
-494.566	-54.794	0.524	0.237
-493.551	-200.000	0.050	0.234
-492.537	800.000	-0.026	-0.084
-491.522	-200.000	-0.027	-0.334
-490.508	-89.452	-0.569	-0.167
-489.493	28.922	-0.209	0.177
-488.478	-17.128	0.183	0.115
-487.464	-60.788	-0.225	0.095
-486.449	-200.000	-0.001	0.092
-485.435	-200.000	0.014	-0.128
-484.420	130.683	0.087	-0.112
-483.405	800.000	0.022	-0.082
-482.391	-200.000	0.005	0.077
-481.376	800.000	0.067	-0.232
-480.362	214.026	-0.148	-0.234
-479.347	202.265	-0.278	-0.428
-478.332	87.404	-0.165	0.183
-477.318	-156.341	0.081	-0.005
-476.303	97.251	-0.249	0.286
-475.289	-200.000	-0.065	0.377
-474.274	-131.346	0.338	0.045
-473.259	-106.680	0.305	-0.068
-472.245	127.444	-0.205	-0.260
-471.230	452.615	0.053	-0.118
-470.216	38.622	-0.348	0.310
-469.201	-57.839	0.447	0.196
-468.186	186.810	-0.128	-0.191
-467.172	780.714	-0.126	-0.346
-466.157	-184.625	-0.577	-0.009
-465.143	-200.000	-0.039	0.201
-464.128	-200.000	-0.012	-0.129
-463.113	-200.000	-0.006	0.186
-462.099	276.893	-0.087	0.154
-461.084	800.000	-0.065	0.204
-460.070	62.980	-0.159	0.159
-459.055	800.000	-0.086	0.288
-458.040	-6.419	0.109	0.074
-457.026	102.351	-0.070	-0.082
-456.011	340.197	-0.025	-0.048
-454.997	29.922	-0.094	0.080
-453.982	-124.952	0.325	0.050
-452.968	152.062	-0.222	0.303
-451.953	5.462	-0.246	-0.181
-450.938	-196.264	-0.108	-0.001
-449.924	23.023	0.127	0.104
-448.909	800.000	0.057	0.169
-447.895	-173.576	0.126	0.004
-446.880	528.696	-0.103	-0.244
-445.865	427.763	-0.081	-0.174
-444.851	-55.417	0.150	0.067
-443.836	-200.000	-0.026	-0.330
-442.822	238.425	-0.051	-0.085
-441.807	575.606	0.035	-0.085
-440.792	193.347	0.209	0.316
-439.778	-110.259	0.176	0.037
-438.763	19.843	0.093	0.075
-437.749	-69.385	0.132	-0.051
-436.734	-200.000	0.025	-0.262
-435.719	75.272	-0.097	-0.102
-434.705	18.536	-0.162	-0.129
-433.690	-200.000	0.045	0.234
-432.676	27.424	-0.497	0.417
-431.661	-113.111	-0.392	0.077
-430.646	-200.000	-0.024	-0.179
-429.632	184.352	-0.150	-0.221
-428.617	-28.587	0.541	0.311
-427.603	-134.805	-0.214	-0.026
-426.588	201.152	0.199	0.306
-425.573	89.479	0.115	-0.128
-424.559	-200.000	0.183	-0.001
-423.544	-122.897	-0.151	-0.024
-422.530	-43.523	-0.083	-0.042
-421.515	-84.580	0.109	-0.034
-420.500	-64.408	-0.079	-0.032
-419.486	800.000	0.037	0.151
-418.471	800.000	0.037	0.110
-417.457	338.851	-0.040	-0.078
-416.442	-189.693	-0.260	0.003
-415.428	-200.000	0.013	0.116
-414.413	-66.380	0.157	0.062
-413.398	-15.046	-0.101	-0.065
-412.384	-200.000	0.070	-0.310
-411.369	47.742	-0.023	0.021
-410.355	-184.750	0.242	-0.004
-409.340	89.539	0.143	-0.160
-408.325	23.252	0.094	0.077
-407.311	111.590	-0.236	0.284
-406.296	-100.908	0.113	0.028
-405.282	-2.404	0.271	-0.190
-404.267	515.938	-0.077	0.180
-403.252	538.545	-0.064	0.152
-402.238	-105.043	-0.169	-0.038
-401.223	-72.530	0.240	0.088
-400.209	158.223	-0.159	-0.220
-399.194	363.461	-0.071	-0.141
-398.179	4.209	0.195	-0.142
-397.165	59.849	0.182	-0.179
-396.150	-129.912	-0.199	0.027
-395.136	175.748	-0.265	0.383
-394.121	-200.000	-0.013	-0.329
-393.106	-22.152	-0.099	-0.060
-392.092	435.870	-0.154	-0.335
-391.077	-27.117	0.293	0.170
-390.063	238.132	0.167	0.277
-389.048	37.014	0.052	-0.046
-388.033	800.000	-0.032	0.112
-387.019	9.401	-0.237	-0.179
-386.004	-6.065	0.206	-0.140
-384.990	-200.000	-0.026	-0.224
-383.975	-71.847	0.073	0.027
-382.960	10.798	0.220	0.168
-381.946	336.028	0.251	0.485
-380.931	-200.000	0.010	0.098
-379.917	202.049	-0.112	0.171
-378.902	205.139	0.246	-0.381
-377.888	42.926	-0.095	-0.086
-376.873	24.057	0.126	-0.104
-375.858	-2.583	0.349	-0.244
-374.844	-200.000	-0.117	-0.534
-373.829	399.225	0.062	-0.129
-372.815	-37.536	-0.370	0.196
-371.800	286.454	0.193	0.347
-370.785	-43.941	0.333	-0.167
-369.771	53.666	0.091	0.087
-368.756	468.996	0.085	0.191
-367.742	-41.562	-0.169	-0.087
-366.727	63.659	0.224	-0.224
-365.712	16.897	0.108	-0.085
-364.698	-103.260	-0.108	0.025
-363.683	401.104	-0.166	0.347
-362.669	-172.006	0.209	0.007
-361.654	74.145	0.201	-0.210
-360.639	126.501	0.136	0.171
-359.625	800.000	0.013	-0.049
-358.610	-13.880	-0.083	-0.053
-357.596	46.012	0.076	-0.070
-356.581	-165.372	-0.284	0.012
-355.566	311.144	-0.152	-0.283
-354.552	-5.328	-0.207	0.142
-353.537	-10.141	0.181	-0.120
-352.523	779.593	0.057	0.156
-351.508	800.000	0.106	-0.343
-350.493	-200.000	-0.250	-0.001
-349.479	571.354	0.169	-0.409
-348.464	30.388	0.128	-0.109
-347.450	-33.347	0.154	0.085
-346.435	-200.000	0.019	-0.143
-345.420	-4.207	0.109	-0.075
-344.406	-156.162	-0.228	0.014
-343.391	534.738	-0.080	-0.188
-342.377	478.006	-0.086	0.194
-341.362	-47.974	0.154	-0.074
-340.348	-200.000	-0.000	-0.397
-339.333	-200.000	0.003	-0.183
-338.318	179.706	0.212	-0.309
-337.304	-21.547	0.238	0.144
-336.289	-25.639	0.307	-0.180
-335.275	-75.369	-0.246	-0.087
-334.260	136.093	-0.219	-0.283
-333.245	-75.440	0.164	0.058
-332.231	800.000	-0.022	-0.093
-331.216	-68.085	-0.262	-0.101
-330.202	31.255	0.091	0.077
-329.187	207.014	-0.148	-0.230
-328.172	244.784	0.071	0.119
-327.158	-200.000	0.056	-0.247
-326.143	-1.005	0.341	0.240
-325.129	800.000	0.013	0.048
-324.114	-109.577	0.314	0.066
-323.099	800.000	0.125	-0.418
-322.085	-78.649	0.069	-0.023
-321.070	-200.000	0.007	0.185
-320.056	133.259	-0.119	0.153
-319.041	800.000	0.119	0.439
-318.026	-200.000	0.017	0.095
-317.012	-44.343	-0.193	-0.096
-315.997	56.896	0.234	-0.227
-314.983	83.718	0.225	0.244
-313.968	-82.021	0.151	0.049
-312.953	77.559	0.038	-0.041
-311.939	800.000	-0.074	-0.214
-310.924	123.001	0.162	0.201
-309.910	-75.886	0.288	0.101
-308.895	76.400	-0.128	0.134
-307.880	55.921	0.172	-0.166
-306.866	-87.883	-0.218	-0.065
-305.851	-200.000	0.046	-0.376
-304.837	-200.000	0.006	0.195
-303.822	781.510	0.082	0.222
-302.807	241.398	0.081	0.134
-301.793	50.370	-0.267	-0.251
-300.778	19.074	0.062	-0.049
-299.764	-75.321	0.198	0.070
-298.749	-45.567	0.134	0.066
-297.735	281.591	-0.144	0.256
-296.720	-46.698	0.195	0.095
-295.705	-200.000	-0.027	0.146
-294.691	800.000	-0.055	0.157
-293.676	-53.901	0.532	0.241
-292.662	-79.635	0.029	-0.010
-291.647	40.197	-0.174	0.155
-290.632	147.410	0.219	-0.292
-289.618	418.895	-0.157	0.334
-288.603	-200.000	-0.021	0.149
-287.589	132.823	-0.139	0.178
-286.574	-23.299	0.179	-0.107
-285.559	-97.889	-0.073	-0.019
-284.545	800.000	-0.023	-0.066
-283.530	-61.137	-0.220	-0.092
-282.516	-129.134	-0.301	-0.042
-281.501	367.590	0.050	0.101
-280.486	800.000	0.041	-0.118
-279.472	440.471	0.124	-0.268
-278.457	-90.955	-0.279	-0.080
-277.443	122.974	0.143	0.178
-276.428	-121.701	-0.068	0.011
-275.413	78.843	0.178	-0.189
-274.399	-112.474	-0.170	-0.034
-273.384	-200.000	0.001	-0.180
-272.370	-159.186	-0.489	-0.027
-271.355	475.154	-0.018	0.041
-270.340	127.768	-0.119	0.150
-269.326	240.458	-0.062	-0.103
-268.311	-200.000	-0.013	0.149
-267.297	80.587	-0.148	-0.159
-266.282	82.916	-0.053	0.057
-265.267	-135.294	-0.153	-0.018
-264.253	-4.395	-0.337	-0.231
-263.238	70.794	0.014	0.014
-262.224	-85.328	0.147	0.046
-261.209	133.404	0.156	0.199
-260.195	201.791	-0.099	0.151
-259.180	-128.762	0.320	-0.045
-258.165	458.108	-0.114	-0.251
-257.151	-122.339	0.356	0.058
-256.136	-137.394	0.082	-0.009
-255.122	61.310	-0.164	-0.161
-254.107	-13.051	-0.360	-0.232
-253.092	-178.818	-0.208	-0.005
-252.078	-96.898	0.158	0.041
-251.063	-147.760	0.146	0.012
-250.049	60.999	-0.062	0.061
-249.034	108.444	0.066	0.078
-248.019	800.000	-0.029	0.094
-247.005	-200.000	0.022	0.118
-245.990	800.000	0.037	0.142
-244.976	-19.021	-0.222	0.137
-243.961	-8.159	0.530	-0.354
-242.946	350.876	0.032	0.063
-241.932	10.976	0.093	-0.070
-240.917	0.276	0.087	0.062
-239.903	219.006	-0.022	-0.034
-238.888	32.439	-0.090	0.077
-237.873	-101.922	0.167	-0.040
-236.859	-106.322	-0.422	-0.093
-235.844	-200.000	-0.046	0.232
-234.830	138.611	0.175	-0.228
-233.815	303.978	-0.098	-0.180
-232.800	180.919	0.048	-0.069
-231.786	312.525	0.098	-0.182
-230.771	800.000	0.044	0.165
-229.757	275.817	0.139	-0.244
-228.742	55.273	-0.096	-0.092
-227.727	-200.000	-0.016	-0.334
-226.713	255.731	0.058	0.098
-225.698	82.939	-0.072	-0.077
-224.684	67.424	0.190	0.192
-223.669	-22.624	-0.312	-0.187
-222.655	-200.000	-0.009	0.254
-221.640	70.838	0.188	0.193
-220.625	-200.000	-0.052	0.296
-219.611	-95.685	-0.139	0.037
-218.596	-146.881	0.369	-0.031
-217.582	145.191	0.305	-0.404
-216.567	-200.000	0.007	0.301
-215.552	12.482	-0.469	0.358
-214.538	800.000	0.117	0.391
-213.523	417.540	0.071	-0.151
-212.509	-181.358	0.240	0.005
-211.494	370.491	-0.112	-0.225
-210.479	-152.998	0.095	0.007
-209.465	256.580	-0.096	-0.162
-208.450	-200.000	-0.005	0.413
-207.436	-93.850	0.218	0.059
-206.421	161.308	-0.083	-0.114
-205.406	164.841	-0.141	0.197
-204.392	-200.000	0.019	0.247
-203.377	-24.219	-0.039	0.023
-202.363	-116.457	0.274	0.050
-201.348	143.486	0.171	0.225
-200.333	-54.795	0.021	0.009
-199.319	472.624	-0.117	-0.262
-198.304	500.949	0.116	-0.264
-197.290	-125.368	0.196	-0.030
-196.275	302.256	0.016	-0.029
-195.260	538.099	-0.034	0.081
-194.246	-200.000	0.011	-0.261
-193.231	-147.454	0.211	0.018
-192.217	-200.000	0.001	0.046
-191.202	128.268	0.084	-0.105
-190.187	13.740	0.082	0.063
-189.173	-200.000	-0.001	-0.008
-188.158	-45.937	0.280	0.137
-187.144	-200.000	-0.015	-0.078
-186.129	-91.499	0.069	0.020
-185.114	285.269	-0.039	0.070
-184.100	-81.884	0.145	0.047
-183.085	-174.999	0.081	0.002
-182.071	117.299	0.200	0.243
-181.056	682.465	-0.132	0.341
-180.042	-71.426	0.249	0.092
-179.027	126.915	0.141	-0.177
-178.012	-4.696	0.142	-0.097
-176.998	-55.909	0.047	0.021
-175.983	-123.605	-0.102	0.016
-174.969	-74.052	0.193	0.069
-173.954	-149.608	-0.069	0.005
-172.939	-1.344	0.085	0.059
-171.925	19.700	-0.182	0.145
-170.910	300.081	-0.071	0.128
-169.896	252.496	0.166	-0.279
-168.881	98.949	-0.059	-0.068
-167.866	-200.000	-0.069	-0.367
-166.852	-134.357	-0.069	0.008
-165.837	453.808	-0.084	0.185
-164.823	-200.000	0.008	0.083
-163.808	-176.258	0.152	0.004
-162.793	800.000	-0.074	0.257
-161.779	-162.861	0.128	0.006
-160.764	167.032	0.289	0.405
-159.750	346.126	0.228	-0.443
-158.735	134.486	0.124	-0.159
-157.720	131.999	0.033	0.041
-156.706	800.000	-0.024	0.103
-155.691	800.000	0.059	-0.232
-154.677	76.674	0.138	-0.144
-153.662	353.652	0.061	-0.120
-152.647	800.000	0.027	-0.095
-151.633	61.356	-0.036	0.036
-150.618	126.019	0.150	-0.187
-149.604	-41.073	0.024	-0.012
-148.589	-84.936	0.246	0.076
-147.574	-51.681	0.046	-0.021
-146.560	-200.000	-0.015	-0.128
-145.545	-13.631	0.127	0.081
-144.531	257.001	0.202	0.343
-143.516	-140.728	0.362	0.037
-142.502	85.299	0.137	0.149
-141.487	167.636	0.260	0.364
-140.472	715.149	0.028	0.073
-139.458	800.000	-0.030	-0.115
-138.443	-58.782	0.542	0.231
-137.429	529.285	0.055	-0.129
-136.414	-69.782	-0.045	0.017
-135.399	533.775	-0.090	0.211
-134.385	-134.065	0.253	-0.031
-133.370	-110.935	-0.187	0.038
-132.356	169.530	0.208	-0.293
-131.341	800.000	0.073	0.235
-130.326	800.000	-0.030	0.115
-129.312	8.667	-0.240	0.178
-128.297	111.827	0.150	0.179
-127.283	-7.524	0.054	-0.036
-126.268	-101.136	-0.160	0.039
-125.253	-200.000	0.036	0.237
-124.239	-139.812	-0.395	-0.041
-123.224	184.795	0.253	-0.370
-122.210	641.964	0.195	-0.491
-121.195	-59.630	0.172	-0.073
-120.180	770.396	0.176	-0.473
-119.166	-132.757	0.405	-0.051
-118.151	202.678	0.199	0.303
-117.137	49.497	0.115	0.106
-116.122	-61.702	-0.175	0.072
-115.107	207.892	0.120	-0.185
-114.093	-16.803	0.180	0.112
-113.078	180.923	0.030	0.044
-112.064	-109.640	-0.128	0.027
-111.049	-200.000	0.507	0.002
-110.034	376.973	0.065	-0.130
-109.020	330.489	-0.057	-0.109
-108.005	264.900	0.025	0.043
-106.991	-200.000	0.022	-0.186
-105.976	-101.806	-0.126	-0.030
-104.962	31.801	0.193	-0.164
-103.947	186.670	0.200	-0.293
-102.932	800.000	0.067	0.265
-101.918	-158.776	0.221	0.012
-100.903	432.335	-0.133	0.284
-99.889	-105.251	-0.233	-0.052
-98.874	-200.000	0.001	0.224
-97.859	-34.876	0.352	0.189
-96.845	87.862	-0.144	0.158
-95.830	-8.273	-0.185	0.123
-94.816	129.543	-0.177	0.223
-93.801	-62.204	0.147	-0.060
-92.786	502.922	-0.076	-0.173
-91.772	69.347	-0.287	0.291
-90.757	-128.446	0.249	-0.035
-89.743	74.737	0.264	-0.274
-88.728	-74.156	0.270	0.096
-87.713	200.640	-0.087	0.132
-86.699	211.976	0.053	0.082
-85.684	800.000	-0.046	0.134
-84.670	800.000	-0.064	-0.210
-83.655	-61.949	-0.013	0.005
-82.640	-200.000	0.027	-0.226
-81.626	-9.065	0.398	-0.262
-80.611	-200.000	-0.032	0.152
-79.597	-187.229	-0.244	0.003
-78.582	354.020	0.075	0.147
-77.567	94.754	-0.214	0.239
-76.553	-200.000	0.026	-0.182
-75.538	335.117	0.097	0.185
-74.524	0.915	0.329	0.232
-73.509	-17.533	0.294	0.182
-72.494	-143.558	-0.356	0.033
-71.480	-137.108	-0.213	0.024
-70.465	-200.000	0.026	0.168
-69.451	241.243	0.088	0.145
-68.436	255.303	0.138	-0.232
-67.422	-152.102	0.415	0.030
-66.407	22.715	0.148	-0.119
-65.392	800.000	-0.034	-0.147
-64.378	-70.951	0.253	0.094
-63.363	107.422	0.062	-0.072
-62.349	516.087	0.106	0.243
-61.334	250.010	-0.715	-1.194
-60.319	126.094	0.530	0.659
-59.305	455.849	-0.381	-0.831
-58.290	88.749	0.906	0.992
-57.276	471.447	0.761	1.685
-56.261	-200.000	91.789	557.984
-55.246	571.148	1349.687	3231.558
-54.232	165.475	2518.440	3501.238
-53.217	112.982	2154.789	2568.524
-52.203	44.235	1702.383	1536.136
-51.188	37.006	1514.065	1317.264
-50.173	34.631	1487.096	1277.877
-49.159	54.026	1533.894	1450.226
-48.144	55.947	1552.196	1480.521
-47.130	37.382	1512.319	1318.088
-46.115	34.096	1497.715	1283.193
-45.100	33.901	1494.710	1279.253
-44.086	33.916	1492.720	1277.597
-43.071	33.726	1491.312	1275.065
-42.057	33.834	1489.287	1274.013
-41.042	33.717	1488.259	1272.299
-40.027	33.806	1486.651	1271.470
-39.013	33.814	1485.126	1270.164
-37.998	33.823	1483.901	1269.126
-36.984	33.895	1482.414	1268.286
-35.969	33.853	1481.288	1266.994
-34.954	33.807	1480.081	1265.600
-33.940	33.844	1478.856	1264.748
-32.925	33.954	1477.303	1264.107
-31.911	33.861	1476.245	1262.530
-30.896	33.852	1475.153	1261.490
-29.881	33.891	1473.582	1260.351
-28.867	33.906	1472.166	1259.191
-27.852	33.781	1470.770	1257.119
-26.838	33.863	1469.240	1256.301
-25.823	33.732	1467.995	1254.324
-24.809	33.859	1466.098	1253.495
-23.794	33.843	1464.552	1252.013
-22.779	33.858	1463.259	1250.959
-21.765	33.989	1462.357	1250.997
-20.750	33.928	1461.287	1249.634
-19.736	33.879	1460.135	1248.275
-18.721	33.869	1459.423	1247.555
-17.706	33.848	1458.382	1246.477
-16.692	33.799	1457.045	1244.963
-15.677	33.790	1456.222	1244.151
-14.663	33.898	1454.854	1243.636
-13.648	33.753	1454.159	1242.045
-12.633	33.806	1453.494	1241.778
-11.619	33.840	1452.650	1241.227
-10.604	33.746	1451.687	1239.740
-9.590	33.782	1450.728	1239.106
-8.575	33.826	1449.616	1238.394
-7.560	33.708	1449.381	1237.379
-6.546	33.711	1448.983	1237.011
-5.531	33.783	1447.515	1236.177
-4.517	33.867	1445.776	1235.187
-3.502	33.803	1445.267	1234.285
-2.487	33.761	1444.435	1233.251
-1.473	33.821	1443.544	1232.834
-0.458	33.780	1442.023	1231.222
0.556	31.578	1431.667	1217.533
1.571	27.412	1404.353	1167.552
2.586	22.640	1340.896	1085.396
3.600	20.351	1258.080	1005.031
4.615	18.986	1212.626	961.014
5.629	17.303	1160.230	910.406
6.644	12.578	1082.278	825.506
7.659	8.615	1044.564	777.446
8.673	7.972	1039.381	770.412
9.688	7.738	1036.552	767.114
10.702	7.687	1034.736	765.457
11.717	7.644	1033.226	764.069
12.731	9.468	1034.154	773.460
13.746	14.088	1040.284	800.259
14.761	17.382	1044.239	819.117
15.775	17.643	1043.116	819.420
16.790	16.706	1041.387	813.487
17.804	15.614	1039.289	806.539
18.819	14.799	1037.610	801.257
19.834	14.236	1035.834	797.121
20.848	13.867	1034.929	794.587
21.863	13.680	1033.983	792.898
22.877	13.392	1033.458	791.047
23.892	13.233	1032.751	789.678
24.907	13.199	1032.263	789.072
25.921	13.046	1031.210	787.466
26.936	13.135	1030.274	787.108
27.950	13.396	1028.960	787.276
28.965	13.374	1028.131	786.467
29.980	13.310	1026.934	785.176
30.994	13.344	1026.168	784.682
32.009	13.570	1024.952	784.755
33.023	13.474	1024.305	783.738
34.038	13.521	1023.770	783.478
35.053	13.335	1022.849	781.824
36.067	13.430	1021.718	781.338
37.082	13.329	1020.937	780.198
38.096	13.355	1020.286	779.753
39.111	13.568	1019.219	779.871
40.126	13.492	1018.122	778.606
41.140	13.331	1017.280	777.138
42.155	13.192	1016.408	775.749
43.169	13.192	1015.618	775.080
44.184	13.225	1014.060	773.976
45.199	13.164	1013.099	772.888
46.213	13.134	1012.194	771.988
47.228	13.186	1011.120	771.344
48.242	13.258	1010.407	771.070
49.257	13.297	1009.528	770.510
50.271	13.302	1008.486	769.670
51.286	13.280	1007.732	768.927
52.301	13.387	1006.724	768.586
53.315	13.314	1006.232	767.803
54.330	13.265	1005.332	766.822
55.344	13.309	1003.978	765.921
56.359	13.311	1002.932	765.068
57.374	13.307	1002.448	764.613
58.388	13.238	1001.758	763.696
59.403	13.204	1001.071	762.950
60.417	13.153	1000.248	762.022
61.432	13.216	999.355	761.561
62.447	13.048	998.695	760.217
63.461	13.289	997.316	760.208
64.476	12.997	997.100	758.635
65.490	13.101	996.188	758.352
66.505	13.125	995.371	757.772
67.520	13.156	994.584	757.251
68.534	13.049	993.921	756.187
69.549	13.102	993.152	755.780
70.563	13.162	992.426	755.436
71.578	13.160	991.299	754.499
72.593	12.985	990.726	753.199
73.607	13.165	989.358	752.913
74.622	13.049	988.637	751.769
75.636	13.147	987.763	751.483
76.651	13.024	987.110	750.359
77.666	13.030	986.645	749.966
78.680	12.929	985.786	748.791
79.695	12.973	985.097	748.398
80.709	13.156	984.643	748.819
81.724	13.236	983.599	748.318
82.739	13.288	982.544	747.687
83.753	13.194	982.318	747.024
84.768	13.363	981.541	747.129
85.782	13.463	980.688	746.867
86.797	13.442	979.889	746.094
87.812	13.498	979.030	745.627
88.826	13.298	978.614	744.344
89.841	13.322	977.252	743.353
90.855	13.306	976.919	742.959
91.870	13.342	976.345	742.620
92.884	13.401	975.582	742.241
93.899	13.399	974.746	741.526
94.914	13.565	973.556	741.299
95.928	13.398	973.458	740.410
96.943	13.659	972.038	740.431
97.957	13.517	971.856	739.592
98.972	13.505	970.977	738.808
99.987	13.457	970.252	737.973
101.001	13.658	968.789	737.691
102.016	13.421	968.696	736.503
103.030	13.381	967.888	735.646
104.045	13.330	967.132	734.776
105.060	13.504	965.853	734.512
106.074	13.432	964.715	733.262
107.089	13.357	964.084	732.388
108.103	13.108	963.235	730.576
109.118	13.164	962.143	729.931
110.133	13.077	961.830	729.243
111.147	13.247	960.642	729.027
112.162	13.211	959.703	728.092
113.176	13.202	958.933	727.404
114.191	13.313	957.946	727.079
115.206	13.291	957.178	726.336
116.220	13.270	956.649	725.777
117.235	13.258	955.931	725.115
118.249	13.319	954.794	724.456
119.264	13.292	953.692	723.440
120.279	13.267	953.229	722.913
121.293	13.173	952.459	721.855
122.308	13.286	951.534	721.586
123.322	13.206	950.837	720.641
124.337	13.184	949.646	719.582
125.352	13.325	948.761	719.460
126.366	13.269	947.484	718.184
127.381	13.219	946.947	717.496
128.395	13.189	945.595	716.280
129.410	13.320	944.093	715.643
130.424	13.154	944.317	715.034
131.439	13.277	943.090	714.573
132.454	13.307	942.056	713.855
133.468	13.291	941.620	713.390
134.483	13.306	940.982	712.908
135.497	13.377	940.061	712.456
136.512	13.350	939.282	711.684
137.527	13.338	938.374	710.884
138.541	13.263	937.782	710.049
139.556	13.262	937.306	709.624
140.570	13.420	936.229	709.422
141.585	13.391	935.800	708.908
142.600	13.460	935.270	708.739
143.614	13.575	933.955	708.173
144.629	13.504	933.422	707.401
145.643	13.480	933.243	707.102
146.658	13.529	931.978	706.292
147.673	13.451	930.754	704.969
148.687	13.435	929.898	704.188
149.702	13.450	929.160	703.632
150.716	13.334	928.495	702.571
151.731	13.386	927.424	701.920
152.746	13.298	926.823	701.032
153.760	13.343	926.165	700.662
154.775	13.386	925.413	700.214
155.789	13.524	924.705	700.200
156.804	13.598	923.407	699.468
157.819	13.492	922.965	698.622
158.833	13.433	922.860	698.231
159.848	13.701	921.564	698.320
160.862	13.618	920.871	697.381
161.877	13.580	920.377	696.787
162.892	13.479	919.927	695.959
163.906	13.513	918.957	695.306
164.921	13.397	918.414	694.349
165.935	13.419	917.164	693.433
166.950	13.461	916.286	692.884
167.964	13.452	915.312	692.050
168.979	13.369	914.844	691.287
169.994	13.592	912.976	690.747
171.008	13.456	912.711	689.914
172.023	13.626	911.767	689.847
173.037	13.607	911.349	689.391
174.052	13.670	910.345	688.837
175.067	13.606	909.901	688.171
176.081	13.615	908.978	687.451
177.096	13.537	908.052	686.364
178.110	13.690	907.487	686.511
179.125	13.595	907.002	685.691
180.140	13.527	906.141	684.699
181.154	13.623	904.913	684.107
182.169	13.732	904.532	684.208
183.183	13.662	904.138	683.560
184.198	13.770	902.982	683.069
185.213	13.766	902.942	682.961
186.227	13.963	901.306	682.476
187.242	13.966	901.043	682.226
188.256	13.879	901.164	681.903
189.271	13.862	900.278	681.101
190.286	13.844	899.751	680.567
191.300	13.761	898.729	679.393
192.315	13.709	897.794	678.415
193.329	13.486	897.369	677.120
194.344	13.692	896.387	677.163
195.359	13.601	896.285	676.654
196.373	13.706	895.740	676.613
197.388	13.917	894.736	676.654
198.402	13.862	894.673	676.321
199.417	13.995	894.378	676.580
200.432	14.074	893.902	676.482
201.446	14.147	893.251	676.224
202.461	14.013	893.151	675.547
203.475	14.134	892.105	675.185
204.490	14.110	891.873	674.854
205.504	14.064	891.136	674.048
206.519	14.102	889.860	673.179
207.534	14.157	889.184	672.830
208.548	14.028	888.479	671.714
209.563	14.087	887.894	671.453
210.577	13.955	887.364	670.458
211.592	13.944	886.656	669.820
212.607	14.180	886.299	670.444
213.621	14.090	885.896	669.717
214.636	14.271	884.912	669.641
215.650	14.157	884.124	668.526
216.665	14.116	883.950	668.170
217.680	14.014	883.846	667.625
218.694	14.170	883.228	667.727
219.709	14.210	882.495	667.273
220.723	14.289	881.754	666.970
221.738	14.288	881.015	666.345
222.753	14.357	880.043	665.828
223.767	14.269	879.468	664.982
224.782	14.334	878.456	664.420
225.796	14.336	877.962	663.992
226.811	14.486	877.216	663.969
227.826	14.433	876.362	663.053
228.840	14.486	875.770	662.755
229.855	14.434	875.200	662.061
230.869	14.331	874.810	661.296
231.884	14.415	874.089	661.025
232.899	14.382	873.575	660.448
233.913	14.427	872.420	659.693
234.928	14.305	871.777	658.670
235.942	14.223	871.704	658.231
236.957	14.336	870.897	658.011
237.972	14.344	870.245	657.490
238.986	14.391	869.544	657.088
240.001	14.379	868.590	656.261
241.015	14.310	868.498	655.863
242.030	14.363	867.629	655.355
243.045	14.357	866.831	654.672
244.059	14.474	866.475	654.804
245.074	14.564	865.923	654.684
246.088	14.548	865.029	653.885
247.103	14.528	864.650	653.465
248.117	14.563	864.014	653.063
249.132	14.588	863.525	652.734
250.147	14.650	863.087	652.585
251.161	14.981	862.063	653.045
252.176	14.955	861.796	652.683
253.190	14.891	860.974	651.753
254.205	15.008	860.075	651.471
255.220	14.945	859.826	650.980
256.234	15.009	858.989	650.537
257.249	14.979	858.696	650.143
258.263	14.915	857.988	649.300
259.278	14.993	857.304	649.028
260.293	15.102	856.868	649.062
261.307	15.087	856.257	648.485
262.322	15.085	855.838	648.101
263.336	15.034	855.521	647.606
264.351	15.042	854.928	647.133
265.366	15.127	854.077	646.759
266.380	15.105	853.541	646.210
267.395	15.118	852.778	645.626
268.409	15.083	852.060	644.892
269.424	15.063	851.429	644.279
270.439	15.186	850.929	644.318
271.453	15.175	850.201	643.667
272.468	15.180	849.115	642.806
273.482	15.101	848.690	642.125
274.497	15.133	848.197	641.819
275.512	15.146	847.542	641.316
276.526	15.186	846.922	640.943
277.541	15.138	846.396	640.304
278.555	15.166	845.821	639.919
279.570	15.198	844.970	639.341
280.585	15.320	844.263	639.216
281.599	15.299	843.998	638.877
282.614	15.240	843.603	638.298
283.628	15.371	842.788	638.124
284.643	15.277	842.364	637.388
285.657	15.219	842.207	636.990
286.672	15.334	841.191	636.605
287.687	15.402	840.553	636.324
288.701	15.296	840.233	635.621
289.716	15.443	839.741	635.752
290.730	15.399	839.189	635.109
291.745	15.450	838.204	634.500
292.760	15.343	838.134	633.988
293.774	15.335	837.598	633.494
294.789	15.387	837.153	633.298
295.803	15.712	835.717	633.383
296.818	15.405	835.550	632.044
297.833	15.538	834.534	631.717
298.847	15.540	834.291	631.485
299.862	15.697	833.371	631.322
300.876	15.692	832.490	630.580
301.891	15.530	832.282	629.761
302.906	15.531	831.787	629.333
303.920	15.588	831.228	629.070
304.935	15.669	830.384	628.677
305.949	15.782	829.846	628.635
306.964	15.779	829.486	628.297
307.979	15.644	828.967	627.345
308.993	15.745	828.161	627.054
310.008	15.809	827.596	626.810
311.022	15.735	827.552	626.447
312.037	15.788	827.031	626.194
313.052	15.740	826.212	625.339
314.066	15.725	825.377	624.597
315.081	15.622	824.781	623.707
316.095	15.680	824.448	623.617
317.110	15.766	823.582	623.226
318.125	15.660	823.133	622.436
319.139	15.601	822.977	622.044
320.154	15.800	822.480	622.351
321.168	15.722	821.927	621.589
322.183	15.864	821.383	621.648
323.197	15.887	820.656	621.126
324.212	15.795	819.989	620.230
325.227	15.768	820.091	620.150
326.241	15.884	819.418	620.015
327.256	15.874	818.827	619.477
328.270	15.884	818.353	619.098
329.285	15.778	817.528	618.030
330.300	15.865	817.176	618.030
331.314	15.769	817.062	617.535
332.329	15.726	816.052	616.560
333.343	15.895	815.370	616.608
334.358	15.919	814.978	616.345
335.373	16.080	814.046	616.175
336.387	16.118	813.942	616.179
337.402	16.041	813.491	615.505
338.416	16.045	812.835	614.968
339.431	16.138	812.419	614.939
340.446	16.313	811.473	614.806
341.460	16.126	811.417	614.029
342.475	16.277	810.462	613.797
343.489	16.208	810.439	613.477
344.504	16.452	809.688	613.738
345.519	16.320	809.185	612.826
346.533	16.469	808.632	612.891
347.548	16.319	808.388	612.111
348.562	16.165	807.901	611.129
349.577	16.238	806.983	610.643
350.592	16.205	806.513	610.114
351.606	16.258	805.992	609.858
352.621	16.134	805.964	609.335
353.635	16.173	805.550	609.110
354.650	16.138	805.195	608.663
355.665	16.315	804.351	608.607
356.679	16.228	804.164	608.097
357.694	16.377	803.543	608.110
358.708	16.346	803.061	607.581
359.723	16.394	802.583	607.339
360.738	16.337	801.918	606.577
361.752	16.486	801.277	606.571
362.767	16.353	801.018	605.845
363.781	16.504	800.660	606.064
364.796	16.498	800.229	605.662
365.810	16.540	799.699	605.356
366.825	16.674	799.440	605.587
367.840	16.638	799.020	605.086
368.854	16.640	798.928	604.971
369.869	16.571	798.233	604.142
370.883	16.602	797.482	603.633
371.898	16.582	797.210	603.301
372.913	16.777	796.257	603.223
373.927	16.875	795.720	603.112
374.942	16.747	795.247	602.242
375.956	16.662	794.784	601.536
376.971	16.648	794.260	601.038
377.986	16.861	793.577	601.224
379.000	16.823	793.312	600.834
380.015	16.902	792.818	600.687
381.029	16.858	791.767	599.683
382.044	16.908	791.418	599.543
383.059	16.946	791.106	599.387
384.073	16.855	790.479	598.537
385.088	16.879	789.983	598.194
386.102	16.834	789.688	597.759
387.117	16.961	788.554	597.295
388.132	16.921	788.306	596.912
389.146	16.806	788.037	596.251
390.161	16.701	787.899	595.724
391.175	16.857	787.348	595.803
392.190	17.090	786.943	596.264
393.205	16.934	786.403	595.253
394.219	16.972	786.331	595.280
395.234	16.888	785.547	594.339
396.248	16.893	785.384	594.182
397.263	16.917	784.481	593.530
398.278	16.889	784.146	593.126
399.292	16.808	783.804	592.530
400.307	16.918	783.507	592.638
401.321	16.864	782.731	591.809
402.336	16.837	782.723	591.658
403.350	16.964	782.102	591.580
404.365	16.990	781.709	591.319
405.380	17.065	781.416	591.309
406.394	17.056	781.046	590.944
407.409	17.067	780.259	590.333
408.423	17.180	780.117	590.567
409.438	17.227	779.331	590.085
410.453	17.291	778.986	589.992
411.467	17.310	778.795	589.860
412.482	17.312	778.232	589.388
413.496	17.472	777.757	589.533
414.511	17.378	777.687	589.100
415.526	17.277	777.390	588.475
416.540	17.356	776.926	588.344
417.555	17.275	776.407	587.620
418.569	17.465	775.642	587.644
419.584	17.327	775.368	586.908
420.599	17.477	774.774	586.925
421.613	106.689	1284.780	1453.303
422.628	91.058	1359.099	1453.417
