DTS Sentinel unit serial number:	SN413079Multiplexer serial number:	ORYXHardware model number:	OX4-SRSoftware version number:	ORYX F/W v4.00 Oryx Data Collector v3.7.2.0data status	okinstallation	princeton_trtdifferential loss correction	single-endedforward channel	channel 3reverse channel	N/Adate	2019/09/17time	12:00:35forward acquisition time	60.00reverse acquisition time	0.00gamma	496.2192k internal	0.2321k external	0.2321temperature offset calibration	0.9961default loss term (dB/km)	0.3790temperature slope calibration	1.0000multiplexer offset coefficient	1.0000multiplexer slope coefficient	1.0000fibre end	0.00T internal ref (°C)	31.12T ext. ref 1 (°C)	0.41T ext. ref 2 (°C)	27.21length (m)	temperature (°C)	Stokes	anti-Stokes-747.200	-104.385	-0.118	-0.028
-746.185	119.688	0.109	0.137
-745.171	124.350	0.126	0.161
-744.156	774.472	-0.030	0.083
-743.142	800.000	-0.100	0.318
-742.127	800.000	0.109	0.429
-741.112	-66.613	-0.226	0.090
-740.098	-10.254	-0.073	0.049
-739.083	-187.017	-0.035	0.000
-738.069	-0.888	-0.156	0.112
-737.054	800.000	-0.088	0.270
-736.039	-157.694	-0.236	0.014
-735.025	-82.120	0.195	0.064
-734.010	-15.968	0.182	0.117
-732.996	-170.366	-0.592	0.021
-731.981	-1.561	-0.202	-0.144
-730.966	800.000	-0.061	0.173
-729.952	-200.000	0.055	0.252
-728.937	-200.000	0.026	-0.264
-727.923	-54.092	-0.303	-0.139
-726.908	-200.000	0.015	-0.322
-725.894	-75.260	-0.118	0.042
-724.879	-200.000	0.014	0.087
-723.864	-200.000	0.012	-0.127
-722.850	-138.144	0.455	-0.051
-721.835	-81.706	-0.398	0.132
-720.821	800.000	0.053	0.175
-719.806	-136.279	-0.098	0.012
-718.791	287.464	0.165	-0.302
-717.777	-26.332	0.202	-0.120
-716.762	675.962	0.165	0.432
-715.748	-94.201	0.277	0.077
-714.733	-56.558	0.121	0.054
-713.718	-48.842	-0.325	0.157
-712.704	118.503	0.127	-0.158
-711.689	-89.216	-0.106	-0.031
-710.675	-20.010	0.209	-0.130
-709.660	-200.000	0.008	-0.068
-708.645	-132.826	-0.628	0.081
-707.631	-152.296	0.240	0.017
-706.616	-29.874	0.035	0.020
-705.602	-5.910	-0.325	-0.224
-704.587	-105.866	0.079	-0.018
-703.572	-200.000	-0.022	-0.333
-702.558	-68.561	-0.370	0.145
-701.543	800.000	0.039	0.114
-700.529	-120.742	-0.293	-0.050
-699.514	800.000	-0.079	0.330
-698.499	-64.593	-0.139	-0.057
-697.485	-200.000	-0.019	-0.180
-696.470	28.669	-0.322	-0.275
-695.456	219.504	0.255	-0.412
-694.441	49.924	0.161	-0.154
-693.426	35.489	-0.158	0.140
-692.412	-200.000	0.091	-0.476
-691.397	141.049	0.179	-0.238
-690.383	-135.939	0.344	0.041
-689.368	800.000	0.058	-0.186
-688.354	118.886	-0.097	0.121
-687.339	162.846	0.076	-0.108
-686.324	-123.428	0.197	0.032
-685.310	444.915	-0.087	0.193
-684.295	162.096	-0.207	-0.292
-683.281	176.046	-0.136	0.198
-682.266	-200.000	-0.042	-0.225
-681.251	-169.072	-0.158	-0.006
-680.237	429.287	0.107	-0.233
-679.222	-49.096	-0.011	-0.006
-678.208	102.124	0.061	0.072
-677.193	-148.719	0.368	-0.030
-676.178	75.434	0.059	-0.062
-675.164	-97.274	-0.309	-0.081
-674.149	-29.344	0.303	0.175
-673.135	112.614	0.066	0.080
-672.120	-104.402	0.278	-0.065
-671.105	-52.094	-0.118	0.055
-670.091	-115.511	-0.106	-0.020
-669.076	-136.778	-0.243	0.028
-668.062	123.817	-0.171	0.216
-667.047	-200.000	-0.028	-0.143
-666.032	-95.427	0.079	0.021
-665.018	62.746	0.281	0.284
-664.003	-24.609	-0.230	-0.138
-662.989	21.844	0.242	0.199
-661.974	-75.155	-0.206	-0.074
-660.959	-70.180	-0.248	-0.095
-659.945	-200.000	0.038	0.222
-658.930	-139.848	-0.168	-0.018
-657.916	-54.651	0.078	0.036
-656.901	-61.256	-0.041	-0.017
-655.886	86.367	-0.169	-0.187
-654.872	350.964	0.064	-0.128
-653.857	800.000	0.036	-0.136
-652.843	-57.069	0.342	-0.152
-651.828	-15.594	-0.434	0.279
-650.814	302.918	0.035	-0.066
-649.799	800.000	-0.061	0.190
-648.784	-200.000	0.005	-0.142
-647.770	800.000	0.075	-0.299
-646.755	125.645	0.195	-0.247
-645.741	192.070	-0.225	0.342
-644.726	240.572	0.137	-0.230
-643.711	-200.000	-0.029	-0.145
-642.697	-200.000	0.007	0.312
-641.682	800.000	0.072	0.230
-640.668	800.000	-0.053	0.174
-639.653	-73.325	-0.164	0.060
-638.638	202.174	0.129	-0.200
-637.624	-58.013	-0.353	-0.155
-636.609	470.096	-0.068	0.154
-635.595	20.936	-0.315	-0.257
-634.580	-49.120	0.109	0.052
-633.565	-11.506	-0.187	0.124
-632.551	-49.509	0.160	0.077
-631.536	-187.431	-0.337	-0.005
-630.522	-101.810	-0.280	-0.068
-629.507	800.000	-0.045	-0.154
-628.492	52.133	-0.112	-0.107
-627.478	223.252	-0.136	-0.221
-626.463	-100.218	0.113	-0.028
-625.449	-76.391	0.066	-0.023
-624.434	504.145	0.115	0.267
-623.419	15.252	0.207	0.163
-622.405	33.574	-0.155	0.135
-621.390	-85.260	-0.084	-0.026
-620.376	-166.133	0.098	-0.004
-619.361	-33.255	-0.160	0.089
-618.346	-51.454	-0.354	0.166
-617.332	-101.635	-0.150	-0.037
-616.317	800.000	-0.066	-0.226
-615.303	216.171	0.102	-0.163
-614.288	-17.077	0.097	-0.062
-613.273	211.370	0.106	0.168
-612.259	-200.000	-0.016	0.109
-611.244	520.604	-0.047	0.110
-610.230	208.529	-0.011	-0.017
-609.215	88.662	0.038	-0.043
-608.201	-13.152	0.454	0.296
-607.186	-200.000	0.015	-0.265
-606.171	800.000	-0.089	-0.387
-605.157	443.665	0.128	-0.283
-604.142	-155.120	-0.194	0.013
-603.128	-107.928	-0.029	0.006
-602.113	-132.261	-0.099	0.013
-601.098	-200.000	-0.012	-0.350
-600.084	-120.826	-0.289	-0.049
-599.069	800.000	-0.051	-0.167
-598.055	-6.617	0.230	-0.157
-597.040	-200.000	0.021	0.222
-596.025	-6.516	0.083	0.057
-595.011	663.653	0.055	0.142
-593.996	107.243	0.258	0.309
-592.982	50.149	0.168	0.160
-591.967	-200.000	0.008	0.380
-590.952	65.543	-0.437	0.445
-589.938	-129.880	-0.073	-0.010
-588.923	90.181	0.149	0.167
-587.909	-200.000	-0.004	-0.042
-586.894	92.284	-0.147	-0.167
-585.879	760.161	-0.017	-0.048
-584.865	-41.023	-0.152	0.079
-583.850	326.109	0.133	-0.256
-582.836	-61.457	0.300	-0.126
-581.821	11.520	-0.270	-0.208
-580.806	-110.266	-0.175	-0.037
-579.792	541.935	0.037	0.088
-578.777	800.000	-0.028	0.096
-577.763	800.000	-0.058	0.216
-576.748	-200.000	-0.023	-0.161
-575.733	-115.451	0.188	0.036
-574.719	41.400	-0.246	-0.224
-573.704	49.644	0.071	-0.067
-572.690	800.000	-0.104	0.290
-571.675	-121.175	-0.284	0.048
-570.661	-200.000	0.001	-0.160
-569.646	90.381	0.282	0.317
-568.631	137.249	0.101	0.133
-567.617	-200.000	0.017	-0.568
-566.602	249.141	0.117	-0.198
-565.588	339.835	-0.164	0.321
-564.573	748.764	-0.019	-0.050
-563.558	25.215	0.216	-0.180
-562.544	-200.000	-0.009	-0.152
-561.529	114.728	0.207	-0.253
-560.515	250.440	0.175	-0.298
-559.500	800.000	-0.023	-0.073
-558.485	179.760	0.109	0.160
-557.471	-200.000	0.026	-0.208
-556.456	800.000	-0.028	-0.116
-555.442	-200.000	-0.035	-0.167
-554.427	119.982	0.124	0.154
-553.412	35.589	0.293	-0.258
-552.398	-138.383	-0.472	-0.052
-551.383	-75.498	-0.201	-0.072
-550.369	524.672	0.120	0.283
-549.354	-52.232	0.105	0.049
-548.339	81.784	0.077	0.084
-547.325	14.642	-0.191	-0.150
-546.310	-200.000	0.002	0.104
-545.296	-200.000	0.023	0.161
-544.281	222.574	-0.267	0.431
-543.266	-83.795	-0.220	-0.070
-542.252	-128.577	0.330	-0.047
-541.237	-45.186	-0.120	-0.060
-540.223	-51.317	-0.077	-0.036
-539.208	-159.583	0.227	-0.013
-538.193	764.526	0.143	0.389
-537.179	311.028	0.073	0.136
-536.164	298.174	0.267	0.493
-535.150	-86.003	-0.200	-0.062
-534.135	-200.000	0.049	0.261
-533.121	226.896	0.122	0.199
-532.106	-54.423	-0.078	-0.036
-531.091	140.812	-0.199	0.263
-530.077	-200.000	-0.050	-0.279
-529.062	543.006	0.102	0.244
-528.048	-200.000	-0.058	0.270
-527.033	-200.000	0.020	0.263
-526.018	517.357	-0.038	0.088
-525.004	27.458	0.135	-0.114
-523.989	38.830	0.192	-0.172
-522.975	-46.312	-0.208	-0.103
-521.960	-200.000	-0.046	0.209
-520.945	248.419	-0.090	-0.153
-519.931	35.642	0.231	-0.204
-518.916	217.933	0.053	0.085
-517.902	588.704	0.091	0.225
-516.887	-91.189	-0.369	-0.106
-515.872	-46.605	0.190	0.094
-514.858	-200.000	0.001	0.175
-513.843	15.523	0.165	-0.130
-512.829	-200.000	-0.027	-0.189
-511.814	-85.209	-0.040	-0.013
-510.799	800.000	0.061	0.262
-509.785	93.225	0.102	-0.116
-508.770	62.960	0.115	-0.115
-507.756	424.625	-0.196	-0.422
-506.741	-65.989	0.313	-0.125
-505.726	239.605	-0.163	-0.272
-504.712	31.270	0.078	-0.067
-503.697	-137.857	0.230	-0.026
-502.683	-17.607	-0.202	-0.127
-501.668	-200.000	-0.007	-0.078
-500.653	25.462	-0.160	0.133
-499.639	-187.248	0.036	0.000
-498.624	98.315	-0.134	0.155
-497.610	-100.150	-0.355	0.088
-496.595	253.455	0.060	0.103
-495.581	142.575	-0.052	-0.069
-494.566	-200.000	-0.066	-0.456
-493.551	-35.968	0.039	-0.021
-492.537	621.355	-0.100	-0.251
-491.522	160.073	-0.113	-0.158
-490.508	800.000	0.017	0.062
-489.493	800.000	0.050	-0.169
-488.478	364.414	0.118	0.238
-487.464	-200.000	0.024	0.191
-486.449	141.698	-0.091	0.120
-485.435	237.415	-0.245	-0.406
-484.420	-60.645	-0.251	0.107
-483.405	97.426	0.069	0.080
-482.391	-200.000	-0.014	-0.274
-481.376	-200.000	-0.001	0.243
-480.362	21.470	0.359	-0.292
-479.347	58.796	-0.195	0.192
-478.332	117.836	0.066	-0.081
-477.318	74.646	-0.074	-0.078
-476.303	28.192	0.080	-0.068
-475.289	-52.769	-0.319	0.147
-474.274	418.351	-0.068	0.145
-473.259	-122.426	0.352	0.057
-472.245	93.595	0.131	0.148
-471.230	800.000	-0.045	-0.178
-470.216	137.951	-0.068	-0.089
-469.201	800.000	-0.051	0.222
-468.186	176.265	-0.182	-0.264
-467.172	800.000	-0.169	-0.577
-466.157	65.946	-0.105	0.107
-465.143	326.571	-0.274	-0.524
-464.128	-200.000	0.011	-0.125
-463.113	-200.000	0.061	-0.415
-462.099	135.085	-0.197	0.256
-461.084	800.000	0.085	0.360
-460.070	-149.839	-0.299	-0.023
-459.055	-200.000	0.020	-0.140
-458.040	-3.749	0.253	-0.176
-457.026	-38.686	-0.151	0.080
-456.011	-130.738	-0.056	0.008
-454.997	228.292	-0.057	-0.092
-453.982	-8.651	0.352	0.236
-452.968	224.577	0.144	0.233
-451.953	46.017	0.255	-0.236
-450.938	-200.000	0.037	-0.364
-449.924	-100.403	0.148	0.037
-448.909	42.478	0.065	-0.059
-447.895	190.729	0.125	0.188
-446.880	-200.000	0.030	-0.206
-445.865	146.677	-0.143	-0.193
-444.851	-26.935	-0.254	0.148
-443.836	-200.000	-0.030	-0.414
-442.822	88.182	0.072	0.080
-441.807	60.239	-0.097	-0.096
-440.792	800.000	0.064	0.258
-439.778	523.084	-0.040	-0.094
-438.763	-119.907	0.197	0.034
-437.749	10.029	0.014	0.011
-436.734	-200.000	-0.027	-0.246
-435.719	31.313	0.101	0.087
-434.705	-120.222	-0.110	0.019
-433.690	40.372	0.095	-0.086
-432.676	356.775	0.216	-0.430
-431.661	-80.811	0.261	0.086
-430.646	88.710	0.107	-0.118
-429.632	-74.800	0.389	0.139
-428.617	-200.000	-0.029	0.158
-427.603	-200.000	-0.014	-0.186
-426.588	2.749	0.128	-0.093
-425.573	265.859	-0.127	-0.221
-424.559	-200.000	-0.026	0.167
-423.544	-200.000	-0.009	0.474
-422.530	-200.000	0.030	0.153
-421.515	-98.165	0.283	-0.073
-420.500	208.474	0.146	-0.228
-419.486	-66.296	0.299	-0.119
-418.471	800.000	0.036	0.143
-417.457	1.543	0.120	0.086
-416.442	20.398	0.259	-0.209
-415.428	-126.054	-0.133	-0.020
-414.413	-105.039	0.116	0.026
-413.398	800.000	0.044	-0.174
-412.384	154.112	-0.120	0.165
-411.369	-200.000	0.047	0.222
-410.355	-105.466	-0.422	0.096
-409.340	-200.000	-0.017	-0.277
-408.325	324.953	-0.106	0.202
-407.311	-200.000	0.017	0.634
-406.296	-107.424	-0.031	0.007
-405.282	-200.000	-0.016	0.195
-404.267	-30.428	0.211	-0.119
-403.252	36.915	-0.147	0.130
-402.238	-79.091	-0.048	0.016
-401.223	-130.390	-0.228	0.031
-400.209	800.000	0.074	-0.226
-399.194	-162.533	-0.220	-0.011
-398.179	-40.233	0.004	-0.002
-397.165	-85.635	-0.451	0.140
-396.150	-200.000	-0.063	-0.284
-395.136	145.480	-0.214	-0.285
-394.121	486.685	0.093	-0.212
-393.106	-200.000	-0.008	0.181
-392.092	-200.000	-0.012	0.138
-391.077	-200.000	-0.036	0.293
-390.063	311.596	0.170	0.318
-389.048	-122.467	0.274	-0.045
-388.033	21.812	-0.028	0.023
-387.019	19.370	0.157	0.125
-386.004	800.000	0.017	-0.064
-384.990	-200.000	-0.013	0.209
-383.975	800.000	0.077	-0.292
-382.960	467.531	0.150	0.336
-381.946	-200.000	0.027	0.358
-380.931	-63.678	0.183	-0.075
-379.917	-200.000	-0.023	-0.126
-378.902	1.694	-0.067	-0.048
-377.888	-89.304	-0.194	-0.057
-376.873	72.795	-0.454	0.472
-375.858	11.374	-0.125	-0.095
-374.844	-200.000	-0.033	0.219
-373.829	95.785	-0.192	0.218
-372.815	218.437	0.081	-0.129
-371.800	223.788	-0.056	-0.090
-370.785	800.000	0.109	-0.353
-369.771	176.137	-0.175	-0.252
-368.756	-63.824	-0.236	0.096
-367.742	-38.174	-0.103	0.054
-366.727	24.393	0.223	-0.184
-365.712	286.914	-0.125	0.226
-364.698	-200.000	-0.016	-0.079
-363.683	800.000	-0.140	-0.429
-362.669	157.470	0.089	0.123
-361.654	-49.936	-0.146	-0.069
-360.639	800.000	-0.081	0.229
-359.625	-101.889	0.341	-0.082
-358.610	-16.000	-0.130	-0.082
-357.596	-89.973	-0.157	-0.045
-356.581	-200.000	0.018	-0.098
-355.566	-5.947	0.234	-0.160
-354.552	591.062	-0.050	-0.123
-353.537	-95.202	0.302	0.081
-352.523	40.902	0.240	0.215
-351.508	745.994	-0.080	-0.214
-350.493	245.116	-0.179	0.299
-349.479	-200.000	-0.001	-0.224
-348.464	800.000	0.133	-0.409
-347.450	-137.385	0.206	-0.023
-346.435	-200.000	0.001	-0.240
-345.420	-50.308	-0.268	-0.126
-344.406	-127.890	0.138	0.020
-343.391	-200.000	0.009	-0.095
-342.377	-200.000	0.040	-0.339
-341.362	-43.739	0.228	-0.114
-340.348	-200.000	-0.052	-0.291
-339.333	175.747	0.082	-0.119
-338.318	-57.352	0.353	0.154
-337.304	800.000	-0.035	0.141
-336.289	-200.000	0.004	0.044
-335.275	-200.000	0.036	0.224
-334.260	-100.484	0.045	-0.011
-333.245	70.929	0.092	0.095
-332.231	-100.233	-0.441	-0.109
-331.216	800.000	-0.061	0.227
-330.202	-102.434	0.202	0.048
-329.187	290.452	-0.296	-0.536
-328.172	98.062	0.070	-0.080
-327.158	-15.935	-0.188	0.119
-326.143	-200.000	0.000	-0.320
-325.129	-200.000	0.012	0.129
-324.114	-53.093	0.341	0.156
-323.099	-200.000	0.020	0.367
-322.085	-155.453	-0.118	-0.008
-321.070	63.796	0.163	0.162
-320.056	23.220	-0.154	0.126
-319.041	-200.000	-0.178	0.000
-318.026	303.811	-0.214	0.394
-317.012	-106.478	0.100	0.022
-315.997	-138.445	-0.167	0.018
-314.983	-130.280	-0.222	0.030
-313.968	422.441	0.015	-0.033
-312.953	107.794	-0.072	0.086
-311.939	-200.000	-0.010	-0.177
-310.924	101.005	0.203	0.235
-309.910	-200.000	-0.003	0.239
-308.895	-118.299	0.300	-0.053
-307.880	-85.058	-0.449	0.140
-306.866	-107.043	0.228	0.050
-305.851	74.918	-0.042	-0.044
-304.837	267.953	0.211	-0.368
-303.822	-103.918	-0.173	0.040
-302.807	-200.000	-0.030	0.171
-301.793	-2.863	-0.162	0.112
-300.778	89.783	-0.116	-0.128
-299.764	-200.000	0.011	-0.113
-298.749	800.000	0.179	0.496
-297.735	107.350	-0.098	0.116
-296.720	-72.393	-0.158	0.058
-295.705	-90.903	0.189	-0.054
-294.691	-200.000	0.023	-0.226
-293.676	-4.098	-0.243	-0.167
-292.662	-200.000	0.049	0.420
-291.647	103.370	0.146	-0.170
-290.632	59.429	0.348	0.341
-289.618	25.169	-0.205	0.169
-288.603	-200.000	0.026	0.235
-287.589	475.188	0.089	0.201
-286.574	-200.000	0.034	0.204
-285.559	-200.000	-0.052	0.317
-284.545	-200.000	-0.052	-0.249
-283.530	-64.910	-0.077	-0.031
-282.516	61.389	-0.225	-0.222
-281.501	-198.489	0.265	-0.001
-280.486	800.000	-0.057	0.228
-279.472	-33.471	0.037	-0.020
-278.457	800.000	0.132	0.496
-277.443	-200.000	0.012	0.309
-276.428	-200.000	-0.401	-0.001
-275.413	377.488	-0.048	0.097
-274.399	-83.301	0.148	-0.047
-273.384	39.832	0.120	0.107
-272.370	-200.000	0.007	-0.236
-271.355	-34.019	-0.013	0.007
-270.340	23.723	0.210	0.171
-269.326	-19.022	0.043	-0.026
-268.311	-127.984	0.134	-0.019
-267.297	800.000	-0.081	-0.246
-266.282	-165.208	-0.219	-0.010
-265.267	-200.000	0.036	-0.294
-264.253	-128.698	0.229	0.032
-263.238	800.000	0.032	0.125
-262.224	-4.301	-0.103	0.071
-261.209	-200.000	0.033	-0.192
-260.195	65.462	-0.187	0.187
-259.180	-137.564	0.201	0.023
-258.165	79.147	0.176	-0.187
-257.151	-141.482	0.244	0.024
-256.136	-95.691	0.099	0.026
-255.122	-43.177	0.157	0.079
-254.107	-26.440	0.030	0.018
-253.092	-69.652	0.306	-0.116
-252.078	7.319	0.182	0.135
-251.063	175.669	-0.133	-0.192
-250.049	122.055	0.146	-0.181
-249.034	250.269	-0.091	-0.154
-248.019	800.000	-0.091	0.270
-247.005	4.116	-0.144	0.104
-245.990	660.942	-0.037	-0.095
-244.976	-91.053	-0.217	0.062
-243.961	339.248	0.248	0.480
-242.946	291.166	-0.082	-0.149
-241.932	-200.000	0.052	-0.271
-240.917	-57.181	-0.120	0.052
-239.903	-200.000	-0.024	-0.267
-238.888	-193.563	0.176	-0.001
-237.873	221.162	0.167	-0.265
-236.859	77.140	0.025	0.026
-235.844	-97.304	0.226	0.058
-234.830	188.011	0.144	0.214
-233.815	338.757	-0.144	-0.278
-232.800	800.000	-0.079	-0.335
-231.786	-180.912	0.136	0.003
-230.771	800.000	0.039	0.148
-229.757	46.470	0.108	0.100
-228.742	14.525	-0.305	-0.236
-227.727	-9.987	0.269	-0.177
-226.713	-3.207	-0.087	0.060
-225.698	-12.125	-0.225	-0.146
-224.684	116.337	0.152	-0.184
-223.669	-48.966	0.221	-0.105
-222.655	160.887	-0.205	0.283
-221.640	105.823	0.120	-0.141
-220.625	87.500	-0.181	0.198
-219.611	96.043	-0.240	0.272
-218.596	-200.000	-0.034	-0.412
-217.582	114.421	0.194	-0.234
-216.567	-16.991	-0.332	-0.208
-215.552	-200.000	-0.056	0.326
-214.538	-17.449	0.096	0.060
-213.523	93.530	0.035	-0.039
-212.509	-200.000	-0.000	0.135
-211.494	56.654	-0.277	0.267
-210.479	513.786	-0.106	0.245
-209.465	-200.000	0.006	-0.058
-208.450	21.874	0.199	-0.160
-207.436	76.571	0.164	0.173
-206.421	800.000	0.063	0.209
-205.406	800.000	0.011	0.048
-204.392	463.673	0.083	-0.183
-203.377	-118.711	0.163	0.028
-202.363	800.000	0.051	-0.209
-201.348	556.067	-0.092	-0.220
-200.333	-9.944	0.135	0.089
-199.319	-166.641	0.017	-0.001
-198.304	-130.138	0.113	-0.015
-197.290	163.224	-0.243	0.338
-196.275	30.647	-0.156	0.132
-195.260	-59.774	-0.191	0.081
-194.246	-200.000	0.001	0.043
-193.231	58.950	0.219	0.213
-192.217	-200.000	-0.028	0.128
-191.202	-200.000	0.018	0.088
-190.187	-200.000	0.008	-0.074
-189.173	225.347	-0.024	-0.038
-188.158	800.000	-0.115	-0.319
-187.144	92.862	0.119	-0.133
-186.129	46.277	0.239	0.219
-185.114	18.968	0.114	-0.091
-184.100	-193.201	-0.223	-0.002
-183.085	-26.721	0.320	-0.185
-182.071	800.000	-0.116	-0.316
-181.056	148.122	0.081	-0.109
-180.042	-107.416	0.135	0.029
-179.027	82.650	-0.107	-0.114
-178.012	-21.724	0.203	-0.122
-176.998	-70.818	0.218	0.081
-175.983	-27.903	0.167	0.096
-174.969	-75.294	-0.325	-0.115
-173.954	-122.904	0.103	-0.016
-172.939	-132.386	0.124	0.016
-171.925	-200.000	-0.044	-0.237
-170.910	-46.966	-0.237	0.114
-169.896	-138.603	-0.233	-0.025
-168.881	-194.123	0.115	0.001
-167.866	800.000	0.055	0.160
-166.852	-200.000	-0.038	0.383
-165.837	-21.676	0.257	0.155
-164.823	348.585	0.132	-0.257
-163.808	80.989	-0.109	0.117
-162.793	800.000	0.078	0.316
-161.779	-81.219	-0.114	0.037
-160.764	312.458	0.066	0.123
-159.750	94.948	-0.044	-0.050
-158.735	-200.000	0.014	-0.351
-157.720	-116.023	-0.355	-0.065
-156.706	-133.746	-0.241	0.030
-155.691	-200.000	-0.024	0.181
-154.677	-90.618	-0.108	0.031
-153.662	-96.710	0.352	-0.092
-152.647	-51.657	-0.342	0.158
-151.633	94.607	-0.126	0.141
-150.618	577.690	0.064	0.156
-149.604	-133.217	-0.399	0.050
-148.589	292.975	0.065	0.116
-147.574	-200.000	-0.007	0.077
-146.560	-168.989	0.557	-0.021
-145.545	95.193	0.157	-0.177
-144.531	-70.998	-0.266	-0.099
-143.516	170.091	0.097	-0.137
-142.502	800.000	0.119	0.363
-141.487	539.395	0.132	0.309
-140.472	-93.814	0.184	-0.050
-139.458	-37.078	-0.256	0.135
-138.443	52.088	-0.097	-0.091
-137.429	116.041	-0.159	-0.193
-136.414	15.217	-0.077	-0.059
-135.399	800.000	-0.056	-0.201
-134.385	-110.645	0.342	-0.070
-133.370	406.575	-0.104	0.218
-132.356	-200.000	-0.044	-0.268
-131.341	-89.824	-0.288	-0.083
-130.326	800.000	-0.043	0.130
-129.312	99.898	0.121	0.138
-128.297	-14.503	-0.159	0.101
-127.283	-75.383	-0.145	0.051
-126.268	-17.849	0.111	0.069
-125.253	772.867	0.170	-0.459
-124.239	-200.000	0.015	0.125
-123.224	-200.000	-0.020	0.215
-122.210	27.728	-0.259	0.215
-121.195	5.989	0.135	-0.099
-120.180	-200.000	0.045	0.235
-119.166	-8.926	0.273	0.181
-118.151	321.168	0.114	-0.215
-117.137	-163.134	0.128	-0.006
-116.122	-200.000	0.103	-0.471
-115.107	800.000	0.095	0.397
-114.093	800.000	0.087	-0.269
-113.078	-200.000	-0.009	-0.257
-112.064	15.055	-0.167	0.129
-111.049	-97.283	0.069	-0.018
-110.034	53.398	-0.111	-0.105
-109.020	39.082	-0.051	-0.045
-108.005	64.759	0.091	0.090
-106.991	43.786	0.367	0.332
-105.976	-9.654	0.185	0.122
-104.962	-19.640	0.169	-0.103
-103.947	-43.786	-0.127	-0.063
-102.932	-200.000	0.018	-0.325
-101.918	-81.831	-0.261	-0.084
-100.903	800.000	-0.117	0.477
-99.889	92.914	0.195	0.217
-98.874	-104.076	0.227	-0.052
-97.859	0.608	0.136	-0.096
-96.845	800.000	0.083	0.245
-95.830	-65.295	0.167	-0.066
-94.816	-200.000	-0.006	0.250
-93.801	11.596	0.130	-0.098
-92.786	-100.655	-0.594	-0.144
-91.772	551.358	0.117	-0.276
-90.757	93.599	-0.196	0.219
-89.743	626.207	-0.065	0.162
-88.728	-24.392	0.219	-0.128
-87.713	165.616	0.210	-0.293
-86.699	38.879	0.083	-0.073
-85.684	-27.650	0.155	0.089
-84.670	-147.426	0.276	0.023
-83.655	411.871	0.110	-0.229
-82.640	4.376	0.234	-0.169
-81.626	-200.000	0.032	0.166
-80.611	-200.000	0.008	0.271
-79.597	-58.134	-0.342	-0.147
-78.582	-177.571	0.030	0.001
-77.567	362.260	0.197	0.389
-76.553	-82.398	-0.399	0.128
-75.538	-200.000	0.026	-0.112
-74.524	-53.889	0.097	0.044
-73.509	-200.000	-0.075	0.639
-72.494	-99.400	-0.510	-0.126
-71.480	203.527	0.077	0.117
-70.465	106.823	0.185	-0.216
-69.451	1.577	-0.412	0.292
-68.436	136.728	-0.109	-0.140
-67.422	162.012	0.066	-0.091
-66.407	800.000	-0.074	-0.202
-65.392	-14.573	0.151	-0.095
-64.378	-137.540	0.460	-0.051
-63.363	-50.366	-0.214	-0.099
-62.349	187.272	0.114	0.167
-61.334	141.323	-0.781	-1.017
-60.319	84.086	0.464	0.499
-59.305	800.000	-0.386	-1.350
-58.290	402.152	0.572	1.183
-57.276	800.000	0.454	1.530
-56.261	-200.000	98.045	591.296
-55.246	521.078	1411.989	3259.035
-54.232	155.039	2594.653	3510.460
-53.217	110.958	2184.128	2586.939
-52.203	42.106	1714.662	1531.564
-51.188	34.394	1523.934	1308.471
-50.173	31.865	1497.499	1268.634
-49.159	51.601	1547.355	1447.045
-48.144	52.996	1564.600	1472.707
-47.130	34.599	1524.252	1309.946
-46.115	31.479	1509.433	1275.914
-45.100	31.276	1505.650	1271.283
-44.086	31.265	1503.763	1269.563
-43.071	31.137	1502.300	1267.407
-42.057	31.148	1500.524	1265.933
-41.042	31.129	1498.878	1264.368
-40.027	31.224	1497.609	1263.891
-39.013	31.126	1496.130	1261.925
-37.998	31.033	1495.145	1260.419
-36.984	31.052	1494.054	1259.579
-35.969	31.142	1492.415	1258.749
-34.954	31.093	1490.985	1257.164
-33.940	31.146	1489.424	1256.156
-32.925	31.133	1488.349	1255.110
-31.911	31.176	1486.830	1254.072
-30.896	31.262	1485.280	1253.292
-29.881	31.440	1483.894	1253.263
-28.867	31.330	1482.550	1251.344
-27.852	31.177	1481.250	1249.171
-26.838	31.218	1480.242	1248.546
-25.823	31.202	1478.874	1247.235
-24.809	31.128	1477.146	1245.233
-23.794	31.062	1475.566	1243.414
-22.779	31.138	1474.800	1243.225
-21.765	31.134	1473.148	1241.755
-20.750	31.104	1472.441	1240.916
-19.736	31.136	1471.158	1239.997
-18.721	31.100	1470.157	1238.864
-17.706	31.099	1468.718	1237.593
-16.692	31.171	1467.285	1236.816
-15.677	31.021	1466.957	1235.498
-14.663	31.060	1465.596	1234.561
-13.648	31.171	1464.223	1234.087
-12.633	31.075	1463.835	1233.077
-11.619	31.150	1462.710	1232.577
-10.604	31.063	1462.049	1231.394
-9.590	31.038	1461.475	1230.695
-8.575	30.996	1460.110	1229.225
-7.560	31.128	1458.884	1229.014
-6.546	31.131	1458.503	1228.660
-5.531	31.057	1457.958	1227.669
-4.517	31.026	1457.112	1226.704
-3.502	31.099	1455.099	1225.436
-2.487	31.074	1454.483	1224.706
-1.473	30.969	1453.621	1223.242
-0.458	31.068	1452.205	1222.652
0.556	29.843	1442.886	1213.356
1.571	27.051	1418.025	1174.321
2.586	23.718	1356.604	1102.702
3.600	21.829	1274.520	1024.858
4.615	20.526	1229.904	981.542
5.629	17.792	1173.993	922.080
6.644	9.081	1087.356	810.166
7.659	1.823	1045.586	743.650
8.673	0.607	1040.002	733.707
9.688	0.404	1037.181	730.672
10.702	0.292	1035.419	728.826
11.717	0.348	1033.676	727.800
12.731	3.141	1036.439	743.192
13.746	11.490	1048.185	792.199
14.761	17.431	1055.059	826.254
15.775	17.629	1054.363	826.596
16.790	16.830	1051.861	820.696
17.804	15.747	1049.852	813.818
18.819	14.766	1048.250	807.762
19.834	14.390	1046.823	804.775
20.848	14.115	1046.204	802.903
21.863	13.850	1044.789	800.468
22.877	13.598	1044.283	798.794
23.892	13.393	1043.671	797.265
24.907	13.266	1042.699	795.840
25.921	13.248	1041.958	795.119
26.936	13.423	1040.971	795.138
27.950	13.426	1040.400	794.644
28.965	13.372	1040.150	794.124
29.980	13.435	1038.556	793.139
30.994	13.583	1037.927	793.299
32.009	13.658	1037.120	792.971
33.023	13.725	1036.335	792.618
34.038	13.678	1035.568	791.739
35.053	13.587	1034.394	790.337
36.067	13.599	1033.605	789.720
37.082	13.497	1033.274	788.912
38.096	13.534	1032.607	788.509
39.111	13.574	1031.264	787.605
40.126	13.485	1030.563	786.576
41.140	13.466	1029.363	785.502
42.155	13.432	1028.718	784.776
43.169	13.419	1027.826	783.965
44.184	13.462	1026.451	783.050
45.199	13.291	1025.643	781.559
46.213	13.357	1024.665	781.056
47.228	13.290	1023.841	780.043
48.242	13.397	1022.641	779.561
49.257	13.427	1022.217	779.310
50.271	13.500	1020.804	778.509
51.286	13.589	1019.910	778.176
52.301	13.412	1019.463	776.933
53.315	13.533	1018.420	776.638
54.330	13.426	1018.140	775.854
55.344	13.499	1016.532	774.902
56.359	13.389	1015.810	773.768
57.374	13.392	1014.951	773.061
58.388	13.383	1013.955	772.191
59.403	13.308	1013.395	771.349
60.417	13.343	1012.778	770.972
61.432	13.408	1012.197	770.764
62.447	13.437	1011.036	769.945
63.461	13.277	1010.753	768.919
64.476	13.273	1009.443	767.836
65.490	13.230	1008.532	766.875
66.505	13.362	1007.579	766.697
67.520	13.387	1006.870	766.203
68.534	13.204	1006.291	764.848
69.549	13.294	1005.391	764.512
70.563	13.242	1004.815	763.769
71.578	13.322	1004.204	763.605
72.593	13.420	1002.347	762.577
73.607	13.337	1002.289	762.082
74.622	13.174	1001.475	760.647
75.636	13.293	1000.028	760.025
76.651	13.284	999.292	759.357
77.666	13.272	999.090	759.082
78.680	13.118	998.577	757.918
79.695	13.148	997.715	757.333
80.709	13.359	996.845	757.575
81.724	13.337	996.329	757.013
82.739	13.406	995.110	756.338
83.753	13.358	994.674	755.718
84.768	13.498	993.913	755.712
85.782	13.559	993.061	755.274
86.797	13.591	992.503	754.931
87.812	13.566	991.935	754.316
88.826	13.399	991.372	753.062
89.841	13.404	990.290	752.198
90.855	13.472	989.296	751.683
91.870	13.521	988.806	751.470
92.884	13.576	987.661	750.783
93.899	13.596	987.324	750.548
94.914	13.719	986.212	750.191
95.928	13.640	985.724	749.397
96.943	13.646	985.064	748.856
97.957	13.607	984.192	747.951
98.972	13.489	983.645	746.937
99.987	13.580	982.643	746.521
101.001	13.497	981.983	745.581
102.016	13.703	980.288	745.154
103.030	13.504	980.010	743.981
104.045	13.630	979.148	743.826
105.060	13.589	977.915	742.641
106.074	13.416	977.578	741.543
107.089	13.376	976.766	740.683
108.103	13.272	976.045	739.605
109.118	13.512	974.688	739.583
110.133	13.394	974.433	738.797
111.147	13.309	973.503	737.652
112.162	13.303	972.436	736.749
113.176	13.461	971.095	736.372
114.191	13.595	970.477	736.433
115.206	13.504	969.497	735.218
116.220	13.608	968.769	735.065
117.235	13.581	967.734	734.095
118.249	13.371	967.524	732.937
119.264	13.394	966.610	732.282
120.279	13.384	965.566	731.384
121.293	13.327	965.026	730.657
122.308	13.519	963.929	730.611
123.322	13.317	963.296	729.175
124.337	13.494	962.125	729.002
125.352	13.297	961.389	727.515
126.366	13.435	960.020	727.020
127.381	13.349	959.150	725.920
128.395	13.332	958.125	725.003
129.410	13.377	957.262	724.485
130.424	13.422	956.468	724.015
131.439	13.394	955.864	723.375
132.454	13.427	954.813	722.657
133.468	13.489	953.675	722.003
134.483	13.554	953.104	721.793
135.497	13.421	952.696	720.839
136.512	13.418	951.773	720.063
137.527	13.426	951.093	719.521
138.541	13.575	949.971	719.254
139.556	13.595	949.637	719.023
140.570	13.546	948.606	717.970
141.585	13.508	947.938	717.232
142.600	13.620	947.387	717.238
143.614	13.510	946.549	716.065
144.629	13.685	945.698	716.114
145.643	13.747	944.894	715.710
146.658	13.645	944.149	714.642
147.673	13.661	943.243	713.963
148.687	13.577	942.109	712.682
149.702	13.461	941.531	711.682
150.716	13.471	940.858	711.151
151.731	13.485	940.078	710.558
152.746	13.498	939.144	709.846
153.760	13.512	938.444	709.315
154.775	13.552	937.811	708.944
155.789	13.614	936.940	708.488
156.804	13.603	936.132	707.768
157.819	13.705	935.459	707.632
158.833	13.738	934.787	707.203
159.848	13.647	934.322	706.401
160.862	13.775	933.169	706.008
161.877	13.821	932.852	705.901
162.892	13.714	932.101	704.816
163.906	13.779	930.973	704.180
164.921	13.738	930.320	703.447
165.935	13.599	929.503	702.178
166.950	13.676	928.283	701.521
167.964	13.538	927.821	700.527
168.979	13.648	926.273	699.761
169.994	13.689	925.812	699.521
171.008	13.685	924.197	698.224
172.023	13.679	923.961	697.959
173.037	13.798	923.064	697.720
174.052	13.777	922.459	697.110
175.067	13.766	922.107	696.739
176.081	13.728	921.109	695.763
177.096	13.754	920.056	695.017
178.110	13.726	919.377	694.325
179.125	13.836	918.442	694.016
180.140	13.636	918.299	693.010
181.154	13.847	917.461	693.196
182.169	13.742	916.720	692.138
183.183	13.886	916.089	692.199
184.198	13.906	915.133	691.500
185.213	13.971	914.695	691.381
186.227	13.902	914.568	690.935
187.242	14.006	913.768	690.703
188.256	13.914	913.088	689.746
189.271	14.034	912.302	689.586
190.286	14.040	911.640	689.051
191.300	14.052	910.604	688.256
192.315	13.740	910.085	686.513
193.329	13.864	909.204	686.299
194.344	13.941	908.813	686.263
195.359	13.815	908.160	685.187
196.373	13.968	907.265	685.084
197.388	13.924	907.332	684.892
198.402	13.971	906.641	684.502
199.417	14.003	906.433	684.417
200.432	14.221	905.584	684.613
201.446	14.171	905.241	684.087
202.461	14.239	904.771	683.952
203.475	14.184	904.375	683.364
204.490	14.254	903.553	682.971
205.504	14.247	902.770	682.290
206.519	14.180	902.167	681.498
207.534	14.205	901.045	680.694
208.548	14.284	900.282	680.379
209.563	14.251	899.979	679.954
210.577	14.175	899.165	678.969
211.592	14.292	898.219	678.672
212.607	14.289	898.018	678.450
213.621	14.394	897.260	678.243
214.636	14.228	896.851	677.200
215.650	14.394	895.957	677.139
216.665	14.178	895.763	676.055
217.680	14.423	894.808	676.269
218.694	14.463	894.413	676.073
219.709	14.454	894.099	675.740
220.723	14.395	893.776	675.194
221.738	14.484	892.530	674.556
222.753	14.407	892.418	674.099
223.767	14.488	891.082	673.358
224.782	14.470	890.220	672.572
225.796	14.464	889.968	672.299
226.811	14.500	889.321	671.897
227.826	14.505	888.468	671.212
228.840	14.521	887.852	670.752
229.855	14.676	886.746	670.481
230.869	14.461	886.434	669.320
231.884	14.620	885.631	669.292
232.899	14.517	884.968	668.322
233.913	14.518	884.260	667.730
234.928	14.503	883.369	666.939
235.942	14.450	882.714	666.172
236.957	14.408	882.199	665.558
237.972	14.541	881.264	665.323
238.986	14.429	880.957	664.589
240.001	14.544	880.065	664.313
241.015	14.507	879.491	663.676
242.030	14.584	878.657	663.293
243.045	14.611	877.982	662.830
244.059	14.591	877.667	662.455
245.074	14.757	877.226	662.723
246.088	14.688	876.759	662.037
247.103	14.613	875.838	660.984
248.117	14.665	875.517	660.892
249.132	14.676	874.860	660.381
250.147	14.994	874.058	660.974
251.161	14.954	873.012	659.966
252.176	14.966	872.648	659.679
253.190	14.901	872.355	659.143
254.205	14.940	871.603	658.671
255.220	15.117	870.754	658.667
256.234	14.941	870.242	657.530
257.249	15.063	869.709	657.549
258.263	15.074	869.305	657.227
259.278	14.992	868.779	656.450
260.293	15.141	867.772	656.217
261.307	15.133	867.403	655.846
262.322	15.244	866.757	655.735
263.336	15.121	866.126	654.719
264.351	15.268	865.256	654.578
265.366	15.388	864.857	654.684
266.380	15.250	864.119	653.531
267.395	15.261	863.510	653.055
268.409	15.345	862.528	652.583
269.424	15.293	861.951	651.886
270.439	15.144	861.537	650.933
271.453	15.272	860.606	650.673
272.468	15.215	859.769	649.760
273.482	15.218	859.605	649.588
274.497	15.283	858.605	649.030
275.512	15.238	858.448	648.679
276.526	15.385	857.318	648.337
277.541	15.272	856.735	647.399
278.555	15.333	856.087	647.089
279.570	15.360	855.829	646.942
280.585	15.348	855.271	646.413
281.599	15.435	854.515	646.122
282.614	15.424	853.584	645.317
283.628	15.508	853.127	645.239
284.643	15.292	852.912	644.191
285.657	15.371	852.503	644.128
286.672	15.375	852.070	643.757
287.687	15.398	851.553	643.399
288.701	15.555	850.531	643.170
289.716	15.459	850.420	642.660
290.730	15.563	849.781	642.520
291.745	15.559	849.318	642.099
292.760	15.598	848.238	641.373
293.774	15.611	847.590	640.875
294.789	15.754	846.944	640.876
295.803	15.533	846.925	639.963
296.818	15.574	846.189	639.507
297.833	15.493	845.604	638.701
298.847	15.642	844.638	638.479
299.862	15.701	844.123	638.255
300.876	15.702	843.188	637.496
301.891	15.674	842.927	637.138
302.906	15.753	842.323	636.924
303.920	15.777	841.514	636.346
304.935	15.796	841.255	636.168
305.949	15.881	840.347	635.745
306.964	15.946	839.300	635.141
307.979	15.897	839.186	634.814
308.993	15.772	838.701	633.920
310.008	15.835	837.969	633.547
311.022	15.855	838.062	633.636
312.037	15.916	837.075	633.064
313.052	16.010	836.517	632.938
314.066	15.860	835.750	631.740
315.081	15.812	835.185	631.076
316.095	15.764	834.928	630.648
317.110	15.836	834.362	630.435
318.125	15.875	833.694	630.020
319.139	15.857	833.603	629.829
320.154	15.843	832.719	629.051
321.168	15.953	832.074	628.918
322.183	15.818	831.554	627.967
323.197	16.030	830.970	628.259
324.212	15.894	830.437	627.294
325.227	16.021	829.968	627.357
326.241	16.014	829.449	626.884
327.256	15.936	829.041	626.230
328.270	16.057	828.396	626.139
329.285	16.097	827.873	625.834
330.300	16.158	827.427	625.669
331.314	16.034	826.974	624.812
332.329	16.019	826.095	624.036
333.343	16.141	825.290	623.823
334.358	16.118	825.066	623.514
335.373	16.028	824.704	622.854
336.387	16.149	824.074	622.770
337.402	16.177	823.553	622.424
338.416	16.231	822.808	622.006
339.431	16.282	822.402	621.831
340.446	16.164	821.732	620.835
341.460	16.259	821.448	620.916
342.475	16.376	820.602	620.651
343.489	16.535	819.598	620.418
344.504	16.296	819.846	619.675
345.519	16.485	818.910	619.607
346.533	16.420	818.446	618.960
347.548	16.516	817.915	618.857
348.562	16.421	817.870	618.422
349.577	16.637	816.827	618.365
350.592	16.379	816.288	616.961
351.606	16.366	815.965	616.616
352.621	16.408	815.284	616.201
353.635	16.529	814.849	616.257
354.650	16.459	814.615	615.769
355.665	16.367	814.402	615.218
356.679	16.534	813.746	615.277
357.694	16.579	812.847	614.707
358.708	16.632	812.523	614.600
359.723	16.583	812.243	614.156
360.738	16.579	811.696	613.673
361.752	16.641	810.898	613.240
362.767	16.579	810.502	612.663
363.781	16.572	810.396	612.504
364.796	16.736	809.779	612.576
365.810	16.809	809.206	612.352
366.825	16.728	809.247	612.037
367.840	16.767	808.920	611.875
368.854	16.873	807.975	611.490
369.869	16.695	807.673	610.565
370.883	16.711	807.058	610.101
371.898	16.829	806.461	610.022
372.913	16.786	806.091	609.533
373.927	16.926	805.369	609.435
374.942	16.979	804.966	609.270
375.956	16.881	803.989	608.123
376.971	16.912	803.329	607.682
377.986	17.035	802.947	607.781
379.000	17.071	802.887	607.808
380.015	17.055	802.320	607.267
381.029	17.046	801.856	606.831
382.044	17.060	801.039	606.210
383.059	17.057	800.486	605.725
384.073	17.068	800.012	605.352
385.088	17.046	799.670	604.962
386.102	17.061	798.982	604.443
387.117	17.020	798.383	603.791
388.132	16.994	797.993	603.348
389.146	16.939	797.814	602.966
390.161	17.130	797.420	603.292
391.175	17.058	796.886	602.579
392.190	17.160	796.348	602.481
393.205	17.083	795.943	601.849
394.219	17.217	795.420	601.875
395.234	16.943	795.075	600.591
396.248	17.067	794.628	600.636
397.263	16.963	794.433	600.069
398.278	17.111	793.815	600.074
399.292	17.086	793.449	599.653
400.307	17.097	793.138	599.404
401.321	17.044	792.468	598.660
402.336	17.025	792.372	598.465
403.350	17.212	791.592	598.482
404.365	17.219	790.996	598.006
405.380	17.133	790.834	597.524
406.394	17.320	790.287	597.718
407.409	17.233	789.899	597.066
408.423	17.362	789.465	597.137
409.438	17.300	788.986	596.503
410.453	17.315	788.447	596.096
411.467	17.356	788.094	595.920
412.482	17.459	788.001	596.158
413.496	17.465	787.240	595.551
414.511	17.605	786.876	595.711
415.526	17.555	786.561	595.245
416.540	17.609	785.717	594.743
417.555	17.530	785.741	594.434
418.569	17.572	785.175	594.099
419.584	17.562	784.868	593.780
420.599	17.727	784.127	593.740
421.613	108.683	1286.516	1462.417
422.628	93.143	1359.697	1462.569
