DTS Sentinel unit serial number:	SN413079Multiplexer serial number:	ORYXHardware model number:	OX4-SRSoftware version number:	ORYX F/W v4.00 Oryx Data Collector v3.7.2.0data status	okinstallation	princeton_trtdifferential loss correction	single-endedforward channel	channel 3reverse channel	N/Adate	2019/09/12time	00:50:11forward acquisition time	60.00reverse acquisition time	0.00gamma	496.2192k internal	0.2319k external	0.2319temperature offset calibration	1.0066default loss term (dB/km)	0.3790temperature slope calibration	1.0000multiplexer offset coefficient	1.0000multiplexer slope coefficient	1.0000fibre end	0.00T internal ref (°C)	33.25T ext. ref 1 (°C)	2.09T ext. ref 2 (°C)	27.93length (m)	temperature (°C)	Stokes	anti-Stokes-747.200	800.000	-0.076	0.282
-746.185	-200.000	-0.049	-0.280
-745.171	191.870	-0.141	0.215
-744.156	-95.082	-0.264	0.072
-743.142	-35.559	0.284	-0.156
-742.127	-154.939	0.007	0.000
-741.112	-138.926	-0.287	-0.032
-740.098	-200.000	-0.008	0.153
-739.083	172.072	0.120	0.174
-738.069	-116.194	-0.104	-0.020
-737.054	55.940	-0.273	-0.268
-736.039	-143.061	-0.372	-0.036
-735.025	157.931	-0.057	-0.081
-734.010	-129.562	-0.358	0.050
-732.996	6.977	0.315	-0.237
-731.981	-200.000	0.004	-0.112
-730.966	-200.000	0.001	-0.218
-729.952	151.092	0.197	-0.272
-728.937	-200.000	0.024	-0.310
-727.923	70.763	-0.069	-0.073
-726.908	800.000	-0.039	0.163
-725.894	-71.920	0.134	-0.050
-724.879	521.591	0.064	-0.151
-723.864	-53.692	-0.150	-0.069
-722.850	-200.000	-0.009	-0.176
-721.835	-193.558	0.167	-0.001
-720.821	-200.000	0.023	0.158
-719.806	73.414	-0.143	-0.151
-718.791	9.416	-0.315	0.241
-717.777	800.000	0.035	0.130
-716.762	800.000	0.169	0.476
-715.748	-125.984	-0.376	0.057
-714.733	-138.483	-0.156	0.017
-713.718	800.000	-0.068	0.198
-712.704	94.252	-0.235	-0.270
-711.689	-83.648	-0.181	-0.059
-710.675	279.176	-0.092	-0.166
-709.660	50.882	0.095	-0.091
-708.645	-200.000	0.003	0.143
-707.631	-96.095	-0.093	-0.025
-706.616	-200.000	0.006	-0.059
-705.602	-200.000	0.009	-0.146
-704.587	-153.145	-0.359	-0.025
-703.572	438.204	0.079	0.174
-702.558	-25.484	-0.158	0.094
-701.543	-200.000	-0.049	-0.339
-700.529	800.000	0.051	-0.190
-699.514	-200.000	0.010	-0.247
-698.499	-200.000	0.019	-0.158
-697.485	800.000	0.075	-0.226
-696.470	-95.809	-0.409	0.110
-695.456	8.981	-0.217	-0.166
-694.441	9.008	0.266	0.203
-693.426	118.662	0.261	-0.325
-692.412	-200.000	-0.046	0.331
-691.397	-104.051	-0.180	-0.042
-690.383	-73.326	0.314	0.116
-689.368	800.000	-0.117	0.355
-688.354	-200.000	0.000	-0.417
-687.339	-70.162	-0.099	0.038
-686.324	-200.000	0.039	-0.343
-685.310	759.177	0.053	0.144
-684.295	-200.000	-0.009	0.165
-683.281	-84.617	-0.301	0.096
-682.266	146.299	-0.125	0.169
-681.251	71.700	0.298	0.312
-680.237	-200.000	0.003	-0.121
-679.222	-61.274	-0.266	0.113
-678.208	73.739	0.081	-0.086
-677.193	-200.000	-0.027	-0.143
-676.178	206.339	-0.217	0.340
-675.164	-174.729	0.121	0.003
-674.149	37.323	-0.113	-0.101
-673.135	-101.826	-0.089	0.022
-672.120	-118.014	0.253	0.046
-671.105	-200.000	0.026	0.187
-670.091	365.122	-0.035	-0.071
-669.076	-79.076	0.383	-0.131
-668.062	-87.232	0.164	-0.050
-667.047	-41.987	-0.400	0.206
-666.032	106.174	0.070	-0.084
-665.018	-129.353	-0.178	-0.025
-664.003	27.182	0.197	-0.167
-662.989	-58.718	-0.413	-0.180
-661.974	800.000	-0.007	0.021
-660.959	-120.485	-0.305	-0.052
-659.945	-91.573	-0.413	-0.119
-658.930	-200.000	-0.018	0.137
-657.916	-66.559	0.245	0.098
-656.901	-155.490	0.389	-0.025
-655.886	78.321	-0.036	-0.039
-654.872	59.050	0.238	0.236
-653.857	800.000	0.053	0.235
-652.843	166.734	-0.020	0.029
-651.828	-112.913	0.125	0.025
-650.814	-11.988	-0.142	0.094
-649.799	-3.973	-0.393	-0.275
-648.784	198.966	-0.127	0.197
-647.770	-31.652	0.255	0.144
-646.755	75.489	0.148	-0.157
-645.741	-89.239	0.107	-0.032
-644.726	-165.416	0.135	0.006
-643.711	-131.406	-0.173	0.023
-642.697	800.000	-0.023	-0.073
-641.682	-56.211	-0.171	-0.077
-640.668	800.000	0.072	-0.269
-639.653	-124.224	0.390	-0.062
-638.638	765.992	-0.119	-0.327
-637.624	800.000	0.091	0.270
-636.609	-153.710	0.064	-0.004
-635.595	800.000	0.094	-0.380
-634.580	-200.000	0.010	-0.138
-633.565	332.616	-0.026	-0.051
-632.551	-19.887	0.060	-0.037
-631.536	39.399	-0.092	-0.083
-630.522	399.309	0.104	-0.221
-629.507	-200.000	0.044	0.265
-628.492	800.000	-0.041	0.128
-627.478	136.587	-0.274	-0.360
-626.463	-200.000	-0.007	-0.198
-625.449	-56.528	0.067	0.030
-624.434	375.737	-0.028	0.059
-623.419	-104.396	0.227	-0.053
-622.405	588.468	0.111	0.275
-621.390	120.863	-0.273	-0.342
-620.376	106.293	0.197	-0.234
-619.361	800.000	0.068	0.228
-618.346	208.447	0.209	0.328
-617.332	47.978	-0.112	-0.105
-616.317	-110.988	0.186	-0.039
-615.303	306.316	0.132	0.247
-614.288	-3.456	-0.443	0.310
-613.273	-64.635	0.216	-0.088
-612.259	-116.513	-0.083	0.015
-611.244	598.432	0.053	0.132
-610.230	-155.511	0.351	-0.023
-609.215	205.558	-0.118	0.185
-608.201	-81.403	-0.235	-0.078
-607.186	148.012	0.114	0.155
-606.171	-14.020	0.089	0.058
-605.157	800.000	-0.152	-0.436
-604.142	-54.715	-0.074	-0.034
-603.128	-17.562	0.388	0.245
-602.113	-120.383	-0.260	0.045
-601.098	-18.129	-0.303	0.191
-600.084	23.386	0.276	-0.228
-599.069	-200.000	-0.018	0.372
-598.055	-98.165	0.125	-0.032
-597.040	299.833	0.113	0.210
-596.025	-60.774	0.040	-0.017
-595.011	800.000	-0.042	0.140
-593.996	-84.303	0.235	-0.075
-592.982	-200.000	0.012	-0.086
-591.967	-200.000	0.045	-0.403
-590.952	-200.000	0.008	-0.137
-589.938	-200.000	-0.009	-0.166
-588.923	106.342	-0.174	-0.207
-587.909	-99.767	-0.198	0.050
-586.894	-56.797	-0.134	0.060
-585.879	800.000	-0.084	0.270
-584.865	-200.000	-0.061	-0.271
-583.850	32.805	-0.085	0.074
-582.836	-167.694	0.259	-0.010
-581.821	80.140	0.054	-0.059
-580.806	308.720	-0.077	0.145
-579.792	-8.924	0.199	0.134
-578.777	-45.774	-0.229	-0.114
-577.763	280.785	0.084	-0.151
-576.748	635.582	0.096	0.244
-575.733	-22.420	0.119	-0.073
-574.719	-26.014	-0.294	0.174
-573.704	-91.433	0.476	0.137
-572.690	-77.007	0.326	0.115
-571.675	55.381	-0.194	-0.189
-570.661	-107.305	0.366	0.081
-569.646	-90.178	-0.325	0.095
-568.631	800.000	-0.056	0.170
-567.617	-79.189	0.121	0.041
-566.602	771.020	0.076	-0.208
-565.588	-200.000	0.022	-0.234
-564.573	-104.488	0.127	0.030
-563.558	-42.585	0.161	0.082
-562.544	73.161	0.143	-0.150
-561.529	515.013	-0.144	-0.337
-560.515	-145.000	-0.143	0.013
-559.500	-126.194	-0.230	0.035
-558.485	296.631	-0.187	-0.344
-557.471	800.000	0.107	-0.299
-556.456	59.641	0.121	-0.120
-555.442	479.337	-0.022	0.051
-554.427	109.818	0.303	0.365
-553.412	421.123	-0.167	-0.359
-552.398	-10.380	-0.264	-0.176
-551.383	-21.486	0.335	0.205
-550.369	-86.210	-0.219	-0.068
-549.354	-200.000	0.031	-0.160
-548.339	190.994	-0.099	0.150
-547.325	-126.934	-0.384	0.057
-546.310	654.494	-0.085	-0.219
-545.296	-16.506	0.060	0.038
-544.281	-200.000	0.014	-0.074
-543.266	-72.444	-0.156	0.058
-542.252	-53.611	0.130	-0.060
-541.237	193.959	0.147	-0.224
-540.223	-200.000	0.027	-0.128
-539.208	470.071	-0.038	-0.085
-538.193	-200.000	0.000	-0.015
-537.179	-102.671	0.182	-0.043
-536.164	-200.000	0.023	0.162
-535.150	-53.560	-0.077	-0.035
-534.135	-129.296	-0.063	0.009
-533.121	-6.735	-0.227	0.155
-532.106	59.354	0.162	0.160
-531.091	313.948	0.177	-0.334
-530.077	-28.990	-0.213	-0.123
-529.062	51.290	-0.103	-0.099
-528.048	84.799	0.323	-0.355
-527.033	47.496	0.110	0.103
-526.018	-69.675	0.329	-0.126
-525.004	-74.985	0.071	-0.025
-523.989	568.338	-0.101	-0.245
-522.975	44.138	-0.065	-0.060
-521.960	-37.670	-0.197	0.105
-520.945	-26.069	-0.336	-0.198
-519.931	-12.801	0.378	-0.247
-518.916	-96.757	0.167	0.044
-517.902	800.000	-0.040	0.113
-516.887	-200.000	0.027	-0.317
-515.872	800.000	-0.025	-0.092
-514.858	178.145	0.159	-0.232
-513.843	-128.973	-0.167	-0.024
-512.829	12.647	0.284	-0.220
-511.814	-144.514	-0.140	-0.013
-510.799	800.000	0.128	-0.364
-509.785	670.046	-0.019	0.050
-508.770	-123.710	-0.078	-0.012
-507.756	-200.000	-0.016	0.212
-506.741	800.000	-0.039	-0.132
-505.726	-49.811	0.143	-0.068
-504.712	36.574	-0.162	0.143
-503.697	-16.284	-0.205	0.130
-502.683	6.714	0.310	0.232
-501.668	376.279	0.064	-0.131
-500.653	-55.811	-0.041	0.018
-499.639	92.983	-0.090	0.102
-498.624	-81.777	0.167	0.055
-497.610	13.822	-0.255	-0.199
-496.595	-164.725	-0.280	0.013
-495.581	800.000	-0.017	-0.066
-494.566	276.296	0.116	0.207
-493.551	509.307	0.064	-0.150
-492.537	-58.974	0.204	-0.088
-491.522	49.345	0.081	0.076
-490.508	19.712	-0.176	-0.142
-489.493	800.000	0.080	-0.245
-488.478	-95.471	0.153	0.041
-487.464	-59.500	-0.327	-0.140
-486.449	-113.089	0.296	-0.058
-485.435	-72.824	0.145	-0.054
-484.420	710.329	-0.114	-0.302
-483.405	-105.299	0.174	0.040
-482.391	-7.801	0.042	-0.029
-481.376	-114.251	-0.151	-0.029
-480.362	800.000	-0.072	0.209
-479.347	4.987	0.156	0.115
-478.332	-123.819	0.197	0.031
-477.318	155.573	0.024	-0.034
-476.303	-70.270	0.296	0.113
-475.289	456.172	0.069	-0.154
-474.274	-66.065	0.238	-0.095
-473.259	-36.612	-0.155	-0.083
-472.245	416.854	0.078	-0.166
-471.230	-200.000	-0.003	0.103
-470.216	-132.713	0.229	-0.029
-469.201	-19.649	0.231	-0.143
-468.186	800.000	-0.045	-0.145
-467.172	-103.335	0.207	-0.049
-466.157	-26.149	-0.213	-0.126
-465.143	-69.725	0.362	-0.138
-464.128	-120.291	-0.453	0.077
-463.113	-46.329	-0.165	-0.081
-462.099	-17.925	0.047	0.030
-461.084	92.516	-0.194	-0.219
-460.070	102.889	0.070	-0.082
-459.055	-200.000	-0.370	0.002
-458.040	800.000	-0.102	0.290
-457.026	-34.865	-0.189	0.103
-456.011	-200.000	0.015	-0.139
-454.997	-63.487	0.234	-0.096
-453.982	-130.315	0.153	0.021
-452.968	-141.664	0.207	-0.021
-451.953	181.020	-0.266	-0.391
-450.938	-171.381	0.051	-0.002
-449.924	398.126	0.182	-0.381
-448.909	-1.010	0.252	0.178
-447.895	95.090	-0.074	-0.084
-446.880	-35.347	-0.137	-0.075
-445.865	114.572	0.215	-0.262
-444.851	15.774	-0.208	-0.163
-443.836	-68.661	-0.188	0.073
-442.822	-99.765	0.259	-0.065
-441.807	-105.145	0.083	0.019
-440.792	-146.994	-0.106	0.009
-439.778	-200.000	0.014	0.067
-438.763	412.900	-0.150	-0.318
-437.749	-85.915	0.119	-0.037
-436.734	-16.505	0.061	-0.038
-435.719	280.291	-0.128	0.229
-434.705	-27.916	0.222	0.128
-433.690	-130.199	-0.366	-0.050
-432.676	-130.755	-0.370	0.050
-431.661	-141.771	-0.472	-0.047
-430.646	1.087	0.193	0.138
-429.632	150.537	0.123	-0.167
-428.617	-7.615	-0.149	-0.101
-427.603	-131.668	-0.206	-0.027
-426.588	-200.000	-0.022	-0.102
-425.573	72.046	0.077	-0.080
-424.559	-131.940	-0.152	0.020
-423.544	375.643	0.109	-0.222
-422.530	-200.000	0.001	0.103
-421.515	-9.592	0.174	-0.116
-420.500	714.223	-0.077	0.205
-419.486	-165.940	-0.305	-0.013
-418.471	14.612	-0.034	0.027
-417.457	-83.656	-0.206	0.066
-416.442	137.759	-0.331	0.434
-415.428	116.335	-0.115	0.140
-414.413	13.153	-0.112	-0.087
-413.398	415.504	0.079	0.169
-412.384	-118.541	0.331	0.058
-411.369	0.476	0.239	0.171
-410.355	618.029	0.109	0.273
-409.340	-93.335	-0.263	0.073
-408.325	196.930	-0.161	-0.245
-407.311	-181.007	-0.050	-0.001
-406.296	0.096	0.236	-0.168
-405.282	-90.603	0.251	0.072
-404.267	-122.527	-0.017	-0.003
-403.252	-21.936	-0.325	0.197
-402.238	-75.571	-0.216	0.077
-401.223	24.832	0.276	-0.229
-400.209	658.373	0.122	-0.312
-399.194	-200.000	0.015	-0.429
-398.179	800.000	-0.072	-0.199
-397.165	500.733	0.149	0.343
-396.150	800.000	-0.023	0.083
-395.136	-200.000	-0.039	0.204
-394.121	-16.758	0.205	0.129
-393.106	-200.000	-0.018	0.468
-392.092	640.440	-0.013	0.032
-391.077	-55.777	0.243	-0.108
-390.063	-171.994	-0.525	0.017
-389.048	800.000	0.065	0.195
-388.033	-135.276	0.034	0.004
-387.019	-183.310	0.338	-0.006
-386.004	70.938	0.166	0.171
-384.990	-116.341	0.493	0.091
-383.975	800.000	0.108	0.337
-382.960	-36.590	-0.060	-0.032
-381.946	800.000	-0.066	0.215
-380.931	-200.000	0.029	0.321
-379.917	145.272	-0.041	-0.054
-378.902	135.274	-0.033	-0.043
-377.888	-200.000	-0.071	-0.343
-376.873	-200.000	0.030	-0.195
-375.858	1.706	0.427	0.307
-374.844	320.799	-0.020	-0.038
-373.829	-102.529	-0.090	-0.021
-372.815	354.778	-0.048	0.095
-371.800	800.000	-0.022	0.092
-370.785	66.471	-0.266	0.269
-369.771	-200.000	0.031	0.154
-368.756	-30.411	0.198	0.112
-367.742	-200.000	0.028	0.179
-366.727	97.635	-0.316	0.362
-365.712	-40.430	-0.285	-0.148
-364.698	34.932	0.037	0.032
-363.683	69.256	0.044	-0.045
-362.669	329.779	-0.092	0.176
-361.654	47.888	0.178	0.165
-360.639	94.663	-0.326	0.369
-359.625	-111.021	-0.106	0.022
-358.610	800.000	-0.106	-0.296
-357.596	42.575	-0.286	-0.260
-356.581	-200.000	0.012	-0.321
-355.566	-85.182	0.266	0.083
-354.552	-120.297	-0.413	0.070
-353.537	-42.926	-0.139	-0.070
-352.523	-200.000	0.045	0.246
-351.508	242.183	-0.160	0.266
-350.493	-200.000	-0.001	-0.149
-349.479	-200.000	-0.059	-0.396
-348.464	-102.269	0.229	0.055
-347.450	604.715	0.094	-0.233
-346.435	0.213	0.115	0.082
-345.420	8.765	-0.089	-0.067
-344.406	-25.345	0.163	-0.096
-343.391	-127.122	0.128	0.019
-342.377	800.000	0.091	-0.304
-341.362	800.000	-0.101	0.395
-340.348	-23.818	-0.238	0.142
-339.333	650.883	-0.192	-0.490
-338.318	-128.585	0.479	0.068
-337.304	202.566	0.038	0.058
-336.289	-152.822	0.093	0.007
-335.275	237.014	-0.129	-0.213
-334.260	-77.321	0.255	-0.088
-333.245	39.108	0.144	-0.128
-332.231	-77.487	-0.191	0.066
-331.216	310.771	0.051	0.095
-330.202	3.199	0.084	-0.061
-329.187	800.000	-0.034	-0.098
-328.172	-116.255	-0.234	0.043
-327.158	-200.000	0.056	0.475
-326.143	0.645	-0.195	0.139
-325.129	259.207	-0.017	-0.029
-324.114	-200.000	0.008	0.085
-323.099	277.897	-0.043	-0.077
-322.085	27.940	-0.056	-0.047
-321.070	58.576	-0.249	-0.243
-320.056	-92.568	-0.077	-0.022
-319.041	-33.131	-0.272	-0.150
-318.026	-59.542	-0.189	0.081
-317.012	143.205	-0.204	0.270
-315.997	-94.574	-0.113	-0.031
-314.983	-175.022	0.308	0.009
-313.968	-18.018	-0.186	-0.116
-312.953	37.006	-0.203	0.178
-311.939	-61.388	-0.140	-0.058
-310.924	800.000	0.083	0.264
-309.910	80.787	-0.102	-0.109
-308.895	199.526	0.050	-0.076
-307.880	62.582	0.234	-0.232
-306.866	-54.857	-0.160	0.072
-305.851	-67.539	0.087	-0.034
-304.837	800.000	0.064	0.204
-303.822	-101.111	0.201	-0.049
-302.807	-130.591	0.191	-0.026
-301.793	92.710	0.097	0.109
-300.778	42.739	-0.098	-0.089
-299.764	-200.000	-0.002	0.042
-298.749	-43.939	-0.263	-0.132
-297.735	75.245	-0.094	-0.099
-296.720	137.763	0.176	0.229
-295.705	-82.238	0.217	-0.070
-294.691	-106.749	0.064	-0.014
-293.676	27.320	0.233	0.195
-292.662	122.019	-0.098	0.121
-291.647	-200.000	0.004	0.029
-290.632	-200.000	0.022	0.149
-289.618	-78.914	0.080	-0.027
-288.603	800.000	0.011	-0.032
-287.589	124.757	-0.124	-0.155
-286.574	54.128	0.073	0.069
-285.559	319.510	-0.032	-0.061
-284.545	800.000	-0.060	0.235
-283.530	295.721	0.045	-0.082
-282.516	47.284	0.234	0.216
-281.501	-200.000	0.000	-0.041
-280.486	-29.885	-0.485	-0.275
-279.472	-167.810	0.289	0.011
-278.457	-176.607	-0.265	0.007
-277.443	-107.206	-0.235	0.051
-276.428	18.332	0.322	0.255
-275.413	165.903	0.135	0.189
-274.399	-200.000	0.027	0.130
-273.384	-200.000	0.040	0.253
-272.370	55.322	0.203	0.195
-271.355	-39.607	-0.311	0.162
-270.340	-112.116	-0.162	0.032
-269.326	90.101	-0.135	0.150
-268.311	487.595	-0.138	0.314
-267.297	-145.222	0.325	0.029
-266.282	358.345	-0.058	0.114
-265.267	-82.094	0.148	-0.048
-264.253	-184.203	-0.149	0.002
-263.238	-200.000	0.020	0.150
-262.224	-92.750	0.105	-0.029
-261.209	-41.244	-0.097	-0.050
-260.195	-56.738	0.128	-0.056
-259.180	-200.000	0.023	0.106
-258.165	480.379	-0.067	0.151
-257.151	7.147	0.272	0.201
-256.136	-82.088	-0.204	0.066
-255.122	-49.991	-0.198	-0.093
-254.107	-200.000	-0.004	0.088
-253.092	206.706	-0.089	0.138
-252.078	239.875	0.100	-0.166
-251.063	270.962	0.071	0.124
-250.049	8.713	0.299	-0.224
-249.034	39.888	0.043	-0.038
-248.019	-200.000	0.006	0.077
-247.005	-131.835	-0.415	-0.054
-245.990	-39.408	0.113	0.059
-244.976	679.171	-0.050	0.128
-243.961	800.000	0.046	0.158
-242.946	-139.494	-0.225	0.024
-241.932	-67.260	-0.289	-0.113
-240.917	-200.000	0.013	0.069
-239.903	-200.000	0.007	0.102
-238.888	-200.000	-0.005	-0.035
-237.873	-200.000	0.000	0.004
-236.859	-38.772	0.101	-0.053
-235.844	378.023	0.107	-0.218
-234.830	14.311	-0.382	0.296
-233.815	-38.902	0.459	-0.240
-232.800	-200.000	0.037	0.192
-231.786	230.382	0.116	0.188
-230.771	-77.811	0.098	-0.034
-229.757	-126.476	0.159	-0.023
-228.742	-58.693	-0.217	-0.093
-227.727	35.380	0.091	-0.079
-226.713	268.750	-0.029	0.050
-225.698	-19.943	0.134	-0.082
-224.684	-200.000	-0.026	0.219
-223.669	-159.452	-0.144	-0.008
-222.655	123.626	-0.278	0.346
-221.640	-200.000	-0.001	0.150
-220.625	158.965	0.218	-0.300
-219.611	-200.000	0.003	-0.121
-218.596	800.000	0.008	-0.029
-217.582	-1.470	0.135	-0.094
-216.567	330.413	0.213	0.406
-215.552	72.979	-0.056	0.058
-214.538	-114.175	-0.233	0.045
-213.523	-5.332	0.047	0.032
-212.509	-69.094	-0.109	0.042
-211.494	-200.000	0.019	0.119
-210.479	-21.207	0.396	0.240
-209.465	-54.006	0.302	-0.136
-208.450	216.362	0.094	0.148
-207.436	-200.000	-0.017	-0.143
-206.421	-54.712	0.078	0.035
-205.406	-52.029	0.030	-0.014
-204.392	800.000	-0.048	-0.164
-203.377	-49.202	0.100	0.048
-202.363	-200.000	0.056	0.338
-201.348	800.000	0.087	-0.243
-200.333	-71.842	-0.333	-0.123
-199.319	-200.000	-0.068	-0.326
-198.304	474.771	-0.119	0.267
-197.290	-146.932	-0.083	0.007
-196.275	141.923	-0.240	-0.316
-195.260	-68.923	0.407	0.156
-194.246	278.735	-0.127	-0.225
-193.231	-169.662	-0.242	-0.009
-192.217	800.000	0.125	0.498
-191.202	-54.734	0.149	-0.067
-190.187	41.685	-0.188	0.169
-189.173	173.437	0.184	-0.262
-188.158	-200.000	-0.011	0.171
-187.144	-69.901	0.204	0.077
-186.129	800.000	0.039	-0.122
-185.114	51.492	-0.044	-0.041
-184.100	201.795	-0.126	-0.193
-183.085	159.889	-0.229	0.316
-182.071	-78.638	-0.125	-0.042
-181.056	-58.104	-0.223	-0.096
-180.042	560.459	-0.085	0.204
-179.027	304.898	0.039	0.071
-178.012	522.521	0.098	-0.228
-176.998	-200.000	0.001	-0.189
-175.983	800.000	-0.095	0.301
-174.969	-200.000	0.004	-0.097
-173.954	-44.243	-0.083	-0.041
-172.939	65.736	-0.086	0.086
-171.925	30.865	-0.068	-0.058
-170.910	-130.455	0.205	-0.027
-169.896	-200.000	-0.043	0.229
-168.881	114.286	0.288	0.347
-167.866	-0.471	-0.190	0.134
-166.852	183.297	-0.170	0.248
-165.837	23.902	0.053	0.043
-164.823	-120.721	-0.155	0.026
-163.808	-200.000	0.011	0.184
-162.793	800.000	-0.053	-0.224
-161.779	422.594	-0.134	-0.285
-160.764	-200.000	0.061	0.323
-159.750	-200.000	0.040	-0.313
-158.735	-185.557	0.114	-0.002
-157.720	-6.815	0.209	-0.141
-156.706	-148.604	-0.351	0.028
-155.691	-200.000	-0.053	0.369
-154.677	704.556	-0.157	0.410
-153.662	-33.770	-0.195	-0.107
-152.647	559.618	-0.149	-0.355
-151.633	-66.008	0.187	0.074
-150.618	-117.702	0.274	-0.049
-149.604	541.994	-0.118	0.278
-148.589	-119.641	0.222	-0.038
-147.574	340.114	-0.064	0.122
-146.560	177.580	-0.035	0.050
-145.545	64.218	-0.138	0.137
-144.531	-128.005	-0.177	-0.025
-143.516	49.450	0.142	0.132
-142.502	29.403	0.241	-0.203
-141.487	333.294	-0.131	-0.250
-140.472	6.815	-0.154	0.113
-139.458	-151.634	-0.118	0.009
-138.443	800.000	0.055	0.232
-137.429	35.478	-0.031	-0.027
-136.414	-200.000	-0.005	-0.043
-135.399	-81.668	-0.073	0.024
-134.385	-103.858	0.641	0.148
-133.370	-133.677	0.202	-0.025
-132.356	119.665	-0.115	-0.141
-131.341	-71.074	0.129	-0.048
-130.326	-47.389	-0.122	0.059
-129.312	30.157	0.263	0.222
-128.297	-162.076	-0.471	0.023
-127.283	-57.157	0.076	0.033
-126.268	-24.920	0.294	0.173
-125.253	-44.174	0.256	-0.127
-124.239	800.000	-0.080	-0.219
-123.224	-189.456	0.209	0.002
-122.210	428.229	0.137	-0.292
-121.195	156.403	-0.082	0.112
-120.180	13.860	-0.154	0.118
-119.166	10.492	0.435	-0.327
-118.151	-5.301	-0.304	0.206
-117.137	-72.687	-0.365	0.133
-116.122	-200.000	0.026	-0.179
-115.107	-96.595	0.237	0.062
-114.093	176.684	0.162	0.232
-113.078	800.000	0.061	0.229
-112.064	33.462	0.074	0.064
-111.049	225.719	0.105	-0.167
-110.034	800.000	0.012	-0.040
-109.020	104.824	0.026	0.031
-108.005	615.564	-0.141	0.350
-106.991	-96.548	-0.258	-0.067
-105.976	695.041	-0.142	0.369
-104.962	178.919	0.036	-0.052
-103.947	-135.213	0.093	-0.011
-102.932	71.779	0.260	0.266
-101.918	572.803	0.072	-0.174
-100.903	55.968	0.083	0.079
-99.889	129.259	-0.203	-0.256
-98.874	97.977	0.070	-0.079
-97.859	800.000	-0.121	-0.378
-96.845	240.220	0.048	0.079
-95.830	800.000	-0.054	-0.233
-94.816	107.852	0.077	-0.090
-93.801	255.959	-0.126	0.213
-92.786	-200.000	0.041	-0.193
-91.772	27.532	0.369	-0.306
-90.757	202.491	-0.052	-0.080
-89.743	-102.651	0.220	0.052
-88.728	780.894	-0.142	-0.384
-87.713	-200.000	0.018	0.271
-86.699	3.986	0.120	0.086
-85.684	-200.000	0.017	0.279
-84.670	22.170	-0.322	-0.259
-83.655	307.975	0.066	0.121
-82.640	-200.000	0.055	0.255
-81.626	-84.767	0.220	-0.068
-80.611	-87.553	-0.106	0.031
-79.597	13.288	0.064	-0.049
-78.582	-77.537	0.050	0.017
-77.567	437.734	-0.150	0.322
-76.553	357.734	0.130	0.256
-75.538	-53.788	-0.204	-0.092
-74.524	131.958	0.193	-0.245
-73.509	-36.245	0.154	0.082
-72.494	-189.987	0.266	-0.003
-71.480	-200.000	-0.052	0.228
-70.465	-176.696	0.352	-0.009
-69.451	5.112	-0.069	-0.050
-68.436	-200.000	-0.028	-0.134
-67.422	-200.000	-0.015	0.430
-66.407	-26.280	0.224	0.129
-65.392	-200.000	0.016	0.133
-64.378	337.212	-0.114	0.219
-63.363	98.671	0.061	0.070
-62.349	800.000	0.045	0.180
-61.334	18.075	-1.151	-0.904
-60.319	159.268	0.216	0.296
-59.305	733.223	-0.302	-0.796
-58.290	283.491	0.663	1.173
-57.276	329.579	0.750	1.421
-56.261	-200.000	96.326	579.652
-55.246	548.692	1386.827	3272.149
-54.232	157.628	2567.640	3501.711
-53.217	112.003	2166.384	2577.523
-52.203	43.602	1708.784	1539.249
-51.188	36.473	1521.300	1321.765
-50.173	34.047	1495.174	1282.677
-49.159	53.186	1543.447	1455.602
-48.144	55.256	1561.788	1487.028
-47.130	36.606	1520.717	1321.959
-46.115	33.555	1505.862	1288.297
-45.100	33.293	1503.019	1284.034
-44.086	33.227	1501.388	1282.148
-43.071	33.303	1498.927	1280.504
-42.057	33.305	1497.660	1279.387
-41.042	33.282	1496.187	1277.924
-40.027	33.393	1494.597	1277.264
-39.013	33.262	1493.541	1275.429
-37.998	33.143	1492.460	1273.653
-36.984	33.273	1491.161	1273.369
-35.969	33.232	1490.192	1272.213
-34.954	33.316	1488.436	1271.230
-33.940	33.304	1486.961	1269.839
-32.925	33.331	1485.495	1268.714
-31.911	33.384	1483.896	1267.655
-30.896	33.342	1483.063	1266.612
-29.881	33.317	1481.415	1264.987
-28.867	33.274	1480.224	1263.631
-27.852	33.298	1478.642	1262.389
-26.838	33.347	1477.439	1261.639
-25.823	33.311	1476.034	1260.150
-24.809	33.156	1474.541	1257.794
-23.794	33.233	1473.065	1257.001
-22.779	33.359	1471.173	1256.168
-21.765	33.267	1470.352	1254.811
-20.750	33.307	1469.586	1254.368
-19.736	33.329	1468.297	1253.364
-18.721	33.196	1467.865	1252.066
-17.706	33.260	1466.260	1251.073
-16.692	33.255	1465.057	1249.963
-15.677	33.199	1464.207	1248.819
-14.663	33.238	1463.038	1248.032
-13.648	33.170	1462.676	1247.222
-12.633	33.186	1461.702	1246.445
-11.619	33.235	1460.380	1245.594
-10.604	33.249	1460.009	1245.324
-9.590	33.213	1458.917	1244.101
-8.575	33.164	1457.736	1242.722
-7.560	33.271	1456.861	1242.631
-6.546	33.154	1456.409	1241.427
-5.531	33.171	1455.451	1240.675
-4.517	33.177	1454.364	1239.735
-3.502	33.199	1453.060	1238.718
-2.487	33.185	1452.227	1237.872
-1.473	33.174	1451.199	1236.873
-0.458	33.183	1450.087	1235.935
0.556	33.672	1440.202	1224.481
1.571	31.087	1415.104	1186.619
2.586	27.660	1360.919	1120.072
3.600	26.139	1282.558	1046.674
4.615	24.723	1235.460	1000.237
5.629	21.212	1177.529	934.496
6.644	11.299	1089.689	815.372
7.659	3.350	1047.443	745.358
8.673	2.281	1041.421	735.863
9.688	2.036	1038.181	732.336
10.702	2.030	1036.636	731.152
11.717	1.993	1035.034	729.780
12.731	5.684	1039.090	750.275
13.746	15.615	1053.377	808.523
14.761	23.205	1063.284	852.772
15.775	25.019	1064.775	862.636
16.790	25.241	1064.449	863.364
17.804	25.053	1063.800	861.855
18.819	24.807	1063.111	860.037
19.834	24.811	1062.735	859.678
20.848	25.294	1061.697	861.081
21.863	25.184	1061.855	860.602
22.877	25.215	1061.166	860.120
23.892	25.108	1060.481	858.974
24.907	25.063	1059.432	857.833
25.921	25.188	1058.614	857.691
26.936	25.160	1057.982	856.970
27.950	25.147	1056.752	855.834
28.965	25.102	1055.386	854.438
29.980	24.975	1054.218	852.814
30.994	25.041	1053.060	852.118
32.009	25.140	1052.747	852.260
33.023	25.170	1052.181	851.867
34.038	25.086	1050.798	850.275
35.053	24.950	1049.871	848.804
36.067	25.188	1049.070	849.210
37.082	25.022	1048.830	848.152
38.096	25.170	1047.751	847.903
39.111	25.240	1047.100	847.636
40.126	25.487	1045.793	847.666
41.140	25.266	1044.458	845.468
42.155	25.124	1043.205	843.708
43.169	24.712	1042.397	841.045
44.184	24.796	1041.291	840.475
45.199	24.861	1040.059	839.708
46.213	24.637	1039.429	838.078
47.228	24.705	1038.808	837.821
48.242	24.931	1037.781	837.976
49.257	24.914	1037.832	837.863
50.271	25.089	1036.699	837.692
51.286	25.203	1036.008	837.592
52.301	25.317	1034.875	837.134
53.315	25.248	1034.306	836.277
54.330	25.183	1033.506	835.252
55.344	25.040	1032.820	833.962
56.359	25.066	1031.631	833.048
57.374	25.058	1031.002	832.426
58.388	25.046	1030.220	831.668
59.403	24.820	1029.655	830.087
60.417	24.855	1028.867	829.541
61.432	24.740	1028.326	828.500
62.447	24.698	1027.519	827.583
63.461	24.902	1026.580	827.695
64.476	24.922	1025.692	826.999
65.490	24.809	1025.302	826.089
66.505	24.817	1024.094	825.079
67.520	24.736	1022.989	823.746
68.534	24.903	1022.698	824.204
69.549	24.674	1022.312	822.768
70.563	24.442	1020.568	820.226
71.578	24.309	1019.837	818.956
72.593	24.506	1018.848	818.993
73.607	24.313	1017.640	817.066
74.622	24.230	1016.868	815.993
75.636	24.552	1016.309	816.945
76.651	24.715	1015.756	817.173
77.666	24.641	1014.528	815.775
78.680	24.423	1013.711	814.051
79.695	24.678	1012.953	814.530
80.709	24.684	1012.690	814.274
81.724	24.829	1011.685	814.057
82.739	24.748	1011.140	813.177
83.753	24.762	1010.112	812.341
84.768	24.870	1009.836	812.536
85.782	25.282	1009.134	813.771
86.797	25.485	1008.424	814.043
87.812	25.412	1007.538	812.928
88.826	25.217	1006.274	810.956
89.841	25.190	1006.124	810.642
90.855	25.344	1005.108	810.444
91.870	25.461	1003.985	809.993
92.884	25.352	1003.694	809.195
93.899	25.230	1002.732	807.800
94.914	25.163	1001.772	806.652
95.928	25.453	1000.524	806.879
96.943	25.355	1000.253	806.151
97.957	24.984	999.048	803.445
98.972	24.795	997.978	801.667
99.987	24.619	996.869	799.914
101.001	24.793	996.117	800.021
102.016	25.067	995.627	800.782
103.030	24.993	995.106	799.961
104.045	25.064	994.000	799.317
105.060	24.992	992.608	797.805
106.074	24.742	991.635	795.840
107.089	24.847	990.910	795.655
108.103	25.073	990.475	796.239
109.118	25.090	989.505	795.463
110.133	24.894	987.991	793.311
111.147	24.833	987.414	792.508
112.162	24.758	986.482	791.356
113.176	24.520	985.030	789.069
114.191	24.626	984.946	789.399
115.206	24.763	983.903	789.098
116.220	24.464	982.642	786.703
117.235	24.316	981.935	785.415
118.249	24.563	981.458	786.050
119.264	24.519	980.520	785.036
120.279	24.394	979.338	783.470
121.293	24.488	978.543	783.180
122.308	24.541	978.089	782.979
123.322	24.576	977.188	782.339
124.337	24.594	975.884	781.304
125.352	24.256	975.457	779.416
126.366	24.101	973.177	776.850
127.381	23.715	971.722	773.940
128.395	24.192	971.857	776.055
129.410	24.837	971.558	778.557
130.424	25.029	971.105	778.960
131.439	24.965	969.936	777.675
132.454	25.008	968.608	776.728
133.468	25.020	967.873	776.119
134.483	24.993	967.276	775.457
135.497	24.995	966.816	775.027
136.512	25.171	966.387	775.378
137.527	25.120	965.714	774.546
138.541	25.322	964.171	774.112
139.556	25.179	963.876	773.190
140.570	25.216	963.103	772.663
141.585	25.344	962.184	772.405
142.600	25.383	961.552	771.997
143.614	25.093	960.816	770.092
144.629	25.197	959.801	769.660
145.643	25.638	959.353	771.122
146.658	25.481	958.280	769.520
147.673	25.123	957.456	767.257
148.687	25.129	955.744	765.845
149.702	25.102	955.173	765.204
150.716	25.055	953.711	763.762
151.731	25.020	952.884	762.885
152.746	25.019	952.275	762.325
153.760	25.245	952.015	763.012
154.775	25.351	950.961	762.550
155.789	25.431	950.308	762.299
156.804	25.402	949.338	761.329
157.819	25.387	948.414	760.457
158.833	25.376	947.437	759.559
159.848	25.529	946.787	759.619
160.862	25.611	945.957	759.230
161.877	25.390	945.438	757.814
162.892	25.327	944.473	756.708
163.906	25.499	942.999	756.187
164.921	25.518	942.303	755.638
165.935	25.364	941.576	754.341
166.950	25.453	940.585	753.858
167.964	25.492	939.671	753.221
168.979	25.436	938.749	752.180
169.994	25.289	937.657	750.624
171.008	25.117	936.803	749.154
172.023	25.335	936.179	749.500
173.037	25.614	935.085	749.721
174.052	25.283	934.535	747.835
175.067	25.099	933.276	745.994
176.081	25.051	932.404	745.032
177.096	25.075	931.751	744.546
178.110	25.233	930.953	744.495
179.125	24.991	929.549	742.304
180.140	24.768	928.789	740.710
181.154	24.715	928.049	739.836
182.169	24.862	927.679	740.080
183.183	24.997	927.546	740.468
184.198	25.448	926.794	741.666
185.213	25.358	926.254	740.795
186.227	25.156	925.814	739.546
187.242	25.326	925.320	739.787
188.256	25.424	924.389	739.379
189.271	25.426	923.652	738.733
190.286	25.447	923.299	738.471
191.300	25.384	922.092	737.183
192.315	24.810	920.818	733.746
193.329	24.110	918.883	729.273
194.344	23.682	917.671	726.494
195.359	24.287	918.334	729.430
196.373	25.068	918.867	732.986
197.388	25.344	918.346	733.634
198.402	25.221	918.084	732.856
199.417	25.166	917.134	731.808
200.432	25.285	916.664	731.856
201.446	25.211	915.985	730.947
202.461	24.918	914.966	728.877
203.475	25.029	914.378	728.794
204.490	24.468	913.056	725.397
205.504	23.400	911.064	719.418
206.519	23.766	911.225	720.968
207.534	24.811	910.900	724.882
208.548	24.822	910.604	724.629
209.563	25.251	910.394	726.130
210.577	25.305	909.550	725.613
211.592	24.965	908.886	723.647
212.607	25.271	909.205	725.072
213.621	25.491	908.361	725.221
214.636	25.511	907.498	724.549
215.650	25.476	907.376	724.247
216.665	25.513	906.512	723.642
217.680	25.473	906.207	723.175
218.694	25.528	906.019	723.180
219.709	25.205	904.720	720.783
220.723	24.855	903.707	718.508
221.738	25.037	903.456	718.976
222.753	25.368	902.658	719.605
223.767	25.240	901.965	718.475
224.782	25.314	901.590	718.410
225.796	25.529	901.234	718.921
226.811	25.584	900.658	718.619
227.826	25.155	899.139	715.630
228.840	24.314	897.574	710.972
229.855	24.300	897.136	710.503
230.869	24.477	896.617	710.734
231.884	24.240	895.583	708.910
232.899	24.343	895.161	708.922
233.913	25.129	895.509	712.259
234.928	25.252	894.884	712.187
235.942	25.224	894.304	711.552
236.957	25.259	893.674	711.128
237.972	24.783	892.656	708.369
238.986	24.784	892.158	707.914
240.001	24.918	891.801	708.100
241.015	24.956	891.075	707.610
242.030	25.091	890.209	707.392
243.045	25.306	889.686	707.763
244.059	25.308	889.468	707.534
245.074	25.396	888.781	707.270
246.088	25.402	888.069	706.665
247.103	25.044	887.251	704.545
248.117	25.020	887.038	704.219
249.132	25.518	886.793	705.921
250.147	25.966	886.399	707.299
251.161	26.058	886.208	707.446
252.176	26.131	885.843	707.378
253.190	26.263	884.750	706.959
254.205	26.321	884.349	706.802
255.220	26.441	884.202	707.091
256.234	26.346	883.417	706.032
257.249	26.271	882.992	705.338
258.263	26.109	882.311	704.098
259.278	26.023	881.776	703.274
260.293	26.130	881.426	703.348
261.307	26.257	880.538	703.072
262.322	26.287	880.067	702.752
263.336	26.057	879.099	701.020
264.351	25.546	877.781	697.926
265.366	24.509	876.084	692.494
266.380	24.255	875.108	690.678
267.395	24.992	875.622	693.881
268.409	25.717	875.863	696.816
269.424	25.759	874.738	696.023
270.439	25.833	874.467	696.032
271.453	25.999	873.957	696.206
272.468	25.925	873.202	695.254
273.482	26.142	873.068	695.925
274.497	26.213	872.682	695.828
275.512	26.108	871.390	694.335
276.526	25.483	869.966	690.736
277.541	25.577	869.948	691.022
278.555	25.989	870.036	692.613
279.570	25.807	869.348	691.307
280.585	25.729	867.916	689.806
281.599	25.819	867.678	689.901
282.614	25.963	866.903	689.775
283.628	25.522	865.786	687.140
284.643	25.140	865.164	685.125
285.657	25.413	865.385	686.284
286.672	25.378	864.696	685.543
287.687	24.978	863.227	682.794
288.701	25.145	863.487	683.577
289.716	25.795	862.882	685.510
290.730	25.310	862.235	683.091
291.745	25.230	861.505	682.150
292.760	25.181	860.342	680.980
293.774	24.998	860.067	680.010
294.789	25.897	860.683	683.848
295.803	26.400	860.695	685.705
296.818	26.419	860.172	685.299
297.833	26.733	859.710	686.061
298.847	26.402	858.490	683.776
299.862	25.939	857.650	681.296
300.876	26.054	857.590	681.623
301.891	26.522	857.032	682.886
302.906	26.607	856.185	682.471
303.920	26.246	855.148	680.225
304.935	25.925	854.569	678.497
305.949	26.455	854.554	680.419
306.964	26.544	854.216	680.423
307.979	26.292	853.485	678.832
308.993	26.202	852.724	677.829
310.008	26.488	852.592	678.737
311.022	26.687	852.435	679.298
312.037	26.620	851.512	678.253
313.052	26.254	850.961	676.385
314.066	26.140	850.146	675.248
315.081	25.541	848.669	671.781
316.095	24.811	847.356	667.957
317.110	25.327	847.416	669.869
318.125	26.058	847.784	672.830
319.139	25.656	846.914	670.581
320.154	24.661	845.242	665.495
321.168	24.125	844.492	662.851
322.183	24.772	844.523	665.226
323.197	25.817	844.642	669.145
324.212	25.993	844.589	669.696
325.227	26.063	844.446	669.783
326.241	26.402	843.834	670.496
327.256	26.379	842.953	669.651
328.270	26.128	842.302	668.146
329.285	26.182	841.294	667.486
330.300	25.933	841.055	666.320
331.314	25.646	840.242	664.555
332.329	25.746	839.768	664.490
333.343	26.139	839.634	665.774
334.358	26.270	839.307	665.939
335.373	26.241	838.571	665.192
336.387	26.440	838.004	665.415
337.402	26.712	837.884	666.260
338.416	26.913	837.428	666.578
339.431	26.749	836.816	665.429
340.446	26.967	836.011	665.531
341.460	26.931	835.934	665.277
342.475	26.943	835.237	664.708
343.489	26.784	834.585	663.548
344.504	26.889	833.795	663.246
345.519	26.937	834.042	663.559
346.533	27.276	833.354	664.190
347.548	27.293	833.025	663.931
348.562	27.098	832.799	662.981
349.577	27.180	831.778	662.408
350.592	27.168	831.330	661.951
351.606	27.071	831.242	661.466
352.621	27.125	830.668	661.149
353.635	27.021	830.022	660.199
354.650	26.838	829.578	659.120
355.665	26.478	828.431	656.846
356.679	25.597	826.653	652.183
357.694	25.425	826.104	651.072
358.708	26.108	826.069	653.459
359.723	26.198	825.339	653.151
360.738	26.279	825.595	653.588
361.752	26.837	824.978	655.056
362.767	26.910	824.840	655.155
363.781	26.842	825.204	655.137
364.796	27.374	824.654	656.563
365.810	27.473	824.395	656.655
366.825	27.530	824.070	656.545
367.840	27.574	823.676	656.332
368.854	27.584	822.776	655.592
369.869	26.869	822.018	652.359
370.883	26.690	821.685	651.393
371.898	26.851	820.798	651.213
372.913	26.799	819.991	650.326
373.927	27.060	819.143	650.533
374.942	26.980	819.017	650.087
375.956	27.179	818.351	650.212
376.971	27.271	817.754	650.012
377.986	27.286	817.447	649.763
379.000	27.523	817.324	650.455
380.015	27.385	817.018	649.662
381.029	27.253	816.396	648.637
382.044	27.280	815.569	648.018
383.059	27.547	814.981	648.447
384.073	27.528	814.266	647.751
385.088	27.509	814.070	647.469
386.102	27.499	813.403	646.846
387.117	27.386	812.410	645.600
388.132	27.286	811.880	644.766
389.146	27.062	811.333	643.480
390.161	26.466	810.303	640.499
391.175	26.648	810.006	640.851
392.190	27.119	810.132	642.558
393.205	27.178	809.487	642.202
394.219	26.221	807.631	637.296
395.234	24.586	805.767	630.008
396.248	23.749	804.496	626.010
397.263	24.787	805.460	630.364
398.278	26.608	807.001	637.937
399.292	27.057	807.140	639.573
400.307	26.643	806.027	637.176
401.321	26.739	805.526	637.063
402.336	26.756	805.290	636.878
403.350	26.907	805.531	637.545
404.365	27.493	805.239	639.315
405.380	27.716	805.261	640.058
406.394	28.122	804.859	641.103
407.409	28.388	804.293	641.529
408.423	28.276	803.331	640.314
409.438	28.011	803.371	639.361
410.453	28.124	802.816	639.258
411.467	28.276	802.082	639.147
412.482	28.172	801.680	638.408
413.496	28.195	801.202	638.051
414.511	28.259	800.854	637.938
415.526	28.295	800.319	637.583
416.540	28.200	800.493	637.335
417.555	28.148	799.828	636.569
418.569	27.907	798.918	634.948
419.584	27.821	798.057	633.911
420.599	27.906	797.678	633.848
421.613	110.454	1283.298	1453.741
422.628	95.221	1354.039	1453.855
