DTS Sentinel unit serial number:	SN413079Multiplexer serial number:	ORYXHardware model number:	OX4-SRSoftware version number:	ORYX F/W v4.00 Oryx Data Collector v3.7.2.0data status	okinstallation	princeton_trtdifferential loss correction	single-endedforward channel	channel 3reverse channel	N/Adate	2019/09/15time	07:04:34forward acquisition time	60.00reverse acquisition time	0.00gamma	496.2192k internal	0.2325k external	0.2325temperature offset calibration	0.9981default loss term (dB/km)	0.3790temperature slope calibration	1.0000multiplexer offset coefficient	1.0000multiplexer slope coefficient	1.0000fibre end	0.00T internal ref (°C)	30.50T ext. ref 1 (°C)	4.86T ext. ref 2 (°C)	25.61length (m)	temperature (°C)	Stokes	anti-Stokes-747.200	61.121	0.157	0.157
-746.185	57.421	-0.264	0.260
-745.171	-200.000	0.022	0.183
-744.156	188.423	0.080	-0.121
-743.142	49.737	0.108	-0.103
-742.127	180.056	-0.068	0.101
-741.112	-200.000	0.017	0.198
-740.098	469.757	0.130	0.294
-739.083	127.173	-0.079	0.102
-738.069	455.170	-0.045	0.102
-737.054	-30.607	0.188	0.107
-736.039	274.019	-0.083	-0.147
-735.025	178.253	0.055	0.081
-734.010	-86.079	0.165	-0.051
-732.996	800.000	0.017	-0.066
-731.981	-200.000	0.009	0.164
-730.966	199.195	-0.053	0.082
-729.952	160.770	0.106	-0.150
-728.937	800.000	-0.072	-0.223
-727.923	29.997	0.089	0.077
-726.908	112.636	-0.149	0.182
-725.894	-40.704	-0.326	-0.171
-724.879	-134.668	-0.254	-0.031
-723.864	11.698	-0.157	-0.121
-722.850	-144.683	-0.387	0.036
-721.835	-124.595	0.312	0.049
-720.821	-4.410	-0.276	0.192
-719.806	193.618	-0.037	0.057
-718.791	-112.820	-0.176	0.035
-717.777	-200.000	-0.003	-0.242
-716.762	-97.245	-0.075	0.020
-715.748	-83.062	-0.189	0.061
-714.733	-200.000	-0.001	0.020
-713.718	-162.090	-0.273	-0.014
-712.704	800.000	-0.077	-0.232
-711.689	-153.887	0.248	-0.017
-710.675	-99.896	-0.490	-0.123
-709.660	-57.407	0.052	-0.023
-708.645	-97.044	0.165	-0.044
-707.631	25.019	0.211	-0.177
-706.616	-200.000	0.008	-0.314
-705.602	84.506	0.126	-0.139
-704.587	-9.466	-0.167	-0.112
-703.572	534.735	-0.066	-0.159
-702.558	-90.596	0.603	0.176
-701.543	-51.912	0.076	-0.036
-700.529	165.448	-0.110	0.156
-699.514	461.580	-0.105	0.237
-698.499	-200.000	0.015	-0.218
-697.485	260.062	-0.199	-0.347
-696.470	419.779	-0.177	-0.381
-695.456	11.194	-0.176	-0.135
-694.441	51.829	0.077	0.074
-693.426	-38.904	-0.153	0.081
-692.412	800.000	-0.041	0.118
-691.397	-98.163	-0.259	-0.067
-690.383	-189.294	0.207	0.002
-689.368	-27.012	-0.269	-0.158
-688.354	-32.971	-0.084	-0.047
-687.339	-16.962	-0.062	0.039
-686.324	76.120	-0.178	0.189
-685.310	144.581	-0.206	-0.277
-684.295	14.458	-0.137	0.107
-683.281	-58.670	-0.497	0.217
-682.266	-85.636	-0.318	0.100
-681.251	102.113	0.114	-0.134
-680.237	-5.640	0.124	-0.085
-679.222	286.937	-0.118	0.215
-678.208	280.593	0.144	0.259
-677.193	-97.813	-0.190	0.049
-676.178	-200.000	0.057	-0.330
-675.164	228.984	0.122	0.201
-674.149	800.000	0.094	-0.284
-673.135	-91.035	0.252	0.073
-672.120	221.793	0.173	0.280
-671.105	2.936	0.241	-0.176
-670.091	117.985	0.124	0.154
-669.076	-28.954	0.209	-0.121
-668.062	-105.818	-0.129	-0.029
-667.047	-200.000	0.048	-0.365
-666.032	800.000	-0.022	0.067
-665.018	510.098	0.050	0.116
-664.003	-107.628	-0.107	-0.024
-662.989	-186.173	-0.299	0.004
-661.974	-16.137	-0.162	-0.103
-660.959	152.380	-0.312	-0.429
-659.945	92.540	0.111	0.125
-658.930	-168.991	-0.350	0.013
-657.916	-106.592	0.100	0.022
-656.901	-54.804	-0.076	0.034
-655.886	-132.811	-0.306	0.039
-654.872	-115.670	-0.426	0.080
-653.857	-200.000	-0.007	-0.150
-652.843	31.488	-0.245	0.212
-651.828	-56.673	-0.131	0.058
-650.814	-81.858	-0.287	-0.095
-649.799	78.931	-0.244	0.263
-648.784	800.000	0.035	-0.134
-647.770	-183.656	-0.400	-0.007
-646.755	-134.313	0.087	0.011
-645.741	-200.000	0.081	-0.519
-644.726	800.000	0.071	-0.286
-643.711	-200.000	0.034	-0.346
-642.697	-101.901	0.123	-0.030
-641.682	800.000	-0.123	-0.499
-640.668	-200.000	-0.002	0.149
-639.653	-2.608	0.112	-0.079
-638.638	800.000	-0.102	0.327
-637.624	-59.166	0.229	-0.099
-636.609	339.507	-0.180	-0.353
-635.595	-200.000	-0.072	-0.382
-634.580	-200.000	0.052	0.287
-633.565	38.073	-0.079	-0.071
-632.551	368.371	0.088	0.180
-631.536	-146.256	0.137	-0.012
-630.522	215.380	-0.144	-0.230
-629.507	-200.000	0.023	0.149
-628.492	-200.000	0.012	-0.136
-627.478	39.303	-0.220	0.198
-626.463	-78.692	0.128	-0.044
-625.449	-103.183	0.076	-0.018
-624.434	800.000	0.101	-0.359
-623.419	800.000	-0.068	0.266
-622.405	-31.164	-0.073	0.041
-621.390	800.000	-0.118	0.329
-620.376	-111.584	-0.207	0.042
-619.361	473.059	0.096	-0.217
-618.346	-200.000	0.064	-0.336
-617.332	-180.281	-0.200	-0.004
-616.317	-200.000	-0.073	-0.431
-615.303	26.872	-0.203	0.170
-614.288	310.406	0.087	-0.164
-613.273	-34.228	-0.068	-0.037
-612.259	-29.629	0.355	0.204
-611.244	0.277	-0.276	-0.198
-610.230	33.994	-0.141	-0.124
-609.215	705.270	0.048	-0.128
-608.201	192.005	0.152	-0.230
-607.186	228.231	-0.165	-0.269
-606.171	-200.000	0.016	-0.215
-605.157	-1.253	0.259	-0.184
-604.142	-50.023	0.255	-0.121
-603.128	800.000	-0.038	-0.109
-602.113	-84.962	-0.270	0.085
-601.098	-1.250	-0.163	0.115
-600.084	800.000	-0.053	0.220
-599.069	-200.000	0.019	0.206
-598.055	800.000	-0.071	-0.213
-597.040	-26.784	-0.023	-0.014
-596.025	-132.518	-0.193	0.025
-595.011	800.000	0.077	0.249
-593.996	18.001	0.305	0.244
-592.982	800.000	-0.054	0.196
-591.967	-42.107	0.316	0.162
-590.952	800.000	0.029	0.103
-589.938	745.500	-0.117	0.316
-588.923	800.000	-0.108	-0.373
-587.909	-37.518	0.334	-0.179
-586.894	-46.244	-0.180	-0.089
-585.879	-94.402	0.370	-0.101
-584.865	-29.041	-0.172	-0.099
-583.850	-101.041	-0.277	0.068
-582.836	83.486	0.157	-0.171
-581.821	-40.714	0.135	-0.070
-580.806	42.891	-0.066	0.060
-579.792	800.000	-0.050	0.206
-578.777	69.753	-0.113	-0.117
-577.763	469.684	0.071	0.160
-576.748	329.692	-0.102	0.197
-575.733	-76.324	-0.256	-0.090
-574.719	240.255	0.065	0.109
-573.704	-105.220	-0.088	-0.020
-572.690	-41.521	-0.275	-0.142
-571.675	-93.273	-0.143	-0.040
-570.661	73.043	-0.305	0.319
-569.646	228.183	-0.188	0.306
-568.631	800.000	0.105	0.346
-567.617	13.118	0.055	-0.043
-566.602	200.000	-0.116	0.179
-565.588	800.000	0.063	-0.223
-564.573	-119.885	0.135	-0.023
-563.558	800.000	0.063	-0.190
-562.544	-200.000	0.002	-0.071
-561.529	-1.211	0.164	0.116
-560.515	-200.000	-0.020	0.294
-559.500	99.129	0.026	-0.030
-558.485	-200.000	-0.001	0.108
-557.471	800.000	0.093	-0.301
-556.456	0.820	0.327	0.235
-555.442	-200.000	-0.029	0.168
-554.427	54.589	-0.118	0.114
-553.412	632.211	-0.066	0.166
-552.398	381.501	-0.117	0.242
-551.383	-110.899	0.243	0.050
-550.369	526.395	-0.205	0.483
-549.354	139.725	0.115	-0.152
-548.339	800.000	-0.102	0.337
-547.325	-9.426	0.297	-0.198
-546.310	768.680	0.083	-0.227
-545.296	-68.062	-0.083	0.032
-544.281	-50.668	0.214	0.101
-543.266	-17.949	0.247	-0.155
-542.252	35.571	0.258	-0.227
-541.237	-112.219	-0.128	0.026
-540.223	-5.645	0.052	-0.036
-539.208	87.526	0.175	-0.193
-538.193	-95.416	0.110	0.030
-537.179	498.365	-0.106	-0.244
-536.164	800.000	0.078	-0.249
-535.150	-21.185	-0.172	0.105
-534.135	800.000	-0.077	-0.299
-533.121	41.008	0.146	-0.132
-532.106	30.967	-0.152	-0.130
-531.091	141.922	0.060	0.079
-530.077	-75.830	-0.025	0.009
-529.062	707.189	0.114	0.300
-528.048	71.753	-0.102	-0.106
-527.033	-200.000	-0.053	0.234
-526.018	22.359	0.233	0.191
-525.004	19.366	-0.266	-0.214
-523.989	-25.902	-0.273	-0.161
-522.975	800.000	0.037	-0.121
-521.960	109.918	-0.228	-0.274
-520.945	-200.000	-0.078	-0.349
-519.931	-77.125	-0.230	-0.080
-518.916	88.447	-0.067	-0.075
-517.902	800.000	0.057	-0.196
-516.887	231.721	-0.040	0.066
-515.872	509.499	-0.149	-0.347
-514.858	-55.875	0.093	0.041
-513.843	636.461	-0.039	0.100
-512.829	-96.284	0.184	-0.049
-511.814	64.007	0.164	0.165
-510.799	88.367	-0.073	-0.081
-509.785	-2.990	-0.199	-0.139
-508.770	-200.000	-0.024	0.179
-507.756	166.234	-0.123	-0.174
-506.741	20.813	-0.142	0.115
-505.726	101.735	-0.343	-0.400
-504.712	-200.000	-0.016	-0.393
-503.697	305.157	-0.043	0.079
-502.683	-200.000	0.021	0.520
-501.668	74.718	-0.282	0.296
-500.653	-60.490	-0.241	-0.102
-499.639	34.044	-0.249	-0.216
-498.624	-116.578	0.177	0.033
-497.610	-121.870	-0.266	-0.044
-496.595	279.360	-0.149	0.265
-495.581	405.344	-0.074	-0.156
-494.566	272.542	0.051	-0.089
-493.551	-22.767	-0.191	0.115
-492.537	-54.351	-0.069	-0.031
-491.522	22.949	-0.213	-0.175
-490.508	134.549	0.141	-0.183
-489.493	-31.742	-0.065	-0.036
-488.478	-126.887	-0.144	-0.021
-487.464	236.163	-0.087	-0.143
-486.449	-74.156	0.018	-0.006
-485.435	433.377	0.083	-0.179
-484.420	25.419	-0.140	-0.116
-483.405	474.000	0.098	-0.221
-482.391	68.730	-0.121	0.124
-481.376	270.429	-0.109	-0.192
-480.362	-143.554	-0.115	0.011
-479.347	-108.720	0.034	-0.007
-478.332	53.317	-0.276	-0.264
-477.318	279.815	-0.084	0.149
-476.303	741.935	-0.007	-0.020
-475.289	-83.223	-0.227	0.073
-474.274	18.520	-0.184	-0.147
-473.259	315.174	0.159	0.299
-472.245	368.393	-0.120	-0.243
-471.230	30.641	-0.171	-0.146
-470.216	-20.238	-0.173	-0.107
-469.201	-123.423	0.237	-0.038
-468.186	-122.217	0.206	-0.034
-467.172	800.000	-0.044	0.187
-466.157	800.000	0.094	-0.407
-465.143	767.199	0.053	-0.144
-464.128	683.397	-0.124	0.324
-463.113	-5.179	0.436	-0.299
-462.099	-200.000	0.008	0.061
-461.084	589.029	0.115	0.283
-460.070	-1.625	0.187	-0.131
-459.055	-18.575	0.084	-0.053
-458.040	-84.002	-0.145	0.046
-457.026	800.000	0.065	-0.206
-456.011	-125.384	-0.117	-0.018
-454.997	-139.494	0.173	0.018
-453.982	-116.633	-0.138	-0.025
-452.968	-200.000	0.012	0.308
-451.953	-111.348	-0.248	0.051
-450.938	213.846	0.216	-0.341
-449.924	27.579	0.084	0.071
-448.909	298.699	0.073	-0.134
-447.895	-200.000	-0.027	-0.147
-446.880	-142.763	-0.121	-0.012
-445.865	-137.964	0.235	-0.026
-444.851	122.310	-0.135	0.169
-443.836	-11.114	-0.168	-0.110
-442.822	170.160	0.134	0.192
-441.807	800.000	-0.125	0.468
-440.792	-76.392	-0.073	0.026
-439.778	-29.650	0.033	-0.019
-438.763	800.000	0.053	0.214
-437.749	30.295	-0.346	-0.295
-436.734	-104.116	-0.157	-0.036
-435.719	354.086	0.056	0.110
-434.705	63.410	0.250	-0.250
-433.690	-53.370	-0.101	0.046
-432.676	800.000	-0.116	-0.327
-431.661	-200.000	0.019	-0.296
-430.646	602.534	-0.128	0.317
-429.632	-98.111	0.385	-0.099
-428.617	-138.088	-0.303	-0.034
-427.603	-200.000	-0.021	-0.197
-426.588	-54.374	-0.289	-0.131
-425.573	-99.335	0.147	0.037
-424.559	-200.000	0.066	0.340
-423.544	-38.423	0.075	-0.040
-422.530	255.946	-0.193	-0.330
-421.515	293.998	0.079	0.145
-420.500	800.000	0.085	0.275
-419.486	-200.000	0.011	-0.188
-418.471	554.977	-0.058	-0.140
-417.457	-94.729	0.234	0.063
-416.442	800.000	-0.098	0.345
-415.428	-200.000	0.006	-0.050
-414.413	-109.530	-0.101	-0.021
-413.398	-22.599	-0.132	-0.079
-412.384	-81.326	0.132	-0.044
-411.369	800.000	0.021	-0.060
-410.355	-23.098	-0.263	-0.158
-409.340	-30.295	-0.054	-0.030
-408.325	436.227	0.031	0.067
-407.311	-69.138	0.185	-0.071
-406.296	158.039	0.226	0.313
-405.282	11.724	0.158	0.121
-404.267	-106.980	0.305	0.067
-403.252	-200.000	-0.047	0.219
-402.238	800.000	0.089	-0.330
-401.223	800.000	-0.065	-0.273
-400.209	556.699	0.100	-0.241
-399.194	162.699	-0.152	0.213
-398.179	146.246	-0.240	0.321
-397.165	-200.000	0.022	-0.147
-396.150	-131.008	-0.202	-0.027
-395.136	-18.743	0.133	0.083
-394.121	-142.414	0.241	0.024
-393.106	-75.109	0.189	0.067
-392.092	-105.341	0.081	0.018
-391.077	-13.498	0.080	0.052
-390.063	-58.811	-0.064	-0.028
-389.048	-77.098	-0.140	0.049
-388.033	71.949	0.186	0.193
-387.019	448.664	0.027	-0.058
-386.004	-126.344	0.351	-0.052
-384.990	604.391	0.068	-0.168
-383.975	-20.961	-0.249	-0.151
-382.960	36.083	-0.040	0.035
-381.946	800.000	0.069	0.288
-380.931	-108.896	0.300	-0.064
-379.917	800.000	0.052	0.151
-378.902	-92.625	0.030	0.008
-377.888	188.199	0.195	0.290
-376.873	-99.070	0.139	-0.035
-375.858	-27.989	-0.232	0.134
-374.844	-24.090	0.016	-0.009
-373.829	83.848	-0.126	-0.136
-372.815	-139.330	-0.403	0.043
-371.800	164.605	-0.106	0.149
-370.785	90.423	-0.038	-0.043
-369.771	-70.902	0.131	0.049
-368.756	-200.000	-0.014	-0.097
-367.742	100.761	0.109	-0.126
-366.727	800.000	-0.050	-0.162
-365.712	-107.613	0.069	0.015
-364.698	54.302	0.064	-0.062
-363.683	-200.000	0.060	0.274
-362.669	144.078	0.097	0.129
-361.654	57.157	0.063	-0.061
-360.639	-200.000	-0.013	-0.101
-359.625	-160.187	0.263	-0.014
-358.610	-103.710	0.166	0.039
-357.596	-123.504	-0.195	-0.031
-356.581	340.562	-0.079	-0.153
-355.566	-80.390	0.050	0.017
-354.552	800.000	0.031	-0.119
-353.537	61.128	0.269	0.265
-352.523	-123.732	-0.308	-0.048
-351.508	-57.183	0.331	-0.145
-350.493	800.000	0.083	-0.249
-349.479	-101.166	-0.284	0.069
-348.464	-150.776	-0.373	0.028
-347.450	-200.000	-0.002	-0.127
-346.435	150.060	-0.047	-0.063
-345.420	108.482	0.252	-0.299
-344.406	633.791	0.077	0.193
-343.391	366.056	0.160	0.320
-342.377	-200.000	0.006	0.032
-341.362	-132.055	-0.358	0.046
-340.348	-89.531	0.255	0.074
-339.333	50.641	-0.067	0.063
-338.318	45.870	-0.244	0.224
-337.304	-200.000	-0.022	0.215
-336.289	-161.094	0.373	0.019
-335.275	800.000	0.022	0.067
-334.260	800.000	-0.050	0.145
-333.245	60.644	0.108	0.106
-332.231	-50.051	-0.032	0.015
-331.216	-31.223	0.167	0.093
-330.202	-41.692	-0.173	0.088
-329.187	-200.000	0.016	-0.229
-328.172	231.975	-0.107	-0.174
-327.158	800.000	0.142	-0.497
-326.143	-200.000	0.035	0.152
-325.129	-22.331	-0.104	-0.063
-324.114	-200.000	-0.014	-0.124
-323.099	-31.019	-0.346	0.194
-322.085	63.268	0.131	0.130
-321.070	-135.830	0.202	0.024
-320.056	-200.000	-0.012	-0.077
-319.041	30.022	0.215	0.182
-318.026	58.812	-0.234	-0.228
-317.012	-152.740	-0.106	0.008
-315.997	231.162	-0.059	-0.096
-314.983	-70.076	0.333	0.126
-313.968	73.897	0.210	0.218
-312.953	684.625	0.039	-0.102
-311.939	396.975	0.096	0.200
-310.924	52.539	0.160	0.151
-309.910	154.401	-0.130	-0.178
-308.895	1.636	0.154	0.110
-307.880	-18.178	0.273	0.170
-306.866	-83.254	0.273	-0.087
-305.851	219.281	0.124	-0.196
-304.837	-21.519	-0.128	0.077
-303.822	-124.106	0.095	0.015
-302.807	800.000	-0.043	-0.119
-301.793	670.902	0.080	0.205
-300.778	800.000	0.060	0.231
-299.764	-56.833	-0.199	0.087
-298.749	800.000	-0.018	0.069
-297.735	800.000	0.068	0.193
-296.720	-15.332	0.164	-0.104
-295.705	-103.642	0.297	0.069
-294.691	224.157	-0.220	-0.352
-293.676	402.630	-0.095	0.199
-292.662	-150.443	0.083	0.006
-291.647	800.000	0.055	0.176
-290.632	-90.268	0.238	0.068
-289.618	-115.851	-0.173	0.032
-288.603	-200.000	0.008	-0.039
-287.589	114.466	-0.223	0.270
-286.574	-133.224	0.119	0.015
-285.559	131.473	0.017	0.021
-284.545	-19.060	0.256	-0.158
-283.530	111.853	0.227	-0.272
-282.516	67.125	0.204	-0.206
-281.501	-181.076	-0.334	0.007
-280.486	-36.987	0.181	0.096
-279.472	-101.070	0.361	0.088
-278.457	274.442	0.092	-0.162
-277.443	-155.773	-0.340	-0.022
-276.428	-200.000	0.026	-0.263
-275.413	-126.284	-0.264	0.039
-274.399	472.447	0.127	-0.283
-273.384	84.426	0.274	0.297
-272.370	0.331	-0.216	-0.153
-271.355	-200.000	-0.007	0.260
-270.340	-66.981	0.205	0.080
-269.326	-200.000	-0.011	0.064
-268.311	-50.008	-0.163	0.076
-267.297	146.240	0.190	0.252
-266.282	800.000	-0.099	0.325
-265.267	-144.316	0.134	0.012
-264.253	240.898	0.103	-0.170
-263.238	-64.212	0.099	0.040
-262.224	-118.279	0.388	-0.068
-261.209	-42.480	-0.293	0.148
-260.195	531.230	0.039	0.092
-259.180	-123.884	-0.155	-0.024
-258.165	19.265	-0.056	0.044
-257.151	-129.945	-0.184	-0.025
-256.136	-163.420	0.184	-0.009
-255.122	-10.994	-0.215	-0.140
-254.107	-109.367	0.257	0.054
-253.092	-200.000	-0.005	0.260
-252.078	256.011	-0.131	0.222
-251.063	35.153	-0.257	0.223
-250.049	-168.278	0.165	0.006
-249.034	-189.255	0.157	-0.002
-248.019	280.847	0.169	-0.299
-247.005	-174.402	-0.237	0.007
-245.990	224.208	0.044	-0.071
-244.976	645.459	0.195	-0.492
-243.961	-134.187	-0.083	-0.010
-242.946	32.260	-0.205	-0.175
-241.932	140.120	0.151	-0.197
-240.917	-154.328	-0.315	-0.021
-239.903	800.000	0.132	0.447
-238.888	-153.229	-0.301	-0.021
-237.873	-53.072	-0.138	-0.063
-236.859	800.000	0.102	0.288
-235.844	135.787	0.234	-0.302
-234.830	-200.000	0.003	0.122
-233.815	-1.816	0.082	-0.057
-232.800	800.000	-0.022	0.079
-231.786	37.248	-0.072	0.063
-230.771	-29.387	-0.343	-0.194
-229.757	-122.387	0.358	-0.058
-228.742	-187.816	0.179	0.002
-227.727	525.999	0.088	0.205
-226.713	326.474	0.045	0.086
-225.698	4.901	-0.118	-0.086
-224.684	-49.276	0.146	0.069
-223.669	2.821	-0.133	-0.095
-222.655	-122.287	-0.190	0.031
-221.640	-200.000	0.003	-0.091
-220.625	-145.570	0.296	0.026
-219.611	271.609	-0.063	-0.110
-218.596	-118.030	0.225	0.040
-217.582	-13.213	-0.175	0.112
-216.567	-124.432	0.147	0.023
-215.552	269.777	-0.098	-0.169
-214.538	800.000	-0.061	0.239
-213.523	-181.293	-0.270	0.005
-212.509	53.278	0.124	0.118
-211.494	214.966	-0.125	0.195
-210.479	-5.107	-0.077	-0.053
-209.465	204.516	0.038	0.058
-208.450	-124.549	0.207	-0.032
-207.436	470.356	-0.054	0.119
-206.421	90.996	-0.144	0.160
-205.406	-76.752	-0.104	0.036
-204.392	-200.000	0.024	0.260
-203.377	-97.080	0.345	0.089
-202.363	429.459	0.105	-0.224
-201.348	46.818	0.017	0.016
-200.333	31.539	-0.206	-0.175
-199.319	647.296	-0.110	0.279
-198.304	439.887	0.078	0.169
-197.290	69.563	-0.066	0.067
-196.275	396.117	0.076	0.156
-195.260	-134.419	0.311	0.038
-194.246	15.003	-0.192	-0.149
-193.231	800.000	-0.114	0.383
-192.217	173.496	-0.210	0.299
-191.202	20.746	0.106	0.084
-190.187	453.102	0.237	-0.517
-189.173	-83.137	0.133	-0.042
-188.158	-107.189	-0.256	-0.056
-187.144	800.000	-0.037	0.160
-186.129	-200.000	-0.097	0.499
-185.114	-72.912	-0.242	-0.088
-184.100	-152.667	-0.478	0.034
-183.085	223.701	-0.048	-0.076
-182.071	-137.734	-0.433	0.048
-181.056	-135.122	-0.434	-0.052
-180.042	-77.734	0.110	0.038
-179.027	-200.000	-0.004	-0.272
-178.012	244.594	0.198	0.328
-176.998	800.000	-0.149	0.431
-175.983	393.385	0.155	0.319
-174.969	-55.763	0.305	0.135
-173.954	-122.864	0.108	-0.017
-172.939	325.223	0.047	-0.089
-171.925	-200.000	0.024	0.263
-170.910	54.236	0.188	-0.179
-169.896	-200.000	0.009	0.058
-168.881	433.812	0.049	0.105
-167.866	-20.736	0.193	0.117
-166.852	62.876	-0.226	0.223
-165.837	800.000	0.075	-0.300
-164.823	168.262	0.215	-0.302
-163.808	-195.890	-0.198	-0.001
-162.793	-73.111	0.190	-0.069
-161.779	-122.718	0.224	-0.036
-160.764	16.398	-0.222	-0.173
-159.750	-67.806	0.534	0.206
-158.735	-200.000	-0.032	0.304
-157.720	-97.440	0.111	-0.028
-156.706	800.000	-0.037	0.122
-155.691	527.329	-0.073	-0.169
-154.677	-18.650	0.100	0.061
-153.662	88.967	0.042	-0.046
-152.647	-200.000	-0.014	0.155
-151.633	33.244	0.063	-0.054
-150.618	-200.000	0.084	0.446
-149.604	-146.755	0.253	0.022
-148.589	-31.426	0.364	-0.202
-147.574	113.486	0.296	0.354
-146.560	-34.518	0.276	-0.149
-145.545	-25.372	-0.350	0.204
-144.531	800.000	0.124	0.402
-143.516	-177.854	0.179	0.004
-142.502	-171.293	0.092	0.003
-141.487	-52.947	-0.097	0.044
-140.472	-200.000	-0.051	0.241
-139.458	-71.076	-0.286	0.106
-138.443	-200.000	0.014	0.133
-137.429	244.051	0.055	-0.091
-136.414	538.929	-0.155	0.364
-135.399	466.352	0.140	-0.309
-134.385	486.430	-0.091	0.205
-133.370	-71.158	-0.149	-0.055
-132.356	-185.954	0.352	0.005
-131.341	11.198	-0.164	0.123
-130.326	219.343	0.111	0.174
-129.312	366.418	-0.075	0.149
-128.297	-56.856	0.271	-0.118
-127.283	124.295	0.143	0.178
-126.268	-145.940	-0.181	0.016
-125.253	-120.517	0.062	-0.010
-124.239	318.448	-0.114	0.212
-123.224	-80.612	-0.192	-0.063
-122.210	-56.055	0.151	0.066
-121.195	140.350	0.132	0.172
-120.180	64.214	-0.227	0.225
-119.166	24.389	-0.305	-0.248
-118.151	758.298	0.069	-0.183
-117.137	-200.000	0.002	0.263
-116.122	166.506	0.120	0.167
-115.107	82.104	0.158	0.168
-114.093	-14.443	-0.285	0.181
-113.078	-11.445	-0.231	-0.149
-112.064	-200.000	-0.054	0.248
-111.049	260.135	0.022	-0.038
-110.034	-115.338	0.238	0.044
-109.020	373.542	0.029	-0.057
-108.005	84.927	-0.150	-0.161
-106.991	-96.203	0.221	0.058
-105.976	359.646	-0.091	0.179
-104.962	243.010	-0.099	-0.164
-103.947	370.690	0.155	0.309
-102.932	-133.481	0.213	0.026
-101.918	-85.806	-0.221	-0.068
-100.903	17.951	-0.057	-0.045
-99.889	-132.854	-0.222	0.028
-98.874	562.956	-0.105	-0.249
-97.859	800.000	0.089	-0.363
-96.845	800.000	0.037	-0.127
-95.830	-50.693	-0.211	0.098
-94.816	-103.056	-0.292	-0.068
-93.801	-165.099	-0.025	-0.001
-92.786	52.496	-0.284	0.267
-91.772	-153.665	0.406	0.028
-90.757	80.511	0.128	-0.135
-89.743	-200.000	0.000	0.143
-88.728	-96.878	0.456	-0.118
-87.713	-33.884	-0.233	0.126
-86.699	-56.120	-0.173	0.076
-85.684	-130.021	0.534	-0.072
-84.670	53.448	-0.104	-0.098
-83.655	-50.590	0.379	-0.176
-82.640	800.000	-0.057	-0.228
-81.626	-200.000	-0.039	0.178
-80.611	800.000	0.032	-0.097
-79.597	-200.000	0.013	-0.147
-78.582	-38.586	0.237	0.123
-77.567	-11.465	-0.278	0.180
-76.553	800.000	-0.025	-0.094
-75.538	-183.629	0.313	0.005
-74.524	520.742	-0.005	0.011
-73.509	169.306	0.217	0.305
-72.494	73.971	0.116	-0.119
-71.480	370.071	-0.056	-0.111
-70.465	182.326	-0.139	-0.201
-69.451	-168.505	-0.254	-0.010
-68.436	-200.000	-0.004	0.211
-67.422	-130.145	-0.168	-0.022
-66.407	800.000	-0.049	-0.205
-65.392	-31.879	0.407	0.224
-64.378	-200.000	0.011	0.084
-63.363	218.862	0.120	0.189
-62.349	-200.000	0.011	-0.125
-61.334	72.493	-1.078	-1.105
-60.319	31.142	0.659	0.556
-59.305	532.391	-0.381	-0.886
-58.290	194.586	0.955	1.423
-57.276	580.062	0.563	1.356
-56.261	-200.000	103.053	596.781
-55.246	561.528	1438.305	3416.542
-54.232	186.560	2627.399	3842.809
-53.217	116.615	2169.347	2614.021
-52.203	41.304	1696.923	1507.317
-51.188	33.690	1506.454	1286.695
-50.173	31.165	1479.658	1246.909
-49.159	51.996	1533.290	1434.334
-48.144	52.875	1550.402	1456.262
-47.130	33.788	1507.503	1288.047
-46.115	30.777	1492.813	1255.180
-45.100	30.575	1489.026	1250.588
-44.086	30.516	1487.115	1248.537
-43.071	30.588	1484.949	1247.150
-42.057	30.465	1483.622	1245.163
-41.042	30.470	1482.023	1243.804
-40.027	30.481	1480.792	1242.795
-39.013	30.457	1479.292	1241.330
-37.998	30.398	1478.354	1240.096
-36.984	30.467	1476.927	1239.314
-35.969	30.476	1475.512	1238.137
-34.954	30.460	1473.529	1236.317
-33.940	30.530	1472.473	1235.844
-32.925	30.438	1471.176	1234.100
-31.911	30.553	1469.766	1233.630
-30.896	30.559	1468.494	1232.553
-29.881	30.564	1467.453	1231.663
-28.867	30.556	1466.128	1230.449
-27.852	30.641	1464.175	1229.325
-26.838	30.563	1463.568	1228.248
-25.823	30.613	1461.476	1226.774
-24.809	30.627	1460.095	1225.657
-23.794	30.592	1458.767	1224.264
-22.779	30.584	1457.337	1222.961
-21.765	30.555	1456.403	1221.940
-20.750	30.553	1455.403	1221.044
-19.736	30.477	1454.332	1219.594
-18.721	30.621	1452.838	1219.238
-17.706	30.381	1452.308	1217.169
-16.692	30.503	1451.334	1217.108
-15.677	30.512	1450.336	1216.282
-14.663	30.443	1449.164	1214.799
-13.648	30.514	1448.439	1214.605
-12.633	30.435	1447.295	1213.079
-11.619	30.457	1446.701	1212.677
-10.604	30.586	1445.331	1212.325
-9.590	30.424	1444.802	1210.775
-8.575	30.431	1443.735	1209.882
-7.560	30.423	1443.312	1209.425
-6.546	30.480	1441.692	1208.390
-5.531	30.370	1441.303	1207.302
-4.517	30.456	1440.488	1207.130
-3.502	30.461	1439.114	1205.961
-2.487	30.390	1438.436	1204.884
-1.473	30.431	1437.400	1204.237
-0.458	30.528	1435.967	1203.615
0.556	29.389	1426.414	1192.337
1.571	26.603	1402.232	1154.288
2.586	23.305	1344.930	1086.821
3.600	21.801	1264.680	1013.196
4.615	20.388	1219.298	968.873
5.629	17.911	1163.980	911.626
6.644	10.979	1082.418	813.139
7.659	5.618	1044.566	758.717
8.673	4.986	1039.378	751.837
9.688	4.912	1035.909	748.905
10.702	4.767	1034.747	747.299
11.717	4.795	1032.906	746.038
12.731	6.865	1034.482	757.036
13.746	13.499	1043.087	795.222
14.761	18.290	1049.468	823.110
15.775	18.466	1048.910	823.444
16.790	17.576	1046.197	816.972
17.804	16.417	1044.388	809.939
18.819	15.645	1042.139	804.429
19.834	15.116	1040.791	800.787
20.848	14.777	1039.997	798.487
21.863	14.625	1039.274	797.135
22.877	14.396	1038.323	795.243
23.892	14.167	1037.480	793.433
24.907	14.059	1036.888	792.395
25.921	14.008	1036.291	791.625
26.936	14.104	1035.715	791.576
27.950	14.119	1034.612	790.730
28.965	14.200	1033.232	789.993
29.980	14.436	1031.684	789.857
30.994	14.344	1031.192	788.977
32.009	14.305	1030.317	788.051
33.023	14.500	1029.054	787.936
34.038	14.547	1028.348	787.550
35.053	14.339	1027.762	786.050
36.067	14.242	1027.211	785.098
37.082	14.240	1025.567	783.762
38.096	14.157	1025.218	783.037
39.111	14.395	1024.361	783.434
40.126	14.423	1023.026	782.475
41.140	14.364	1021.784	781.178
42.155	14.257	1020.882	779.917
43.169	14.065	1020.225	778.449
44.184	13.934	1019.159	776.952
45.199	13.966	1018.040	776.180
46.213	13.994	1017.154	775.565
47.228	14.156	1016.121	775.467
48.242	14.118	1015.312	774.603
49.257	14.207	1014.661	774.455
50.271	14.170	1013.671	773.458
51.286	14.267	1012.376	772.849
52.301	14.311	1011.848	772.581
53.315	14.262	1010.823	771.504
54.330	14.296	1009.697	770.733
55.344	14.079	1009.360	769.404
56.359	13.994	1008.174	768.042
57.374	14.085	1007.451	767.843
58.388	14.162	1006.408	767.334
59.403	14.153	1005.609	766.616
60.417	14.045	1005.082	765.648
61.432	14.052	1003.990	764.781
62.447	14.006	1003.717	764.294
63.461	13.918	1002.745	763.082
64.476	13.848	1001.611	761.832
65.490	13.869	1001.003	761.397
66.505	13.919	1000.362	761.073
67.520	14.072	998.930	760.616
68.534	13.987	998.464	759.801
69.549	14.030	997.982	759.564
70.563	14.082	996.883	758.901
71.578	13.982	996.666	758.212
72.593	13.995	995.140	757.041
73.607	13.949	994.316	756.140
74.622	13.959	993.250	755.306
75.636	13.876	992.588	754.361
76.651	13.869	992.018	753.827
77.666	13.922	991.325	753.476
78.680	13.969	990.505	752.997
79.695	13.933	990.439	752.720
80.709	14.052	989.732	752.651
81.724	14.066	988.389	751.628
82.739	14.104	987.716	751.221
83.753	14.058	987.351	750.671
84.768	14.195	986.602	750.653
85.782	14.258	986.324	750.658
86.797	14.315	985.735	750.399
87.812	14.320	984.854	749.688
88.826	14.268	983.309	748.211
89.841	14.309	982.352	747.598
90.855	14.350	981.905	747.376
91.870	14.306	981.137	746.531
92.884	14.489	980.379	746.706
93.899	14.289	979.793	745.300
94.914	14.359	978.762	744.763
95.928	14.398	978.234	744.469
96.943	14.459	977.264	743.938
97.957	14.323	977.171	743.191
98.972	14.278	975.719	741.824
99.987	14.417	974.884	741.740
101.001	14.308	974.528	740.920
102.016	14.399	973.609	740.557
103.030	14.330	972.854	739.611
104.045	14.328	972.019	738.902
105.060	14.318	971.263	738.220
106.074	14.355	970.374	737.641
107.089	14.201	969.466	736.205
108.103	14.121	967.966	734.649
109.118	14.057	967.332	733.822
110.133	13.928	966.846	732.814
111.147	14.100	965.397	732.410
112.162	14.002	964.834	731.487
113.176	14.115	963.979	731.274
114.191	14.141	963.237	730.759
115.206	14.193	962.255	730.179
116.220	14.213	961.670	729.756
117.235	14.046	960.947	728.413
118.249	14.207	959.931	728.279
119.264	14.234	958.872	727.532
120.279	14.088	958.642	726.655
121.293	14.024	957.623	725.538
122.308	13.962	957.267	724.936
123.322	14.107	956.374	724.824
124.337	13.996	954.851	723.125
125.352	13.965	954.088	722.347
126.366	14.021	952.983	721.690
127.381	13.971	951.932	720.612
128.395	13.942	950.927	719.664
129.410	13.967	950.335	719.260
130.424	14.011	949.328	718.623
131.439	14.052	948.709	718.270
132.454	14.111	947.771	717.749
133.468	14.196	947.150	717.585
134.483	14.203	946.171	716.809
135.497	14.320	945.454	716.707
136.512	14.171	944.917	715.594
137.527	14.161	944.046	714.826
138.541	14.147	943.319	714.152
139.556	14.154	943.051	713.916
140.570	14.240	941.968	713.402
141.585	14.214	941.328	712.745
142.600	14.271	940.850	712.566
143.614	14.366	939.558	711.928
144.629	14.469	938.934	711.832
145.643	14.523	938.517	711.683
146.658	14.537	937.243	710.714
147.673	14.491	936.408	709.823
148.687	14.338	935.582	708.481
149.702	14.159	935.203	707.370
150.716	14.241	933.790	706.586
151.731	14.205	933.039	705.804
152.746	14.090	932.817	705.088
153.760	14.227	931.662	704.732
154.775	14.268	930.957	704.308
155.789	14.316	930.461	704.074
156.804	14.296	929.636	703.304
157.819	14.523	928.910	703.651
158.833	14.425	927.953	702.451
159.848	14.382	927.768	702.068
160.862	14.576	927.033	702.265
161.877	14.573	926.152	701.523
162.892	14.477	925.113	700.273
163.906	14.402	924.199	699.202
164.921	14.312	923.459	698.202
165.935	14.267	922.898	697.530
166.950	14.371	921.352	696.733
167.964	14.402	920.510	696.165
168.979	14.398	919.564	695.371
169.994	14.378	918.780	694.633
171.008	14.233	918.065	693.429
172.023	14.456	917.183	693.629
173.037	14.620	916.335	693.607
174.052	14.619	915.818	693.148
175.067	14.471	915.403	692.158
176.081	14.384	914.194	690.824
177.096	14.368	913.320	690.034
178.110	14.444	912.195	689.441
179.125	14.424	911.836	689.022
180.140	14.468	911.257	688.709
181.154	14.497	910.632	688.292
182.169	14.496	909.893	687.670
183.183	14.603	909.249	687.563
184.198	14.543	908.332	686.563
185.213	14.591	908.308	686.679
186.227	14.673	907.511	686.356
187.242	14.715	906.619	685.794
188.256	14.759	906.104	685.521
189.271	14.759	905.195	684.773
190.286	14.808	904.840	684.645
191.300	14.694	903.694	683.251
192.315	14.486	903.122	681.907
193.329	14.340	902.640	680.887
194.344	14.434	901.951	680.692
195.359	14.412	901.582	680.262
196.373	14.543	900.778	680.131
197.388	14.719	899.976	680.182
198.402	14.904	899.802	680.741
199.417	14.743	899.529	679.819
200.432	14.855	898.843	679.696
201.446	15.021	898.374	679.959
202.461	15.058	897.823	679.630
203.475	15.017	897.787	679.375
204.490	15.040	896.652	678.552
205.504	14.870	896.252	677.498
206.519	14.838	895.711	676.900
207.534	14.897	894.406	676.093
208.548	14.965	893.843	675.883
209.563	14.752	893.078	674.383
210.577	14.912	892.337	674.412
211.592	14.923	891.660	673.885
212.607	14.863	891.575	673.519
213.621	15.103	890.863	673.885
214.636	15.034	890.084	672.961
215.650	15.084	889.599	672.733
216.665	15.172	888.708	672.355
217.680	14.992	888.722	671.582
218.694	15.223	888.147	672.016
219.709	15.216	887.329	671.308
220.723	15.230	886.687	670.819
221.738	15.051	886.268	669.730
222.753	15.117	885.177	669.108
223.767	15.015	885.220	668.672
224.782	15.166	884.500	668.672
225.796	15.301	883.569	668.448
226.811	15.483	882.127	668.024
227.826	15.198	882.236	666.911
228.840	15.249	881.441	666.453
229.855	15.232	880.639	665.721
230.869	15.166	880.009	664.926
231.884	15.050	879.734	664.196
232.899	15.188	878.792	663.976
233.913	15.164	878.090	663.289
234.928	15.076	877.651	662.553
235.942	15.170	876.701	662.147
236.957	15.091	876.165	661.373
237.972	15.132	875.229	660.769
238.986	15.220	874.320	660.369
240.001	15.215	874.019	660.064
241.015	15.207	873.308	659.438
242.030	15.117	873.007	658.798
243.045	15.277	872.023	658.627
244.059	15.219	871.452	657.911
245.074	15.270	871.370	657.989
246.088	15.474	870.071	657.751
247.103	15.319	869.866	656.931
248.117	15.550	868.834	656.997
249.132	15.447	868.727	656.454
250.147	15.530	868.161	656.294
251.161	15.617	867.626	656.169
252.176	15.709	867.022	656.015
253.190	15.796	866.101	655.596
254.205	15.777	865.689	655.155
255.220	15.808	865.515	655.084
256.234	15.806	864.660	654.371
257.249	15.831	863.948	653.874
258.263	15.841	863.420	653.455
259.278	15.852	862.783	652.958
260.293	15.830	862.695	652.749
261.307	15.867	862.002	652.306
262.322	15.865	861.321	651.728
263.336	15.824	860.740	651.072
264.351	16.001	859.993	651.134
265.366	16.091	859.255	650.866
266.380	16.129	858.713	650.543
267.395	15.988	858.468	649.757
268.409	15.915	857.491	648.679
269.424	15.944	856.453	647.947
270.439	15.915	856.003	647.438
271.453	16.053	855.054	647.191
272.468	16.055	854.384	646.635
273.482	15.953	853.858	645.788
274.497	15.960	853.148	645.222
275.512	15.936	852.914	644.894
276.526	15.836	852.356	644.033
277.541	15.961	851.521	643.823
278.555	15.847	850.999	642.938
279.570	16.095	850.351	643.338
280.585	16.230	849.887	643.444
281.599	16.218	849.394	642.967
282.614	16.111	849.116	642.292
283.628	16.091	847.728	641.109
284.643	16.205	847.195	641.086
285.657	16.160	846.690	640.473
286.672	16.148	846.482	640.216
287.687	16.145	846.041	639.812
288.701	15.978	845.859	638.983
289.716	16.134	845.142	638.979
290.730	16.146	844.477	638.463
291.745	16.115	844.133	638.029
292.760	16.201	842.962	637.412
293.774	16.177	842.736	637.096
294.789	16.343	842.091	637.177
295.803	16.303	841.202	636.298
296.818	16.204	840.488	635.328
297.833	16.247	839.516	634.700
298.847	16.255	839.192	634.430
299.862	16.351	838.360	634.104
300.876	16.306	837.957	633.574
301.891	16.401	837.158	633.269
302.906	16.402	836.711	632.879
303.920	16.445	836.078	632.506
304.935	16.573	835.452	632.453
305.949	16.496	835.019	631.782
306.964	16.568	834.459	631.574
307.979	16.639	833.575	631.112
308.993	16.579	833.397	630.698
310.008	16.594	832.545	630.055
311.022	16.579	832.263	629.729
312.037	16.679	831.602	629.545
313.052	16.603	831.265	628.953
314.066	16.496	830.409	627.850
315.081	16.429	830.035	627.264
316.095	16.501	829.246	626.879
317.110	16.485	828.648	626.312
318.125	16.454	828.247	625.838
319.139	16.384	827.911	625.272
320.154	16.495	827.355	625.207
321.168	16.571	826.927	625.107
322.183	16.570	826.047	624.385
323.197	16.519	826.016	624.119
324.212	16.559	825.118	623.530
325.227	16.463	824.903	622.958
326.241	16.668	824.355	623.245
327.256	16.563	823.743	622.342
328.270	16.621	823.072	621.991
329.285	16.621	822.345	621.386
330.300	16.460	821.861	620.376
331.314	16.474	821.539	620.129
332.329	16.550	820.553	619.608
333.343	16.656	820.237	619.703
334.358	16.749	819.552	619.471
335.373	16.710	819.218	619.022
336.387	16.927	818.812	619.453
337.402	16.756	818.540	618.570
338.416	16.985	817.534	618.587
339.431	16.854	817.248	617.838
340.446	16.977	816.586	617.733
341.460	16.979	816.198	617.390
342.475	17.024	815.580	617.033
343.489	17.178	814.632	616.821
344.504	17.057	814.628	616.322
345.519	17.215	813.847	616.250
346.533	17.117	813.481	615.566
347.548	17.147	813.239	615.433
348.562	17.004	812.752	614.493
349.577	17.138	811.645	614.089
350.592	17.086	810.859	613.252
351.606	16.965	810.499	612.485
352.621	16.771	810.216	611.517
353.635	17.032	809.842	612.125
354.650	17.033	809.522	611.831
355.665	17.099	809.123	611.712
356.679	17.216	808.454	611.575
357.694	17.102	808.043	610.800
358.708	17.157	807.414	610.468
359.723	17.164	807.242	610.309
360.738	17.331	806.267	610.119
361.752	17.199	805.986	609.378
362.767	17.292	805.736	609.468
363.781	17.093	805.565	608.570
364.796	17.318	804.909	608.826
365.810	17.343	804.474	608.535
366.825	17.489	804.198	608.793
367.840	17.403	803.759	608.099
368.854	17.466	803.355	607.963
369.869	17.501	802.544	607.423
370.883	17.328	802.183	606.479
371.898	17.438	801.650	606.413
372.913	17.666	800.623	606.395
373.927	17.547	800.442	605.780
374.942	17.478	799.738	604.949
375.956	17.373	799.168	604.090
376.971	17.560	798.636	604.299
377.986	17.640	798.173	604.179
379.000	17.649	797.644	603.759
380.015	17.670	797.355	603.561
381.029	17.741	796.584	603.172
382.044	17.536	796.513	602.341
383.059	17.914	795.189	602.621
384.073	17.706	795.071	601.744
385.088	17.714	794.595	601.361
386.102	17.802	793.763	600.988
387.117	17.744	793.364	600.429
388.132	17.576	792.629	599.228
389.146	17.656	792.273	599.187
390.161	17.703	792.067	599.143
391.175	17.738	792.171	599.290
392.190	17.804	791.703	599.117
393.205	17.769	791.045	598.443
394.219	17.810	790.566	598.170
395.234	17.635	790.130	597.175
396.248	17.625	789.451	596.572
397.263	17.575	788.880	595.913
398.278	17.727	788.707	596.263
399.292	17.506	788.037	594.930
400.307	17.575	787.744	594.898
401.321	17.608	787.321	594.640
402.336	17.624	786.917	594.339
403.350	17.715	786.909	594.598
404.365	17.684	786.159	593.870
405.380	17.836	785.774	594.055
406.394	17.785	785.527	593.639
407.409	18.020	784.838	593.882
408.423	18.024	784.368	593.488
409.438	17.871	784.232	592.803
410.453	18.003	783.635	592.755
411.467	18.060	783.351	592.685
412.482	18.074	782.597	592.111
413.496	18.152	782.052	591.919
414.511	18.182	781.883	591.841
415.526	18.068	781.997	591.480
416.540	18.109	781.523	591.213
417.555	18.176	780.965	590.970
418.569	18.109	780.140	590.061
419.584	18.112	779.773	589.740
420.599	18.066	779.752	589.513
421.613	157.235	1369.053	1795.611
422.628	135.706	1454.928	1795.677
