DTS Sentinel unit serial number:	SN413079Multiplexer serial number:	ORYXHardware model number:	OX4-SRSoftware version number:	ORYX F/W v4.00 Oryx Data Collector v3.7.2.0data status	okinstallation	princeton_trtdifferential loss correction	single-endedforward channel	channel 3reverse channel	N/Adate	2019/09/14time	21:24:35forward acquisition time	60.00reverse acquisition time	0.00gamma	496.2192k internal	0.2318k external	0.2318temperature offset calibration	0.9997default loss term (dB/km)	0.3790temperature slope calibration	1.0000multiplexer offset coefficient	1.0000multiplexer slope coefficient	1.0000fibre end	0.00T internal ref (°C)	32.94T ext. ref 1 (°C)	4.78T ext. ref 2 (°C)	27.75length (m)	temperature (°C)	Stokes	anti-Stokes-747.200	-46.160	0.280	-0.139
-746.185	-4.728	-0.298	0.208
-745.171	100.568	0.136	-0.160
-744.156	324.642	-0.123	-0.238
-743.142	81.069	-0.207	0.226
-742.127	-31.580	-0.232	0.132
-741.112	22.081	0.157	0.130
-740.098	-103.127	-0.205	0.049
-739.083	84.309	-0.063	-0.070
-738.069	518.046	-0.179	0.425
-737.054	-200.000	0.023	-0.297
-736.039	800.000	-0.055	0.165
-735.025	-1.151	0.082	-0.059
-734.010	136.593	0.209	-0.277
-732.996	-200.000	-0.350	0.001
-731.981	3.988	0.045	-0.033
-730.966	-200.000	0.016	-0.134
-729.952	-191.723	-0.231	-0.002
-728.937	-133.945	-0.329	0.041
-727.923	-200.000	0.005	0.337
-726.908	259.160	-0.031	-0.054
-725.894	32.316	0.214	0.187
-724.879	242.764	-0.062	0.104
-723.864	800.000	0.026	-0.082
-722.850	-8.703	-0.277	0.188
-721.835	-145.619	-0.357	-0.032
-720.821	-103.126	-0.319	0.076
-719.806	709.777	-0.074	-0.197
-718.791	-34.011	-0.202	0.112
-717.777	-150.891	-0.129	-0.010
-716.762	259.128	0.174	-0.303
-715.748	-91.085	-0.133	-0.039
-714.733	-200.000	-0.012	-0.177
-713.718	-200.000	-0.006	-0.035
-712.704	-138.397	-0.226	-0.025
-711.689	460.196	-0.046	0.104
-710.675	177.944	0.199	-0.293
-709.660	61.544	0.033	0.033
-708.645	-200.000	0.019	0.348
-707.631	4.686	0.075	-0.055
-706.616	-150.895	0.049	-0.004
-705.602	-200.000	0.076	0.364
-704.587	282.638	-0.100	-0.180
-703.572	253.286	0.075	-0.129
-702.558	-63.990	-0.156	0.064
-701.543	-160.753	-0.320	0.017
-700.529	766.909	0.083	-0.228
-699.514	800.000	0.096	-0.423
-698.499	202.109	-0.101	0.157
-697.485	800.000	0.132	-0.374
-696.470	371.612	-0.043	0.089
-695.456	-200.000	-0.026	0.236
-694.441	-63.554	-0.230	-0.096
-693.426	325.006	-0.109	-0.211
-692.412	-54.708	-0.121	0.055
-691.397	551.054	-0.032	0.078
-690.383	13.940	0.232	-0.183
-689.368	-200.000	0.026	0.168
-688.354	463.824	0.027	-0.060
-687.339	800.000	0.112	-0.323
-686.324	294.712	0.090	-0.166
-685.310	-200.000	-0.033	-0.496
-684.295	800.000	-0.036	0.124
-683.281	32.930	-0.141	0.123
-682.266	242.390	-0.171	0.290
-681.251	191.055	-0.139	0.211
-680.237	-200.000	0.004	0.026
-679.222	-200.000	0.105	0.489
-678.208	-200.000	-0.043	0.286
-677.193	-91.695	-0.562	0.161
-676.178	-96.774	-0.247	0.065
-675.164	17.927	0.114	-0.092
-674.149	-89.771	0.200	0.059
-673.135	193.763	-0.060	-0.092
-672.120	-200.000	0.006	0.127
-671.105	-19.078	0.371	0.233
-670.091	-200.000	0.033	0.236
-669.076	-200.000	-0.000	-0.144
-668.062	-112.439	-0.045	-0.009
-667.047	-101.023	-0.186	-0.046
-666.032	-120.261	0.174	-0.030
-665.018	716.041	0.075	-0.202
-664.003	324.860	-0.197	-0.379
-662.989	-102.139	0.399	-0.097
-661.974	-200.000	0.018	0.223
-660.959	-172.155	-0.240	-0.008
-659.945	60.346	0.197	-0.197
-658.930	-200.000	0.037	0.256
-657.916	380.843	-0.059	-0.122
-656.901	201.647	-0.154	0.240
-655.886	-45.989	-0.299	-0.149
-654.872	198.648	0.085	0.132
-653.857	-120.943	0.272	0.046
-652.843	-200.000	-0.025	0.288
-651.828	191.433	0.152	-0.231
-650.814	800.000	0.075	0.225
-649.799	194.830	0.147	-0.225
-648.784	-18.506	0.219	-0.138
-647.770	-102.161	-0.484	-0.117
-646.755	-200.000	0.021	-0.203
-645.741	-145.533	-0.256	-0.023
-644.726	-200.000	-0.002	0.385
-643.711	108.448	-0.147	0.177
-642.697	-200.000	-0.010	-0.081
-641.682	31.187	0.178	-0.154
-640.668	139.845	-0.087	0.115
-639.653	122.037	-0.043	0.054
-638.638	-200.000	0.050	-0.265
-637.624	-28.728	-0.228	0.132
-636.609	-50.556	0.084	-0.040
-635.595	-48.819	0.087	0.042
-634.580	-52.453	0.325	0.152
-633.565	-89.587	-0.184	0.054
-632.551	28.859	0.264	-0.225
-631.536	56.145	-0.376	0.367
-630.522	800.000	0.047	-0.148
-629.507	800.000	0.108	0.306
-628.492	-119.075	0.045	0.008
-627.478	143.966	-0.084	0.113
-626.463	800.000	0.055	0.203
-625.449	-144.161	-0.080	-0.008
-624.434	484.334	-0.096	-0.220
-623.419	-5.635	0.356	0.246
-622.405	-36.929	0.107	-0.058
-621.390	43.886	-0.009	-0.008
-620.376	272.034	-0.076	0.134
-619.361	23.620	-0.205	0.170
-618.346	-53.574	-0.216	0.100
-617.332	226.577	-0.061	0.100
-616.317	-200.000	-0.043	-0.453
-615.303	-134.540	-0.162	-0.020
-614.288	-200.000	0.022	-0.201
-613.273	-96.941	0.123	0.032
-612.259	-67.047	0.150	0.060
-611.244	-160.564	-0.199	0.011
-610.230	83.724	-0.054	-0.059
-609.215	346.432	-0.078	-0.154
-608.201	800.000	-0.093	0.380
-607.186	-169.360	-0.076	0.003
-606.171	19.978	0.041	-0.033
-605.157	-144.204	-0.256	0.024
-604.142	590.491	0.082	-0.205
-603.128	111.626	-0.029	0.035
-602.113	800.000	0.061	0.197
-601.098	223.922	-0.046	0.074
-600.084	-92.262	-0.423	-0.120
-599.069	-200.000	-0.029	0.231
-598.055	-162.145	0.172	-0.009
-597.040	438.743	0.021	-0.045
-596.025	-71.888	-0.131	0.049
-595.011	-21.130	-0.234	-0.144
-593.996	191.847	-0.066	-0.100
-592.982	54.322	-0.003	-0.003
-591.967	-32.250	0.165	0.093
-590.952	781.690	-0.102	-0.281
-589.938	-37.046	0.360	0.194
-588.923	77.252	-0.058	-0.062
-587.909	39.744	0.266	-0.240
-586.894	-81.322	0.106	0.035
-585.879	-77.497	0.248	0.087
-584.865	199.382	-0.062	-0.096
-583.850	-20.283	-0.262	-0.162
-582.836	-3.371	0.256	-0.179
-581.821	-16.927	0.210	-0.133
-580.806	170.576	-0.164	-0.236
-579.792	-104.607	-0.007	-0.002
-578.777	800.000	0.003	-0.010
-577.763	365.657	0.159	-0.322
-576.748	800.000	-0.082	-0.259
-575.733	-96.144	-0.288	0.077
-574.719	-136.613	-0.143	0.017
-573.704	-35.798	0.453	-0.247
-572.690	658.350	-0.066	-0.169
-571.675	-41.352	0.136	0.070
-570.661	-200.000	-0.040	-0.179
-569.646	11.171	-0.206	-0.159
-568.631	0.412	0.315	0.226
-567.617	86.057	-0.027	0.030
-566.602	355.167	-0.051	-0.102
-565.588	-27.189	-0.449	-0.263
-564.573	-200.000	0.036	-0.233
-563.558	-194.909	-0.221	-0.002
-562.544	19.751	-0.116	-0.094
-561.529	-200.000	0.009	0.129
-560.515	-140.443	-0.118	0.012
-559.500	-34.336	0.256	-0.141
-558.485	44.335	-0.089	0.082
-557.471	-200.000	0.035	-0.191
-556.456	77.426	-0.212	0.226
-555.442	-16.147	-0.113	0.072
-554.427	115.341	0.161	0.198
-553.412	58.375	-0.095	0.093
-552.398	627.956	-0.015	-0.039
-551.383	40.688	-0.049	0.045
-550.369	12.563	-0.132	-0.103
-549.354	-51.997	0.331	0.155
-548.339	423.525	0.089	-0.192
-547.325	306.102	0.051	-0.095
-546.310	-71.868	0.042	0.016
-545.296	-200.000	-0.003	-0.382
-544.281	-200.000	0.003	0.102
-543.266	100.806	0.155	-0.181
-542.252	338.259	0.028	-0.055
-541.237	-170.921	-0.192	0.007
-540.223	-29.849	0.231	-0.132
-539.208	117.750	0.277	0.343
-538.193	800.000	0.053	-0.158
-537.179	-54.020	-0.045	0.020
-536.164	74.451	-0.189	0.199
-535.150	800.000	0.025	-0.101
-534.135	-200.000	0.024	0.214
-533.121	-71.471	-0.186	-0.070
-532.106	-162.195	-0.254	-0.013
-531.091	-58.488	-0.177	-0.077
-530.077	312.726	0.081	0.153
-529.062	800.000	0.040	0.166
-528.048	310.956	-0.072	0.136
-527.033	-59.785	0.124	0.053
-526.018	-39.030	0.068	-0.036
-525.004	-95.143	0.191	0.052
-523.989	136.624	-0.275	0.360
-522.975	-0.046	-0.173	-0.123
-521.960	-200.000	-0.022	0.124
-520.945	800.000	0.086	0.248
-519.931	679.426	-0.105	0.275
-518.916	-200.000	-0.067	0.298
-517.902	80.532	-0.113	-0.122
-516.887	-110.021	0.146	-0.031
-515.872	-48.950	0.158	-0.076
-514.858	622.474	-0.061	0.154
-513.843	-7.103	-0.134	-0.091
-512.829	-64.102	0.184	0.075
-511.814	-200.000	-0.007	0.170
-510.799	-124.972	-0.168	-0.026
-509.785	-200.000	0.024	0.207
-508.770	330.510	-0.126	-0.242
-507.756	-67.077	0.208	0.082
-506.741	-18.249	-0.211	0.132
-505.726	-120.951	0.388	0.065
-504.712	-200.000	-0.006	0.456
-503.697	36.391	-0.110	-0.097
-502.683	800.000	-0.021	-0.094
-501.668	239.746	-0.210	-0.351
-500.653	800.000	-0.146	0.428
-499.639	-200.000	0.020	0.144
-498.624	-169.450	-0.520	-0.019
-497.610	-18.231	0.223	-0.140
-496.595	-63.740	0.489	0.201
-495.581	-130.326	0.155	0.021
-494.566	62.340	0.080	-0.080
-493.551	93.076	0.049	0.055
-492.537	-200.000	0.090	0.450
-491.522	28.035	0.243	-0.206
-490.508	-112.454	-0.208	0.042
-489.493	-74.976	0.142	0.051
-488.478	114.204	0.026	0.032
-487.464	-200.000	0.016	-0.204
-486.449	-77.535	0.234	-0.081
-485.435	4.991	-0.208	0.154
-484.420	-200.000	-0.013	0.298
-483.405	800.000	0.048	0.162
-482.391	800.000	-0.084	0.236
-481.376	-30.110	0.097	0.056
-480.362	-200.000	-0.028	0.224
-479.347	-200.000	-0.125	0.000
-478.332	120.778	0.153	0.191
-477.318	-200.000	-0.003	-0.032
-476.303	111.943	-0.210	-0.254
-475.289	-200.000	0.070	-0.318
-474.274	-127.741	-0.097	-0.014
-473.259	-81.326	-0.280	-0.092
-472.245	800.000	-0.090	0.296
-471.230	-8.220	0.106	0.072
-470.216	-200.000	-0.059	0.264
-469.201	-200.000	-0.002	0.104
-468.186	800.000	-0.024	0.068
-467.172	173.869	0.184	-0.267
-466.157	480.376	0.087	-0.197
-465.143	42.802	0.053	-0.048
-464.128	656.176	-0.060	-0.155
-463.113	22.913	-0.058	0.047
-462.099	148.800	0.017	-0.023
-461.084	-176.602	0.121	-0.003
-460.070	-152.377	-0.298	0.021
-459.055	-200.000	0.011	-0.145
-458.040	9.256	0.075	-0.057
-457.026	-200.000	0.029	-0.356
-456.011	2.580	0.073	0.053
-454.997	-94.242	0.184	-0.050
-453.982	58.670	-0.132	-0.129
-452.968	-50.093	-0.044	-0.021
-451.953	-90.848	0.104	-0.030
-450.938	293.443	-0.135	0.247
-449.924	401.047	-0.034	0.071
-448.909	16.217	-0.223	-0.176
-447.895	-200.000	-0.063	0.349
-446.880	-91.296	-0.133	0.038
-445.865	13.161	0.145	-0.113
-444.851	63.536	-0.050	0.050
-443.836	-200.000	0.040	-0.225
-442.822	118.220	0.134	0.165
-441.807	-73.439	-0.210	0.077
-440.792	-56.831	0.208	-0.092
-439.778	188.271	0.086	0.128
-438.763	31.402	0.054	-0.046
-437.749	-200.000	-0.050	-0.374
-436.734	-145.438	-0.122	-0.011
-435.719	-139.468	-0.356	0.038
-434.705	-1.587	0.122	0.086
-433.690	-200.000	-0.068	0.430
-432.676	-104.053	-0.344	-0.080
-431.661	8.469	0.224	0.168
-430.646	-200.000	0.007	0.244
-429.632	195.149	-0.210	0.319
-428.617	71.428	-0.076	-0.079
-427.603	800.000	-0.075	0.252
-426.588	712.730	-0.053	0.141
-425.573	0.615	0.090	-0.065
-424.559	-87.668	-0.545	-0.164
-423.544	47.344	-0.106	-0.099
-422.530	655.555	-0.043	0.111
-421.515	-200.000	0.054	0.307
-420.500	-35.997	-0.122	-0.066
-419.486	-40.039	0.235	0.123
-418.471	29.822	0.128	-0.109
-417.457	-26.249	-0.129	-0.076
-416.442	-200.000	0.008	-0.060
-415.428	458.672	-0.066	0.147
-414.413	-121.280	0.391	0.065
-413.398	188.667	-0.079	0.118
-412.384	800.000	-0.073	-0.307
-411.369	-98.117	-0.150	-0.039
-410.355	-57.471	0.197	0.087
-409.340	-200.000	0.003	0.420
-408.325	-200.000	0.034	0.288
-407.311	193.893	-0.239	0.362
-406.296	628.007	-0.044	-0.111
-405.282	800.000	0.022	0.073
-404.267	800.000	-0.022	-0.093
-403.252	800.000	-0.098	0.369
-402.238	-89.327	0.334	-0.098
-401.223	365.211	-0.065	0.130
-400.209	205.903	0.021	0.032
-399.194	-36.522	-0.181	-0.097
-398.179	37.744	-0.085	-0.075
-397.165	-98.115	0.089	0.023
-396.150	145.029	-0.060	-0.080
-395.136	14.308	0.179	0.139
-394.121	-76.140	-0.203	0.072
-393.106	429.953	-0.078	-0.169
-392.092	-96.691	0.237	-0.062
-391.077	502.366	0.095	0.219
-390.063	-99.005	0.101	0.026
-389.048	18.591	-0.118	0.094
-388.033	-200.000	-0.046	0.620
-387.019	-108.099	-0.074	-0.016
-386.004	-200.000	0.041	0.337
-384.990	-77.907	-0.164	0.057
-383.975	-38.726	-0.068	-0.036
-382.960	455.847	-0.069	0.152
-381.946	-39.259	0.265	-0.139
-380.931	-200.000	-0.081	0.457
-379.917	-200.000	0.012	-0.062
-378.902	409.495	0.096	0.202
-377.888	134.179	0.216	0.279
-376.873	-87.440	-0.169	0.051
-375.858	-189.948	0.225	-0.003
-374.844	148.273	0.115	-0.155
-373.829	47.218	-0.256	0.237
-372.815	-14.954	0.307	0.196
-371.800	281.785	-0.102	-0.182
-370.785	-102.613	-0.396	-0.094
-369.771	-45.040	0.190	0.094
-368.756	20.100	0.319	-0.257
-367.742	19.089	-0.147	-0.117
-366.727	185.830	0.166	0.246
-365.712	-155.389	-0.248	-0.016
-364.698	256.999	-0.052	-0.090
-363.683	-118.748	0.327	-0.057
-362.669	-78.512	0.207	-0.071
-361.654	800.000	0.129	0.400
-360.639	260.228	-0.051	-0.089
-359.625	126.650	0.140	0.177
-358.610	-200.000	0.012	-0.125
-357.596	800.000	-0.038	-0.123
-356.581	-200.000	-0.032	0.252
-355.566	614.040	0.038	-0.094
-354.552	800.000	-0.101	0.352
-353.537	125.161	-0.077	0.097
-352.523	-9.481	0.182	-0.121
-351.508	-19.432	-0.069	-0.043
-350.493	-200.000	0.023	-0.374
-349.479	-11.219	-0.177	0.116
-348.464	-154.422	0.117	-0.008
-347.450	367.397	0.221	-0.446
-346.435	-134.187	0.426	-0.052
-345.420	-84.402	0.239	0.075
-344.406	17.796	0.146	0.116
-343.391	-140.830	-0.291	0.030
-342.377	800.000	-0.099	0.344
-341.362	9.293	0.066	-0.050
-340.348	456.785	0.143	-0.316
-339.333	-56.900	0.202	0.089
-338.318	150.798	-0.113	0.152
-337.304	682.832	-0.073	0.190
-336.289	112.585	-0.200	0.241
-335.275	69.453	0.138	0.141
-334.260	-131.745	0.310	-0.040
-333.245	-200.000	0.021	-0.139
-332.231	70.966	0.216	0.222
-331.216	476.545	0.023	0.052
-330.202	-122.425	-0.401	-0.065
-329.187	-200.000	-0.023	0.204
-328.172	89.179	-0.226	0.251
-327.158	-165.121	0.158	-0.007
-326.143	41.252	0.142	-0.128
-325.129	-72.463	0.168	-0.062
-324.114	-83.081	-0.118	0.038
-323.099	246.459	0.211	0.353
-322.085	-11.889	0.114	-0.074
-321.070	-169.216	-0.173	0.006
-320.056	196.004	-0.363	-0.550
-319.041	-52.228	0.166	-0.077
-318.026	6.607	-0.145	0.107
-317.012	-3.053	0.236	-0.164
-315.997	-116.028	-0.200	0.037
-314.983	52.134	-0.262	0.248
-313.968	-200.000	0.043	0.200
-312.953	252.172	0.169	-0.286
-311.939	97.087	-0.051	-0.058
-310.924	296.725	0.027	-0.049
-309.910	404.429	0.244	-0.511
-308.895	-19.097	-0.083	-0.051
-307.880	-200.000	0.019	-0.109
-306.866	779.700	0.037	0.102
-305.851	-91.091	0.329	0.094
-304.837	116.037	0.175	0.214
-303.822	-78.042	-0.386	0.132
-302.807	245.063	-0.123	-0.206
-301.793	75.898	-0.059	0.062
-300.778	81.323	-0.094	0.101
-299.764	-95.676	-0.356	-0.095
-298.749	-200.000	-0.081	-0.354
-297.735	88.287	0.100	0.110
-296.720	58.709	-0.294	0.287
-295.705	-20.243	-0.343	0.210
-294.691	11.440	0.129	0.098
-293.676	-140.389	-0.201	-0.021
-292.662	117.029	-0.072	0.088
-291.647	-200.000	0.034	-0.200
-290.632	-44.288	-0.255	0.127
-289.618	71.915	0.067	-0.069
-288.603	-95.329	0.248	0.066
-287.589	-110.876	0.222	0.045
-286.574	161.229	0.098	0.137
-285.559	-179.177	-0.271	-0.006
-284.545	-88.336	-0.336	0.100
-283.530	-3.416	0.172	0.119
-282.516	-23.829	0.259	-0.154
-281.501	17.833	-0.048	0.038
-280.486	-5.875	-0.039	-0.027
-279.472	774.493	-0.079	-0.215
-278.457	-200.000	-0.045	0.287
-277.443	-200.000	-0.000	0.102
-276.428	800.000	0.024	-0.085
-275.413	-13.231	-0.096	0.062
-274.399	-28.987	0.312	0.178
-273.384	-102.421	0.223	-0.053
-272.370	-170.933	0.197	-0.007
-271.355	-200.000	-0.001	-0.223
-270.340	33.578	0.314	-0.271
-269.326	-95.832	0.173	0.046
-268.311	5.047	0.193	-0.141
-267.297	-179.982	0.087	0.002
-266.282	-200.000	-0.019	0.171
-265.267	688.556	-0.158	-0.409
-264.253	-23.900	0.070	0.042
-263.238	-200.000	-0.020	0.228
-262.224	139.112	-0.064	-0.084
-261.209	-15.288	0.182	-0.116
-260.195	781.595	0.097	0.262
-259.180	-121.622	-0.161	-0.026
-258.165	-200.000	0.015	0.113
-257.151	116.091	-0.129	0.157
-256.136	800.000	0.040	-0.126
-255.122	530.665	0.092	0.216
-254.107	470.042	0.062	-0.138
-253.092	68.620	0.107	-0.109
-252.078	590.763	-0.047	-0.115
-251.063	44.545	0.062	-0.057
-250.049	-151.282	0.168	0.012
-249.034	137.155	0.161	-0.208
-248.019	-200.000	-0.022	-0.343
-247.005	150.556	-0.315	-0.424
-245.990	-83.186	-0.326	-0.104
-244.976	25.644	-0.115	-0.095
-243.961	11.246	0.224	-0.170
-242.946	-200.000	0.042	-0.242
-241.932	-118.533	0.137	0.024
-240.917	168.481	-0.290	-0.410
-239.903	-95.058	0.094	0.025
-238.888	-137.241	-0.179	0.020
-237.873	-74.711	-0.173	-0.062
-236.859	17.581	0.247	0.194
-235.844	-14.294	0.041	-0.026
-234.830	-49.100	0.228	-0.108
-233.815	196.397	0.170	-0.258
-232.800	318.713	0.175	0.329
-231.786	-165.232	0.139	-0.006
-230.771	289.687	-0.117	-0.211
-229.757	458.289	0.016	0.035
-228.742	-200.000	-0.010	0.109
-227.727	-31.202	-0.310	-0.173
-226.713	-200.000	0.009	-0.197
-225.698	28.961	-0.100	0.084
-224.684	146.296	0.147	-0.195
-223.669	116.424	0.128	0.155
-222.655	125.171	-0.057	-0.071
-221.640	9.763	-0.184	-0.138
-220.625	1.133	0.136	0.097
-219.611	352.367	-0.044	0.087
-218.596	456.499	0.050	-0.111
-217.582	800.000	-0.068	-0.264
-216.567	-124.104	0.296	0.046
-215.552	221.613	-0.058	-0.093
-214.538	-108.324	0.301	0.064
-213.523	1.016	-0.100	-0.071
-212.509	16.335	-0.180	0.140
-211.494	7.318	0.070	0.052
-210.479	-106.826	0.106	0.023
-209.465	-142.110	-0.280	-0.028
-208.450	-3.745	-0.283	-0.195
-207.436	197.219	0.165	-0.250
-206.421	-55.572	0.138	0.061
-205.406	-200.000	0.031	0.185
-204.392	210.011	0.147	-0.228
-203.377	540.744	0.179	0.424
-202.363	393.844	-0.115	-0.237
-201.348	800.000	0.063	-0.192
-200.333	48.986	0.138	-0.128
-199.319	-200.000	0.013	-0.179
-198.304	-105.691	0.228	0.051
-197.290	165.204	-0.332	-0.465
-196.275	248.255	-0.154	-0.259
-195.260	-200.000	0.001	0.227
-194.246	45.722	0.121	-0.111
-193.231	-200.000	-0.050	0.296
-192.217	800.000	0.036	-0.102
-191.202	30.016	0.166	0.140
-190.187	800.000	0.067	-0.279
-189.173	800.000	0.054	0.176
-188.158	-85.775	0.248	-0.076
-187.144	-69.058	-0.174	0.066
-186.129	47.123	-0.186	-0.171
-185.114	35.805	0.037	0.032
-184.100	7.740	-0.036	-0.026
-183.085	35.546	-0.066	0.057
-182.071	1.068	-0.110	0.078
-181.056	-108.838	-0.137	0.029
-180.042	-55.012	-0.304	0.135
-179.027	178.800	0.168	-0.243
-178.012	-199.818	0.132	0.001
-176.998	-141.866	0.166	-0.016
-175.983	-200.000	-0.106	-0.461
-174.969	360.036	-0.064	-0.127
-173.954	-143.336	-0.131	-0.012
-172.939	138.343	0.069	0.089
-171.925	261.984	-0.073	0.125
-170.910	-100.095	0.249	0.061
-169.896	521.695	0.046	-0.106
-168.881	48.612	-0.151	0.140
-167.866	102.698	0.091	-0.106
-166.852	800.000	-0.073	-0.275
-165.837	134.451	0.138	0.177
-164.823	-200.000	0.029	-0.216
-163.808	800.000	-0.018	-0.054
-162.793	691.027	-0.041	-0.105
-161.779	-200.000	-0.031	-0.140
-160.764	222.229	0.102	-0.162
-159.750	397.924	-0.129	-0.266
-158.735	-116.692	-0.174	0.032
-157.720	29.724	-0.061	0.052
-156.706	424.384	0.068	-0.144
-155.691	-39.843	0.241	-0.124
-154.677	13.365	0.165	0.127
-153.662	800.000	-0.147	-0.514
-152.647	-200.000	-0.045	-0.389
-151.633	-26.092	0.144	-0.084
-150.618	-14.669	-0.333	0.211
-149.604	-150.030	0.311	0.024
-148.589	-74.657	0.174	-0.062
-147.574	452.844	0.085	-0.186
-146.560	-31.003	0.035	-0.020
-145.545	-15.332	0.334	0.211
-144.531	-94.847	0.281	-0.075
-143.516	-109.439	0.034	-0.007
-142.502	-161.480	0.076	-0.004
-141.487	297.201	0.144	-0.261
-140.472	-200.000	-0.023	0.288
-139.458	169.330	-0.070	-0.099
-138.443	-48.765	0.059	-0.028
-137.429	-177.585	-0.286	0.007
-136.414	130.506	0.141	-0.179
-135.399	346.981	-0.006	0.011
-134.385	99.593	-0.036	0.042
-133.370	-38.602	0.097	-0.051
-132.356	800.000	-0.101	-0.368
-131.341	-111.599	0.335	-0.067
-130.326	-38.805	0.370	0.193
-129.312	-171.304	-0.217	0.007
-128.297	-117.716	0.114	0.020
-127.283	800.000	0.066	0.182
-126.268	-22.975	-0.223	0.133
-125.253	-126.573	0.460	0.067
-124.239	-33.601	0.093	0.050
-123.224	-200.000	0.006	0.307
-122.210	-200.000	0.007	0.045
-121.195	800.000	0.091	0.254
-120.180	77.652	0.093	0.098
-119.166	502.161	-0.156	0.356
-118.151	67.272	0.236	-0.238
-117.137	-200.000	-0.010	-0.176
-116.122	125.259	-0.159	-0.198
-115.107	-31.856	0.279	-0.154
-114.093	6.986	-0.444	-0.327
-113.078	650.009	0.089	-0.225
-112.064	358.861	0.081	0.160
-111.049	-147.702	0.065	-0.005
-110.034	463.986	-0.119	0.263
-109.020	52.663	0.125	-0.118
-108.005	-200.000	-0.009	-0.249
-106.991	-200.000	-0.047	-0.296
-105.976	-23.189	-0.190	-0.113
-104.962	185.682	0.175	-0.256
-103.947	-46.860	0.049	0.024
-102.932	724.581	-0.084	0.220
-101.918	-200.000	-0.018	0.157
-100.903	-189.709	0.139	-0.002
-99.889	31.418	0.174	-0.148
-98.874	31.573	0.060	-0.051
-97.859	-31.473	-0.270	0.150
-96.845	128.701	0.133	0.167
-95.830	-14.113	-0.132	-0.084
-94.816	-200.000	-0.013	-0.141
-93.801	-153.987	0.360	0.024
-92.786	626.339	0.105	-0.260
-91.772	24.891	0.128	0.105
-90.757	-66.055	0.123	0.048
-89.743	-46.920	-0.185	-0.089
-88.728	-200.000	-0.016	0.300
-87.713	-30.340	0.358	0.201
-86.699	-104.754	-0.214	0.049
-85.684	53.390	0.258	0.244
-84.670	-67.783	-0.114	-0.044
-83.655	81.037	0.213	0.226
-82.640	48.857	-0.184	-0.170
-81.626	226.297	0.076	0.122
-80.611	77.227	-0.266	0.279
-79.597	800.000	0.074	-0.314
-78.582	749.058	-0.058	0.155
-77.567	-114.218	0.108	-0.021
-76.553	79.925	0.145	-0.154
-75.538	81.352	0.169	-0.180
-74.524	12.016	-0.358	-0.271
-73.509	11.905	0.185	-0.140
-72.494	-117.640	0.406	-0.072
-71.480	800.000	0.087	-0.353
-70.465	113.665	-0.054	0.064
-69.451	-5.547	0.208	0.141
-68.436	-30.779	0.171	0.095
-67.422	78.617	-0.076	-0.080
-66.407	800.000	-0.079	0.220
-65.392	-200.000	-0.001	-0.055
-64.378	198.873	-0.215	-0.324
-63.363	800.000	0.050	0.207
-62.349	800.000	0.086	0.365
-61.334	-7.189	-1.203	-0.804
-60.319	52.782	0.416	0.392
-59.305	-200.000	0.086	-0.891
-58.290	332.904	0.687	1.307
-57.276	563.345	0.488	1.163
-56.261	-200.000	95.417	570.469
-55.246	645.458	1378.638	3467.453
-54.232	197.833	2551.946	3841.052
-53.217	118.255	2164.480	2629.574
-52.203	43.327	1709.389	1538.153
-51.188	36.207	1521.451	1320.464
-50.173	33.750	1494.767	1280.701
-49.159	52.461	1543.178	1450.858
-48.144	54.403	1561.254	1481.111
-47.130	36.357	1520.927	1320.827
-46.115	33.141	1506.602	1286.492
-45.100	33.031	1503.285	1282.859
-44.086	32.964	1501.435	1280.779
-43.071	32.893	1499.214	1278.355
-42.057	32.938	1498.029	1277.593
-41.042	32.979	1495.983	1276.080
-40.027	33.020	1494.812	1275.302
-39.013	32.961	1492.923	1273.240
-37.998	32.977	1492.068	1272.574
-36.984	32.925	1491.034	1271.291
-35.969	32.939	1489.435	1269.973
-34.954	32.858	1488.550	1268.617
-33.940	32.897	1487.209	1267.690
-32.925	32.941	1485.523	1266.498
-31.911	32.988	1484.001	1265.465
-30.896	33.061	1482.175	1264.348
-29.881	32.957	1481.536	1263.056
-28.867	32.942	1480.207	1261.773
-27.852	33.084	1478.520	1261.227
-26.838	33.062	1476.664	1259.452
-25.823	33.058	1475.321	1258.226
-24.809	32.994	1473.758	1256.419
-23.794	32.918	1472.474	1254.767
-22.779	33.066	1471.215	1254.633
-21.765	32.862	1470.851	1252.914
-20.750	32.978	1469.222	1252.247
-19.736	32.944	1468.100	1251.020
-18.721	32.989	1466.711	1250.082
-17.706	32.917	1465.715	1248.704
-16.692	32.967	1464.388	1247.856
-15.677	32.953	1463.600	1247.045
-14.663	32.797	1462.957	1245.414
-13.648	32.921	1461.663	1245.080
-12.633	32.830	1461.003	1243.870
-11.619	32.831	1460.378	1243.295
-10.604	32.908	1459.184	1242.739
-9.590	32.894	1458.335	1241.872
-8.575	32.918	1457.304	1241.103
-7.560	32.876	1456.980	1240.503
-6.546	33.012	1455.675	1240.237
-5.531	32.877	1455.374	1239.042
-4.517	32.818	1454.028	1237.462
-3.502	32.903	1452.582	1236.735
-2.487	32.970	1451.660	1236.341
-1.473	32.936	1451.059	1235.559
-0.458	32.861	1449.590	1233.768
0.556	32.031	1440.196	1222.623
1.571	29.130	1414.630	1182.217
2.586	25.568	1354.949	1110.297
3.600	23.799	1273.689	1033.337
4.615	22.365	1228.233	988.323
5.629	19.348	1172.220	926.973
6.644	11.471	1089.183	821.733
7.659	5.722	1048.200	762.827
8.673	4.948	1042.569	754.915
9.688	4.708	1040.481	752.173
10.702	4.735	1038.629	750.900
11.717	4.710	1036.992	749.530
12.731	6.861	1038.962	761.258
13.746	14.038	1048.520	802.983
14.761	19.259	1054.809	833.032
15.775	18.970	1053.412	830.462
16.790	17.898	1051.258	823.519
17.804	16.908	1049.165	817.039
18.819	15.945	1047.284	810.869
19.834	15.520	1045.908	807.690
20.848	15.246	1045.080	805.659
21.863	15.065	1043.896	803.810
22.877	14.752	1043.473	801.910
23.892	14.522	1042.965	800.342
24.907	14.518	1041.938	799.465
25.921	14.499	1041.245	798.772
26.936	14.618	1040.365	798.595
27.950	14.615	1039.502	797.846
28.965	14.511	1038.760	796.712
29.980	14.711	1037.148	796.356
30.994	14.762	1035.983	795.635
32.009	14.989	1034.792	795.729
33.023	14.907	1034.995	795.424
34.038	14.867	1034.001	794.401
35.053	14.789	1032.871	793.095
36.067	14.692	1031.653	791.627
37.082	14.684	1030.755	790.831
38.096	14.921	1029.810	791.157
39.111	14.756	1029.283	789.902
40.126	14.854	1028.119	789.400
41.140	14.649	1027.216	787.669
42.155	14.507	1026.320	786.243
43.169	14.471	1025.439	785.333
44.184	14.375	1024.408	784.020
45.199	14.328	1023.388	782.952
46.213	14.539	1022.198	782.962
47.228	14.528	1020.908	781.852
48.242	14.616	1020.377	781.788
49.257	14.672	1019.898	781.615
50.271	14.720	1018.446	780.656
51.286	14.649	1017.315	779.391
52.301	14.812	1016.318	779.314
53.315	14.746	1015.960	778.664
54.330	14.717	1015.262	777.924
55.344	14.628	1014.269	776.680
56.359	14.555	1013.320	775.548
57.374	14.523	1013.026	775.107
58.388	14.542	1011.588	774.023
59.403	14.507	1011.244	773.530
60.417	14.517	1009.914	772.490
61.432	14.444	1009.555	771.812
62.447	14.430	1008.512	770.878
63.461	14.326	1007.995	769.935
64.476	14.240	1007.271	768.918
65.490	14.321	1005.894	768.170
66.505	14.288	1005.336	767.527
67.520	14.320	1004.407	766.895
68.534	14.463	1003.903	767.102
69.549	14.419	1003.018	766.156
70.563	14.380	1002.324	765.376
71.578	14.404	1001.725	764.963
72.593	14.389	1000.722	764.062
73.607	14.334	999.349	762.693
74.622	14.205	999.068	761.821
75.636	14.250	997.852	761.030
76.651	14.337	997.027	760.733
77.666	14.256	996.752	760.083
78.680	14.234	996.044	759.378
79.695	14.178	995.654	758.759
80.709	14.307	995.122	758.873
81.724	14.349	994.046	758.178
82.739	14.467	993.118	757.936
83.753	14.439	992.372	757.175
84.768	14.519	992.025	757.206
85.782	14.698	991.292	757.393
86.797	14.741	990.860	757.187
87.812	14.729	989.964	756.385
88.826	14.634	989.130	755.247
89.841	14.510	988.349	754.026
90.855	14.831	986.823	754.243
91.870	14.769	986.795	753.874
92.884	14.920	985.553	753.541
93.899	14.826	985.354	752.900
94.914	14.847	984.520	752.288
95.928	14.945	983.658	752.006
96.943	14.939	983.346	751.673
97.957	14.753	982.422	750.065
98.972	14.728	981.395	749.101
99.987	14.827	980.804	749.026
101.001	14.775	979.766	747.935
102.016	14.878	978.756	747.560
103.030	14.809	978.031	746.631
104.045	14.845	977.203	746.093
105.060	14.802	976.386	745.214
106.074	14.798	975.367	744.353
107.089	14.727	974.543	743.341
108.103	14.411	974.044	741.488
109.118	14.468	973.023	740.897
110.133	14.404	972.607	740.232
111.147	14.436	970.998	739.083
112.162	14.514	970.055	738.647
113.176	14.505	969.597	738.190
114.191	14.527	968.744	737.575
115.206	14.658	967.990	737.513
116.220	14.646	967.044	736.676
117.235	14.467	966.369	735.307
118.249	14.612	965.234	735.018
119.264	14.510	964.306	733.798
120.279	14.377	963.923	732.855
121.293	14.448	963.005	732.404
122.308	14.374	962.597	731.704
123.322	14.477	961.239	731.059
124.337	14.484	959.979	730.067
125.352	14.405	958.995	728.910
126.366	14.309	957.982	727.654
127.381	14.242	957.421	726.871
128.395	14.299	956.435	726.304
129.410	14.290	955.390	725.411
130.424	14.350	954.770	725.135
131.439	14.526	953.789	725.093
132.454	14.537	952.642	724.202
133.468	14.541	952.179	723.803
134.483	14.619	951.669	723.690
135.497	14.620	950.534	722.767
136.512	14.642	949.948	722.354
137.527	14.535	949.386	721.401
138.541	14.589	948.688	721.041
139.556	14.751	948.091	721.221
140.570	14.661	947.361	720.216
141.585	14.817	946.298	720.016
142.600	14.783	946.088	719.645
143.614	14.893	945.197	719.374
144.629	14.863	944.369	718.555
145.643	14.828	943.969	718.036
146.658	14.934	942.584	717.373
147.673	14.807	941.417	715.876
148.687	14.755	940.396	714.816
149.702	14.691	939.739	713.979
150.716	14.647	938.989	713.156
151.731	14.594	938.231	712.291
152.746	14.727	936.824	711.728
153.760	14.696	936.843	711.547
154.775	14.634	936.227	710.752
155.789	14.807	935.178	710.629
156.804	14.664	934.457	709.412
157.819	14.904	933.791	709.863
158.833	14.847	933.077	709.014
159.848	14.882	932.670	708.791
160.862	15.041	931.820	708.754
161.877	14.911	930.883	707.430
162.892	14.840	930.105	706.475
163.906	14.746	929.400	705.479
164.921	14.619	928.852	704.468
165.935	14.856	927.365	704.276
166.950	14.709	926.756	703.131
167.964	14.688	925.930	702.354
168.979	14.894	924.510	702.081
169.994	14.907	923.546	701.342
171.008	14.908	922.955	700.834
172.023	14.821	922.491	700.056
173.037	14.902	921.418	699.515
174.052	15.061	920.729	699.597
175.067	14.960	920.288	698.780
176.081	14.836	919.307	697.453
177.096	14.795	918.535	696.638
178.110	14.794	917.661	695.908
179.125	14.802	916.928	695.324
180.140	14.893	916.340	695.196
181.154	14.775	915.827	694.255
182.169	14.893	915.146	694.167
183.183	15.048	914.657	694.378
184.198	14.898	914.103	693.272
185.213	15.047	913.018	693.003
186.227	15.150	912.260	692.792
187.242	15.153	912.139	692.654
188.256	15.140	911.661	692.178
189.271	15.213	911.055	691.957
190.286	15.260	910.114	691.373
191.300	15.090	909.107	689.847
192.315	14.862	908.452	688.351
193.329	14.780	907.724	687.398
194.344	14.753	906.895	686.600
195.359	14.801	906.409	686.370
196.373	15.002	905.912	686.756
197.388	14.979	905.453	686.255
198.402	15.035	905.046	686.115
199.417	15.190	904.809	686.507
200.432	15.460	904.100	687.016
201.446	15.379	903.752	686.357
202.461	15.485	903.024	686.180
203.475	15.378	903.003	685.663
204.490	15.473	901.876	685.136
205.504	15.427	901.120	684.312
206.519	15.246	900.328	682.915
207.534	15.341	899.768	682.816
208.548	15.363	899.095	682.336
209.563	15.357	898.141	681.526
210.577	15.308	897.816	681.019
211.592	15.245	896.881	679.996
212.607	15.421	896.450	680.323
213.621	15.577	895.943	680.509
214.636	15.504	895.155	679.553
215.650	15.439	894.938	679.067
216.665	15.374	894.337	678.286
217.680	15.455	893.374	677.824
218.694	15.501	893.234	677.843
219.709	15.573	892.596	677.589
220.723	15.645	891.539	677.019
221.738	15.535	891.355	676.375
222.753	15.452	890.720	675.501
223.767	15.617	889.538	675.204
224.782	15.570	888.902	674.474
225.796	15.783	888.319	674.829
226.811	15.679	888.136	674.209
227.826	15.647	887.091	673.231
228.840	15.562	886.480	672.366
229.855	15.625	886.155	672.312
230.869	15.526	885.075	671.040
231.884	15.624	884.395	670.856
232.899	15.646	883.636	670.309
233.913	15.559	882.914	669.356
234.928	15.562	882.413	668.928
235.942	15.510	881.376	667.873
236.957	15.486	881.173	667.566
237.972	15.455	880.227	666.667
238.986	15.570	879.705	666.669
240.001	15.492	878.877	665.673
241.015	15.637	878.136	665.629
242.030	15.483	877.857	664.749
243.045	15.606	877.524	664.925
244.059	15.688	876.512	664.422
245.074	15.826	875.801	664.369
246.088	15.757	875.196	663.578
247.103	15.755	874.774	663.194
248.117	15.753	874.213	662.703
249.132	15.850	873.643	662.590
250.147	16.093	872.982	662.986
251.161	16.236	872.271	662.951
252.176	16.114	872.261	662.405
253.190	16.144	871.383	661.797
254.205	16.365	870.639	662.043
255.220	16.452	869.688	661.598
256.234	16.300	869.462	660.776
257.249	16.112	869.413	659.943
258.263	16.306	868.650	660.062
259.278	16.274	868.043	659.419
260.293	16.204	867.460	658.643
261.307	16.428	866.614	658.816
262.322	16.244	866.451	657.917
263.336	16.465	865.179	657.753
264.351	16.449	864.849	657.384
265.366	16.416	864.449	656.892
266.380	16.462	863.573	656.347
267.395	16.428	862.993	655.715
268.409	16.445	862.401	655.275
269.424	16.331	861.705	654.246
270.439	16.384	861.114	653.944
271.453	16.498	860.280	653.692
272.468	16.248	860.005	652.459
273.482	16.211	859.086	651.564
274.497	16.232	858.713	651.302
275.512	16.274	857.507	650.492
276.526	16.346	856.856	650.219
277.541	16.500	856.086	650.171
278.555	16.347	855.878	649.366
279.570	16.584	855.400	649.855
280.585	16.565	855.017	649.435
281.599	16.625	854.166	648.963
282.614	16.610	853.451	648.302
283.628	16.407	853.191	647.269
284.643	16.477	852.409	646.889
285.657	16.599	851.779	646.819
286.672	16.542	851.263	646.152
287.687	16.559	850.882	645.871
288.701	16.461	850.543	645.183
289.716	16.525	850.115	645.044
290.730	16.506	849.370	644.349
291.745	16.666	848.685	644.383
292.760	16.670	847.764	643.640
293.774	16.689	847.495	643.450
294.789	16.833	846.656	643.304
295.803	16.878	846.021	642.934
296.818	16.705	845.873	642.112
297.833	16.694	845.084	641.412
298.847	16.665	844.203	640.576
299.862	16.685	843.641	640.170
300.876	16.808	842.803	639.942
301.891	16.755	842.063	639.125
302.906	16.955	841.534	639.420
303.920	16.866	841.392	638.919
304.935	16.952	840.995	638.886
305.949	17.065	840.040	638.527
306.964	17.075	839.359	637.991
307.979	16.917	838.419	636.627
308.993	16.967	838.380	636.730
310.008	17.039	837.854	636.544
311.022	17.073	837.146	636.079
312.037	17.052	836.714	635.615
313.052	17.062	836.163	635.176
314.066	16.958	835.419	634.166
315.081	16.932	834.973	633.676
316.095	16.810	834.519	632.820
317.110	16.724	834.153	632.165
318.125	16.795	833.824	632.124
319.139	16.756	832.925	631.240
320.154	16.863	832.428	631.207
321.168	17.062	831.941	631.523
322.183	16.845	831.267	630.150
323.197	17.040	830.721	630.403
324.212	17.045	829.822	629.682
325.227	16.930	829.700	629.109
326.241	17.128	828.948	629.216
327.256	16.939	828.854	628.388
328.270	17.006	828.002	627.934
329.285	16.903	827.409	627.051
330.300	16.919	826.861	626.639
331.314	17.120	826.130	626.772
332.329	17.133	825.676	626.419
333.343	17.074	825.218	625.798
334.358	17.242	824.528	625.836
335.373	17.311	823.871	625.539
336.387	17.093	823.866	624.675
337.402	17.107	823.083	624.081
338.416	17.167	822.617	623.890
339.431	17.336	821.822	623.852
340.446	17.400	821.636	623.890
341.460	17.460	821.011	623.580
342.475	17.499	820.519	623.296
343.489	17.481	819.595	622.472
344.504	17.570	819.048	622.326
345.519	17.648	818.949	622.484
346.533	17.642	818.806	622.298
347.548	17.562	818.122	621.430
348.562	17.472	817.234	620.373
349.577	17.482	816.780	620.007
350.592	17.532	816.225	619.713
351.606	17.336	815.713	618.559
352.621	17.336	815.560	618.388
353.635	17.310	814.910	617.746
354.650	17.368	814.550	617.627
355.665	17.451	814.158	617.576
356.679	17.475	813.214	616.893
357.694	17.554	813.123	617.055
358.708	17.614	812.529	616.767
359.723	17.557	811.950	616.070
360.738	17.624	811.266	615.736
361.752	17.584	810.919	615.275
362.767	17.694	810.280	615.133
363.781	17.695	810.078	614.927
364.796	17.729	809.718	614.722
365.810	17.776	809.085	614.358
366.825	17.949	808.884	614.772
367.840	17.965	808.491	614.476
368.854	17.964	808.023	614.066
369.869	17.766	807.944	613.238
370.883	17.975	806.669	612.965
371.898	17.793	806.617	612.218
372.913	17.935	805.559	611.872
373.927	17.920	804.961	611.310
374.942	17.932	804.606	611.027
375.956	17.839	804.212	610.343
376.971	18.175	803.377	610.856
377.986	18.044	802.990	610.038
379.000	18.165	802.469	610.019
380.015	18.260	802.034	609.973
381.029	18.082	801.465	608.855
382.044	18.193	800.711	608.621
383.059	18.208	800.248	608.270
384.073	18.110	800.077	607.737
385.088	18.091	799.572	607.234
386.102	18.032	798.936	606.486
387.117	17.940	798.087	605.462
388.132	17.973	797.839	605.336
389.146	17.968	797.504	605.012
390.161	17.885	797.659	604.780
391.175	18.111	796.410	604.579
392.190	18.320	796.073	605.010
393.205	18.115	796.020	604.192
394.219	18.010	795.719	603.539
395.234	17.923	795.112	602.719
396.248	17.940	794.484	602.249
397.263	17.893	794.029	601.685
398.278	17.844	793.747	601.245
399.292	17.922	792.920	600.840
400.307	17.969	792.759	600.829
401.321	18.015	792.027	600.385
402.336	17.994	791.736	600.035
403.350	18.105	791.256	600.008
404.365	18.162	791.027	599.983
405.380	18.194	790.550	599.678
406.394	18.358	789.963	599.755
407.409	18.296	789.772	599.339
408.423	18.324	789.199	598.952
409.438	18.302	788.979	598.652
410.453	18.561	788.718	599.309
411.467	18.436	788.284	598.488
412.482	18.528	787.987	598.530
413.496	18.693	787.020	598.320
414.511	18.716	786.675	598.084
415.526	18.525	786.532	597.256
416.540	18.460	786.242	596.758
417.555	18.644	785.748	596.971
418.569	18.547	785.279	596.222
419.584	18.701	784.555	596.155
420.599	18.646	784.219	595.658
421.613	156.209	1370.067	1794.266
422.628	134.912	1455.444	1794.345
