DTS Sentinel unit serial number:	SN413079Multiplexer serial number:	ORYXHardware model number:	OX4-SRSoftware version number:	ORYX F/W v4.00 Oryx Data Collector v3.7.2.0data status	okinstallation	princeton_trtdifferential loss correction	single-endedforward channel	channel 3reverse channel	N/Adate	2019/09/12time	18:36:04forward acquisition time	15.00reverse acquisition time	0.00gamma	496.2192k internal	0.2318k external	0.2318temperature offset calibration	1.0091default loss term (dB/km)	0.3790temperature slope calibration	1.0000multiplexer offset coefficient	1.0000multiplexer slope coefficient	1.0000fibre end	0.00T internal ref (°C)	33.19T ext. ref 1 (°C)	2.96T ext. ref 2 (°C)	27.69length (m)	temperature (°C)	Stokes	anti-Stokes-747.200	82.265	-0.119	-0.131
-746.185	800.000	-0.065	-0.227
-745.171	-164.850	0.527	-0.024
-744.156	-200.000	-0.060	-0.659
-743.142	-200.000	0.092	0.471
-742.127	800.000	-0.053	-0.175
-741.112	800.000	0.071	0.292
-740.098	-104.919	-0.453	-0.105
-739.083	28.815	-0.330	-0.283
-738.069	172.685	0.161	0.234
-737.054	-15.123	-1.052	0.682
-736.039	-99.903	-0.470	-0.119
-735.025	-30.076	0.305	-0.176
-734.010	-47.263	-0.618	0.305
-732.996	174.680	-0.383	0.561
-731.981	-74.861	0.447	0.162
-730.966	-27.312	-0.691	0.407
-729.952	-131.196	0.299	0.040
-728.937	228.805	-0.358	-0.591
-727.923	-76.328	-0.546	0.194
-726.908	-95.712	0.423	0.114
-725.894	738.668	0.111	-0.301
-724.879	-27.828	-0.273	-0.160
-723.864	800.000	0.233	1.005
-722.850	-200.000	0.065	-0.347
-721.835	-110.083	1.030	-0.218
-720.821	-162.876	-0.274	-0.013
-719.806	-150.115	0.905	-0.071
-718.791	170.978	0.312	0.452
-717.777	-200.000	-0.045	-0.412
-716.762	58.463	0.346	-0.343
-715.748	756.204	0.098	-0.268
-714.733	800.000	0.282	-0.820
-713.718	-62.174	0.535	0.225
-712.704	-99.473	-0.917	0.233
-711.689	67.834	0.334	-0.345
-710.675	138.285	-0.431	0.571
-709.660	800.000	-0.327	-0.943
-708.645	-200.000	0.178	1.236
-707.631	18.881	-0.758	0.613
-706.616	299.241	-0.398	-0.741
-705.602	137.936	0.371	0.492
-704.587	-158.349	-0.261	-0.015
-703.572	-142.812	0.490	-0.048
-702.558	-200.000	-0.017	0.297
-701.543	-130.047	-0.516	0.071
-700.529	-0.095	0.786	-0.565
-699.514	-24.457	0.437	0.263
-698.499	800.000	-0.110	0.441
-697.485	-30.452	-0.502	0.288
-696.470	-40.915	0.401	0.210
-695.456	37.462	-0.765	-0.686
-694.441	-200.000	0.103	0.763
-693.426	-94.246	-0.488	0.135
-692.412	44.870	-0.241	-0.224
-691.397	800.000	-0.151	0.600
-690.383	-70.718	0.163	-0.062
-689.368	757.611	0.331	0.905
-688.354	5.080	0.486	-0.362
-687.339	-200.000	-0.130	-0.859
-686.324	-177.615	-0.449	0.011
-685.310	504.408	0.063	-0.148
-684.295	285.993	0.205	0.374
-683.281	368.219	0.256	-0.523
-682.266	-150.652	-0.461	-0.036
-681.251	207.714	-0.816	-1.286
-680.237	20.241	-0.602	0.491
-679.222	-126.027	-0.953	-0.145
-678.208	-135.962	1.511	-0.180
-677.193	-18.342	-0.342	0.216
-676.178	-86.413	0.738	0.229
-675.164	230.303	-0.141	0.233
-674.149	-50.104	-0.242	0.116
-673.135	329.244	-0.124	0.241
-672.120	-16.741	-0.085	-0.054
-671.105	-200.000	-0.005	-0.458
-670.091	-200.000	-0.171	-1.095
-669.076	106.310	-0.439	0.525
-668.062	-141.835	-0.204	-0.021
-667.047	-28.608	0.289	-0.168
-666.032	800.000	0.166	0.571
-665.018	14.440	0.761	0.599
-664.003	800.000	-0.138	0.485
-662.989	-39.639	-0.458	0.242
-661.974	214.202	-0.132	-0.210
-660.959	77.177	-0.685	-0.735
-659.945	-200.000	-0.033	0.340
-658.930	-200.000	0.160	-0.751
-657.916	310.705	-0.434	-0.820
-656.901	189.765	-0.547	0.828
-655.886	-139.191	0.251	0.027
-654.872	-23.954	0.284	0.171
-653.857	-173.042	-0.125	0.004
-652.843	-132.235	-0.456	-0.060
-651.828	278.691	-0.425	0.763
-650.814	454.385	-0.174	0.388
-649.799	800.000	-0.146	-0.595
-648.784	-167.567	-0.254	-0.010
-647.770	67.920	-0.365	-0.377
-646.755	-113.018	0.220	0.044
-645.741	-126.122	-0.723	-0.109
-644.726	800.000	-0.140	-0.567
-643.711	189.176	-0.126	0.190
-642.697	-200.000	0.102	0.578
-641.682	800.000	0.306	0.972
-640.668	-0.796	-0.219	0.156
-639.653	375.444	0.215	0.443
-638.638	-115.770	0.634	0.120
-637.624	125.190	0.258	0.328
-636.609	203.732	-0.199	0.311
-635.595	-106.081	-0.323	0.073
-634.580	-101.510	-0.484	-0.119
-633.565	366.255	0.193	0.391
-632.551	800.000	0.101	0.407
-631.536	-61.679	0.092	-0.039
-630.522	-59.805	-0.494	-0.213
-629.507	-200.000	-0.051	1.035
-628.492	-200.000	-0.052	0.450
-627.478	-101.663	-0.674	-0.165
-626.463	31.409	-0.563	0.487
-625.449	800.000	0.217	-0.681
-624.434	-17.848	-0.357	0.226
-623.419	-106.066	-0.374	-0.085
-622.405	800.000	-0.120	0.398
-621.390	510.273	0.268	0.627
-620.376	-1.651	0.323	-0.229
-619.361	224.344	0.488	-0.794
-618.346	-200.000	-0.083	0.515
-617.332	-171.647	0.566	-0.019
-616.317	16.460	0.259	0.206
-615.303	800.000	-0.225	0.753
-614.288	-101.599	0.528	-0.129
-613.273	-69.248	-1.135	-0.439
-612.259	-76.903	0.571	-0.201
-611.244	-160.341	-0.404	0.022
-610.230	-200.000	0.007	0.214
-609.215	-105.429	-0.622	-0.142
-608.201	800.000	0.275	-0.921
-607.186	800.000	-0.423	-1.328
-606.171	-60.254	-0.387	-0.166
-605.157	-63.440	-0.347	-0.144
-604.142	-43.516	-0.523	0.266
-603.128	211.283	-0.255	0.404
-602.113	451.441	-0.147	0.327
-601.098	172.985	-0.154	0.223
-600.084	-200.000	-0.023	-0.221
-599.069	-189.505	0.324	-0.004
-598.055	523.871	0.190	-0.449
-597.040	188.728	-0.276	0.415
-596.025	-200.000	-0.057	-0.892
-595.011	-200.000	-0.175	0.818
-593.996	800.000	0.159	0.670
-592.982	239.791	-0.127	0.212
-591.967	277.623	-0.350	-0.627
-590.952	-29.813	0.332	-0.190
-589.938	-1.034	0.668	0.476
-588.923	-150.590	0.378	-0.029
-587.909	102.241	0.151	0.178
-586.894	651.647	-0.317	0.817
-585.879	202.169	-0.147	0.228
-584.865	371.838	-0.089	0.181
-583.850	781.677	-0.295	-0.812
-582.836	-86.086	-0.605	-0.188
-581.821	-57.220	-0.493	-0.218
-580.806	-200.000	-0.135	0.807
-579.792	-35.920	0.263	-0.143
-578.777	567.415	0.313	-0.765
-577.763	-96.784	0.092	0.024
-576.748	109.177	0.230	0.277
-575.733	800.000	0.119	0.390
-574.719	-68.373	0.069	0.027
-573.704	-141.435	0.303	0.031
-572.690	10.137	-0.383	-0.293
-571.675	-0.755	0.504	-0.359
-570.661	-121.111	0.864	-0.145
-569.646	-23.466	-0.320	-0.193
-568.631	-200.000	-0.021	0.484
-567.617	35.424	-0.567	0.500
-566.602	-190.749	0.344	0.004
-565.588	291.753	-0.290	0.531
-564.573	717.809	-0.361	-0.964
-563.558	-27.719	-0.131	0.077
-562.544	-200.000	0.004	-0.378
-561.529	-35.232	-0.677	-0.370
-560.515	21.203	0.103	0.084
-559.500	-96.776	0.604	0.160
-558.485	370.168	0.335	0.682
-557.471	372.304	0.340	0.695
-556.456	110.930	0.233	-0.282
-555.442	213.135	-0.318	-0.504
-554.427	800.000	-0.139	-0.389
-553.412	-48.705	-0.270	0.130
-552.398	163.040	0.394	-0.556
-551.383	36.517	-0.439	0.389
-550.369	800.000	-0.231	0.650
-549.354	-57.252	0.034	-0.015
-548.339	234.398	0.282	-0.467
-547.325	378.467	0.138	-0.284
-546.310	336.814	0.164	-0.319
-545.296	91.228	0.294	-0.332
-544.281	-200.000	0.034	0.778
-543.266	190.534	-0.440	0.664
-542.252	81.007	-0.168	0.182
-541.237	800.000	-0.106	-0.461
-540.223	93.856	-0.266	-0.302
-539.208	63.980	-0.507	-0.512
-538.193	730.085	-0.076	0.203
-537.179	-83.306	-0.411	-0.133
-536.164	61.383	0.322	0.321
-535.150	-52.548	0.398	0.185
-534.135	25.254	-0.519	-0.433
-533.121	-7.049	0.464	-0.316
-532.106	21.683	-0.657	0.537
-531.091	4.807	0.586	0.432
-530.077	-77.751	-0.458	0.159
-529.062	800.000	-0.059	0.211
-528.048	151.561	0.174	-0.238
-527.033	46.228	-0.272	-0.253
-526.018	-200.000	-0.084	-0.963
-525.004	800.000	-0.309	-0.887
-523.989	800.000	0.097	-0.276
-522.975	8.479	0.571	-0.431
-521.960	-200.000	-0.182	-1.015
-520.945	-181.141	0.120	-0.002
-519.931	800.000	0.028	0.095
-518.916	37.362	0.275	-0.244
-517.902	800.000	0.186	0.553
-516.887	800.000	0.297	-1.067
-515.872	103.253	-0.445	-0.524
-514.858	210.739	0.275	-0.434
-513.843	-200.000	0.060	0.473
-512.829	2.563	0.521	0.379
-511.814	110.694	-0.088	0.106
-510.799	-128.844	-0.336	0.047
-509.785	-100.759	-0.390	-0.096
-508.770	227.166	-0.148	0.241
-507.756	163.431	0.448	-0.632
-506.741	-59.910	-0.934	0.401
-505.726	-124.247	-0.175	-0.027
-504.712	143.747	0.406	0.542
-503.697	-127.532	0.628	0.091
-502.683	-144.644	0.113	-0.010
-501.668	-183.237	0.329	-0.006
-500.653	800.000	-0.238	-0.724
-499.639	498.536	0.034	0.078
-498.624	-31.533	0.261	0.147
-497.610	800.000	0.223	-0.635
-496.595	-49.478	-0.375	0.179
-495.581	-200.000	-0.178	-0.894
-494.566	58.774	-0.275	0.271
-493.551	-35.997	-0.219	-0.119
-492.537	-147.084	0.493	0.042
-491.522	-127.383	0.683	0.100
-490.508	-200.000	0.135	0.850
-489.493	-11.373	0.925	0.610
-488.478	-5.995	0.211	0.145
-487.464	77.440	-0.127	0.136
-486.449	37.671	-0.459	-0.408
-485.435	21.920	0.414	-0.338
-484.420	46.580	0.479	-0.445
-483.405	-200.000	0.012	0.125
-482.391	-83.583	-0.498	0.160
-481.376	22.220	0.951	-0.778
-480.362	-168.697	-0.420	0.016
-479.347	-84.470	0.811	0.257
-478.332	-39.473	-0.448	0.235
-477.318	23.096	-0.267	0.219
-476.303	-200.000	0.004	-0.431
-475.289	-31.668	-0.628	0.353
-474.274	84.898	0.261	0.286
-473.259	800.000	-0.055	-0.161
-472.245	13.939	0.118	-0.092
-471.230	-127.213	0.559	-0.082
-470.216	-200.000	0.038	-0.236
-469.201	-200.000	-0.054	0.333
-468.186	-22.838	0.382	0.231
-467.172	-200.000	0.058	0.541
-466.157	-200.000	0.008	0.982
-465.143	-85.720	0.426	-0.132
-464.128	-167.096	0.297	-0.012
-463.113	-66.924	0.870	0.344
-462.099	102.686	0.350	-0.410
-461.084	-200.000	0.989	-0.001
-460.070	63.056	0.435	-0.436
-459.055	-86.648	-0.408	-0.125
-458.040	38.103	-0.672	-0.598
-457.026	47.661	0.373	0.348
-456.011	800.000	-0.063	-0.263
-454.997	35.845	0.678	-0.597
-453.982	-82.690	-0.244	-0.079
-452.968	262.554	-0.037	0.064
-451.953	386.695	0.162	0.334
-450.938	6.464	-0.236	-0.175
-449.924	138.651	-0.239	-0.314
-448.909	153.793	-0.247	-0.339
-447.895	-21.610	0.784	0.478
-446.880	-80.492	0.447	0.149
-445.865	263.256	-0.135	0.235
-444.851	-122.440	-0.134	0.022
-443.836	125.553	-0.422	-0.532
-442.822	151.095	0.344	-0.468
-441.807	-32.257	-0.326	0.182
-440.792	-117.087	0.474	0.086
-439.778	-32.311	0.517	-0.289
-438.763	-102.357	-0.777	-0.186
-437.749	128.224	0.303	-0.386
-436.734	232.742	-0.318	-0.523
-435.719	-17.755	0.424	0.266
-434.705	-100.318	0.384	-0.095
-433.690	43.118	-0.333	-0.304
-432.676	5.700	-0.629	-0.465
-431.661	-58.949	-0.465	-0.201
-430.646	-171.233	0.542	-0.018
-429.632	-123.043	0.127	-0.020
-428.617	108.682	-0.642	-0.767
-427.603	353.509	0.155	0.308
-426.588	69.930	-0.381	-0.393
-425.573	62.889	-0.506	0.506
-424.559	60.102	0.118	0.117
-423.544	-85.095	0.326	-0.102
-422.530	668.939	-0.157	0.407
-421.515	-132.689	-0.206	0.026
-420.500	-149.433	0.345	0.027
-419.486	14.189	0.442	-0.344
-418.471	291.168	0.166	-0.302
-417.457	-57.056	0.209	-0.092
-416.442	-141.966	0.379	-0.038
-415.428	555.259	0.166	-0.399
-414.413	-21.617	-0.149	-0.091
-413.398	67.884	0.339	0.347
-412.384	100.356	-0.507	-0.587
-411.369	84.802	-0.190	-0.208
-410.355	-168.727	-0.365	-0.014
-409.340	-200.000	0.157	1.032
-408.325	-21.655	-0.071	-0.043
-407.311	52.051	0.477	-0.454
-406.296	725.890	-0.092	0.246
-405.282	-175.539	-0.306	-0.008
-404.267	-200.000	0.066	-0.500
-403.252	-68.764	0.111	0.043
-402.238	-200.000	-0.015	0.692
-401.223	-44.613	0.236	0.118
-400.209	317.621	-0.365	-0.689
-399.194	60.042	0.391	-0.386
-398.179	800.000	-0.032	0.125
-397.165	800.000	-0.159	0.512
-396.150	800.000	0.089	-0.286
-395.136	-106.263	0.801	0.179
-394.121	100.993	-0.335	-0.389
-393.106	747.388	-0.122	-0.327
-392.092	-200.000	-0.043	-0.443
-391.077	-93.978	0.528	-0.145
-390.063	-200.000	0.100	0.592
-389.048	-103.468	0.813	-0.191
-388.033	-30.769	0.952	0.537
-387.019	-152.295	0.253	-0.018
-386.004	-99.217	0.231	-0.058
-384.990	-96.288	-0.486	0.128
-383.975	800.000	-0.120	0.353
-382.960	800.000	-0.079	0.290
-381.946	-121.826	-0.491	-0.081
-380.931	-128.280	-0.416	0.059
-379.917	183.853	-0.417	0.615
-378.902	-138.823	0.424	0.046
-377.888	132.122	0.434	0.558
-376.873	321.572	0.551	-1.046
-375.858	2.937	-0.243	0.176
-374.844	800.000	0.100	0.392
-373.829	-25.513	-0.667	-0.393
-372.815	-114.121	-0.056	-0.011
-371.800	-5.330	0.344	0.236
-370.785	-46.886	-0.290	-0.141
-369.771	320.224	0.260	-0.493
-368.756	-200.000	-0.736	-0.003
-367.742	264.419	0.532	-0.923
-366.727	800.000	-0.173	0.501
-365.712	221.748	0.107	0.171
-364.698	-95.685	0.702	0.187
-363.683	800.000	0.318	1.082
-362.669	53.074	-0.402	0.384
-361.654	87.233	0.183	0.201
-360.639	-106.732	0.920	0.204
-359.625	-15.727	0.299	0.190
-358.610	-200.000	-0.063	1.589
-357.596	-158.149	0.501	0.029
-356.581	-35.654	-0.482	-0.260
-355.566	33.476	0.259	-0.225
-354.552	-200.000	-0.231	-1.072
-353.537	138.124	-0.582	-0.761
-352.523	318.183	0.253	0.478
-351.508	198.961	0.355	0.542
-350.493	131.832	0.288	0.369
-349.479	-75.461	0.849	-0.301
-348.464	41.276	0.451	-0.406
-347.450	-200.000	-0.135	-0.761
-346.435	258.108	-0.421	0.723
-345.420	419.115	0.371	-0.792
-344.406	131.456	0.133	-0.170
-343.391	-124.278	-0.661	0.103
-342.377	9.658	-0.233	-0.176
-341.362	-200.000	-0.205	-1.007
-340.348	-140.673	0.467	-0.048
-339.333	60.869	-0.358	0.354
-338.318	327.128	-0.307	-0.586
-337.304	-96.713	-0.878	-0.230
-336.289	59.254	0.230	-0.226
-335.275	-200.000	0.031	-0.149
-334.260	45.448	-0.129	-0.118
-333.245	249.002	-0.354	0.596
-332.231	-85.263	0.562	-0.175
-331.216	116.024	0.499	0.608
-330.202	800.000	0.129	-0.452
-329.187	8.647	-0.355	0.267
-328.172	800.000	-0.260	1.091
-327.158	377.461	-0.549	1.118
-326.143	-118.452	-0.206	-0.036
-325.129	-162.370	-0.722	-0.036
-324.114	-52.229	-0.243	-0.112
-323.099	10.773	0.278	0.211
-322.085	19.917	-0.501	0.402
-321.070	-160.816	0.178	0.009
-320.056	-200.000	0.131	-0.782
-319.041	405.469	-0.056	0.119
-318.026	-87.801	0.265	-0.080
-317.012	19.133	0.695	-0.555
-315.997	226.674	-0.239	0.386
-314.983	133.091	0.241	0.310
-313.968	190.870	0.070	-0.105
-312.953	391.599	-0.290	-0.598
-311.939	152.413	-0.393	0.534
-310.924	-130.168	-0.729	-0.099
-309.910	-200.000	0.058	0.296
-308.895	-2.662	0.518	0.361
-307.880	800.000	0.139	-0.425
-306.866	-40.467	0.669	0.346
-305.851	-74.201	-0.197	-0.071
-304.837	800.000	0.191	-0.827
-303.822	20.217	0.082	-0.066
-302.807	-200.000	0.013	-0.064
-301.793	-149.776	-0.377	-0.029
-300.778	132.264	-0.369	-0.473
-299.764	-57.778	-0.295	0.128
-298.749	-23.897	-0.379	0.226
-297.735	54.573	-0.155	0.149
-296.720	17.062	-0.495	0.390
-295.705	-134.430	0.793	0.097
-294.691	8.564	-0.136	-0.102
-293.676	800.000	-0.065	0.215
-292.662	288.157	-0.303	-0.545
-291.647	-200.000	-0.089	-0.548
-290.632	800.000	0.327	1.115
-289.618	88.500	-0.627	0.692
-288.603	-200.000	-0.085	0.692
-287.589	-147.647	-0.157	-0.013
-286.574	-178.181	0.504	-0.012
-285.559	-200.000	0.160	-0.857
-284.545	-200.000	-0.079	0.412
-283.530	186.081	-0.071	0.105
-282.516	26.292	-0.061	-0.051
-281.501	800.000	-0.044	-0.181
-280.486	-84.655	0.829	-0.259
-279.472	-200.000	0.081	-0.924
-278.457	-200.000	-0.075	0.508
-277.443	60.387	0.338	0.332
-276.428	800.000	0.130	0.529
-275.413	-200.000	0.074	-0.561
-274.399	-150.414	0.169	-0.013
-273.384	97.992	-0.453	-0.518
-272.370	-61.013	0.439	0.184
-271.355	-81.855	0.148	0.048
-270.340	-56.744	0.796	-0.350
-269.326	-72.904	-0.198	0.072
-268.311	133.618	0.275	-0.354
-267.297	800.000	-0.144	0.604
-266.282	36.904	-0.200	0.176
-265.267	-120.399	-1.057	0.179
-264.253	-13.552	-0.360	0.232
-263.238	170.270	0.491	-0.698
-262.224	-200.000	-0.096	-0.428
-261.209	-6.222	0.410	-0.278
-260.195	-14.295	0.300	0.192
-259.180	-200.000	-0.076	0.404
-258.165	-107.185	0.617	-0.135
-257.151	530.183	0.149	0.350
-256.136	800.000	0.427	1.256
-255.122	-200.000	-0.092	-0.443
-254.107	-121.212	0.248	-0.041
-253.092	1.668	-0.531	-0.379
-252.078	-38.169	0.091	0.048
-251.063	90.243	0.243	0.270
-250.049	-93.732	0.598	0.164
-249.034	378.961	-0.316	0.643
-248.019	85.042	-0.238	0.259
-247.005	-73.437	-0.333	0.121
-245.990	-200.000	-0.019	-0.633
-244.976	-102.745	-0.585	-0.138
-243.961	97.506	0.627	0.715
-242.946	90.102	-0.504	0.559
-241.932	208.563	0.482	0.749
-240.917	143.571	0.070	-0.093
-239.903	-114.228	-0.467	0.089
-238.888	233.615	-0.328	-0.536
-237.873	21.032	-0.395	-0.318
-236.859	-142.096	1.025	0.101
-235.844	160.346	-0.412	0.570
-234.830	603.534	-0.341	0.842
-233.815	420.095	-0.200	-0.425
-232.800	800.000	-0.138	-0.543
-231.786	43.938	0.162	-0.147
-230.771	52.323	0.250	0.237
-229.757	16.850	-0.482	0.378
-228.742	20.250	-0.556	0.445
-227.727	436.614	0.146	0.316
-226.713	-122.976	0.609	0.097
-225.698	-171.960	-0.300	0.010
-224.684	-65.675	0.473	-0.188
-223.669	-116.922	-0.368	0.067
-222.655	800.000	0.087	0.244
-221.640	-136.144	0.148	0.017
-220.625	31.413	-0.389	-0.332
-219.611	14.382	-0.350	0.270
-218.596	11.748	-0.380	-0.289
-217.582	32.687	0.273	0.234
-216.567	115.371	0.411	-0.498
-215.552	-200.000	-0.101	-0.939
-214.538	-20.867	0.127	-0.077
-213.523	328.064	-0.359	-0.684
-212.509	7.072	-0.530	-0.392
-211.494	-142.388	-0.474	0.046
-210.479	121.835	-0.084	0.104
-209.465	-94.000	0.992	-0.270
-208.450	379.338	0.301	0.612
-207.436	-54.602	0.453	0.203
-206.421	-200.000	-0.009	-0.279
-205.406	-20.639	1.170	-0.712
-204.392	-165.007	0.074	0.003
-203.377	149.824	-0.059	0.079
-202.363	161.390	0.538	0.745
-201.348	153.533	-0.262	-0.355
-200.333	-200.000	0.020	0.226
-199.319	-82.469	-0.654	0.210
-198.304	-43.004	-0.601	0.302
-197.290	800.000	-0.342	0.938
-196.275	-146.686	0.220	-0.019
-195.260	-154.769	1.350	-0.089
-194.246	-40.326	-0.664	-0.342
-193.231	66.280	-0.327	0.329
-192.217	130.332	-0.277	-0.351
-191.202	12.010	-0.343	-0.261
-190.187	-108.876	-0.061	0.013
-189.173	203.772	-0.273	-0.418
-188.158	-152.710	0.644	-0.045
-187.144	25.419	-0.238	-0.196
-186.129	-200.000	0.189	-1.129
-185.114	-12.983	-0.671	0.432
-184.100	800.000	0.164	0.499
-183.085	-200.000	0.081	1.102
-182.071	-135.010	0.368	-0.044
-181.056	178.004	-0.277	-0.400
-180.042	233.425	-0.118	-0.192
-179.027	246.470	-0.191	0.319
-178.012	60.685	-0.201	-0.197
-176.998	116.307	-0.358	0.435
-175.983	-48.588	0.505	0.240
-174.969	170.294	-0.615	0.871
-173.954	770.480	-0.180	-0.485
-172.939	667.032	-0.171	-0.436
-171.925	118.114	-0.058	-0.071
-170.910	800.000	-0.119	0.350
-169.896	200.179	0.170	-0.259
-168.881	64.969	-0.583	-0.583
-167.866	-128.530	-0.369	0.052
-166.852	-58.158	-0.566	-0.244
-165.837	4.703	-0.563	0.409
-164.823	-141.211	0.120	0.012
-163.808	-19.712	-0.633	0.387
-162.793	-200.000	0.028	0.192
-161.779	336.368	0.645	1.239
-160.764	-119.481	-0.403	0.069
-159.750	38.475	0.301	0.266
-158.735	50.228	-0.514	-0.480
-157.720	-200.000	-0.048	0.304
-156.706	66.017	0.399	-0.400
-155.691	71.886	0.301	-0.309
-154.677	-200.000	-0.018	-0.876
-153.662	-200.000	0.005	-0.611
-152.647	-61.365	-0.443	0.184
-151.633	106.012	-0.174	0.204
-150.618	29.857	0.538	0.453
-149.604	-183.380	0.209	0.004
-148.589	281.897	0.117	-0.208
-147.574	-82.553	-0.561	0.180
-146.560	-163.877	0.480	-0.022
-145.545	499.669	-0.391	0.892
-144.531	86.064	-0.569	0.620
-143.516	-23.665	-0.416	0.246
-142.502	49.891	0.195	-0.182
-141.487	388.003	0.322	0.659
-140.472	-117.085	-0.292	0.053
-139.458	634.128	0.163	0.408
-138.443	-102.739	0.335	-0.079
-137.429	-200.000	-0.116	0.527
-136.414	315.001	0.445	-0.829
-135.399	223.501	-0.342	-0.546
-134.385	-200.000	0.043	0.281
-133.370	24.759	0.143	0.117
-132.356	-155.892	0.435	-0.027
-131.341	800.000	-0.164	0.457
-130.326	-200.000	0.089	1.741
-129.312	160.983	-0.232	0.320
-128.297	-16.151	0.286	-0.180
-127.283	93.485	0.157	-0.175
-126.268	-41.547	0.675	0.343
-125.253	-143.809	0.280	-0.026
-124.239	-29.344	0.416	-0.235
-123.224	-107.824	0.737	0.159
-122.210	-63.405	-0.486	0.197
-121.195	255.418	-0.183	0.309
-120.180	30.563	0.132	-0.111
-119.166	83.513	-0.338	0.364
-118.151	384.358	0.108	0.220
-117.137	89.630	-0.244	0.269
-116.122	51.908	-0.606	0.569
-115.107	65.552	0.829	-0.829
-114.093	259.818	-0.223	-0.380
-113.078	91.232	-0.487	-0.540
-112.064	-83.295	0.131	0.042
-111.049	-6.615	-0.350	-0.235
-110.034	655.507	0.201	-0.510
-109.020	-73.224	0.263	0.095
-108.005	-200.000	-0.025	-0.753
-106.991	-53.329	0.421	-0.191
-105.976	-49.821	-0.344	-0.161
-104.962	113.628	-0.321	0.385
-103.947	-183.656	-0.501	-0.008
-102.932	-200.000	0.151	0.709
-101.918	-200.000	-0.079	-0.854
-100.903	62.957	0.376	-0.371
-99.889	60.430	-0.460	-0.450
-98.874	170.256	-0.319	-0.451
-97.859	-63.417	0.204	-0.083
-96.845	800.000	-0.101	0.372
-95.830	800.000	0.327	0.938
-94.816	45.810	0.680	-0.621
-93.801	800.000	-0.194	0.668
-92.786	61.308	0.113	0.111
-91.772	212.082	-0.496	0.772
-90.757	-48.112	-0.822	0.392
-89.743	-37.336	-0.487	0.256
-88.728	-109.166	1.000	0.210
-87.713	49.388	0.289	-0.268
-86.699	787.924	0.342	0.926
-85.684	83.789	-0.677	-0.728
-84.670	377.663	0.337	0.680
-83.655	-200.000	-0.107	-0.946
-82.640	-200.000	0.481	-0.002
-81.626	-105.997	-0.308	0.068
-80.611	306.406	-0.187	-0.344
-79.597	-200.000	-0.081	0.393
-78.582	347.617	0.114	0.222
-77.567	185.180	-0.270	-0.395
-76.553	-98.482	0.335	-0.085
-75.538	-16.808	0.157	-0.098
-74.524	-100.918	0.468	-0.113
-73.509	39.441	-0.470	0.415
-72.494	474.969	0.082	-0.183
-71.480	105.902	-0.170	0.199
-70.465	169.453	-0.148	-0.208
-69.451	400.871	-0.130	0.270
-68.436	1.521	0.285	-0.202
-67.422	-107.758	0.973	-0.209
-66.407	-162.633	-0.743	0.036
-65.392	-200.000	-0.050	-0.526
-64.378	-106.263	-0.538	-0.119
-63.363	316.418	0.088	-0.165
-62.349	-68.269	-0.296	-0.113
-61.334	32.098	-0.986	-0.838
-60.319	380.385	0.011	0.022
-59.305	800.000	-0.342	-0.938
-58.290	426.527	0.293	0.622
-57.276	186.071	0.698	1.023
-56.261	-200.000	95.797	566.995
-55.246	639.978	1367.092	3427.288
-54.232	201.180	2531.941	3839.378
-53.217	116.681	2147.976	2596.206
-52.203	43.368	1698.747	1528.888
-51.188	36.365	1513.085	1314.277
-50.173	34.180	1485.317	1275.484
-49.159	53.879	1537.280	1454.896
-48.144	54.714	1554.571	1476.899
-47.130	36.478	1513.502	1315.198
-46.115	33.354	1499.323	1281.720
-45.100	33.075	1496.199	1277.111
-44.086	33.223	1493.104	1275.421
-43.071	33.298	1490.758	1273.868
-42.057	33.200	1490.480	1272.920
-41.042	33.119	1488.945	1271.015
-40.027	33.171	1486.994	1269.648
-39.013	33.230	1485.368	1268.608
-37.998	33.050	1486.057	1267.938
-36.984	33.140	1483.395	1266.216
-35.969	33.132	1482.359	1265.230
-34.954	33.337	1480.202	1264.706
-33.940	33.211	1479.183	1262.947
-32.925	33.201	1478.391	1262.155
-31.911	33.483	1475.785	1261.756
-30.896	33.164	1475.126	1259.018
-29.881	33.474	1473.471	1259.619
-28.867	33.114	1472.407	1256.268
-27.852	33.373	1471.559	1257.213
-26.838	33.465	1469.476	1255.996
-25.823	33.171	1469.117	1253.687
-24.809	33.157	1467.222	1251.925
-23.794	33.208	1464.927	1250.257
-22.779	33.068	1464.311	1248.760
-21.765	33.164	1462.546	1247.837
-20.750	33.453	1461.888	1249.133
-19.736	33.131	1461.300	1246.458
-18.721	32.972	1459.837	1244.109
-17.706	33.477	1457.380	1245.286
-16.692	33.250	1457.433	1243.795
-15.677	33.186	1456.470	1242.501
-14.663	33.093	1456.380	1241.763
-13.648	33.065	1454.886	1240.258
-12.633	32.834	1454.858	1238.666
-11.619	33.117	1452.787	1238.707
-10.604	33.154	1452.556	1238.708
-9.590	33.132	1450.915	1237.116
-8.575	33.120	1449.858	1236.084
-7.560	33.445	1448.689	1237.160
-6.546	33.121	1448.339	1234.701
-5.531	32.906	1448.785	1233.625
-4.517	33.063	1447.472	1233.481
-3.502	33.191	1446.548	1233.480
-2.487	33.197	1444.992	1232.141
-1.473	33.124	1443.654	1230.480
-0.458	33.377	1441.297	1230.062
0.556	34.079	1432.835	1218.119
1.571	31.047	1407.492	1177.361
2.586	27.122	1348.827	1104.388
3.600	25.570	1265.945	1027.575
4.615	24.096	1219.967	982.042
5.629	20.703	1163.375	918.529
6.644	11.297	1078.509	805.206
7.659	4.112	1037.344	740.172
8.673	3.094	1032.159	731.570
9.688	3.213	1027.207	728.559
10.702	2.707	1026.526	725.618
11.717	2.826	1024.906	724.969
12.731	5.891	1028.699	742.102
13.746	15.236	1041.018	795.463
14.761	22.912	1051.672	840.193
15.775	24.958	1052.454	850.468
16.790	25.173	1051.612	850.733
17.804	24.557	1051.678	847.787
18.819	24.447	1051.211	846.817
19.834	24.726	1050.858	847.779
20.848	25.033	1049.737	848.254
21.863	24.861	1049.632	847.278
22.877	24.772	1049.627	846.778
23.892	24.859	1048.426	846.144
24.907	24.730	1047.591	844.786
25.921	24.947	1047.849	845.949
26.936	24.877	1046.429	844.395
27.950	24.774	1045.558	843.133
28.965	24.821	1043.803	841.865
29.980	24.722	1042.101	839.951
30.994	25.157	1040.393	840.541
32.009	24.947	1039.626	838.863
33.023	24.839	1040.488	838.980
34.038	24.735	1039.310	837.469
35.053	24.861	1037.775	836.746
36.067	25.047	1037.775	837.540
37.082	24.852	1036.763	835.740
38.096	24.997	1035.592	835.398
39.111	24.950	1036.174	835.574
40.126	24.724	1035.174	833.639
41.140	25.098	1033.257	833.764
42.155	25.029	1030.981	831.529
43.169	24.525	1030.983	829.119
44.184	24.424	1030.606	828.273
45.199	24.791	1029.158	828.739
46.213	24.420	1028.402	826.341
47.228	24.410	1027.249	825.290
48.242	24.810	1026.866	826.759
49.257	25.021	1025.713	826.731
50.271	25.000	1025.044	826.024
51.286	24.912	1024.788	825.337
52.301	25.411	1021.967	825.285
53.315	24.972	1023.850	824.712
54.330	25.243	1022.296	824.636
55.344	24.869	1022.063	822.657
56.359	25.006	1020.453	821.914
57.374	24.943	1020.033	821.214
58.388	24.551	1019.775	819.136
59.403	25.043	1018.467	820.267
60.417	24.953	1017.926	819.346
61.432	24.737	1017.218	817.718
62.447	24.777	1017.007	817.655
63.461	24.756	1015.541	816.309
64.476	24.933	1015.254	816.815
65.490	24.944	1014.604	816.272
66.505	24.434	1014.054	813.433
67.520	24.961	1011.936	814.059
68.534	24.736	1012.257	813.220
69.549	24.777	1011.401	812.646
70.563	24.342	1010.276	809.696
71.578	24.367	1009.960	809.485
72.593	24.404	1008.882	808.717
73.607	24.554	1006.275	807.235
74.622	24.172	1006.490	805.606
75.636	24.399	1006.378	806.472
76.651	24.571	1004.336	805.541
77.666	24.435	1004.598	805.068
78.680	24.485	1003.604	804.426
79.695	24.787	1002.661	804.957
80.709	24.590	1002.556	803.915
81.724	24.889	1000.793	803.771
82.739	24.720	1000.242	802.499
83.753	24.640	999.463	801.447
84.768	24.714	1000.141	802.249
85.782	25.337	998.531	803.679
86.797	25.478	998.392	804.125
87.812	25.706	996.405	803.473
88.826	25.276	996.505	801.562
89.841	25.146	996.518	800.921
90.855	25.397	995.243	800.946
91.870	25.499	994.566	800.783
92.884	25.472	994.116	800.228
93.899	25.338	992.779	798.487
94.914	25.308	991.948	797.614
95.928	25.018	992.782	796.924
96.943	25.581	991.011	797.933
97.957	25.066	989.510	794.369
98.972	25.185	988.083	793.679
99.987	25.155	986.882	792.514
101.001	24.972	987.266	791.941
102.016	25.300	986.535	792.735
103.030	25.148	985.941	791.517
104.045	25.121	985.726	791.155
105.060	24.789	984.411	788.565
106.074	24.658	983.760	787.398
107.089	24.887	982.414	787.260
108.103	25.180	981.448	787.702
109.118	25.302	980.101	787.086
110.133	24.923	979.457	784.839
111.147	25.277	977.666	784.881
112.162	24.662	977.497	781.985
113.176	24.677	976.071	780.844
114.191	24.579	975.953	780.252
115.206	24.690	975.567	780.360
116.220	24.534	974.867	779.047
117.235	24.601	972.901	777.698
118.249	24.695	972.528	777.743
119.264	24.807	970.950	776.898
120.279	24.645	970.340	775.638
121.293	24.582	970.537	775.455
122.308	24.404	969.577	773.844
123.322	24.722	968.915	774.625
124.337	24.288	968.148	772.066
125.352	24.495	966.517	771.592
126.366	23.884	965.997	768.469
127.381	24.080	963.334	767.128
128.395	24.642	963.586	769.683
129.410	24.961	962.851	770.400
130.424	24.982	962.439	770.090
131.439	25.179	961.298	769.954
132.454	24.953	961.551	769.119
133.468	25.083	959.389	767.878
134.483	24.942	958.678	766.637
135.497	24.783	960.011	766.954
136.512	25.341	958.119	767.761
137.527	25.087	957.453	766.076
138.541	25.203	956.304	765.585
139.556	24.986	956.773	764.966
140.570	25.163	955.212	764.404
141.585	25.286	953.761	763.699
142.600	25.222	954.097	763.629
143.614	25.596	952.067	763.521
144.629	25.498	951.968	762.960
145.643	25.662	951.242	763.007
146.658	25.929	949.280	762.493
147.673	25.198	948.580	758.773
148.687	25.248	947.909	758.381
149.702	25.183	947.424	757.650
150.716	25.210	945.467	756.135
151.731	25.080	944.729	754.928
152.746	25.344	943.665	755.124
153.760	25.383	942.983	754.673
154.775	25.235	943.122	754.097
155.789	25.077	942.525	752.889
156.804	25.529	941.202	753.659
157.819	25.474	939.632	752.107
158.833	25.318	939.709	751.447
159.848	25.490	939.329	751.796
160.862	25.510	938.556	751.196
161.877	25.328	937.509	749.533
162.892	25.488	935.887	748.837
163.906	25.080	936.496	747.554
164.921	25.637	935.056	748.657
165.935	25.404	933.928	746.718
166.950	25.669	932.640	746.723
167.964	25.613	931.123	745.213
168.979	25.462	931.167	744.555
169.994	25.302	930.377	743.194
171.008	25.160	929.319	741.696
172.023	25.463	928.135	741.939
173.037	25.732	927.848	742.752
174.052	25.491	926.523	740.634
175.067	25.425	926.353	740.159
176.081	25.233	926.076	739.082
177.096	25.240	924.070	737.444
178.110	25.341	923.251	737.139
179.125	25.263	922.457	736.123
180.140	25.152	920.473	734.019
181.154	25.005	920.791	733.607
182.169	25.152	919.996	733.511
183.183	24.987	921.094	733.642
184.198	25.225	919.575	733.344
185.213	25.220	919.652	733.318
186.227	25.371	918.780	733.172
187.242	25.438	918.516	733.173
188.256	25.385	917.883	732.388
189.271	25.419	916.688	731.506
190.286	25.750	915.906	732.165
191.300	25.075	915.320	728.885
192.315	24.842	912.983	726.016
193.329	24.284	912.533	723.330
194.344	23.910	912.147	721.443
195.359	24.847	911.278	724.488
196.373	25.324	912.624	727.426
197.388	25.332	912.203	727.057
198.402	25.313	910.782	725.785
199.417	25.677	910.410	726.896
200.432	25.635	909.711	726.103
201.446	25.827	909.149	726.364
202.461	25.475	908.606	724.449
203.475	25.598	907.734	724.186
204.490	25.372	906.982	722.612
205.504	24.432	904.692	716.948
206.519	24.704	904.111	717.518
207.534	25.088	904.375	719.204
208.548	25.318	904.716	720.332
209.563	25.603	903.432	720.389
210.577	25.364	903.589	719.495
211.592	25.267	903.242	718.764
212.607	25.832	901.991	719.965
213.621	25.769	901.312	719.109
214.636	25.750	900.896	718.636
215.650	25.704	900.583	718.141
216.665	25.532	899.911	716.854
217.680	25.837	899.629	717.780
218.694	25.770	898.965	716.922
219.709	25.674	897.810	715.556
220.723	25.468	897.760	714.633
221.738	25.503	896.966	714.077
222.753	25.447	897.166	713.951
223.767	25.165	896.747	712.431
224.782	25.602	894.827	712.579
225.796	25.634	894.402	712.301
226.811	26.004	894.041	713.415
227.826	25.369	893.830	710.671
228.840	24.931	891.656	707.150
229.855	24.784	890.475	705.573
230.869	24.758	891.176	705.962
231.884	24.637	890.121	704.588
232.899	25.077	888.806	705.217
233.913	25.293	889.067	706.210
234.928	25.603	888.680	707.057
235.942	25.513	887.447	705.662
236.957	25.919	885.745	705.838
237.972	25.487	885.153	703.613
238.986	25.296	885.004	702.686
240.001	25.115	885.226	702.090
241.015	25.278	884.373	701.988
242.030	25.260	883.740	701.352
243.045	25.280	883.546	701.217
244.059	25.583	882.589	701.577
245.074	25.523	883.015	701.620
246.088	25.753	880.854	700.735
247.103	25.120	881.306	698.568
248.117	25.284	880.269	698.322
249.132	25.944	881.017	701.422
250.147	26.220	880.755	702.222
251.161	26.329	879.969	701.958
252.176	26.539	879.072	701.995
253.190	26.508	878.654	701.479
254.205	26.185	878.727	700.225
255.220	26.438	877.449	700.124
256.234	26.312	877.455	699.575
257.249	26.474	875.855	698.867
258.263	26.071	876.282	697.588
259.278	26.343	874.703	697.318
260.293	26.386	874.813	697.510
261.307	26.420	874.090	697.002
262.322	26.303	873.684	696.166
263.336	26.377	873.238	696.034
264.351	25.779	872.395	693.000
265.366	25.246	870.680	689.529
266.380	25.290	869.734	688.887
267.395	25.645	869.815	690.253
268.409	25.819	870.031	691.030
269.424	25.871	869.630	690.850
270.439	26.218	868.829	691.484
271.453	26.129	867.701	690.182
272.468	26.117	867.864	690.206
273.482	26.100	866.484	688.981
274.497	26.034	867.063	689.128
275.512	26.195	865.497	688.439
276.526	25.858	864.195	686.058
277.541	26.187	864.323	687.352
278.555	26.211	863.992	687.119
279.570	26.172	862.650	685.842
280.585	26.130	863.378	686.200
281.599	26.190	862.381	685.575
282.614	26.637	861.624	686.609
283.628	25.741	861.043	682.687
284.643	25.538	859.917	680.966
285.657	25.545	859.469	680.579
286.672	25.796	859.834	681.756
287.687	25.642	858.658	680.184
288.701	25.407	858.635	679.215
289.716	25.823	857.375	679.730
290.730	25.911	856.925	679.642
291.745	25.982	855.786	678.949
292.760	25.947	854.879	678.035
293.774	25.868	854.425	677.320
294.789	26.380	855.028	679.662
295.803	26.545	855.201	680.360
296.818	26.500	854.069	679.230
297.833	26.314	853.984	678.405
298.847	26.458	852.185	677.455
299.862	26.294	852.322	676.891
300.876	26.297	851.766	676.401
301.891	26.671	850.804	676.973
302.906	26.600	850.776	676.624
303.920	26.688	849.569	675.934
304.935	26.305	849.337	674.261
305.949	26.878	849.419	676.406
306.964	26.700	847.821	674.411
307.979	26.546	847.714	673.690
308.993	26.285	846.981	672.077
310.008	26.418	846.543	672.165
311.022	26.769	847.116	673.868
312.037	26.400	845.312	671.002
313.052	26.525	845.127	671.259
314.066	25.904	844.977	668.780
315.081	25.729	843.388	666.814
316.095	25.300	843.283	665.081
317.110	25.752	842.794	666.312
318.125	26.118	841.935	666.924
319.139	25.864	841.197	665.346
320.154	25.355	839.779	662.287
321.168	24.952	839.034	660.157
322.183	25.378	839.001	661.641
323.197	26.004	839.339	664.154
324.212	25.916	839.070	663.560
325.227	26.397	838.267	664.634
326.241	25.933	838.793	663.286
327.256	26.095	837.721	662.973
328.270	25.969	836.588	661.558
329.285	26.163	836.302	661.984
330.300	25.843	835.521	660.135
331.314	25.598	835.394	659.078
332.329	25.494	834.093	657.611
333.343	26.012	833.459	658.947
334.358	26.430	833.486	660.437
335.373	26.455	832.315	659.544
336.387	26.431	832.085	659.215
337.402	26.591	832.332	659.936
338.416	26.805	831.254	659.801
339.431	26.648	831.150	659.087
340.446	26.456	831.045	658.247
341.460	26.729	830.223	658.532
342.475	26.624	829.754	657.720
343.489	26.908	828.854	657.978
344.504	27.130	827.739	657.838
345.519	26.937	828.107	657.375
346.533	27.262	827.361	657.900
347.548	26.766	827.935	656.500
348.562	26.834	826.236	655.343
349.577	26.943	825.783	655.317
350.592	26.937	825.338	654.885
351.606	26.841	825.222	654.388
352.621	26.502	824.927	652.875
353.635	26.882	823.775	653.273
354.650	26.743	823.978	652.875
355.665	26.313	822.745	650.296
356.679	26.416	820.543	648.868
357.694	26.367	821.210	649.160
358.708	26.683	820.039	649.309
359.723	26.342	820.364	648.286
360.738	26.393	819.681	647.874
361.752	26.313	819.082	647.054
362.767	26.755	818.565	648.172
363.781	26.799	818.779	648.439
364.796	26.893	818.778	648.719
365.810	27.238	818.609	649.762
366.825	27.053	818.016	648.571
367.840	27.203	816.466	647.821
368.854	26.966	816.430	646.888
369.869	26.475	816.518	645.150
370.883	26.412	815.528	644.088
371.898	26.861	814.633	644.922
372.913	27.356	813.524	645.741
373.927	27.008	813.774	644.647
374.942	26.854	812.410	642.964
375.956	26.917	812.402	643.123
376.971	26.608	812.516	642.062
377.986	26.629	811.527	641.298
379.000	27.161	810.494	642.308
380.015	26.940	811.070	641.924
381.029	26.702	810.106	640.264
382.044	26.923	809.082	640.178
383.059	27.231	808.474	640.726
384.073	27.628	807.574	641.351
385.088	27.324	807.378	640.072
386.102	26.544	807.751	637.562
387.117	26.900	807.142	638.281
388.132	26.820	805.885	636.947
389.146	26.691	804.902	635.662
390.161	26.539	803.644	634.081
391.175	26.684	804.353	635.089
392.190	27.142	804.283	636.586
393.205	26.750	804.754	635.528
394.219	26.299	803.519	632.916
395.234	25.382	801.507	628.070
396.248	24.981	800.295	625.666
397.263	25.384	800.775	627.392
398.278	26.306	801.440	631.079
399.292	26.567	801.248	631.782
400.307	26.230	800.756	630.164
401.321	25.935	799.933	628.430
402.336	25.921	800.328	628.638
403.350	26.514	799.245	629.798
404.365	26.804	799.171	630.691
405.380	27.517	798.511	632.591
406.394	27.447	797.961	631.855
407.409	27.276	798.152	631.360
408.423	27.609	796.392	631.064
409.438	27.174	796.974	629.962
410.453	27.657	796.415	631.137
411.467	27.236	796.507	629.695
412.482	27.328	795.115	628.860
413.496	27.037	794.899	627.625
414.511	26.603	795.958	626.903
415.526	26.720	795.207	626.661
416.540	27.349	793.808	627.675
417.555	27.125	793.168	626.341
418.569	27.096	792.889	625.966
419.584	27.333	792.448	626.378
420.599	27.193	792.300	625.723
421.613	159.727	1369.617	1793.655
422.628	138.378	1453.753	1793.763
