DTS Sentinel unit serial number:	SN413079Multiplexer serial number:	ORYXHardware model number:	OX4-SRSoftware version number:	ORYX F/W v4.00 Oryx Data Collector v3.7.2.0data status	okinstallation	princeton_trtdifferential loss correction	single-endedforward channel	channel 3reverse channel	N/Adate	2019/09/19time	00:16:35forward acquisition time	60.00reverse acquisition time	0.00gamma	496.2192k internal	0.2346k external	0.2346temperature offset calibration	0.9991default loss term (dB/km)	0.3790temperature slope calibration	1.0000multiplexer offset coefficient	1.0000multiplexer slope coefficient	1.0000fibre end	0.00T internal ref (°C)	22.77T ext. ref 1 (°C)	0.75T ext. ref 2 (°C)	15.79length (m)	temperature (°C)	Stokes	anti-Stokes-747.200	148.791	0.126	-0.170
-746.185	800.000	-0.095	0.319
-745.171	-200.000	-0.040	-0.385
-744.156	311.123	0.046	0.085
-743.142	111.520	-0.112	-0.135
-742.127	255.936	-0.148	0.254
-741.112	-18.172	-0.244	0.153
-740.098	492.996	0.104	0.238
-739.083	31.649	0.251	-0.216
-738.069	-61.764	0.155	-0.065
-737.054	-200.000	0.003	-0.152
-736.039	-35.008	-0.167	0.091
-735.025	-200.000	-0.018	0.475
-734.010	-49.758	0.303	-0.144
-732.996	800.000	0.042	0.128
-731.981	374.936	0.172	-0.351
-730.966	-200.000	-0.062	-0.404
-729.952	800.000	-0.016	-0.062
-728.937	165.628	-0.191	-0.270
-727.923	-200.000	0.063	-0.451
-726.908	-200.000	-0.020	-0.124
-725.894	152.511	0.352	-0.481
-724.879	-112.852	-0.209	0.041
-723.864	-33.045	-0.165	-0.092
-722.850	800.000	0.048	-0.149
-721.835	800.000	-0.030	-0.131
-720.821	-186.057	-0.581	-0.009
-719.806	108.928	-0.133	-0.159
-718.791	-97.406	-0.112	0.029
-717.777	121.814	-0.052	-0.064
-716.762	800.000	0.039	-0.152
-715.748	282.640	-0.090	-0.162
-714.733	427.153	-0.080	0.172
-713.718	-136.477	-0.299	-0.035
-712.704	-73.044	-0.145	0.053
-711.689	-93.777	0.153	0.042
-710.675	107.209	-0.108	-0.128
-709.660	278.470	0.098	-0.174
-708.645	136.561	0.123	-0.160
-707.631	-8.471	-0.243	-0.163
-706.616	-17.698	-0.323	-0.203
-705.602	-7.529	-0.204	0.138
-704.587	-145.410	-0.077	-0.007
-703.572	338.022	-0.111	-0.216
-702.558	-200.000	0.041	-0.179
-701.543	101.352	-0.082	-0.095
-700.529	-52.788	0.235	0.108
-699.514	-84.568	0.186	0.059
-698.499	-26.882	0.171	-0.100
-697.485	508.296	0.063	-0.145
-696.470	-20.208	0.091	-0.056
-695.456	175.145	0.084	0.121
-694.441	338.280	-0.123	0.239
-693.426	45.343	-0.120	-0.111
-692.412	-62.916	0.281	0.116
-691.397	-16.946	0.296	0.187
-690.383	-200.000	0.064	-0.337
-689.368	-32.402	-0.304	-0.169
-688.354	100.513	0.160	-0.185
-687.339	24.138	-0.142	-0.117
-686.324	800.000	0.098	-0.366
-685.310	-97.618	0.109	0.028
-684.295	240.255	-0.101	0.167
-683.281	65.267	-0.197	-0.199
-682.266	71.055	0.210	0.218
-681.251	-66.344	0.321	-0.127
-680.237	414.997	0.149	-0.317
-679.222	-200.000	-0.004	0.215
-678.208	116.780	0.149	0.182
-677.193	54.814	-0.223	-0.214
-676.178	139.599	0.280	-0.368
-675.164	-129.301	-0.297	-0.041
-674.149	-51.112	0.346	-0.162
-673.135	-200.000	-0.024	-0.321
-672.120	-30.900	-0.352	-0.198
-671.105	-166.044	-0.309	0.013
-670.091	-109.382	-0.382	0.081
-669.076	243.651	0.071	-0.119
-668.062	-22.070	0.142	-0.086
-667.047	704.651	0.074	-0.193
-666.032	-200.000	-0.062	0.337
-665.018	83.772	-0.162	-0.176
-664.003	263.408	-0.054	0.093
-662.989	-63.920	-0.115	0.047
-661.974	440.317	0.148	0.322
-660.959	-200.000	-0.051	-0.237
-659.945	-20.635	0.147	-0.090
-658.930	161.175	0.210	-0.293
-657.916	149.025	-0.249	0.335
-656.901	572.528	0.121	-0.295
-655.886	16.791	-0.080	-0.063
-654.872	-72.602	0.376	0.138
-653.857	77.519	-0.259	0.275
-652.843	60.357	0.091	0.090
-651.828	800.000	-0.144	0.549
-650.814	45.175	-0.237	0.218
-649.799	-61.096	0.112	0.047
-648.784	-42.870	-0.273	-0.138
-647.770	-96.532	0.074	-0.020
-646.755	-200.000	-0.073	-0.354
-645.741	-53.984	-0.322	-0.146
-644.726	-200.000	0.011	-0.209
-643.711	729.248	-0.044	0.118
-642.697	788.925	-0.016	0.043
-641.682	-40.813	0.165	-0.085
-640.668	14.181	0.319	0.248
-639.653	32.485	0.119	-0.102
-638.638	-200.000	0.035	-0.153
-637.624	100.648	0.200	-0.231
-636.609	-73.012	0.218	0.080
-635.595	-200.000	0.075	-0.332
-634.580	800.000	-0.015	-0.057
-633.565	800.000	-0.071	0.309
-632.551	-80.972	0.163	-0.054
-631.536	-28.211	-0.360	-0.207
-630.522	-108.224	0.162	-0.035
-629.507	112.846	0.182	0.220
-628.492	-78.178	-0.309	-0.106
-627.478	12.857	-0.217	-0.167
-626.463	46.083	0.247	0.228
-625.449	331.063	-0.050	-0.097
-624.434	500.478	-0.244	0.560
-623.419	730.776	-0.036	0.096
-622.405	-84.318	0.172	0.054
-621.390	73.369	-0.179	-0.186
-620.376	12.168	0.135	-0.103
-619.361	51.253	-0.126	0.119
-618.346	41.521	0.032	-0.029
-617.332	285.874	0.238	-0.426
-616.317	-200.000	0.038	-0.330
-615.303	800.000	-0.043	0.151
-614.288	-155.780	0.192	0.012
-613.273	-200.000	-0.001	-0.052
-612.259	-200.000	-0.011	-0.146
-611.244	497.191	0.090	-0.205
-610.230	-8.758	0.044	-0.030
-609.215	78.937	0.255	-0.271
-608.201	-46.266	-0.198	-0.097
-607.186	116.063	0.045	0.055
-606.171	-200.000	-0.010	0.200
-605.157	-142.723	-0.146	0.014
-604.142	-43.355	-0.292	-0.147
-603.128	-146.703	-0.211	-0.018
-602.113	-141.630	-0.247	-0.025
-601.098	-200.000	0.023	-0.310
-600.084	69.505	-0.103	0.105
-599.069	-112.246	0.139	-0.028
-598.055	-0.341	0.296	0.209
-597.040	-31.925	-0.075	0.042
-596.025	800.000	0.076	0.246
-595.011	-200.000	0.035	-0.271
-593.996	623.444	0.012	-0.030
-592.982	247.696	-0.084	-0.141
-591.967	31.389	-0.099	0.084
-590.952	-200.000	0.026	0.274
-589.938	-50.231	-0.027	-0.013
-588.923	-155.731	-0.446	-0.028
-587.909	-102.839	-0.139	0.033
-586.894	-200.000	-0.013	-0.233
-585.879	-11.717	0.206	0.134
-584.865	800.000	0.087	0.269
-583.850	-73.300	-0.092	0.034
-582.836	-200.000	0.031	0.303
-581.821	-200.000	-0.006	-0.287
-580.806	-96.817	-0.271	-0.071
-579.792	800.000	-0.091	-0.252
-578.777	-200.000	-0.026	-0.225
-577.763	73.033	0.079	0.082
-576.748	-18.895	-0.189	0.117
-575.733	137.120	-0.135	-0.176
-574.719	-46.195	0.376	0.184
-573.704	-79.821	0.087	-0.029
-572.690	-107.821	-0.055	-0.012
-571.675	-51.422	0.428	0.198
-570.661	800.000	0.076	-0.231
-569.646	-187.553	-0.117	0.002
-568.631	-63.777	-0.368	0.150
-567.617	74.251	0.140	-0.146
-566.602	186.702	0.293	-0.433
-565.588	-200.000	-0.009	0.087
-564.573	-136.845	-0.327	0.037
-563.558	51.247	-0.320	0.302
-562.544	-86.794	-0.015	0.005
-561.529	62.336	-0.057	-0.056
-560.515	-167.067	-0.332	0.013
-559.500	800.000	-0.119	-0.342
-558.485	222.356	0.135	0.215
-557.471	40.577	-0.079	-0.071
-556.456	211.161	0.225	0.352
-555.442	331.331	-0.047	-0.090
-554.427	800.000	-0.069	-0.224
-553.412	-62.741	-0.217	0.089
-552.398	80.828	0.215	-0.230
-551.383	-55.689	0.338	0.150
-550.369	-15.042	-0.300	0.191
-549.354	-36.996	0.217	0.115
-548.339	-47.832	0.120	-0.058
-547.325	-100.428	0.237	-0.058
-546.310	-56.762	-0.164	-0.072
-545.296	241.866	-0.094	-0.157
-544.281	-15.438	-0.218	-0.138
-543.266	198.850	0.088	-0.134
-542.252	-34.778	-0.089	-0.048
-541.237	19.457	0.090	0.072
-540.223	-200.000	-0.022	0.324
-539.208	-184.485	-0.390	0.006
-538.193	111.972	0.116	0.139
-537.179	185.486	0.121	-0.179
-536.164	800.000	-0.097	-0.317
-535.150	167.110	-0.059	0.084
-534.135	564.905	0.050	-0.120
-533.121	296.166	-0.103	0.187
-532.106	-77.332	-0.320	0.110
-531.091	3.232	-0.138	-0.099
-530.077	-153.120	-0.538	0.037
-529.062	-28.294	-0.065	0.037
-528.048	-117.813	0.345	0.061
-527.033	-132.953	0.054	-0.007
-526.018	274.380	-0.125	0.219
-525.004	-200.000	0.010	0.514
-523.989	-69.830	-0.200	0.076
-522.975	-79.519	0.106	0.036
-521.960	307.412	-0.018	0.034
-520.945	-87.311	0.263	-0.079
-519.931	288.030	0.152	-0.273
-518.916	-200.000	-0.003	-0.031
-517.902	103.273	0.248	-0.288
-516.887	-167.412	-0.169	0.007
-515.872	800.000	0.055	0.213
-514.858	800.000	0.065	0.242
-513.843	127.069	0.046	-0.058
-512.829	289.273	-0.167	-0.299
-511.814	-28.584	-0.197	-0.113
-510.799	323.281	0.175	-0.331
-509.785	194.634	-0.151	0.227
-508.770	61.761	-0.227	0.224
-507.756	-90.615	0.230	0.066
-506.741	127.794	-0.216	-0.272
-505.726	393.772	-0.112	0.230
-504.712	-200.000	0.014	0.338
-503.697	800.000	0.078	0.299
-502.683	586.159	0.123	-0.298
-501.668	426.055	0.011	0.023
-500.653	642.445	0.033	-0.083
-499.639	-66.841	0.103	-0.040
-498.624	-82.606	-0.150	0.048
-497.610	-64.105	0.068	0.028
-496.595	0.931	-0.141	-0.100
-495.581	800.000	-0.041	0.143
-494.566	-25.859	0.154	-0.090
-493.551	-85.254	0.157	0.048
-492.537	800.000	0.075	-0.252
-491.522	85.668	0.103	-0.112
-490.508	-46.233	-0.246	-0.120
-489.493	-200.000	-0.025	0.186
-488.478	-200.000	0.021	-0.101
-487.464	-200.000	0.004	-0.163
-486.449	8.881	-0.085	-0.063
-485.435	199.930	0.214	-0.325
-484.420	-13.352	0.105	0.067
-483.405	800.000	-0.123	-0.361
-482.391	97.939	0.322	0.367
-481.376	-200.000	0.065	0.305
-480.362	77.488	-0.099	-0.104
-479.347	-200.000	0.015	-0.262
-478.332	800.000	-0.046	0.191
-477.318	200.845	0.144	0.219
-476.303	433.248	-0.152	0.327
-475.289	800.000	-0.045	0.146
-474.274	224.839	-0.165	-0.263
-473.259	12.662	0.101	0.077
-472.245	126.176	-0.100	0.125
-471.230	800.000	-0.025	0.068
-470.216	-200.000	-0.009	0.196
-469.201	24.213	-0.180	-0.147
-468.186	89.490	0.064	0.070
-467.172	-200.000	-0.010	0.064
-466.157	263.411	-0.186	-0.320
-465.143	800.000	0.037	-0.158
-464.128	-86.942	-0.192	-0.058
-463.113	46.618	0.201	-0.184
-462.099	-109.345	0.172	0.036
-461.084	158.780	-0.212	-0.292
-460.070	-41.992	-0.081	0.041
-459.055	142.320	0.087	-0.114
-458.040	-200.000	-0.012	0.085
-457.026	800.000	0.022	-0.087
-456.011	-37.308	0.321	0.170
-454.997	302.461	-0.149	-0.273
-453.982	-200.000	-0.001	-0.026
-452.968	395.657	-0.178	-0.367
-451.953	-200.000	-0.024	-0.357
-450.938	96.200	0.174	-0.197
-449.924	-200.000	0.013	0.194
-448.909	-88.147	0.267	-0.079
-447.895	279.276	-0.076	0.133
-446.880	-0.468	-0.471	-0.331
-445.865	61.420	-0.123	-0.121
-444.851	-80.236	-0.043	0.014
-443.836	-51.462	-0.244	0.113
-442.822	-12.628	0.310	0.200
-441.807	-200.000	0.001	-0.050
-440.792	-200.000	0.001	0.059
-439.778	41.614	-0.222	-0.199
-438.763	-104.864	0.304	-0.069
-437.749	660.507	0.108	-0.275
-436.734	265.960	0.228	-0.394
-435.719	33.471	-0.104	0.089
-434.705	-90.487	-0.198	0.057
-433.690	-200.000	-0.016	0.169
-432.676	800.000	0.071	0.270
-431.661	-91.401	0.166	-0.047
-430.646	-35.651	0.211	0.113
-429.632	800.000	-0.032	-0.091
-428.617	-200.000	-0.060	-0.376
-427.603	738.129	0.057	-0.151
-426.588	-91.076	0.209	0.059
-425.573	800.000	-0.110	-0.355
-424.559	254.646	0.160	0.271
-423.544	800.000	-0.073	0.271
-422.530	-76.954	-0.229	0.079
-421.515	-78.454	0.144	0.049
-420.500	642.675	-0.106	0.267
-419.486	43.462	0.340	0.307
-418.471	-200.000	-0.005	0.109
-417.457	-59.749	-0.139	0.059
-416.442	-21.336	0.207	0.125
-415.428	380.838	0.143	-0.289
-414.413	-62.336	-0.133	0.055
-413.398	-200.000	0.025	0.373
-412.384	-188.129	-0.300	-0.004
-411.369	0.916	-0.111	0.079
-410.355	47.555	0.128	-0.118
-409.340	198.228	0.062	0.094
-408.325	85.824	0.244	-0.264
-407.311	72.698	0.315	0.324
-406.296	-102.739	-0.400	0.094
-405.282	-200.000	0.011	0.130
-404.267	-104.660	0.471	-0.107
-403.252	-200.000	0.005	-0.086
-402.238	-54.958	-0.186	0.083
-401.223	-200.000	0.009	0.523
-400.209	3.236	0.036	-0.026
-399.194	-2.541	-0.300	-0.207
-398.179	52.928	-0.056	-0.052
-397.165	-180.622	0.180	-0.004
-396.150	54.322	0.280	-0.266
-395.136	-200.000	0.037	0.188
-394.121	516.914	0.136	-0.315
-393.106	107.570	0.279	-0.327
-392.092	-164.008	0.141	-0.006
-391.077	498.974	-0.087	-0.197
-390.063	131.574	0.043	0.055
-389.048	-70.288	-0.125	-0.047
-388.033	-116.456	0.066	0.012
-387.019	-110.576	0.104	-0.021
-386.004	-200.000	-0.013	0.273
-384.990	735.914	0.016	-0.042
-383.975	77.934	-0.055	-0.058
-382.960	-137.084	0.280	-0.032
-381.946	-164.905	0.328	-0.014
-380.931	-50.853	0.489	-0.227
-379.917	137.745	-0.182	-0.235
-378.902	-23.827	0.134	0.079
-377.888	-5.802	0.282	0.191
-376.873	-39.310	0.205	0.106
-375.858	126.428	0.088	0.109
-374.844	800.000	0.051	-0.214
-373.829	-200.000	-0.004	0.194
-372.815	-200.000	-0.027	-0.374
-371.800	125.610	0.257	0.320
-370.785	-30.002	-0.498	0.280
-369.771	-200.000	0.019	-0.177
-368.756	-104.706	-0.126	-0.029
-367.742	-128.344	0.355	0.050
-366.727	-0.943	-0.366	-0.255
-365.712	800.000	-0.108	0.318
-364.698	79.219	-0.060	0.063
-363.683	214.521	-0.108	-0.169
-362.669	391.705	-0.024	0.050
-361.654	-75.601	-0.212	-0.074
-360.639	-172.042	0.309	0.010
-359.625	-55.107	-0.171	-0.076
-358.610	-200.000	0.060	-0.322
-357.596	-200.000	-0.527	-0.002
-356.581	-132.074	-0.328	-0.042
-355.566	118.849	-0.068	-0.083
-354.552	-30.445	0.252	0.141
-353.537	-109.575	0.358	-0.074
-352.523	288.060	-0.093	-0.165
-351.508	-164.980	-0.157	0.007
-350.493	-70.037	0.097	0.036
-349.479	33.602	-0.110	-0.094
-348.464	800.000	-0.039	-0.127
-347.450	-200.000	0.027	0.000
-346.435	800.000	0.126	-0.451
-345.420	-36.236	0.188	-0.100
-344.406	599.541	0.043	0.106
-343.391	374.472	0.087	0.174
-342.377	-1.086	-0.125	0.087
-341.362	-135.919	0.121	0.014
-340.348	-91.344	-0.222	0.062
-339.333	60.833	0.222	-0.217
-338.318	-25.474	-0.070	0.041
-337.304	-107.073	0.193	0.042
-336.289	800.000	0.030	-0.090
-335.275	800.000	-0.055	0.176
-334.260	26.786	-0.395	-0.325
-333.245	-13.808	-0.117	0.075
-332.231	800.000	-0.008	0.030
-331.216	-200.000	0.012	0.148
-330.202	-200.000	0.075	0.387
-329.187	288.575	-0.096	-0.171
-328.172	-200.000	-0.010	-0.076
-327.158	-99.448	0.066	-0.016
-326.143	-22.066	0.043	0.026
-325.129	275.039	0.148	0.258
-324.114	34.100	-0.085	-0.072
-323.099	-31.666	-0.265	0.146
-322.085	331.237	0.100	0.189
-321.070	124.928	0.185	0.229
-320.056	-200.000	-0.018	0.301
-319.041	-133.511	0.420	0.052
-318.026	-200.000	-0.020	-0.119
-317.012	24.937	0.332	0.271
-315.997	-200.000	-0.055	0.646
-314.983	-200.000	-0.012	0.191
-313.968	-200.000	0.032	0.212
-312.953	800.000	-0.024	-0.090
-311.939	-74.033	0.470	0.167
-310.924	212.551	0.100	0.156
-309.910	104.883	0.074	-0.086
-308.895	-17.064	0.122	0.076
-307.880	17.111	0.161	0.126
-306.866	-200.000	-0.001	0.068
-305.851	-9.649	-0.249	-0.163
-304.837	-200.000	-0.043	0.259
-303.822	-200.000	-0.015	0.095
-302.807	38.139	-0.234	0.205
-301.793	-39.862	-0.274	0.141
-300.778	53.586	-0.170	0.160
-299.764	86.827	-0.019	-0.020
-298.749	-67.224	0.171	-0.066
-297.735	344.062	-0.082	-0.158
-296.720	106.415	-0.102	0.118
-295.705	800.000	0.060	0.201
-294.691	77.201	0.091	-0.095
-293.676	612.945	-0.118	-0.291
-292.662	-200.000	-0.035	-0.589
-291.647	155.918	0.155	0.209
-290.632	800.000	0.120	-0.357
-289.618	-1.165	0.253	-0.176
-288.603	18.064	0.200	-0.157
-287.589	4.766	0.073	0.053
-286.574	127.024	-0.178	-0.221
-285.559	-29.355	-0.301	0.169
-284.545	210.018	-0.098	0.151
-283.530	374.161	0.119	-0.238
-282.516	-50.025	0.282	-0.131
-281.501	-200.000	0.011	0.454
-280.486	-12.462	0.146	-0.094
-279.472	-200.000	-0.058	-0.290
-278.457	79.248	-0.090	0.095
-277.443	3.781	0.170	-0.122
-276.428	78.604	0.213	0.223
-275.413	-117.515	-0.162	-0.029
-274.399	78.485	0.164	0.172
-273.384	61.674	0.179	-0.175
-272.370	-3.036	-0.266	-0.182
-271.355	15.844	-0.112	0.087
-270.340	-179.739	-0.270	-0.006
-269.326	800.000	0.113	-0.327
-268.311	-199.222	-0.498	-0.003
-267.297	619.710	-0.172	0.424
-266.282	-29.819	-0.274	-0.154
-265.267	-6.006	-0.087	-0.058
-264.253	430.660	-0.057	-0.122
-263.238	-200.000	-0.335	0.000
-262.224	-28.189	-0.248	0.141
-261.209	800.000	0.036	-0.141
-260.195	359.378	-0.108	-0.212
-259.180	92.424	-0.207	-0.229
-258.165	800.000	0.161	0.517
-257.151	-60.832	0.272	0.113
-256.136	-200.000	-0.044	0.267
-255.122	-169.504	0.416	0.015
-254.107	26.725	0.207	-0.170
-253.092	-83.007	-0.160	0.050
-252.078	14.047	-0.182	0.139
-251.063	-54.516	0.327	-0.145
-250.049	445.261	-0.174	-0.374
-249.034	186.816	-0.093	-0.136
-248.019	-60.919	0.307	0.127
-247.005	-61.161	-0.283	-0.117
-245.990	-55.788	-0.081	-0.036
-244.976	-200.000	0.009	-0.262
-243.961	-87.494	0.170	-0.050
-242.946	-15.189	-0.298	-0.187
-241.932	543.264	-0.056	0.130
-240.917	-200.000	0.019	-0.158
-239.903	-200.000	-0.003	0.077
-238.888	800.000	0.118	0.382
-237.873	223.649	0.112	0.177
-236.859	499.401	-0.083	0.187
-235.844	48.493	-0.151	0.139
-234.830	-17.600	-0.213	0.131
-233.815	97.878	-0.072	-0.081
-232.800	26.348	-0.200	-0.164
-231.786	-72.684	-0.131	-0.047
-230.771	30.451	-0.250	-0.209
-229.757	573.398	0.186	0.446
-228.742	-67.173	-0.118	0.045
-227.727	68.381	-0.168	0.169
-226.713	30.280	-0.113	-0.095
-225.698	264.891	-0.064	0.109
-224.684	210.668	0.229	0.352
-223.669	-95.045	0.204	-0.054
-222.655	-8.632	0.281	0.185
-221.640	102.190	-0.138	0.158
-220.625	163.301	-0.131	0.180
-219.611	-200.000	-0.023	-0.326
-218.596	792.246	-0.082	-0.220
-217.582	112.164	-0.192	-0.227
-216.567	304.779	0.257	0.467
-215.552	-111.269	-0.303	0.061
-214.538	421.054	0.072	0.151
-213.523	-33.625	0.092	0.050
-212.509	700.559	-0.030	-0.077
-211.494	492.112	-0.073	-0.164
-210.479	6.070	0.181	-0.132
-209.465	176.270	0.165	0.235
-208.450	70.574	-0.157	-0.159
-207.436	-137.805	0.156	0.017
-206.421	-198.225	-0.324	0.002
-205.406	30.373	0.165	0.138
-204.392	-142.347	-0.084	0.008
-203.377	-112.147	0.206	-0.041
-202.363	-200.000	0.030	-0.150
-201.348	-137.850	0.362	-0.040
-200.333	-200.000	-0.033	-0.193
-199.319	-115.227	0.206	-0.038
-198.304	-70.292	-0.048	0.018
-197.290	69.066	0.079	-0.080
-196.275	-139.390	-0.293	0.031
-195.260	24.783	0.117	0.095
-194.246	100.255	-0.104	-0.118
-193.231	164.021	0.286	0.393
-192.217	-46.715	0.082	0.040
-191.202	-27.083	-0.429	0.245
-190.187	351.456	0.148	-0.286
-189.173	9.509	-0.180	0.133
-188.158	119.845	0.224	0.272
-187.144	301.212	-0.062	0.112
-186.129	-108.073	0.411	0.087
-185.114	-173.308	-0.087	-0.003
-184.100	-200.000	-0.016	0.147
-183.085	-200.000	-0.035	-0.199
-182.071	333.713	0.086	0.163
-181.056	-200.000	-0.034	0.274
-180.042	240.546	0.129	-0.211
-179.027	-103.733	-0.209	0.048
-178.012	-200.000	-0.008	0.231
-176.998	-81.731	-0.286	-0.092
-175.983	89.445	-0.165	-0.180
-174.969	87.733	0.171	0.185
-173.954	8.401	0.084	-0.062
-172.939	800.000	-0.166	-0.452
-171.925	328.359	0.071	-0.133
-170.910	-200.000	0.045	0.271
-169.896	152.007	0.046	0.061
-168.881	-104.646	0.184	-0.041
-167.866	-59.229	0.219	0.092
-166.852	800.000	0.036	0.145
-165.837	92.977	0.133	-0.146
-164.823	-200.000	-0.017	-0.166
-163.808	-29.143	0.552	0.309
-162.793	120.707	-0.250	0.304
-161.779	364.481	-0.135	0.266
-160.764	-47.591	-0.090	0.042
-159.750	800.000	-0.052	0.215
-158.735	-30.993	0.107	-0.059
-157.720	-107.359	-0.207	0.044
-156.706	363.769	-0.041	0.081
-155.691	800.000	0.048	0.199
-154.677	244.190	-0.153	-0.252
-153.662	120.972	-0.137	-0.167
-152.647	503.660	-0.044	0.099
-151.633	800.000	0.088	-0.259
-150.618	99.116	0.225	0.254
-149.604	222.993	0.071	0.112
-148.589	-75.245	-0.339	-0.118
-147.574	84.414	0.248	-0.265
-146.560	800.000	-0.084	0.345
-145.545	-117.296	-0.107	0.019
-144.531	188.166	0.131	-0.191
-143.516	-200.000	-0.045	-0.287
-142.502	-16.337	-0.368	0.228
-141.487	800.000	0.026	0.088
-140.472	476.977	-0.061	0.135
-139.458	-16.995	-0.242	0.149
-138.443	-200.000	-0.031	0.194
-137.429	28.146	-0.062	0.051
-136.414	-91.057	0.270	0.076
-135.399	800.000	-0.015	0.052
-134.385	248.207	-0.117	0.194
-133.370	-124.588	0.101	-0.015
-132.356	54.215	-0.223	-0.210
-131.341	-67.276	0.114	-0.044
-130.326	85.410	0.095	-0.102
-129.312	130.600	-0.032	0.040
-128.297	-106.520	-0.183	-0.040
-127.283	545.638	0.025	0.058
-126.268	-20.688	-0.237	-0.142
-125.253	-116.801	-0.074	0.013
-124.239	-200.000	0.008	-0.190
-123.224	-109.521	-0.106	-0.022
-122.210	345.557	0.017	0.032
-121.195	-122.453	0.369	-0.059
-120.180	-4.778	-0.235	0.158
-119.166	-115.321	-0.108	-0.020
-118.151	-13.632	0.046	0.029
-117.137	800.000	-0.034	0.123
-116.122	-128.582	0.126	0.017
-115.107	-114.144	0.166	0.031
-114.093	-2.796	-0.353	-0.240
-113.078	-166.662	0.156	-0.006
-112.064	99.153	0.296	0.334
-111.049	-116.925	-0.177	-0.032
-110.034	-37.579	0.213	0.111
-109.020	-200.000	-0.016	0.073
-108.005	-140.329	-0.138	-0.014
-106.991	28.530	0.102	0.084
-105.976	-109.882	0.178	-0.036
-104.962	-200.000	0.046	0.355
-103.947	127.972	-0.034	-0.042
-102.932	-124.555	-0.165	0.025
-101.918	363.256	-0.043	0.084
-100.903	-106.651	-0.091	-0.020
-99.889	92.599	0.153	-0.168
-98.874	-133.620	0.117	0.014
-97.859	800.000	0.026	-0.099
-96.845	35.974	-0.148	0.127
-95.830	60.770	0.296	0.287
-94.816	-61.110	0.098	-0.040
-93.801	116.594	0.193	0.230
-92.786	-158.759	-0.150	0.008
-91.772	-80.401	0.282	0.092
-90.757	38.563	0.148	0.129
-89.743	80.558	-0.062	0.065
-88.728	-7.357	0.333	-0.220
-87.713	800.000	-0.062	-0.222
-86.699	58.772	0.079	0.076
-85.684	33.849	0.408	0.346
-84.670	-47.509	0.109	-0.052
-83.655	800.000	-0.039	0.114
-82.640	-97.053	0.131	0.033
-81.626	-200.000	-0.053	0.400
-80.611	800.000	-0.106	-0.290
-79.597	-68.561	0.214	-0.081
-78.582	-83.521	0.256	0.080
-77.567	-125.151	0.302	-0.045
-76.553	-27.338	-0.278	0.158
-75.538	4.583	0.119	-0.085
-74.524	800.000	0.078	-0.244
-73.509	-53.632	0.535	0.238
-72.494	76.861	-0.094	-0.098
-71.480	503.982	0.150	0.338
-70.465	-139.476	-0.103	-0.011
-69.451	28.709	-0.218	0.180
-68.436	-104.771	0.241	0.054
-67.422	-200.000	-0.109	0.507
-66.407	-143.943	0.054	0.005
-65.392	-19.898	-0.281	-0.169
-64.378	190.470	-0.091	-0.134
-63.363	112.429	-0.155	-0.182
-62.349	478.394	-0.038	-0.083
-61.334	62.682	-1.061	-1.033
-60.319	77.520	0.571	0.592
-59.305	800.000	-0.484	-1.472
-58.290	156.932	0.932	1.253
-57.276	-200.000	0.243	1.529
-56.261	-200.000	130.505	704.275
-55.246	394.018	1641.459	3327.537
-54.232	136.193	2788.442	3538.226
-53.217	95.116	2184.249	2420.953
-52.203	33.291	1696.356	1432.590
-51.188	25.777	1514.534	1227.970
-50.173	24.012	1490.881	1196.889
-49.159	48.844	1564.874	1428.897
-48.144	45.331	1576.290	1414.999
-47.130	25.859	1524.407	1236.346
-46.115	23.011	1507.907	1203.553
-45.100	22.782	1504.748	1199.429
-44.086	22.784	1502.790	1197.834
-43.071	22.633	1501.262	1195.544
-42.057	22.767	1499.185	1194.746
-41.042	22.737	1497.428	1193.099
-40.027	22.734	1496.195	1192.044
-39.013	22.716	1494.420	1190.463
-37.998	22.613	1493.597	1189.063
-36.984	22.718	1492.200	1188.612
-35.969	22.759	1490.904	1187.809
-34.954	22.747	1489.151	1186.286
-33.940	22.657	1488.743	1185.313
-32.925	22.679	1487.401	1184.340
-31.911	22.733	1485.791	1183.374
-30.896	22.786	1484.403	1182.575
-29.881	22.858	1483.367	1182.190
-28.867	22.815	1482.277	1180.984
-27.852	22.854	1480.680	1179.924
-26.838	22.772	1479.737	1178.583
-25.823	22.752	1477.835	1176.882
-24.809	22.842	1476.283	1176.202
-23.794	22.866	1474.783	1175.120
-22.779	22.770	1473.297	1173.253
-21.765	22.783	1472.548	1172.694
-20.750	22.805	1471.392	1171.873
-19.736	22.790	1470.113	1170.711
-18.721	22.908	1468.508	1170.167
-17.706	22.812	1468.386	1169.389
-16.692	22.717	1467.006	1167.614
-15.677	22.713	1466.302	1166.980
-14.663	22.795	1465.000	1166.440
-13.648	22.731	1464.362	1165.459
-12.633	22.824	1462.746	1164.741
-11.619	22.754	1462.722	1164.217
-10.604	22.667	1461.871	1162.916
-9.590	22.762	1461.006	1162.808
-8.575	22.777	1459.637	1161.773
-7.560	22.816	1458.995	1161.471
-6.546	22.868	1457.747	1160.776
-5.531	22.805	1457.099	1159.800
-4.517	22.709	1456.057	1158.295
-3.502	22.736	1455.248	1157.778
-2.487	22.767	1454.727	1157.524
-1.473	22.670	1453.588	1155.934
-0.458	22.827	1451.858	1155.542
0.556	21.729	1441.532	1142.912
1.571	18.289	1417.313	1101.513
2.586	14.557	1355.088	1030.056
3.600	12.823	1271.528	956.403
4.615	11.794	1228.210	917.966
5.629	10.404	1172.065	868.482
6.644	5.448	1092.639	784.743
7.659	1.391	1058.151	740.162
8.673	0.794	1052.977	733.583
9.688	0.780	1049.862	731.281
10.702	0.689	1047.776	729.324
11.717	0.738	1045.755	728.090
12.731	2.359	1046.469	736.329
13.746	8.069	1054.189	769.321
14.761	14.274	1062.650	805.538
15.775	17.051	1065.253	820.889
16.790	16.902	1064.572	819.571
17.804	16.040	1062.072	813.415
18.819	15.235	1059.834	807.755
19.834	14.790	1058.704	804.675
20.848	14.563	1057.680	802.733
21.863	14.197	1057.466	800.743
22.877	14.014	1056.464	799.030
23.892	13.762	1055.499	797.022
24.907	13.729	1054.624	796.130
25.921	13.685	1053.880	795.288
26.936	13.684	1053.482	794.914
27.950	13.760	1052.894	794.762
28.965	13.870	1051.509	794.170
29.980	13.840	1050.875	793.479
30.994	13.869	1049.723	792.678
32.009	13.894	1048.888	792.099
33.023	14.013	1048.066	791.975
34.038	13.914	1047.632	791.104
35.053	13.897	1046.857	790.369
36.067	13.949	1045.787	789.739
37.082	13.920	1044.770	788.760
38.096	13.877	1044.160	788.027
39.111	14.006	1043.301	787.923
40.126	13.961	1042.461	787.001
41.140	13.976	1041.896	786.580
42.155	13.808	1040.597	784.734
43.169	13.759	1039.993	783.978
44.184	13.827	1038.434	783.052
45.199	13.769	1037.681	782.144
46.213	13.778	1036.374	781.132
47.228	13.804	1035.399	780.447
48.242	13.935	1034.046	779.976
49.257	13.852	1033.537	779.132
50.271	13.833	1032.579	778.253
51.286	13.795	1031.825	777.438
52.301	13.840	1031.210	777.118
53.315	13.904	1030.038	776.463
54.330	13.836	1029.248	775.481
55.344	13.929	1028.344	775.166
56.359	13.827	1027.643	774.095
57.374	13.780	1027.040	773.353
58.388	13.903	1026.035	773.097
59.403	13.802	1025.185	771.919
60.417	13.733	1024.358	770.908
61.432	13.604	1024.327	770.220
62.447	13.821	1023.309	770.390
63.461	13.871	1022.301	769.796
64.476	13.831	1021.253	768.752
65.490	13.669	1020.836	767.622
66.505	13.566	1020.152	766.561
67.520	13.625	1019.384	766.190
68.534	13.772	1018.198	765.910
69.549	13.926	1017.376	765.935
70.563	13.685	1017.232	764.649
71.578	13.770	1016.349	764.307
72.593	13.711	1015.459	763.300
73.607	13.693	1014.239	762.230
74.622	13.734	1012.777	761.251
75.636	13.825	1011.826	760.888
76.651	13.691	1011.589	760.030
77.666	13.646	1011.213	759.474
78.680	13.674	1010.555	759.039
79.695	13.662	1009.995	758.497
80.709	13.781	1008.966	758.198
81.724	13.761	1008.283	757.528
82.739	13.835	1007.190	756.979
83.753	13.718	1007.414	756.546
84.768	13.820	1005.786	755.722
85.782	13.934	1005.267	755.781
86.797	13.921	1004.407	755.009
87.812	13.861	1003.829	754.235
88.826	13.946	1002.872	753.834
89.841	13.962	1002.133	753.288
90.855	13.951	1001.168	752.444
91.870	13.988	1000.587	752.110
92.884	14.021	999.559	751.420
93.899	13.838	999.374	750.386
94.914	14.076	998.082	750.424
95.928	14.007	997.562	749.654
96.943	14.012	996.990	749.181
97.957	13.960	996.305	748.367
98.972	13.953	995.249	747.476
99.987	14.039	994.521	747.252
101.001	13.954	993.952	746.375
102.016	13.934	993.396	745.802
103.030	13.894	992.499	744.881
104.045	13.997	991.217	744.316
105.060	14.040	989.728	743.326
106.074	13.969	989.001	742.395
107.089	13.796	988.851	741.443
108.103	13.932	987.429	740.920
109.118	13.781	986.930	739.806
110.133	13.833	985.966	739.249
111.147	13.909	985.115	738.885
112.162	13.845	984.305	737.924
113.176	13.903	983.275	737.345
114.191	13.940	982.691	737.005
115.206	13.843	981.865	735.894
116.220	13.988	981.009	735.827
117.235	13.934	980.063	734.813
118.249	13.886	979.359	734.008
119.264	13.889	978.603	733.389
120.279	14.035	977.498	733.142
121.293	13.959	976.767	732.193
122.308	13.816	976.501	731.299
123.322	13.894	975.402	730.756
124.337	13.905	973.849	729.574
125.352	13.808	973.096	728.520
126.366	13.885	971.874	727.880
127.381	13.922	970.851	727.209
128.395	13.846	969.569	725.856
129.410	13.945	968.379	725.332
130.424	13.953	967.719	724.806
131.439	13.925	967.027	724.103
132.454	13.959	966.229	723.588
133.468	13.917	965.978	723.156
134.483	13.901	965.274	722.494
135.497	13.871	964.346	721.607
136.512	13.890	963.576	721.049
137.527	13.914	963.026	720.675
138.541	13.917	962.312	720.090
139.556	13.829	961.798	719.262
140.570	14.054	960.674	719.330
141.585	14.042	959.356	718.227
142.600	13.967	959.219	717.740
143.614	13.967	958.731	717.312
144.629	14.121	957.827	717.234
145.643	14.224	956.619	716.708
146.658	14.109	956.222	715.852
147.673	14.073	955.473	715.077
148.687	14.015	954.163	713.781
149.702	14.162	953.096	713.553
150.716	14.020	952.727	712.603
151.731	13.981	951.888	711.746
152.746	14.047	951.056	711.344
153.760	14.150	950.171	711.059
154.775	14.076	949.816	710.413
155.789	14.044	949.385	709.891
156.804	14.033	948.185	708.884
157.819	14.158	947.211	708.626
158.833	14.139	946.481	707.937
159.848	14.123	946.149	707.557
160.862	14.179	945.219	707.036
161.877	14.344	944.336	707.017
162.892	14.273	943.657	706.143
163.906	14.170	943.109	705.236
164.921	14.055	942.226	704.025
165.935	14.268	940.948	703.909
166.950	14.154	940.165	702.779
167.964	14.246	939.524	702.626
168.979	14.317	937.984	701.709
169.994	14.260	937.275	700.880
171.008	14.201	936.387	699.904
172.023	14.267	935.879	699.739
173.037	14.342	934.991	699.329
174.052	14.478	934.160	699.216
175.067	14.489	933.193	698.475
176.081	14.226	933.028	697.191
177.096	14.337	931.775	696.655
178.110	14.220	931.411	695.831
179.125	14.229	930.553	695.170
180.140	14.446	929.480	695.211
181.154	14.441	928.711	694.554
182.169	14.398	928.178	693.913
183.183	14.476	927.535	693.694
184.198	14.384	927.181	692.985
185.213	14.596	926.140	693.028
186.227	14.392	925.970	691.995
187.242	14.410	925.396	691.578
188.256	14.561	924.366	691.373
189.271	14.529	923.822	690.771
190.286	14.605	922.867	690.311
191.300	14.494	922.273	689.346
192.315	14.363	921.578	688.226
193.329	14.363	920.917	687.670
194.344	14.371	920.335	687.206
195.359	14.394	919.645	686.727
196.373	14.455	919.150	686.546
197.388	14.514	918.657	686.360
198.402	14.602	917.949	686.135
199.417	14.694	917.463	686.087
200.432	14.607	917.254	685.511
201.446	14.802	916.711	685.845
202.461	14.813	915.955	685.266
203.475	14.751	915.703	684.764
204.490	14.862	914.793	684.476
205.504	14.637	914.210	683.057
206.519	14.677	913.484	682.621
207.534	14.788	912.579	682.335
208.548	14.800	911.895	681.814
209.563	14.795	911.355	681.330
210.577	14.733	910.595	680.448
211.592	14.880	909.774	680.374
212.607	14.752	909.880	679.871
213.621	14.873	908.709	679.428
214.636	14.828	908.395	678.948
215.650	14.803	907.374	678.026
216.665	14.883	906.662	677.757
217.680	14.948	906.415	677.773
218.694	14.891	905.729	676.973
219.709	14.967	905.063	676.720
220.723	14.963	904.749	676.410
221.738	14.910	903.873	675.481
222.753	14.850	903.293	674.745
223.767	15.050	902.116	674.614
224.782	14.929	901.731	673.779
225.796	15.137	900.512	673.645
226.811	15.049	900.103	672.927
227.826	15.082	899.314	672.409
228.840	15.028	898.896	671.818
229.855	15.063	898.287	671.445
230.869	15.036	897.644	670.797
231.884	14.997	897.255	670.290
232.899	15.159	896.028	669.962
233.913	14.965	895.466	668.707
234.928	15.113	894.532	668.542
235.942	15.184	894.024	668.389
236.957	15.132	893.454	667.696
237.972	14.912	893.242	666.599
238.986	15.080	892.113	666.369
240.001	15.109	891.650	666.080
241.015	15.183	890.585	665.516
242.030	15.219	890.105	665.242
243.045	15.209	889.691	664.834
244.059	15.128	889.534	664.336
245.074	15.214	888.401	663.773
246.088	15.327	887.546	663.523
247.103	15.174	887.201	662.602
248.117	15.215	886.610	662.263
249.132	15.382	885.911	662.343
250.147	15.368	885.140	661.652
251.161	15.476	884.565	661.590
252.176	15.375	884.046	660.744
253.190	15.576	882.989	660.684
254.205	15.538	882.885	660.402
255.220	15.568	882.223	659.963
256.234	15.573	880.965	658.983
257.249	15.551	880.572	658.547
258.263	15.631	879.930	658.321
259.278	15.669	879.613	658.175
260.293	15.687	879.077	657.786
261.307	15.744	878.161	657.264
262.322	15.775	877.613	656.918
263.336	15.703	877.338	656.372
264.351	15.727	876.870	656.060
265.366	15.728	876.342	655.609
266.380	15.827	875.305	655.161
267.395	15.771	875.026	654.676
268.409	15.742	874.207	653.893
269.424	15.651	873.571	653.005
270.439	15.817	872.769	652.993
271.453	15.781	871.754	652.034
272.468	15.760	871.289	651.548
273.482	15.683	870.868	650.877
274.497	15.798	869.837	650.493
275.512	15.736	869.207	649.727
276.526	15.839	868.567	649.588
277.541	15.763	867.928	648.760
278.555	15.790	867.618	648.575
279.570	15.936	866.801	648.468
280.585	16.095	866.143	648.529
281.599	15.955	865.810	647.686
282.614	15.887	865.283	646.973
283.628	15.954	864.757	646.780
284.643	16.096	863.834	646.576
285.657	15.981	863.734	646.003
286.672	15.978	862.980	645.371
287.687	16.198	862.200	645.571
288.701	16.074	861.558	644.562
289.716	16.144	861.185	644.493
290.730	15.914	860.966	643.392
291.745	16.083	860.083	643.321
292.760	16.127	859.104	642.701
293.774	16.168	858.644	642.453
294.789	16.275	858.023	642.339
295.803	16.275	857.056	641.560
296.818	16.180	857.063	641.145
297.833	16.270	856.016	640.648
298.847	16.379	855.183	640.380
299.862	16.311	854.776	639.763
300.876	16.199	854.375	638.982
301.891	16.244	853.453	638.404
302.906	16.216	852.886	637.819
303.920	16.331	852.135	637.637
304.935	16.440	851.402	637.441
305.949	16.533	850.791	637.279
306.964	16.473	850.194	636.548
307.979	16.379	849.985	635.981
308.993	16.526	849.496	636.114
310.008	16.448	848.999	635.390
311.022	16.410	848.426	634.764
312.037	16.397	848.090	634.408
313.052	16.434	847.451	634.011
314.066	16.647	846.275	633.874
315.081	16.505	845.974	633.062
316.095	16.485	845.643	632.681
317.110	16.456	845.055	632.077
318.125	16.465	844.406	631.568
319.139	16.466	844.194	631.360
320.154	16.541	843.465	631.039
321.168	16.503	842.764	630.317
322.183	16.561	842.130	630.004
323.197	16.492	841.764	629.418
324.212	16.615	841.036	629.272
325.227	16.720	840.314	629.069
326.241	16.721	839.963	628.753
327.256	16.708	839.396	628.225
328.270	16.746	838.914	627.949
329.285	16.505	838.532	626.714
330.300	16.597	837.933	626.552
331.314	16.692	837.234	626.325
332.329	16.571	836.763	625.471
333.343	16.639	836.373	625.376
334.358	16.777	835.423	625.118
335.373	16.752	835.432	624.977
336.387	16.664	834.844	624.158
337.402	16.749	834.038	623.814
338.416	16.905	833.549	623.964
339.431	16.797	832.783	622.941
340.446	16.886	832.323	622.867
341.460	16.873	831.520	622.163
342.475	16.811	831.412	621.801
343.489	16.943	830.831	621.795
344.504	17.154	830.027	621.910
345.519	16.918	829.878	620.881
346.533	16.916	829.043	620.194
347.548	16.931	828.767	619.989
348.562	16.989	828.077	619.627
349.577	17.031	827.630	619.391
350.592	17.016	826.976	618.792
351.606	17.100	826.580	618.749
352.621	17.015	826.312	618.183
353.635	16.941	826.031	617.647
354.650	17.053	825.255	617.422
355.665	17.015	825.045	617.071
356.679	17.109	824.459	616.922
357.694	17.039	824.274	616.474
358.708	17.048	823.551	615.911
359.723	17.172	822.762	615.714
360.738	17.187	822.149	615.258
361.752	17.151	821.788	614.801
362.767	17.257	821.561	614.962
363.781	17.154	821.032	614.139
364.796	17.312	820.687	614.395
365.810	17.235	820.122	613.642
366.825	17.280	819.549	613.322
367.840	17.384	819.425	613.547
368.854	17.334	818.945	612.954
369.869	17.520	818.100	612.936
370.883	17.558	817.527	612.592
371.898	17.383	817.316	611.748
372.913	17.407	816.931	611.493
373.927	17.323	816.363	610.712
374.942	17.469	815.657	610.654
375.956	17.446	815.107	610.107
376.971	17.525	814.102	609.580
377.986	17.609	813.724	609.546
379.000	17.731	813.154	609.502
380.015	17.763	812.550	609.108
381.029	17.710	812.251	608.641
382.044	17.655	812.071	608.255
383.059	17.785	811.046	607.900
384.073	17.720	810.686	607.342
385.088	17.739	810.142	606.950
386.102	17.700	809.340	606.155
387.117	17.689	808.988	605.801
388.132	17.616	808.743	605.305
389.146	17.686	808.172	605.069
390.161	17.705	807.912	604.890
391.175	17.558	807.653	604.122
392.190	17.847	806.725	604.396
393.205	17.713	806.668	603.825
394.219	17.842	806.204	603.881
395.234	17.838	805.751	603.476
396.248	17.710	804.879	602.316
397.263	17.763	804.453	602.131
398.278	17.654	804.251	601.542
399.292	17.587	803.973	601.046
400.307	17.591	803.281	600.487
401.321	17.694	803.228	600.759
402.336	17.592	802.636	599.905
403.350	17.903	802.086	600.534
404.365	17.907	801.918	600.369
405.380	17.932	801.253	599.904
406.394	17.866	800.920	599.372
407.409	18.026	800.023	599.210
408.423	18.017	799.860	599.001
409.438	17.952	799.526	598.472
410.453	17.965	798.862	597.967
411.467	18.045	798.435	597.875
412.482	18.232	797.813	598.010
413.496	18.034	797.507	597.036
414.511	18.109	797.334	597.115
415.526	18.006	796.756	596.268
416.540	18.137	796.575	596.537
417.555	18.227	795.746	596.177
418.569	18.165	795.831	595.972
419.584	18.094	795.051	595.089
420.599	18.010	794.702	594.484
421.613	115.947	1297.903	1490.871
422.628	99.920	1371.172	1490.930
