DTS Sentinel unit serial number:	SN413079Multiplexer serial number:	ORYXHardware model number:	OX4-SRSoftware version number:	ORYX F/W v4.00 Oryx Data Collector v3.7.2.0data status	okinstallation	princeton_trtdifferential loss correction	single-endedforward channel	channel 3reverse channel	N/Adate	2019/09/13time	05:16:35forward acquisition time	60.00reverse acquisition time	0.00gamma	496.2192k internal	0.2338k external	0.2338temperature offset calibration	1.0135default loss term (dB/km)	0.3790temperature slope calibration	1.0000multiplexer offset coefficient	1.0000multiplexer slope coefficient	1.0000fibre end	0.00T internal ref (°C)	26.37T ext. ref 1 (°C)	4.05T ext. ref 2 (°C)	20.84length (m)	temperature (°C)	Stokes	anti-Stokes-747.200	64.167	-0.077	0.077
-746.185	29.298	-0.121	-0.103
-745.171	-96.464	0.199	-0.053
-744.156	-23.629	-0.197	0.119
-743.142	-10.066	-0.222	-0.148
-742.127	-178.603	-0.178	-0.004
-741.112	20.757	-0.232	-0.188
-740.098	223.681	-0.108	-0.175
-739.083	221.999	-0.124	0.200
-738.069	800.000	0.101	0.283
-737.054	77.891	-0.075	0.080
-736.039	-200.000	-0.021	-0.152
-735.025	31.040	0.477	0.410
-734.010	-83.677	0.104	0.033
-732.996	-108.570	-0.696	0.150
-731.981	-200.000	-0.007	0.032
-730.966	95.368	0.159	0.182
-729.952	17.496	-0.251	-0.200
-728.937	-200.000	-0.017	0.254
-727.923	-51.034	-0.220	-0.103
-726.908	767.419	0.051	-0.138
-725.894	-200.000	-0.001	-0.317
-724.879	241.517	0.078	0.131
-723.864	282.024	0.042	-0.076
-722.850	-200.000	0.004	-0.277
-721.835	-153.470	-0.354	-0.025
-720.821	800.000	0.057	-0.222
-719.806	-200.000	-0.035	-0.263
-718.791	-121.827	-0.252	0.042
-717.777	471.410	-0.040	0.090
-716.762	432.977	-0.103	0.223
-715.748	800.000	0.032	-0.115
-714.733	-200.000	-0.052	-0.379
-713.718	232.406	-0.066	0.109
-712.704	316.856	0.116	0.220
-711.689	-129.183	0.428	-0.060
-710.675	-200.000	-0.017	0.101
-709.660	-200.000	-0.032	0.329
-708.645	83.544	0.125	-0.137
-707.631	65.969	-0.182	-0.185
-706.616	-49.371	0.189	-0.090
-705.602	16.370	-0.042	0.033
-704.587	290.622	0.135	-0.245
-703.572	-200.000	-0.061	-0.403
-702.558	2.684	-0.140	0.102
-701.543	144.900	-0.211	0.282
-700.529	93.215	0.088	0.100
-699.514	-200.000	-0.005	0.067
-698.499	-46.186	0.455	-0.224
-697.485	58.714	-0.097	0.096
-696.470	182.259	-0.095	0.140
-695.456	-9.267	-0.172	0.115
-694.441	800.000	0.110	-0.437
-693.426	-40.366	0.257	-0.134
-692.412	10.180	-0.183	-0.140
-691.397	59.337	-0.061	0.060
-690.383	-71.358	-0.355	-0.133
-689.368	-143.564	0.136	0.013
-688.354	278.938	0.083	0.149
-687.339	-11.919	-0.048	0.031
-686.324	-128.759	-0.109	0.015
-685.310	-35.308	-0.442	-0.241
-684.295	131.008	-0.104	-0.133
-683.281	185.301	-0.142	-0.210
-682.266	83.994	0.217	0.237
-681.251	-148.765	0.152	0.012
-680.237	142.303	-0.074	-0.098
-679.222	26.104	-0.055	0.046
-678.208	363.444	-0.135	-0.272
-677.193	-7.671	0.121	-0.082
-676.178	-200.000	-0.031	-0.155
-675.164	244.167	0.085	-0.143
-674.149	34.124	0.217	-0.189
-673.135	-10.947	-0.156	0.103
-672.120	-200.000	-0.018	-0.288
-671.105	-200.000	0.019	0.284
-670.091	-82.346	-0.285	0.093
-669.076	658.626	0.066	0.170
-668.062	-200.000	0.036	0.431
-667.047	800.000	0.111	-0.341
-666.032	270.909	-0.145	-0.256
-665.018	-180.273	0.281	-0.006
-664.003	109.679	-0.158	0.190
-662.989	29.330	0.099	0.084
-661.974	142.682	-0.126	-0.167
-660.959	75.343	-0.081	-0.085
-659.945	800.000	-0.056	-0.186
-658.930	-132.150	0.184	0.024
-657.916	12.467	-0.055	0.042
-656.901	-130.555	0.304	-0.041
-655.886	-200.000	0.002	0.053
-654.872	5.356	0.178	0.131
-653.857	228.545	-0.083	-0.135
-652.843	800.000	-0.061	-0.209
-651.828	773.559	0.096	0.262
-650.814	208.178	-0.195	0.305
-649.799	-200.000	-0.072	-0.468
-648.784	-200.000	-0.006	0.179
-647.770	-200.000	0.003	-0.152
-646.755	-119.083	0.495	0.087
-645.741	-20.077	0.109	0.067
-644.726	800.000	-0.092	0.389
-643.711	800.000	-0.042	-0.159
-642.697	800.000	-0.052	-0.171
-641.682	-43.206	0.208	-0.105
-640.668	-114.339	-0.248	-0.048
-639.653	718.574	0.104	0.275
-638.638	-65.139	0.163	-0.066
-637.624	216.331	0.083	0.132
-636.609	-44.173	0.183	0.092
-635.595	81.846	-0.304	-0.329
-634.580	309.327	0.089	-0.167
-633.565	-107.304	0.151	-0.033
-632.551	-39.745	0.217	-0.114
-631.536	25.223	0.181	-0.150
-630.522	-200.000	0.025	-0.295
-629.507	-144.409	0.074	-0.007
-628.492	408.593	-0.091	0.192
-627.478	248.937	-0.080	0.135
-626.463	-94.297	-0.152	0.041
-625.449	-27.471	0.284	0.165
-624.434	150.425	-0.313	-0.424
-623.419	537.581	0.009	-0.022
-622.405	-93.201	-0.146	0.041
-621.390	-154.114	0.191	-0.013
-620.376	100.702	0.039	0.045
-619.361	131.683	-0.147	0.188
-618.346	-38.349	-0.168	-0.089
-617.332	800.000	-0.089	0.263
-616.317	-49.551	0.099	-0.047
-615.303	800.000	-0.005	-0.015
-614.288	-200.000	0.025	0.172
-613.273	-200.000	-0.004	-0.206
-612.259	563.850	-0.110	0.267
-611.244	-9.255	0.082	-0.054
-610.230	108.620	0.243	0.290
-609.215	800.000	-0.049	-0.204
-608.201	-45.586	0.121	-0.060
-607.186	303.980	0.146	-0.271
-606.171	-200.000	-0.033	0.342
-605.157	34.067	-0.085	0.074
-604.142	62.832	0.134	-0.134
-603.128	-200.000	0.013	-0.278
-602.113	-104.565	-0.037	-0.009
-601.098	-25.422	-0.215	-0.127
-600.084	94.566	0.191	-0.217
-599.069	-75.900	0.225	0.080
-598.055	112.063	0.196	-0.236
-597.040	21.291	-0.261	-0.212
-596.025	154.673	-0.122	0.167
-595.011	800.000	0.071	-0.273
-593.996	2.519	-0.095	-0.068
-592.982	800.000	0.039	0.152
-591.967	149.000	0.033	-0.044
-590.952	-30.053	0.062	-0.035
-589.938	-200.000	-0.005	-0.144
-588.923	4.131	0.098	-0.072
-587.909	35.561	-0.116	-0.101
-586.894	315.493	0.107	0.202
-585.879	-64.526	0.100	0.040
-584.865	-90.674	-0.187	-0.054
-583.850	-200.000	-0.040	-0.258
-582.836	-200.000	-0.011	0.116
-581.821	-158.242	-0.332	0.019
-580.806	-42.901	0.141	0.071
-579.792	-170.990	-0.154	0.005
-578.777	-83.255	0.170	0.054
-577.763	-72.630	-0.280	0.103
-576.748	-55.888	-0.194	0.086
-575.733	-18.568	0.192	-0.120
-574.719	-74.063	0.280	-0.101
-573.704	75.874	0.314	0.331
-572.690	-129.116	-0.095	-0.013
-571.675	-200.000	0.006	-0.254
-570.661	166.548	-0.173	-0.244
-569.646	-27.817	0.339	0.196
-568.631	-50.170	-0.311	-0.147
-567.617	495.501	-0.037	-0.086
-566.602	-94.856	-0.058	-0.016
-565.588	149.257	0.113	0.152
-564.573	-60.257	-0.227	0.097
-563.558	-200.000	0.018	-0.215
-562.544	-71.352	-0.163	0.061
-561.529	40.366	-0.086	-0.077
-560.515	149.846	0.131	0.176
-559.500	27.617	0.071	-0.060
-558.485	431.435	-0.121	-0.261
-557.471	-131.592	0.294	0.039
-556.456	-79.872	0.122	0.041
-555.442	-5.416	-0.134	-0.092
-554.427	21.834	-0.212	0.172
-553.412	-102.790	-0.246	-0.058
-552.398	163.652	0.031	0.043
-551.383	-75.670	-0.229	0.081
-550.369	282.502	-0.303	-0.540
-549.354	-200.000	0.018	-0.356
-548.339	-95.205	0.426	0.114
-547.325	-200.000	-0.017	-0.103
-546.310	800.000	-0.028	0.078
-545.296	188.356	0.176	-0.261
-544.281	433.584	-0.140	-0.302
-543.266	39.093	0.452	-0.402
-542.252	800.000	-0.081	-0.278
-541.237	22.305	-0.262	-0.213
-540.223	14.659	0.264	-0.205
-539.208	-200.000	-0.033	0.235
-538.193	-51.552	0.116	0.054
-537.179	66.383	0.073	-0.074
-536.164	308.969	-0.071	-0.133
-535.150	-90.428	-0.168	0.048
-534.135	134.272	-0.099	0.127
-533.121	-139.198	-0.268	0.029
-532.106	-200.000	0.002	-0.464
-531.091	-200.000	0.050	-0.294
-530.077	466.709	0.112	-0.249
-529.062	-37.963	-0.188	0.100
-528.048	-97.887	-0.188	0.048
-527.033	800.000	0.123	0.488
-526.018	-200.000	0.007	-0.058
-525.004	-76.615	0.052	0.018
-523.989	-41.588	0.091	0.046
-522.975	-200.000	0.056	0.345
-521.960	232.170	0.053	0.086
-520.945	38.830	-0.146	-0.130
-519.931	-31.349	-0.010	-0.006
-518.916	-117.574	-0.350	-0.063
-517.902	178.029	0.159	0.230
-516.887	97.478	0.157	0.180
-515.872	-162.717	-0.338	0.016
-514.858	-200.000	-0.104	-0.460
-513.843	-74.490	0.128	-0.046
-512.829	-15.444	0.107	-0.068
-511.814	-22.470	0.237	-0.143
-510.799	57.217	0.181	-0.175
-509.785	-3.325	-0.402	0.278
-508.770	508.098	0.047	0.108
-507.756	-200.000	0.021	-0.222
-506.741	188.903	0.114	0.170
-505.726	35.400	0.051	-0.045
-504.712	-108.868	-0.184	0.039
-503.697	120.497	0.125	0.154
-502.683	-200.000	0.043	0.297
-501.668	56.913	0.066	0.064
-500.653	23.027	-0.156	-0.127
-499.639	-112.400	-0.069	-0.014
-498.624	348.688	-0.138	-0.271
-497.610	-31.478	0.372	-0.208
-496.595	208.611	-0.074	0.115
-495.581	29.061	-0.066	-0.056
-494.566	203.397	0.110	-0.170
-493.551	315.130	0.122	-0.228
-492.537	23.856	0.194	-0.159
-491.522	-101.304	0.144	-0.035
-490.508	-38.456	0.100	0.052
-489.493	-177.003	-0.309	-0.008
-488.478	-75.871	-0.128	0.045
-487.464	-20.355	0.115	0.070
-486.449	46.505	0.074	0.068
-485.435	160.398	0.197	-0.273
-484.420	800.000	0.078	-0.262
-483.405	-131.354	0.246	-0.032
-482.391	-92.576	-0.287	-0.080
-481.376	-14.866	-0.045	0.029
-480.362	26.576	-0.036	-0.030
-479.347	800.000	0.089	0.306
-478.332	-5.449	0.044	0.030
-477.318	74.958	-0.285	0.298
-476.303	419.195	-0.033	0.070
-475.289	212.868	-0.029	0.046
-474.274	800.000	-0.034	0.112
-473.259	-200.000	0.061	0.363
-472.245	673.985	-0.020	0.051
-471.230	-144.782	-0.187	0.017
-470.216	126.852	0.189	-0.238
-469.201	15.009	-0.294	0.229
-468.186	-82.790	-0.393	0.126
-467.172	-59.851	0.127	0.054
-466.157	93.449	-0.073	0.082
-465.143	-15.339	0.199	0.126
-464.128	134.443	0.280	0.361
-463.113	-92.341	-0.195	0.054
-462.099	105.848	0.204	-0.240
-461.084	-66.864	0.085	-0.034
-460.070	-56.949	-0.260	-0.114
-459.055	-200.000	-0.009	-0.210
-458.040	-8.270	-0.075	-0.050
-457.026	147.917	0.115	-0.153
-456.011	387.695	-0.157	0.322
-454.997	-14.561	0.085	0.054
-453.982	800.000	0.091	0.249
-452.968	362.737	0.095	0.189
-451.953	247.332	0.196	-0.329
-450.938	-200.000	-0.065	-0.312
-449.924	-93.291	-0.225	0.062
-448.909	-200.000	-0.000	0.191
-447.895	629.295	0.121	-0.303
-446.880	800.000	0.065	0.232
-445.865	-8.972	-0.196	0.130
-444.851	-39.765	0.222	-0.115
-443.836	105.587	-0.049	0.057
-442.822	-124.836	0.335	-0.051
-441.807	-125.855	-0.408	-0.061
-440.792	-77.674	0.125	-0.043
-439.778	800.000	-0.016	0.051
-438.763	-132.351	-0.141	-0.018
-437.749	625.469	-0.052	-0.130
-436.734	800.000	0.065	-0.202
-435.719	-39.125	-0.240	0.125
-434.705	-26.270	0.167	0.097
-433.690	-27.967	-0.272	0.156
-432.676	-200.000	0.006	-0.218
-431.661	117.019	-0.121	-0.147
-430.646	-126.786	0.212	-0.031
-429.632	104.354	-0.162	-0.189
-428.617	-75.398	-0.105	0.037
-427.603	-200.000	0.044	0.209
-426.588	468.280	-0.064	0.143
-425.573	-200.000	-0.011	-0.069
-424.559	35.886	-0.276	0.241
-423.544	138.343	-0.156	0.203
-422.530	800.000	-0.043	-0.123
-421.515	800.000	-0.023	-0.091
-420.500	-200.000	0.018	-0.153
-419.486	556.889	-0.125	0.298
-418.471	33.472	-0.221	-0.190
-417.457	800.000	-0.063	0.216
-416.442	14.409	-0.048	-0.037
-415.428	15.319	-0.217	0.169
-414.413	-10.905	-0.174	0.114
-413.398	-90.249	-0.164	-0.047
-412.384	51.050	0.090	0.085
-411.369	-142.156	0.269	0.026
-410.355	-14.944	0.111	0.071
-409.340	33.780	0.165	0.142
-408.325	-27.944	0.334	0.191
-407.311	-200.000	-0.003	0.060
-406.296	800.000	0.058	-0.246
-405.282	-146.548	0.075	-0.006
-404.267	129.461	-0.203	0.256
-403.252	-200.000	0.035	0.232
-402.238	26.616	0.141	0.117
-401.223	-200.000	-0.057	0.300
-400.209	345.705	0.134	-0.261
-399.194	-36.219	-0.203	0.109
-398.179	-54.818	-0.453	-0.203
-397.165	-200.000	0.006	-0.145
-396.150	675.942	0.080	-0.205
-395.136	122.682	-0.124	0.154
-394.121	800.000	0.063	0.176
-393.106	102.580	0.132	0.152
-392.092	121.022	-0.108	-0.133
-391.077	-46.125	0.386	0.188
-390.063	-200.000	0.144	-0.001
-389.048	236.253	0.125	0.205
-388.033	-40.270	-0.226	0.116
-387.019	81.008	-0.378	-0.403
-386.004	463.040	-0.038	-0.085
-384.990	350.736	0.045	0.089
-383.975	-3.778	-0.256	0.176
-382.960	-48.100	0.224	0.107
-381.946	-200.000	-0.004	-0.062
-380.931	302.962	0.182	-0.334
-379.917	211.073	-0.094	0.146
-378.902	-200.000	-0.008	0.108
-377.888	-65.855	-0.087	0.034
-376.873	230.806	0.104	0.168
-375.858	800.000	0.082	0.271
-374.844	250.267	-0.019	0.031
-373.829	1.959	0.179	0.128
-372.815	-200.000	-0.006	0.201
-371.800	-200.000	0.035	0.280
-370.785	77.329	0.046	0.048
-369.771	-54.311	-0.156	-0.070
-368.756	298.413	0.094	-0.170
-367.742	2.913	0.108	-0.077
-366.727	800.000	0.067	-0.189
-365.712	-72.954	-0.160	0.058
-364.698	800.000	0.062	0.264
-363.683	-136.460	0.288	-0.033
-362.669	-173.931	-0.177	-0.005
-361.654	-103.697	-0.303	-0.070
-360.639	-128.049	0.364	-0.052
-359.625	16.664	-0.320	0.250
-358.610	-48.301	0.290	0.138
-357.596	229.014	0.049	-0.080
-356.581	-200.000	0.054	-0.236
-355.566	-21.096	0.195	-0.118
-354.552	356.347	-0.072	0.142
-353.537	-200.000	0.470	-0.001
-352.523	800.000	0.072	0.283
-351.508	-127.421	0.303	0.044
-350.493	97.062	0.071	-0.080
-349.479	72.398	-0.085	0.088
-348.464	-36.261	0.120	0.064
-347.450	-69.178	0.323	0.123
-346.435	-105.961	0.095	0.021
-345.420	-53.850	-0.103	-0.046
-344.406	250.393	0.114	-0.192
-343.391	-155.440	-0.007	0.000
-342.377	128.485	-0.064	0.081
-341.362	-200.000	0.029	-0.187
-340.348	-25.641	0.031	-0.018
-339.333	275.896	0.084	0.146
-338.318	-72.185	-0.223	0.082
-337.304	120.544	-0.135	0.166
-336.289	-24.295	0.069	0.041
-335.275	495.236	0.093	0.212
-334.260	174.723	-0.245	-0.349
-333.245	-119.774	-0.334	-0.057
-332.231	-167.232	0.045	0.002
-331.216	10.963	0.245	-0.184
-330.202	-93.513	-0.292	0.080
-329.187	-125.865	-0.144	-0.022
-328.172	-200.000	0.012	-0.300
-327.158	47.223	-0.104	-0.096
-326.143	-200.000	-0.003	0.088
-325.129	50.009	0.093	0.087
-324.114	-146.320	0.435	-0.038
-323.099	-39.759	-0.331	0.171
-322.085	-200.000	-0.022	-0.302
-321.070	-200.000	0.031	-0.550
-320.056	294.586	-0.142	-0.257
-319.041	-200.000	0.004	-0.082
-318.026	-103.955	0.098	-0.023
-317.012	520.849	0.054	-0.125
-315.997	175.429	0.120	0.172
-314.983	-38.254	0.198	0.103
-313.968	-130.589	0.077	0.010
-312.953	-173.732	0.318	-0.009
-311.939	-200.000	-0.044	-0.191
-310.924	800.000	0.015	0.061
-309.910	800.000	0.030	-0.094
-308.895	-60.611	0.238	0.100
-307.880	-133.743	0.150	0.018
-306.866	-49.922	-0.290	-0.136
-305.851	94.712	0.265	0.297
-304.837	800.000	-0.043	0.124
-303.822	-120.813	-0.393	0.065
-302.807	-200.000	0.003	0.159
-301.793	4.999	-0.115	0.084
-300.778	-30.637	-0.271	0.151
-299.764	-33.487	0.177	0.096
-298.749	-200.000	0.002	0.117
-297.735	-124.033	0.075	-0.012
-296.720	-38.968	-0.389	-0.202
-295.705	-113.942	-0.250	0.048
-294.691	526.105	-0.225	0.522
-293.676	206.950	-0.138	-0.212
-292.662	-200.000	-0.043	0.326
-291.647	-15.454	-0.192	0.121
-290.632	-46.344	0.010	0.005
-289.618	234.077	0.231	0.374
-288.603	-32.557	0.116	0.064
-287.589	69.415	0.072	0.073
-286.574	-200.000	0.042	-0.269
-285.559	-94.356	0.230	-0.062
-284.545	-69.596	0.358	-0.135
-283.530	-76.604	0.330	-0.114
-282.516	-9.894	0.171	0.112
-281.501	-65.751	0.238	0.094
-280.486	-4.248	-0.416	-0.284
-279.472	348.918	-0.148	0.287
-278.457	-200.000	-0.038	0.292
-277.443	-16.152	-0.136	0.085
-276.428	222.414	0.122	-0.194
-275.413	-161.559	0.083	0.004
-274.399	800.000	0.099	-0.323
-273.384	-87.919	-0.462	-0.137
-272.370	-200.000	-0.009	0.123
-271.355	400.794	0.067	-0.139
-270.340	-119.256	-0.307	-0.053
-269.326	-149.776	-0.181	0.014
-268.311	-200.000	0.001	0.099
-267.297	800.000	-0.074	-0.262
-266.282	-181.385	-0.261	-0.005
-265.267	559.788	0.100	0.237
-264.253	765.419	-0.059	-0.159
-263.238	49.532	0.080	-0.074
-262.224	-142.521	-0.207	0.020
-261.209	-200.000	-0.044	0.243
-260.195	231.046	0.144	0.233
-259.180	-84.009	0.137	0.043
-258.165	800.000	-0.115	-0.338
-257.151	-110.713	-0.351	-0.071
-256.136	800.000	-0.061	0.169
-255.122	800.000	-0.034	-0.119
-254.107	-49.719	0.260	0.122
-253.092	0.580	0.202	-0.142
-252.078	-188.240	-0.178	-0.002
-251.063	138.513	-0.080	0.104
-250.049	285.588	0.120	-0.212
-249.034	800.000	-0.020	0.060
-248.019	-94.962	-0.327	0.087
-247.005	74.906	-0.237	-0.245
-245.990	17.321	0.227	-0.177
-244.976	29.079	0.096	-0.080
-243.961	-200.000	0.023	-0.150
-242.946	-4.532	0.163	-0.111
-241.932	800.000	0.045	0.146
-240.917	-200.000	0.002	-0.103
-239.903	132.982	-0.136	0.173
-238.888	-60.387	-0.173	0.072
-237.873	-100.933	0.085	0.020
-236.859	-116.044	0.236	-0.043
-235.844	3.247	-0.122	0.087
-234.830	-106.421	0.189	-0.041
-233.815	76.950	-0.127	-0.133
-232.800	800.000	0.047	0.195
-231.786	601.770	0.017	0.041
-230.771	-34.510	0.246	-0.133
-229.757	124.237	0.167	-0.206
-228.742	460.621	-0.091	0.200
-227.727	72.521	-0.065	-0.067
-226.713	-19.238	-0.277	-0.169
-225.698	49.167	-0.148	0.137
-224.684	-102.244	0.124	-0.029
-223.669	-15.649	-0.092	0.058
-222.655	-67.888	0.358	0.138
-221.640	218.426	-0.085	0.134
-220.625	-200.000	0.330	-0.001
-219.611	-143.523	-0.214	0.020
-218.596	-115.763	0.372	0.068
-217.582	-59.083	0.194	-0.082
-216.567	-200.000	-0.017	-0.085
-215.552	198.330	0.015	0.022
-214.538	259.164	-0.077	0.131
-213.523	-25.473	-0.058	-0.034
-212.509	88.239	0.133	-0.145
-211.494	-200.000	-0.076	-0.390
-210.479	-200.000	0.036	-0.295
-209.465	540.277	0.101	-0.237
-208.450	80.928	0.213	-0.226
-207.436	-200.000	-0.004	0.189
-206.421	-200.000	-0.014	0.061
-205.406	800.000	-0.083	0.282
-204.392	-200.000	-0.021	0.203
-203.377	653.212	0.094	-0.237
-202.363	-200.000	-0.067	-0.525
-201.348	-8.986	-0.288	0.190
-200.333	-154.177	-0.194	-0.013
-199.319	186.035	0.253	0.369
-198.304	-148.003	-0.467	-0.038
-197.290	-68.108	0.135	-0.052
-196.275	-167.311	-0.228	-0.009
-195.260	-200.000	0.012	-0.428
-194.246	-10.386	-0.156	-0.102
-193.231	800.000	-0.072	-0.207
-192.217	315.388	0.131	0.243
-191.202	800.000	-0.053	0.213
-190.187	-200.000	0.039	0.190
-189.173	179.878	-0.134	0.193
-188.158	43.900	0.098	-0.088
-187.144	144.282	-0.130	0.170
-186.129	800.000	-0.131	-0.358
-185.114	-200.000	-0.010	0.104
-184.100	267.749	-0.109	0.188
-183.085	547.052	-0.173	0.407
-182.071	-20.757	0.242	0.146
-181.056	800.000	0.053	0.168
-180.042	244.870	0.056	-0.092
-179.027	-132.423	-0.271	0.034
-178.012	-169.191	-0.248	-0.009
-176.998	665.097	0.249	0.630
-175.983	-23.663	0.295	0.173
-174.969	10.740	-0.424	0.317
-173.954	-33.168	0.150	-0.081
-172.939	-147.216	0.431	0.036
-171.925	800.000	-0.069	0.200
-170.910	113.453	0.320	-0.382
-169.896	-107.601	-0.122	-0.026
-168.881	33.203	0.274	0.233
-167.866	110.905	-0.119	-0.140
-166.852	-5.477	-0.211	-0.142
-165.837	-95.220	-0.078	0.021
-164.823	-200.000	0.030	0.252
-163.808	177.925	0.180	-0.258
-162.793	-114.396	0.200	0.038
-161.779	4.740	-0.259	-0.187
-160.764	-200.000	0.058	0.271
-159.750	77.678	0.205	-0.214
-158.735	147.812	-0.159	-0.210
-157.720	-3.583	-0.043	0.029
-156.706	-200.000	-0.008	-0.108
-155.691	387.272	-0.187	0.379
-154.677	-126.841	0.146	-0.021
-153.662	-40.695	-0.115	0.059
-152.647	-200.000	0.017	-0.122
-151.633	-200.000	0.037	0.417
-150.618	126.521	0.140	0.174
-149.604	-22.319	0.374	-0.222
-148.589	800.000	-0.108	0.349
-147.574	-200.000	-0.008	-0.111
-146.560	655.895	-0.078	-0.197
-145.545	-200.000	-0.004	-0.083
-144.531	-68.461	0.464	0.177
-143.516	120.756	0.053	0.065
-142.502	37.370	0.217	0.188
-141.487	-76.508	0.119	0.041
-140.472	-42.735	-0.041	0.020
-139.458	-200.000	-0.021	0.144
-138.443	-72.672	-0.106	-0.038
-137.429	22.697	0.380	-0.305
-136.414	-10.793	0.237	-0.154
-135.399	-76.262	0.093	0.032
-134.385	301.516	0.038	-0.068
-133.370	-11.221	0.127	-0.082
-132.356	3.967	-0.370	-0.265
-131.341	104.853	0.059	-0.068
-130.326	36.365	0.122	0.105
-129.312	223.737	-0.059	-0.093
-128.297	191.486	0.114	-0.168
-127.283	-158.585	-0.244	-0.014
-126.268	-34.020	0.273	-0.147
-125.253	64.605	-0.154	-0.153
-124.239	293.258	-0.190	0.339
-123.224	-80.454	0.154	0.050
-122.210	44.871	-0.111	-0.100
-121.195	-60.228	-0.125	0.052
-120.180	-81.155	-0.091	0.030
-119.166	47.586	-0.025	0.023
-118.151	-107.276	0.073	-0.016
-117.137	-150.851	0.380	0.028
-116.122	-200.000	-0.005	0.283
-115.107	-119.139	-0.236	-0.040
-114.093	165.699	-0.027	0.038
-113.078	268.010	-0.085	0.146
-112.064	65.472	0.225	-0.223
-111.049	-200.000	0.028	0.316
-110.034	57.640	0.028	0.027
-109.020	238.569	0.096	0.156
-108.005	-34.349	-0.220	-0.118
-106.991	131.462	0.112	-0.141
-105.976	-200.000	-0.034	0.197
-104.962	-24.216	-0.280	-0.164
-103.947	-158.163	-0.158	-0.009
-102.932	134.985	-0.106	-0.134
-101.918	-16.372	-0.068	0.042
-100.903	-200.000	0.011	-0.244
-99.889	-30.887	-0.227	-0.126
-98.874	-200.000	-0.001	-0.087
-97.859	797.970	0.126	0.340
-96.845	-14.414	0.190	-0.120
-95.830	40.894	-0.133	-0.117
-94.816	-56.116	0.216	0.094
-93.801	-200.000	0.005	0.144
-92.786	15.978	0.114	-0.088
-91.772	-23.852	-0.199	0.116
-90.757	242.378	0.066	-0.107
-89.743	43.576	-0.244	0.219
-88.728	-200.000	0.008	-0.049
-87.713	7.913	0.351	-0.257
-86.699	-200.000	0.009	0.329
-85.684	-81.222	-0.312	0.101
-84.670	308.840	0.082	0.150
-83.655	-17.521	0.049	-0.030
-82.640	4.202	-0.110	-0.079
-81.626	-177.412	-0.160	-0.004
-80.611	20.710	0.202	0.160
-79.597	272.819	0.152	-0.263
-78.582	-200.000	0.005	0.077
-77.567	341.816	-0.127	0.242
-76.553	-50.375	0.102	-0.047
-75.538	-200.000	-0.016	0.115
-74.524	-38.118	-0.122	0.064
-73.509	-149.288	-0.489	0.038
-72.494	800.000	-0.060	-0.171
-71.480	232.508	0.106	0.171
-70.465	200.665	-0.148	0.223
-69.451	160.454	-0.147	0.200
-68.436	800.000	-0.037	0.103
-67.422	800.000	-0.148	-0.428
-66.407	96.124	-0.144	0.161
-65.392	-36.741	0.335	-0.176
-64.378	-85.607	-0.184	0.056
-63.363	800.000	0.081	-0.227
-62.349	800.000	0.008	-0.029
-61.334	60.380	-0.926	-0.895
-60.319	148.364	0.645	0.851
-59.305	743.711	-0.449	-1.179
-58.290	292.673	0.841	1.498
-57.276	563.320	0.506	1.197
-56.261	-200.000	117.243	651.566
-55.246	498.797	1547.047	3481.211
-54.232	175.356	2714.984	3842.843
-53.217	104.447	2171.842	2497.255
-52.203	36.844	1688.922	1458.018
-51.188	29.554	1504.813	1249.903
-50.173	27.290	1479.757	1213.957
-49.159	49.868	1540.948	1418.800
-48.144	48.425	1555.316	1422.137
-47.130	29.556	1510.761	1254.660
-46.115	26.518	1495.058	1221.111
-45.100	26.391	1491.641	1217.415
-44.086	26.507	1489.646	1216.519
-43.071	26.286	1488.112	1213.729
-42.057	26.317	1486.199	1212.330
-41.042	26.344	1484.484	1211.063
-40.027	26.313	1483.929	1210.356
-39.013	26.377	1481.935	1209.111
-37.998	26.366	1481.074	1208.287
-36.984	26.348	1480.311	1207.498
-35.969	26.417	1478.421	1206.363
-34.954	26.390	1477.258	1205.189
-33.940	26.376	1475.692	1203.771
-32.925	26.322	1474.321	1202.247
-31.911	26.378	1473.218	1201.670
-30.896	26.446	1471.574	1200.731
-29.881	26.425	1470.473	1199.649
-28.867	26.384	1469.207	1198.297
-27.852	26.359	1467.963	1197.068
-26.838	26.415	1466.491	1196.193
-25.823	26.440	1464.911	1195.017
-24.809	26.376	1463.437	1193.349
-23.794	26.330	1462.901	1192.558
-22.779	26.390	1461.126	1191.459
-21.765	26.506	1459.638	1190.962
-20.750	26.409	1458.995	1189.756
-19.736	26.397	1457.767	1188.629
-18.721	26.354	1456.656	1187.388
-17.706	26.377	1455.901	1186.876
-16.692	26.434	1454.219	1185.836
-15.677	26.350	1453.426	1184.591
-14.663	26.372	1452.712	1184.105
-13.648	26.322	1451.895	1183.064
-12.633	26.351	1450.513	1182.082
-11.619	26.355	1449.747	1181.434
-10.604	26.347	1448.776	1180.547
-9.590	26.336	1447.937	1179.745
-8.575	26.350	1446.951	1178.985
-7.560	26.325	1446.162	1178.134
-6.546	26.401	1445.208	1177.806
-5.531	26.460	1444.453	1177.529
-4.517	26.383	1443.267	1176.008
-3.502	26.245	1443.142	1174.966
-2.487	26.344	1441.410	1174.153
-1.473	26.349	1440.045	1173.023
-0.458	26.404	1438.998	1172.484
0.556	27.967	1429.611	1160.948
1.571	24.834	1404.831	1121.128
2.586	21.249	1346.558	1052.962
3.600	19.630	1265.435	980.260
4.615	18.481	1221.104	939.540
5.629	16.419	1165.040	885.529
6.644	10.011	1084.564	792.931
7.659	4.959	1047.789	741.977
8.673	4.264	1042.979	735.212
9.688	4.008	1039.327	731.366
10.702	3.998	1037.465	729.940
11.717	3.941	1035.943	728.537
12.731	6.321	1037.756	740.965
13.746	13.482	1046.821	781.270
14.761	20.058	1055.734	819.043
15.775	22.282	1058.208	831.414
16.790	21.952	1056.790	828.670
17.804	21.012	1054.940	822.713
18.819	20.139	1053.140	817.122
19.834	19.998	1051.309	814.965
20.848	19.889	1050.828	814.008
21.863	19.836	1050.709	813.593
22.877	19.638	1049.879	811.950
23.892	19.448	1049.264	810.512
24.907	19.452	1048.590	809.936
25.921	19.404	1047.198	808.566
26.936	19.305	1046.661	807.615
27.950	19.359	1045.719	807.069
28.965	19.306	1044.882	806.104
29.980	19.385	1043.780	805.550
30.994	19.683	1042.845	806.149
32.009	19.821	1041.549	805.718
33.023	19.734	1041.666	805.335
34.038	19.646	1040.531	803.974
35.053	19.660	1039.789	803.395
36.067	19.548	1038.290	801.644
37.082	19.420	1037.849	800.639
38.096	19.453	1036.928	800.011
39.111	19.550	1036.222	799.846
40.126	19.710	1035.496	799.953
41.140	19.528	1034.299	798.120
42.155	19.210	1032.894	795.496
43.169	19.000	1031.657	793.503
44.184	18.977	1030.392	792.352
45.199	18.839	1030.061	791.393
46.213	18.989	1028.714	790.978
47.228	19.038	1028.095	790.658
48.242	19.408	1026.959	791.412
49.257	19.562	1026.752	791.888
50.271	19.447	1025.521	790.343
51.286	19.453	1024.729	789.691
52.301	19.594	1024.216	789.870
53.315	19.514	1023.459	788.852
54.330	19.395	1022.668	787.627
55.344	19.263	1021.956	786.407
56.359	19.161	1020.858	785.030
57.374	19.142	1020.002	784.215
58.388	19.337	1018.524	783.894
59.403	18.999	1018.205	782.042
60.417	18.916	1017.110	780.758
61.432	18.940	1016.697	780.479
62.447	18.806	1016.082	779.332
63.461	18.873	1014.778	778.565
64.476	18.806	1013.804	777.447
65.490	18.642	1013.381	776.313
66.505	18.840	1012.167	776.206
67.520	18.786	1011.456	775.349
68.534	18.796	1011.273	775.184
69.549	18.844	1010.133	774.460
70.563	18.700	1009.363	773.151
71.578	18.582	1009.264	772.477
72.593	18.617	1007.509	771.223
73.607	18.486	1006.465	769.767
74.622	18.354	1005.785	768.584
75.636	18.389	1005.111	768.158
76.651	18.581	1003.897	768.022
77.666	18.659	1003.275	767.829
78.680	18.665	1002.607	767.276
79.695	18.678	1002.138	766.908
80.709	18.616	1001.781	766.288
81.724	18.969	1000.831	767.068
82.739	18.919	1000.181	766.280
83.753	18.904	999.969	765.985
84.768	19.319	999.297	767.250
85.782	19.691	998.608	768.306
86.797	19.912	998.120	768.845
87.812	19.921	997.280	768.169
88.826	19.694	996.114	766.198
89.841	19.556	995.526	765.065
90.855	19.643	995.046	765.014
91.870	19.658	994.357	764.483
92.884	19.829	993.438	764.466
93.899	19.708	992.824	763.389
94.914	19.726	992.114	762.857
95.928	19.901	991.103	762.782
96.943	19.869	990.394	762.026
97.957	19.718	989.116	760.311
98.972	19.706	988.398	759.642
99.987	19.544	988.077	758.616
101.001	19.643	987.416	758.475
102.016	19.706	986.317	757.842
103.030	19.634	985.488	756.822
104.045	19.596	984.642	755.939
105.060	19.720	983.397	755.458
106.074	19.772	982.354	754.819
107.089	19.419	981.508	752.559
108.103	19.131	980.183	750.223
109.118	18.933	979.046	748.426
110.133	18.950	978.426	747.959
111.147	18.731	977.613	746.319
112.162	18.710	976.635	745.415
113.176	18.699	976.039	744.846
114.191	18.970	975.340	745.420
115.206	19.058	974.370	744.995
116.220	18.973	973.839	744.156
117.235	18.949	972.920	743.283
118.249	18.835	972.235	742.204
119.264	18.826	971.099	741.229
120.279	18.851	970.390	740.730
121.293	18.715	969.845	739.666
122.308	18.713	969.025	738.964
123.322	18.646	968.072	737.886
124.337	18.430	966.788	735.914
125.352	18.566	965.228	735.242
126.366	18.522	964.597	734.511
127.381	18.346	963.686	732.995
128.395	18.342	962.588	732.083
129.410	18.572	961.569	732.223
130.424	18.562	960.852	731.570
131.439	18.603	960.340	731.291
132.454	18.907	959.360	731.771
133.468	19.030	958.413	731.511
134.483	18.902	958.089	730.655
135.497	19.007	957.501	730.587
136.512	18.937	957.085	729.904
137.527	18.993	956.440	729.588
138.541	18.944	955.417	728.537
139.556	19.072	954.292	728.154
140.570	19.036	954.185	727.855
141.585	19.271	953.442	728.220
142.600	19.445	952.818	728.412
143.614	19.552	952.377	728.462
144.629	19.768	951.204	728.410
145.643	19.678	950.742	727.612
146.658	19.771	950.036	727.401
147.673	19.552	949.036	725.649
148.687	19.361	947.672	723.742
149.702	19.054	947.133	721.976
150.716	19.084	945.607	720.877
151.731	19.122	944.531	720.151
152.746	19.055	944.102	719.479
153.760	19.136	943.489	719.286
154.775	19.366	942.385	719.340
155.789	19.373	941.862	718.908
156.804	19.418	941.170	718.505
157.819	19.359	940.342	717.560
158.833	19.181	940.459	716.847
159.848	19.550	939.477	717.570
160.862	19.659	939.163	717.720
161.877	19.662	938.079	716.839
162.892	19.307	936.495	714.094
163.906	19.233	935.338	712.843
164.921	19.028	934.330	711.163
165.935	19.063	933.719	710.783
166.950	19.099	932.717	710.106
167.964	19.142	932.407	709.982
168.979	19.336	931.232	709.822
169.994	19.200	929.926	708.209
171.008	19.144	929.334	707.461
172.023	19.231	928.417	707.059
173.037	19.358	928.156	707.319
174.052	19.636	927.720	708.065
175.067	19.686	926.458	707.244
176.081	19.170	925.558	704.383
177.096	19.016	924.790	703.105
178.110	19.119	923.212	702.266
179.125	18.933	922.958	701.249
180.140	18.958	922.509	700.949
181.154	19.119	922.187	701.301
182.169	19.224	921.493	701.137
183.183	19.688	920.888	702.501
184.198	19.641	920.169	701.698
185.213	19.779	919.473	701.668
186.227	19.576	919.034	700.446
187.242	19.545	918.971	700.210
188.256	19.703	918.253	700.240
189.271	19.939	917.548	700.596
190.286	19.940	916.767	699.943
191.300	19.681	915.959	698.216
192.315	19.200	914.792	695.326
193.329	18.760	913.988	692.878
194.344	18.964	913.280	693.103
195.359	19.105	912.857	693.289
196.373	19.379	912.374	693.961
197.388	19.395	912.042	693.714
198.402	19.543	911.736	694.012
199.417	19.754	911.253	694.432
200.432	20.028	911.084	695.342
201.446	20.057	910.658	695.070
202.461	20.258	910.029	695.335
203.475	20.233	909.983	695.140
204.490	20.300	909.083	694.659
205.504	19.936	907.913	692.248
206.519	19.739	906.722	690.491
207.534	19.617	906.473	689.753
208.548	19.578	905.737	688.976
209.563	19.740	904.518	688.634
210.577	19.783	904.082	688.411
211.592	19.817	903.091	687.730
212.607	19.793	903.493	687.880
213.621	20.072	903.024	688.570
214.636	20.085	901.750	687.592
215.650	19.900	901.484	686.595
216.665	19.880	900.904	686.011
217.680	20.044	900.611	686.379
218.694	20.154	900.003	686.289
219.709	20.394	899.194	686.560
220.723	20.213	899.096	685.709
221.738	20.167	898.114	684.720
222.753	19.920	897.765	683.416
223.767	19.871	896.864	682.479
224.782	20.027	896.167	682.502
225.796	20.301	895.199	682.782
226.811	20.414	894.408	682.562
227.826	20.199	894.293	681.570
228.840	20.032	893.198	680.017
229.855	19.816	892.486	678.570
230.869	19.973	891.884	678.668
231.884	19.850	891.572	677.888
232.899	19.823	890.313	676.764
233.913	19.811	889.640	676.147
234.928	19.640	889.302	675.161
235.942	19.685	888.212	674.452
236.957	19.540	887.658	673.403
237.972	19.641	887.107	673.319
238.986	19.683	886.222	672.752
240.001	19.751	885.633	672.508
241.015	19.714	884.994	671.820
242.030	19.624	884.651	671.153
243.045	19.664	884.735	671.312
244.059	19.917	883.705	671.453
245.074	19.975	882.932	671.032
246.088	20.126	881.707	670.623
247.103	20.043	881.879	670.373
248.117	20.265	881.505	670.889
249.132	20.340	881.467	671.089
250.147	20.691	880.939	671.984
251.161	20.938	879.909	672.095
252.176	21.015	880.078	672.458
253.190	21.016	879.327	671.829
254.205	20.982	878.945	671.347
255.220	21.225	877.968	671.477
256.234	21.122	877.484	670.653
257.249	21.126	876.769	670.063
258.263	21.071	876.426	669.527
259.278	21.089	875.206	668.604
260.293	20.973	875.014	667.956
261.307	21.012	874.448	667.614
262.322	20.871	874.673	667.188
263.336	21.233	873.149	667.350
264.351	21.003	873.240	666.479
265.366	21.157	872.138	666.166
266.380	21.051	871.796	665.443
267.395	21.323	870.769	665.637
268.409	21.199	870.100	664.596
269.424	20.875	869.554	662.888
270.439	20.902	869.028	662.529
271.453	20.870	868.033	661.591
272.468	20.737	867.004	660.243
273.482	20.809	866.410	660.004
274.497	20.718	866.163	659.416
275.512	20.647	865.411	658.514
276.526	20.716	864.386	657.936
277.541	20.794	864.243	658.064
278.555	20.788	863.648	657.529
279.570	20.947	863.169	657.707
280.585	21.129	862.714	657.991
281.599	21.323	862.091	658.188
282.614	21.002	861.604	656.548
283.628	20.848	860.482	655.057
284.643	20.741	860.277	654.442
285.657	20.885	859.464	654.303
286.672	20.836	859.354	653.980
287.687	21.019	858.459	653.928
288.701	20.862	858.040	652.963
289.716	20.803	857.449	652.231
290.730	20.882	857.057	652.173
291.745	20.938	856.234	651.699
292.760	21.045	855.429	651.425
293.774	21.146	854.844	651.302
294.789	21.309	854.806	651.823
295.803	21.293	854.206	651.247
296.818	21.007	853.500	649.587
297.833	20.907	852.633	648.497
298.847	20.905	852.001	647.950
299.862	21.043	851.283	647.859
300.876	21.059	850.634	647.370
301.891	21.181	850.122	647.375
302.906	21.251	849.988	647.472
303.920	21.382	849.171	647.280
304.935	21.542	849.042	647.717
305.949	21.601	848.479	647.448
306.964	21.729	847.538	647.145
307.979	21.437	846.686	645.361
308.993	21.306	846.280	644.508
310.008	21.499	845.749	644.759
311.022	21.548	845.604	644.772
312.037	21.568	844.612	644.034
313.052	21.337	844.309	642.896
314.066	21.019	843.951	641.398
315.081	21.018	842.669	640.362
316.095	20.834	841.876	639.027
317.110	20.890	841.563	638.937
318.125	21.154	841.174	639.553
319.139	20.944	840.601	638.293
320.154	20.882	840.316	637.794
321.168	20.950	839.581	637.429
322.183	20.927	839.040	636.877
323.197	21.102	838.582	637.112
324.212	21.086	838.110	636.637
325.227	21.127	837.506	636.271
326.241	21.060	837.068	635.638
327.256	21.021	836.451	634.972
328.270	21.139	835.697	634.772
329.285	21.068	835.203	634.084
330.300	20.937	834.477	633.002
331.314	21.150	833.588	633.042
332.329	21.104	833.537	632.780
333.343	21.270	833.008	632.926
334.358	21.506	832.365	633.234
335.373	21.462	831.975	632.724
336.387	21.532	831.575	632.616
337.402	21.547	831.437	632.509
338.416	21.557	830.800	632.004
339.431	21.669	830.339	632.003
340.446	21.737	829.937	631.886
341.460	22.036	829.346	632.457
342.475	21.992	829.035	632.006
343.489	22.032	828.369	631.584
344.504	22.160	828.084	631.773
345.519	22.121	827.914	631.448
346.533	22.161	827.109	630.922
347.548	22.240	826.110	630.386
348.562	22.001	825.416	628.944
349.577	21.820	824.693	627.691
350.592	21.555	824.044	626.192
351.606	21.332	824.002	625.307
352.621	21.336	823.049	624.544
353.635	21.442	822.555	624.492
354.650	21.552	822.521	624.804
355.665	21.683	822.025	624.838
356.679	21.826	821.364	624.790
357.694	21.688	821.565	624.394
358.708	21.858	820.380	624.045
359.723	21.848	819.741	623.468
360.738	21.739	819.458	622.812
361.752	21.736	819.257	622.590
362.767	21.780	818.610	622.202
363.781	22.152	818.086	623.066
364.796	22.248	818.183	623.428
365.810	22.296	817.693	623.168
366.825	22.451	817.692	623.659
367.840	22.508	817.236	623.458
368.854	22.550	816.363	622.885
369.869	22.494	815.669	622.106
370.883	22.254	815.124	620.785
371.898	22.282	814.520	620.372
372.913	22.382	814.305	620.506
373.927	22.434	813.808	620.252
374.942	22.235	813.114	618.969
375.956	22.368	812.072	618.590
376.971	22.349	811.786	618.251
377.986	22.493	811.420	618.422
379.000	22.577	810.957	618.308
380.015	22.749	810.686	618.652
381.029	22.597	810.254	617.733
382.044	22.639	809.227	617.045
383.059	22.576	809.121	616.687
384.073	22.637	808.709	616.532
385.088	22.567	807.681	615.448
386.102	22.325	807.013	614.040
387.117	22.155	805.935	612.576
388.132	22.141	805.805	612.372
389.146	22.042	805.399	611.664
390.161	22.177	805.097	611.853
391.175	22.467	804.584	612.416
392.190	22.422	804.396	612.064
393.205	22.301	804.102	611.363
394.219	22.169	803.481	610.379
395.234	22.208	802.533	609.739
396.248	22.083	801.964	608.821
397.263	21.922	801.499	607.855
398.278	21.951	800.939	607.478
399.292	21.927	800.257	606.823
400.307	21.920	800.231	606.726
401.321	21.891	799.879	606.305
402.336	21.951	799.408	606.103
403.350	22.105	798.769	606.097
404.365	22.185	798.744	606.300
405.380	22.471	797.961	606.636
406.394	22.408	798.209	606.553
407.409	22.797	797.471	607.280
408.423	22.912	797.161	607.385
409.438	22.798	796.740	606.616
410.453	22.985	796.593	607.093
411.467	22.900	796.269	606.501
412.482	22.821	795.806	605.823
413.496	23.034	795.466	606.245
414.511	23.273	794.839	606.530
415.526	23.270	794.173	605.957
416.540	23.081	794.087	605.193
417.555	22.972	793.315	604.176
418.569	23.005	792.816	603.856
419.584	22.845	792.781	603.230
420.599	22.922	791.822	602.709
421.613	165.528	1370.128	1798.143
422.628	143.590	1454.407	1798.249
