DTS Sentinel unit serial number:	SN413079Multiplexer serial number:	ORYXHardware model number:	OX4-SRSoftware version number:	ORYX F/W v4.00 Oryx Data Collector v3.7.2.0data status	okinstallation	princeton_trtdifferential loss correction	single-endedforward channel	channel 3reverse channel	N/Adate	2019/09/13time	00:08:35forward acquisition time	60.00reverse acquisition time	0.00gamma	496.2192k internal	0.2330k external	0.2330temperature offset calibration	1.0127default loss term (dB/km)	0.3790temperature slope calibration	1.0000multiplexer offset coefficient	1.0000multiplexer slope coefficient	1.0000fibre end	0.00T internal ref (°C)	28.58T ext. ref 1 (°C)	3.78T ext. ref 2 (°C)	23.22length (m)	temperature (°C)	Stokes	anti-Stokes-747.200	-200.000	-0.015	0.237
-746.185	-200.000	-0.011	0.135
-745.171	36.171	-0.237	-0.211
-744.156	-200.000	-0.005	0.023
-743.142	-200.000	0.020	-0.457
-742.127	101.044	-0.089	-0.105
-741.112	315.107	-0.139	0.264
-740.098	-195.908	-0.309	-0.002
-739.083	686.771	-0.054	-0.142
-738.069	800.000	-0.027	-0.081
-737.054	431.201	-0.054	-0.119
-736.039	-107.158	-0.265	-0.059
-735.025	-182.322	0.348	-0.007
-734.010	216.227	-0.203	-0.325
-732.996	-150.503	-0.190	-0.015
-731.981	-68.799	-0.389	-0.151
-730.966	34.719	0.086	-0.076
-729.952	668.435	0.023	-0.060
-728.937	-200.000	-0.053	-0.350
-727.923	-200.000	-0.028	-0.167
-726.908	575.441	0.047	0.115
-725.894	50.390	0.111	-0.105
-724.879	36.720	-0.210	-0.187
-723.864	800.000	-0.088	0.248
-722.850	226.753	-0.157	-0.257
-721.835	-200.000	0.007	-0.146
-720.821	8.619	-0.299	0.226
-719.806	68.604	-0.265	-0.273
-718.791	-111.135	-0.423	-0.087
-717.777	388.671	-0.050	0.103
-716.762	-88.080	-0.415	0.125
-715.748	170.525	-0.148	0.213
-714.733	50.115	-0.328	-0.312
-713.718	-154.108	0.181	0.012
-712.704	1.007	-0.101	0.073
-711.689	-99.615	0.108	-0.027
-710.675	70.010	-0.257	-0.267
-709.660	-86.054	0.420	-0.130
-708.645	227.808	-0.107	0.175
-707.631	154.438	0.126	-0.174
-706.616	-200.000	0.002	0.124
-705.602	92.520	-0.287	0.325
-704.587	-102.022	0.342	-0.083
-703.572	-187.764	-0.201	-0.003
-702.558	259.408	0.115	0.199
-701.543	-200.000	0.034	-0.291
-700.529	234.837	0.036	0.060
-699.514	351.271	-0.063	0.125
-698.499	-136.753	-0.175	-0.020
-697.485	-200.000	-0.002	-0.257
-696.470	-141.658	0.207	-0.021
-695.456	126.532	0.147	-0.187
-694.441	255.637	0.145	-0.250
-693.426	261.800	-0.079	0.137
-692.412	-181.876	-0.270	-0.005
-691.397	-108.924	0.186	-0.040
-690.383	114.539	-0.129	0.158
-689.368	170.578	0.011	-0.016
-688.354	310.654	-0.043	0.082
-687.339	-200.000	0.013	-0.086
-686.324	21.591	0.106	0.087
-685.310	132.191	0.287	-0.371
-684.295	-200.000	0.011	-0.257
-683.281	-174.962	-0.047	-0.001
-682.266	-112.189	-0.154	-0.031
-681.251	224.851	0.094	-0.152
-680.237	65.499	0.196	-0.199
-679.222	-200.000	0.067	-0.380
-678.208	-75.010	-0.485	-0.174
-677.193	-133.333	-0.375	0.047
-676.178	-119.854	-0.207	-0.036
-675.164	-55.548	-0.049	-0.022
-674.149	58.762	0.076	-0.075
-673.135	156.723	-0.034	-0.047
-672.120	-59.304	-0.041	-0.018
-671.105	-174.694	0.042	0.001
-670.091	-66.698	0.282	0.112
-669.076	-25.500	-0.230	0.137
-668.062	16.144	0.067	0.053
-667.047	101.085	0.041	0.048
-666.032	175.695	-0.106	0.155
-665.018	94.440	0.070	-0.080
-664.003	-200.000	0.205	0.000
-662.989	800.000	0.009	-0.026
-661.974	-115.651	-0.332	-0.062
-660.959	-200.000	-0.009	-0.092
-659.945	800.000	-0.063	0.203
-658.930	-188.597	-0.371	0.005
-657.916	33.041	0.183	-0.159
-656.901	-66.026	-0.239	-0.096
-655.886	16.389	-0.149	0.118
-654.872	800.000	-0.055	-0.174
-653.857	-39.715	-0.256	-0.134
-652.843	-200.000	0.020	0.168
-651.828	-100.377	0.305	0.076
-650.814	-135.726	-0.206	-0.024
-649.799	124.757	-0.140	-0.176
-648.784	69.307	0.228	-0.236
-647.770	353.974	-0.056	-0.111
-646.755	-77.330	0.154	0.054
-645.741	207.655	-0.033	-0.052
-644.726	476.676	0.082	-0.185
-643.711	-102.916	0.237	0.057
-642.697	404.485	-0.099	-0.209
-641.682	-200.000	0.038	0.277
-640.668	800.000	-0.097	-0.292
-639.653	-200.000	-0.039	-0.424
-638.638	-71.970	-0.312	-0.116
-637.624	800.000	-0.058	0.200
-636.609	12.024	-0.195	-0.150
-635.595	175.970	-0.149	-0.216
-634.580	144.819	0.032	-0.043
-633.565	-85.959	-0.147	0.046
-632.551	-74.688	0.104	0.037
-631.536	560.093	0.136	-0.330
-630.522	800.000	0.112	-0.415
-629.507	-146.910	-0.236	-0.020
-628.492	-83.981	-0.168	0.054
-627.478	-200.000	0.006	-0.124
-626.463	-25.690	0.169	-0.100
-625.449	-68.208	-0.191	0.075
-624.434	-200.000	-0.018	-0.117
-623.419	800.000	0.046	-0.166
-622.405	-83.687	0.143	-0.046
-621.390	-200.000	0.006	-0.340
-620.376	-126.246	-0.450	0.067
-619.361	206.213	-0.196	0.306
-618.346	359.001	0.080	0.161
-617.332	-103.225	-0.305	0.072
-616.317	111.602	0.052	0.063
-615.303	-200.000	-0.057	-0.267
-614.288	-200.000	0.044	0.197
-613.273	496.823	0.052	0.120
-612.259	6.383	-0.112	-0.084
-611.244	-23.067	0.073	0.044
-610.230	800.000	0.169	-0.659
-609.215	-20.934	0.176	-0.108
-608.201	-28.607	0.267	-0.154
-607.186	224.210	0.146	0.237
-606.171	-200.000	0.033	0.249
-605.157	-110.443	-0.192	-0.040
-604.142	-79.498	0.431	-0.146
-603.128	-11.987	0.330	0.216
-602.113	194.754	-0.080	0.122
-601.098	-200.000	-0.004	-0.251
-600.084	-54.673	0.316	-0.143
-599.069	-58.113	0.164	0.072
-598.055	-141.896	-0.697	-0.070
-597.040	-45.848	-0.287	-0.142
-596.025	-5.390	0.262	0.180
-595.011	154.232	0.110	0.151
-593.996	53.435	0.090	-0.087
-592.982	56.274	0.279	0.271
-591.967	349.986	-0.165	0.327
-590.952	-136.413	-0.323	0.038
-589.938	21.330	0.217	0.177
-588.923	-156.129	-0.263	0.017
-587.909	-90.580	0.113	0.033
-586.894	-97.595	-0.185	0.048
-585.879	185.512	-0.049	0.073
-584.865	-113.671	-0.365	-0.071
-583.850	195.068	0.190	-0.289
-582.836	89.393	-0.093	-0.104
-581.821	21.359	-0.249	0.203
-580.806	-132.658	-0.108	0.014
-579.792	-80.701	-0.281	0.093
-578.777	800.000	-0.112	-0.314
-577.763	760.762	-0.072	0.196
-576.748	-200.000	-0.047	0.244
-575.733	-200.000	-0.023	-0.117
-574.719	-85.089	-0.090	-0.028
-573.704	-200.000	-0.001	0.133
-572.690	47.166	-0.262	-0.243
-571.675	106.352	-0.157	-0.186
-570.661	13.882	-0.172	-0.134
-569.646	800.000	0.064	0.242
-568.631	-143.306	0.110	-0.011
-567.617	-171.705	0.166	-0.005
-566.602	434.167	-0.074	-0.161
-565.588	-61.448	-0.132	-0.056
-564.573	-131.542	-0.136	0.018
-563.558	-200.000	-0.065	0.308
-562.544	107.647	-0.156	-0.185
-561.529	-35.214	-0.147	-0.080
-560.515	-200.000	-0.050	-0.249
-559.500	33.555	-0.199	-0.173
-558.485	-153.757	-0.270	-0.019
-557.471	-35.851	0.176	0.095
-556.456	243.504	-0.085	0.143
-555.442	-200.000	0.010	0.202
-554.427	-200.000	0.018	-0.292
-553.412	52.861	-0.114	-0.109
-552.398	-200.000	-0.027	0.229
-551.383	-32.596	0.450	0.250
-550.369	92.922	0.244	-0.276
-549.354	71.817	-0.088	-0.091
-548.339	-0.327	-0.276	0.196
-547.325	-159.711	-0.102	0.006
-546.310	-73.239	0.101	0.037
-545.296	-167.556	-0.242	-0.010
-544.281	645.358	0.088	-0.225
-543.266	-27.921	0.086	0.050
-542.252	93.973	-0.053	-0.060
-541.237	80.074	-0.135	0.145
-540.223	-102.239	0.314	-0.075
-539.208	-191.027	0.241	-0.003
-538.193	-156.184	-0.154	0.010
-537.179	53.137	0.226	0.216
-536.164	131.834	0.066	0.085
-535.150	-170.991	-0.096	0.003
-534.135	-164.342	-0.341	0.016
-533.121	-107.943	0.101	-0.022
-532.106	99.665	0.030	-0.034
-531.091	-200.000	-0.016	0.278
-530.077	28.731	0.144	0.122
-529.062	-200.000	-0.019	-0.208
-528.048	-87.249	0.038	0.012
-527.033	119.193	-0.107	-0.133
-526.018	-21.384	0.216	0.132
-525.004	-67.785	-0.168	-0.066
-523.989	536.229	-0.043	-0.101
-522.975	800.000	0.071	-0.303
-521.960	-200.000	0.008	-0.104
-520.945	-31.249	-0.059	0.033
-519.931	-55.396	0.130	0.058
-518.916	235.259	-0.200	0.330
-517.902	290.226	-0.076	-0.138
-516.887	154.516	-0.020	-0.027
-515.872	-200.000	-0.001	0.038
-514.858	-128.802	-0.258	0.036
-513.843	368.833	-0.083	0.167
-512.829	185.771	0.196	0.291
-511.814	800.000	-0.060	-0.167
-510.799	800.000	0.098	0.330
-509.785	-1.021	0.171	-0.121
-508.770	-8.826	-0.050	-0.033
-507.756	-23.020	-0.152	0.091
-506.741	37.844	-0.053	-0.047
-505.726	489.731	-0.038	-0.086
-504.712	310.421	0.125	0.234
-503.697	54.248	-0.166	-0.159
-502.683	409.619	-0.043	-0.090
-501.668	172.797	-0.204	0.293
-500.653	66.538	0.121	-0.123
-499.639	359.649	0.068	0.135
-498.624	99.469	0.123	-0.142
-497.610	216.010	-0.225	-0.357
-496.595	-200.000	0.000	-0.113
-495.581	747.186	-0.109	0.294
-494.566	381.281	-0.185	0.378
-493.551	83.612	-0.210	0.229
-492.537	-134.858	0.235	-0.028
-491.522	340.508	-0.048	0.094
-490.508	-200.000	-0.006	-0.215
-489.493	-200.000	0.054	-0.286
-488.478	-149.081	-0.135	-0.011
-487.464	-166.341	-0.212	-0.009
-486.449	122.835	-0.190	0.237
-485.435	-70.566	-0.155	-0.058
-484.420	-73.805	0.157	-0.057
-483.405	76.423	-0.189	-0.199
-482.391	-200.000	-0.001	0.065
-481.376	158.057	0.100	0.138
-480.362	-121.774	-0.186	0.031
-479.347	330.147	-0.092	0.177
-478.332	800.000	0.077	0.244
-477.318	276.762	0.317	0.561
-476.303	-108.241	-0.115	-0.025
-475.289	-200.000	0.022	-0.111
-474.274	-61.908	-0.218	-0.091
-473.259	-200.000	0.009	0.302
-472.245	312.289	-0.109	-0.205
-471.230	-136.191	0.109	-0.013
-470.216	-200.000	-0.063	-0.293
-469.201	-82.311	-0.268	-0.087
-468.186	-158.812	0.368	0.021
-467.172	-200.000	-0.003	0.202
-466.157	40.305	-0.114	0.102
-465.143	75.561	-0.183	0.192
-464.128	190.875	0.075	-0.112
-463.113	181.471	-0.222	-0.325
-462.099	-200.000	0.003	0.296
-461.084	28.047	-0.171	-0.144
-460.070	17.638	0.197	-0.156
-459.055	142.653	-0.033	0.044
-458.040	28.937	-0.123	-0.104
-457.026	800.000	-0.023	-0.081
-456.011	-158.024	-0.274	0.016
-454.997	-98.550	-0.255	-0.065
-453.982	-128.319	-0.187	0.027
-452.968	-70.615	0.013	0.005
-451.953	800.000	-0.052	0.166
-450.938	51.056	0.360	-0.340
-449.924	662.121	0.124	0.319
-448.909	-200.000	0.006	0.029
-447.895	-132.488	-0.093	-0.012
-446.880	214.767	-0.079	-0.125
-445.865	-52.547	-0.437	0.201
-444.851	-103.034	0.364	0.086
-443.836	800.000	-0.044	-0.172
-442.822	-93.723	-0.097	-0.027
-441.807	-200.000	-0.004	-0.030
-440.792	-200.000	0.003	0.464
-439.778	-200.000	-0.007	-0.219
-438.763	-139.172	0.297	-0.032
-437.749	263.795	-0.214	-0.370
-436.734	64.719	-0.061	-0.061
-435.719	800.000	-0.029	0.115
-434.705	800.000	-0.057	-0.226
-433.690	-139.019	-0.090	0.010
-432.676	-200.000	0.043	0.282
-431.661	800.000	0.055	0.183
-430.646	415.252	-0.028	-0.058
-429.632	-200.000	0.026	-0.165
-428.617	321.011	-0.143	0.271
-427.603	335.478	-0.159	-0.306
-426.588	396.252	-0.111	0.231
-425.573	294.333	0.102	-0.186
-424.559	-200.000	-0.003	0.146
-423.544	-87.316	0.159	-0.048
-422.530	63.731	0.072	0.072
-421.515	-149.271	0.056	0.004
-420.500	200.333	0.112	-0.171
-419.486	-21.947	-0.372	-0.225
-418.471	357.768	-0.045	-0.089
-417.457	-200.000	-0.048	0.218
-416.442	42.668	-0.090	0.081
-415.428	-124.340	-0.430	-0.067
-414.413	-105.756	0.320	0.072
-413.398	-89.014	0.268	-0.079
-412.384	-200.000	0.006	0.070
-411.369	-109.358	-0.343	0.072
-410.355	800.000	-0.132	-0.398
-409.340	123.598	-0.286	0.357
-408.325	434.312	-0.052	-0.113
-407.311	349.903	-0.149	-0.293
-406.296	-200.000	0.029	-0.316
-405.282	800.000	0.065	-0.180
-404.267	-22.852	-0.059	-0.035
-403.252	478.252	0.170	0.383
-402.238	35.332	0.302	0.263
-401.223	-74.815	-0.378	0.135
-400.209	-93.115	-0.250	0.069
-399.194	243.133	-0.143	-0.238
-398.179	482.402	-0.116	0.261
-397.165	-126.725	0.327	0.048
-396.150	-200.000	0.036	-0.285
-395.136	-82.547	-0.160	-0.051
-394.121	-133.667	0.217	-0.027
-393.106	-43.838	0.157	0.078
-392.092	-118.175	0.255	0.045
-391.077	-22.084	0.184	0.111
-390.063	129.012	0.124	0.157
-389.048	-25.261	0.038	-0.022
-388.033	481.372	-0.124	-0.280
-387.019	-125.793	0.377	0.057
-386.004	-200.000	-0.013	-0.088
-384.990	800.000	0.104	0.444
-383.975	141.943	0.193	-0.254
-382.960	-101.168	-0.343	0.083
-381.946	70.052	0.045	0.046
-380.931	153.344	-0.034	-0.047
-379.917	-200.000	-0.008	-0.056
-378.902	-129.251	-0.079	0.011
-377.888	800.000	0.083	0.234
-376.873	-171.435	0.480	0.016
-375.858	597.775	-0.138	-0.340
-374.844	-200.000	0.013	-0.201
-373.829	-200.000	-0.018	-0.199
-372.815	-180.110	0.276	0.006
-371.800	150.154	0.078	-0.104
-370.785	55.007	-0.171	0.164
-369.771	-71.089	-0.145	-0.054
-368.756	-80.942	0.168	0.055
-367.742	800.000	0.053	-0.164
-366.727	-75.829	0.193	-0.068
-365.712	-100.317	0.209	0.051
-364.698	-89.990	-0.252	-0.073
-363.683	-76.190	0.210	0.073
-362.669	93.875	0.112	0.126
-361.654	-142.651	-0.253	0.025
-360.639	-142.750	0.078	-0.008
-359.625	-200.000	0.013	-0.168
-358.610	-142.758	-0.236	0.023
-357.596	-200.000	0.099	-0.440
-356.581	-102.571	-0.131	-0.031
-355.566	-200.000	-0.038	-0.241
-354.552	-176.645	-0.129	0.003
-353.537	539.421	-0.080	-0.188
-352.523	-200.000	-0.012	0.115
-351.508	-200.000	-0.038	0.240
-350.493	74.078	-0.107	0.111
-349.479	-69.921	0.163	0.062
-348.464	800.000	-0.056	0.169
-347.450	-200.000	0.012	0.101
-346.435	387.512	-0.022	-0.046
-345.420	-34.224	-0.163	-0.089
-344.406	-22.002	0.189	-0.114
-343.391	27.382	0.120	-0.100
-342.377	-200.000	-0.015	-0.187
-341.362	-200.000	0.044	0.369
-340.348	-168.914	-0.211	-0.008
-339.333	28.134	-0.153	0.128
-338.318	-138.444	0.321	0.035
-337.304	263.934	-0.064	0.110
-336.289	-119.260	-0.203	-0.035
-335.275	361.806	-0.066	0.132
-334.260	-86.109	-0.217	0.066
-333.245	53.857	0.260	-0.247
-332.231	-102.705	0.171	-0.040
-331.216	633.243	-0.122	0.306
-330.202	-131.798	-0.123	-0.016
-329.187	-200.000	0.002	0.039
-328.172	800.000	0.027	-0.116
-327.158	332.450	0.014	-0.028
-326.143	-58.202	-0.256	0.111
-325.129	800.000	0.116	-0.415
-324.114	4.626	0.182	-0.132
-323.099	-70.799	-0.113	0.042
-322.085	-73.737	-0.168	-0.061
-321.070	182.858	0.103	0.150
-320.056	-3.051	-0.157	0.108
-319.041	-8.439	-0.061	-0.040
-318.026	-46.357	0.228	0.111
-317.012	15.049	0.193	-0.150
-315.997	35.061	0.254	-0.221
-314.983	83.024	0.235	-0.253
-313.968	534.909	-0.080	-0.189
-312.953	54.534	0.070	0.067
-311.939	6.632	-0.203	-0.149
-310.924	-200.000	-0.004	0.050
-309.910	-200.000	0.049	0.239
-308.895	-70.044	-0.243	0.092
-307.880	-200.000	0.017	-0.076
-306.866	-44.739	-0.318	-0.157
-305.851	10.039	0.064	0.048
-304.837	674.834	-0.074	-0.189
-303.822	-200.000	-0.031	-0.238
-302.807	49.210	0.106	0.098
-301.793	92.107	0.175	-0.196
-300.778	-147.909	-0.102	-0.008
-299.764	276.701	-0.099	0.175
-298.749	-163.452	-0.239	-0.011
-297.735	-11.160	0.218	-0.142
-296.720	-46.471	0.124	-0.060
-295.705	-16.030	-0.259	0.163
-294.691	800.000	0.024	0.088
-293.676	203.613	-0.049	-0.075
-292.662	125.648	0.084	0.105
-291.647	-162.464	0.357	-0.017
-290.632	708.908	-0.129	-0.338
-289.618	-200.000	0.031	0.158
-288.603	374.427	0.077	-0.155
-287.589	-40.479	-0.239	-0.123
-286.574	142.109	-0.014	0.018
-285.559	-200.000	-0.029	0.313
-284.545	-200.000	-0.047	0.481
-283.530	57.403	0.344	0.332
-282.516	275.559	0.163	-0.287
-281.501	-200.000	0.029	-0.190
-280.486	-96.993	0.257	-0.066
-279.472	337.263	-0.052	-0.101
-278.457	207.368	0.069	-0.106
-277.443	-111.999	0.280	-0.056
-276.428	452.942	-0.042	0.093
-275.413	-66.471	-0.085	0.033
-274.399	-163.381	0.296	0.014
-273.384	-100.033	-0.205	0.051
-272.370	602.785	-0.045	0.111
-271.355	-200.000	0.014	0.347
-270.340	558.300	0.149	0.355
-269.326	-200.000	0.039	-0.192
-268.311	-200.000	-0.040	-0.199
-267.297	632.523	-0.060	-0.150
-266.282	22.138	-0.308	0.249
-265.267	-71.696	0.104	-0.038
-264.253	-36.420	0.144	0.076
-263.238	687.494	0.025	-0.065
-262.224	-200.000	0.046	0.304
-261.209	535.551	0.185	-0.434
-260.195	-144.355	0.275	0.025
-259.180	-81.703	0.103	0.033
-258.165	-200.000	0.048	0.282
-257.151	710.644	0.010	-0.026
-256.136	-200.000	0.013	-0.077
-255.122	3.727	-0.141	-0.102
-254.107	107.366	-0.033	-0.038
-253.092	73.070	-0.061	0.063
-252.078	-200.000	-0.012	0.054
-251.063	169.585	0.015	0.021
-250.049	556.128	0.050	0.120
-249.034	800.000	-0.040	0.147
-248.019	-4.623	0.189	0.129
-247.005	-172.677	-0.052	-0.002
-245.990	-98.523	0.335	0.084
-244.976	800.000	0.014	-0.045
-243.961	-200.000	0.000	0.126
-242.946	636.876	-0.060	0.151
-241.932	-13.906	0.337	0.215
-240.917	-200.000	0.010	-0.342
-239.903	-165.090	0.132	-0.006
-238.888	-200.000	-0.007	0.188
-237.873	-19.760	0.121	-0.074
-236.859	172.159	0.213	-0.302
-235.844	-159.400	-0.296	-0.016
-234.830	37.103	0.270	0.236
-233.815	-34.020	0.207	-0.112
-232.800	-140.129	0.222	-0.023
-231.786	800.000	0.082	-0.271
-230.771	-41.854	0.218	0.110
-229.757	-200.000	-0.033	0.238
-228.742	-200.000	0.011	-0.203
-227.727	123.878	0.242	0.299
-226.713	105.371	-0.224	0.261
-225.698	281.574	0.280	0.495
-224.684	800.000	0.051	0.154
-223.669	161.399	-0.198	0.273
-222.655	335.749	-0.128	-0.246
-221.640	-101.483	0.249	0.060
-220.625	-200.000	0.009	0.156
-219.611	800.000	0.056	-0.165
-218.596	-57.761	0.281	0.121
-217.582	83.436	0.211	0.227
-216.567	-83.998	0.068	0.021
-215.552	-32.663	0.051	0.028
-214.538	-156.492	0.050	-0.003
-213.523	-75.265	0.427	0.150
-212.509	-57.319	-0.142	-0.062
-211.494	-51.718	0.112	-0.051
-210.479	-200.000	0.000	0.124
-209.465	-85.852	-0.156	-0.048
-208.450	-130.974	0.210	0.028
-207.436	362.889	0.072	-0.142
-206.421	800.000	-0.026	-0.105
-205.406	-200.000	0.008	0.034
-204.392	-188.310	-0.106	-0.001
-203.377	60.886	-0.111	-0.109
-202.363	182.940	-0.040	-0.059
-201.348	-16.185	0.299	-0.187
-200.333	-105.556	-0.089	-0.020
-199.319	-45.978	-0.263	0.128
-198.304	-200.000	-0.041	0.218
-197.290	506.465	0.216	0.494
-196.275	-79.955	0.294	-0.097
-195.260	-101.713	-0.392	-0.094
-194.246	129.679	-0.148	0.187
-193.231	-66.630	0.197	-0.077
-192.217	24.053	0.010	-0.008
-191.202	-0.625	0.065	-0.045
-190.187	-133.265	0.102	0.013
-189.173	-96.940	-0.116	0.030
-188.158	-67.964	-0.217	0.083
-187.144	-138.502	-0.240	-0.026
-186.129	-200.000	0.041	0.190
-185.114	72.516	0.245	-0.252
-184.100	113.889	0.214	0.256
-183.085	230.873	0.077	0.124
-182.071	-25.373	0.221	0.129
-181.056	-7.669	0.351	0.234
-180.042	-173.335	-0.059	-0.002
-179.027	-155.153	0.279	0.018
-178.012	0.765	-0.154	-0.109
-176.998	-78.925	0.072	-0.024
-175.983	72.175	-0.082	-0.084
-174.969	-200.000	0.001	0.168
-173.954	200.012	-0.234	-0.353
-172.939	-148.685	0.313	-0.025
-171.925	-30.177	0.194	-0.109
-170.910	-200.000	-0.005	0.317
-169.896	-200.000	-0.009	-0.046
-168.881	-39.090	-0.245	0.127
-167.866	58.507	-0.130	0.126
-166.852	800.000	-0.093	-0.378
-165.837	21.645	0.162	-0.130
-164.823	-21.100	-0.111	0.067
-163.808	-67.627	0.334	0.129
-162.793	125.110	0.003	0.004
-161.779	-103.409	0.037	0.008
-160.764	78.462	0.102	0.107
-159.750	0.004	0.131	-0.092
-158.735	360.716	-0.138	-0.273
-157.720	307.057	-0.062	-0.114
-156.706	-200.000	0.018	0.101
-155.691	129.166	-0.102	0.128
-154.677	-111.558	-0.250	-0.050
-153.662	-135.887	-0.071	-0.008
-152.647	-164.639	-0.133	-0.006
-151.633	-134.266	0.637	-0.077
-150.618	800.000	0.023	0.098
-149.604	-200.000	0.030	-0.400
-148.589	-87.302	0.377	-0.112
-147.574	-26.109	-0.157	-0.091
-146.560	368.611	0.101	0.202
-145.545	-38.906	0.370	0.192
-144.531	-72.448	0.181	-0.066
-143.516	-1.945	-0.133	0.092
-142.502	-4.188	-0.122	0.083
-141.487	-93.763	-0.140	0.038
-140.472	144.538	-0.065	-0.085
-139.458	185.122	-0.134	-0.195
-138.443	-21.124	0.453	-0.272
-137.429	193.487	0.177	-0.263
-136.414	-58.063	-0.162	0.069
-135.399	2.767	-0.072	-0.052
-134.385	-164.824	-0.352	-0.016
-133.370	-169.510	0.075	0.003
-132.356	-168.335	-0.027	-0.001
-131.341	-200.000	0.008	0.133
-130.326	80.656	0.369	-0.391
-129.312	124.934	0.109	0.135
-128.297	-152.884	-0.109	-0.008
-127.283	-17.730	0.015	-0.009
-126.268	136.252	0.059	-0.075
-125.253	-97.866	-0.016	0.004
-124.239	-54.961	0.117	-0.052
-123.224	-102.099	0.369	0.087
-122.210	385.805	0.093	-0.188
-121.195	-200.000	0.063	-0.497
-120.180	-200.000	0.031	0.301
-119.166	-200.000	0.048	-0.343
-118.151	-92.280	0.201	-0.056
-117.137	8.788	-0.379	0.281
-116.122	-152.974	0.309	0.021
-115.107	-97.053	0.209	-0.054
-114.093	-200.000	-0.019	0.243
-113.078	155.861	-0.144	0.195
-112.064	-93.264	-0.155	0.042
-111.049	-83.775	-0.269	-0.084
-110.034	800.000	-0.085	0.234
-109.020	-53.724	-0.338	-0.152
-108.005	-200.000	-0.003	-0.013
-106.991	19.011	-0.280	0.221
-105.976	-108.473	0.127	0.027
-104.962	-200.000	0.023	-0.332
-103.947	538.233	0.035	-0.082
-102.932	-58.602	-0.100	0.042
-101.918	-97.749	-0.153	0.039
-100.903	800.000	0.056	0.223
-99.889	-200.000	0.015	-0.114
-98.874	-200.000	0.023	0.115
-97.859	800.000	-0.111	0.353
-96.845	181.448	0.127	0.184
-95.830	-200.000	-0.042	-0.211
-94.816	-74.686	0.340	-0.120
-93.801	630.960	0.081	-0.200
-92.786	800.000	-0.038	0.161
-91.772	-5.272	0.353	-0.238
-90.757	-25.595	-0.028	0.016
-89.743	361.722	0.026	-0.051
-88.728	-146.160	-0.379	-0.033
-87.713	800.000	0.074	0.238
-86.699	-41.942	0.197	-0.099
-85.684	-63.057	0.113	-0.046
-84.670	-51.782	-0.315	0.144
-83.655	800.000	0.063	0.215
-82.640	-90.938	0.379	0.107
-81.626	252.236	0.176	0.294
-80.611	-76.263	0.172	-0.059
-79.597	517.042	-0.019	0.043
-78.582	260.258	-0.199	-0.338
-77.567	192.956	0.050	0.074
-76.553	-74.158	-0.110	0.039
-75.538	-2.506	0.418	-0.287
-74.524	-64.692	-0.264	0.105
-73.509	-67.329	0.222	-0.086
-72.494	165.928	0.165	0.229
-71.480	-63.503	-0.237	0.096
-70.465	-140.259	-0.221	0.023
-69.451	359.623	-0.072	0.141
-68.436	-200.000	0.016	-0.121
-67.422	397.318	0.141	-0.289
-66.407	-128.811	0.309	0.043
-65.392	615.791	0.093	-0.229
-64.378	291.581	-0.086	0.154
-63.363	-108.253	0.126	-0.027
-62.349	291.350	0.031	0.056
-61.334	35.553	-1.188	-1.023
-60.319	-15.075	0.712	0.447
-59.305	800.000	-0.267	-0.842
-58.290	161.681	0.856	1.175
-57.276	800.000	0.402	1.636
-56.261	-200.000	112.557	630.849
-55.246	517.003	1522.167	3489.017
-54.232	177.318	2692.524	3843.429
-53.217	109.425	2172.339	2550.181
-52.203	39.040	1701.577	1491.003
-51.188	31.704	1520.114	1281.959
-50.173	29.452	1494.856	1245.429
-49.159	50.761	1553.265	1441.449
-48.144	50.774	1568.107	1455.256
-47.130	31.801	1524.263	1285.919
-46.115	28.867	1509.393	1253.354
-45.100	28.636	1506.489	1249.319
-44.086	28.722	1503.703	1247.546
-43.071	28.568	1501.997	1245.035
-42.057	28.692	1500.153	1244.294
-41.042	28.592	1499.083	1242.683
-40.027	28.531	1497.706	1241.075
-39.013	28.527	1496.171	1239.732
-37.998	28.568	1494.659	1238.705
-36.984	28.544	1494.108	1238.035
-35.969	28.497	1492.767	1236.556
-34.954	28.571	1491.079	1235.610
-33.940	28.509	1490.222	1234.430
-32.925	28.551	1488.442	1233.190
-31.911	28.475	1487.907	1232.191
-30.896	28.539	1486.234	1231.188
-29.881	28.617	1484.736	1230.415
-28.867	28.584	1483.732	1229.313
-27.852	28.679	1481.614	1228.148
-26.838	28.665	1480.472	1227.057
-25.823	28.583	1479.553	1225.704
-24.809	28.678	1477.594	1224.665
-23.794	28.591	1476.589	1223.200
-22.779	28.575	1475.227	1221.921
-21.765	28.604	1474.465	1221.430
-20.750	28.640	1473.275	1220.638
-19.736	28.624	1471.956	1219.392
-18.721	28.680	1470.757	1218.722
-17.706	28.715	1469.680	1218.009
-16.692	28.584	1469.130	1216.642
-15.677	28.569	1467.652	1215.269
-14.663	28.580	1466.788	1214.574
-13.648	28.584	1465.719	1213.667
-12.633	28.639	1464.866	1213.280
-11.619	28.603	1464.309	1212.530
-10.604	28.601	1463.093	1211.461
-9.590	28.562	1462.190	1210.406
-8.575	28.564	1461.164	1209.528
-7.560	28.530	1460.373	1208.598
-6.546	28.528	1459.803	1208.064
-5.531	28.527	1458.861	1207.234
-4.517	28.582	1457.684	1206.573
-3.502	28.520	1456.896	1205.460
-2.487	28.579	1455.697	1204.813
-1.473	28.415	1454.618	1202.795
-0.458	28.555	1453.484	1202.726
0.556	30.035	1443.685	1190.899
1.571	26.979	1418.676	1150.832
2.586	23.320	1360.290	1081.082
3.600	21.531	1278.802	1005.954
4.615	20.292	1232.146	962.303
5.629	17.629	1175.991	904.250
6.644	10.448	1092.877	804.733
7.659	4.759	1054.782	749.288
8.673	4.012	1049.127	741.626
9.688	3.743	1045.835	737.948
10.702	3.682	1043.806	736.161
11.717	3.675	1042.384	735.060
12.731	6.301	1044.501	749.001
13.746	13.920	1055.303	793.193
14.761	20.882	1064.135	833.174
15.775	23.109	1066.305	845.455
16.790	22.600	1065.043	841.951
17.804	21.835	1063.297	836.845
18.819	21.230	1061.364	832.370
19.834	20.825	1060.248	829.492
20.848	20.837	1059.700	829.044
21.863	20.913	1059.423	829.117
22.877	20.825	1058.898	828.214
23.892	20.708	1057.678	826.633
24.907	20.585	1056.733	825.235
25.921	20.399	1056.505	824.104
26.936	20.326	1055.698	823.053
27.950	20.278	1054.848	822.090
28.965	20.302	1053.530	821.106
29.980	20.427	1051.765	820.248
30.994	20.552	1050.935	820.118
32.009	20.749	1050.336	820.503
33.023	20.693	1050.245	820.097
34.038	20.775	1049.023	819.456
35.053	20.655	1048.236	818.205
36.067	20.563	1047.135	816.840
37.082	20.501	1046.202	815.751
38.096	20.522	1045.774	815.445
39.111	20.580	1044.750	814.844
40.126	20.717	1044.220	815.002
41.140	20.561	1042.719	813.027
42.155	20.207	1041.443	810.305
43.169	19.878	1040.578	808.026
44.184	19.844	1039.408	806.887
45.199	19.848	1038.083	805.807
46.213	19.879	1036.881	804.944
47.228	20.012	1036.627	805.294
48.242	20.329	1036.190	806.358
49.257	20.646	1035.351	807.104
50.271	20.531	1034.293	805.676
51.286	20.621	1033.377	805.308
52.301	20.716	1032.802	805.227
53.315	20.585	1032.524	804.335
54.330	20.450	1031.325	802.704
55.344	20.407	1030.266	801.610
56.359	20.332	1028.935	800.157
57.374	20.069	1028.593	798.609
58.388	20.105	1027.883	798.151
59.403	19.946	1027.180	796.805
60.417	19.843	1025.807	795.198
61.432	19.866	1025.362	794.887
62.447	19.913	1024.294	794.205
63.461	19.837	1023.182	792.923
64.476	19.756	1022.665	792.083
65.490	19.622	1021.912	790.816
66.505	19.573	1020.972	789.795
67.520	19.649	1020.110	789.406
68.534	19.792	1019.382	789.425
69.549	19.603	1019.112	788.284
70.563	19.666	1017.468	787.227
71.578	19.417	1017.570	786.102
72.593	19.387	1015.861	784.574
73.607	19.276	1014.994	783.333
74.622	19.229	1014.076	782.341
75.636	19.282	1013.103	781.762
76.651	19.460	1012.294	781.874
77.666	19.559	1011.308	781.492
78.680	19.651	1010.690	781.363
79.695	19.431	1010.637	780.257
80.709	19.530	1010.317	780.390
81.724	19.786	1009.106	780.541
82.739	19.853	1008.687	780.448
83.753	19.933	1008.039	780.237
84.768	20.306	1007.322	781.294
85.782	20.673	1007.330	782.885
86.797	20.925	1006.781	783.522
87.812	21.125	1005.593	783.423
88.826	20.810	1004.856	781.370
89.841	20.733	1004.055	780.329
90.855	20.872	1003.243	780.252
91.870	21.003	1002.496	780.188
92.884	20.959	1002.110	779.625
93.899	20.978	1001.503	779.166
94.914	20.878	1000.535	777.899
95.928	20.837	999.747	777.035
96.943	20.935	999.320	777.072
97.957	20.861	997.796	775.486
98.972	20.709	996.739	773.920
99.987	20.618	996.376	773.169
101.001	20.719	995.670	772.998
102.016	20.780	994.666	772.423
103.030	20.675	993.922	771.308
104.045	20.662	992.846	770.349
105.060	20.729	992.042	769.955
106.074	20.560	991.207	768.492
107.089	20.454	989.883	766.928
108.103	20.017	989.341	764.511
109.118	19.802	987.914	762.394
110.133	19.821	986.609	761.403
111.147	19.617	985.975	759.949
112.162	19.643	984.500	758.860
113.176	19.709	983.875	758.602
114.191	19.826	983.221	758.541
115.206	19.927	982.866	758.641
116.220	19.936	981.683	757.702
117.235	19.829	980.925	756.582
118.249	19.832	979.911	755.748
119.264	19.555	979.598	754.228
120.279	19.533	978.334	753.091
121.293	19.606	976.979	752.300
122.308	19.540	976.402	751.503
123.322	19.422	975.550	750.269
124.337	19.298	974.408	748.783
125.352	19.283	973.310	747.809
126.366	19.240	972.332	746.804
127.381	19.389	970.822	746.225
128.395	19.282	970.718	745.614
129.410	19.424	969.668	745.356
130.424	19.416	968.690	744.502
131.439	19.506	968.053	744.335
132.454	19.745	967.637	744.982
133.468	19.877	966.988	744.984
134.483	19.892	966.188	744.368
135.497	19.766	965.728	743.406
136.512	19.886	964.785	743.127
137.527	19.874	964.084	742.472
138.541	19.856	963.219	741.660
139.556	19.947	962.524	741.451
140.570	20.000	961.508	740.829
141.585	20.230	961.008	741.362
142.600	20.337	960.983	741.733
143.614	20.437	960.337	741.595
144.629	20.492	960.039	741.533
145.643	20.810	959.241	742.208
146.658	20.770	957.910	740.943
147.673	20.624	956.719	739.335
148.687	20.252	955.350	736.632
149.702	20.111	954.384	735.225
150.716	19.770	954.065	733.469
151.731	19.997	952.647	733.276
152.746	20.043	951.667	732.650
153.760	20.092	951.257	732.475
154.775	20.153	950.293	731.928
155.789	20.164	949.956	731.651
156.804	20.296	949.282	731.620
157.819	20.249	947.935	730.321
158.833	20.351	947.351	730.235
159.848	20.463	947.336	730.631
160.862	20.741	946.372	730.992
161.877	20.618	946.021	730.136
162.892	20.141	944.565	726.948
163.906	19.866	943.314	724.773
164.921	19.858	942.303	723.895
165.935	19.842	941.556	723.193
166.950	19.897	940.413	722.480
167.964	20.107	939.632	722.693
168.979	20.021	939.132	721.883
169.994	19.968	937.362	720.239
171.008	19.831	936.672	719.077
172.023	19.978	936.120	719.200
173.037	20.380	935.630	720.427
174.052	20.638	934.946	720.909
175.067	20.560	934.359	720.067
176.081	20.143	933.186	717.374
177.096	19.913	931.459	715.032
178.110	19.894	930.708	714.314
179.125	19.760	930.405	713.468
180.140	19.928	929.836	713.660
181.154	19.934	929.303	713.211
182.169	20.309	928.871	714.361
183.183	20.302	928.541	714.016
184.198	20.600	927.814	714.617
185.213	20.511	926.818	713.421
186.227	20.519	926.520	713.164
187.242	20.370	926.440	712.425
188.256	20.719	925.247	712.876
189.271	20.721	924.825	712.497
190.286	20.970	923.708	712.591
191.300	20.651	922.956	710.644
192.315	19.995	921.935	707.116
193.329	19.662	920.992	704.973
194.344	19.735	920.180	704.588
195.359	19.895	919.612	704.742
196.373	20.039	919.376	705.084
197.388	20.126	919.115	705.175
198.402	20.167	919.129	705.291
199.417	20.704	918.542	706.962
200.432	20.985	918.244	707.811
201.446	20.990	918.407	707.893
202.461	21.168	917.442	707.807
203.475	21.191	917.280	707.713
204.490	21.165	916.289	706.781
205.504	20.898	915.270	704.851
206.519	20.626	913.851	702.600
207.534	20.555	913.518	701.995
208.548	20.490	912.632	700.990
209.563	20.458	912.313	700.555
210.577	20.520	911.279	699.946
211.592	20.547	910.747	699.584
212.607	20.840	910.383	700.422
213.621	21.158	909.992	701.337
214.636	20.989	909.173	699.964
215.650	20.653	909.007	698.424
216.665	20.815	908.199	698.393
217.680	20.901	907.564	698.186
218.694	21.012	907.435	698.474
219.709	21.215	906.919	698.824
220.723	20.984	906.703	697.674
221.738	20.810	905.547	696.024
222.753	20.923	904.149	695.339
223.767	20.678	904.333	694.443
224.782	20.885	903.124	694.280
225.796	21.204	902.630	695.108
226.811	21.180	902.133	694.568
227.826	21.180	901.584	694.084
228.840	20.780	900.434	691.546
229.855	20.770	899.664	690.856
230.869	20.803	898.868	690.312
231.884	20.732	898.223	689.475
232.899	20.578	897.731	688.428
233.913	20.430	897.428	687.547
234.928	20.343	896.552	686.472
235.942	20.131	895.767	684.974
236.957	20.197	894.631	684.305
237.972	20.262	894.083	684.082
238.986	20.382	893.731	684.224
240.001	20.425	892.781	683.606
241.015	20.347	892.189	682.784
242.030	20.369	891.664	682.410
243.045	20.554	891.650	683.066
244.059	20.637	890.716	682.613
245.074	20.624	890.171	682.088
246.088	20.654	889.790	681.850
247.103	20.737	889.545	681.930
248.117	21.102	888.821	682.741
249.132	21.336	888.442	683.307
250.147	21.415	888.767	683.804
251.161	21.840	888.352	685.084
252.176	22.116	887.293	685.285
253.190	21.992	886.910	684.446
254.205	22.161	886.416	684.659
255.220	22.157	885.930	684.211
256.234	22.069	885.136	683.192
257.249	21.946	884.733	682.344
258.263	21.816	884.017	681.226
259.278	21.912	883.155	680.874
260.293	21.846	882.496	680.052
261.307	22.007	881.886	680.144
262.322	22.126	882.029	680.656
263.336	22.148	881.039	679.914
264.351	22.194	880.336	679.492
265.366	22.136	880.006	678.952
266.380	21.887	879.616	677.629
267.395	21.999	878.651	677.258
268.409	21.988	877.476	676.250
269.424	21.875	876.904	675.313
270.439	21.773	876.127	674.265
271.453	21.742	875.742	673.790
272.468	21.550	874.760	672.237
273.482	21.472	874.220	671.460
274.497	21.493	873.938	671.267
275.512	21.580	872.716	670.601
276.526	21.524	872.179	669.915
277.541	21.587	871.706	669.735
278.555	21.698	870.793	669.396
279.570	21.943	870.450	670.011
280.585	22.125	870.654	670.801
281.599	22.086	870.048	670.126
282.614	22.000	869.015	668.944
283.628	21.589	868.055	666.581
284.643	21.456	867.630	665.690
285.657	21.598	867.159	665.811
286.672	21.638	866.639	665.505
287.687	21.645	866.289	665.204
288.701	21.748	865.767	665.135
289.716	21.752	864.933	664.451
290.730	21.738	864.334	663.877
291.745	21.700	864.051	663.459
292.760	21.833	863.324	663.344
293.774	21.824	862.943	662.959
294.789	22.091	862.563	663.617
295.803	22.238	861.878	663.586
296.818	21.874	860.788	661.317
297.833	21.748	860.194	660.325
298.847	21.671	859.575	659.504
299.862	21.903	858.439	659.445
300.876	21.888	858.173	659.127
301.891	21.985	857.835	659.174
302.906	22.268	857.253	659.730
303.920	22.240	857.171	659.502
304.935	22.510	856.588	660.005
305.949	22.657	855.903	659.972
306.964	22.560	855.118	658.943
307.979	22.291	854.335	657.276
308.993	22.086	853.881	656.107
310.008	22.295	853.392	656.451
311.022	22.259	853.039	655.985
312.037	22.292	852.217	655.420
313.052	21.993	851.639	653.803
314.066	21.869	850.991	652.788
315.081	21.429	850.175	650.470
316.095	21.384	849.387	649.642
317.110	21.517	849.225	649.952
318.125	21.755	848.821	650.470
319.139	21.683	847.841	649.394
320.154	21.551	847.168	648.333
321.168	21.451	846.898	647.697
322.183	21.478	846.684	647.578
323.197	21.777	845.847	647.984
324.212	21.685	845.772	647.529
325.227	21.792	845.049	647.313
326.241	21.677	844.417	646.349
327.256	21.627	843.573	645.460
328.270	21.637	843.016	645.015
329.285	21.579	842.419	644.287
330.300	21.589	841.579	643.624
331.314	21.524	841.309	643.123
332.329	21.770	840.252	643.161
333.343	21.991	839.817	643.581
334.358	22.103	839.682	643.828
335.373	22.073	839.161	643.265
336.387	22.109	838.961	643.187
337.402	22.205	838.493	643.123
338.416	22.323	838.047	643.153
339.431	22.535	837.370	643.351
340.446	22.676	837.019	643.539
341.460	22.809	836.601	643.646
342.475	22.925	836.170	643.680
343.489	22.943	835.806	643.409
344.504	22.924	835.430	642.992
345.519	23.059	834.818	642.957
346.533	23.080	834.468	642.704
347.548	23.026	833.815	641.950
348.562	22.794	832.765	640.242
349.577	22.524	832.062	638.669
350.592	22.246	831.726	637.347
351.606	22.053	831.034	636.060
352.621	22.266	830.299	636.213
353.635	22.174	829.940	635.546
354.650	22.196	829.380	635.142
355.665	22.328	828.882	635.182
356.679	22.486	828.502	635.404
357.694	22.336	828.520	634.822
358.708	22.502	827.499	634.582
359.723	22.425	827.230	634.039
360.738	22.571	825.975	633.549
361.752	22.354	825.801	632.577
362.767	22.610	825.521	633.227
363.781	22.786	825.117	633.491
364.796	22.916	824.979	633.796
365.810	22.972	824.616	633.662
366.825	23.245	824.471	634.472
367.840	23.295	824.119	634.326
368.854	23.263	823.703	633.837
369.869	23.103	822.826	632.534
370.883	22.805	822.182	630.918
371.898	22.821	821.843	630.658
372.913	23.040	820.988	630.727
373.927	23.070	820.807	630.639
374.942	22.912	820.037	629.430
375.956	22.944	819.047	628.728
376.971	23.001	818.675	628.587
377.986	23.269	818.127	629.066
379.000	23.410	817.907	629.340
380.015	23.371	817.378	628.740
381.029	23.444	816.703	628.422
382.044	23.310	816.218	627.519
383.059	23.412	815.488	627.265
384.073	23.381	814.800	626.568
385.088	23.388	814.265	626.129
386.102	23.081	813.296	624.244
387.117	22.992	812.319	623.125
388.132	22.749	811.917	621.904
389.146	22.621	811.954	621.427
390.161	22.889	811.167	621.714
391.175	22.969	811.174	621.947
392.190	23.310	811.082	623.020
393.205	23.247	810.398	622.217
394.219	23.034	809.714	620.890
395.234	22.881	808.822	619.612
396.248	22.748	808.551	618.883
397.263	22.692	807.631	617.928
398.278	22.635	807.480	617.559
399.292	22.547	806.895	616.748
400.307	22.493	806.603	616.282
401.321	22.384	806.399	615.693
402.336	22.365	805.817	615.127
403.350	22.618	805.630	615.812
404.365	22.735	805.463	616.038
405.380	23.023	805.136	616.738
406.394	23.299	804.805	617.393
407.409	23.501	804.643	617.918
408.423	23.519	804.235	617.614
409.438	23.733	803.547	617.774
410.453	24.007	802.690	618.012
411.467	23.782	802.544	617.065
412.482	23.696	802.225	616.465
413.496	23.872	801.917	616.786
414.511	23.910	801.437	616.494
415.526	23.901	801.405	616.383
416.540	23.662	800.800	615.035
417.555	23.616	799.984	614.196
418.569	23.572	799.893	613.918
419.584	23.595	799.326	613.508
420.599	23.595	799.010	613.212
421.613	163.343	1371.010	1797.093
422.628	141.851	1454.345	1797.173
