DTS Sentinel unit serial number:	SN413079Multiplexer serial number:	ORYXHardware model number:	OX4-SRSoftware version number:	ORYX F/W v4.00 Oryx Data Collector v3.7.2.0data status	okinstallation	princeton_trtdifferential loss correction	single-endedforward channel	channel 3reverse channel	N/Adate	2019/09/17time	05:24:34forward acquisition time	60.00reverse acquisition time	0.00gamma	496.2192k internal	0.2325k external	0.2325temperature offset calibration	0.9941default loss term (dB/km)	0.3790temperature slope calibration	1.0000multiplexer offset coefficient	1.0000multiplexer slope coefficient	1.0000fibre end	0.00T internal ref (°C)	29.31T ext. ref 1 (°C)	0.15T ext. ref 2 (°C)	23.48length (m)	temperature (°C)	Stokes	anti-Stokes-747.200	419.257	-0.019	0.041
-746.185	-200.000	-0.030	0.200
-745.171	-113.234	0.120	-0.024
-744.156	16.934	-0.366	0.293
-743.142	-85.971	-0.099	0.031
-742.127	-113.323	-0.127	-0.025
-741.112	33.427	-0.192	-0.169
-740.098	-135.519	-0.194	-0.023
-739.083	242.208	0.137	-0.230
-738.069	229.936	-0.092	0.151
-737.054	-62.700	-0.322	0.135
-736.039	-118.374	-0.278	0.050
-735.025	66.913	0.058	0.059
-734.010	-53.551	-0.064	0.029
-732.996	241.911	0.073	-0.124
-731.981	-123.703	-0.416	-0.067
-730.966	-149.316	0.184	-0.015
-729.952	236.493	-0.132	0.220
-728.937	59.912	0.142	-0.142
-727.923	-121.322	-0.095	-0.016
-726.908	800.000	0.046	0.193
-725.894	800.000	-0.082	0.358
-724.879	238.793	-0.195	-0.326
-723.864	-52.780	-0.154	-0.072
-722.850	-50.415	-0.055	-0.026
-721.835	-85.797	-0.366	-0.114
-720.821	268.257	-0.149	0.263
-719.806	800.000	0.067	-0.248
-718.791	-35.564	0.305	0.167
-717.777	60.161	-0.256	-0.255
-716.762	-147.274	-0.181	-0.016
-715.748	-200.000	-0.007	0.379
-714.733	-200.000	0.010	0.142
-713.718	-101.382	0.188	-0.046
-712.704	115.333	0.106	0.131
-711.689	-45.792	0.426	0.212
-710.675	137.272	-0.152	0.201
-709.660	73.954	-0.364	-0.385
-708.645	-200.000	-0.061	-0.418
-707.631	-200.000	-0.001	-0.104
-706.616	800.000	0.162	0.547
-705.602	-85.042	-0.378	0.119
-704.587	800.000	-0.192	0.572
-703.572	577.104	-0.073	-0.181
-702.558	60.024	-0.055	-0.054
-701.543	-200.000	0.069	0.307
-700.529	800.000	0.032	0.112
-699.514	56.316	-0.089	-0.087
-698.499	265.003	-0.266	-0.466
-697.485	-93.076	0.350	-0.098
-696.470	-200.000	-0.036	-0.414
-695.456	800.000	-0.128	-0.377
-694.441	-96.377	0.217	-0.058
-693.426	77.612	0.104	-0.111
-692.412	6.836	0.231	-0.173
-691.397	654.676	-0.107	0.276
-690.383	337.883	-0.151	-0.296
-689.368	-73.853	0.244	-0.089
-688.354	-200.000	0.006	-0.207
-687.339	13.353	0.254	0.198
-686.324	156.539	0.012	-0.017
-685.310	-200.000	0.007	-0.131
-684.295	-59.613	0.044	0.019
-683.281	127.158	0.173	-0.221
-682.266	-47.594	0.158	-0.077
-681.251	368.065	0.155	-0.315
-680.237	-200.000	0.026	0.141
-679.222	160.555	0.010	0.014
-678.208	-200.000	0.026	0.134
-677.193	800.000	-0.101	-0.384
-676.178	-200.000	-0.002	0.118
-675.164	800.000	-0.055	0.168
-674.149	-200.000	0.045	0.319
-673.135	-200.000	0.028	0.471
-672.120	-189.353	-0.135	-0.002
-671.105	72.134	-0.138	0.145
-670.091	52.934	-0.058	-0.056
-669.076	-5.145	0.192	-0.133
-668.062	-200.000	-0.050	-0.485
-667.047	109.708	-0.147	0.177
-666.032	173.594	0.092	0.134
-665.018	49.598	0.164	-0.156
-664.003	-88.301	-0.315	-0.095
-662.989	-52.579	0.159	0.074
-661.974	-85.341	-0.147	0.046
-660.959	-200.000	0.024	0.128
-659.945	-137.635	0.232	-0.026
-658.930	-200.000	0.046	-0.224
-657.916	56.552	-0.166	0.162
-656.901	-112.769	-0.185	0.037
-655.886	-173.513	0.094	0.003
-654.872	-0.369	-0.377	-0.269
-653.857	800.000	-0.117	0.366
-652.843	800.000	0.091	-0.372
-651.828	-71.759	-0.350	0.131
-650.814	20.263	0.251	0.204
-649.799	175.808	-0.125	-0.183
-648.784	-200.000	-0.064	-0.453
-647.770	-6.986	0.139	-0.095
-646.755	-149.134	0.191	-0.015
-645.741	-5.466	-0.126	-0.087
-644.726	131.884	0.046	-0.059
-643.711	11.614	0.211	0.163
-642.697	699.159	0.032	-0.086
-641.682	0.621	-0.277	-0.199
-640.668	-0.536	0.103	-0.073
-639.653	58.290	0.095	0.093
-638.638	-200.000	0.057	0.310
-637.624	7.638	-0.209	-0.157
-636.609	-200.000	0.011	0.114
-635.595	-45.047	-0.135	0.068
-634.580	-117.818	-0.093	-0.017
-633.565	45.793	0.231	0.214
-632.551	-200.000	0.037	-0.194
-631.536	345.525	0.176	0.348
-630.522	210.765	-0.007	0.011
-629.507	-200.000	0.053	-0.577
-628.492	84.557	0.184	0.203
-627.478	-67.218	0.250	-0.099
-626.463	-118.269	-0.072	-0.013
-625.449	92.048	0.172	0.194
-624.434	-60.832	-0.209	-0.089
-623.419	44.930	0.051	-0.047
-622.405	-36.363	-0.199	-0.108
-621.390	-67.715	-0.197	-0.077
-620.376	217.890	-0.066	0.106
-619.361	-105.680	0.210	-0.048
-618.346	38.447	0.356	0.319
-617.332	-200.000	0.003	0.054
-616.317	224.602	0.312	0.507
-615.303	133.350	0.075	-0.098
-614.288	-77.714	-0.401	0.139
-613.273	-49.095	-0.124	-0.059
-612.259	300.132	0.242	-0.448
-611.244	-76.539	0.115	-0.041
-610.230	227.270	0.091	-0.149
-609.215	-80.821	0.156	-0.052
-608.201	8.913	-0.207	-0.157
-607.186	200.088	-0.166	-0.256
-606.171	247.743	-0.186	-0.316
-605.157	90.682	0.224	-0.252
-604.142	37.196	0.163	-0.145
-603.128	733.054	0.044	-0.119
-602.113	-200.000	-0.007	-0.159
-601.098	-18.010	0.120	-0.075
-600.084	-8.421	0.235	-0.158
-599.069	-138.807	-0.166	-0.018
-598.055	-26.876	0.288	-0.169
-597.040	118.106	0.170	-0.210
-596.025	-200.000	0.005	0.159
-595.011	182.099	-0.063	-0.093
-593.996	65.185	-0.130	-0.132
-592.982	-117.921	0.253	-0.045
-591.967	68.585	-0.017	0.017
-590.952	81.838	-0.224	-0.244
-589.938	-200.000	0.045	-0.232
-588.923	-67.406	-0.365	0.144
-587.909	-25.604	-0.149	-0.088
-586.894	800.000	0.006	-0.018
-585.879	10.063	-0.326	-0.248
-584.865	-16.562	0.146	-0.093
-583.850	-73.318	-0.121	0.045
-582.836	138.308	0.160	-0.211
-581.821	-77.102	-0.068	-0.024
-580.806	800.000	-0.079	-0.218
-579.792	12.775	0.052	-0.040
-578.777	-200.000	-0.018	0.134
-577.763	-80.729	0.176	-0.059
-576.748	182.798	0.167	0.247
-575.733	-39.156	-0.134	0.071
-574.719	-119.982	0.282	0.049
-573.704	24.346	-0.322	0.267
-572.690	96.489	-0.208	-0.238
-571.675	800.000	0.012	0.048
-570.661	106.182	0.248	0.295
-569.646	-29.544	0.197	-0.113
-568.631	-62.647	0.316	0.131
-567.617	-70.395	0.336	0.128
-566.602	800.000	-0.078	-0.306
-565.588	-155.353	0.409	-0.027
-564.573	-200.000	-0.011	-0.140
-563.558	279.169	0.141	-0.253
-562.544	7.442	-0.123	0.092
-561.529	800.000	-0.021	0.086
-560.515	-154.895	-0.088	0.006
-559.500	-188.742	-0.127	-0.002
-558.485	281.766	0.126	0.226
-557.471	85.882	-0.149	0.164
-556.456	-162.729	0.117	-0.006
-555.442	46.963	-0.166	-0.154
-554.427	-106.924	-0.143	0.032
-553.412	208.596	-0.259	-0.406
-552.398	167.112	0.051	0.072
-551.383	87.095	-0.046	-0.051
-550.369	-200.000	-0.003	0.034
-549.354	352.364	0.160	0.317
-548.339	-71.575	0.195	0.073
-547.325	800.000	-0.087	0.373
-546.310	-119.722	-0.136	0.023
-545.296	-200.000	0.018	0.290
-544.281	-14.908	0.084	-0.054
-543.266	-200.000	0.010	-0.128
-542.252	126.135	0.195	0.247
-541.237	131.022	-0.042	0.054
-540.223	-19.519	0.153	-0.095
-539.208	-66.782	-0.122	0.048
-538.193	49.890	0.211	-0.199
-537.179	800.000	0.085	-0.241
-536.164	800.000	-0.009	-0.029
-535.150	17.636	-0.174	0.138
-534.135	-200.000	0.002	0.046
-533.121	-76.601	-0.151	-0.053
-532.106	107.118	-0.131	0.155
-531.091	71.623	-0.181	0.188
-530.077	18.837	0.155	-0.124
-529.062	-23.031	-0.169	-0.102
-528.048	-129.611	0.119	-0.016
-527.033	78.893	0.039	-0.042
-526.018	-160.657	0.331	-0.018
-525.004	16.244	-0.295	0.232
-523.989	540.532	-0.069	-0.164
-522.975	-149.374	0.122	0.010
-521.960	-131.986	-0.124	-0.016
-520.945	-24.715	-0.188	0.112
-519.931	318.058	-0.139	-0.264
-518.916	-80.404	-0.114	-0.038
-517.902	-65.642	0.389	-0.156
-516.887	-200.000	-0.017	0.115
-515.872	249.498	-0.145	0.246
-514.858	305.621	0.146	0.271
-513.843	-200.000	0.024	-0.126
-512.829	-100.104	-0.159	-0.040
-511.814	-37.451	0.145	0.077
-510.799	-37.904	-0.096	-0.051
-509.785	141.584	-0.007	-0.010
-508.770	-7.360	-0.155	-0.105
-507.756	50.522	0.212	-0.201
-506.741	33.786	-0.206	0.179
-505.726	4.673	0.135	-0.099
-504.712	-40.239	-0.112	0.058
-503.697	114.873	-0.150	-0.183
-502.683	-116.044	-0.133	-0.025
-501.668	765.310	-0.063	0.172
-500.653	-114.853	-0.266	-0.051
-499.639	-44.802	-0.050	0.025
-498.624	-9.965	0.369	0.245
-497.610	800.000	0.043	0.127
-496.595	-200.000	-0.004	-0.212
-495.581	8.274	-0.315	-0.237
-494.566	800.000	-0.050	-0.218
-493.551	89.218	-0.216	-0.241
-492.537	-90.657	0.212	0.061
-491.522	-76.285	0.187	-0.066
-490.508	578.837	-0.097	-0.238
-489.493	-164.580	-0.289	0.013
-488.478	800.000	-0.109	0.364
-487.464	-8.930	-0.320	0.214
-486.449	-200.000	0.078	0.361
-485.435	-61.960	-0.150	-0.063
-484.420	625.291	0.220	0.555
-483.405	-149.150	-0.209	-0.017
-482.391	41.885	0.248	0.225
-481.376	123.782	0.141	0.176
-480.362	-136.653	0.132	0.015
-479.347	163.201	0.095	0.133
-478.332	239.245	0.071	-0.119
-477.318	62.051	-0.250	0.249
-476.303	447.125	0.117	0.258
-475.289	-25.860	0.082	0.048
-474.274	-200.000	0.012	-0.109
-473.259	-170.857	0.112	-0.004
-472.245	-11.388	-0.239	0.157
-471.230	800.000	0.094	0.277
-470.216	-200.000	-0.021	0.123
-469.201	-176.661	-0.175	0.004
-468.186	601.631	0.039	0.096
-467.172	-108.489	-0.325	-0.070
-466.157	800.000	-0.070	-0.246
-465.143	514.404	0.031	-0.073
-464.128	-200.000	-0.002	0.688
-463.113	-39.011	-0.320	0.168
-462.099	800.000	0.049	0.209
-461.084	-1.120	-0.016	0.011
-460.070	-122.485	0.351	-0.057
-459.055	433.043	-0.066	-0.143
-458.040	-33.949	-0.367	-0.202
-457.026	-200.000	-0.093	-0.478
-456.011	-65.364	0.277	0.111
-454.997	-164.926	-0.243	0.011
-453.982	721.547	-0.052	-0.139
-452.968	-100.029	0.234	0.058
-451.953	33.801	0.103	-0.089
-450.938	-14.745	-0.517	0.331
-449.924	33.102	-0.288	-0.249
-448.909	648.870	0.052	0.134
-447.895	-200.000	-0.035	-0.223
-446.880	-200.000	0.033	-0.226
-445.865	-37.277	-0.212	-0.113
-444.851	-38.631	0.186	0.098
-443.836	800.000	0.049	-0.202
-442.822	157.843	0.142	-0.196
-441.807	800.000	-0.065	0.196
-440.792	-199.960	0.096	0.000
-439.778	-58.662	-0.069	0.030
-438.763	-31.362	-0.337	-0.189
-437.749	145.539	0.091	0.121
-436.734	171.124	-0.187	0.267
-435.719	-44.701	0.222	-0.111
-434.705	-16.603	0.203	0.128
-433.690	-81.709	-0.250	0.082
-432.676	54.005	0.287	0.275
-431.661	-200.000	0.006	-0.247
-430.646	12.867	-0.043	-0.033
-429.632	800.000	0.082	0.284
-428.617	800.000	0.041	-0.155
-427.603	-97.773	0.317	-0.082
-426.588	-30.699	0.175	-0.099
-425.573	343.852	0.062	0.120
-424.559	-70.204	0.391	-0.148
-423.544	-53.426	0.139	0.064
-422.530	-48.723	-0.093	-0.044
-421.515	-132.220	0.221	0.029
-420.500	103.299	-0.169	0.197
-419.486	41.119	0.179	0.161
-418.471	-200.000	-0.019	0.139
-417.457	75.033	-0.156	-0.164
-416.442	-16.550	-0.229	0.144
-415.428	105.228	0.161	-0.189
-414.413	-200.000	-0.046	-0.573
-413.398	-18.074	0.246	-0.154
-412.384	489.828	-0.138	-0.315
-411.369	136.523	-0.132	0.171
-410.355	97.531	-0.075	0.086
-409.340	299.234	-0.077	0.141
-408.325	-200.000	0.047	0.534
-407.311	108.154	-0.087	-0.104
-406.296	-200.000	0.012	-0.295
-405.282	-200.000	0.000	-0.045
-404.267	64.384	-0.257	-0.258
-403.252	-116.730	0.215	-0.039
-402.238	12.971	0.162	0.125
-401.223	74.367	-0.508	-0.531
-400.209	91.351	0.183	0.204
-399.194	-200.000	0.006	-0.117
-398.179	800.000	-0.085	-0.295
-397.165	-200.000	-0.039	0.325
-396.150	94.342	0.195	-0.220
-395.136	800.000	0.061	-0.246
-394.121	102.995	0.217	0.253
-393.106	-200.000	0.010	-0.118
-392.092	133.550	-0.108	-0.139
-391.077	800.000	0.034	-0.107
-390.063	-30.489	-0.399	0.225
-389.048	346.758	0.104	-0.204
-388.033	21.688	0.089	-0.072
-387.019	-89.779	0.424	-0.124
-386.004	800.000	0.040	-0.160
-384.990	-112.362	-0.271	0.054
-383.975	-130.170	-0.492	0.067
-382.960	160.440	-0.081	-0.113
-381.946	800.000	-0.028	-0.091
-380.931	-24.874	-0.025	-0.015
-379.917	-200.000	0.014	-0.119
-378.902	-200.000	-0.027	-0.227
-377.888	474.692	0.103	0.231
-376.873	-145.429	-0.108	0.010
-375.858	-26.251	0.158	0.092
-374.844	266.625	0.135	-0.235
-373.829	-186.761	-0.066	0.001
-372.815	-200.000	0.048	-0.217
-371.800	-200.000	-0.087	0.405
-370.785	-43.509	0.114	-0.057
-369.771	-56.004	-0.152	0.067
-368.756	-142.477	0.307	0.030
-367.742	327.069	0.169	0.322
-366.727	-139.012	0.137	0.015
-365.712	800.000	-0.090	0.293
-364.698	24.686	0.391	0.322
-363.683	175.965	-0.019	0.028
-362.669	-86.257	0.101	0.031
-361.654	800.000	0.016	-0.064
-360.639	800.000	0.062	-0.254
-359.625	-56.338	0.131	-0.058
-358.610	800.000	0.056	0.194
-357.596	-200.000	0.017	0.177
-356.581	-123.944	-0.032	-0.005
-355.566	-200.000	0.003	-0.128
-354.552	800.000	-0.028	-0.101
-353.537	-84.916	-0.127	0.039
-352.523	-25.093	-0.184	-0.108
-351.508	50.862	-0.153	0.144
-350.493	-200.000	-0.021	0.107
-349.479	800.000	0.013	0.039
-348.464	103.744	-0.278	0.325
-347.450	-124.256	0.081	-0.013
-346.435	800.000	0.032	-0.094
-345.420	-70.910	0.316	0.118
-344.406	603.974	0.105	-0.258
-343.391	-6.458	-0.210	0.143
-342.377	195.477	0.110	0.167
-341.362	-200.000	-0.015	0.142
-340.348	-106.670	0.075	-0.017
-339.333	-89.391	-0.374	0.109
-338.318	442.281	-0.050	-0.109
-337.304	3.112	-0.096	-0.069
-336.289	800.000	0.101	-0.317
-335.275	-52.799	-0.116	-0.053
-334.260	248.658	-0.121	0.203
-333.245	-90.629	-0.027	-0.008
-332.231	-140.405	0.044	-0.005
-331.216	800.000	0.039	-0.113
-330.202	-89.832	0.334	0.097
-329.187	8.880	-0.335	-0.251
-328.172	-58.632	0.229	-0.099
-327.158	-146.175	0.356	-0.031
-326.143	-103.980	-0.147	0.034
-325.129	-119.236	0.241	0.042
-324.114	277.312	0.134	0.236
-323.099	800.000	0.049	0.186
-322.085	-7.380	0.086	0.058
-321.070	-135.724	-0.206	0.024
-320.056	800.000	-0.139	-0.455
-319.041	-134.431	0.223	-0.027
-318.026	-85.704	-0.074	0.023
-317.012	800.000	0.061	-0.258
-315.997	-81.542	0.388	0.127
-314.983	-200.000	0.017	-0.077
-313.968	-98.306	-0.131	-0.033
-312.953	682.569	0.138	0.357
-311.939	-112.118	0.029	0.006
-310.924	-200.000	-0.003	-0.180
-309.910	396.290	0.076	0.158
-308.895	-179.067	0.088	0.002
-307.880	-133.769	-0.316	-0.039
-306.866	50.079	0.158	-0.148
-305.851	195.151	0.028	0.043
-304.837	471.336	0.087	-0.195
-303.822	800.000	0.062	0.242
-302.807	-143.974	0.204	0.019
-301.793	-200.000	-0.030	-0.146
-300.778	78.192	0.092	-0.097
-299.764	209.022	-0.179	0.278
-298.749	-200.000	-0.066	0.304
-297.735	290.217	0.107	0.192
-296.720	-200.000	-0.004	-0.086
-295.705	-33.350	-0.110	-0.060
-294.691	-200.000	-0.032	-0.250
-293.676	466.676	-0.132	0.293
-292.662	80.536	-0.228	0.244
-291.647	-114.724	-0.422	-0.080
-290.632	-200.000	-0.019	0.501
-289.618	763.006	-0.094	0.254
-288.603	800.000	-0.105	-0.446
-287.589	30.983	0.094	-0.080
-286.574	266.233	-0.200	-0.345
-285.559	-82.341	-0.359	-0.116
-284.545	-124.892	-0.164	-0.025
-283.530	-127.352	-0.061	-0.009
-282.516	-200.000	0.071	0.309
-281.501	145.433	-0.110	-0.146
-280.486	227.152	-0.163	0.263
-279.472	-15.318	-0.086	-0.055
-278.457	509.307	0.106	-0.244
-277.443	166.419	0.077	0.108
-276.428	-138.360	-0.247	-0.027
-275.413	-144.050	0.412	-0.038
-274.399	800.000	0.087	-0.291
-273.384	-94.371	-0.233	-0.063
-272.370	-159.987	-0.280	0.015
-271.355	161.776	0.168	-0.233
-270.340	110.162	-0.071	0.085
-269.326	-28.468	0.049	-0.028
-268.311	-115.614	-0.179	0.033
-267.297	-50.653	0.168	-0.078
-266.282	-200.000	-0.014	-0.341
-265.267	-200.000	-0.049	-0.251
-264.253	760.396	0.135	-0.364
-263.238	123.206	-0.075	-0.094
-262.224	-16.586	-0.076	-0.048
-261.209	164.139	0.136	-0.189
-260.195	164.517	0.134	0.187
-259.180	-94.964	-0.186	0.050
-258.165	-133.240	-0.184	0.023
-257.151	-169.622	-0.361	0.013
-256.136	-44.641	-0.420	0.208
-255.122	-8.012	-0.234	0.156
-254.107	-70.301	0.285	0.107
-253.092	49.939	-0.111	-0.104
-252.078	-47.069	-0.319	-0.154
-251.063	390.879	-0.142	0.293
-250.049	800.000	0.081	-0.318
-249.034	-48.749	-0.084	-0.040
-248.019	69.491	-0.076	0.078
-247.005	-200.000	0.008	0.294
-245.990	528.618	0.121	0.283
-244.976	-8.751	0.070	-0.046
-243.961	162.321	-0.210	-0.291
-242.946	2.988	0.001	0.001
-241.932	-86.840	0.202	0.061
-240.917	-84.372	0.071	-0.022
-239.903	-171.716	-0.168	-0.005
-238.888	685.858	-0.070	0.181
-237.873	-200.000	0.002	-0.272
-236.859	-200.000	0.004	-0.466
-235.844	-156.660	0.409	-0.025
-234.830	-107.013	0.411	-0.090
-233.815	-10.389	-0.128	0.084
-232.800	-97.150	0.180	-0.047
-231.786	-129.283	0.255	-0.035
-230.771	118.039	-0.257	-0.313
-229.757	146.577	0.143	0.190
-228.742	800.000	-0.040	-0.126
-227.727	800.000	0.044	-0.145
-226.713	800.000	0.127	0.399
-225.698	800.000	-0.132	0.515
-224.684	-43.189	0.221	-0.111
-223.669	38.539	0.107	0.094
-222.655	800.000	0.110	0.455
-221.640	358.850	0.063	-0.125
-220.625	18.753	0.062	0.049
-219.611	161.814	-0.079	-0.110
-218.596	-47.454	-0.074	0.035
-217.582	526.555	0.007	-0.016
-216.567	-111.917	0.139	-0.028
-215.552	47.722	-0.255	0.235
-214.538	800.000	0.099	-0.305
-213.523	224.457	-0.157	0.250
-212.509	-104.524	0.388	0.089
-211.494	-36.854	0.042	-0.022
-210.479	-32.708	0.326	-0.179
-209.465	-120.161	0.289	-0.049
-208.450	-200.000	0.000	-0.249
-207.436	-106.085	-0.110	0.024
-206.421	96.955	-0.196	-0.222
-205.406	-114.326	0.260	-0.049
-204.392	-24.012	-0.254	0.150
-203.377	-142.205	0.197	0.019
-202.363	-66.659	-0.324	0.127
-201.348	-200.000	0.017	-0.220
-200.333	6.699	-0.238	0.175
-199.319	-63.059	0.341	0.139
-198.304	17.844	0.159	0.125
-197.290	170.030	-0.118	0.166
-196.275	-159.595	-0.370	-0.020
-195.260	434.581	0.107	-0.229
-194.246	724.871	-0.136	0.358
-193.231	800.000	0.085	0.270
-192.217	97.683	-0.108	0.122
-191.202	-37.814	0.143	0.075
-190.187	-200.000	0.038	0.304
-189.173	92.885	0.146	0.163
-188.158	-77.647	0.336	-0.115
-187.144	-200.000	0.012	-0.212
-186.129	-200.000	0.039	-0.453
-185.114	-200.000	0.028	-0.155
-184.100	-99.571	0.359	0.089
-183.085	-98.174	-0.244	-0.062
-182.071	-200.000	-0.002	0.269
-181.056	800.000	0.059	0.203
-180.042	593.350	0.145	0.353
-179.027	-92.984	0.130	-0.036
-178.012	-200.000	-0.035	0.186
-176.998	33.388	-0.240	0.205
-175.983	-200.000	-0.015	0.231
-174.969	-43.797	0.100	0.050
-173.954	11.998	-0.229	0.174
-172.939	-200.000	0.051	-0.270
-171.925	-1.512	0.432	-0.301
-170.910	-200.000	0.027	0.210
-169.896	184.507	-0.044	-0.064
-168.881	433.859	-0.154	0.330
-167.866	-137.761	-0.148	0.016
-166.852	169.004	0.176	0.248
-165.837	64.936	-0.066	0.065
-164.823	-200.000	-0.002	0.206
-163.808	-167.971	-0.298	0.011
-162.793	-200.000	0.044	0.345
-161.779	-79.231	-0.190	-0.064
-160.764	723.110	-0.064	0.167
-159.750	150.003	0.057	0.077
-158.735	-167.040	-0.102	-0.004
-157.720	-68.022	-0.107	-0.041
-156.706	127.620	-0.080	-0.100
-155.691	-200.000	0.019	-0.166
-154.677	-45.356	-0.206	0.101
-153.662	12.930	-0.203	-0.155
-152.647	200.024	-0.034	-0.051
-151.633	-90.623	0.234	-0.067
-150.618	-6.996	-0.025	-0.017
-149.604	-200.000	-0.021	-0.117
-148.589	200.174	-0.085	0.128
-147.574	19.914	0.144	-0.114
-146.560	166.604	0.169	0.236
-145.545	187.624	0.146	0.215
-144.531	-21.922	-0.349	0.209
-143.516	-35.520	0.159	-0.085
-142.502	800.000	0.080	0.279
-141.487	-128.801	0.055	0.008
-140.472	-200.000	-0.020	-0.275
-139.458	62.333	0.168	-0.165
-138.443	-50.429	0.173	0.081
-137.429	351.025	-0.133	-0.259
-136.414	800.000	0.036	-0.112
-135.399	-93.634	-0.051	0.014
-134.385	800.000	-0.039	0.111
-133.370	234.411	-0.154	0.250
-132.356	-160.276	-0.089	-0.005
-131.341	-177.924	-0.255	0.006
-130.326	55.814	-0.179	0.171
-129.312	105.897	-0.052	-0.061
-128.297	24.194	0.301	0.245
-127.283	379.906	0.156	0.315
-126.268	24.534	-0.198	-0.162
-125.253	-200.000	0.001	-0.221
-124.239	242.751	0.219	-0.361
-123.224	410.643	-0.139	-0.291
-122.210	110.542	0.144	-0.170
-121.195	139.321	-0.257	0.333
-120.180	57.151	-0.377	0.362
-119.166	-123.660	-0.110	-0.017
-118.151	480.247	0.118	-0.264
-117.137	-8.340	0.165	0.109
-116.122	739.633	0.099	-0.262
-115.107	694.462	0.126	-0.326
-114.093	29.775	-0.025	0.021
-113.078	-135.663	-0.267	0.031
-112.064	403.617	-0.185	-0.383
-111.049	-186.305	0.401	-0.006
-110.034	599.236	0.054	-0.132
-109.020	31.036	0.360	-0.304
-108.005	799.532	0.058	-0.158
-106.991	-200.000	-0.023	0.296
-105.976	759.823	0.118	0.315
-104.962	-61.956	-0.353	-0.145
-103.947	-30.913	0.200	0.111
-102.932	110.283	-0.051	0.060
-101.918	-56.837	0.263	0.115
-100.903	570.767	0.126	0.301
-99.889	-200.000	0.016	-0.108
-98.874	-200.000	0.067	-0.371
-97.859	558.610	-0.105	-0.248
-96.845	194.126	-0.124	0.185
-95.830	27.149	0.065	0.054
-94.816	-101.562	0.152	-0.036
-93.801	-200.000	-0.056	0.284
-92.786	150.748	0.245	0.328
-91.772	-1.074	0.282	0.196
-90.757	-200.000	0.032	0.463
-89.743	295.398	-0.109	0.196
-88.728	-200.000	0.041	0.224
-87.713	255.632	0.175	0.295
-86.699	-155.114	-0.275	0.018
-85.684	-99.167	-0.075	0.019
-84.670	161.193	-0.071	0.098
-83.655	7.375	0.286	0.210
-82.640	800.000	0.078	-0.216
-81.626	800.000	-0.067	0.286
-80.611	-200.000	0.003	0.160
-79.597	9.652	-0.287	0.214
-78.582	-62.836	0.418	0.170
-77.567	800.000	0.082	0.263
-76.553	-91.987	0.215	0.060
-75.538	328.683	-0.071	-0.133
-74.524	-164.760	0.183	0.008
-73.509	28.243	-0.100	0.083
-72.494	45.065	-0.058	-0.052
-71.480	274.820	0.179	0.312
-70.465	-79.009	0.191	0.064
-69.451	-30.258	-0.281	-0.157
-68.436	425.046	-0.044	0.093
-67.422	-200.000	-0.017	0.083
-66.407	115.991	0.171	0.206
-65.392	-200.000	-0.056	-0.269
-64.378	-66.647	0.461	-0.179
-63.363	-66.147	0.133	-0.052
-62.349	223.570	0.137	0.217
-61.334	130.494	-1.049	-1.320
-60.319	45.725	0.490	0.445
-59.305	-200.000	-0.175	-1.004
-58.290	458.762	0.484	1.057
-57.276	523.230	0.678	1.564
-56.261	-200.000	110.074	607.074
-55.246	450.387	1497.535	3246.405
-54.232	145.153	2678.575	3520.245
-53.217	105.887	2182.240	2536.203
-52.203	39.696	1713.137	1509.254
-51.188	32.345	1529.463	1296.926
-50.173	30.076	1503.357	1259.337
-49.159	51.696	1559.971	1457.073
-48.144	51.591	1575.970	1471.230
-47.130	32.636	1531.924	1300.819
-46.115	29.548	1516.943	1266.899
-45.100	29.387	1513.423	1262.806
-44.086	29.398	1511.093	1260.886
-43.071	29.306	1509.320	1258.729
-42.057	29.262	1508.019	1257.293
-41.042	29.364	1506.327	1256.528
-40.027	29.276	1504.802	1254.604
-39.013	29.313	1503.177	1253.457
-37.998	29.204	1501.949	1251.640
-36.984	29.172	1501.208	1250.755
-35.969	29.246	1499.946	1250.157
-34.954	29.287	1498.529	1249.203
-33.940	29.253	1496.959	1247.615
-32.925	29.307	1495.630	1246.826
-31.911	29.301	1494.394	1245.699
-30.896	29.428	1492.302	1244.768
-29.881	29.355	1491.822	1243.826
-28.867	29.425	1490.468	1243.118
-27.852	29.408	1489.150	1241.852
-26.838	29.357	1487.712	1240.263
-25.823	29.345	1486.446	1239.078
-24.809	29.305	1484.779	1237.370
-23.794	29.315	1482.930	1235.849
-22.779	29.222	1482.699	1234.981
-21.765	29.342	1481.144	1234.438
-20.750	29.396	1479.434	1233.328
-19.736	29.339	1478.929	1232.481
-18.721	29.397	1477.489	1231.617
-17.706	29.324	1476.280	1230.074
-16.692	29.387	1474.818	1229.226
-15.677	29.370	1473.842	1228.252
-14.663	29.340	1472.994	1227.292
-13.648	29.344	1471.926	1226.384
-12.633	29.340	1471.089	1225.608
-11.619	29.329	1470.651	1225.122
-10.604	29.373	1469.499	1224.409
-9.590	29.286	1468.815	1223.212
-8.575	29.195	1468.684	1222.451
-7.560	29.274	1467.085	1221.591
-6.546	29.297	1466.427	1221.148
-5.531	29.275	1464.931	1219.714
-4.517	29.207	1464.422	1218.787
-3.502	29.221	1463.303	1217.901
-2.487	29.272	1462.460	1217.487
-1.473	29.290	1461.177	1216.490
-0.458	29.251	1459.913	1215.135
0.556	27.358	1450.295	1203.617
1.571	24.288	1424.310	1161.972
2.586	20.708	1362.157	1088.817
3.600	18.820	1278.849	1011.031
4.615	17.709	1234.194	969.329
5.629	15.425	1178.438	913.047
6.644	7.786	1093.213	808.251
7.659	1.314	1053.030	746.713
8.673	0.373	1047.530	738.143
9.688	0.131	1044.412	734.700
10.702	0.084	1042.954	733.382
11.717	0.002	1040.905	731.477
12.731	2.609	1043.192	745.714
13.746	10.616	1053.928	792.562
14.761	16.615	1061.649	827.727
15.775	17.392	1061.602	831.415
16.790	16.528	1059.650	825.598
17.804	15.398	1057.338	818.215
18.819	14.510	1055.682	812.535
19.834	14.135	1054.426	809.671
20.848	13.841	1052.893	806.998
21.863	13.653	1051.933	805.276
22.877	13.392	1051.550	803.645
23.892	13.152	1050.495	801.602
24.907	12.987	1050.199	800.504
25.921	13.132	1049.280	800.435
26.936	13.182	1048.510	800.019
27.950	13.156	1048.162	799.557
28.965	13.178	1047.199	798.860
29.980	13.259	1046.652	798.763
30.994	13.287	1045.236	797.744
32.009	13.275	1044.757	797.251
33.023	13.443	1043.738	797.214
34.038	13.337	1042.892	795.987
35.053	13.392	1041.930	795.445
36.067	13.204	1041.166	793.889
37.082	13.298	1040.078	793.442
38.096	13.290	1039.511	792.898
39.111	13.293	1039.021	792.468
40.126	13.304	1037.726	791.467
41.140	13.352	1036.704	790.845
42.155	13.207	1035.827	789.411
43.169	13.235	1034.730	788.642
44.184	13.007	1034.130	787.026
45.199	13.158	1032.659	786.558
46.213	12.990	1032.052	785.225
47.228	13.063	1031.235	784.881
48.242	13.143	1029.950	784.211
49.257	13.218	1029.039	783.805
50.271	13.214	1027.858	782.817
51.286	13.104	1027.510	781.965
52.301	13.371	1026.222	782.177
53.315	13.269	1025.486	781.064
54.330	13.335	1024.360	780.450
55.344	13.215	1023.861	779.432
56.359	13.202	1022.589	778.335
57.374	13.173	1021.822	777.547
58.388	13.062	1021.301	776.561
59.403	13.072	1020.457	775.897
60.417	13.058	1019.695	775.184
61.432	13.088	1019.188	774.866
62.447	13.091	1018.360	774.183
63.461	12.979	1017.884	773.228
64.476	13.069	1016.524	772.547
65.490	12.951	1015.835	771.404
66.505	13.069	1014.794	771.095
67.520	13.040	1014.408	770.598
68.534	12.950	1013.687	769.567
69.549	13.137	1012.954	769.812
70.563	13.180	1011.737	769.021
71.578	13.104	1011.038	768.064
72.593	12.991	1010.088	766.752
73.607	12.948	1009.975	766.398
74.622	12.969	1008.225	765.100
75.636	12.982	1007.692	764.689
76.651	12.960	1006.784	763.830
77.666	12.994	1005.901	763.252
78.680	12.947	1005.443	762.618
79.695	12.997	1004.780	762.279
80.709	13.088	1004.117	762.125
81.724	13.070	1003.132	761.230
82.739	13.137	1002.339	760.869
83.753	13.141	1001.805	760.416
84.768	13.208	1000.711	759.826
85.782	13.172	1000.589	759.501
86.797	13.231	999.922	759.194
87.812	13.173	999.054	758.206
88.826	13.146	998.269	757.420
89.841	13.244	997.189	756.980
90.855	13.233	996.637	756.442
91.870	13.265	995.840	755.919
92.884	13.257	995.078	755.237
93.899	13.256	994.700	754.879
94.914	13.306	993.508	754.136
95.928	13.324	992.892	753.680
96.943	13.405	991.807	753.160
97.957	13.358	991.433	752.595
98.972	13.325	990.361	751.564
99.987	13.371	989.557	751.100
101.001	13.404	988.716	750.544
102.016	13.324	987.820	749.434
103.030	13.311	987.014	748.698
104.045	13.244	986.285	747.775
105.060	13.238	985.678	747.222
106.074	13.226	984.851	746.472
107.089	13.211	983.554	745.356
108.103	13.221	982.381	744.446
109.118	13.165	981.289	743.301
110.133	13.133	980.937	742.825
111.147	13.160	979.869	742.074
112.162	13.000	979.575	741.064
113.176	13.181	978.427	740.945
114.191	13.266	977.618	740.646
115.206	13.187	976.864	739.654
116.220	13.368	975.638	739.472
117.235	13.234	975.457	738.672
118.249	13.207	974.160	737.502
119.264	13.220	973.519	737.009
120.279	13.199	972.405	736.009
121.293	13.180	971.433	735.121
122.308	13.292	970.549	734.888
123.322	13.173	969.976	733.859
124.337	13.202	969.110	733.267
125.352	13.207	967.663	732.131
126.366	13.163	966.580	731.049
127.381	13.180	965.628	730.341
128.395	13.145	964.593	729.341
129.410	13.081	963.635	728.270
130.424	13.123	963.019	727.921
131.439	13.131	961.888	727.041
132.454	13.169	961.313	726.709
133.468	13.218	959.956	725.834
134.483	13.218	959.573	725.481
135.497	13.300	958.750	725.152
136.512	13.115	958.465	724.061
137.527	13.166	957.541	723.525
138.541	13.255	956.796	723.285
139.556	13.175	956.163	722.391
140.570	13.192	955.400	721.828
141.585	13.188	954.303	720.915
142.600	13.258	954.012	720.938
143.614	13.267	953.295	720.371
144.629	13.388	952.483	720.220
145.643	13.424	951.710	719.730
146.658	13.483	950.719	719.172
147.673	13.355	950.069	718.063
148.687	13.359	949.046	717.244
149.702	13.355	947.871	716.275
150.716	13.282	947.628	715.709
151.731	13.283	946.759	714.995
152.746	13.260	945.848	714.146
153.760	13.228	945.436	713.630
154.775	13.408	944.506	713.645
155.789	13.497	943.874	713.485
156.804	13.274	943.439	712.132
157.819	13.462	942.171	711.922
158.833	13.361	941.718	711.082
159.848	13.473	941.232	711.133
160.862	13.521	939.915	710.283
161.877	13.576	938.893	709.682
162.892	13.319	938.925	708.544
163.906	13.360	937.693	707.726
164.921	13.254	937.008	706.694
165.935	13.484	935.519	706.490
166.950	13.506	934.762	705.950
167.964	13.422	933.708	704.731
168.979	13.366	933.568	704.325
169.994	13.417	931.915	703.232
171.008	13.412	931.358	702.730
172.023	13.578	930.444	702.683
173.037	13.524	929.636	701.780
174.052	13.494	929.477	701.471
175.067	13.536	928.438	700.802
176.081	13.607	927.539	700.363
177.096	13.531	926.653	699.311
178.110	13.476	925.751	698.338
179.125	13.491	925.319	698.011
180.140	13.624	924.449	697.855
181.154	13.524	923.857	696.924
182.169	13.519	923.147	696.305
183.183	13.667	922.235	696.178
184.198	13.535	921.810	695.243
185.213	13.699	920.756	695.073
186.227	13.764	920.301	694.940
187.242	13.687	919.988	694.318
188.256	13.779	919.482	694.263
189.271	13.737	918.965	693.633
190.286	13.680	918.242	692.790
191.300	13.696	917.035	691.884
192.315	13.464	916.234	690.250
193.329	13.510	915.541	689.858
194.344	13.558	914.831	689.466
195.359	13.591	914.474	689.271
196.373	13.650	913.934	689.048
197.388	13.737	913.413	688.956
198.402	13.795	912.818	688.687
199.417	13.879	912.556	688.775
200.432	13.992	912.024	688.781
201.446	13.960	911.393	688.112
202.461	13.925	911.320	687.853
203.475	14.074	910.758	687.984
204.490	13.976	909.960	686.914
205.504	13.966	909.443	686.422
206.519	13.911	908.664	685.544
207.534	13.753	907.598	684.030
208.548	14.057	906.535	684.421
209.563	13.886	906.165	683.374
210.577	13.932	905.736	683.183
211.592	13.965	905.168	682.829
212.607	14.028	904.310	682.377
213.621	14.091	903.481	681.950
214.636	14.057	902.604	681.090
215.650	14.000	902.217	680.503
216.665	14.076	901.575	680.270
217.680	14.088	901.068	679.878
218.694	14.230	900.581	680.031
219.709	14.238	899.890	679.480
220.723	14.145	899.616	678.832
221.738	14.174	898.848	678.314
222.753	14.239	898.096	677.948
223.767	14.148	897.117	676.782
224.782	14.173	896.559	676.401
225.796	14.271	895.396	675.860
226.811	14.322	895.088	675.778
227.826	14.353	894.107	675.100
228.840	14.307	893.707	674.553
229.855	14.232	893.141	673.763
230.869	14.270	892.308	673.227
231.884	14.236	891.910	672.733
232.899	14.193	891.400	672.115
233.913	14.369	889.835	671.583
234.928	14.273	889.298	670.734
235.942	14.318	888.601	670.329
236.957	14.286	888.336	669.940
237.972	14.146	887.662	668.809
238.986	14.274	886.869	668.667
240.001	14.285	886.147	668.110
241.015	14.250	885.985	667.788
242.030	14.281	885.143	667.217
243.045	14.386	884.205	666.872
244.059	14.456	883.838	666.817
245.074	14.346	883.182	665.822
246.088	14.401	882.532	665.493
247.103	14.488	881.553	665.041
248.117	14.509	881.032	664.676
249.132	14.417	881.199	664.376
250.147	14.693	879.832	664.385
251.161	14.544	879.507	663.488
252.176	14.649	878.839	663.341
253.190	14.640	878.268	662.815
254.205	14.729	877.514	662.542
255.220	14.838	876.746	662.336
256.234	14.806	876.270	661.790
257.249	14.744	875.915	661.218
258.263	14.859	875.071	660.976
259.278	14.845	874.407	660.362
260.293	14.938	873.870	660.264
261.307	14.957	873.060	659.669
262.322	14.937	872.679	659.246
263.336	14.845	872.394	658.607
264.351	14.958	871.642	658.426
265.366	14.951	870.762	657.675
266.380	15.050	870.496	657.807
267.395	15.095	869.635	657.273
268.409	14.919	868.927	655.992
269.424	14.817	868.324	655.077
270.439	14.905	867.411	654.677
271.453	14.913	866.593	654.033
272.468	14.936	865.689	653.383
273.482	14.967	865.213	653.085
274.497	15.065	864.606	652.953
275.512	15.116	863.772	652.464
276.526	14.998	863.386	651.653
277.541	14.999	862.687	651.071
278.555	14.978	862.509	650.798
279.570	15.060	861.788	650.517
280.585	15.252	860.946	650.568
281.599	15.140	860.625	649.833
282.614	15.250	860.120	649.822
283.628	15.123	859.563	648.851
284.643	15.094	858.932	648.205
285.657	15.079	858.733	647.938
286.672	15.090	858.212	647.533
287.687	15.159	857.408	647.133
288.701	15.212	856.761	646.792
289.716	15.196	856.050	646.138
290.730	15.182	855.720	645.776
291.745	15.165	854.699	644.884
292.760	15.351	854.039	645.043
293.774	15.285	853.484	644.316
294.789	15.229	853.181	643.814
295.803	15.235	852.431	643.215
296.818	15.214	852.067	642.803
297.833	15.287	851.293	642.441
298.847	15.435	850.371	642.253
299.862	15.412	849.922	641.772
300.876	15.384	849.014	640.922
301.891	15.282	848.489	640.078
302.906	15.509	847.998	640.519
303.920	15.600	847.189	640.197
304.935	15.615	846.298	639.524
305.949	15.711	845.831	639.481
306.964	15.588	845.772	638.911
307.979	15.499	844.635	637.659
308.993	15.683	844.386	638.113
310.008	15.492	843.987	637.029
311.022	15.636	843.331	637.024
312.037	15.688	842.694	636.683
313.052	15.712	841.922	636.133
314.066	15.645	841.530	635.528
315.081	15.585	840.892	634.764
316.095	15.531	840.349	634.093
317.110	15.392	840.267	633.450
318.125	15.465	839.690	633.235
319.139	15.561	838.976	633.000
320.154	15.548	838.392	632.455
321.168	15.587	837.846	632.136
322.183	15.606	837.764	632.089
323.197	15.656	837.025	631.662
324.212	15.656	836.021	630.851
325.227	15.792	835.602	630.988
326.241	15.613	835.379	630.092
327.256	15.774	834.672	630.106
328.270	15.817	834.350	629.969
329.285	15.787	833.610	629.241
330.300	15.633	833.233	628.325
331.314	15.543	833.003	627.759
332.329	15.792	831.837	627.757
333.343	15.735	831.327	627.103
334.358	15.815	830.545	626.755
335.373	15.851	830.155	626.541
336.387	15.810	829.529	625.858
337.402	15.957	828.762	625.770
338.416	15.899	828.196	625.075
339.431	15.895	827.701	624.627
340.446	16.047	827.164	624.734
341.460	15.993	826.640	624.081
342.475	16.066	826.036	623.841
343.489	16.193	825.522	623.867
344.504	15.994	825.566	623.107
345.519	16.112	824.659	622.805
346.533	16.163	824.226	622.610
347.548	16.073	824.252	622.242
348.562	16.106	823.161	621.487
349.577	16.059	822.801	620.985
350.592	16.023	821.944	620.153
351.606	16.028	821.742	619.965
352.621	16.175	821.421	620.206
353.635	16.091	820.733	619.325
354.650	16.135	820.414	619.191
355.665	16.164	819.921	618.869
356.679	16.177	819.547	618.582
357.694	16.282	818.985	618.485
358.708	16.241	818.059	617.582
359.723	16.130	817.815	616.939
360.738	16.342	817.233	617.217
361.752	16.102	817.106	616.190
362.767	16.258	816.759	616.445
363.781	16.232	816.106	615.803
364.796	16.411	815.671	616.070
365.810	16.473	814.917	615.674
366.825	16.473	814.688	615.445
367.840	16.481	814.385	615.192
368.854	16.474	814.029	614.841
369.869	16.456	813.757	614.518
370.883	16.452	812.833	613.752
371.898	16.485	812.172	613.319
372.913	16.533	811.524	612.949
373.927	16.522	811.087	612.523
374.942	16.581	810.559	612.284
375.956	16.438	810.276	611.499
376.971	16.578	809.345	611.247
377.986	16.669	808.727	611.056
379.000	16.615	808.065	610.307
380.015	16.652	807.755	610.152
381.029	16.793	806.984	610.023
382.044	16.715	806.784	609.539
383.059	16.661	806.196	608.844
384.073	16.784	805.379	608.616
385.088	16.826	804.965	608.399
386.102	16.763	804.362	607.665
387.117	16.782	803.887	607.319
388.132	16.732	803.528	606.817
389.146	16.805	803.084	606.689
390.161	16.663	802.765	605.883
391.175	16.850	802.034	605.950
392.190	16.897	801.781	605.871
393.205	16.743	801.508	605.060
394.219	16.806	801.050	604.888
395.234	16.635	800.562	603.855
396.248	16.714	800.028	603.680
397.263	16.666	799.601	603.135
398.278	16.725	799.335	603.090
399.292	16.827	798.687	602.911
400.307	16.798	798.327	602.484
401.321	16.763	798.116	602.145
402.336	16.901	797.543	602.150
403.350	16.827	797.116	601.513
404.365	17.013	796.556	601.696
405.380	16.871	796.204	600.872
406.394	16.880	795.983	600.685
407.409	16.985	795.634	600.739
408.423	17.025	795.021	600.367
409.438	17.024	794.646	600.028
410.453	17.178	793.808	599.886
411.467	17.139	793.370	599.363
412.482	17.278	792.794	599.365
413.496	17.219	792.434	598.832
414.511	17.172	792.326	598.531
415.526	17.263	791.886	598.465
416.540	17.191	791.404	597.795
417.555	17.279	791.201	597.899
418.569	17.182	790.620	597.066
419.584	17.384	789.890	597.171
420.599	17.119	789.712	596.053
421.613	109.321	1291.938	1472.303
422.628	93.788	1365.087	1472.401
