DTS Sentinel unit serial number:	SN413079Multiplexer serial number:	ORYXHardware model number:	OX4-SRSoftware version number:	ORYX F/W v4.00 Oryx Data Collector v3.7.2.0data status	okinstallation	princeton_trtdifferential loss correction	single-endedforward channel	channel 3reverse channel	N/Adate	2019/09/15time	14:32:34forward acquisition time	60.00reverse acquisition time	0.00gamma	496.2192k internal	0.2291k external	0.2291temperature offset calibration	0.9952default loss term (dB/km)	0.3790temperature slope calibration	1.0000multiplexer offset coefficient	1.0000multiplexer slope coefficient	1.0000fibre end	0.00T internal ref (°C)	39.41T ext. ref 1 (°C)	4.91T ext. ref 2 (°C)	36.38length (m)	temperature (°C)	Stokes	anti-Stokes-747.200	-163.246	-0.217	-0.011
-746.185	-78.578	0.280	0.098
-745.171	-29.743	-0.339	-0.198
-744.156	-118.315	-0.202	-0.037
-743.142	-38.604	0.087	-0.047
-742.127	454.544	0.134	0.303
-741.112	-29.280	-0.190	0.111
-740.098	780.886	-0.087	0.243
-739.083	74.927	0.065	-0.070
-738.069	-4.450	-0.098	-0.069
-737.054	23.512	0.082	0.069
-736.039	26.672	0.041	-0.035
-735.025	-200.000	0.022	0.244
-734.010	22.058	-0.145	0.121
-732.996	800.000	-0.033	-0.128
-731.981	800.000	-0.074	0.287
-730.966	-82.775	-0.205	0.068
-729.952	-46.763	-0.376	-0.188
-728.937	-84.376	0.170	-0.055
-727.923	38.516	0.204	0.186
-726.908	234.027	-0.134	-0.225
-725.894	328.899	0.093	-0.182
-724.879	50.812	-0.157	-0.152
-723.864	188.794	-0.093	-0.143
-722.850	226.260	-0.100	-0.166
-721.835	-200.000	0.002	0.118
-720.821	-200.000	0.015	0.112
-719.806	8.353	-0.206	-0.158
-718.791	3.524	-0.070	-0.052
-717.777	113.610	-0.258	-0.320
-716.762	800.000	-0.128	-0.406
-715.748	-157.409	-0.224	0.014
-714.733	425.171	-0.051	-0.113
-713.718	-200.000	-0.034	0.198
-712.704	427.602	-0.127	0.280
-711.689	-78.946	-0.427	-0.149
-710.675	-200.000	0.006	0.177
-709.660	-31.587	-0.173	0.099
-708.645	-189.618	0.015	0.000
-707.631	237.700	-0.019	-0.032
-706.616	-200.000	-0.018	-0.365
-705.602	276.033	0.077	0.139
-704.587	-80.767	-0.078	-0.027
-703.572	-79.460	0.201	-0.070
-702.558	199.779	0.227	0.357
-701.543	19.937	0.178	-0.147
-700.529	-200.000	-0.009	-0.303
-699.514	296.442	-0.088	-0.165
-698.499	-59.144	-0.320	-0.141
-697.485	-159.044	-0.071	-0.004
-696.470	-17.569	0.218	-0.140
-695.456	250.653	0.146	0.254
-694.441	-86.009	-0.167	0.053
-693.426	-200.000	0.034	-0.217
-692.412	78.839	0.021	-0.023
-691.397	565.355	0.150	0.372
-690.383	323.657	0.048	0.093
-689.368	-148.621	0.194	0.016
-688.354	22.571	-0.182	-0.152
-687.339	-150.481	0.087	0.007
-686.324	-52.307	-0.386	-0.183
-685.310	115.314	0.141	0.176
-684.295	-200.000	0.329	0.001
-683.281	556.799	-0.075	0.184
-682.266	-94.093	-0.254	0.071
-681.251	298.411	-0.124	0.233
-680.237	-141.335	-0.282	0.029
-679.222	-103.479	-0.096	-0.023
-678.208	18.694	0.130	0.106
-677.193	-35.155	-0.112	-0.062
-676.178	800.000	0.025	0.098
-675.164	-62.614	-0.211	-0.090
-674.149	35.452	0.126	-0.113
-673.135	-59.944	-0.373	-0.163
-672.120	52.200	0.098	0.096
-671.105	-60.435	-0.088	-0.038
-670.091	-200.000	-0.036	0.269
-669.076	-200.000	-0.017	0.157
-668.062	-200.000	-0.016	-0.216
-667.047	-1.925	0.012	0.009
-666.032	-124.073	-0.248	0.040
-665.018	-174.192	0.199	-0.006
-664.003	800.000	-0.109	-0.401
-662.989	-115.315	0.545	-0.105
-661.974	77.260	-0.230	-0.250
-660.959	-123.939	-0.128	-0.021
-659.945	-200.000	-0.023	-0.267
-658.930	-200.000	-0.023	-0.230
-657.916	-95.882	0.244	0.066
-656.901	-73.564	0.265	0.099
-655.886	-78.861	0.205	-0.071
-654.872	58.333	-0.250	0.251
-653.857	-200.000	-0.028	0.129
-652.843	260.251	0.084	-0.148
-651.828	-101.713	0.341	0.084
-650.814	-23.473	0.227	0.139
-649.799	-200.000	-0.005	-0.127
-648.784	-150.158	0.336	-0.027
-647.770	21.626	-0.227	-0.189
-646.755	-72.417	0.227	-0.086
-645.741	-62.806	-0.145	0.061
-644.726	800.000	-0.027	0.118
-643.711	-85.508	0.276	0.088
-642.697	-104.164	0.046	0.011
-641.682	-179.195	0.099	0.002
-640.668	-159.111	0.204	0.012
-639.653	155.797	-0.169	0.238
-638.638	-91.076	-0.313	-0.092
-637.624	155.901	0.080	-0.112
-636.609	-200.000	-0.000	-0.246
-635.595	281.717	-0.091	0.167
-634.580	-112.875	-0.280	-0.057
-633.565	286.647	0.124	-0.228
-632.551	465.604	0.053	-0.121
-631.536	-138.371	-0.132	-0.015
-630.522	-13.779	0.174	0.115
-629.507	-75.558	0.047	0.017
-628.492	22.670	-0.229	-0.191
-627.478	800.000	-0.065	-0.219
-626.463	-117.487	-0.309	-0.057
-625.449	-81.781	-0.076	0.025
-624.434	386.725	0.062	-0.131
-623.419	-200.000	0.006	-0.106
-622.405	92.530	-0.201	-0.231
-621.390	244.198	0.136	-0.233
-620.376	-11.520	0.191	0.128
-619.361	52.072	-0.121	-0.117
-618.346	34.621	-0.194	-0.172
-617.332	-121.609	-0.170	0.029
-616.317	70.884	-0.186	0.196
-615.303	62.387	0.154	-0.156
-614.288	-24.845	-0.185	-0.112
-613.273	-16.891	0.219	-0.141
-612.259	-53.042	-0.187	0.088
-611.244	800.000	-0.018	-0.070
-610.230	-200.000	0.006	0.135
-609.215	25.616	-0.144	0.122
-608.201	-1.628	0.081	-0.058
-607.186	-51.696	0.195	-0.092
-606.171	-200.000	-0.048	-0.266
-605.157	-151.626	0.400	-0.030
-604.142	-179.497	-0.112	-0.003
-603.128	-200.000	0.016	0.105
-602.113	-200.000	-0.260	-0.000
-601.098	15.505	0.129	0.103
-600.084	31.506	0.184	-0.161
-599.069	800.000	-0.116	-0.338
-598.055	494.862	-0.009	-0.022
-597.040	-49.961	0.416	0.201
-596.025	-200.000	-0.033	0.295
-595.011	498.607	0.065	0.152
-593.996	-200.000	0.008	-0.108
-592.982	241.660	0.149	-0.254
-591.967	138.722	-0.278	0.372
-590.952	-200.000	-0.056	0.345
-589.938	-93.448	-0.169	-0.048
-588.923	11.901	0.143	0.112
-587.909	800.000	-0.121	-0.465
-586.894	-29.107	0.064	0.038
-585.879	800.000	-0.144	0.491
-584.865	89.363	0.298	-0.338
-583.850	800.000	-0.040	-0.147
-582.836	-85.970	-0.255	-0.080
-581.821	245.324	0.155	-0.265
-580.806	-115.872	0.104	-0.020
-579.792	-28.341	-0.140	0.082
-578.777	800.000	-0.029	-0.124
-577.763	23.640	0.155	0.130
-576.748	-89.737	-0.485	-0.145
-575.733	319.387	-0.037	-0.071
-574.719	-129.243	0.233	-0.033
-573.704	-20.103	0.052	-0.032
-572.690	800.000	0.040	0.169
-571.675	-200.000	0.060	-0.432
-570.661	-61.397	0.195	-0.084
-569.646	587.775	-0.121	-0.303
-568.631	-41.998	-0.075	0.039
-567.617	800.000	-0.055	0.187
-566.602	800.000	0.052	-0.196
-565.588	97.855	0.090	0.105
-564.573	250.551	0.130	-0.224
-563.558	-24.111	0.100	-0.061
-562.544	-200.000	-0.005	0.112
-561.529	525.751	-0.044	-0.105
-560.515	-130.333	-0.333	0.046
-559.500	800.000	0.037	-0.137
-558.485	-118.646	0.344	0.062
-557.471	-200.000	-0.015	0.159
-556.456	-36.868	-0.111	-0.061
-555.442	-200.000	0.030	-0.203
-554.427	-29.435	-0.263	0.153
-553.412	328.272	-0.051	-0.099
-552.398	40.941	0.152	0.139
-551.383	-33.812	0.119	0.067
-550.369	800.000	-0.031	-0.116
-549.354	-120.953	0.105	-0.018
-548.339	-125.538	-0.437	0.068
-547.325	-200.000	-0.007	0.188
-546.310	770.521	0.089	-0.246
-545.296	-103.290	-0.252	0.061
-544.281	-81.756	0.303	0.101
-543.266	800.000	-0.060	0.184
-542.252	107.855	-0.074	-0.089
-541.237	-200.000	-0.004	0.126
-540.223	80.750	-0.135	0.148
-539.208	141.052	0.099	-0.133
-538.193	-64.454	-0.116	-0.048
-537.179	339.558	-0.055	0.109
-536.164	-200.000	0.035	-0.165
-535.150	103.743	-0.233	0.278
-534.135	-119.527	-0.226	-0.040
-533.121	-82.208	-0.236	0.078
-532.106	-200.000	0.007	0.130
-531.091	704.991	-0.149	0.399
-530.077	51.598	-0.083	0.080
-529.062	189.924	-0.132	-0.202
-528.048	-200.000	0.005	-0.060
-527.033	106.474	0.349	0.420
-526.018	92.788	0.072	-0.083
-525.004	-57.031	-0.321	-0.144
-523.989	119.082	-0.117	-0.147
-522.975	604.605	0.028	0.071
-521.960	-104.705	-0.495	-0.116
-520.945	71.740	-0.054	-0.057
-519.931	561.813	0.061	0.150
-518.916	-112.618	-0.312	0.063
-517.902	38.127	0.118	-0.107
-516.887	175.625	-0.127	0.187
-515.872	800.000	-0.011	0.042
-514.858	109.235	0.083	-0.100
-513.843	-60.422	-0.267	-0.115
-512.829	-63.349	0.114	0.047
-511.814	-200.000	-0.039	-0.231
-510.799	202.203	-0.066	-0.104
-509.785	-107.557	-0.207	0.046
-508.770	-60.291	0.320	-0.138
-507.756	534.916	-0.103	-0.247
-506.741	10.722	-0.111	0.086
-505.726	187.662	0.100	-0.152
-504.712	-200.000	-0.013	-0.111
-503.697	334.210	0.125	-0.246
-502.683	-102.543	-0.085	-0.021
-501.668	-61.525	0.159	-0.068
-500.653	-200.000	-0.001	0.173
-499.639	-104.125	0.159	0.037
-498.624	-46.338	0.055	0.028
-497.610	97.862	0.194	-0.227
-496.595	214.249	0.110	0.176
-495.581	49.840	-0.323	0.309
-494.566	800.000	0.038	0.164
-493.551	-200.000	-0.015	0.377
-492.537	97.531	-0.148	-0.172
-491.522	-87.289	-0.197	-0.061
-490.508	161.227	0.046	0.065
-489.493	800.000	0.071	0.236
-488.478	252.901	0.134	-0.232
-487.464	43.635	0.044	0.041
-486.449	184.456	0.134	-0.201
-485.435	619.745	-0.042	0.108
-484.420	-200.000	0.012	-0.182
-483.405	-37.544	0.067	0.036
-482.391	125.150	-0.092	-0.117
-481.376	-200.000	-0.007	-0.044
-480.362	236.138	0.075	0.125
-479.347	575.074	0.068	-0.168
-478.332	-115.995	0.408	-0.077
-477.318	-61.517	-0.177	-0.075
-476.303	80.359	0.319	0.348
-475.289	-31.434	0.102	-0.058
-474.274	800.000	0.052	-0.217
-473.259	553.147	0.102	-0.248
-472.245	61.900	-0.049	-0.050
-471.230	102.130	-0.143	-0.169
-470.216	-31.037	-0.282	0.161
-469.201	6.639	0.245	-0.185
-468.186	751.756	0.080	-0.220
-467.172	520.615	-0.087	0.208
-466.157	-47.458	0.269	0.132
-465.143	302.507	0.155	0.291
-464.128	800.000	-0.060	-0.218
-463.113	551.671	-0.082	0.200
-462.099	155.352	0.044	0.061
-461.084	70.351	0.129	0.135
-460.070	-61.003	-0.187	-0.080
-459.055	33.736	0.187	0.165
-458.040	34.445	0.215	0.191
-457.026	242.363	0.112	-0.189
-456.011	800.000	-0.067	-0.259
-454.997	68.111	0.191	-0.198
-453.982	800.000	-0.063	-0.213
-452.968	124.948	0.115	0.147
-451.953	-104.106	-0.036	-0.009
-450.938	-110.872	0.026	-0.005
-449.924	-200.000	-0.018	-0.347
-448.909	187.234	0.041	0.062
-447.895	29.684	-0.218	0.188
-446.880	-175.682	0.137	0.004
-445.865	76.986	0.045	0.048
-444.851	68.603	0.144	-0.149
-443.836	116.896	0.310	0.385
-442.822	-8.189	-0.178	-0.121
-441.807	-76.760	-0.309	0.109
-440.792	800.000	-0.085	0.372
-439.778	-200.000	0.017	0.157
-438.763	-3.915	-0.056	-0.039
-437.749	170.260	0.107	-0.156
-436.734	256.345	0.133	0.231
-435.719	149.799	-0.179	0.246
-434.705	-64.077	0.311	-0.129
-433.690	183.283	0.132	-0.197
-432.676	-62.616	0.266	-0.112
-431.661	-200.000	0.156	0.000
-430.646	-48.189	0.199	0.097
-429.632	169.580	-0.104	-0.151
-428.617	-180.487	0.051	0.001
-427.603	39.200	-0.085	0.077
-426.588	-144.199	-0.601	-0.057
-425.573	293.127	-0.098	-0.181
-424.559	-122.046	-0.145	0.024
-423.544	800.000	-0.051	0.148
-422.530	643.426	0.017	-0.045
-421.515	-83.985	-0.349	-0.112
-420.500	424.836	-0.021	-0.046
-419.486	-51.143	0.103	0.049
-418.471	19.665	0.232	-0.189
-417.457	207.161	-0.023	-0.036
-416.442	-173.464	0.301	-0.009
-415.428	-137.336	0.044	-0.005
-414.413	-72.682	-0.478	-0.178
-413.398	-32.706	0.087	0.049
-412.384	-200.000	0.007	0.165
-411.369	-2.340	0.235	0.167
-410.355	-135.997	-0.081	-0.010
-409.340	-78.838	-0.285	0.098
-408.325	176.859	0.044	0.065
-407.311	-200.000	0.023	0.234
-406.296	266.590	0.162	0.287
-405.282	-200.000	-0.079	-0.380
-404.267	2.404	0.352	-0.258
-403.252	-88.094	0.085	0.026
-402.238	-200.000	-0.031	0.000
-401.223	-200.000	0.026	0.158
-400.209	82.984	0.099	-0.109
-399.194	-52.248	-0.170	0.080
-398.179	-129.316	-0.130	0.018
-397.165	-10.313	0.337	-0.226
-396.150	-0.573	0.256	0.184
-395.136	-200.000	-0.063	-0.292
-394.121	137.810	0.164	-0.217
-393.106	800.000	0.092	0.269
-392.092	-200.000	-0.010	0.179
-391.077	471.342	0.167	0.380
-390.063	-68.348	-0.034	0.014
-389.048	36.073	-0.218	-0.194
-388.033	-102.719	0.225	-0.054
-387.019	58.654	-0.160	-0.159
-386.004	381.563	0.124	-0.257
-384.990	-64.451	-0.278	-0.114
-383.975	194.057	-0.068	0.104
-382.960	-32.945	0.314	0.176
-381.946	-200.000	-0.005	-0.151
-380.931	44.196	-0.066	0.061
-379.917	800.000	0.036	-0.105
-378.902	-35.174	-0.162	-0.089
-377.888	-89.444	0.218	-0.065
-376.873	-68.462	-0.117	0.046
-375.858	694.388	0.032	0.085
-374.844	34.242	-0.202	0.177
-373.829	-200.000	-0.038	0.229
-372.815	173.676	0.176	-0.256
-371.800	800.000	0.045	-0.201
-370.785	-102.649	-0.029	-0.007
-369.771	-200.000	-0.000	-0.077
-368.756	-22.103	-0.024	-0.015
-367.742	230.328	-0.098	-0.162
-366.727	800.000	-0.074	0.222
-365.712	123.953	-0.075	0.095
-364.698	209.267	0.134	-0.212
-363.683	169.371	0.103	0.149
-362.669	609.141	0.104	-0.263
-361.654	209.821	-0.124	-0.196
-360.639	134.144	0.095	0.124
-359.625	-200.000	0.060	0.336
-358.610	-200.000	-0.005	0.264
-357.596	-13.844	-0.198	0.129
-356.581	445.548	0.129	-0.286
-355.566	-101.478	0.234	-0.058
-354.552	-59.928	-0.082	-0.035
-353.537	-200.000	-0.014	0.232
-352.523	-134.453	0.236	0.029
-351.508	307.441	-0.253	0.475
-350.493	-87.629	-0.169	0.052
-349.479	-57.125	0.179	-0.079
-348.464	353.850	-0.091	-0.181
-347.450	90.241	-0.194	0.218
-346.435	-4.482	-0.074	-0.052
-345.420	-3.109	-0.322	0.226
-344.406	-126.529	0.199	-0.030
-343.391	-200.000	-0.017	0.376
-342.377	-200.000	-0.028	0.136
-341.362	316.794	0.198	0.378
-340.348	179.271	0.056	0.082
-339.333	70.477	-0.142	-0.148
-338.318	10.308	0.292	-0.224
-337.304	-200.000	0.002	-0.168
-336.289	264.170	0.096	0.169
-335.275	-89.849	0.254	-0.075
-334.260	119.653	-0.126	0.158
-333.245	44.037	-0.045	0.042
-332.231	-200.000	-0.026	0.170
-331.216	-49.418	-0.117	-0.056
-330.202	-158.247	0.191	-0.011
-329.187	132.254	-0.121	0.157
-328.172	-66.962	-0.109	0.043
-327.158	62.755	-0.283	0.285
-326.143	-200.000	-0.070	-0.328
-325.129	-96.741	-0.364	0.096
-324.114	62.959	-0.025	0.025
-323.099	-200.000	-0.023	0.284
-322.085	-93.454	0.286	0.080
-321.070	800.000	-0.052	0.221
-320.056	-44.936	0.187	-0.094
-319.041	-200.000	-0.027	0.189
-318.026	98.350	0.126	-0.146
-317.012	74.078	-0.292	-0.309
-315.997	-133.814	0.150	-0.019
-314.983	-155.225	-0.231	0.015
-313.968	-72.030	0.200	-0.075
-312.953	98.738	-0.261	-0.303
-311.939	-121.622	-0.067	-0.011
-310.924	548.152	0.074	0.177
-309.910	-60.006	-0.137	0.059
-308.895	741.703	-0.035	0.095
-307.880	-69.784	0.242	-0.093
-306.866	672.018	-0.200	-0.521
-305.851	-122.099	0.189	0.031
-304.837	-83.424	-0.230	-0.074
-303.822	58.757	0.139	0.137
-302.807	50.154	-0.279	0.265
-301.793	-200.000	-0.005	-0.170
-300.778	225.233	0.098	-0.160
-299.764	-172.834	-0.170	-0.005
-298.749	-149.459	-0.449	-0.036
-297.735	-29.348	0.252	0.145
-296.720	-123.631	-0.370	-0.059
-295.705	800.000	-0.079	0.257
-294.691	-200.000	0.009	-0.184
-293.676	-200.000	0.019	-0.261
-292.662	76.570	0.269	-0.287
-291.647	-96.071	0.255	0.068
-290.632	-200.000	0.006	0.101
-289.618	55.155	-0.112	-0.109
-288.603	132.494	-0.160	-0.208
-287.589	312.218	-0.081	0.154
-286.574	800.000	0.041	0.159
-285.559	137.608	0.087	0.115
-284.545	-200.000	0.336	0.000
-283.530	-200.000	-0.013	0.084
-282.516	800.000	-0.079	-0.265
-281.501	800.000	0.062	0.242
-280.486	-109.856	-0.372	-0.079
-279.472	314.884	0.070	0.133
-278.457	-200.000	0.004	-0.040
-277.443	-119.851	0.251	0.043
-276.428	170.171	0.232	-0.334
-275.413	12.850	0.410	-0.319
-274.399	-200.000	-0.031	-0.165
-273.384	356.020	0.032	0.063
-272.370	201.771	0.051	0.080
-271.355	336.534	-0.134	0.261
-270.340	-114.620	0.075	0.014
-269.326	92.039	-0.160	0.181
-268.311	-20.026	0.158	0.098
-267.297	-10.610	0.039	-0.026
-266.282	-87.729	0.051	0.015
-265.267	286.449	-0.111	0.202
-264.253	545.563	0.179	0.430
-263.238	800.000	-0.087	0.311
-262.224	-29.095	0.195	0.112
-261.209	23.661	0.159	0.132
-260.195	677.383	-0.053	-0.139
-259.180	-177.368	0.221	-0.005
-258.165	800.000	-0.076	0.255
-257.151	126.467	-0.143	-0.181
-256.136	-48.348	-0.079	-0.038
-255.122	-154.307	-0.051	0.003
-254.107	67.311	-0.106	0.109
-253.092	13.979	-0.123	-0.096
-252.078	800.000	-0.053	-0.203
-251.063	-93.379	-0.139	-0.039
-250.049	548.151	-0.030	0.073
-249.034	-200.000	0.008	0.230
-248.019	-200.000	-0.013	-0.189
-247.005	-56.687	0.152	-0.068
-245.990	-104.028	0.261	-0.061
-244.976	-200.000	-0.061	0.413
-243.961	-12.536	0.261	0.171
-242.946	-42.419	-0.118	0.061
-241.932	178.183	-0.123	-0.181
-240.917	36.586	0.061	-0.054
-239.903	-118.344	-0.379	0.068
-238.888	-84.881	0.156	-0.049
-237.873	-92.227	-0.387	-0.110
-236.859	-42.155	0.260	0.133
-235.844	-65.956	-0.219	0.088
-234.830	97.974	-0.053	-0.061
-233.815	800.000	-0.039	-0.159
-232.800	124.416	-0.222	-0.280
-231.786	-200.000	-0.009	-0.154
-230.771	-113.391	0.435	0.086
-229.757	25.759	0.190	0.159
-228.742	115.934	0.069	0.085
-227.727	800.000	-0.059	0.217
-226.713	-134.191	-0.181	0.022
-225.698	-167.302	0.096	0.004
-224.684	-8.714	-0.127	0.085
-223.669	-51.360	0.228	0.107
-222.655	-200.000	-0.021	-0.200
-221.640	-95.602	0.143	0.038
-220.625	-141.218	0.177	0.018
-219.611	19.253	-0.090	-0.072
-218.596	88.118	-0.060	0.066
-217.582	161.034	-0.073	-0.102
-216.567	38.687	-0.161	-0.144
-215.552	-200.000	0.030	-0.138
-214.538	312.602	-0.018	-0.035
-213.523	237.186	0.066	-0.109
-212.509	-141.280	-0.281	0.029
-211.494	-148.933	-0.310	-0.025
-210.479	-82.685	0.256	-0.083
-209.465	189.013	-0.064	-0.096
-208.450	177.444	0.036	0.052
-207.436	-97.772	0.124	-0.032
-206.421	-200.000	0.026	-0.157
-205.406	-174.365	0.158	-0.005
-204.392	9.196	0.031	-0.023
-203.377	-146.085	-0.202	0.018
-202.363	-200.000	0.014	0.096
-201.348	-151.941	0.144	0.011
-200.333	-18.045	-0.089	-0.056
-199.319	155.494	0.098	0.135
-198.304	-200.000	-0.017	0.188
-197.290	105.912	-0.143	-0.170
-196.275	7.226	-0.097	-0.073
-195.260	-200.000	0.061	0.404
-194.246	-200.000	-0.024	-0.244
-193.231	-138.536	0.275	0.030
-192.217	518.170	0.040	0.093
-191.202	-200.000	0.039	0.201
-190.187	-53.973	-0.039	-0.018
-189.173	800.000	-0.027	0.090
-188.158	-142.769	-0.129	0.013
-187.144	-200.000	0.022	0.126
-186.129	88.502	-0.230	0.256
-185.114	-200.000	0.004	0.092
-184.100	-42.610	0.237	-0.121
-183.085	97.460	0.072	0.083
-182.071	-0.505	0.102	-0.073
-181.056	41.831	0.230	-0.209
-180.042	800.000	-0.087	0.255
-179.027	67.115	0.205	-0.210
-178.012	-200.000	-0.015	-0.143
-176.998	49.914	0.090	0.085
-175.983	37.857	-0.147	-0.131
-174.969	-200.000	-0.068	0.299
-173.954	-183.699	0.172	-0.003
-172.939	-200.000	0.004	0.073
-171.925	-200.000	0.035	0.315
-170.910	-32.257	0.146	0.082
-169.896	-91.137	0.494	-0.142
-168.881	-129.153	-0.275	0.038
-167.866	89.424	-0.174	-0.194
-166.852	-200.000	-0.042	-0.291
-165.837	-134.016	-0.331	-0.041
-164.823	261.463	-0.104	0.180
-163.808	174.392	0.123	0.177
-162.793	10.945	0.037	0.028
-161.779	55.710	0.017	-0.017
-160.764	-52.743	0.070	-0.032
-159.750	429.025	-0.067	-0.144
-158.735	-140.620	0.086	-0.009
-157.720	800.000	-0.094	-0.326
-156.706	-200.000	-0.000	0.031
-155.691	44.498	-0.108	0.099
-154.677	-200.000	-0.020	0.100
-153.662	141.797	-0.190	0.252
-152.647	800.000	0.118	0.363
-151.633	213.455	0.186	-0.295
-150.618	35.665	0.244	-0.215
-149.604	-154.853	0.339	0.022
-148.589	-51.075	-0.414	0.194
-147.574	95.919	0.113	-0.129
-146.560	372.972	-0.242	-0.491
-145.545	307.564	0.164	0.305
-144.531	681.345	-0.048	0.125
-143.516	800.000	-0.133	-0.396
-142.502	126.936	0.243	0.308
-141.487	-112.668	0.272	-0.054
-140.472	-67.147	0.147	-0.058
-139.458	718.711	-0.116	-0.309
-138.443	-112.932	0.218	0.043
-137.429	197.562	0.147	-0.225
-136.414	153.913	0.040	-0.055
-135.399	112.566	-0.069	-0.084
-134.385	46.459	0.212	0.197
-133.370	-10.740	-0.281	-0.186
-132.356	81.743	0.286	0.309
-131.341	-105.219	-0.237	0.054
-130.326	24.027	0.101	-0.083
-129.312	-172.621	-0.183	-0.006
-128.297	-200.000	-0.010	0.156
-127.283	268.672	-0.060	-0.105
-126.268	436.449	-0.062	-0.135
-125.253	800.000	-0.087	0.261
-124.239	-9.770	-0.109	-0.072
-123.224	-200.000	-0.003	-0.058
-122.210	800.000	-0.028	0.117
-121.195	-2.050	-0.159	-0.112
-120.180	198.888	-0.312	-0.477
-119.166	-116.930	-0.071	0.013
-118.151	46.730	0.166	0.154
-117.137	85.102	-0.020	-0.022
-116.122	5.229	0.150	0.110
-115.107	364.072	-0.054	-0.109
-114.093	-83.428	-0.368	0.118
-113.078	74.423	-0.060	0.064
-112.064	35.234	-0.129	-0.113
-111.049	-122.185	-0.216	0.035
-110.034	-200.000	-0.006	-0.110
-109.020	-200.000	-0.020	-0.179
-108.005	-200.000	-0.055	-0.336
-106.991	-200.000	0.002	-0.230
-105.976	123.577	-0.036	0.045
-104.962	-200.000	0.014	0.354
-103.947	-200.000	0.034	0.186
-102.932	29.507	-0.083	-0.071
-101.918	-111.393	-0.176	0.036
-100.903	89.346	-0.247	0.275
-99.889	510.696	-0.025	-0.058
-98.874	800.000	0.064	0.246
-97.859	-200.000	-0.050	0.257
-96.845	630.761	0.150	0.380
-95.830	-3.375	-0.166	0.115
-94.816	-77.427	0.213	-0.074
-93.801	298.573	-0.053	-0.098
-92.786	-200.000	0.034	0.373
-91.772	-200.000	0.022	0.592
-90.757	-19.102	0.177	0.110
-89.743	83.864	0.078	-0.085
-88.728	65.938	0.139	-0.140
-87.713	-200.000	0.015	-0.180
-86.699	800.000	0.144	0.447
-85.684	-200.000	0.062	0.301
-84.670	-50.448	0.308	0.145
-83.655	800.000	-0.040	0.116
-82.640	-45.081	-0.217	0.108
-81.626	19.233	-0.047	-0.037
-80.611	-128.509	0.397	-0.056
-79.597	660.323	-0.045	0.117
-78.582	20.716	0.139	-0.113
-77.567	-71.882	0.114	0.042
-76.553	25.797	0.217	-0.180
-75.538	129.045	0.100	-0.127
-74.524	-47.773	-0.401	-0.194
-73.509	57.275	0.228	0.222
-72.494	212.503	0.159	0.250
-71.480	219.139	-0.097	-0.155
-70.465	128.280	0.110	0.140
-69.451	124.755	-0.035	-0.044
-68.436	800.000	0.055	0.229
-67.422	-20.039	-0.068	0.042
-66.407	-50.134	-0.061	-0.029
-65.392	-75.192	-0.375	-0.134
-64.378	-200.000	-0.009	0.290
-63.363	800.000	0.121	0.474
-62.349	357.055	-0.069	-0.136
-61.334	108.508	-0.701	-0.835
-60.319	-200.000	0.103	0.597
-59.305	-200.000	0.059	-0.354
-58.290	113.710	0.480	0.581
-57.276	765.121	0.742	2.011
-56.261	-200.000	77.971	510.680
-55.246	556.987	1364.650	3278.860
-54.232	180.406	2595.876	3796.866
-53.217	121.599	2263.210	2812.318
-52.203	49.654	1788.078	1678.939
-51.188	42.631	1589.504	1442.266
-50.173	40.177	1559.354	1397.542
-49.159	56.094	1598.002	1546.078
-48.144	61.000	1617.755	1600.146
-47.130	43.251	1581.004	1438.746
-46.115	39.781	1566.336	1400.771
-45.100	39.489	1563.402	1396.019
-44.086	39.458	1560.896	1393.511
-43.071	39.422	1559.110	1391.604
-42.057	39.375	1557.014	1389.347
-41.042	39.487	1555.610	1388.830
-40.027	39.470	1553.826	1387.058
-39.013	39.429	1552.154	1385.228
-37.998	39.356	1551.216	1383.821
-36.984	39.405	1549.907	1382.939
-35.969	39.448	1548.827	1382.222
-34.954	39.449	1547.323	1380.831
-33.940	39.460	1545.937	1379.620
-32.925	39.425	1544.796	1378.300
-31.911	39.408	1543.133	1376.645
-30.896	39.383	1541.910	1375.325
-29.881	39.413	1541.001	1374.671
-28.867	39.441	1539.334	1373.322
-27.852	39.513	1537.756	1372.365
-26.838	39.492	1536.278	1370.841
-25.823	39.469	1534.920	1369.417
-24.809	39.486	1532.743	1367.536
-23.794	39.579	1530.877	1366.466
-22.779	39.412	1530.378	1364.804
-21.765	39.344	1529.161	1363.196
-20.750	39.565	1527.495	1363.186
-19.736	39.382	1526.709	1361.165
-18.721	39.389	1525.756	1360.311
-17.706	39.395	1524.345	1359.036
-16.692	39.403	1523.124	1357.948
-15.677	39.334	1522.255	1356.645
-14.663	39.488	1521.182	1356.694
-13.648	39.430	1519.982	1355.175
-12.633	39.361	1518.878	1353.660
-11.619	39.378	1518.496	1353.382
-10.604	39.352	1517.649	1352.400
-9.590	39.241	1516.943	1350.955
-8.575	39.297	1515.727	1350.198
-7.560	39.379	1514.709	1349.802
-6.546	39.414	1514.098	1349.439
-5.531	39.337	1513.233	1348.091
-4.517	39.323	1512.026	1346.864
-3.502	39.253	1511.212	1345.606
-2.487	39.314	1510.267	1345.133
-1.473	39.338	1509.009	1344.124
-0.458	39.330	1507.965	1343.081
0.556	38.022	1498.508	1334.162
1.571	35.555	1471.564	1293.467
2.586	31.911	1406.790	1212.909
3.600	29.649	1319.782	1124.051
4.615	27.477	1270.548	1069.289
5.629	23.649	1212.507	998.859
6.644	14.294	1121.844	875.146
7.659	6.538	1075.990	800.073
8.673	5.151	1069.874	788.449
9.688	4.937	1067.277	785.388
10.702	4.811	1065.774	783.579
11.717	4.752	1064.369	782.182
12.731	8.174	1067.946	801.969
13.746	16.565	1080.175	853.597
14.761	20.503	1084.293	876.680
15.775	18.687	1080.196	864.153
16.790	17.172	1077.793	854.540
17.804	15.996	1075.244	846.540
18.819	15.138	1073.692	840.938
19.834	14.727	1072.139	837.584
20.848	14.372	1070.856	834.730
21.863	14.107	1070.350	832.935
22.877	13.917	1069.361	831.139
23.892	13.692	1068.638	829.380
24.907	13.666	1067.664	828.420
25.921	13.516	1067.740	827.656
26.936	13.646	1066.576	827.328
27.950	13.707	1065.408	826.655
28.965	13.643	1064.174	825.307
29.980	13.675	1063.494	824.862
30.994	13.877	1061.698	824.401
32.009	13.774	1061.203	823.430
33.023	13.912	1060.058	823.157
34.038	13.785	1059.550	822.059
35.053	13.691	1058.579	820.768
36.067	13.873	1056.884	820.282
37.082	13.735	1056.839	819.490
38.096	13.795	1055.746	818.867
39.111	13.817	1055.159	818.447
40.126	13.873	1053.836	817.626
41.140	13.802	1052.845	816.434
42.155	13.607	1051.785	814.580
43.169	13.485	1051.229	813.481
44.184	13.520	1049.643	812.353
45.199	13.416	1048.833	811.142
46.213	13.489	1047.913	810.718
47.228	13.467	1047.026	809.854
48.242	13.651	1045.761	809.699
49.257	13.850	1044.712	809.786
50.271	13.633	1043.868	808.003
51.286	13.613	1043.242	807.352
52.301	13.663	1042.237	806.743
53.315	13.622	1041.615	805.991
54.330	13.815	1040.188	805.756
55.344	13.569	1039.288	803.793
56.359	13.617	1038.527	803.363
57.374	13.564	1037.986	802.620
58.388	13.743	1036.513	802.277
59.403	13.573	1036.224	801.157
60.417	13.489	1035.124	799.830
61.432	13.463	1034.909	799.470
62.447	13.463	1034.211	798.857
63.461	13.549	1032.735	798.060
64.476	13.430	1031.998	796.850
65.490	13.357	1031.542	796.078
66.505	13.415	1030.366	795.374
67.520	13.506	1029.491	795.065
68.534	13.505	1028.898	794.536
69.549	13.507	1028.012	793.792
70.563	13.479	1027.080	792.865
71.578	13.403	1026.736	792.168
72.593	13.476	1025.569	791.544
73.607	13.349	1024.547	790.079
74.622	13.287	1023.838	789.165
75.636	13.337	1023.167	788.818
76.651	13.270	1022.215	787.694
77.666	13.325	1021.226	787.124
78.680	13.431	1020.348	786.881
79.695	13.296	1020.093	785.975
80.709	13.338	1019.403	785.571
81.724	13.499	1018.592	785.641
82.739	13.654	1017.353	785.352
83.753	13.563	1017.069	784.634
84.768	13.611	1016.220	784.136
85.782	13.731	1015.301	783.925
86.797	13.803	1014.855	783.851
87.812	13.858	1013.736	783.176
88.826	13.846	1012.786	782.316
89.841	13.682	1012.381	781.159
90.855	13.817	1011.435	780.996
91.870	13.755	1010.906	780.230
92.884	13.813	1010.259	779.933
93.899	13.876	1009.232	779.367
94.914	13.892	1008.532	778.831
95.928	13.835	1007.967	778.061
96.943	13.993	1007.178	778.120
97.957	13.861	1006.140	776.631
98.972	13.854	1005.603	776.117
99.987	13.733	1004.992	775.012
101.001	13.822	1004.157	774.713
102.016	13.854	1003.253	774.100
103.030	13.825	1002.387	773.226
104.045	13.762	1001.690	772.327
105.060	13.785	1000.226	771.237
106.074	13.865	999.040	770.627
107.089	13.642	998.729	769.281
108.103	13.553	997.799	768.086
109.118	13.409	997.193	766.883
110.133	13.518	996.067	766.453
111.147	13.610	995.031	766.012
112.162	13.574	994.213	765.151
113.176	13.605	993.275	764.505
114.191	13.508	992.832	763.647
115.206	13.592	991.848	763.210
116.220	13.617	990.966	762.577
117.235	13.559	990.255	761.697
118.249	13.699	989.278	761.524
119.264	13.659	988.147	760.402
120.279	13.658	987.350	759.717
121.293	13.645	986.958	759.289
122.308	13.454	986.513	758.003
123.322	13.512	985.101	757.115
124.337	13.539	984.271	756.538
125.352	13.524	983.366	755.705
126.366	13.573	982.000	754.812
127.381	13.567	980.609	753.648
128.395	13.450	979.967	752.555
129.410	13.534	979.302	752.358
130.424	13.567	978.243	751.631
131.439	13.712	977.493	751.646
132.454	13.791	976.603	751.250
133.468	13.708	975.843	750.226
134.483	13.715	975.134	749.643
135.497	13.740	974.856	749.478
136.512	13.721	973.764	748.485
137.527	13.665	973.268	747.784
138.541	13.682	972.666	747.332
139.556	13.749	971.687	746.817
140.570	13.626	971.064	745.718
141.585	13.625	970.641	745.324
142.600	13.838	969.709	745.498
143.614	13.761	969.339	744.803
144.629	13.897	967.927	744.259
145.643	13.972	967.585	744.270
146.658	13.985	966.338	743.300
147.673	13.871	965.367	741.980
148.687	13.686	965.197	740.956
149.702	13.682	963.957	739.923
150.716	13.677	962.782	738.931
151.731	13.736	961.662	738.270
152.746	13.594	961.311	737.302
153.760	13.721	960.612	737.265
154.775	13.792	959.781	736.879
155.789	13.776	959.140	736.252
156.804	13.783	958.465	735.696
157.819	13.834	957.526	735.139
158.833	13.771	956.931	734.337
159.848	13.792	956.608	734.116
160.862	13.966	955.518	733.985
161.877	13.897	954.808	733.069
162.892	13.781	954.347	732.140
163.906	13.868	952.886	731.335
164.921	13.891	951.925	730.634
165.935	13.755	951.195	729.411
166.950	13.742	950.581	728.820
167.964	13.791	949.631	728.241
168.979	13.862	948.689	727.766
169.994	13.858	947.264	726.592
171.008	13.802	946.846	725.963
172.023	13.785	946.384	725.470
173.037	13.974	945.140	725.277
174.052	13.981	944.498	724.748
175.067	13.949	943.739	723.967
176.081	13.789	943.221	722.806
177.096	13.838	941.997	722.018
178.110	13.833	941.448	721.510
179.125	13.830	941.019	721.105
180.140	13.932	939.817	720.562
181.154	13.884	939.027	719.688
182.169	13.964	938.441	719.520
183.183	13.932	937.880	718.885
184.198	14.017	936.878	718.423
185.213	14.116	936.342	718.375
186.227	14.037	935.947	717.669
187.242	14.153	935.278	717.593
188.256	14.092	934.809	716.905
189.271	14.213	933.646	716.470
190.286	14.150	933.011	715.649
191.300	14.133	932.238	714.919
192.315	14.074	931.500	714.040
193.329	13.736	931.056	712.181
194.344	13.957	929.866	712.157
195.359	13.853	929.945	711.708
196.373	13.855	929.058	710.976
197.388	14.071	928.593	711.483
198.402	14.116	928.662	711.665
199.417	14.356	927.432	711.682
200.432	14.235	927.002	710.774
201.446	14.332	926.506	710.744
202.461	14.493	926.032	711.006
203.475	14.443	925.606	710.401
204.490	14.463	924.889	709.873
205.504	14.459	923.780	708.941
206.519	14.381	922.981	707.935
207.534	14.319	922.701	707.395
208.548	14.178	922.169	706.325
209.563	14.352	920.958	706.074
210.577	14.352	920.243	705.464
211.592	14.330	919.844	704.999
212.607	14.477	919.167	705.043
213.621	14.456	918.686	704.520
214.636	14.569	917.744	704.215
215.650	14.569	916.742	703.383
216.665	14.484	916.649	702.891
217.680	14.638	915.771	702.804
218.694	14.520	915.752	702.231
219.709	14.592	915.120	701.985
220.723	14.593	914.028	701.091
221.738	14.625	913.536	700.788
222.753	14.620	912.645	700.022
223.767	14.600	911.982	699.367
224.782	14.678	910.865	698.772
225.796	14.607	910.800	698.364
226.811	14.734	909.939	698.175
227.826	14.668	909.456	697.464
228.840	14.564	908.729	696.412
229.855	14.635	908.336	696.347
230.869	14.569	907.383	695.280
231.884	14.632	906.542	694.835
232.899	14.503	905.571	693.492
233.913	14.547	905.359	693.450
234.928	14.573	904.426	692.782
235.942	14.561	903.646	692.076
236.957	14.607	902.726	691.502
237.972	14.454	902.157	690.369
238.986	14.467	901.609	689.942
240.001	14.544	900.874	689.636
241.015	14.650	900.091	689.416
242.030	14.662	899.598	689.025
243.045	14.805	898.809	688.949
244.059	14.716	898.517	688.297
245.074	14.750	897.577	687.658
246.088	14.774	897.047	687.290
247.103	14.792	896.623	686.979
248.117	14.902	895.890	686.807
249.132	14.980	895.029	686.406
250.147	14.952	894.956	686.176
251.161	15.160	894.115	686.321
252.176	15.114	893.380	685.509
253.190	15.192	892.859	685.367
254.205	15.152	892.390	684.784
255.220	15.251	891.623	684.538
256.234	15.329	890.990	684.309
257.249	15.325	890.227	683.645
258.263	15.216	889.869	682.866
259.278	15.227	889.324	682.432
260.293	15.242	888.760	681.999
261.307	15.283	888.311	681.764
262.322	15.463	887.762	682.011
263.336	15.433	886.767	681.066
264.351	15.484	886.254	680.817
265.366	15.464	885.720	680.266
266.380	15.535	884.886	679.856
267.395	15.488	884.491	679.298
268.409	15.392	883.756	678.289
269.424	15.436	882.803	677.675
270.439	15.390	882.198	676.965
271.453	15.288	881.568	676.007
272.468	15.494	880.369	675.858
273.482	15.286	880.366	674.962
274.497	15.378	880.090	675.061
275.512	15.337	878.972	673.979
276.526	15.355	878.236	673.426
277.541	15.471	877.550	673.306
278.555	15.430	876.519	672.291
279.570	15.547	876.215	672.468
280.585	15.590	875.619	672.120
281.599	15.527	875.133	671.438
282.614	15.614	874.747	671.428
283.628	15.508	873.847	670.256
284.643	15.532	873.486	670.016
285.657	15.613	872.914	669.839
286.672	15.501	872.537	669.046
287.687	15.413	872.132	668.324
288.701	15.623	871.431	668.562
289.716	15.518	870.994	667.750
290.730	15.615	870.543	667.734
291.745	15.679	869.444	667.085
292.760	15.746	868.624	666.661
293.774	15.726	867.980	666.028
294.789	15.874	867.876	666.475
295.803	15.904	867.152	665.979
296.818	15.649	866.518	664.425
297.833	15.627	866.010	663.891
298.847	15.733	864.850	663.361
299.862	15.774	864.470	663.173
300.876	15.791	863.563	662.484
301.891	15.851	863.207	662.388
302.906	15.853	862.583	661.861
303.920	15.953	861.794	661.589
304.935	16.007	861.096	661.208
305.949	16.195	860.127	661.140
306.964	15.998	860.021	660.230
307.979	15.902	859.453	659.359
308.993	16.053	858.892	659.460
310.008	16.108	858.323	659.182
311.022	16.119	858.027	658.936
312.037	16.151	857.417	658.537
313.052	15.952	857.065	657.430
314.066	15.825	856.393	656.362
315.081	15.998	855.552	656.334
316.095	15.880	855.105	655.471
317.110	15.838	855.049	655.209
318.125	15.816	854.066	654.313
319.139	15.973	853.413	654.364
320.154	15.948	853.034	653.918
321.168	15.904	852.543	653.314
322.183	15.965	852.036	653.103
323.197	15.922	851.768	652.675
324.212	16.139	850.798	652.713
325.227	16.108	850.292	652.147
326.241	16.207	849.966	652.223
327.256	16.008	849.063	650.703
328.270	16.066	848.405	650.364
329.285	15.985	848.014	649.693
330.300	16.103	847.306	649.551
331.314	16.060	846.799	648.938
332.329	16.113	846.452	648.817
333.343	16.193	845.666	648.466
334.358	16.178	845.317	648.082
335.373	16.274	844.528	647.791
336.387	16.134	844.190	646.937
337.402	16.400	843.274	647.195
338.416	16.307	843.169	646.703
339.431	16.428	842.319	646.455
340.446	16.359	841.948	645.849
341.460	16.419	841.252	645.487
342.475	16.614	840.675	645.732
343.489	16.596	840.091	645.159
344.504	16.484	839.568	644.272
345.519	16.550	839.471	644.390
346.533	16.498	839.022	643.794
347.548	16.553	838.200	643.314
348.562	16.566	837.596	642.844
349.577	16.479	837.067	642.049
350.592	16.314	836.536	640.959
351.606	16.375	836.045	640.758
352.621	16.431	835.719	640.663
353.635	16.456	835.144	640.262
354.650	16.592	834.927	640.553
355.665	16.585	834.171	639.890
356.679	16.570	833.615	639.348
357.694	16.461	833.548	638.829
358.708	16.600	832.711	638.654
359.723	16.517	832.194	637.889
360.738	16.606	831.319	637.499
361.752	16.647	830.816	637.209
362.767	16.599	830.700	636.884
363.781	16.569	830.447	636.522
364.796	16.779	830.060	636.957
365.810	16.799	829.508	636.553
366.825	16.928	829.091	636.663
367.840	16.790	828.887	635.929
368.854	17.045	828.471	636.513
369.869	16.783	827.808	634.963
370.883	16.846	827.199	634.676
371.898	16.943	826.292	634.287
372.913	16.951	825.888	633.952
373.927	17.059	825.140	633.724
374.942	16.929	824.616	632.779
375.956	17.118	823.782	632.789
376.971	16.972	823.387	631.887
377.986	17.031	822.909	631.681
379.000	17.117	822.429	631.579
380.015	17.073	821.913	630.963
381.029	17.068	821.758	630.767
382.044	16.997	820.896	629.788
383.059	17.103	820.149	629.552
384.073	17.200	819.506	629.360
385.088	17.150	819.128	628.832
386.102	17.145	818.588	628.343
387.117	17.061	818.190	627.670
388.132	17.088	817.536	627.214
389.146	16.947	817.375	626.514
390.161	17.066	816.975	626.590
391.175	17.132	816.350	626.298
392.190	17.249	815.949	626.368
393.205	17.228	815.793	626.116
394.219	17.309	814.787	625.585
395.234	17.195	814.340	624.769
396.248	17.120	814.223	624.348
397.263	16.932	813.831	623.301
398.278	17.044	813.015	623.030
399.292	17.167	812.512	623.041
400.307	17.022	812.193	622.211
401.321	17.136	811.979	622.409
402.336	17.007	811.604	621.596
403.350	17.130	811.391	621.825
404.365	17.195	810.726	621.500
405.380	17.067	810.546	620.839
406.394	17.281	809.677	620.898
407.409	17.295	809.441	620.714
408.423	17.499	808.578	620.742
409.438	17.513	808.394	620.599
410.453	17.426	808.029	619.945
411.467	17.423	807.718	619.641
412.482	17.538	806.950	619.414
413.496	17.533	806.568	619.049
414.511	17.565	806.141	618.783
415.526	17.502	805.913	618.324
416.540	17.585	805.675	618.386
417.555	17.643	805.086	618.091
418.569	17.633	804.681	617.688
419.584	17.654	803.753	616.999
420.599	17.583	803.819	616.739
421.613	144.064	1358.954	1749.129
422.628	124.774	1439.840	1749.255
