DTS Sentinel unit serial number:	SN413079Multiplexer serial number:	ORYXHardware model number:	OX4-SRSoftware version number:	ORYX F/W v4.00 Oryx Data Collector v3.7.2.0data status	okinstallation	princeton_trtdifferential loss correction	single-endedforward channel	channel 3reverse channel	N/Adate	2019/09/18time	23:56:35forward acquisition time	60.00reverse acquisition time	0.00gamma	496.2192k internal	0.2346k external	0.2346temperature offset calibration	0.9994default loss term (dB/km)	0.3790temperature slope calibration	1.0000multiplexer offset coefficient	1.0000multiplexer slope coefficient	1.0000fibre end	0.00T internal ref (°C)	23.16T ext. ref 1 (°C)	0.75T ext. ref 2 (°C)	16.04length (m)	temperature (°C)	Stokes	anti-Stokes-747.200	582.307	0.030	-0.074
-746.185	-200.000	0.085	0.392
-745.171	-51.731	-0.169	-0.079
-744.156	800.000	0.068	-0.253
-743.142	40.944	0.262	-0.236
-742.127	-65.872	-0.347	0.139
-741.112	-117.686	-0.147	-0.026
-740.098	-11.466	0.015	0.010
-739.083	-200.000	0.044	-0.266
-738.069	800.000	0.065	0.278
-737.054	-91.951	-0.479	0.136
-736.039	9.153	-0.554	-0.418
-735.025	62.979	0.214	0.214
-734.010	-200.000	0.016	0.221
-732.996	100.937	-0.087	0.101
-731.981	-125.370	-0.436	0.066
-730.966	-29.912	-0.142	-0.081
-729.952	-200.000	-0.018	-0.202
-728.937	49.016	-0.222	-0.208
-727.923	6.088	0.250	0.185
-726.908	-45.426	-0.318	0.158
-725.894	-101.204	-0.237	0.058
-724.879	-15.166	0.047	0.030
-723.864	800.000	0.041	-0.160
-722.850	69.427	-0.052	-0.053
-721.835	800.000	0.029	-0.083
-720.821	-200.000	0.004	0.236
-719.806	-12.114	-0.528	0.345
-718.791	134.348	-0.119	0.154
-717.777	648.013	-0.059	-0.151
-716.762	-200.000	-0.022	-0.159
-715.748	108.818	0.054	0.064
-714.733	-200.000	0.020	0.091
-713.718	-200.000	0.014	-0.231
-712.704	55.716	-0.185	-0.179
-711.689	793.018	0.063	-0.172
-710.675	-200.000	0.013	0.192
-709.660	1.066	-0.454	0.326
-708.645	84.259	0.243	-0.266
-707.631	356.707	0.146	-0.291
-706.616	113.147	0.022	-0.026
-705.602	-77.289	0.227	0.079
-704.587	249.619	0.135	-0.229
-703.572	658.253	0.081	0.208
-702.558	-200.000	0.003	-0.164
-701.543	262.799	0.066	-0.114
-700.529	800.000	0.005	-0.020
-699.514	-82.244	-0.413	-0.134
-698.499	-115.305	0.333	0.063
-697.485	-5.067	-0.196	0.135
-696.470	587.661	-0.094	0.230
-695.456	326.001	-0.062	-0.119
-694.441	-34.778	0.326	-0.178
-693.426	67.836	-0.195	-0.199
-692.412	250.911	0.134	-0.227
-691.397	-34.607	-0.309	-0.169
-690.383	7.573	-0.102	-0.076
-689.368	-119.289	-0.349	-0.061
-688.354	76.336	0.063	-0.066
-687.339	-200.000	-0.014	-0.334
-686.324	-23.458	-0.366	0.219
-685.310	58.149	-0.253	-0.247
-684.295	-19.197	-0.197	0.122
-683.281	146.541	-0.244	-0.327
-682.266	-196.317	0.184	0.001
-681.251	334.533	0.066	0.127
-680.237	5.127	-0.227	0.167
-679.222	0.261	-0.251	0.179
-678.208	275.614	0.147	-0.260
-677.193	-200.000	-0.009	-0.076
-676.178	-132.631	-0.235	-0.030
-675.164	-23.264	0.298	-0.179
-674.149	16.314	-0.088	-0.069
-673.135	696.119	0.113	-0.296
-672.120	-86.091	-0.431	-0.133
-671.105	-133.228	-0.177	-0.022
-670.091	216.297	-0.052	-0.082
-669.076	-200.000	-0.050	-0.291
-668.062	-97.532	0.152	0.039
-667.047	800.000	0.060	-0.202
-666.032	-114.301	-0.321	-0.062
-665.018	-29.276	-0.354	0.202
-664.003	-200.000	0.000	-0.056
-662.989	-110.998	-0.091	-0.019
-661.974	-100.736	-0.319	-0.078
-660.959	-200.000	0.005	-0.241
-659.945	-15.468	0.101	-0.064
-658.930	-145.091	-0.324	0.029
-657.916	800.000	-0.040	0.172
-656.901	-48.207	-0.199	-0.096
-655.886	634.484	-0.109	-0.275
-654.872	100.457	-0.232	-0.268
-653.857	-31.989	-0.144	0.081
-652.843	-172.758	0.206	-0.006
-651.828	-21.205	0.085	0.052
-650.814	73.167	-0.158	0.164
-649.799	347.569	0.144	0.283
-648.784	-18.253	0.290	-0.181
-647.770	-200.000	0.033	0.205
-646.755	198.738	0.110	0.167
-645.741	190.741	0.040	0.059
-644.726	-60.579	-0.094	0.040
-643.711	-96.291	0.253	0.067
-642.697	-75.288	0.453	0.161
-641.682	-200.000	-0.044	0.253
-640.668	-200.000	0.016	0.183
-639.653	-169.765	0.337	0.012
-638.638	800.000	0.081	-0.250
-637.624	-200.000	-0.010	-0.211
-636.609	657.053	-0.172	-0.440
-635.595	-200.000	-0.005	0.101
-634.580	57.766	0.127	-0.124
-633.565	-114.665	-0.511	-0.097
-632.551	-9.345	-0.072	0.048
-631.536	8.530	0.159	-0.119
-630.522	221.571	-0.113	-0.181
-629.507	-200.000	-0.037	-0.256
-628.492	-200.000	-0.021	-0.313
-627.478	-143.085	-0.161	-0.016
-626.463	-138.732	-0.200	-0.022
-625.449	238.146	0.030	0.050
-624.434	163.084	-0.198	0.277
-623.419	26.977	0.162	0.136
-622.405	800.000	-0.087	0.287
-621.390	189.103	-0.208	-0.309
-620.376	-176.279	0.355	-0.009
-619.361	-54.160	-0.007	-0.003
-618.346	185.910	-0.200	-0.295
-617.332	-49.201	0.119	-0.057
-616.317	-60.551	-0.235	-0.099
-615.303	-109.373	0.006	-0.001
-614.288	-200.000	-0.005	-0.242
-613.273	-200.000	-0.032	-0.171
-612.259	-12.064	-0.099	-0.065
-611.244	-115.446	-0.260	0.049
-610.230	108.501	0.142	-0.169
-609.215	55.586	0.178	0.171
-608.201	174.591	-0.057	0.081
-607.186	-186.531	0.330	-0.005
-606.171	-72.689	0.153	-0.056
-605.157	-200.000	-0.016	0.185
-604.142	-93.578	-0.414	-0.114
-603.128	-12.549	0.113	0.074
-602.113	-200.000	-0.045	0.446
-601.098	242.414	-0.163	0.271
-600.084	-127.540	0.163	-0.023
-599.069	-42.380	0.511	0.259
-598.055	197.054	-0.050	-0.076
-597.040	212.476	-0.196	-0.307
-596.025	133.747	-0.006	-0.007
-595.011	-38.472	-0.272	-0.143
-593.996	547.012	0.064	0.153
-592.982	-187.311	0.315	-0.004
-591.967	-200.000	-0.019	0.514
-590.952	587.470	-0.097	-0.238
-589.938	507.317	0.035	-0.081
-588.923	800.000	-0.046	-0.171
-587.909	-55.400	0.313	0.139
-586.894	156.359	0.099	0.136
-585.879	-200.000	-0.071	0.320
-584.865	334.706	-0.078	-0.150
-583.850	800.000	-0.040	0.168
-582.836	800.000	0.053	-0.197
-581.821	-31.698	0.159	0.088
-580.806	383.052	0.053	0.108
-579.792	112.736	-0.132	0.158
-578.777	8.980	0.234	-0.176
-577.763	139.069	-0.119	0.155
-576.748	-93.940	0.128	0.035
-575.733	800.000	-0.075	0.243
-574.719	219.953	-0.200	-0.318
-573.704	666.551	-0.126	-0.323
-572.690	-123.425	0.063	0.010
-571.675	-200.000	0.075	-0.522
-570.661	252.844	-0.062	-0.106
-569.646	318.240	-0.213	0.401
-568.631	1.071	0.270	-0.192
-567.617	800.000	-0.064	-0.223
-566.602	800.000	-0.081	-0.232
-565.588	-200.000	-0.011	-0.075
-564.573	-115.601	-0.154	-0.029
-563.558	226.317	-0.061	0.098
-562.544	-101.325	-0.171	0.041
-561.529	352.848	-0.061	-0.120
-560.515	-200.000	-0.005	0.048
-559.500	-200.000	-0.007	-0.169
-558.485	-50.468	-0.204	0.095
-557.471	800.000	0.016	-0.062
-556.456	-78.291	0.226	0.077
-555.442	143.340	0.125	-0.165
-554.427	200.525	-0.216	0.329
-553.412	20.057	-0.232	-0.186
-552.398	-200.000	-0.000	-0.241
-551.383	-98.908	-0.095	-0.024
-550.369	-200.000	0.025	-0.188
-549.354	-154.171	0.344	0.023
-548.339	307.441	-0.188	0.348
-547.325	-200.000	-0.009	-0.195
-546.310	800.000	0.001	0.005
-545.296	-200.000	0.032	-0.214
-544.281	125.972	-0.410	-0.514
-543.266	-190.048	0.265	0.003
-542.252	-78.787	-0.029	-0.010
-541.237	-72.667	0.093	-0.034
-540.223	554.117	-0.032	0.077
-539.208	229.555	-0.219	-0.354
-538.193	313.858	-0.125	-0.233
-537.179	12.594	0.201	0.154
-536.164	702.738	-0.080	0.210
-535.150	800.000	-0.060	0.238
-534.135	-146.143	0.303	0.026
-533.121	583.692	-0.064	-0.156
-532.106	-62.664	-0.185	0.076
-531.091	-44.174	-0.273	-0.136
-530.077	-68.060	0.078	0.030
-529.062	-149.975	-0.139	-0.011
-528.048	-101.765	-0.270	-0.065
-527.033	-43.230	0.237	0.119
-526.018	122.931	-0.204	0.254
-525.004	218.741	-0.122	0.193
-523.989	-122.336	-0.089	0.014
-522.975	-58.013	-0.104	-0.045
-521.960	-8.088	0.242	-0.162
-520.945	-109.194	0.195	0.041
-519.931	294.757	-0.180	0.327
-518.916	-200.000	-0.090	0.479
-517.902	51.755	0.333	-0.314
-516.887	215.169	0.099	-0.155
-515.872	-16.083	0.055	-0.034
-514.858	-18.416	0.110	-0.068
-513.843	-157.704	-0.210	0.012
-512.829	-200.000	0.025	0.246
-511.814	-0.072	0.132	0.093
-510.799	800.000	0.125	0.377
-509.785	-118.216	-0.180	-0.032
-508.770	248.105	0.153	0.256
-507.756	-102.815	-0.220	0.052
-506.741	546.398	-0.072	0.170
-505.726	-36.729	-0.269	0.143
-504.712	-88.630	-0.152	-0.045
-503.697	-44.295	-0.283	0.140
-502.683	-69.665	-0.151	0.057
-501.668	-200.000	-0.508	0.002
-500.653	296.518	0.062	-0.113
-499.639	-200.000	0.017	-0.116
-498.624	800.000	-0.044	-0.123
-497.610	286.479	0.148	0.264
-496.595	-125.999	-0.075	0.011
-495.581	162.696	-0.071	0.099
-494.566	-200.000	0.049	0.313
-493.551	77.629	-0.087	-0.092
-492.537	118.365	-0.169	-0.206
-491.522	-115.823	-0.156	-0.029
-490.508	-10.760	-0.174	0.114
-489.493	-110.128	0.227	-0.047
-488.478	84.112	0.090	-0.098
-487.464	508.377	0.144	-0.331
-486.449	-17.219	-0.257	0.160
-485.435	-66.670	0.340	-0.133
-484.420	-200.000	0.058	0.252
-483.405	-83.174	0.197	0.063
-482.391	270.225	0.147	0.257
-481.376	-119.141	0.263	0.045
-480.362	95.296	-0.163	0.184
-479.347	-33.294	0.187	0.102
-478.332	-7.215	-0.338	-0.227
-477.318	-200.000	0.031	-0.142
-476.303	146.504	-0.289	-0.384
-475.289	410.602	-0.025	-0.052
-474.274	404.942	-0.204	-0.424
-473.259	391.106	0.106	-0.219
-472.245	8.436	-0.277	-0.206
-471.230	158.219	-0.183	0.251
-470.216	-108.392	-0.263	0.056
-469.201	470.542	-0.019	-0.042
-468.186	-136.191	0.508	-0.059
-467.172	-127.709	-0.248	-0.035
-466.157	58.155	-0.102	-0.099
-465.143	-200.000	0.023	-0.123
-464.128	163.870	0.145	0.202
-463.113	198.315	-0.060	-0.091
-462.099	17.153	-0.241	0.189
-461.084	368.523	0.140	-0.279
-460.070	139.473	0.142	0.185
-459.055	-116.338	-0.399	0.073
-458.040	-200.000	-0.002	0.194
-457.026	800.000	0.084	-0.305
-456.011	-89.865	0.293	0.085
-454.997	-53.108	0.040	0.018
-453.982	-200.000	0.018	0.100
-452.968	-67.632	-0.198	-0.077
-451.953	800.000	0.056	-0.166
-450.938	113.730	0.126	0.152
-449.924	-147.620	-0.244	0.020
-448.909	630.300	-0.127	-0.318
-447.895	800.000	-0.043	-0.130
-446.880	-98.404	-0.183	0.046
-445.865	-200.000	0.023	0.155
-444.851	-150.200	-0.108	-0.008
-443.836	283.376	-0.053	0.094
-442.822	-200.000	0.015	-0.156
-441.807	-90.665	-0.284	-0.081
-440.792	-82.972	0.097	-0.031
-439.778	68.770	0.169	0.171
-438.763	-200.000	-0.030	0.180
-437.749	46.571	0.124	-0.114
-436.734	-127.826	0.136	0.019
-435.719	26.933	0.109	0.090
-434.705	-131.366	0.254	0.033
-433.690	-200.000	0.021	0.130
-432.676	-200.000	-0.072	0.338
-431.661	-125.557	-0.246	0.037
-430.646	-200.000	-0.009	-0.100
-429.632	110.850	-0.164	-0.195
-428.617	627.204	-0.072	-0.179
-427.603	59.607	0.239	0.233
-426.588	119.719	-0.124	0.152
-425.573	-200.000	0.018	0.194
-424.559	-144.783	0.212	0.019
-423.544	-136.498	-0.096	-0.011
-422.530	-200.000	0.064	-0.496
-421.515	-49.968	0.157	-0.074
-420.500	-183.518	-0.196	0.003
-419.486	-93.232	0.269	0.074
-418.471	-115.790	0.525	-0.097
-417.457	-32.441	-0.121	0.066
-416.442	181.191	-0.030	-0.043
-415.428	-200.000	0.014	-0.221
-414.413	800.000	0.046	-0.147
-413.398	87.836	0.152	0.166
-412.384	165.083	0.032	0.044
-411.369	-144.018	0.312	0.029
-410.355	-105.778	-0.503	-0.112
-409.340	-140.815	0.125	0.013
-408.325	-183.078	-0.335	-0.006
-407.311	-83.375	-0.164	-0.052
-406.296	731.503	0.118	0.311
-405.282	-80.439	0.415	-0.137
-404.267	-106.766	-0.218	-0.048
-403.252	-200.000	0.017	0.348
-402.238	800.000	0.077	0.323
-401.223	-200.000	0.034	-0.262
-400.209	67.162	0.027	0.027
-399.194	362.417	0.155	-0.308
-398.179	800.000	0.096	-0.312
-397.165	-64.091	-0.126	-0.051
-396.150	98.242	0.123	0.140
-395.136	-200.000	-0.051	-0.000
-394.121	-106.267	0.276	-0.061
-393.106	6.643	0.059	0.044
-392.092	-44.048	-0.091	0.045
-391.077	180.497	0.067	-0.096
-390.063	726.189	0.048	0.127
-389.048	-24.074	0.149	-0.088
-388.033	433.433	-0.092	0.197
-387.019	-152.455	-0.365	-0.026
-386.004	800.000	0.088	-0.246
-384.990	-200.000	0.017	0.193
-383.975	800.000	0.027	-0.104
-382.960	-125.249	-0.125	-0.019
-381.946	-200.000	-0.004	-0.040
-380.931	-140.636	-0.198	-0.020
-379.917	-68.219	0.138	0.053
-378.902	-17.815	0.076	0.047
-377.888	-200.000	0.055	0.371
-376.873	-70.369	-0.150	0.056
-375.858	29.373	0.089	-0.074
-374.844	117.816	-0.178	0.216
-373.829	-200.000	0.011	0.172
-372.815	800.000	0.051	0.149
-371.800	-200.000	0.004	0.050
-370.785	-87.996	-0.162	0.048
-369.771	19.249	0.050	-0.040
-368.756	-200.000	-0.016	0.395
-367.742	-22.707	0.300	-0.178
-366.727	-35.691	0.294	0.157
-365.712	-105.191	0.287	0.064
-364.698	213.648	-0.035	-0.054
-363.683	137.794	0.197	-0.255
-362.669	318.041	-0.062	0.115
-361.654	-169.008	-0.304	0.011
-360.639	75.988	-0.162	-0.169
-359.625	21.733	-0.114	-0.091
-358.610	289.788	-0.073	0.131
-357.596	-126.093	0.389	-0.058
-356.581	231.670	-0.061	0.098
-355.566	-24.781	0.168	0.099
-354.552	-200.000	-0.027	0.200
-353.537	-200.000	-0.026	0.297
-352.523	-48.775	0.382	-0.181
-351.508	-80.915	-0.052	0.017
-350.493	-200.000	0.024	0.252
-349.479	-101.733	0.347	-0.083
-348.464	-81.582	-0.146	-0.047
-347.450	-175.494	-0.379	0.010
-346.435	105.411	-0.345	0.402
-345.420	-200.000	-0.052	0.332
-344.406	-146.524	-0.285	0.024
-343.391	-57.302	0.138	0.060
-342.377	-121.721	0.207	-0.034
-341.362	-8.657	0.086	0.057
-340.348	800.000	0.133	-0.412
-339.333	396.434	-0.071	-0.145
-338.318	-200.000	0.006	-0.394
-337.304	267.339	0.089	-0.154
-336.289	99.102	-0.193	-0.219
-335.275	-42.007	-0.545	0.274
-334.260	-200.000	-0.072	-0.326
-333.245	800.000	-0.076	-0.238
-332.231	-200.000	0.005	-0.075
-331.216	-173.475	-0.222	0.007
-330.202	92.588	-0.137	-0.152
-329.187	800.000	-0.072	-0.255
-328.172	-76.857	0.110	-0.038
-327.158	-11.324	-0.306	0.198
-326.143	111.362	0.129	-0.153
-325.129	-15.900	0.229	0.144
-324.114	-19.626	0.086	-0.052
-323.099	-85.043	-0.234	0.072
-322.085	-138.315	-0.184	0.020
-321.070	-61.403	0.299	-0.124
-320.056	-200.000	-0.002	-0.169
-319.041	383.879	-0.169	0.343
-318.026	51.277	0.144	-0.134
-317.012	29.955	-0.097	-0.082
-315.997	-34.547	-0.342	0.184
-314.983	800.000	0.100	0.295
-313.968	-187.500	-0.043	0.001
-312.953	-62.474	-0.241	0.098
-311.939	-200.000	0.003	0.204
-310.924	275.917	-0.116	0.202
-309.910	139.925	0.102	-0.132
-308.895	347.648	-0.086	0.167
-307.880	-104.626	0.087	-0.020
-306.866	-3.360	-0.231	-0.158
-305.851	-18.673	-0.194	-0.119
-304.837	326.429	0.069	0.129
-303.822	-200.000	-0.001	-0.327
-302.807	-200.000	0.014	-0.219
-301.793	-119.375	0.209	-0.036
-300.778	624.185	0.132	0.328
-299.764	94.167	0.160	0.178
-298.749	-200.000	-0.003	0.124
-297.735	440.198	-0.016	-0.035
-296.720	800.000	-0.111	-0.311
-295.705	-136.581	0.256	-0.029
-294.691	-129.824	0.353	-0.048
-293.676	46.861	0.112	0.103
-292.662	-114.773	0.043	0.008
-291.647	106.399	0.166	-0.193
-290.632	-149.300	0.458	0.036
-289.618	-98.982	0.315	-0.078
-288.603	60.010	0.055	-0.053
-287.589	230.190	0.059	-0.094
-286.574	-89.894	-0.188	0.054
-285.559	-145.647	0.566	-0.050
-284.545	800.000	-0.136	-0.427
-283.530	800.000	-0.074	-0.261
-282.516	-20.567	-0.141	-0.085
-281.501	-200.000	0.020	0.175
-280.486	800.000	0.047	-0.189
-279.472	800.000	-0.081	0.282
-278.457	-150.461	-0.097	0.007
-277.443	-200.000	-0.035	0.361
-276.428	-200.000	0.023	0.350
-275.413	-200.000	-0.019	-0.195
-274.399	-58.764	0.262	0.111
-273.384	-200.000	-0.011	-0.433
-272.370	267.696	-0.089	0.154
-271.355	-200.000	0.045	0.276
-270.340	-48.553	-0.110	-0.052
-269.326	56.002	-0.114	0.109
-268.311	-48.880	0.283	0.133
-267.297	-176.960	0.121	-0.003
-266.282	42.974	-0.205	0.183
-265.267	341.351	-0.153	0.294
-264.253	800.000	0.093	0.351
-263.238	269.810	-0.121	0.209
-262.224	-55.567	0.204	-0.090
-261.209	64.712	0.127	0.126
-260.195	-132.512	-0.024	-0.003
-259.180	-72.248	-0.173	0.063
-258.165	104.298	0.091	-0.105
-257.151	-52.648	0.446	-0.202
-256.136	7.796	-0.034	-0.025
-255.122	429.834	-0.044	-0.094
-254.107	99.831	0.229	-0.260
-253.092	-7.071	0.312	-0.208
-252.078	72.275	0.184	0.188
-251.063	-114.395	-0.114	0.021
-250.049	-200.000	-0.068	0.412
-249.034	182.228	0.260	0.376
-248.019	-200.000	0.018	0.169
-247.005	224.154	-0.093	-0.148
-245.990	785.701	-0.101	0.271
-244.976	115.626	0.068	-0.082
-243.961	52.798	0.185	-0.173
-242.946	800.000	-0.085	-0.352
-241.932	-51.886	0.258	-0.118
-240.917	788.354	-0.073	-0.196
-239.903	-110.510	0.387	-0.079
-238.888	-80.695	0.265	0.086
-237.873	-26.347	-0.064	-0.037
-236.859	800.000	-0.064	-0.244
-235.844	-96.756	0.107	0.028
-234.830	-200.000	0.074	-0.386
-233.815	4.105	-0.033	0.023
-232.800	735.907	-0.070	-0.184
-231.786	795.598	0.147	-0.397
-230.771	-167.476	-0.207	0.008
-229.757	619.107	0.160	0.393
-228.742	508.754	0.035	-0.080
-227.727	123.097	0.244	-0.300
-226.713	107.896	-0.171	0.200
-225.698	-84.118	0.120	0.037
-224.684	-70.596	0.326	-0.121
-223.669	60.512	0.035	0.034
-222.655	-84.711	-0.107	-0.033
-221.640	-43.511	0.102	-0.051
-220.625	800.000	-0.049	0.188
-219.611	-166.399	0.164	0.007
-218.596	-200.000	-0.009	-0.085
-217.582	84.737	-0.169	0.181
-216.567	177.016	-0.190	0.270
-215.552	-28.987	0.295	0.166
-214.538	-200.000	0.034	-0.196
-213.523	-95.353	-0.104	0.027
-212.509	-200.000	-0.003	-0.138
-211.494	134.316	-0.101	-0.128
-210.479	19.936	0.081	0.064
-209.465	5.020	-0.143	-0.103
-208.450	103.082	0.058	0.066
-207.436	-85.162	-0.081	0.025
-206.421	-164.232	-0.145	-0.007
-205.406	22.689	-0.144	0.115
-204.392	-200.000	0.027	0.357
-203.377	-200.000	0.020	0.463
-202.363	-16.656	-0.197	0.122
-201.348	118.870	0.176	-0.212
-200.333	-30.304	-0.118	0.066
-199.319	-129.140	-0.336	-0.046
-198.304	83.393	-0.066	0.070
-197.290	-125.287	-0.088	0.013
-196.275	23.944	-0.164	0.133
-195.260	116.545	0.339	0.407
-194.246	-200.000	-0.003	0.429
-193.231	-47.005	-0.210	0.100
-192.217	248.890	0.012	0.020
-191.202	-48.998	-0.089	0.042
-190.187	70.093	0.083	-0.084
-189.173	-19.805	-0.068	0.041
-188.158	-81.961	-0.202	0.065
-187.144	5.149	0.324	-0.233
-186.129	291.218	-0.082	0.146
-185.114	43.955	-0.070	-0.063
-184.100	-158.938	0.377	-0.021
-183.085	-69.627	-0.437	0.164
-182.071	228.539	0.177	-0.281
-181.056	284.879	0.079	-0.138
-180.042	130.343	0.171	0.215
-179.027	12.337	-0.014	-0.010
-178.012	800.000	-0.039	-0.126
-176.998	800.000	0.119	-0.443
-175.983	-35.642	-0.203	0.108
-174.969	-6.747	-0.091	-0.061
-173.954	10.408	0.082	-0.061
-172.939	-70.155	0.203	0.076
-171.925	-200.000	0.020	-0.115
-170.910	-11.721	-0.085	-0.055
-169.896	800.000	0.049	-0.170
-168.881	7.239	-0.316	0.231
-167.866	294.433	-0.158	-0.282
-166.852	-97.491	-0.278	-0.071
-165.837	119.715	0.203	0.245
-164.823	294.899	-0.183	-0.328
-163.808	-200.000	-0.016	-0.083
-162.793	-200.000	-0.071	0.311
-161.779	-200.000	-0.012	-0.094
-160.764	-93.885	-0.182	-0.049
-159.750	-56.258	0.155	0.067
-158.735	25.058	-0.220	0.178
-157.720	239.914	-0.024	-0.039
-156.706	544.481	0.186	-0.434
-155.691	-192.956	0.216	0.002
-154.677	-5.457	0.094	-0.063
-153.662	-200.000	-0.009	-0.048
-152.647	-200.000	-0.020	-0.094
-151.633	157.847	-0.191	-0.259
-150.618	-151.073	0.316	0.023
-149.604	-4.890	0.553	0.372
-148.589	398.499	0.052	-0.106
-147.574	-12.908	0.025	0.016
-146.560	151.236	0.127	-0.169
-145.545	-177.924	0.160	-0.004
-144.531	-125.530	0.193	0.029
-143.516	800.000	-0.014	-0.056
-142.502	411.735	0.104	0.216
-141.487	-36.589	-0.200	-0.105
-140.472	49.417	-0.053	0.049
-139.458	239.587	-0.018	0.029
-138.443	-70.202	0.341	0.127
-137.429	78.295	0.130	0.135
-136.414	170.075	0.109	0.152
-135.399	108.816	-0.153	-0.178
-134.385	94.299	0.023	-0.026
-133.370	-77.052	0.108	0.037
-132.356	-84.721	-0.340	-0.104
-131.341	282.295	-0.140	-0.245
-130.326	-200.000	0.033	-0.271
-129.312	-134.609	-0.590	0.070
-128.297	-200.000	-0.033	0.249
-127.283	356.622	0.043	-0.084
-126.268	-15.221	0.319	0.199
-125.253	-54.844	-0.096	-0.042
-124.239	-200.000	0.050	0.333
-123.224	-35.105	0.371	-0.197
-122.210	35.214	0.220	-0.188
-121.195	67.755	0.192	-0.191
-120.180	29.620	0.432	0.359
-119.166	17.071	0.268	-0.207
-118.151	-48.191	-0.288	0.136
-117.137	800.000	0.056	-0.167
-116.122	207.427	0.099	-0.151
-115.107	-47.716	-0.075	-0.035
-114.093	800.000	-0.077	0.216
-113.078	800.000	-0.051	0.173
-112.064	27.071	-0.079	0.064
-111.049	-200.000	-0.017	-0.302
-110.034	133.977	0.156	-0.197
-109.020	-126.764	0.322	-0.046
-108.005	-200.000	-0.012	0.305
-106.991	568.494	0.047	-0.111
-105.976	-86.450	0.439	-0.132
-104.962	-96.964	0.319	-0.081
-103.947	-100.581	-0.072	-0.017
-102.932	10.011	-0.156	0.116
-101.918	-23.591	-0.222	0.130
-100.903	-9.232	0.149	0.097
-99.889	-200.000	-0.094	-0.429
-98.874	426.330	-0.106	-0.222
-97.859	-200.000	-0.082	-0.467
-96.845	-138.913	-0.402	0.043
-95.830	-200.000	0.010	0.102
-94.816	800.000	0.132	0.397
-93.801	47.905	0.113	-0.103
-92.786	-55.615	-0.367	0.160
-91.772	-102.694	0.241	-0.056
-90.757	-13.386	0.058	-0.037
-89.743	-185.403	0.223	0.003
-88.728	93.274	-0.284	-0.313
-87.713	-200.000	-0.037	-0.225
-86.699	373.034	-0.056	0.111
-85.684	-200.000	0.003	0.117
-84.670	800.000	-0.053	0.149
-83.655	-115.463	0.090	0.017
-82.640	-200.000	-0.059	-0.373
-81.626	-102.701	-0.209	0.048
-80.611	121.268	-0.081	-0.099
-79.597	232.056	-0.281	-0.449
-78.582	-122.345	0.050	0.008
-77.567	210.511	0.135	0.206
-76.553	800.000	-0.025	0.088
-75.538	-200.000	-0.008	0.110
-74.524	-200.000	0.040	-0.220
-73.509	-9.881	-0.156	-0.101
-72.494	180.032	-0.163	-0.233
-71.480	234.095	0.060	0.097
-70.465	-137.214	-0.395	-0.044
-69.451	80.483	0.228	0.239
-68.436	40.943	-0.250	0.220
-67.422	304.359	0.204	-0.369
-66.407	131.615	0.254	-0.318
-65.392	51.707	0.100	0.093
-64.378	-200.000	-0.067	0.368
-63.363	-36.355	-0.082	0.043
-62.349	-4.716	0.111	0.074
-61.334	29.088	-1.259	-1.040
-60.319	61.066	0.680	0.657
-59.305	800.000	-0.334	-1.275
-58.290	232.107	0.738	1.179
-57.276	389.615	0.742	1.497
-56.261	-200.000	128.381	689.692
-55.246	413.049	1611.355	3334.547
-54.232	139.204	2763.914	3538.235
-53.217	95.239	2178.898	2416.077
-52.203	33.616	1693.531	1432.637
-51.188	26.234	1511.133	1228.306
-50.173	24.387	1487.136	1196.377
-49.159	49.520	1560.213	1429.228
-48.144	46.229	1571.925	1417.258
-47.130	26.273	1520.376	1235.892
-46.115	23.373	1504.250	1203.072
-45.100	23.262	1500.636	1199.387
-44.086	23.293	1498.961	1198.208
-43.071	23.232	1496.698	1195.941
-42.057	23.037	1496.161	1194.146
-41.042	22.996	1494.343	1192.370
-40.027	23.104	1492.553	1191.624
-39.013	23.026	1491.476	1190.188
-37.998	23.103	1490.040	1189.516
-36.984	23.062	1489.228	1188.543
-35.969	23.028	1487.653	1187.010
-34.954	23.119	1485.413	1185.788
-33.940	23.111	1484.724	1185.136
-32.925	23.183	1483.254	1184.396
-31.911	23.155	1481.793	1182.996
-30.896	23.207	1480.908	1182.593
-29.881	23.269	1479.320	1181.689
-28.867	23.239	1477.897	1180.305
-27.852	23.119	1476.739	1178.537
-26.838	23.205	1475.757	1178.276
-25.823	23.208	1473.727	1176.627
-24.809	23.212	1472.020	1175.245
-23.794	23.188	1470.920	1174.162
-22.779	23.175	1469.662	1173.028
-21.765	23.142	1468.944	1172.189
-20.750	23.188	1467.608	1171.378
-19.736	23.241	1466.119	1170.495
-18.721	23.174	1465.427	1169.454
-17.706	23.103	1464.599	1168.279
-16.692	23.229	1463.298	1168.027
-15.677	23.181	1462.256	1166.833
-14.663	23.105	1461.670	1165.815
-13.648	23.159	1460.268	1165.006
-12.633	23.134	1459.675	1164.325
-11.619	23.225	1458.784	1164.167
-10.604	23.196	1458.038	1163.332
-9.590	23.130	1457.202	1162.188
-8.575	23.218	1455.861	1161.646
-7.560	23.147	1455.389	1160.760
-6.546	23.178	1454.427	1160.150
-5.531	23.183	1453.775	1159.613
-4.517	23.090	1452.452	1157.907
-3.502	23.188	1451.189	1157.495
-2.487	23.129	1450.947	1156.869
-1.473	23.011	1449.985	1155.285
-0.458	23.108	1448.194	1154.445
0.556	22.097	1438.163	1142.339
1.571	18.620	1413.985	1100.764
2.586	15.001	1352.047	1030.213
3.600	13.183	1268.778	956.167
4.615	12.169	1225.748	917.985
5.629	10.709	1169.814	868.219
6.644	5.670	1089.683	783.524
7.659	1.491	1054.651	738.009
8.673	0.836	1049.285	731.026
9.688	0.661	1046.720	728.328
10.702	0.795	1044.905	727.647
11.717	0.728	1042.618	725.671
12.731	2.543	1043.483	734.922
13.746	8.444	1051.057	768.641
14.761	14.645	1059.156	804.468
15.775	17.208	1062.180	819.064
16.790	17.109	1060.929	817.550
17.804	16.158	1058.474	811.018
18.819	15.304	1056.966	805.686
19.834	14.817	1055.504	802.164
20.848	14.613	1054.505	800.355
21.863	14.268	1053.962	798.220
22.877	14.118	1052.947	796.660
23.892	13.889	1051.917	794.714
24.907	13.770	1051.357	793.654
25.921	13.794	1050.677	793.183
26.936	13.858	1049.791	792.751
27.950	13.843	1049.183	792.148
28.965	13.961	1048.272	791.955
29.980	13.881	1047.596	790.995
30.994	14.036	1046.569	790.883
32.009	13.967	1045.639	789.784
33.023	13.974	1045.081	789.327
34.038	14.160	1043.941	789.279
35.053	14.064	1042.888	787.958
36.067	13.847	1042.484	786.555
37.082	13.782	1041.659	785.555
38.096	13.964	1041.060	785.892
39.111	13.961	1039.910	784.943
40.126	14.044	1038.755	784.391
41.140	14.050	1037.831	783.654
42.155	13.775	1037.525	782.059
43.169	13.773	1036.358	781.098
44.184	13.581	1035.421	779.421
45.199	13.911	1034.320	780.073
46.213	13.703	1033.545	778.442
47.228	13.814	1032.122	777.822
48.242	13.894	1031.034	777.309
49.257	14.012	1030.024	777.030
50.271	13.982	1029.209	776.206
51.286	13.944	1028.169	775.174
52.301	13.994	1027.462	774.809
53.315	13.969	1027.242	774.455
54.330	13.869	1026.059	773.032
55.344	13.977	1025.034	772.693
56.359	13.862	1024.209	771.466
57.374	13.881	1023.800	771.181
58.388	13.868	1022.574	770.126
59.403	13.753	1022.059	769.141
60.417	13.835	1020.972	768.630
61.432	13.882	1020.435	768.375
62.447	13.752	1019.722	767.171
63.461	13.750	1018.951	766.512
64.476	13.749	1017.923	765.671
65.490	13.773	1017.162	765.138
66.505	13.774	1016.220	764.366
67.520	13.825	1015.564	764.042
68.534	13.767	1014.978	763.265
69.549	13.782	1013.940	762.485
70.563	13.866	1012.723	761.892
71.578	13.751	1012.562	761.174
72.593	13.707	1012.029	760.506
73.607	13.822	1010.750	760.002
74.622	13.809	1009.607	759.015
75.636	13.710	1008.630	757.761
76.651	13.755	1007.720	757.218
77.666	13.654	1007.477	756.506
78.680	13.720	1006.442	755.962
79.695	13.603	1006.163	755.153
80.709	13.785	1005.578	755.477
81.724	13.786	1004.546	754.639
82.739	13.825	1003.730	754.136
83.753	13.835	1003.089	753.633
84.768	13.856	1002.411	753.154
85.782	13.941	1001.534	752.813
86.797	13.898	1001.058	752.193
87.812	13.895	1000.188	751.458
88.826	13.957	999.057	750.824
89.841	13.898	998.372	749.975
90.855	13.895	997.719	749.406
91.870	14.029	996.780	749.237
92.884	14.087	995.942	748.804
93.899	14.053	995.595	748.323
94.914	14.094	994.383	747.527
95.928	13.985	994.237	746.861
96.943	14.104	993.356	746.670
97.957	14.150	992.650	746.281
98.972	14.069	991.521	745.002
99.987	14.118	991.158	744.883
101.001	14.215	990.230	744.551
102.016	13.960	989.911	743.105
103.030	14.006	988.787	742.402
104.045	14.002	987.279	741.186
105.060	14.037	986.982	741.057
106.074	13.950	985.757	739.680
107.089	13.990	985.103	739.304
108.103	13.979	984.016	738.374
109.118	13.876	983.342	737.346
110.133	13.759	982.783	736.340
111.147	13.902	981.697	736.097
112.162	13.927	980.697	735.393
113.176	14.065	979.589	735.105
114.191	13.843	979.273	733.825
115.206	13.998	977.824	733.359
116.220	14.051	976.837	732.787
117.235	14.040	976.018	732.055
118.249	13.978	975.606	731.410
119.264	13.956	974.718	730.584
120.279	13.868	973.977	729.578
121.293	13.948	972.906	729.059
122.308	13.861	972.592	728.379
123.322	13.970	971.511	727.983
124.337	13.865	970.419	726.640
125.352	13.876	968.994	725.558
126.366	14.048	967.950	725.461
127.381	13.989	966.788	724.270
128.395	13.880	965.985	723.130
129.410	13.874	965.169	722.430
130.424	13.786	964.607	721.562
131.439	13.940	963.345	721.224
132.454	13.917	962.611	720.511
133.468	13.915	961.955	719.948
134.483	14.036	961.178	719.826
135.497	13.972	960.821	719.219
136.512	13.873	959.896	718.032
137.527	13.925	958.965	717.496
138.541	14.001	958.132	717.137
139.556	13.966	957.440	716.408
140.570	13.900	956.732	715.527
141.585	13.981	955.752	715.084
142.600	14.175	955.085	715.355
143.614	13.993	954.285	713.909
144.629	14.091	953.546	713.713
145.643	14.090	953.292	713.458
146.658	14.035	952.330	712.439
147.673	14.055	951.340	711.721
148.687	14.051	950.510	711.018
149.702	14.070	949.903	710.581
150.716	14.150	948.560	709.856
151.731	14.145	947.677	709.114
152.746	14.159	946.906	708.530
153.760	14.130	946.449	708.004
154.775	14.048	945.918	707.196
155.789	14.167	944.923	706.893
156.804	14.160	944.201	706.262
157.819	14.198	943.347	705.721
158.833	14.276	942.739	705.533
159.848	14.285	942.273	705.162
160.862	14.190	941.801	704.345
161.877	14.173	940.576	703.293
162.892	14.381	939.756	703.497
163.906	14.352	939.117	702.832
164.921	14.181	938.168	701.342
165.935	14.221	936.850	700.462
166.950	14.278	935.922	699.943
167.964	14.345	935.393	699.769
168.979	14.341	934.089	698.715
169.994	14.246	933.327	697.684
171.008	14.277	932.170	696.890
172.023	14.399	931.702	696.985
173.037	14.456	930.779	696.473
174.052	14.400	930.087	695.660
175.067	14.367	929.661	695.144
176.081	14.394	929.159	694.816
177.096	14.323	928.128	693.689
178.110	14.242	927.354	692.714
179.125	14.367	926.338	692.412
180.140	14.304	925.880	691.747
181.154	14.367	924.798	691.138
182.169	14.471	924.187	691.054
183.183	14.550	923.771	691.005
184.198	14.389	923.212	689.862
185.213	14.549	922.162	689.676
186.227	14.675	921.647	689.751
187.242	14.410	921.207	688.268
188.256	14.579	920.493	688.369
189.271	14.429	920.049	687.359
190.286	14.630	919.055	687.385
191.300	14.504	918.255	686.204
192.315	14.291	917.717	684.868
193.329	14.462	917.019	684.987
194.344	14.563	915.934	684.533
195.359	14.526	915.393	683.913
196.373	14.587	914.667	683.561
197.388	14.551	914.562	683.274
198.402	14.585	913.864	682.830
199.417	14.709	913.407	682.937
200.432	14.683	913.106	682.547
201.446	14.740	912.689	682.406
202.461	14.700	912.251	681.855
203.475	14.899	911.387	681.962
204.490	14.884	910.299	681.024
205.504	14.787	910.106	680.425
206.519	14.749	909.353	679.646
207.534	14.749	908.332	678.823
208.548	14.891	907.786	678.935
209.563	14.812	907.160	678.085
210.577	14.791	906.533	677.470
211.592	14.946	905.547	677.302
212.607	14.912	905.192	676.840
213.621	14.843	904.558	676.026
214.636	14.800	904.159	675.495
215.650	14.855	903.184	674.929
216.665	14.908	902.595	674.642
217.680	14.896	902.411	674.398
218.694	15.062	901.636	674.425
219.709	14.955	901.676	673.967
220.723	15.047	900.107	673.103
221.738	15.050	899.954	672.939
222.753	15.082	899.094	672.367
223.767	15.056	898.062	671.430
224.782	15.058	897.595	671.031
225.796	15.097	896.562	670.356
226.811	15.139	896.252	670.231
227.826	15.174	895.176	669.508
228.840	15.158	894.403	668.807
229.855	15.207	893.978	668.627
230.869	15.124	892.922	667.444
231.884	15.169	892.727	667.419
232.899	15.143	891.892	666.631
233.913	15.135	891.309	666.108
234.928	15.107	890.750	665.521
235.942	15.112	890.013	664.927
236.957	15.146	889.226	664.419
237.972	15.173	888.567	663.972
238.986	15.271	887.985	663.867
240.001	15.163	887.513	663.028
241.015	15.296	886.452	662.704
242.030	15.245	886.120	662.194
243.045	15.141	886.064	661.681
244.059	15.331	885.071	661.634
245.074	15.353	884.321	661.100
246.088	15.248	883.569	660.065
247.103	15.329	882.930	659.850
248.117	15.354	882.789	659.782
249.132	15.330	882.085	659.105
250.147	15.409	881.442	658.876
251.161	15.558	880.342	658.581
252.176	15.546	879.940	658.176
253.190	15.355	879.539	657.069
254.205	15.576	878.731	657.271
255.220	15.682	878.426	657.399
256.234	15.480	877.917	656.171
257.249	15.435	877.443	655.584
258.263	15.782	876.170	655.925
259.278	15.803	875.414	655.383
260.293	15.790	874.694	654.735
261.307	15.683	874.674	654.246
262.322	15.802	873.994	654.143
263.336	15.683	873.837	653.507
264.351	15.794	872.866	653.151
265.366	15.777	872.282	652.593
266.380	15.650	872.171	651.957
267.395	15.731	871.086	651.404
268.409	15.835	870.378	651.218
269.424	15.803	869.375	650.288
270.439	15.941	868.493	650.101
271.453	15.906	867.641	649.273
272.468	15.854	867.194	648.678
273.482	15.781	867.158	648.313
274.497	15.922	866.176	648.065
275.512	15.933	865.424	647.486
276.526	15.874	864.669	646.639
277.541	15.924	863.893	646.193
278.555	15.995	863.485	646.101
279.570	15.853	862.869	645.041
280.585	16.102	862.484	645.648
281.599	16.099	861.587	644.909
282.614	16.102	861.158	644.543
283.628	16.157	860.293	644.047
284.643	16.136	859.820	643.555
285.657	16.172	859.362	643.294
286.672	16.188	858.835	642.906
287.687	16.113	858.291	642.152
288.701	16.099	858.315	642.061
289.716	16.187	857.760	641.924
290.730	16.096	856.861	640.848
291.745	16.142	856.046	640.359
292.760	16.231	855.221	640.023
293.774	16.307	854.433	639.665
294.789	16.259	854.440	639.428
295.803	16.334	853.630	639.052
296.818	16.227	853.062	638.165
297.833	16.230	852.022	637.342
298.847	16.285	851.455	637.070
299.862	16.231	851.155	636.585
300.876	16.199	850.263	635.739
301.891	16.418	849.503	635.941
302.906	16.335	848.881	635.105
303.920	16.403	848.205	634.801
304.935	16.445	847.836	634.623
305.949	16.369	847.042	633.689
306.964	16.299	846.766	633.166
307.979	16.519	845.762	633.181
308.993	16.493	845.549	632.867
310.008	16.707	845.028	633.222
311.022	16.488	844.534	631.977
312.037	16.569	843.834	631.702
313.052	16.505	843.266	630.982
314.066	16.552	842.949	630.863
315.081	16.623	842.307	630.593
316.095	16.690	841.851	630.444
317.110	16.607	841.038	629.469
318.125	16.483	840.734	628.728
319.139	16.603	840.349	628.827
320.154	16.619	839.347	628.082
321.168	16.660	839.066	627.968
322.183	16.503	838.659	627.028
323.197	16.622	838.017	626.932
324.212	16.717	837.469	626.819
325.227	16.654	836.924	626.121
326.241	16.664	836.602	625.861
327.256	16.586	835.804	624.921
328.270	16.596	835.291	624.520
329.285	16.648	834.722	624.229
330.300	16.686	834.238	623.954
331.314	16.700	833.579	623.458
332.329	16.642	833.215	622.916
333.343	16.599	832.580	622.229
334.358	16.689	831.943	622.030
335.373	16.683	831.018	621.261
336.387	16.780	830.970	621.526
337.402	16.756	830.433	620.982
338.416	16.837	829.805	620.751
339.431	16.918	829.139	620.495
340.446	16.996	828.604	620.325
341.460	16.886	827.848	619.303
342.475	17.028	827.365	619.405
343.489	17.050	826.904	619.086
344.504	17.004	826.419	618.501
345.519	16.955	826.250	618.139
346.533	17.122	825.492	618.128
347.548	17.065	824.833	617.370
348.562	17.080	824.423	617.065
349.577	16.905	824.082	616.116
350.592	16.965	823.544	615.881
351.606	17.046	822.973	615.690
352.621	17.013	822.562	615.209
353.635	17.083	821.701	614.765
354.650	17.138	821.349	614.645
355.665	17.170	820.900	614.373
356.679	17.135	820.563	613.938
357.694	17.093	820.199	613.458
358.708	17.150	819.729	613.262
359.723	17.175	819.039	612.779
360.738	17.279	818.582	612.760
361.752	17.281	817.727	612.070
362.767	17.303	817.403	611.854
363.781	17.116	817.431	611.147
364.796	17.270	816.895	611.247
365.810	17.345	816.138	610.898
366.825	17.336	815.934	610.655
367.840	17.495	815.158	610.594
368.854	17.459	815.074	610.348
369.869	17.441	814.730	609.970
370.883	17.441	813.964	609.344
371.898	17.385	813.463	608.714
372.913	17.385	812.797	608.160
373.927	17.539	811.989	608.051
374.942	17.570	811.389	607.660
375.956	17.552	810.895	607.173
376.971	17.569	810.736	607.060
377.986	17.576	809.878	606.388
379.000	17.601	809.337	606.021
380.015	17.730	808.921	606.113
381.029	17.725	808.350	605.613
382.044	17.606	807.765	604.699
383.059	17.766	807.148	604.753
384.073	17.803	806.713	604.502
385.088	17.773	806.013	603.817
386.102	17.521	806.197	603.009
387.117	17.679	805.259	602.815
388.132	17.706	804.956	602.629
389.146	17.823	804.519	602.662
390.161	17.782	803.962	602.049
391.175	17.770	803.807	601.835
392.190	17.885	802.973	601.565
393.205	17.868	802.923	601.411
394.219	17.697	802.343	600.321
395.234	17.686	802.184	600.113
396.248	17.693	801.704	599.726
397.263	17.695	801.277	599.359
398.278	17.692	800.558	598.757
399.292	17.619	800.409	598.336
400.307	17.680	799.982	598.177
401.321	17.908	799.505	598.570
402.336	17.708	799.414	597.748
403.350	17.773	798.859	597.506
404.365	17.893	798.206	597.384
405.380	17.871	797.518	596.742
406.394	17.834	797.254	596.361
407.409	17.974	796.768	596.433
408.423	18.022	796.287	596.189
409.438	17.935	795.883	595.531
410.453	18.063	795.203	595.412
411.467	18.171	794.681	595.347
412.482	18.236	794.213	595.168
413.496	17.969	794.089	594.095
414.511	18.157	793.476	594.237
415.526	18.237	792.862	594.003
416.540	18.155	792.925	593.714
417.555	18.113	792.470	593.175
418.569	18.203	791.824	592.950
419.584	18.206	791.516	592.677
420.599	18.170	790.877	592.021
421.613	116.170	1297.368	1490.955
422.628	100.022	1371.120	1491.026
