DTS Sentinel unit serial number:	SN413079Multiplexer serial number:	ORYXHardware model number:	OX4-SRSoftware version number:	ORYX F/W v4.00 Oryx Data Collector v3.7.2.0data status	okinstallation	princeton_trtdifferential loss correction	single-endedforward channel	channel 3reverse channel	N/Adate	2019/09/11time	18:58:11forward acquisition time	60.00reverse acquisition time	0.00gamma	496.2192k internal	0.2291k external	0.2291temperature offset calibration	1.0008default loss term (dB/km)	0.3790temperature slope calibration	1.0000multiplexer offset coefficient	1.0000multiplexer slope coefficient	1.0000fibre end	0.00T internal ref (°C)	42.44T ext. ref 1 (°C)	1.27T ext. ref 2 (°C)	34.63length (m)	temperature (°C)	Stokes	anti-Stokes-747.200	800.000	0.070	-0.302
-746.185	800.000	-0.071	-0.208
-745.171	800.000	0.131	-0.443
-744.156	-4.017	-0.132	0.094
-743.142	146.006	0.041	0.056
-742.127	775.938	0.037	0.104
-741.112	71.470	0.242	-0.257
-740.098	-200.000	-0.056	-0.258
-739.083	-90.982	-0.198	-0.058
-738.069	-200.000	-0.015	0.381
-737.054	-106.379	-0.142	0.033
-736.039	-108.929	-0.221	0.048
-735.025	-200.000	0.020	0.223
-734.010	12.128	-0.294	-0.231
-732.996	-200.000	0.004	-0.095
-731.981	-120.956	-0.272	-0.047
-730.966	163.507	0.241	-0.347
-729.952	22.693	0.088	-0.073
-728.937	437.251	0.006	-0.013
-727.923	800.000	-0.041	-0.127
-726.908	-172.984	0.125	0.004
-725.894	-99.973	-0.191	0.049
-724.879	-34.129	-0.203	-0.114
-723.864	228.051	-0.079	0.132
-722.850	-70.355	-0.073	-0.028
-721.835	71.468	-0.393	-0.417
-720.821	-199.868	0.244	-0.001
-719.806	63.976	-0.066	0.068
-718.791	216.336	-0.215	-0.350
-717.777	-200.000	0.046	-0.261
-716.762	-64.125	-0.416	-0.174
-715.748	-70.294	-0.062	0.024
-714.733	180.884	-0.121	-0.181
-713.718	800.000	-0.073	-0.311
-712.704	-200.000	0.009	-0.254
-711.689	-54.953	-0.360	0.166
-710.675	249.893	-0.219	-0.379
-709.660	511.094	0.050	0.120
-708.645	2.171	-0.260	0.192
-707.631	-120.681	-0.180	-0.031
-706.616	-48.229	-0.072	-0.036
-705.602	-82.583	-0.086	0.028
-704.587	-120.210	0.266	0.046
-703.572	-173.812	0.171	-0.005
-702.558	800.000	0.096	-0.296
-701.543	-46.935	0.107	-0.053
-700.529	800.000	-0.031	0.139
-699.514	-200.000	0.018	0.111
-698.499	-80.802	-0.073	-0.025
-697.485	-100.886	0.215	-0.054
-696.470	56.099	-0.128	0.127
-695.456	-200.000	0.021	-0.195
-694.441	381.628	-0.018	0.037
-693.426	-149.549	-0.114	0.009
-692.412	-200.000	0.018	-0.112
-691.397	800.000	-0.097	-0.374
-690.383	-85.578	-0.237	0.075
-689.368	650.449	-0.064	-0.168
-688.354	-32.717	0.096	0.055
-687.339	-200.000	0.028	-0.189
-686.324	-91.612	0.254	-0.074
-685.310	-200.000	-0.046	0.265
-684.295	-48.072	-0.132	0.065
-683.281	-119.117	-0.388	0.069
-682.266	61.430	0.160	0.162
-681.251	800.000	0.004	0.011
-680.237	-200.000	0.050	0.331
-679.222	497.095	-0.168	0.394
-678.208	744.906	0.027	0.075
-677.193	-200.000	0.021	-0.179
-676.178	320.887	-0.143	0.278
-675.164	-200.000	0.000	-0.055
-674.149	-160.602	0.102	-0.006
-673.135	227.431	0.051	-0.084
-672.120	-137.370	0.193	-0.022
-671.105	6.874	0.078	0.059
-670.091	53.090	0.066	0.065
-669.076	94.632	-0.181	-0.210
-668.062	800.000	-0.119	0.407
-667.047	-46.718	-0.183	0.091
-666.032	-200.000	-0.003	-0.071
-665.018	172.715	-0.117	0.173
-664.003	-144.347	-0.392	0.037
-662.989	-107.624	0.208	0.046
-661.974	627.993	-0.092	-0.237
-660.959	301.166	-0.148	-0.278
-659.945	-172.584	0.076	0.002
-658.930	85.654	0.233	-0.262
-657.916	-92.044	-0.108	-0.031
-656.901	-99.391	-0.388	0.100
-655.886	-82.864	-0.104	-0.034
-654.872	-10.575	0.131	-0.089
-653.857	54.698	-0.149	-0.146
-652.843	-121.154	0.151	0.026
-651.828	-200.000	0.024	-0.127
-650.814	480.290	-0.079	-0.182
-649.799	-50.306	-0.322	0.155
-648.784	-32.109	0.086	-0.049
-647.770	18.906	-0.130	-0.106
-646.755	800.000	0.063	0.216
-645.741	-84.798	-0.175	0.056
-644.726	-82.355	-0.280	-0.093
-643.711	-200.000	0.078	-0.370
-642.697	526.732	-0.059	-0.141
-641.682	-200.000	0.020	-0.171
-640.668	-151.317	-0.070	0.005
-639.653	142.613	0.197	-0.267
-638.638	-17.108	0.228	-0.147
-637.624	800.000	-0.025	0.092
-636.609	-87.288	0.242	0.075
-635.595	366.597	0.053	0.109
-634.580	-59.129	0.040	0.018
-633.565	-74.947	0.375	0.137
-632.551	343.643	-0.051	-0.103
-631.536	800.000	-0.077	-0.219
-630.522	-200.000	0.006	0.050
-629.507	-161.674	-0.386	0.020
-628.492	-200.000	0.031	-0.191
-627.478	439.407	0.144	0.321
-626.463	-131.335	0.303	0.041
-625.449	154.466	-0.153	-0.214
-624.434	-200.000	-0.048	-0.356
-623.419	133.620	0.058	-0.076
-622.405	6.331	-0.134	0.101
-621.390	-163.348	-0.257	-0.013
-620.376	-131.391	0.065	-0.009
-619.361	-200.000	0.025	-0.394
-618.346	-127.753	-0.464	0.068
-617.332	205.510	0.084	0.133
-616.317	-97.888	-0.206	0.054
-615.303	-36.559	0.189	-0.103
-614.288	127.560	-0.073	0.095
-613.273	-81.508	0.252	0.085
-612.259	107.585	0.016	-0.020
-611.244	96.862	-0.159	0.185
-610.230	-118.329	-0.277	-0.050
-609.215	-98.697	0.116	-0.030
-608.201	-100.598	0.196	0.049
-607.186	-200.000	-0.000	0.031
-606.171	800.000	-0.051	0.146
-605.157	-109.774	0.260	0.056
-604.142	-43.010	0.028	-0.015
-603.128	-137.330	0.242	0.028
-602.113	46.943	0.074	-0.070
-601.098	-42.544	-0.267	-0.138
-600.084	186.645	-0.023	0.035
-599.069	-152.893	0.244	-0.018
-598.055	246.123	0.230	-0.394
-597.040	76.221	-0.172	-0.185
-596.025	-52.542	0.130	-0.061
-595.011	10.174	0.213	0.165
-593.996	9.571	-0.200	0.155
-592.982	800.000	0.077	0.245
-591.967	63.253	0.112	0.114
-590.952	-39.097	0.135	-0.072
-589.938	191.081	-0.047	-0.073
-588.923	-200.000	0.005	0.123
-587.909	-200.000	-0.053	-0.327
-586.894	-117.531	0.258	-0.047
-585.879	800.000	-0.017	0.053
-584.865	-200.000	-0.022	0.360
-583.850	-79.970	0.079	0.027
-582.836	-154.162	-0.077	0.005
-581.821	-151.767	-0.040	-0.003
-580.806	-114.544	0.238	0.047
-579.792	-60.418	0.083	-0.036
-578.777	163.783	-0.173	0.248
-577.763	-40.375	-0.136	0.072
-576.748	-95.643	0.144	0.039
-575.733	213.075	0.114	-0.184
-574.719	-156.610	-0.319	-0.020
-573.704	14.145	0.034	-0.027
-572.690	120.291	-0.233	-0.294
-571.675	800.000	0.022	0.066
-570.661	-65.524	-0.148	-0.060
-569.646	-46.385	-0.061	-0.030
-568.631	5.617	-0.138	0.103
-567.617	82.262	-0.073	0.081
-566.602	-32.187	-0.109	-0.062
-565.588	-95.654	0.304	0.083
-564.573	75.731	-0.100	-0.107
-563.558	-78.439	0.234	-0.082
-562.544	-170.150	-0.282	0.010
-561.529	-200.000	0.006	-0.194
-560.515	334.123	-0.239	-0.470
-559.500	14.039	-0.204	-0.162
-558.485	-4.185	0.082	-0.058
-557.471	-200.000	-0.008	0.258
-556.456	772.415	0.090	-0.249
-555.442	115.181	-0.122	-0.151
-554.427	705.457	0.122	-0.326
-553.412	800.000	0.062	-0.175
-552.398	800.000	-0.126	-0.380
-551.383	54.971	0.109	-0.107
-550.369	-103.084	-0.191	0.046
-549.354	-157.156	0.382	0.024
-548.339	-200.000	0.004	-0.037
-547.325	-44.889	-0.148	-0.075
-546.310	800.000	-0.021	-0.067
-545.296	163.310	0.053	-0.075
-544.281	31.526	-0.204	-0.178
-543.266	-200.000	-0.006	-0.072
-542.252	-100.209	0.117	-0.030
-541.237	800.000	0.081	-0.229
-540.223	-42.937	0.040	0.021
-539.208	-63.545	-0.264	-0.110
-538.193	-35.847	-0.037	0.020
-537.179	61.028	0.169	-0.171
-536.164	-200.000	-0.029	0.283
-535.150	-190.982	0.182	0.002
-534.135	205.372	0.140	0.220
-533.121	-200.000	-0.007	-0.121
-532.106	-91.383	0.267	0.078
-531.091	-125.712	-0.246	0.038
-530.077	-96.767	0.249	-0.067
-529.062	-39.178	-0.273	0.146
-528.048	-80.577	0.291	-0.099
-527.033	-149.720	-0.284	0.023
-526.018	-6.329	-0.186	0.129
-525.004	-200.000	0.004	-0.347
-523.989	96.846	0.115	0.134
-522.975	-179.154	-0.170	-0.004
-521.960	360.342	0.047	-0.095
-520.945	177.287	-0.142	0.209
-519.931	2.133	0.121	0.089
-518.916	-163.397	0.147	0.007
-517.902	621.392	0.037	-0.094
-516.887	-59.695	-0.056	-0.024
-515.872	-30.172	0.156	0.090
-514.858	327.431	-0.148	0.288
-513.843	-20.317	-0.177	0.110
-512.829	-200.000	0.012	0.202
-511.814	800.000	-0.064	-0.194
-510.799	191.045	-0.188	-0.286
-509.785	71.838	-0.084	0.089
-508.770	-200.000	-0.029	-0.197
-507.756	632.160	-0.080	-0.206
-506.741	506.340	0.027	0.064
-505.726	800.000	0.049	-0.145
-504.712	321.291	0.095	-0.183
-503.697	-50.773	0.122	0.058
-502.683	1.229	-0.485	0.353
-501.668	-28.216	-0.096	0.056
-500.653	800.000	0.126	-0.442
-499.639	-200.000	-0.016	-0.093
-498.624	21.890	0.301	0.249
-497.610	-140.589	0.342	0.036
-496.595	-96.201	0.184	-0.049
-495.581	-100.640	0.134	-0.034
-494.566	796.899	-0.102	0.284
-493.551	-200.000	-0.040	0.177
-492.537	139.511	-0.197	0.262
-491.522	49.474	-0.187	0.179
-490.508	-200.000	-0.025	-0.465
-489.493	36.706	-0.206	-0.184
-488.478	-93.769	-0.219	0.061
-487.464	800.000	-0.048	-0.189
-486.449	-23.924	0.127	-0.077
-485.435	-200.000	-0.037	0.176
-484.420	-130.707	-0.325	0.044
-483.405	397.023	-0.160	0.338
-482.391	-149.821	0.286	-0.023
-481.376	-115.908	0.562	-0.106
-480.362	269.840	-0.172	-0.307
-479.347	-200.000	0.028	-0.217
-478.332	-105.947	0.292	0.067
-477.318	-183.608	0.123	-0.002
-476.303	215.196	-0.121	-0.195
-475.289	10.362	-0.253	0.195
-474.274	-200.000	-0.003	0.124
-473.259	-200.000	0.007	0.476
-472.245	800.000	0.046	-0.186
-471.230	-200.000	-0.036	0.267
-470.216	-38.065	0.071	0.038
-469.201	-8.460	0.033	0.022
-468.186	-3.157	0.216	-0.153
-467.172	-200.000	0.055	0.516
-466.157	123.225	0.021	0.026
-465.143	-200.000	0.013	-0.324
-464.128	61.508	0.227	0.228
-463.113	241.157	0.101	0.170
-462.099	-35.172	-0.109	-0.060
-461.084	-35.370	-0.061	0.034
-460.070	102.323	0.075	-0.089
-459.055	147.839	0.144	-0.197
-458.040	-200.000	0.013	0.299
-457.026	316.345	-0.118	-0.226
-456.011	-150.848	0.383	0.029
-454.997	800.000	-0.008	0.030
-453.982	518.931	-0.054	0.127
-452.968	476.411	0.049	0.112
-451.953	-200.000	0.058	0.316
-450.938	-156.704	0.063	-0.004
-449.924	-200.000	-0.029	0.258
-448.909	63.055	-0.349	0.354
-447.895	-200.000	0.006	0.039
-446.880	467.150	-0.205	0.466
-445.865	-200.000	0.010	-0.116
-444.851	-102.073	-0.272	0.066
-443.836	-100.613	-0.104	0.026
-442.822	339.844	0.155	0.307
-441.807	800.000	-0.088	0.273
-440.792	-70.960	-0.200	0.076
-439.778	-77.437	-0.140	-0.049
-438.763	-46.609	0.088	-0.044
-437.749	204.786	-0.150	-0.236
-436.734	627.119	-0.166	-0.424
-435.719	-44.887	0.237	-0.119
-434.705	-63.092	-0.171	-0.072
-433.690	87.643	-0.109	0.123
-432.676	457.455	0.071	-0.159
-431.661	-200.000	-0.043	-0.267
-430.646	45.882	-0.129	0.120
-429.632	-128.560	-0.138	-0.020
-428.617	-42.937	0.313	0.161
-427.603	33.867	0.293	-0.258
-426.588	-85.999	0.283	-0.088
-425.573	5.154	-0.125	0.093
-424.559	-58.007	-0.131	0.058
-423.544	40.930	-0.108	-0.098
-422.530	198.737	0.074	0.115
-421.515	2.642	0.249	0.183
-420.500	-106.197	0.353	-0.080
-419.486	-200.000	0.005	0.160
-418.471	136.003	-0.101	0.133
-417.457	-12.512	0.203	-0.134
-416.442	46.893	-0.206	0.194
-415.428	-200.000	-0.013	-0.079
-414.413	309.383	-0.097	0.183
-413.398	-153.884	0.099	-0.007
-412.384	240.561	-0.073	0.123
-411.369	800.000	-0.018	-0.070
-410.355	-200.000	0.001	0.110
-409.340	-200.000	0.010	-0.172
-408.325	41.649	-0.096	-0.088
-407.311	800.000	-0.029	-0.094
-406.296	49.351	0.312	0.297
-405.282	55.467	0.323	-0.316
-404.267	-200.000	-0.030	-0.167
-403.252	-200.000	0.004	0.238
-402.238	6.859	-0.140	0.105
-401.223	-46.232	-0.309	-0.153
-400.209	-200.000	0.054	-0.301
-399.194	-111.900	-0.176	-0.036
-398.179	121.642	0.264	0.332
-397.165	109.010	-0.227	0.274
-396.150	81.068	-0.058	0.063
-395.136	-158.835	-0.175	-0.010
-394.121	-200.000	0.021	0.308
-393.106	-124.163	-0.217	0.034
-392.092	16.884	-0.049	0.039
-391.077	551.143	-0.079	0.192
-390.063	-91.613	-0.061	-0.017
-389.048	71.169	0.077	-0.080
-388.033	42.760	0.252	-0.232
-387.019	-57.009	-0.225	-0.100
-386.004	105.474	-0.038	-0.045
-384.990	-138.985	0.058	0.006
-383.975	800.000	-0.048	-0.188
-382.960	-100.790	0.254	-0.063
-381.946	111.806	0.064	0.078
-380.931	19.851	-0.200	-0.163
-379.917	-46.996	0.029	-0.014
-378.902	-103.089	-0.241	0.058
-377.888	800.000	0.026	0.078
-376.873	186.486	0.056	-0.085
-375.858	-120.009	-0.233	0.040
-374.844	484.190	0.165	0.380
-373.829	651.502	-0.075	-0.193
-372.815	-3.765	-0.439	0.308
-371.800	-117.611	-0.115	0.021
-370.785	-200.000	0.021	-0.142
-369.771	800.000	0.045	0.130
-368.756	-200.000	0.020	-0.210
-367.742	260.764	-0.114	0.198
-366.727	30.307	-0.066	-0.057
-365.712	-89.295	0.306	-0.091
-364.698	243.610	0.073	0.123
-363.683	-103.315	-0.186	0.044
-362.669	-97.812	-0.173	-0.045
-361.654	-200.000	-0.005	-0.151
-360.639	-143.173	-0.168	-0.016
-359.625	-48.354	-0.029	-0.014
-358.610	415.130	0.036	0.078
-357.596	-132.532	-0.092	0.012
-356.581	-50.110	0.105	-0.050
-355.566	236.566	0.268	-0.448
-354.552	493.383	0.111	0.256
-353.537	-48.574	-0.238	-0.116
-352.523	-200.000	0.009	0.403
-351.508	-117.114	-0.325	0.060
-350.493	-40.165	0.320	-0.168
-349.479	800.000	-0.022	-0.096
-348.464	-94.104	-0.047	-0.013
-347.450	-69.806	-0.111	-0.043
-346.435	800.000	-0.075	0.328
-345.420	-200.000	0.029	0.368
-344.406	-14.571	0.151	0.098
-343.391	-150.473	-0.270	0.021
-342.377	145.063	-0.184	-0.248
-341.362	-145.564	-0.053	0.005
-340.348	445.542	0.133	0.296
-339.333	800.000	-0.047	-0.138
-338.318	122.122	-0.108	-0.136
-337.304	-62.320	0.139	-0.058
-336.289	-200.000	-0.018	-0.336
-335.275	-81.202	-0.206	-0.069
-334.260	739.979	-0.034	-0.091
-333.245	-200.000	-0.026	-0.241
-332.231	-200.000	-0.006	0.088
-331.216	-163.866	-0.335	-0.016
-330.202	-112.232	0.170	-0.034
-329.187	-123.535	-0.401	0.064
-328.172	193.581	-0.067	0.102
-327.158	36.148	-0.227	0.202
-326.143	-145.787	0.364	-0.033
-325.129	-40.311	0.287	0.150
-324.114	347.790	-0.074	0.148
-323.099	-200.000	-0.020	-0.212
-322.085	-81.621	-0.240	0.079
-321.070	-200.000	0.008	0.115
-320.056	-38.424	-0.295	-0.157
-319.041	-174.076	-0.114	0.003
-318.026	-200.000	-0.024	0.134
-317.012	-157.014	-0.278	-0.017
-315.997	35.482	0.300	0.265
-314.983	-200.000	-0.042	0.231
-313.968	-54.335	-0.121	-0.055
-312.953	-200.000	-0.029	-0.137
-311.939	-7.057	0.126	0.086
-310.924	-174.521	-0.147	0.004
-309.910	167.355	0.096	0.138
-308.895	800.000	0.066	0.218
-307.880	375.302	0.093	-0.191
-306.866	-174.691	0.304	0.009
-305.851	-73.619	-0.337	-0.123
-304.837	-174.291	-0.069	0.002
-303.822	171.431	0.202	-0.291
-302.807	207.748	0.200	-0.315
-301.793	301.359	0.111	-0.206
-300.778	344.875	0.121	-0.238
-299.764	-31.723	-0.143	0.081
-298.749	-100.027	0.486	-0.122
-297.735	12.745	0.079	0.061
-296.720	337.535	-0.055	-0.108
-295.705	8.673	0.197	-0.149
-294.691	800.000	0.081	-0.258
-293.676	-95.773	0.209	0.056
-292.662	-119.870	0.172	0.030
-291.647	-85.734	0.345	0.108
-290.632	-91.776	0.250	-0.071
-289.618	-18.349	-0.305	-0.192
-288.603	-168.124	-0.268	0.010
-287.589	247.081	0.159	0.270
-286.574	551.384	0.144	0.347
-285.559	-14.616	-0.163	-0.106
-284.545	478.364	0.009	0.020
-283.530	589.073	0.036	0.088
-282.516	46.994	-0.144	-0.135
-281.501	73.153	-0.155	0.163
-280.486	318.619	-0.088	-0.167
-279.472	-144.013	0.055	0.005
-278.457	131.082	-0.086	-0.111
-277.443	296.137	0.079	0.145
-276.428	-102.573	0.206	0.049
-275.413	-137.200	-0.334	-0.038
-274.399	-8.505	0.432	-0.292
-273.384	182.462	0.130	0.192
-272.370	-150.166	0.319	0.025
-271.355	56.147	-0.076	0.074
-270.340	-78.120	0.196	-0.068
-269.326	-51.141	0.339	-0.159
-268.311	-200.000	-0.012	-0.194
-267.297	687.785	-0.075	-0.198
-266.282	99.667	-0.137	-0.160
-265.267	-197.778	-0.243	-0.001
-264.253	-88.886	0.151	0.045
-263.238	800.000	0.081	0.310
-262.224	115.107	-0.043	0.053
-261.209	-53.032	-0.257	-0.119
-260.195	355.151	0.171	0.341
-259.180	11.407	0.180	-0.139
-258.165	47.301	0.100	0.093
-257.151	168.378	0.030	-0.043
-256.136	-200.000	-0.042	0.238
-255.122	-181.529	-0.265	-0.005
-254.107	-68.685	0.150	-0.058
-253.092	-200.000	-0.011	0.093
-252.078	306.281	0.061	0.114
-251.063	-200.000	-0.031	0.400
-250.049	-24.458	-0.240	0.144
-249.034	800.000	0.015	-0.049
-248.019	-139.187	-0.109	0.012
-247.005	2.763	-0.117	-0.085
-245.990	800.000	-0.040	0.169
-244.976	-200.000	0.001	-0.178
-243.961	-200.000	-0.009	-0.172
-242.946	-93.190	-0.151	0.042
-241.932	800.000	0.100	0.344
-240.917	-154.272	0.156	-0.011
-239.903	242.804	0.126	0.211
-238.888	11.982	-0.178	-0.138
-237.873	3.616	-0.038	-0.028
-236.859	-37.347	0.197	-0.106
-235.844	-42.544	0.118	-0.061
-234.830	-200.000	0.016	-0.136
-233.815	689.022	-0.095	0.248
-232.800	-63.913	0.271	0.111
-231.786	8.472	-0.167	-0.126
-230.771	-200.000	0.025	0.261
-229.757	-37.589	-0.048	-0.026
-228.742	-200.000	0.011	-0.169
-227.727	54.762	-0.204	0.197
-226.713	324.836	0.073	-0.139
-225.698	263.337	0.107	-0.186
-224.684	800.000	-0.015	0.061
-223.669	286.106	-0.069	0.125
-222.655	172.153	0.199	0.286
-221.640	423.694	0.097	0.209
-220.625	-76.239	0.025	0.009
-219.611	-51.931	-0.264	0.123
-218.596	-200.000	-0.135	0.000
-217.582	498.609	0.072	0.166
-216.567	-2.763	-0.276	0.193
-215.552	-200.000	0.007	-0.066
-214.538	-40.898	-0.129	-0.067
-213.523	800.000	-0.053	0.212
-212.509	554.916	0.121	0.292
-211.494	15.067	0.105	-0.083
-210.479	79.661	0.101	0.109
-209.465	800.000	-0.076	-0.263
-208.450	69.388	0.238	0.246
-207.436	-200.000	-0.008	-0.051
-206.421	264.304	0.148	0.258
-205.406	-188.730	-0.332	0.004
-204.392	116.562	-0.125	0.153
-203.377	-156.361	0.216	-0.014
-202.363	2.060	0.187	0.136
-201.348	800.000	-0.014	-0.041
-200.333	110.422	-0.272	0.328
-199.319	800.000	0.021	0.076
-198.304	-200.000	0.067	0.448
-197.290	-17.790	-0.095	0.060
-196.275	91.753	-0.050	-0.056
-195.260	444.819	-0.030	0.067
-194.246	-52.637	0.246	-0.114
-193.231	16.921	0.258	-0.205
-192.217	800.000	0.065	-0.232
-191.202	-138.772	0.202	0.022
-190.187	-200.000	0.021	0.311
-189.173	13.988	-0.238	-0.185
-188.158	-62.711	0.160	0.066
-187.144	197.603	-0.186	-0.284
-186.129	800.000	0.019	-0.058
-185.114	800.000	-0.111	-0.402
-184.100	-113.287	-0.274	0.054
-183.085	-51.881	0.128	-0.060
-182.071	-20.407	-0.371	0.228
-181.056	-128.777	0.108	0.015
-180.042	-151.558	0.240	-0.018
-179.027	-104.138	0.067	-0.016
-178.012	-61.181	0.206	0.087
-176.998	-79.485	-0.244	0.083
-175.983	800.000	-0.052	-0.217
-174.969	75.252	0.134	-0.142
-173.954	332.791	0.085	0.164
-172.939	-50.661	-0.349	-0.165
-171.925	-112.776	0.115	0.023
-170.910	-97.869	0.228	-0.059
-169.896	1.628	0.274	-0.198
-168.881	13.705	0.208	0.162
-167.866	-194.369	-0.184	-0.001
-166.852	-87.659	-0.130	-0.039
-165.837	115.047	-0.103	-0.126
-164.823	-194.402	-0.213	0.002
-163.808	320.996	0.177	-0.337
-162.793	-200.000	0.011	-0.154
-161.779	140.333	0.208	-0.274
-160.764	507.672	-0.122	-0.284
-159.750	-78.128	-0.098	0.034
-158.735	-135.180	0.288	-0.035
-157.720	800.000	0.065	-0.268
-156.706	564.798	0.040	0.097
-155.691	800.000	-0.110	0.410
-154.677	-200.000	0.004	0.102
-153.662	800.000	0.058	-0.222
-152.647	-74.022	0.399	-0.145
-151.633	190.755	-0.089	-0.134
-150.618	-134.395	0.326	0.040
-149.604	540.318	-0.091	-0.216
-148.589	-66.788	0.065	-0.026
-147.574	-200.000	-0.003	-0.054
-146.560	-200.000	0.015	0.145
-145.545	-171.018	-0.249	-0.008
-144.531	-163.642	0.137	-0.006
-143.516	800.000	0.037	0.148
-142.502	-110.654	0.401	-0.083
-141.487	149.000	0.147	-0.198
-140.472	21.682	0.185	-0.151
-139.458	-83.907	-0.195	0.062
-138.443	25.372	0.125	-0.104
-137.429	-123.535	0.386	0.061
-136.414	-59.655	0.272	0.117
-135.399	-200.000	-0.001	-0.016
-134.385	3.666	-0.170	0.124
-133.370	-141.412	-0.201	0.020
-132.356	-20.451	-0.203	-0.125
-131.341	-25.826	0.179	-0.106
-130.326	-112.996	-0.354	-0.070
-129.312	-200.000	-0.004	-0.071
-128.297	-200.000	-0.024	0.211
-127.283	263.484	-0.174	0.303
-126.268	-200.000	-0.004	-0.184
-125.253	140.625	0.170	-0.224
-124.239	-152.168	0.177	0.013
-123.224	-200.000	0.020	-0.260
-122.210	-185.281	0.148	-0.002
-121.195	-71.380	0.249	0.093
-120.180	-29.062	0.116	-0.066
-119.166	-200.000	0.005	-0.273
-118.151	543.423	0.149	-0.355
-117.137	673.660	0.094	-0.243
-116.122	53.103	0.256	0.245
-115.107	118.598	0.090	0.112
-114.093	29.375	0.097	-0.083
-113.078	3.795	0.303	0.221
-112.064	-93.293	0.167	-0.046
-111.049	800.000	0.055	-0.187
-110.034	-93.268	0.113	0.031
-109.020	-68.891	0.327	-0.126
-108.005	5.598	-0.154	-0.114
-106.991	91.579	0.171	0.192
-105.976	800.000	-0.015	-0.055
-104.962	-188.595	0.180	-0.002
-103.947	-96.266	-0.226	-0.060
-102.932	800.000	-0.070	0.193
-101.918	-200.000	0.030	0.261
-100.903	293.863	-0.049	-0.090
-99.889	274.198	0.202	0.356
-98.874	800.000	0.083	0.235
-97.859	-8.582	-0.364	0.244
-96.845	248.371	-0.152	0.257
-95.830	-139.717	0.082	-0.009
-94.816	-123.930	-0.022	0.003
-93.801	-122.783	-0.138	0.022
-92.786	-153.158	-0.405	0.028
-91.772	800.000	-0.039	-0.154
-90.757	-200.000	0.024	0.503
-89.743	-113.351	-0.188	0.037
-88.728	106.320	0.185	-0.219
-87.713	-200.000	0.006	0.054
-86.699	5.724	-0.464	0.343
-85.684	-44.608	-0.227	0.113
-84.670	255.215	0.226	-0.387
-83.655	-15.040	-0.167	-0.107
-82.640	52.975	-0.296	-0.282
-81.626	22.604	0.051	-0.042
-80.611	181.530	-0.140	0.206
-79.597	800.000	0.058	0.204
-78.582	-200.000	0.018	-0.089
-77.567	800.000	0.092	-0.342
-76.553	800.000	0.116	-0.421
-75.538	143.549	-0.042	-0.056
-74.524	-10.424	0.350	0.231
-73.509	800.000	-0.050	0.190
-72.494	374.300	0.090	-0.182
-71.480	-62.540	-0.368	-0.152
-70.465	-116.767	-0.234	-0.043
-69.451	205.930	0.089	-0.137
-68.436	-141.228	0.384	-0.039
-67.422	-200.000	0.007	0.148
-66.407	-89.041	0.322	0.095
-65.392	800.000	0.091	0.347
-64.378	132.150	-0.040	0.051
-63.363	-130.614	-0.414	-0.056
-62.349	146.071	-0.093	-0.124
-61.334	155.786	-0.682	-0.937
-60.319	104.594	0.317	0.372
-59.305	77.489	-0.288	-0.305
-58.290	411.301	0.417	0.882
-57.276	457.019	0.782	1.730
-56.261	-200.000	76.157	523.535
-55.246	547.076	1312.416	3130.001
-54.232	146.869	2538.777	3402.000
-53.217	120.544	2229.880	2760.992
-52.203	53.726	1750.253	1674.840
-51.188	46.006	1546.473	1426.430
-50.173	43.049	1517.011	1379.001
-49.159	59.960	1553.666	1529.386
-48.144	66.573	1572.876	1593.785
-47.130	46.444	1536.964	1420.456
-46.115	42.667	1522.207	1380.881
-45.100	42.520	1519.162	1377.054
-44.086	42.457	1517.154	1374.747
-43.071	42.383	1515.363	1372.567
-42.057	42.394	1513.369	1370.777
-41.042	42.364	1511.849	1369.144
-40.027	42.244	1510.690	1367.226
-39.013	42.390	1508.751	1366.405
-37.998	42.373	1507.593	1365.189
-36.984	42.457	1506.325	1364.560
-35.969	42.469	1504.720	1363.133
-34.954	42.511	1503.124	1361.915
-33.940	42.511	1501.872	1360.730
-32.925	42.380	1500.778	1358.798
-31.911	42.414	1499.302	1357.637
-30.896	42.598	1497.212	1356.934
-29.881	42.570	1496.096	1355.676
-28.867	42.482	1495.243	1354.259
-27.852	42.602	1493.737	1353.646
-26.838	42.473	1492.839	1351.910
-25.823	42.496	1490.868	1350.231
-24.809	42.396	1489.209	1347.996
-23.794	42.448	1487.854	1347.066
-22.779	42.416	1486.538	1345.612
-21.765	42.501	1485.336	1345.041
-20.750	42.491	1484.398	1344.069
-19.736	42.431	1483.190	1342.518
-18.721	42.472	1482.113	1341.766
-17.706	42.429	1480.734	1340.173
-16.692	42.400	1479.920	1339.193
-15.677	42.444	1478.626	1338.262
-14.663	42.470	1477.982	1337.801
-13.648	42.386	1476.741	1336.068
-12.633	42.368	1475.891	1335.119
-11.619	42.430	1475.206	1334.859
-10.604	42.368	1474.492	1333.752
-9.590	42.409	1473.097	1332.709
-8.575	42.370	1472.527	1331.878
-7.560	42.328	1471.553	1330.668
-6.546	42.388	1470.960	1330.475
-5.531	42.447	1469.698	1329.671
-4.517	42.304	1469.201	1328.223
-3.502	42.366	1467.920	1327.422
-2.487	42.383	1466.747	1326.420
-1.473	42.294	1465.765	1324.895
-0.458	42.397	1464.267	1324.165
0.556	41.619	1454.809	1311.468
1.571	37.872	1426.609	1261.742
2.586	33.140	1363.639	1176.581
3.600	30.730	1280.841	1090.936
4.615	28.926	1232.015	1039.075
5.629	24.093	1174.621	964.472
6.644	12.250	1083.550	830.075
7.659	2.938	1036.682	748.872
8.673	1.508	1030.532	737.428
9.688	1.230	1027.545	733.882
10.702	1.176	1026.185	732.584
11.717	1.167	1024.778	731.473
12.731	4.886	1029.449	752.737
13.746	15.518	1043.902	815.092
14.761	22.924	1053.558	858.699
15.775	23.927	1053.868	863.751
16.790	24.070	1053.494	864.064
17.804	23.834	1052.458	861.991
18.819	23.665	1051.755	860.519
19.834	23.710	1051.118	860.140
20.848	23.814	1050.735	860.256
21.863	23.971	1050.105	860.424
22.877	23.879	1050.041	859.851
23.892	23.824	1049.407	858.990
24.907	23.721	1048.512	857.682
25.921	23.870	1047.960	857.872
26.936	23.851	1046.862	856.806
27.950	23.861	1045.554	855.707
28.965	23.692	1044.730	854.147
29.980	23.758	1043.172	853.113
30.994	23.544	1042.141	851.169
32.009	23.788	1041.357	851.621
33.023	23.860	1040.942	851.552
34.038	23.758	1039.515	849.820
35.053	23.661	1038.516	848.469
36.067	23.792	1038.018	848.609
37.082	23.798	1037.369	848.034
38.096	23.904	1036.501	847.752
39.111	23.983	1036.112	847.736
40.126	24.059	1035.453	847.486
41.140	23.994	1033.795	845.743
42.155	23.658	1032.508	843.021
43.169	23.447	1031.342	840.995
44.184	23.360	1030.368	839.713
45.199	23.448	1029.274	839.164
46.213	23.379	1028.450	838.090
47.228	23.324	1027.563	837.035
48.242	23.530	1027.192	837.628
49.257	23.612	1026.663	837.512
50.271	23.738	1025.553	837.128
51.286	23.772	1025.127	836.864
52.301	23.801	1024.564	836.468
53.315	23.914	1023.441	836.009
54.330	23.882	1022.890	835.332
55.344	23.778	1022.287	834.279
56.359	23.863	1020.880	833.453
57.374	23.792	1020.104	832.414
58.388	23.573	1018.968	830.389
59.403	23.636	1018.633	830.339
60.417	23.679	1018.065	830.000
61.432	23.479	1017.316	828.387
62.447	23.424	1016.745	827.588
63.461	23.491	1016.051	827.265
64.476	23.621	1014.953	826.904
65.490	23.505	1014.323	825.776
66.505	23.465	1013.474	824.824
67.520	23.593	1012.105	824.232
68.534	23.645	1011.591	823.981
69.549	23.396	1010.908	822.198
70.563	23.170	1009.565	819.984
71.578	23.122	1008.803	819.071
72.593	23.166	1008.005	818.558
73.607	22.996	1006.689	816.629
74.622	22.894	1005.590	815.193
75.636	23.217	1005.138	816.244
76.651	23.317	1004.971	816.500
77.666	23.238	1004.041	815.310
78.680	23.230	1002.756	814.156
79.695	23.172	1002.579	813.673
80.709	23.287	1001.833	813.525
81.724	23.442	1000.730	813.268
82.739	23.338	999.855	812.006
83.753	23.435	998.941	811.635
84.768	23.652	998.642	812.317
85.782	24.005	998.478	813.723
86.797	24.177	997.268	813.454
87.812	24.015	996.801	812.262
88.826	23.784	995.668	810.214
89.841	24.020	994.383	810.168
90.855	24.158	994.065	810.466
91.870	24.065	993.449	809.471
92.884	24.055	992.625	808.680
93.899	23.946	991.777	807.426
94.914	23.835	990.708	805.980
95.928	23.942	989.884	805.722
96.943	24.026	989.263	805.527
97.957	23.783	987.940	803.280
98.972	23.426	987.031	800.857
99.987	23.325	985.866	799.383
101.001	23.397	985.541	799.374
102.016	23.734	984.744	800.176
103.030	23.743	984.334	799.812
104.045	23.655	982.991	798.255
105.060	23.560	981.658	796.676
106.074	23.473	980.554	795.318
107.089	23.408	980.002	794.507
108.103	23.746	979.422	795.483
109.118	23.830	978.697	795.199
110.133	23.495	977.630	792.762
111.147	23.559	976.531	792.088
112.162	23.379	975.670	790.518
113.176	23.302	974.240	788.945
114.191	23.360	973.611	788.625
115.206	23.410	973.122	788.381
116.220	23.184	971.925	786.339
117.235	23.040	970.965	784.851
118.249	23.190	970.487	785.060
119.264	23.278	969.520	784.600
120.279	23.186	968.487	783.286
121.293	23.105	967.990	782.458
122.308	23.172	967.466	782.262
123.322	23.107	966.622	781.221
124.337	23.173	965.398	780.456
125.352	23.135	964.337	779.359
126.366	22.837	962.753	776.700
127.381	22.347	961.596	773.547
128.395	22.828	961.384	775.421
129.410	23.549	960.657	777.926
130.424	23.675	960.254	778.087
131.439	23.659	959.004	776.934
132.454	23.690	958.348	776.468
133.468	23.698	957.559	775.796
134.483	23.696	956.540	774.895
135.497	23.654	955.992	774.199
136.512	23.856	955.153	774.331
137.527	24.002	954.460	774.334
138.541	23.882	954.114	773.464
139.556	24.040	953.530	773.608
140.570	24.072	952.512	772.851
141.585	24.019	951.354	771.613
142.600	24.219	950.949	772.085
143.614	23.941	950.068	770.098
144.629	23.997	949.296	769.647
145.643	24.415	948.310	770.585
146.658	24.167	947.631	768.895
147.673	23.998	946.451	767.141
148.687	23.986	945.354	766.132
149.702	23.849	944.211	764.547
150.716	23.812	943.368	763.637
151.731	23.627	942.804	762.320
152.746	23.873	941.605	762.339
153.760	24.062	940.852	762.472
154.775	24.067	940.090	761.806
155.789	24.172	939.531	761.735
156.804	24.154	938.203	760.517
157.819	24.028	937.607	759.428
158.833	23.938	936.921	758.420
159.848	24.160	936.239	758.745
160.862	24.166	935.486	758.095
161.877	24.142	934.405	757.052
162.892	23.910	933.642	755.380
163.906	24.055	932.994	755.403
164.921	24.068	932.275	754.809
165.935	23.914	930.918	752.991
166.950	23.957	930.139	752.476
167.964	24.072	928.946	751.931
168.979	24.006	927.870	750.716
169.994	23.998	926.946	749.870
171.008	23.940	925.761	748.601
172.023	23.953	925.041	748.004
173.037	24.100	924.654	748.242
174.052	23.973	923.232	746.496
175.067	23.861	922.101	745.046
176.081	23.648	921.983	743.991
177.096	23.772	920.977	743.630
178.110	23.838	920.176	743.195
179.125	23.689	919.004	741.561
180.140	23.427	917.651	739.313
181.154	23.485	917.316	739.216
182.169	23.671	916.783	739.497
183.183	23.764	916.586	739.662
184.198	24.087	916.486	740.858
185.213	24.040	915.453	739.761
186.227	23.971	914.923	738.983
187.242	23.991	914.421	738.593
188.256	24.114	913.731	738.482
189.271	24.055	912.916	737.513
190.286	24.080	912.336	737.081
191.300	24.135	911.255	736.371
192.315	23.371	910.229	732.322
193.329	22.756	908.467	728.302
194.344	22.352	907.140	725.510
195.359	22.974	907.354	728.178
196.373	23.719	908.031	731.729
197.388	23.858	907.685	731.959
198.402	23.792	907.159	731.196
199.417	23.882	906.536	731.001
200.432	23.939	906.107	730.822
201.446	23.790	905.629	729.762
202.461	23.414	904.964	727.618
203.475	23.576	904.215	727.614
204.490	23.357	902.696	725.431
205.504	22.092	900.479	718.417
206.519	22.429	900.701	719.907
207.534	23.431	900.841	724.050
208.548	23.559	900.503	724.237
209.563	23.906	900.092	725.259
210.577	23.903	899.771	724.925
211.592	23.661	898.725	723.033
212.607	24.055	898.635	724.500
213.621	24.170	898.365	724.685
214.636	24.101	897.631	723.749
215.650	24.112	896.622	722.915
216.665	24.102	896.086	722.380
217.680	24.108	895.819	722.126
218.694	24.277	895.320	722.342
219.709	23.810	894.523	719.744
220.723	23.434	893.632	717.442
221.738	23.762	893.014	718.208
222.753	23.954	892.624	718.610
223.767	23.887	891.416	717.303
224.782	23.990	890.966	717.293
225.796	24.099	890.519	717.307
226.811	24.206	889.858	717.142
227.826	23.853	888.929	714.911
228.840	23.060	887.293	710.347
229.855	22.908	886.585	709.109
230.869	23.350	885.948	710.308
231.884	22.823	885.131	707.478
232.899	22.873	885.126	707.611
233.913	23.514	885.638	710.529
234.928	23.957	884.736	711.514
235.942	23.811	883.970	710.251
236.957	23.894	883.166	709.873
237.972	23.532	882.393	707.744
238.986	23.346	881.884	706.533
240.001	23.569	881.133	706.758
241.015	23.509	880.403	705.870
242.030	23.718	879.649	706.033
243.045	23.954	879.337	706.659
244.059	23.829	878.911	705.757
245.074	24.007	878.581	706.137
246.088	24.047	877.597	705.441
247.103	23.640	876.764	703.098
248.117	23.511	876.577	702.376
249.132	24.078	876.394	704.410
250.147	24.571	876.140	706.094
251.161	24.538	875.693	705.542
252.176	24.602	875.313	705.425
253.190	24.656	874.514	704.932
254.205	24.855	873.779	705.058
255.220	24.986	873.539	705.320
256.234	25.085	872.688	704.960
257.249	25.021	872.206	704.255
258.263	24.847	871.602	703.021
259.278	24.738	871.249	702.248
260.293	24.860	870.594	702.136
261.307	24.970	870.186	702.175
262.322	24.882	869.397	701.133
263.336	24.745	868.502	699.815
264.351	24.299	867.291	697.034
265.366	23.087	865.805	691.042
266.380	22.673	864.638	688.434
267.395	23.527	864.981	691.982
268.409	24.485	865.153	695.794
269.424	24.258	864.628	694.425
270.439	24.340	864.333	694.448
271.453	24.518	863.888	694.718
272.468	24.642	862.926	694.366
273.482	24.692	862.779	694.382
274.497	24.842	862.359	694.564
275.512	24.719	861.056	692.974
276.526	24.167	859.723	689.707
277.541	24.190	859.282	689.382
278.555	24.636	858.736	690.606
279.570	24.516	858.529	689.914
280.585	24.316	857.888	688.566
281.599	24.317	857.649	688.318
282.614	24.599	856.651	688.543
283.628	24.199	855.570	686.071
284.643	23.786	854.804	683.810
285.657	24.102	854.960	685.087
286.672	23.973	854.139	683.875
287.687	23.699	853.092	681.921
288.701	23.861	853.257	682.617
289.716	24.315	852.937	684.041
290.730	23.875	852.218	681.720
291.745	23.823	850.991	680.477
292.760	23.677	850.484	679.454
293.774	23.387	850.305	678.142
294.789	24.436	850.366	682.141
295.803	25.151	850.246	684.714
296.818	25.095	849.992	684.236
297.833	25.146	850.013	684.388
298.847	24.966	848.284	682.249
299.862	24.680	847.178	680.210
300.876	24.907	846.717	680.646
301.891	24.996	846.686	680.899
302.906	25.212	845.818	680.960
303.920	24.785	844.904	678.542
304.935	24.627	844.320	677.417
305.949	24.921	844.181	678.358
306.964	25.126	843.519	678.544
307.979	24.832	842.764	676.762
308.993	24.842	842.014	676.138
310.008	25.223	841.947	677.465
311.022	25.465	841.828	678.220
312.037	25.172	841.224	676.570
313.052	24.758	840.604	674.452
314.066	24.790	839.894	673.940
315.081	24.058	838.360	669.899
316.095	23.582	836.860	666.852
317.110	23.855	837.268	668.146
318.125	24.606	837.990	671.486
319.139	24.421	836.473	669.514
320.154	23.287	834.631	663.735
321.168	22.799	833.802	661.189
322.183	23.322	834.014	663.258
323.197	24.348	834.758	667.633
324.212	24.685	834.275	668.450
325.227	24.861	833.768	668.639
326.241	25.049	833.605	669.153
327.256	24.937	832.987	668.179
328.270	24.719	832.719	667.091
329.285	24.608	831.666	665.776
330.300	24.613	830.676	664.942
331.314	24.283	829.955	663.081
332.329	24.486	829.334	663.278
333.343	24.670	829.221	663.813
334.358	25.091	828.575	664.800
335.373	25.009	828.453	664.338
336.387	24.931	827.906	663.552
337.402	25.239	827.725	664.490
338.416	25.464	827.221	664.859
339.431	25.472	826.654	664.373
340.446	25.442	826.034	663.705
341.460	25.688	825.435	664.073
342.475	25.786	824.866	663.919
343.489	25.333	824.064	661.544
344.504	25.345	824.004	661.482
345.519	25.702	823.563	662.386
346.533	25.859	823.270	662.668
347.548	25.852	822.785	662.194
348.562	25.855	822.154	661.637
349.577	25.864	821.923	661.425
350.592	25.777	821.627	660.810
351.606	25.656	821.209	659.971
352.621	25.697	820.502	659.495
353.635	25.631	819.897	658.710
354.650	25.551	819.491	658.032
355.665	25.279	818.046	655.818
356.679	24.216	816.986	651.029
357.694	23.996	816.373	649.683
358.708	24.686	816.135	651.950
359.723	24.779	815.418	651.660
360.738	24.876	815.265	651.833
361.752	25.335	815.336	653.503
362.767	25.525	814.803	653.709
363.781	25.694	814.496	654.019
364.796	26.019	814.570	655.202
365.810	26.015	814.176	654.813
366.825	26.311	813.582	655.349
367.840	26.271	813.186	654.828
368.854	25.984	812.766	653.394
369.869	25.566	811.822	651.065
370.883	25.379	810.971	649.645
371.898	25.478	810.554	649.613
372.913	25.413	810.131	648.980
373.927	25.438	809.411	648.438
374.942	25.666	808.735	648.659
375.956	25.696	808.295	648.359
376.971	25.683	808.000	648.018
377.986	25.898	807.399	648.253
379.000	26.104	807.141	648.728
380.015	26.163	806.357	648.253
381.029	25.947	805.953	647.095
382.044	25.961	805.454	646.687
383.059	26.121	804.802	646.678
384.073	26.137	804.184	646.183
385.088	26.022	804.245	645.764
386.102	26.155	803.276	645.403
387.117	26.000	802.267	643.981
388.132	25.889	801.979	643.299
389.146	25.574	801.473	641.710
390.161	25.130	800.692	639.448
391.175	25.219	800.054	639.197
392.190	25.663	800.356	640.963
393.205	25.786	799.768	640.875
394.219	24.832	797.983	635.997
395.234	23.265	795.613	628.495
396.248	22.526	794.568	624.995
397.263	23.427	795.339	628.744
398.278	25.273	796.833	636.422
399.292	25.740	796.609	637.841
400.307	25.466	796.196	636.484
401.321	25.316	795.740	635.529
402.336	25.364	795.256	635.258
403.350	25.706	795.236	636.395
404.365	26.067	795.326	637.688
405.380	26.363	795.239	638.608
406.394	26.680	794.968	639.451
407.409	26.954	794.056	639.627
408.423	26.985	793.375	639.131
409.438	26.747	793.319	638.193
410.453	26.654	792.745	637.347
411.467	26.860	792.445	637.775
412.482	26.722	792.028	636.896
413.496	26.628	791.347	635.963
414.511	26.823	791.192	636.466
415.526	26.894	790.686	636.252
416.540	26.852	790.331	635.764
417.555	26.729	789.961	634.977
418.569	26.373	789.111	632.994
419.584	26.410	788.471	632.551
420.599	26.547	788.105	632.680
421.613	91.890	1254.048	1353.922
422.628	78.297	1321.971	1354.035
