DTS Sentinel unit serial number:	SN413079Multiplexer serial number:	ORYXHardware model number:	OX4-SRSoftware version number:	ORYX F/W v4.00 Oryx Data Collector v3.7.2.0data status	okinstallation	princeton_trtdifferential loss correction	single-endedforward channel	channel 3reverse channel	N/Adate	2019/09/18time	06:16:35forward acquisition time	60.00reverse acquisition time	0.00gamma	496.2192k internal	0.2343k external	0.2343temperature offset calibration	0.9949default loss term (dB/km)	0.3790temperature slope calibration	1.0000multiplexer offset coefficient	1.0000multiplexer slope coefficient	1.0000fibre end	0.00T internal ref (°C)	23.23T ext. ref 1 (°C)	0.19T ext. ref 2 (°C)	17.81length (m)	temperature (°C)	Stokes	anti-Stokes-747.200	13.369	-0.226	0.176
-746.185	-200.000	0.047	0.226
-745.171	-98.833	0.030	0.008
-744.156	-119.046	-0.260	0.046
-743.142	55.583	0.286	-0.277
-742.127	-96.624	0.176	0.046
-741.112	-139.379	0.066	0.007
-740.098	-50.274	-0.086	-0.041
-739.083	-200.000	-0.017	0.116
-738.069	-200.000	0.043	0.431
-737.054	59.803	-0.091	0.090
-736.039	-28.516	-0.379	-0.219
-735.025	301.852	0.137	0.254
-734.010	-200.000	0.053	-0.236
-732.996	134.012	0.170	-0.221
-731.981	-116.074	-0.010	-0.002
-730.966	800.000	-0.057	-0.175
-729.952	89.736	-0.283	-0.316
-728.937	-200.000	-0.037	-0.290
-727.923	-111.151	-0.093	-0.019
-726.908	-91.442	-0.096	0.027
-725.894	702.951	0.112	-0.296
-724.879	332.604	0.069	-0.133
-723.864	-97.765	0.245	0.063
-722.850	592.352	-0.147	0.363
-721.835	800.000	-0.046	-0.156
-720.821	-125.126	-0.268	-0.041
-719.806	-200.000	-0.083	-0.405
-718.791	50.145	0.052	-0.050
-717.777	800.000	-0.066	-0.215
-716.762	-85.188	0.284	-0.089
-715.748	443.454	-0.029	-0.063
-714.733	-47.927	0.310	0.150
-713.718	-200.000	-0.023	-0.252
-712.704	-132.844	0.044	-0.006
-711.689	-200.000	-0.012	-0.090
-710.675	59.703	-0.147	0.145
-709.660	-51.989	-0.274	-0.128
-708.645	-143.360	0.327	-0.031
-707.631	-124.544	-0.231	0.036
-706.616	-105.779	0.190	0.043
-705.602	-44.675	-0.108	0.054
-704.587	180.968	-0.106	0.156
-703.572	-200.000	0.025	-0.143
-702.558	-200.000	-0.024	0.171
-701.543	37.227	-0.194	-0.172
-700.529	-70.294	-0.328	-0.124
-699.514	13.717	-0.089	0.069
-698.499	13.462	-0.070	-0.054
-697.485	210.281	-0.102	0.160
-696.470	-96.973	0.093	0.024
-695.456	218.244	0.094	0.150
-694.441	800.000	0.059	-0.193
-693.426	141.971	0.057	-0.076
-692.412	51.770	0.080	-0.076
-691.397	446.458	-0.029	0.064
-690.383	32.406	-0.103	0.089
-689.368	789.672	0.141	-0.387
-688.354	18.447	0.150	-0.120
-687.339	-54.078	-0.121	0.055
-686.324	-200.000	0.058	-0.362
-685.310	164.276	0.148	-0.209
-684.295	-91.502	-0.072	-0.021
-683.281	800.000	0.028	-0.077
-682.266	109.516	0.089	-0.106
-681.251	42.958	0.312	-0.284
-680.237	81.403	-0.102	0.110
-679.222	619.813	0.058	-0.146
-678.208	344.810	0.066	0.129
-677.193	98.540	0.224	-0.258
-676.178	800.000	0.059	0.172
-675.164	74.546	-0.104	0.109
-674.149	-112.936	-0.361	0.071
-673.135	66.074	0.112	0.113
-672.120	-200.000	0.016	0.090
-671.105	3.488	-0.206	-0.150
-670.091	86.437	0.065	0.072
-669.076	130.017	-0.086	0.110
-668.062	111.396	0.233	0.281
-667.047	269.251	0.212	0.371
-666.032	261.709	0.090	0.156
-665.018	209.544	-0.151	-0.236
-664.003	-200.000	-0.112	0.539
-662.989	-200.000	0.026	-0.178
-661.974	-2.946	0.114	-0.079
-660.959	55.422	-0.125	-0.121
-659.945	266.144	-0.159	-0.277
-658.930	103.849	0.187	-0.219
-657.916	73.016	0.116	-0.121
-656.901	-140.317	0.124	-0.013
-655.886	-81.530	0.193	-0.063
-654.872	-200.000	0.001	-0.073
-653.857	257.963	0.105	-0.180
-652.843	249.813	-0.220	0.372
-651.828	4.358	-0.213	-0.156
-650.814	-200.000	0.007	0.069
-649.799	-200.000	-0.004	-0.478
-648.784	-115.256	-0.174	-0.033
-647.770	-100.336	-0.258	-0.064
-646.755	-200.000	-0.004	0.153
-645.741	-136.986	0.259	0.030
-644.726	-200.000	0.122	0.585
-643.711	-200.000	0.015	0.075
-642.697	-200.000	0.005	0.029
-641.682	-87.030	-0.309	-0.094
-640.668	-107.461	-0.433	-0.095
-639.653	46.395	-0.329	0.304
-638.638	37.226	0.113	-0.100
-637.624	115.944	0.201	-0.245
-636.609	-59.754	0.324	0.138
-635.595	-53.797	-0.286	-0.130
-634.580	800.000	-0.101	0.336
-633.565	328.858	-0.051	-0.099
-632.551	726.771	0.023	0.062
-631.536	-200.000	-0.002	-0.010
-630.522	-53.729	-0.057	-0.026
-629.507	-200.000	-0.034	-0.316
-628.492	269.745	-0.164	-0.286
-627.478	-37.774	-0.222	-0.118
-626.463	-157.180	-0.110	0.007
-625.449	800.000	-0.026	-0.084
-624.434	69.938	0.232	0.239
-623.419	31.736	-0.125	-0.107
-622.405	-117.157	0.127	0.023
-621.390	20.805	0.213	0.172
-620.376	-200.000	0.009	0.101
-619.361	800.000	-0.053	0.212
-618.346	269.600	-0.169	-0.295
-617.332	251.736	-0.132	-0.224
-616.317	-200.000	-0.041	-0.337
-615.303	800.000	0.043	-0.156
-614.288	-62.777	-0.116	0.048
-613.273	145.384	0.086	0.115
-612.259	258.649	-0.027	-0.047
-611.244	-71.426	0.214	0.080
-610.230	-76.608	0.169	-0.059
-609.215	-97.707	0.036	-0.009
-608.201	-95.445	0.101	-0.027
-607.186	23.607	-0.182	0.149
-606.171	-54.234	-0.265	-0.120
-605.157	-53.597	-0.524	0.239
-604.142	-15.335	0.185	0.118
-603.128	-200.000	0.004	0.076
-602.113	46.617	-0.072	-0.067
-601.098	-42.601	0.196	-0.099
-600.084	215.788	-0.062	-0.097
-599.069	-170.269	0.156	0.005
-598.055	118.154	0.156	0.191
-597.040	-24.669	0.205	-0.121
-596.025	-200.000	-0.003	0.121
-595.011	-118.287	-0.192	-0.034
-593.996	135.735	-0.309	-0.401
-592.982	287.423	0.156	-0.281
-591.967	3.937	0.240	0.174
-590.952	-88.477	0.235	-0.070
-589.938	-172.826	-0.206	-0.006
-588.923	-86.031	-0.232	0.071
-587.909	-31.205	0.294	0.165
-586.894	-68.902	-0.206	0.079
-585.879	800.000	-0.102	-0.383
-584.865	406.276	-0.048	-0.102
-583.850	644.898	-0.106	0.269
-582.836	308.880	0.095	0.177
-581.821	800.000	-0.031	-0.099
-580.806	-200.000	0.009	0.055
-579.792	506.688	-0.211	0.487
-578.777	-8.218	0.290	0.194
-577.763	-32.789	-0.148	0.082
-576.748	4.228	0.218	0.159
-575.733	-163.854	-0.165	0.008
-574.719	-130.657	0.194	0.026
-573.704	672.569	-0.068	-0.176
-572.690	-36.134	0.265	-0.142
-571.675	-19.108	0.170	0.105
-570.661	-154.846	0.097	0.006
-569.646	510.627	0.062	-0.142
-568.631	258.709	-0.094	-0.162
-567.617	-200.000	-0.025	-0.177
-566.602	338.721	-0.096	0.187
-565.588	-200.000	0.061	0.319
-564.573	88.549	-0.241	0.267
-563.558	-200.000	0.024	0.202
-562.544	-10.979	-0.162	-0.106
-561.529	375.099	0.086	-0.175
-560.515	800.000	-0.037	-0.114
-559.500	-115.687	0.121	-0.023
-558.485	-49.185	-0.018	-0.008
-557.471	-43.496	-0.309	0.155
-556.456	-13.064	-0.115	0.075
-555.442	52.349	0.126	0.120
-554.427	441.391	0.202	0.439
-553.412	497.532	-0.102	0.233
-552.398	292.871	0.102	-0.185
-551.383	800.000	-0.016	0.062
-550.369	-200.000	0.007	-0.030
-549.354	269.873	0.067	0.116
-548.339	800.000	-0.112	-0.343
-547.325	-111.162	-0.151	-0.031
-546.310	19.055	0.149	0.119
-545.296	5.738	0.158	0.116
-544.281	298.377	-0.158	-0.288
-543.266	-122.156	-0.218	0.035
-542.252	-53.582	-0.269	0.122
-541.237	-82.573	-0.351	0.113
-540.223	-16.523	0.264	-0.166
-539.208	21.481	-0.300	-0.242
-538.193	-200.000	-0.028	0.201
-537.179	-11.565	0.230	0.150
-536.164	253.472	-0.085	-0.144
-535.150	-200.000	-0.034	-0.157
-534.135	-200.000	0.016	0.111
-533.121	31.184	0.240	0.204
-532.106	11.921	0.062	-0.048
-531.091	-145.370	-0.048	-0.004
-530.077	-26.549	0.234	0.136
-529.062	596.755	0.031	-0.075
-528.048	25.947	0.152	0.126
-527.033	-200.000	-0.019	0.226
-526.018	-110.185	0.446	-0.092
-525.004	305.900	-0.060	-0.110
-523.989	800.000	-0.074	-0.218
-522.975	-200.000	-0.057	-0.251
-521.960	-164.464	0.236	-0.011
-520.945	800.000	-0.092	0.321
-519.931	800.000	0.037	0.148
-518.916	-7.839	-0.185	-0.124
-517.902	-40.590	-0.105	-0.054
-516.887	-19.235	0.192	-0.118
-515.872	-93.690	-0.141	0.039
-514.858	109.019	0.226	-0.268
-513.843	450.801	0.061	0.133
-512.829	-100.206	-0.230	-0.057
-511.814	800.000	0.048	0.144
-510.799	37.308	0.327	-0.288
-509.785	61.790	-0.063	-0.062
-508.770	-173.220	0.103	-0.003
-507.756	-73.352	-0.043	0.016
-506.741	172.525	-0.239	-0.341
-505.726	-83.612	0.170	0.054
-504.712	72.546	-0.151	0.156
-503.697	-94.782	0.334	0.090
-502.683	-200.000	-0.013	-0.221
-501.668	88.218	0.109	-0.120
-500.653	194.675	0.136	-0.205
-499.639	419.952	0.032	0.067
-498.624	226.820	-0.152	0.245
-497.610	25.484	-0.105	-0.087
-496.595	800.000	-0.058	-0.244
-495.581	782.644	-0.059	-0.159
-494.566	-95.104	0.170	0.045
-493.551	800.000	0.088	0.261
-492.537	795.107	-0.076	-0.208
-491.522	-147.792	-0.577	0.048
-490.508	-200.000	-0.017	-0.240
-489.493	800.000	0.097	0.345
-488.478	35.743	-0.228	-0.199
-487.464	311.256	-0.116	0.216
-486.449	-200.000	0.032	0.292
-485.435	-127.588	0.217	-0.031
-484.420	16.161	-0.144	0.112
-483.405	-62.817	-0.069	0.028
-482.391	-77.276	0.365	-0.126
-481.376	-73.561	-0.247	-0.089
-480.362	127.887	0.194	-0.244
-479.347	-146.101	-0.214	-0.019
-478.332	800.000	-0.081	0.286
-477.318	-200.000	0.007	-0.220
-476.303	387.571	0.077	-0.157
-475.289	-200.000	-0.015	0.253
-474.274	-29.635	-0.080	0.045
-473.259	452.747	-0.073	0.161
-472.245	246.309	-0.138	0.230
-471.230	-71.357	-0.226	-0.084
-470.216	-46.879	0.128	0.062
-469.201	50.276	0.078	0.073
-468.186	-121.735	-0.216	-0.035
-467.172	94.678	-0.056	0.063
-466.157	151.649	-0.174	-0.235
-465.143	43.464	0.048	-0.043
-464.128	-59.584	0.249	0.106
-463.113	407.628	0.094	0.197
-462.099	-84.937	-0.313	0.097
-461.084	232.062	-0.115	0.187
-460.070	800.000	0.034	0.139
-459.055	800.000	0.020	-0.063
-458.040	130.104	-0.017	0.021
-457.026	-21.752	0.261	-0.157
-456.011	122.308	0.032	0.040
-454.997	337.214	-0.197	-0.380
-453.982	179.990	0.248	-0.359
-452.968	339.916	0.100	0.193
-451.953	67.863	-0.048	0.049
-450.938	82.725	0.054	-0.058
-449.924	-200.000	0.040	0.334
-448.909	-160.371	-0.314	0.017
-447.895	-22.177	-0.408	-0.245
-446.880	-133.394	0.131	0.016
-445.865	299.231	-0.093	0.170
-444.851	8.800	0.508	-0.379
-443.836	-200.000	-0.036	-0.402
-442.822	-200.000	0.011	-0.095
-441.807	-200.000	0.049	0.291
-440.792	-107.205	-0.052	0.011
-439.778	-200.000	-0.011	-0.191
-438.763	49.395	-0.272	-0.253
-437.749	71.239	-0.205	-0.211
-436.734	-84.202	0.128	0.040
-435.719	-200.000	-0.012	0.053
-434.705	718.868	-0.120	0.314
-433.690	800.000	0.038	-0.138
-432.676	-200.000	-0.087	-0.488
-431.661	-200.000	0.052	0.353
-430.646	290.394	-0.046	0.082
-429.632	235.337	0.023	0.037
-428.617	127.429	-0.111	-0.139
-427.603	-95.100	0.087	0.023
-426.588	431.658	-0.101	0.217
-425.573	83.446	0.102	-0.109
-424.559	-200.000	0.052	0.329
-423.544	800.000	-0.069	0.194
-422.530	60.868	0.135	-0.133
-421.515	167.282	0.083	-0.117
-420.500	-39.256	-0.421	0.218
-419.486	-24.332	-0.257	-0.151
-418.471	106.054	0.052	0.061
-417.457	-91.693	-0.339	0.095
-416.442	-119.572	-0.150	0.026
-415.428	-200.000	-0.031	-0.317
-414.413	-200.000	0.013	0.266
-413.398	-200.000	-0.008	0.326
-412.384	-96.847	0.330	-0.086
-411.369	-200.000	0.012	-0.150
-410.355	104.182	0.030	0.035
-409.340	-58.745	0.087	0.037
-408.325	-200.000	0.106	-0.517
-407.311	603.250	0.098	-0.241
-406.296	-44.593	0.281	-0.139
-405.282	-121.172	0.177	-0.029
-404.267	-18.905	0.304	0.187
-403.252	-64.449	-0.086	-0.034
-402.238	-24.981	-0.077	0.045
-401.223	-84.989	0.106	-0.033
-400.209	-200.000	-0.016	-0.113
-399.194	221.491	-0.077	-0.122
-398.179	-121.078	0.131	0.022
-397.165	25.633	0.266	0.219
-396.150	-91.523	0.221	0.062
-395.136	-46.227	-0.114	-0.056
-394.121	-27.870	-0.362	0.207
-393.106	-200.000	0.037	-0.206
-392.092	-92.348	0.119	-0.033
-391.077	800.000	-0.025	0.089
-390.063	116.627	0.152	-0.184
-389.048	241.236	0.049	-0.081
-388.033	800.000	-0.033	0.137
-387.019	800.000	0.046	0.130
-386.004	-110.286	0.111	0.023
-384.990	800.000	0.064	-0.249
-383.975	-172.808	0.192	0.006
-382.960	-200.000	-0.001	0.134
-381.946	-200.000	0.014	0.175
-380.931	211.940	-0.190	0.295
-379.917	530.542	0.074	-0.173
-378.902	800.000	-0.074	0.233
-377.888	86.150	0.198	0.216
-376.873	89.208	0.152	-0.167
-375.858	-93.212	0.221	-0.061
-374.844	63.831	-0.105	-0.104
-373.829	-200.000	0.089	-0.438
-372.815	285.584	0.115	0.204
-371.800	-111.880	-0.158	-0.031
-370.785	-127.420	0.587	0.084
-369.771	9.670	-0.261	-0.195
-368.756	258.435	-0.083	-0.141
-367.742	-200.000	0.037	-0.399
-366.727	-59.175	-0.048	0.020
-365.712	-200.000	-0.021	0.238
-364.698	-38.497	0.269	-0.140
-363.683	212.557	-0.003	-0.005
-362.669	210.078	0.119	0.184
-361.654	231.091	0.122	0.197
-360.639	-94.416	0.250	0.067
-359.625	139.160	-0.013	-0.017
-358.610	209.535	0.069	0.107
-357.596	70.250	-0.071	-0.072
-356.581	5.569	-0.265	-0.193
-355.566	-125.797	0.341	-0.051
-354.552	97.164	0.196	0.222
-353.537	-165.889	0.259	0.011
-352.523	-41.159	0.203	-0.103
-351.508	-57.731	-0.224	-0.097
-350.493	-52.877	-0.331	0.150
-349.479	511.135	0.056	-0.129
-348.464	-49.294	0.116	-0.055
-347.450	-114.323	0.245	0.047
-346.435	-200.000	-0.011	-0.148
-345.420	730.472	0.147	0.388
-344.406	-133.168	0.170	0.021
-343.391	374.901	0.132	0.266
-342.377	-200.000	-0.013	-0.067
-341.362	185.446	0.091	0.133
-340.348	-16.082	0.153	0.096
-339.333	800.000	0.039	-0.110
-338.318	347.802	0.079	-0.153
-337.304	90.934	-0.080	0.089
-336.289	800.000	0.043	-0.151
-335.275	-133.867	-0.133	-0.016
-334.260	272.006	0.192	0.334
-333.245	-137.860	-0.207	0.023
-332.231	-200.000	-0.058	-0.386
-331.216	362.636	0.071	0.141
-330.202	230.288	-0.160	0.258
-329.187	-200.000	-0.002	-0.049
-328.172	-51.929	0.138	-0.063
-327.158	-200.000	-0.016	0.210
-326.143	308.005	-0.159	-0.292
-325.129	-200.000	-0.003	0.198
-324.114	800.000	-0.060	0.205
-323.099	27.373	0.145	0.120
-322.085	413.278	0.142	-0.297
-321.070	-115.225	-0.330	0.062
-320.056	137.945	-0.216	-0.279
-319.041	-68.664	0.109	0.041
-318.026	188.779	0.222	-0.327
-317.012	137.119	0.084	-0.109
-315.997	60.342	0.126	-0.123
-314.983	291.911	0.070	-0.126
-313.968	145.460	0.191	-0.252
-312.953	-162.617	0.095	0.005
-311.939	-127.709	0.153	-0.022
-310.924	634.702	0.092	-0.231
-309.910	59.769	0.057	-0.055
-308.895	-41.589	0.112	0.057
-307.880	300.472	-0.024	-0.044
-306.866	-28.040	-0.301	-0.171
-305.851	-200.000	-0.003	0.307
-304.837	465.583	0.125	0.276
-303.822	-127.860	0.217	0.031
-302.807	28.703	0.039	-0.032
-301.793	-91.453	-0.160	-0.045
-300.778	618.431	-0.101	0.250
-299.764	-102.400	0.228	-0.054
-298.749	-111.234	0.190	0.038
-297.735	-200.000	-0.028	0.322
-296.720	-120.443	-0.050	0.008
-295.705	-129.767	-0.046	-0.006
-294.691	0.155	0.137	-0.096
-293.676	8.881	-0.264	0.196
-292.662	-200.000	0.012	0.054
-291.647	800.000	-0.094	0.293
-290.632	-3.092	0.147	0.101
-289.618	-200.000	-0.016	-0.280
-288.603	-200.000	-0.012	0.220
-287.589	-52.652	-0.263	0.119
-286.574	-200.000	0.064	0.289
-285.559	-30.782	-0.116	0.064
-284.545	-106.502	-0.504	-0.111
-283.530	403.435	0.002	-0.005
-282.516	800.000	0.070	0.262
-281.501	-30.337	-0.139	-0.078
-280.486	-200.000	-0.001	0.007
-279.472	18.472	0.035	-0.027
-278.457	481.163	0.082	-0.184
-277.443	-9.588	-0.191	0.125
-276.428	-109.706	0.090	-0.019
-275.413	800.000	0.098	-0.354
-274.399	-136.579	-0.413	0.047
-273.384	-48.684	-0.059	0.028
-272.370	9.297	-0.199	-0.148
-271.355	-163.806	0.194	-0.009
-270.340	-20.605	0.123	0.074
-269.326	800.000	0.138	-0.407
-268.311	-200.000	-0.053	0.319
-267.297	800.000	-0.081	-0.268
-266.282	135.407	-0.114	-0.146
-265.267	23.485	0.388	0.314
-264.253	441.383	-0.185	-0.397
-263.238	-200.000	-0.009	-0.091
-262.224	800.000	-0.065	0.233
-261.209	-200.000	0.005	0.131
-260.195	-200.000	-0.012	0.492
-259.180	10.893	0.219	0.164
-258.165	800.000	0.111	-0.376
-257.151	469.361	-0.095	0.209
-256.136	53.404	-0.044	0.042
-255.122	-23.027	-0.119	-0.070
-254.107	-200.000	0.033	-0.374
-253.092	70.914	-0.325	0.330
-252.078	-126.166	-0.130	0.019
-251.063	800.000	-0.047	-0.161
-250.049	6.413	-0.292	-0.213
-249.034	-69.400	-0.221	-0.083
-248.019	-105.220	0.321	-0.072
-247.005	39.928	0.059	-0.052
-245.990	800.000	-0.116	0.323
-244.976	-200.000	-0.043	-0.300
-243.961	-200.000	-0.040	-0.383
-242.946	-200.000	0.061	0.289
-241.932	21.701	-0.101	-0.081
-240.917	800.000	0.116	-0.320
-239.903	-200.000	-0.016	-0.167
-238.888	-99.624	0.316	-0.078
-237.873	800.000	-0.115	0.405
-236.859	44.226	0.255	0.230
-235.844	-25.075	-0.034	-0.020
-234.830	800.000	-0.066	0.184
-233.815	-34.294	-0.213	0.114
-232.800	-80.674	0.106	-0.035
-231.786	318.205	-0.223	-0.414
-230.771	-28.437	-0.277	0.157
-229.757	461.861	-0.178	0.389
-228.742	117.694	0.145	0.175
-227.727	-200.000	0.080	-0.461
-226.713	6.226	0.164	-0.120
-225.698	38.648	0.031	0.027
-224.684	-189.928	0.042	-0.000
-223.669	-200.000	0.024	0.222
-222.655	-178.271	-0.123	-0.003
-221.640	-170.131	0.341	0.012
-220.625	-82.477	-0.191	-0.061
-219.611	-43.223	-0.246	0.122
-218.596	235.331	0.168	0.273
-217.582	559.218	0.155	0.366
-216.567	72.719	-0.176	0.180
-215.552	-23.171	-0.264	-0.156
-214.538	-118.149	0.166	0.029
-213.523	-190.510	-0.110	0.001
-212.509	-43.828	0.223	0.110
-211.494	800.000	0.030	-0.090
-210.479	-161.754	0.146	-0.007
-209.465	-81.496	-0.252	-0.081
-208.450	-129.543	0.233	-0.032
-207.436	138.753	-0.081	-0.104
-206.421	-2.032	0.108	0.075
-205.406	-120.916	0.103	-0.017
-204.392	-17.216	0.394	0.243
-203.377	800.000	-0.086	0.285
-202.363	-200.000	-0.049	0.241
-201.348	514.099	0.182	0.416
-200.333	294.562	0.171	0.307
-199.319	-200.000	-0.008	0.134
-198.304	39.305	-0.106	0.093
-197.290	281.646	0.026	-0.045
-196.275	48.207	0.114	0.105
-195.260	-127.539	-0.061	0.009
-194.246	-200.000	-0.022	-0.283
-193.231	241.731	-0.093	-0.153
-192.217	70.171	-0.163	0.165
-191.202	-114.612	-0.105	-0.020
-190.187	-51.417	-0.056	-0.026
-189.173	6.109	0.371	-0.270
-188.158	105.739	0.127	-0.147
-187.144	-179.873	0.162	0.003
-186.129	-138.034	-0.469	-0.051
-185.114	423.925	-0.121	0.254
-184.100	315.407	0.076	0.140
-183.085	40.310	0.220	0.194
-182.071	81.550	0.188	-0.199
-181.056	488.899	-0.133	-0.298
-180.042	-200.000	-0.028	-0.226
-179.027	37.279	0.248	-0.215
-178.012	-33.307	-0.215	0.117
-176.998	466.099	-0.114	-0.251
-175.983	-150.733	-0.181	-0.014
-174.969	-121.645	0.019	0.003
-173.954	-149.052	-0.322	0.025
-172.939	539.711	-0.082	0.192
-171.925	142.368	-0.250	-0.324
-170.910	598.854	-0.120	0.291
-169.896	101.238	-0.067	-0.076
-168.881	252.473	-0.176	-0.294
-167.866	-200.000	-0.065	-0.359
-166.852	178.613	-0.197	-0.282
-165.837	25.093	0.193	0.157
-164.823	-200.000	0.021	-0.288
-163.808	-125.771	0.068	0.010
-162.793	-88.137	0.266	0.078
-161.779	97.740	0.116	0.130
-160.764	-140.911	-0.267	0.027
-159.750	-121.477	-0.450	-0.073
-158.735	547.378	0.155	-0.362
-157.720	-200.000	-0.010	0.193
-156.706	-106.782	-0.230	-0.050
-155.691	97.238	0.108	-0.121
-154.677	-38.601	0.306	-0.158
-153.662	-16.343	0.031	0.019
-152.647	-200.000	0.023	0.135
-151.633	372.878	0.104	0.207
-150.618	800.000	-0.102	0.319
-149.604	800.000	0.085	0.246
-148.589	-32.376	-0.092	-0.050
-147.574	-86.205	0.261	0.079
-146.560	706.199	-0.092	-0.239
-145.545	168.945	0.050	-0.070
-144.531	-177.778	0.164	-0.004
-143.516	-88.775	-0.288	-0.084
-142.502	273.525	-0.064	0.111
-141.487	20.252	0.202	-0.159
-140.472	-80.989	0.175	-0.057
-139.458	-153.130	0.248	0.017
-138.443	-200.000	-0.013	-0.172
-137.429	28.490	-0.349	-0.289
-136.414	196.185	0.293	0.435
-135.399	4.201	-0.187	0.134
-134.385	-200.000	0.001	0.313
-133.370	-145.342	0.287	0.025
-132.356	104.315	-0.312	0.359
-131.341	39.731	-0.220	-0.193
-130.326	-131.924	-0.201	0.026
-129.312	800.000	0.067	-0.190
-128.297	-56.026	0.115	-0.050
-127.283	-22.848	-0.225	-0.133
-126.268	55.977	0.088	-0.083
-125.253	143.840	0.171	0.223
-124.239	-8.881	0.127	-0.083
-123.224	800.000	0.033	0.133
-122.210	-80.858	-0.364	-0.118
-121.195	712.265	-0.024	-0.062
-120.180	4.635	0.135	-0.097
-119.166	-200.000	0.063	0.380
-118.151	119.195	0.177	-0.214
-117.137	800.000	0.005	0.018
-116.122	61.644	0.240	0.234
-115.107	128.260	-0.024	0.029
-114.093	309.214	-0.015	-0.027
-113.078	-200.000	0.065	0.356
-112.064	-86.378	0.082	-0.024
-111.049	-200.000	0.066	-0.285
-110.034	-69.295	-0.160	0.060
-109.020	85.048	-0.350	-0.375
-108.005	-1.214	-0.127	-0.088
-106.991	65.946	-0.183	-0.181
-105.976	181.238	0.081	-0.116
-104.962	-152.847	0.191	-0.013
-103.947	-44.915	0.250	-0.121
-102.932	-67.293	-0.256	-0.098
-101.918	62.157	0.233	0.227
-100.903	-200.000	0.007	0.493
-99.889	-107.913	0.290	0.062
-98.874	-200.000	0.021	-0.132
-97.859	142.459	-0.293	-0.380
-96.845	124.701	-0.086	0.106
-95.830	34.796	0.122	0.104
-94.816	-30.561	-0.151	-0.084
-93.801	-43.018	-0.142	0.070
-92.786	90.342	0.058	0.063
-91.772	52.306	0.132	-0.123
-90.757	-200.000	-0.001	0.090
-89.743	-200.000	0.008	0.504
-88.728	48.502	0.081	0.074
-87.713	-62.969	-0.062	0.025
-86.699	-18.393	0.233	0.142
-85.684	-12.996	-0.154	0.098
-84.670	-53.480	0.046	0.021
-83.655	-22.152	0.103	-0.061
-82.640	-41.533	0.033	0.017
-81.626	174.004	0.153	-0.215
-80.611	800.000	0.080	-0.303
-79.597	-151.323	0.132	0.010
-78.582	-117.054	-0.253	0.045
-77.567	345.848	-0.054	-0.104
-76.553	-101.305	0.136	-0.032
-75.538	-186.760	0.118	0.002
-74.524	24.657	-0.252	0.203
-73.509	-25.006	0.095	-0.055
-72.494	-139.667	0.043	0.004
-71.480	336.495	0.230	0.436
-70.465	-10.353	-0.273	-0.177
-69.451	-48.914	0.293	0.137
-68.436	800.000	-0.048	-0.197
-67.422	155.832	0.092	-0.123
-66.407	-200.000	0.043	0.223
-65.392	-67.639	0.437	-0.167
-64.378	11.892	-0.013	0.010
-63.363	-51.830	-0.256	0.116
-62.349	-200.000	-0.024	0.404
-61.334	20.170	-1.381	-1.086
-60.319	31.610	1.069	0.896
-59.305	393.972	-0.539	-1.093
-58.290	673.023	0.683	1.726
-57.276	329.787	0.762	1.428
-56.261	-200.000	124.222	643.776
-55.246	405.979	1572.684	3234.192
-54.232	142.177	2735.213	3536.248
-53.217	94.306	2188.568	2421.565
-52.203	33.723	1705.674	1445.548
-51.188	26.281	1522.375	1239.330
-50.173	24.358	1499.064	1207.303
-49.159	48.146	1569.984	1430.556
-48.144	45.452	1583.371	1423.980
-47.130	26.349	1532.218	1247.614
-46.115	23.485	1516.136	1214.876
-45.100	23.396	1512.026	1210.929
-44.086	23.300	1510.917	1209.341
-43.071	23.293	1508.448	1207.266
-42.057	23.252	1506.667	1205.515
-41.042	23.212	1505.650	1204.381
-40.027	23.142	1504.011	1202.545
-39.013	23.254	1502.407	1201.976
-37.998	23.205	1501.610	1200.960
-36.984	23.080	1500.954	1199.537
-35.969	23.235	1499.072	1199.037
-34.954	23.205	1496.867	1197.022
-33.940	23.150	1496.022	1195.924
-32.925	23.221	1494.543	1195.176
-31.911	23.313	1492.743	1194.313
-30.896	23.221	1492.234	1193.238
-29.881	23.244	1490.856	1192.238
-28.867	23.423	1489.023	1191.931
-27.852	23.299	1487.774	1190.054
-26.838	23.280	1486.611	1188.944
-25.823	23.260	1485.321	1187.732
-24.809	23.294	1483.506	1186.464
-23.794	23.234	1481.391	1184.321
-22.779	23.299	1480.803	1184.241
-21.765	23.257	1480.020	1183.284
-20.750	23.335	1478.129	1182.251
-19.736	23.306	1477.658	1181.633
-18.721	23.260	1476.048	1179.992
-17.706	23.244	1475.434	1179.346
-16.692	23.246	1474.341	1178.437
-15.677	23.215	1473.194	1177.269
-14.663	23.208	1472.814	1176.871
-13.648	23.216	1471.623	1175.925
-12.633	23.334	1470.562	1175.819
-11.619	23.236	1469.931	1174.613
-10.604	23.234	1469.008	1173.817
-9.590	23.192	1468.157	1172.814
-8.575	23.121	1466.856	1171.257
-7.560	23.264	1466.036	1171.501
-6.546	23.211	1465.204	1170.441
-5.531	23.101	1464.923	1169.442
-4.517	23.237	1463.519	1169.175
-3.502	23.236	1462.887	1168.612
-2.487	23.216	1461.409	1167.254
-1.473	23.250	1460.567	1166.758
-0.458	23.254	1459.145	1165.607
0.556	21.564	1449.550	1154.471
1.571	18.525	1426.287	1116.091
2.586	15.449	1364.946	1048.807
3.600	14.008	1281.081	975.820
4.615	13.271	1237.556	938.401
5.629	11.690	1180.180	886.252
6.644	5.625	1098.964	794.500
7.659	0.978	1062.469	745.222
8.673	0.347	1057.299	738.440
9.688	0.210	1054.328	735.629
10.702	0.165	1052.640	734.167
11.717	0.058	1050.697	732.224
12.731	2.060	1051.491	742.459
13.746	8.429	1060.128	779.648
14.761	14.388	1067.701	814.353
15.775	16.615	1070.301	827.164
16.790	16.474	1068.618	825.099
17.804	15.387	1066.818	818.340
18.819	14.576	1064.993	812.918
19.834	14.200	1063.000	809.496
20.848	13.873	1062.679	807.586
21.863	13.611	1062.529	806.126
22.877	13.430	1060.970	803.994
23.892	13.225	1060.464	802.545
24.907	13.065	1059.527	800.986
25.921	13.174	1058.823	800.912
26.936	13.263	1057.846	800.537
27.950	13.226	1057.323	799.889
28.965	13.310	1056.445	799.562
29.980	13.276	1056.061	799.036
30.994	13.388	1054.579	798.381
32.009	13.355	1054.068	797.765
33.023	13.335	1053.607	797.252
34.038	13.334	1052.977	796.699
35.053	13.391	1051.326	795.651
36.067	13.333	1051.253	795.247
37.082	13.274	1050.170	794.077
38.096	13.299	1049.239	793.420
39.111	13.443	1048.581	793.545
40.126	13.528	1047.351	792.948
41.140	13.295	1046.726	791.292
42.155	13.297	1045.427	790.247
43.169	13.162	1044.958	789.179
44.184	13.226	1043.443	788.270
45.199	13.155	1042.795	787.375
46.213	13.259	1041.750	787.009
47.228	13.119	1040.868	785.606
48.242	13.225	1039.913	785.323
49.257	13.222	1039.034	784.573
50.271	13.331	1037.539	783.891
51.286	13.295	1036.609	782.948
52.301	13.375	1035.940	782.755
53.315	13.240	1035.452	781.677
54.330	13.367	1034.387	781.405
55.344	13.184	1033.635	779.904
56.359	13.411	1032.052	779.711
57.374	13.279	1031.251	778.413
58.388	13.200	1030.826	777.653
59.403	13.098	1030.196	776.627
60.417	13.245	1029.049	776.385
61.432	13.185	1028.848	775.882
62.447	13.074	1027.631	774.377
63.461	13.190	1026.519	774.013
64.476	12.997	1026.566	773.076
65.490	13.070	1024.674	771.923
66.505	13.059	1024.350	771.560
67.520	13.104	1023.440	771.019
68.534	13.269	1022.485	770.997
69.549	13.138	1021.494	769.574
70.563	13.212	1020.759	769.295
71.578	13.112	1020.409	768.498
72.593	13.146	1019.037	767.556
73.607	13.200	1018.157	767.074
74.622	13.093	1017.738	766.195
75.636	12.960	1016.972	764.935
76.651	13.096	1015.674	764.519
77.666	13.184	1014.390	763.891
78.680	13.042	1014.355	763.145
79.695	13.078	1013.825	762.844
80.709	13.133	1013.370	762.686
81.724	13.064	1012.492	761.641
82.739	13.126	1011.574	761.167
83.753	13.286	1010.734	761.203
84.768	13.360	1010.012	760.933
85.782	13.381	1009.256	760.392
86.797	13.425	1008.422	759.899
87.812	13.434	1007.055	758.844
88.826	13.392	1006.361	758.061
89.841	13.364	1005.823	757.461
90.855	13.380	1005.132	756.946
91.870	13.424	1004.355	756.496
92.884	13.444	1003.563	755.923
93.899	13.422	1002.694	755.102
94.914	13.562	1001.912	755.086
95.928	13.463	1001.382	754.167
96.943	13.505	1000.565	753.675
97.957	13.493	999.895	753.050
98.972	13.396	998.919	751.810
99.987	13.400	998.347	751.328
101.001	13.437	997.535	750.821
102.016	13.343	997.023	749.942
103.030	13.302	996.426	749.242
104.045	13.496	994.814	748.840
105.060	13.254	994.306	747.299
106.074	13.370	993.203	746.923
107.089	13.287	992.331	745.829
108.103	13.307	991.111	744.937
109.118	13.129	991.048	744.022
110.133	13.285	989.688	743.636
111.147	13.269	988.991	742.976
112.162	13.325	987.661	742.163
113.176	13.330	987.250	741.808
114.191	13.313	986.239	740.909
115.206	13.300	985.135	739.956
116.220	13.339	984.478	739.570
117.235	13.380	983.703	739.107
118.249	13.260	982.859	737.872
119.264	13.321	981.845	737.318
120.279	13.287	981.145	736.573
121.293	13.333	980.097	735.927
122.308	13.282	979.808	735.416
123.322	13.171	978.842	734.134
124.337	13.187	977.813	733.370
125.352	13.265	976.567	732.717
126.366	13.204	975.322	731.444
127.381	13.169	974.189	730.378
128.395	13.301	973.262	730.201
129.410	13.246	972.359	729.214
130.424	13.229	971.757	728.627
131.439	13.267	970.370	727.690
132.454	13.275	969.866	727.281
133.468	13.384	969.062	727.090
134.483	13.377	968.146	726.310
135.497	13.369	967.831	725.974
136.512	13.232	967.586	725.124
137.527	13.336	966.288	724.545
138.541	13.260	965.804	723.784
139.556	13.355	964.968	723.510
140.570	13.384	964.030	722.870
141.585	13.390	963.446	722.393
142.600	13.411	962.657	721.830
143.614	13.505	961.914	721.615
144.629	13.458	961.389	720.955
145.643	13.526	960.425	720.464
146.658	13.637	959.348	720.076
147.673	13.588	958.534	719.189
148.687	13.449	957.913	718.054
149.702	13.497	957.312	717.749
150.716	13.371	956.282	716.370
151.731	13.503	955.066	715.964
152.746	13.510	954.688	715.649
153.760	13.516	953.564	714.766
154.775	13.514	953.235	714.449
155.789	13.602	952.267	714.038
156.804	13.610	951.288	713.278
157.819	13.556	950.768	712.590
158.833	13.564	950.152	712.101
159.848	13.553	949.815	711.738
160.862	13.632	948.922	711.345
161.877	13.749	948.009	711.098
162.892	13.485	947.535	709.552
163.906	13.600	946.384	709.118
164.921	13.482	945.761	708.084
165.935	13.567	944.412	707.373
166.950	13.544	944.017	706.919
167.964	13.616	942.833	706.274
168.979	13.584	942.087	705.517
169.994	13.617	941.095	704.854
171.008	13.630	940.491	704.395
172.023	13.779	939.200	703.997
173.037	13.718	938.595	703.222
174.052	13.825	937.589	702.860
175.067	13.821	936.705	702.116
176.081	13.793	936.284	701.622
177.096	13.791	935.134	700.687
178.110	13.721	934.669	699.983
179.125	13.797	933.798	699.588
180.140	13.665	933.285	698.585
181.154	13.723	932.630	698.280
182.169	13.714	932.117	697.797
183.183	13.706	931.596	697.307
184.198	13.896	930.089	696.916
185.213	13.821	929.903	696.402
186.227	13.800	929.518	695.964
187.242	13.839	928.821	695.544
188.256	14.003	927.536	695.208
189.271	14.037	927.325	695.131
190.286	13.982	926.287	694.061
191.300	13.894	925.448	693.003
192.315	13.727	925.023	691.925
193.329	13.704	924.332	691.251
194.344	13.761	923.914	691.115
195.359	13.787	922.967	690.454
196.373	13.890	922.499	690.470
197.388	13.935	921.922	690.166
198.402	13.934	921.528	689.805
199.417	14.035	921.199	689.919
200.432	13.993	920.608	689.240
201.446	14.154	920.132	689.491
202.461	14.133	919.750	689.055
203.475	14.137	918.963	688.420
204.490	14.130	918.634	688.084
205.504	14.128	917.446	687.123
206.519	14.087	917.047	686.596
207.534	13.999	916.221	685.555
208.548	14.105	915.378	685.299
209.563	14.185	914.599	684.986
210.577	14.198	913.980	684.513
211.592	14.185	913.325	683.910
212.607	14.181	912.970	683.568
213.621	14.201	912.312	683.097
214.636	14.320	911.870	683.191
215.650	14.370	911.028	682.706
216.665	14.325	910.544	682.101
217.680	14.375	909.544	681.496
218.694	14.429	909.399	681.547
219.709	14.488	908.602	681.130
220.723	14.451	908.312	680.699
221.738	14.407	907.332	679.728
222.753	14.372	906.854	679.166
223.767	14.539	905.658	678.890
224.782	14.573	905.071	678.529
225.796	14.499	904.485	677.729
226.811	14.488	903.810	677.119
227.826	14.396	902.887	675.994
228.840	14.503	902.242	675.886
229.855	14.310	901.829	674.734
230.869	14.454	901.383	674.923
231.884	14.438	900.811	674.371
232.899	14.444	899.852	673.614
233.913	14.454	899.160	673.078
234.928	14.453	898.543	672.553
235.942	14.503	898.270	672.491
236.957	14.566	896.859	671.628
237.972	14.586	896.086	671.073
238.986	14.411	896.302	670.470
240.001	14.600	895.023	670.214
241.015	14.451	894.588	669.232
242.030	14.649	893.475	669.133
243.045	14.642	893.088	668.754
244.059	14.536	892.921	668.144
245.074	14.647	891.521	667.483
246.088	14.665	891.226	667.273
247.103	14.746	890.871	667.274
248.117	14.803	890.002	666.792
249.132	14.691	889.523	665.928
250.147	14.843	888.876	665.988
251.161	14.763	888.187	665.094
252.176	14.843	887.582	664.903
253.190	14.975	886.943	664.891
254.205	14.843	886.988	664.338
255.220	15.108	885.663	664.341
256.234	14.949	885.429	663.474
257.249	15.053	884.352	663.023
258.263	14.968	884.410	662.668
259.278	14.945	883.904	662.142
260.293	15.048	882.932	661.762
261.307	15.035	882.083	661.014
262.322	15.028	881.865	660.766
263.336	15.049	881.244	660.323
264.351	15.292	880.177	660.424
265.366	15.257	879.396	659.642
266.380	15.221	879.156	659.260
267.395	15.239	878.115	658.492
268.409	15.322	877.074	657.982
269.424	15.165	877.209	657.408
270.439	15.208	876.288	656.828
271.453	15.199	875.649	656.253
272.468	15.198	874.659	655.450
273.482	15.230	874.204	655.177
274.497	15.293	873.615	654.924
275.512	15.329	872.549	654.208
276.526	15.184	872.065	653.223
277.541	15.285	871.265	652.957
278.555	15.285	870.921	652.642
279.570	15.271	870.702	652.363
280.585	15.359	869.575	651.807
281.599	15.364	869.352	651.600
282.614	15.454	868.570	651.305
283.628	15.458	867.784	650.674
284.643	15.440	867.163	650.080
285.657	15.313	867.305	649.638
286.672	15.454	866.672	649.652
287.687	15.417	866.345	649.205
288.701	15.312	865.883	648.397
289.716	15.501	864.688	648.176
290.730	15.523	864.248	647.871
291.745	15.568	863.413	647.362
292.760	15.508	862.701	646.539
293.774	15.541	862.136	646.188
294.789	15.520	861.568	645.623
295.803	15.544	861.304	645.459
296.818	15.617	860.459	645.048
297.833	15.694	859.963	644.914
298.847	15.631	859.062	643.942
299.862	15.669	858.507	643.614
300.876	15.647	857.598	642.793
301.891	15.710	857.069	642.581
302.906	15.753	856.565	642.309
303.920	15.797	855.873	641.901
304.935	15.863	854.925	641.384
305.949	15.869	854.498	641.031
306.964	15.825	853.870	640.336
307.979	15.765	853.405	639.700
308.993	15.838	852.997	639.615
310.008	15.928	852.420	639.470
311.022	16.066	851.746	639.431
312.037	15.924	851.538	638.679
313.052	15.873	850.581	637.710
314.066	15.923	850.000	637.407
315.081	15.782	849.596	636.515
316.095	15.849	848.753	636.081
317.110	15.899	848.139	635.754
318.125	15.812	847.544	634.925
319.139	15.871	847.564	635.104
320.154	15.928	846.604	634.545
321.168	15.990	846.145	634.377
322.183	15.941	845.882	633.939
323.197	15.831	845.465	633.156
324.212	15.938	844.467	632.755
325.227	15.918	844.204	632.429
326.241	16.127	843.458	632.598
327.256	16.082	842.916	631.965
328.270	16.007	842.246	631.126
329.285	15.963	842.003	630.723
330.300	15.995	841.229	630.209
331.314	16.062	840.896	630.151
332.329	16.107	839.913	629.530
333.343	16.046	839.423	628.878
334.358	16.066	838.873	628.485
335.373	16.137	838.657	628.533
336.387	16.147	838.024	628.038
337.402	16.090	837.731	627.551
338.416	16.177	836.918	627.210
339.431	16.245	835.903	626.649
340.446	16.241	835.781	626.484
341.460	16.336	835.051	626.235
342.475	16.452	834.402	626.122
343.489	16.339	833.670	625.099
344.504	16.374	833.298	624.896
345.519	16.437	832.952	624.814
346.533	16.448	832.334	624.336
347.548	16.454	831.900	623.976
348.562	16.502	831.348	623.684
349.577	16.423	830.758	622.894
350.592	16.464	830.101	622.500
351.606	16.111	829.752	620.882
352.621	16.269	829.601	621.297
353.635	16.376	828.844	621.069
354.650	16.548	828.333	621.263
355.665	16.528	828.105	620.963
356.679	16.564	827.626	620.680
357.694	16.572	826.983	620.172
358.708	16.560	826.194	619.481
359.723	16.586	825.911	619.311
360.738	16.562	825.503	618.862
361.752	16.528	825.145	618.414
362.767	16.575	824.213	617.831
363.781	16.559	823.919	617.500
364.796	16.615	823.991	617.703
365.810	16.662	823.301	617.301
366.825	16.731	822.905	617.203
367.840	16.685	822.643	616.785
368.854	16.638	822.250	616.264
369.869	16.753	821.825	616.309
370.883	16.838	820.840	615.823
371.898	16.905	820.268	615.583
372.913	16.792	819.872	614.824
373.927	16.762	818.813	613.864
374.942	16.951	818.453	614.226
375.956	16.818	817.925	613.292
376.971	16.966	817.106	613.158
377.986	17.010	816.833	613.061
379.000	17.035	816.528	612.866
380.015	17.070	815.832	612.416
381.029	17.072	815.379	612.028
382.044	16.964	815.018	611.313
383.059	17.143	813.802	610.993
384.073	17.034	813.754	610.509
385.088	17.067	813.203	610.164
386.102	16.940	812.847	609.385
387.117	17.010	812.007	608.951
388.132	17.189	811.126	608.878
389.146	16.911	811.267	607.934
390.161	17.039	810.836	608.017
391.175	17.241	810.215	608.219
392.190	17.138	809.806	607.492
393.205	17.126	810.068	607.590
394.219	17.119	809.209	606.869
395.234	17.190	808.510	606.542
396.248	17.093	808.197	605.908
397.263	17.027	807.914	605.407
398.278	17.034	807.322	604.934
399.292	16.985	806.876	604.373
400.307	17.130	805.961	604.151
401.321	17.179	805.780	604.135
402.336	17.027	805.717	603.494
403.350	17.012	805.356	603.115
404.365	17.207	804.782	603.326
405.380	17.179	804.178	602.721
406.394	17.424	803.446	602.987
407.409	17.435	803.157	602.757
408.423	17.154	802.904	601.516
409.438	17.285	802.483	601.613
410.453	17.325	801.785	601.176
411.467	17.522	801.294	601.452
412.482	17.473	800.831	600.876
413.496	17.484	800.682	600.750
414.511	17.627	799.954	600.658
415.526	17.524	799.449	599.863
416.540	17.602	799.546	600.157
417.555	17.551	799.037	599.540
418.569	17.640	798.382	599.310
419.584	17.600	797.586	598.518
420.599	17.547	797.717	598.376
421.613	113.856	1298.331	1489.226
422.628	98.087	1371.206	1489.313
