DTS Sentinel unit serial number:	SN413079Multiplexer serial number:	ORYXHardware model number:	OX4-SRSoftware version number:	ORYX F/W v4.00 Oryx Data Collector v3.7.2.0data status	okinstallation	princeton_trtdifferential loss correction	single-endedforward channel	channel 3reverse channel	N/Adate	2019/09/13time	08:44:35forward acquisition time	60.00reverse acquisition time	0.00gamma	496.2192k internal	0.2331k external	0.2331temperature offset calibration	1.0133default loss term (dB/km)	0.3790temperature slope calibration	1.0000multiplexer offset coefficient	1.0000multiplexer slope coefficient	1.0000fibre end	0.00T internal ref (°C)	27.94T ext. ref 1 (°C)	4.32T ext. ref 2 (°C)	24.78length (m)	temperature (°C)	Stokes	anti-Stokes-747.200	27.058	0.145	-0.122
-746.185	222.822	-0.116	0.188
-745.171	-200.000	-0.005	0.123
-744.156	24.343	-0.114	-0.095
-743.142	-200.000	0.010	-0.258
-742.127	240.844	0.104	-0.175
-741.112	-200.000	-0.033	-0.344
-740.098	680.130	0.138	-0.361
-739.083	163.245	-0.259	0.366
-738.069	800.000	-0.084	0.259
-737.054	408.173	-0.093	-0.197
-736.039	-99.926	-0.168	0.042
-735.025	-51.565	0.085	0.040
-734.010	108.923	0.298	-0.359
-732.996	59.586	-0.179	-0.178
-731.981	-200.000	-0.020	0.142
-730.966	-200.000	-0.001	0.129
-729.952	-11.298	0.229	-0.152
-728.937	409.494	-0.209	-0.445
-727.923	-2.578	-0.120	-0.084
-726.908	458.831	0.096	0.215
-725.894	617.581	0.093	-0.236
-724.879	800.000	-0.038	-0.119
-723.864	800.000	-0.050	0.209
-722.850	236.428	-0.116	-0.194
-721.835	57.707	-0.177	0.174
-720.821	-154.726	0.256	0.017
-719.806	630.056	0.141	-0.359
-718.791	-68.388	-0.220	-0.086
-717.777	1.297	-0.128	-0.092
-716.762	800.000	-0.046	-0.159
-715.748	-75.219	-0.175	-0.063
-714.733	-162.459	0.208	-0.010
-713.718	800.000	0.053	0.178
-712.704	-100.058	-0.376	0.094
-711.689	800.000	0.062	0.205
-710.675	52.950	0.014	0.014
-709.660	50.916	-0.104	-0.099
-708.645	653.768	0.050	0.128
-707.631	-91.142	-0.065	0.019
-706.616	-24.027	-0.269	0.162
-705.602	800.000	-0.074	-0.232
-704.587	-200.000	-0.048	-0.383
-703.572	-200.000	0.037	0.273
-702.558	-200.000	0.028	-0.231
-701.543	-11.442	0.128	0.085
-700.529	-13.115	-0.127	-0.083
-699.514	48.051	-0.065	0.061
-698.499	384.639	0.115	-0.238
-697.485	-31.091	0.254	-0.144
-696.470	157.170	-0.189	-0.262
-695.456	305.076	0.172	-0.321
-694.441	18.641	0.211	-0.169
-693.426	-110.684	-0.158	0.033
-692.412	-123.532	0.151	-0.024
-691.397	-120.973	-0.039	-0.007
-690.383	-123.855	0.206	-0.033
-689.368	161.097	-0.054	-0.076
-688.354	-186.495	0.217	0.003
-687.339	-33.875	-0.266	-0.147
-686.324	111.933	0.071	0.086
-685.310	800.000	-0.114	-0.383
-684.295	382.500	0.096	-0.198
-683.281	93.329	0.138	-0.157
-682.266	-120.964	-0.180	-0.030
-681.251	-125.509	-0.034	0.005
-680.237	-160.551	0.199	0.011
-679.222	-200.000	-0.002	0.077
-678.208	-172.789	0.142	-0.004
-677.193	800.000	-0.032	0.095
-676.178	-200.000	-0.011	-0.265
-675.164	124.369	0.149	-0.188
-674.149	545.686	-0.170	-0.408
-673.135	138.079	0.128	-0.168
-672.120	800.000	0.040	-0.127
-671.105	-200.000	0.030	-0.181
-670.091	49.768	-0.209	-0.198
-669.076	199.563	0.095	-0.146
-668.062	545.198	0.095	-0.227
-667.047	145.849	-0.247	-0.333
-666.032	-70.515	0.297	0.113
-665.018	-74.420	-0.466	-0.169
-664.003	-200.000	0.004	-0.108
-662.989	-200.000	0.032	0.181
-661.974	-122.629	-0.146	-0.024
-660.959	-67.226	0.384	-0.152
-659.945	339.064	-0.195	-0.381
-658.930	-178.514	0.222	-0.005
-657.916	152.714	0.123	-0.168
-656.901	399.459	0.046	-0.097
-655.886	-148.025	0.411	-0.034
-654.872	51.905	-0.182	-0.174
-653.857	159.894	-0.170	0.237
-652.843	-66.672	-0.083	-0.033
-651.828	182.130	-0.189	-0.280
-650.814	40.683	-0.032	0.029
-649.799	72.984	-0.092	-0.096
-648.784	31.858	-0.154	0.133
-647.770	116.001	0.041	-0.050
-646.755	-200.000	-0.045	-0.384
-645.741	-106.805	-0.011	-0.003
-644.726	-103.817	-0.124	-0.029
-643.711	-200.000	0.001	0.313
-642.697	-200.000	0.002	-0.359
-641.682	733.030	0.042	0.113
-640.668	28.150	0.208	0.176
-639.653	227.908	0.360	0.587
-638.638	-115.386	0.044	-0.008
-637.624	-200.000	0.000	-0.571
-636.609	-50.616	-0.109	-0.051
-635.595	-61.395	-0.242	-0.102
-634.580	-56.846	-0.146	0.065
-633.565	-200.000	0.055	0.267
-632.551	-66.506	-0.174	0.069
-631.536	204.056	0.078	0.121
-630.522	525.534	0.137	-0.322
-629.507	284.497	0.199	-0.360
-628.492	-121.490	-0.084	0.014
-627.478	-40.081	-0.009	-0.005
-626.463	-97.831	0.260	0.067
-625.449	-59.572	-0.419	-0.180
-624.434	666.562	-0.031	0.079
-623.419	-88.876	-0.358	-0.106
-622.405	-200.000	0.002	-0.271
-621.390	-32.652	0.124	-0.069
-620.376	-15.060	0.114	0.073
-619.361	-94.713	-0.102	-0.028
-618.346	574.522	-0.055	0.134
-617.332	-68.279	0.116	0.045
-616.317	-142.099	0.225	0.022
-615.303	-84.497	0.273	-0.086
-614.288	220.379	0.049	0.078
-613.273	-19.246	-0.243	-0.151
-612.259	154.821	0.068	-0.094
-611.244	-67.417	0.258	0.102
-610.230	-200.000	-0.010	-0.332
-609.215	477.223	-0.003	0.007
-608.201	-191.040	-0.303	0.003
-607.186	-88.806	0.293	-0.087
-606.171	618.711	-0.048	0.121
-605.157	-71.581	-0.147	-0.055
-604.142	-75.257	0.340	-0.121
-603.128	272.498	0.061	-0.107
-602.113	-32.897	0.081	0.045
-601.098	231.260	0.084	0.137
-600.084	24.207	-0.163	0.135
-599.069	-71.290	-0.227	0.085
-598.055	-200.000	-0.003	0.324
-597.040	138.517	-0.066	0.087
-596.025	-200.000	-0.002	-0.129
-595.011	288.360	0.096	-0.173
-593.996	195.161	-0.183	0.278
-592.982	-133.245	-0.228	-0.029
-591.967	428.386	0.073	-0.158
-590.952	-7.316	-0.281	-0.191
-589.938	-148.737	0.187	0.015
-588.923	356.354	-0.142	-0.282
-587.909	800.000	0.064	0.188
-586.894	-200.000	-0.037	-0.349
-585.879	-200.000	-0.049	-0.247
-584.865	88.071	-0.056	0.063
-583.850	-200.000	-0.069	0.394
-582.836	-156.240	-0.111	-0.007
-581.821	112.591	0.086	0.104
-580.806	-200.000	0.006	-0.143
-579.792	-94.698	0.092	0.025
-578.777	-85.489	-0.253	0.079
-577.763	-2.841	-0.140	-0.098
-576.748	-84.545	-0.101	0.032
-575.733	139.991	-0.229	-0.301
-574.719	-114.074	-0.084	0.016
-573.704	-29.617	-0.352	0.201
-572.690	150.921	0.153	-0.208
-571.675	-25.399	-0.293	-0.173
-570.661	-200.000	-0.006	0.092
-569.646	-116.402	-0.218	0.040
-568.631	800.000	-0.072	0.253
-567.617	800.000	-0.056	0.206
-566.602	686.114	-0.082	-0.215
-565.588	21.728	0.168	-0.137
-564.573	41.271	0.207	0.187
-563.558	38.254	0.335	0.298
-562.544	51.034	0.234	0.222
-561.529	718.187	0.086	-0.228
-560.515	130.082	0.101	-0.129
-559.500	31.419	-0.148	0.127
-558.485	-200.000	-0.034	-0.371
-557.471	69.601	-0.176	-0.181
-556.456	78.151	0.081	0.087
-555.442	-37.153	0.114	-0.061
-554.427	-200.000	0.000	0.114
-553.412	-124.409	-0.293	0.046
-552.398	291.302	-0.132	0.240
-551.383	-39.110	-0.145	-0.076
-550.369	800.000	-0.017	-0.060
-549.354	800.000	0.047	-0.162
-548.339	-65.465	0.260	0.105
-547.325	9.884	-0.202	0.153
-546.310	-200.000	0.067	0.328
-545.296	22.475	-0.078	0.064
-544.281	800.000	-0.073	0.221
-543.266	741.631	0.075	0.201
-542.252	730.207	-0.088	-0.235
-541.237	-71.413	-0.153	0.057
-540.223	387.457	0.119	0.245
-539.208	78.083	-0.196	0.209
-538.193	-28.936	-0.158	-0.091
-537.179	-5.653	-0.314	0.215
-536.164	248.844	-0.160	-0.271
-535.150	-200.000	0.027	-0.147
-534.135	-200.000	0.007	-0.074
-533.121	6.661	0.205	-0.152
-532.106	65.664	-0.195	0.197
-531.091	-12.773	0.153	0.100
-530.077	-66.588	-0.358	-0.142
-529.062	-149.627	-0.091	0.007
-528.048	-119.026	0.049	-0.009
-527.033	-21.710	0.205	-0.125
-526.018	334.389	0.102	-0.196
-525.004	655.528	-0.092	-0.235
-523.989	442.335	-0.099	-0.217
-522.975	-200.000	0.035	0.425
-521.960	-41.615	0.153	0.078
-520.945	45.028	-0.062	0.057
-519.931	305.871	-0.033	-0.060
-518.916	146.714	0.214	0.287
-517.902	-200.000	0.002	0.147
-516.887	800.000	-0.097	0.277
-515.872	-93.924	0.145	-0.040
-514.858	-30.539	-0.156	-0.088
-513.843	-95.536	-0.320	-0.086
-512.829	10.666	-0.038	-0.029
-511.814	133.218	-0.048	0.062
-510.799	-197.299	-0.088	-0.001
-509.785	110.769	-0.106	-0.127
-508.770	244.617	-0.132	0.221
-507.756	-25.181	-0.067	0.039
-506.741	-200.000	-0.028	-0.181
-505.726	-147.746	-0.025	-0.002
-504.712	-118.070	-0.206	0.037
-503.697	-10.744	-0.113	-0.075
-502.683	-27.209	0.275	0.160
-501.668	-48.540	0.156	-0.075
-500.653	-200.000	0.016	-0.407
-499.639	46.449	-0.180	-0.167
-498.624	-153.935	0.425	-0.029
-497.610	-200.000	-0.046	0.391
-496.595	-179.255	-0.226	-0.005
-495.581	272.784	-0.062	-0.108
-494.566	-70.217	0.209	-0.079
-493.551	-70.169	0.355	-0.134
-492.537	351.836	0.100	-0.197
-491.522	-114.466	-0.269	-0.052
-490.508	-115.116	0.047	-0.009
-489.493	-88.251	0.172	0.051
-488.478	138.189	0.154	0.201
-487.464	92.160	-0.164	0.184
-486.449	-78.422	0.240	0.082
-485.435	519.804	0.059	-0.137
-484.420	130.162	-0.020	-0.026
-483.405	-200.000	0.037	0.251
-482.391	-86.744	-0.442	-0.135
-481.376	284.890	-0.040	-0.072
-480.362	480.484	-0.032	0.071
-479.347	-200.000	-0.511	0.000
-478.332	-50.152	0.046	0.022
-477.318	-52.976	0.313	-0.143
-476.303	800.000	0.026	0.110
-475.289	73.637	0.083	0.087
-474.274	20.617	0.172	-0.139
-473.259	-163.161	0.136	-0.007
-472.245	-43.822	-0.140	0.070
-471.230	-46.068	0.261	-0.128
-470.216	-102.515	0.135	-0.032
-469.201	663.008	0.105	-0.270
-468.186	-146.618	0.145	0.012
-467.172	-73.905	-0.392	-0.142
-466.157	88.715	0.074	-0.082
-465.143	-161.471	0.298	-0.015
-464.128	800.000	0.053	-0.155
-463.113	-183.237	0.305	-0.005
-462.099	-200.000	-0.018	-0.451
-461.084	-4.886	0.290	-0.199
-460.070	132.891	0.284	-0.365
-459.055	143.119	0.214	-0.284
-458.040	-200.000	-0.005	-0.289
-457.026	-184.645	0.250	0.004
-456.011	-152.899	0.277	0.019
-454.997	-24.028	0.102	-0.060
-453.982	-200.000	-0.004	0.059
-452.968	304.538	-0.142	-0.263
-451.953	-200.000	-0.026	0.145
-450.938	190.592	-0.165	0.247
-449.924	119.768	0.082	0.101
-448.909	11.837	0.267	0.204
-447.895	-35.796	-0.405	0.218
-446.880	-71.259	-0.296	0.110
-445.865	-119.730	0.258	0.044
-444.851	147.617	-0.117	-0.156
-443.836	-40.874	0.188	-0.097
-442.822	-200.000	-0.029	0.310
-441.807	-29.293	0.351	0.200
-440.792	146.454	0.164	-0.220
-439.778	-36.272	0.084	0.045
-438.763	-2.681	0.021	-0.015
-437.749	-2.056	0.119	-0.083
-436.734	-81.029	-0.198	0.065
-435.719	3.011	0.055	0.040
-434.705	-43.979	-0.170	0.085
-433.690	-16.263	0.188	0.119
-432.676	-180.510	0.274	0.006
-431.661	536.477	-0.083	-0.195
-430.646	-160.856	-0.308	-0.016
-429.632	-53.679	0.150	0.068
-428.617	-200.000	0.020	0.272
-427.603	-139.634	0.209	0.022
-426.588	-200.000	-0.030	0.152
-425.573	655.616	0.031	-0.080
-424.559	57.603	-0.143	0.139
-423.544	154.234	-0.062	-0.084
-422.530	-140.977	-0.377	-0.038
-421.515	-118.110	0.242	-0.043
-420.500	-130.443	0.147	0.020
-419.486	-200.000	0.015	-0.119
-418.471	-200.000	-0.009	-0.174
-417.457	-112.469	0.243	-0.048
-416.442	-46.968	-0.159	0.077
-415.428	374.732	-0.045	0.090
-414.413	128.293	-0.200	-0.253
-413.398	76.893	0.207	-0.219
-412.384	-58.664	-0.164	-0.071
-411.369	-200.000	-0.087	0.422
-410.355	-40.176	0.129	-0.067
-409.340	800.000	-0.110	0.432
-408.325	-200.000	-0.038	-0.207
-407.311	-159.963	-0.267	-0.014
-406.296	-89.569	-0.190	-0.055
-405.282	-154.962	0.106	-0.007
-404.267	27.749	0.279	0.234
-403.252	93.290	-0.191	-0.214
-402.238	-98.303	-0.222	-0.057
-401.223	81.024	0.139	0.148
-400.209	271.770	-0.193	-0.338
-399.194	-157.351	0.384	0.023
-398.179	-105.688	-0.073	-0.016
-397.165	440.433	-0.073	-0.158
-396.150	-105.418	-0.154	0.035
-395.136	800.000	0.013	-0.038
-394.121	48.499	0.163	-0.151
-393.106	175.238	-0.174	-0.250
-392.092	-83.635	-0.231	0.073
-391.077	800.000	-0.044	-0.148
-390.063	800.000	0.044	-0.129
-389.048	800.000	-0.077	0.216
-388.033	-129.463	-0.150	0.021
-387.019	137.631	-0.104	0.135
-386.004	236.518	-0.063	-0.104
-384.990	498.040	-0.074	-0.168
-383.975	23.956	-0.346	0.283
-382.960	800.000	0.046	-0.142
-381.946	518.867	-0.102	0.237
-380.931	-200.000	0.008	0.097
-379.917	101.171	-0.149	-0.172
-378.902	-66.999	-0.257	-0.101
-377.888	636.081	-0.072	0.180
-376.873	-13.965	0.155	-0.099
-375.858	-13.196	-0.051	-0.033
-374.844	-132.816	-0.183	0.023
-373.829	99.076	-0.191	0.219
-372.815	393.891	-0.040	-0.083
-371.800	-65.275	0.280	0.112
-370.785	17.347	-0.192	0.152
-369.771	-177.930	-0.250	-0.006
-368.756	-61.057	-0.115	-0.048
-367.742	-136.274	-0.093	-0.011
-366.727	-82.408	-0.115	-0.037
-365.712	-200.000	-0.324	-0.001
-364.698	-200.000	0.002	0.385
-363.683	-51.221	-0.145	0.067
-362.669	632.985	0.088	-0.221
-361.654	-69.198	0.187	0.071
-360.639	3.150	-0.175	-0.126
-359.625	-80.129	-0.109	-0.036
-358.610	800.000	-0.027	-0.111
-357.596	-12.042	0.280	-0.182
-356.581	800.000	-0.037	-0.104
-355.566	-129.076	0.203	-0.028
-354.552	-200.000	0.037	-0.173
-353.537	29.589	0.187	0.158
-352.523	-43.469	0.159	-0.080
-351.508	-61.179	-0.205	0.086
-350.493	-95.012	0.155	-0.041
-349.479	-200.000	0.008	-0.425
-348.464	800.000	-0.081	-0.226
-347.450	800.000	-0.047	-0.171
-346.435	-133.817	-0.056	-0.007
-345.420	348.949	0.138	-0.271
-344.406	126.303	-0.251	-0.314
-343.391	-114.760	0.422	-0.080
-342.377	295.892	0.068	0.124
-341.362	33.089	0.206	-0.177
-340.348	30.491	-0.104	-0.088
-339.333	532.832	0.082	-0.193
-338.318	-200.000	0.440	0.001
-337.304	-200.000	0.135	0.000
-336.289	-134.642	-0.257	0.031
-335.275	800.000	-0.059	0.183
-334.260	513.098	-0.128	0.296
-333.245	-200.000	0.070	0.323
-332.231	-102.580	-0.208	-0.049
-331.216	154.223	0.162	0.221
-330.202	-200.000	-0.005	0.058
-329.187	62.484	0.107	-0.106
-328.172	-94.107	-0.240	-0.065
-327.158	-26.313	0.186	-0.108
-326.143	72.237	-0.093	-0.096
-325.129	153.235	0.156	-0.211
-324.114	-200.000	-0.069	-0.406
-323.099	365.752	-0.149	0.297
-322.085	511.489	0.072	0.166
-321.070	14.125	0.245	-0.189
-320.056	800.000	-0.024	0.090
-319.041	-200.000	0.040	0.205
-318.026	-39.461	-0.132	0.068
-317.012	7.333	-0.413	0.306
-315.997	91.840	0.230	-0.257
-314.983	360.159	0.113	0.223
-313.968	66.058	-0.114	0.114
-312.953	-136.539	0.522	0.060
-311.939	-200.000	-0.017	-0.149
-310.924	-72.035	0.157	-0.058
-309.910	141.178	-0.135	0.177
-308.895	251.996	-0.056	0.095
-307.880	106.586	0.117	0.137
-306.866	99.772	-0.158	-0.181
-305.851	-67.990	0.270	-0.104
-304.837	-92.346	0.149	-0.042
-303.822	175.741	0.075	0.108
-302.807	-129.204	-0.250	-0.035
-301.793	-200.000	0.041	0.225
-300.778	257.643	0.138	-0.235
-299.764	-200.000	0.020	0.140
-298.749	247.073	-0.133	0.222
-297.735	252.311	0.033	0.055
-296.720	-16.233	-0.442	0.278
-295.705	60.548	-0.187	0.183
-294.691	127.552	0.047	0.058
-293.676	161.740	-0.104	-0.143
-292.662	-132.687	0.251	-0.032
-291.647	3.676	-0.214	-0.155
-290.632	-54.629	-0.102	-0.046
-289.618	136.625	0.136	0.176
-288.603	168.959	-0.078	0.109
-287.589	800.000	0.094	0.292
-286.574	-33.941	0.202	0.110
-285.559	-200.000	0.004	-0.140
-284.545	-76.154	0.119	0.041
-283.530	79.057	0.218	0.230
-282.516	713.848	-0.087	0.229
-281.501	800.000	0.078	0.335
-280.486	298.838	-0.176	-0.320
-279.472	-149.283	-0.228	0.018
-278.457	81.651	-0.074	0.079
-277.443	-82.342	0.241	-0.077
-276.428	359.940	0.029	0.057
-275.413	503.110	-0.118	-0.271
-274.399	-200.000	-0.022	-0.120
-273.384	800.000	-0.076	0.261
-272.370	-168.706	-0.333	0.012
-271.355	401.383	0.101	-0.209
-270.340	-142.848	-0.546	0.052
-269.326	30.410	0.127	-0.107
-268.311	-200.000	0.021	-0.401
-267.297	9.044	0.238	0.178
-266.282	106.660	0.174	0.204
-265.267	-77.689	0.350	-0.120
-264.253	-4.019	0.344	-0.236
-263.238	800.000	-0.028	0.089
-262.224	55.034	-0.322	0.307
-261.209	-131.985	0.129	-0.017
-260.195	-200.000	0.032	-0.349
-259.180	800.000	0.079	0.261
-258.165	800.000	-0.102	0.424
-257.151	-75.963	-0.153	0.054
-256.136	-200.000	-0.047	-0.217
-255.122	14.759	0.085	-0.066
-254.107	-17.919	-0.196	-0.122
-253.092	-5.170	0.213	0.145
-252.078	-125.738	0.223	0.033
-251.063	-142.482	0.133	-0.013
-250.049	-200.000	0.006	-0.078
-249.034	16.233	-0.247	-0.192
-248.019	-2.311	0.128	0.089
-247.005	-103.173	0.291	-0.068
-245.990	-96.287	0.177	-0.046
-244.976	-9.617	-0.228	-0.150
-243.961	368.813	0.102	0.204
-242.946	-70.751	-0.199	-0.074
-241.932	341.786	0.062	0.120
-240.917	57.318	-0.054	-0.052
-239.903	-78.943	0.369	0.124
-238.888	-7.458	0.151	-0.101
-237.873	23.385	-0.166	0.135
-236.859	-75.172	-0.186	0.066
-235.844	152.656	0.028	0.038
-234.830	-135.665	0.196	-0.023
-233.815	747.618	0.053	0.141
-232.800	-125.217	-0.236	0.036
-231.786	-24.795	-0.327	0.191
-230.771	-56.649	0.300	0.131
-229.757	800.000	0.020	0.066
-228.742	-99.230	0.194	0.048
-227.727	-118.511	0.224	-0.039
-226.713	-200.000	0.075	0.000
-225.698	-5.149	0.132	-0.089
-224.684	53.710	0.293	0.277
-223.669	-90.034	-0.172	-0.050
-222.655	-88.917	-0.124	0.036
-221.640	-18.411	0.207	-0.127
-220.625	-61.211	-0.262	0.109
-219.611	46.208	0.048	-0.043
-218.596	-145.499	0.063	-0.006
-217.582	-200.000	0.042	0.204
-216.567	-12.586	0.214	-0.138
-215.552	-100.539	-0.300	-0.073
-214.538	-47.981	0.156	-0.074
-213.523	276.073	0.029	-0.051
-212.509	216.495	0.015	0.023
-211.494	-78.240	0.161	0.055
-210.479	-193.944	-0.320	-0.003
-209.465	-121.621	0.254	-0.042
-208.450	-183.231	0.109	-0.002
-207.436	-200.000	-0.056	-0.262
-206.421	63.716	-0.166	-0.164
-205.406	800.000	0.100	-0.337
-204.392	-112.344	-0.136	-0.027
-203.377	-199.951	0.241	-0.001
-202.363	800.000	-0.070	0.252
-201.348	800.000	0.103	-0.322
-200.333	287.590	0.097	-0.173
-199.319	-173.296	0.252	-0.008
-198.304	20.236	-0.051	0.040
-197.290	-193.177	0.255	0.002
-196.275	-155.158	-0.164	0.011
-195.260	297.689	-0.054	-0.098
-194.246	144.236	0.075	0.099
-193.231	291.067	0.048	0.086
-192.217	-91.969	0.207	0.058
-191.202	694.531	0.180	0.466
-190.187	68.895	0.079	0.080
-189.173	-3.241	-0.056	0.038
-188.158	800.000	0.032	-0.104
-187.144	103.229	-0.013	-0.015
-186.129	-101.040	-0.152	0.037
-185.114	159.089	0.129	-0.177
-184.100	304.567	0.026	0.047
-183.085	206.044	-0.221	0.339
-182.071	40.357	0.120	-0.107
-181.056	-33.784	0.134	0.073
-180.042	97.930	-0.360	0.408
-179.027	31.380	0.147	-0.124
-178.012	180.459	-0.045	0.065
-176.998	169.130	0.121	0.171
-175.983	97.430	-0.117	-0.132
-174.969	721.698	-0.065	-0.171
-173.954	-16.872	-0.188	-0.117
-172.939	-63.147	-0.296	0.120
-171.925	-82.313	-0.268	-0.086
-170.910	751.980	-0.087	0.230
-169.896	800.000	0.100	-0.406
-168.881	82.935	0.121	0.129
-167.866	-139.880	-0.160	0.017
-166.852	-132.476	0.156	-0.020
-165.837	-122.552	-0.230	-0.037
-164.823	145.270	0.196	0.258
-163.808	-200.000	0.024	0.245
-162.793	-105.157	0.095	0.021
-161.779	3.979	0.258	-0.186
-160.764	-112.741	0.135	0.026
-159.750	-89.601	0.317	0.092
-158.735	-168.299	0.324	-0.012
-157.720	-21.927	-0.128	0.076
-156.706	-200.000	-0.064	0.290
-155.691	-63.310	-0.409	0.166
-154.677	-76.931	-0.275	0.095
-153.662	-200.000	-0.063	0.276
-152.647	800.000	0.056	0.200
-151.633	800.000	0.087	-0.297
-150.618	800.000	-0.085	0.243
-149.604	151.366	0.131	0.176
-148.589	-200.000	-0.033	0.203
-147.574	496.134	-0.117	-0.263
-146.560	-87.783	0.009	-0.003
-145.545	800.000	0.117	-0.352
-144.531	-108.440	0.209	-0.044
-143.516	270.681	-0.075	0.130
-142.502	615.613	0.182	0.449
-141.487	-200.000	-0.051	-0.266
-140.472	116.958	-0.139	-0.167
-139.458	-89.239	0.271	-0.079
-138.443	52.889	0.188	-0.176
-137.429	-136.389	-0.395	-0.045
-136.414	289.185	0.066	0.118
-135.399	-180.027	-0.126	-0.003
-134.385	122.020	-0.135	0.166
-133.370	-200.000	-0.020	0.343
-132.356	-75.387	-0.537	0.188
-131.341	552.139	0.066	0.155
-130.326	161.871	0.134	-0.185
-129.312	-64.358	-0.120	0.048
-128.297	-39.083	-0.096	0.050
-127.283	800.000	0.083	0.294
-126.268	800.000	0.055	-0.228
-125.253	-200.000	-0.057	-0.385
-124.239	117.492	0.086	0.104
-123.224	-51.043	-0.067	0.031
-122.210	800.000	-0.080	0.244
-121.195	800.000	0.064	-0.229
-120.180	478.579	0.048	-0.107
-119.166	-200.000	0.052	0.385
-118.151	-200.000	-0.038	0.292
-117.137	-176.551	0.380	-0.010
-116.122	455.493	-0.072	0.157
-115.107	183.074	0.020	0.029
-114.093	-13.589	0.191	-0.122
-113.078	98.592	0.091	0.103
-112.064	-107.916	-0.212	0.045
-111.049	-86.364	0.474	-0.143
-110.034	29.935	-0.308	0.258
-109.020	144.589	0.194	0.255
-108.005	-4.959	-0.198	0.134
-106.991	240.423	0.036	-0.060
-105.976	180.118	0.075	0.108
-104.962	-25.429	0.314	-0.182
-103.947	9.674	-0.144	0.107
-102.932	-55.783	0.122	-0.053
-101.918	-40.368	-0.207	0.106
-100.903	39.027	-0.166	-0.146
-99.889	-83.574	0.060	0.019
-98.874	-159.591	-0.165	-0.009
-97.859	-200.000	0.007	-0.054
-96.845	273.304	0.066	0.115
-95.830	104.853	0.265	-0.306
-94.816	-200.000	0.000	0.283
-93.801	-200.000	0.056	-0.342
-92.786	725.248	-0.137	-0.358
-91.772	-1.768	0.178	0.123
-90.757	-14.750	0.135	0.085
-89.743	-97.483	0.378	-0.096
-88.728	800.000	0.029	0.088
-87.713	-91.167	0.241	-0.068
-86.699	-124.520	-0.074	0.011
-85.684	800.000	-0.085	0.264
-84.670	-200.000	0.002	0.391
-83.655	800.000	-0.031	-0.102
-82.640	211.634	-0.234	-0.361
-81.626	800.000	0.047	0.153
-80.611	-200.000	-0.012	0.341
-79.597	71.942	-0.100	0.102
-78.582	-103.266	0.360	-0.083
-77.567	110.414	0.303	0.357
-76.553	-69.000	0.274	-0.104
-75.538	199.619	0.088	-0.132
-74.524	35.807	0.165	-0.142
-73.509	143.991	-0.119	0.156
-72.494	213.197	-0.164	0.254
-71.480	-87.731	0.129	0.038
-70.465	-200.000	0.012	0.147
-69.451	-70.442	-0.329	-0.122
-68.436	-161.861	0.196	-0.010
-67.422	-200.000	-0.000	0.258
-66.407	-49.510	-0.060	-0.028
-65.392	-193.564	-0.106	0.001
-64.378	161.102	0.184	0.252
-63.363	-59.408	0.385	0.162
-62.349	800.000	0.009	0.037
-61.334	132.227	-0.951	-1.200
-60.319	61.690	0.764	0.745
-59.305	442.617	-0.510	-1.094
-58.290	581.355	0.546	1.311
-57.276	242.084	1.009	1.654
-56.261	-200.000	111.632	605.654
-55.246	497.163	1529.118	3447.142
-54.232	174.775	2709.160	3841.313
-53.217	106.536	2192.351	2547.237
-52.203	38.418	1715.286	1497.567
-51.188	31.105	1531.938	1287.211
-50.173	28.833	1506.961	1250.732
-49.159	50.272	1565.506	1448.788
-48.144	49.923	1580.917	1460.569
-47.130	31.254	1535.976	1291.425
-46.115	28.282	1520.882	1258.300
-45.100	28.067	1517.780	1254.207
-44.086	28.023	1515.502	1251.971
-43.071	27.990	1513.659	1250.174
-42.057	27.915	1512.017	1248.257
-41.042	27.901	1510.658	1246.994
-40.027	27.923	1509.282	1245.952
-39.013	27.897	1507.466	1244.228
-37.998	27.859	1506.179	1242.858
-36.984	27.918	1504.980	1242.224
-35.969	27.909	1504.160	1241.437
-34.954	27.980	1502.215	1240.262
-33.940	27.916	1501.066	1238.833
-32.925	27.977	1499.517	1237.919
-31.911	28.013	1498.167	1236.999
-30.896	27.917	1497.202	1235.502
-29.881	28.013	1495.689	1234.855
-28.867	28.006	1494.438	1233.724
-27.852	27.969	1493.272	1232.462
-26.838	27.997	1492.272	1231.779
-25.823	28.015	1489.975	1229.951
-24.809	27.987	1488.589	1228.572
-23.794	27.943	1487.730	1227.518
-22.779	27.981	1486.691	1226.867
-21.765	27.984	1485.143	1225.560
-20.750	27.994	1483.606	1224.312
-19.736	27.996	1483.229	1223.967
-18.721	27.951	1481.790	1222.427
-17.706	27.887	1480.551	1220.929
-16.692	28.084	1479.054	1220.962
-15.677	27.974	1478.399	1219.637
-14.663	27.923	1477.234	1218.290
-13.648	27.863	1476.675	1217.377
-12.633	27.920	1475.309	1216.582
-11.619	27.865	1475.583	1216.398
-10.604	27.816	1474.417	1215.063
-9.590	27.854	1473.280	1214.327
-8.575	27.901	1472.665	1214.085
-7.560	27.905	1471.318	1212.955
-6.546	27.973	1470.320	1212.530
-5.531	27.906	1469.613	1211.460
-4.517	27.941	1468.361	1210.609
-3.502	27.861	1467.772	1209.545
-2.487	27.875	1466.388	1208.453
-1.473	27.858	1465.374	1207.454
-0.458	27.970	1463.823	1206.868
0.556	29.711	1455.106	1197.047
1.571	27.045	1430.080	1159.363
2.586	23.734	1368.896	1089.394
3.600	22.170	1284.613	1013.222
4.615	20.451	1238.353	967.084
5.629	17.789	1181.201	908.219
6.644	10.649	1098.473	809.061
7.659	5.287	1060.052	754.843
8.673	4.434	1054.984	747.066
9.688	4.338	1050.784	743.564
10.702	4.187	1049.801	742.081
11.717	4.312	1047.565	741.032
12.731	6.830	1050.050	754.767
13.746	14.185	1060.719	797.752
14.761	20.342	1068.397	833.097
15.775	21.971	1069.616	841.793
16.790	21.505	1068.408	838.536
17.804	20.631	1066.446	832.737
18.819	19.757	1064.442	826.922
19.834	19.370	1063.470	824.243
20.848	19.292	1062.850	823.318
21.863	19.305	1061.902	822.572
22.877	19.133	1061.262	821.183
23.892	18.954	1060.375	819.574
24.907	18.932	1059.289	818.558
25.921	18.748	1058.994	817.379
26.936	18.800	1058.230	816.965
27.950	18.924	1056.728	816.324
28.965	18.857	1055.700	815.138
29.980	18.955	1054.728	814.780
30.994	19.102	1054.003	814.845
32.009	19.185	1052.970	814.366
33.023	19.156	1052.913	814.111
34.038	19.335	1051.545	813.825
35.053	19.088	1050.435	811.732
36.067	18.978	1049.822	810.669
37.082	18.923	1048.740	809.503
38.096	18.900	1048.024	808.767
39.111	18.963	1047.557	808.634
40.126	19.102	1046.398	808.320
41.140	19.069	1045.640	807.509
42.155	18.794	1043.764	804.700
43.169	18.498	1042.930	802.599
44.184	18.550	1041.656	801.793
45.199	18.409	1040.377	800.076
46.213	18.490	1039.927	800.040
47.228	18.523	1039.145	799.521
48.242	18.842	1038.269	800.259
49.257	18.938	1037.549	800.082
50.271	19.052	1036.510	799.741
51.286	19.041	1035.701	798.993
52.301	19.050	1035.181	798.565
53.315	19.080	1034.415	798.043
54.330	18.821	1033.802	796.298
55.344	18.736	1032.530	794.853
56.359	18.646	1031.367	793.473
57.374	18.692	1030.683	793.088
58.388	18.627	1029.813	792.047
59.403	18.626	1028.835	791.223
60.417	18.442	1027.863	789.556
61.432	18.484	1027.280	789.233
62.447	18.435	1026.536	788.365
63.461	18.412	1025.707	787.553
64.476	18.266	1024.965	786.243
65.490	18.242	1023.924	785.266
66.505	18.239	1022.949	784.432
67.520	18.371	1022.475	784.605
68.534	18.362	1021.567	783.800
69.549	18.307	1021.017	783.056
70.563	18.344	1020.259	782.577
71.578	18.279	1019.300	781.471
72.593	18.247	1018.029	780.283
73.607	18.135	1016.686	778.675
74.622	18.153	1015.979	778.145
75.636	18.035	1015.472	777.150
76.651	18.088	1015.018	776.980
77.666	18.184	1014.409	776.880
78.680	18.190	1013.478	776.126
79.695	18.156	1012.965	775.510
80.709	18.288	1012.362	775.576
81.724	18.279	1011.557	774.849
82.739	18.595	1011.110	775.867
83.753	18.697	1009.763	775.229
84.768	18.770	1009.575	775.345
85.782	19.161	1008.936	776.549
86.797	19.270	1008.717	776.802
87.812	19.307	1007.680	776.100
88.826	18.997	1006.777	773.940
89.841	19.038	1005.619	773.170
90.855	19.118	1005.256	773.180
91.870	19.207	1004.421	772.868
92.884	19.302	1003.648	772.631
93.899	19.108	1003.036	771.224
94.914	19.302	1001.895	771.146
95.928	19.406	1000.964	770.825
96.943	19.407	1000.599	770.481
97.957	19.227	999.698	768.915
98.972	19.100	998.590	767.427
99.987	19.132	997.988	767.040
101.001	19.152	997.194	766.451
102.016	19.104	996.454	765.604
103.030	19.021	995.907	764.747
104.045	19.125	994.588	764.126
105.060	19.197	993.566	763.591
106.074	19.093	992.556	762.289
107.089	18.756	991.455	759.884
108.103	18.520	990.530	758.063
109.118	18.339	989.278	756.242
110.133	18.338	988.830	755.826
111.147	18.218	987.857	754.484
112.162	18.249	986.680	753.658
113.176	18.298	986.069	753.338
114.191	18.519	985.055	753.470
115.206	18.507	984.412	752.857
116.220	18.456	983.487	751.861
117.235	18.549	982.653	751.566
118.249	18.434	981.969	750.471
119.264	18.492	980.671	749.665
120.279	18.287	980.449	748.533
121.293	18.262	979.600	747.711
122.308	18.270	978.707	746.997
123.322	18.235	977.502	745.856
124.337	18.036	976.735	744.343
125.352	18.083	975.439	743.492
126.366	18.138	974.220	742.735
127.381	17.972	973.260	741.217
128.395	17.968	972.496	740.551
129.410	18.057	971.717	740.280
130.424	18.197	970.983	740.259
131.439	18.336	970.332	740.299
132.454	18.423	969.609	740.058
133.468	18.407	969.029	739.482
134.483	18.459	968.208	739.016
135.497	18.610	967.279	738.892
136.512	18.608	966.255	738.033
137.527	18.508	965.856	737.233
138.541	18.516	965.231	736.727
139.556	18.484	964.552	736.006
140.570	18.487	963.848	735.414
141.585	18.688	963.446	735.907
142.600	18.924	963.043	736.545
143.614	18.918	962.524	736.057
144.629	18.967	961.509	735.424
145.643	19.144	960.759	735.544
146.658	19.076	959.927	734.550
147.673	19.089	958.484	733.438
148.687	18.711	957.814	731.247
149.702	18.774	956.667	730.576
150.716	18.538	955.854	728.888
151.731	18.503	955.043	728.055
152.746	18.683	954.343	728.222
153.760	18.619	953.815	727.483
154.775	18.636	953.170	726.998
155.789	18.778	952.067	726.696
156.804	18.915	951.427	726.721
157.819	18.834	950.781	725.820
158.833	19.011	950.024	725.925
159.848	19.082	949.617	725.848
160.862	19.201	948.989	725.809
161.877	19.146	948.613	725.223
162.892	18.836	946.816	722.481
163.906	18.625	945.853	720.798
164.921	18.594	945.172	720.086
165.935	18.550	944.125	719.037
166.950	18.653	943.211	718.712
167.964	18.768	942.272	718.410
168.979	18.777	941.538	717.825
169.994	18.660	940.216	716.265
171.008	18.669	939.504	715.701
172.023	18.702	938.649	715.121
173.037	18.799	938.345	715.229
174.052	19.058	937.606	715.680
175.067	19.001	936.731	714.713
176.081	18.662	935.941	712.642
177.096	18.497	935.007	711.179
178.110	18.523	933.528	710.102
179.125	18.586	933.290	710.120
180.140	18.625	932.371	709.519
181.154	18.717	931.494	709.169
182.169	18.931	931.440	709.950
183.183	18.936	931.066	709.622
184.198	19.046	930.320	709.442
185.213	18.943	929.894	708.630
186.227	19.041	928.747	708.097
187.242	19.151	928.799	708.528
188.256	19.165	928.302	708.143
189.271	19.256	927.720	708.010
190.286	19.383	926.667	707.664
191.300	19.093	925.919	705.840
192.315	18.644	924.550	702.898
193.329	18.308	923.786	700.879
194.344	18.505	922.971	701.004
195.359	18.620	922.727	701.225
196.373	18.764	922.190	701.343
197.388	18.956	921.379	701.450
198.402	19.151	921.447	702.233
199.417	19.265	921.232	702.471
200.432	19.432	920.871	702.816
201.446	19.428	920.328	702.324
202.461	19.637	919.757	702.674
203.475	19.574	920.034	702.569
204.490	19.667	918.777	701.923
205.504	19.470	917.628	700.185
206.519	19.285	916.537	698.539
207.534	19.179	915.749	697.449
208.548	19.082	915.444	696.764
209.563	19.157	914.606	696.368
210.577	19.159	913.629	695.570
211.592	19.206	913.151	695.333
212.607	19.400	913.079	696.000
213.621	19.562	912.574	696.205
214.636	19.607	911.656	695.626
215.650	19.371	911.234	694.292
216.665	19.509	910.225	694.018
217.680	19.495	910.000	693.728
218.694	19.612	909.338	693.632
219.709	19.716	909.242	693.913
220.723	19.651	908.305	692.876
221.738	19.536	907.529	691.763
222.753	19.523	907.187	691.389
223.767	19.412	906.538	690.388
224.782	19.557	905.461	690.086
225.796	19.668	905.212	690.279
226.811	19.799	904.040	689.848
227.826	19.784	903.094	689.005
228.840	19.526	902.550	687.500
229.855	19.435	901.851	686.544
230.869	19.321	901.608	685.845
231.884	19.525	900.494	685.748
232.899	19.381	899.828	684.612
233.913	19.426	899.096	684.169
234.928	19.270	898.153	682.776
235.942	19.133	897.616	681.763
236.957	19.307	896.674	681.676
237.972	19.162	896.259	680.726
238.986	19.177	895.605	680.228
240.001	19.269	895.059	680.115
241.015	19.217	894.474	679.409
242.030	19.211	893.893	678.884
243.045	19.422	893.109	679.056
244.059	19.540	892.551	679.037
245.074	19.668	891.615	678.767
246.088	19.610	891.418	678.332
247.103	19.792	890.536	678.313
248.117	19.743	890.275	677.863
249.132	19.774	890.402	678.021
250.147	20.174	889.827	679.090
251.161	20.502	889.210	679.841
252.176	20.552	888.587	679.502
253.190	20.458	887.981	678.608
254.205	20.558	887.396	678.494
255.220	20.489	887.034	677.889
256.234	20.497	886.806	677.683
257.249	20.510	885.620	676.770
258.263	20.461	884.899	675.968
259.278	20.457	884.571	675.642
260.293	20.432	883.790	674.890
261.307	20.492	883.313	674.696
262.322	20.511	883.118	674.561
263.336	20.565	882.252	674.052
264.351	20.642	881.609	673.799
265.366	20.658	880.617	673.042
266.380	20.570	880.607	672.635
267.395	20.558	879.815	671.922
268.409	20.357	879.234	670.644
269.424	20.333	878.386	669.843
270.439	20.438	877.717	669.680
271.453	20.399	876.807	668.776
272.468	20.305	875.760	667.559
273.482	20.176	875.593	666.876
274.497	20.169	874.642	666.067
275.512	20.409	873.912	666.370
276.526	20.296	873.098	665.257
277.541	20.339	872.568	664.959
278.555	20.269	872.512	664.589
279.570	20.524	871.701	664.890
280.585	20.647	871.477	665.130
281.599	20.782	871.145	665.335
282.614	20.352	870.604	663.218
283.628	20.263	869.341	661.860
284.643	20.454	868.613	661.974
285.657	20.508	868.350	661.920
286.672	20.437	867.989	661.317
287.687	20.419	867.269	660.642
288.701	20.455	866.969	660.490
289.716	20.522	866.572	660.383
290.730	20.486	865.658	659.493
291.745	20.538	865.256	659.326
292.760	20.599	864.587	658.989
293.774	20.580	864.076	658.467
294.789	20.778	863.760	658.920
295.803	20.749	863.215	658.338
296.818	20.556	862.343	656.882
297.833	20.511	861.260	655.829
298.847	20.484	860.883	655.382
299.862	20.627	860.005	655.197
300.876	20.498	859.832	654.522
301.891	20.837	858.695	654.870
302.906	20.691	858.660	654.237
303.920	20.889	857.732	654.218
304.935	21.050	857.277	654.414
305.949	21.191	857.047	654.711
306.964	21.232	856.136	654.111
307.979	20.902	855.566	652.380
308.993	20.818	854.805	651.431
310.008	20.974	854.637	651.826
311.022	20.981	854.049	651.348
312.037	21.077	853.634	651.332
313.052	20.888	852.624	649.799
314.066	20.663	851.864	648.324
315.081	20.372	851.638	647.009
316.095	20.582	850.529	646.890
317.110	20.464	850.372	646.275
318.125	20.523	849.717	645.939
319.139	20.641	848.671	645.525
320.154	20.546	848.682	645.125
321.168	20.620	847.943	644.781
322.183	20.600	847.445	644.268
323.197	20.669	846.830	644.001
324.212	20.738	846.632	644.050
325.227	20.662	846.387	643.525
326.241	20.724	845.339	642.899
327.256	20.721	844.527	642.215
328.270	20.659	843.993	641.522
329.285	20.777	843.476	641.508
330.300	20.695	842.885	640.698
331.314	20.368	842.577	639.204
332.329	20.662	841.565	639.463
333.343	20.828	841.518	639.978
334.358	20.855	841.253	639.821
335.373	20.959	840.880	639.862
336.387	20.923	839.960	638.975
337.402	20.891	839.325	638.317
338.416	21.181	838.704	638.848
339.431	21.141	838.471	638.470
340.446	21.432	838.084	639.180
341.460	21.589	837.328	639.122
342.475	21.597	836.581	638.525
343.489	21.508	836.801	638.311
344.504	21.683	836.046	638.314
345.519	21.736	835.691	638.182
346.533	21.777	834.994	637.743
347.548	21.618	834.704	636.887
348.562	21.517	833.836	635.800
349.577	21.215	833.142	634.119
350.592	21.117	832.477	633.199
351.606	20.958	832.146	632.316
352.621	20.986	831.539	631.900
353.635	21.037	830.890	631.536
354.650	21.160	830.714	631.791
355.665	21.146	830.321	631.386
356.679	21.266	829.358	631.033
357.694	21.178	829.416	630.700
358.708	21.341	828.721	630.706
359.723	21.300	828.012	629.963
360.738	21.221	828.022	629.628
361.752	21.350	827.440	629.597
362.767	21.429	826.524	629.127
363.781	21.474	826.381	629.125
364.796	21.588	826.188	629.334
365.810	21.822	825.600	629.668
366.825	21.839	825.723	629.769
367.840	21.939	825.038	629.550
368.854	21.956	824.944	629.483
369.869	21.861	823.885	628.279
370.883	21.713	823.156	627.135
371.898	21.758	822.604	626.823
372.913	21.874	821.747	626.527
373.927	21.994	821.505	626.715
374.942	21.657	821.357	625.343
375.956	21.755	820.410	624.917
376.971	21.919	820.005	625.138
377.986	22.099	819.453	625.302
379.000	22.148	819.071	625.132
380.015	22.306	818.529	625.221
381.029	22.152	817.798	624.062
382.044	22.120	817.149	623.397
383.059	22.102	816.447	622.745
384.073	22.079	816.172	622.399
385.088	22.238	815.215	622.174
386.102	21.862	814.445	620.205
387.117	21.811	813.657	619.369
388.132	21.651	813.746	618.815
389.146	21.700	813.323	618.612
390.161	21.758	812.841	618.398
391.175	21.850	812.775	618.615
392.190	22.090	812.212	618.979
393.205	22.087	811.649	618.483
394.219	21.828	811.200	617.177
395.234	21.757	810.660	616.461
396.248	21.681	809.917	615.572
397.263	21.619	809.425	614.926
398.278	21.568	808.835	614.248
399.292	21.396	808.687	613.475
400.307	21.516	807.840	613.201
401.321	21.644	807.611	613.418
402.336	21.477	807.608	612.777
403.350	21.688	806.780	612.835
404.365	21.841	806.371	613.003
405.380	22.052	806.060	613.450
406.394	22.028	805.588	612.953
407.409	22.199	805.611	613.513
408.423	22.262	805.317	613.457
409.438	22.272	804.849	613.079
410.453	22.352	804.356	612.927
411.467	22.451	803.810	612.803
412.482	22.477	803.396	612.522
413.496	22.646	802.775	612.582
414.511	22.635	802.639	612.385
415.526	22.617	802.269	611.985
416.540	22.557	801.833	611.392
417.555	22.461	801.387	610.663
418.569	22.436	800.894	610.148
419.584	22.540	800.175	609.908
420.599	22.517	799.868	609.539
421.613	163.478	1370.759	1795.632
422.628	142.008	1453.938	1795.720
