DTS Sentinel unit serial number:	SN413079Multiplexer serial number:	ORYXHardware model number:	OX4-SRSoftware version number:	ORYX F/W v4.00 Oryx Data Collector v3.7.2.0data status	okinstallation	princeton_trtdifferential loss correction	single-endedforward channel	channel 3reverse channel	N/Adate	2019/09/13time	02:28:35forward acquisition time	60.00reverse acquisition time	0.00gamma	496.2192k internal	0.2335k external	0.2335temperature offset calibration	1.0134default loss term (dB/km)	0.3790temperature slope calibration	1.0000multiplexer offset coefficient	1.0000multiplexer slope coefficient	1.0000fibre end	0.00T internal ref (°C)	27.50T ext. ref 1 (°C)	3.95T ext. ref 2 (°C)	22.25length (m)	temperature (°C)	Stokes	anti-Stokes-747.200	769.852	0.034	-0.092
-746.185	-200.000	-0.096	0.493
-745.171	517.256	0.157	-0.370
-744.156	-129.925	0.123	0.017
-743.142	-25.409	-0.255	-0.152
-742.127	11.590	-0.237	0.182
-741.112	17.435	-0.105	0.084
-740.098	-200.000	-0.002	0.371
-739.083	-154.546	0.293	-0.020
-738.069	-79.587	-0.319	0.108
-737.054	-93.708	-0.185	0.051
-736.039	250.637	0.199	-0.339
-735.025	-29.937	-0.124	-0.071
-734.010	533.433	0.043	0.102
-732.996	354.047	-0.127	-0.254
-731.981	-164.349	-0.121	-0.006
-730.966	236.674	-0.083	0.137
-729.952	270.744	0.070	-0.124
-728.937	-178.318	-0.623	-0.015
-727.923	-200.000	-0.033	0.346
-726.908	230.592	-0.132	-0.217
-725.894	-200.000	-0.061	-0.310
-724.879	-200.000	-0.034	-0.495
-723.864	-55.337	-0.309	-0.139
-722.850	800.000	0.068	0.196
-721.835	800.000	-0.153	-0.529
-720.821	-97.716	-0.343	-0.089
-719.806	-200.000	-0.058	0.348
-718.791	273.021	0.070	-0.125
-717.777	-8.448	-0.408	-0.275
-716.762	67.988	-0.089	-0.092
-715.748	-185.501	0.073	-0.001
-714.733	288.545	-0.047	-0.086
-713.718	40.443	-0.280	-0.253
-712.704	-107.273	-0.196	0.043
-711.689	-70.949	0.272	0.103
-710.675	-4.937	-0.089	-0.061
-709.660	-74.006	0.218	-0.079
-708.645	303.551	-0.051	-0.095
-707.631	-200.000	0.144	0.001
-706.616	396.931	-0.136	0.284
-705.602	2.400	-0.154	0.112
-704.587	-129.172	-0.070	-0.010
-703.572	-72.902	0.067	-0.025
-702.558	-24.607	0.413	0.247
-701.543	260.559	0.116	-0.201
-700.529	-63.331	0.231	0.095
-699.514	464.679	-0.104	0.234
-698.499	-95.536	-0.410	-0.110
-697.485	-77.258	-0.209	-0.073
-696.470	96.684	0.051	0.058
-695.456	-74.309	-0.380	0.138
-694.441	-158.022	-0.399	-0.024
-693.426	117.164	0.155	0.191
-692.412	175.147	-0.166	-0.241
-691.397	-200.000	0.041	-0.415
-690.383	337.203	0.026	0.050
-689.368	-135.940	-0.254	-0.030
-688.354	-78.317	0.447	-0.154
-687.339	-164.771	-0.222	-0.010
-686.324	44.798	-0.173	0.159
-685.310	-200.000	-0.039	0.183
-684.295	-74.069	0.098	0.035
-683.281	-97.387	0.135	0.035
-682.266	458.991	0.100	-0.223
-681.251	-98.890	0.153	-0.039
-680.237	-85.763	0.267	-0.083
-679.222	-200.000	0.001	-0.073
-678.208	211.350	-0.163	-0.257
-677.193	288.353	-0.202	-0.366
-676.178	800.000	-0.007	0.027
-675.164	76.440	0.076	-0.081
-674.149	-200.000	0.039	-0.298
-673.135	248.217	0.086	-0.146
-672.120	-113.528	-0.202	-0.040
-671.105	-14.885	-0.078	-0.050
-670.091	-15.372	0.021	-0.013
-669.076	147.863	-0.018	0.025
-668.062	-200.000	-0.038	-0.270
-667.047	38.399	-0.179	0.160
-666.032	-150.117	-0.319	0.025
-665.018	93.808	-0.179	-0.203
-664.003	-60.917	0.277	-0.117
-662.989	-44.848	-0.259	-0.129
-661.974	-200.000	-0.025	-0.219
-660.959	-6.932	-0.260	0.177
-659.945	800.000	-0.059	0.196
-658.930	-200.000	0.012	-0.161
-657.916	-72.291	0.333	0.124
-656.901	-200.000	-0.034	0.162
-655.886	190.380	-0.139	0.210
-654.872	5.337	-0.184	-0.136
-653.857	369.531	0.063	-0.128
-652.843	48.957	0.075	-0.070
-651.828	800.000	-0.106	-0.376
-650.814	-43.369	-0.056	0.028
-649.799	-200.000	0.004	-0.168
-648.784	-200.000	-0.015	-0.221
-647.770	-105.163	-0.152	-0.035
-646.755	800.000	0.071	-0.264
-645.741	-47.140	-0.131	0.064
-644.726	-200.000	0.021	0.278
-643.711	-25.129	-0.321	0.190
-642.697	-44.468	-0.247	0.124
-641.682	237.621	-0.074	-0.122
-640.668	5.150	-0.092	-0.068
-639.653	-30.367	-0.152	-0.086
-638.638	-46.701	0.082	0.040
-637.624	-156.447	0.065	0.004
-636.609	430.882	-0.146	-0.316
-635.595	-31.086	0.281	-0.158
-634.580	137.064	-0.079	0.103
-633.565	-103.835	0.260	-0.061
-632.551	-92.555	0.060	-0.017
-631.536	-113.969	0.368	0.072
-630.522	40.320	0.023	0.021
-629.507	-11.009	-0.075	-0.049
-628.492	800.000	-0.051	-0.208
-627.478	-66.819	0.235	-0.093
-626.463	-200.000	0.020	0.126
-625.449	56.471	-0.131	0.128
-624.434	-200.000	-0.015	-0.233
-623.419	-200.000	-0.379	0.001
-622.405	43.185	0.060	-0.055
-621.390	-32.400	-0.036	0.020
-620.376	-200.000	-0.034	0.177
-619.361	120.628	0.076	0.094
-618.346	285.848	-0.270	-0.487
-617.332	-200.000	-0.009	-0.089
-616.317	237.339	0.165	0.273
-615.303	-27.992	-0.090	-0.052
-614.288	-141.537	0.367	-0.037
-613.273	336.193	0.089	0.173
-612.259	-94.913	0.277	-0.075
-611.244	134.093	-0.022	0.029
-610.230	-173.886	-0.183	-0.005
-609.215	59.591	0.213	0.210
-608.201	163.374	0.137	0.193
-607.186	-101.515	-0.132	0.032
-606.171	-71.702	-0.416	0.155
-605.157	800.000	0.065	-0.278
-604.142	366.523	0.156	0.315
-603.128	800.000	-0.040	-0.159
-602.113	6.486	0.203	-0.151
-601.098	-85.342	0.221	-0.069
-600.084	-111.301	0.061	0.013
-599.069	-108.757	0.295	-0.063
-598.055	-55.420	-0.096	-0.043
-597.040	191.358	-0.090	-0.135
-596.025	278.794	0.045	0.080
-595.011	-32.713	0.154	0.086
-593.996	36.822	-0.182	0.161
-592.982	-25.956	-0.129	0.076
-591.967	-91.063	-0.213	-0.061
-590.952	-42.597	-0.077	-0.039
-589.938	-1.414	-0.068	-0.048
-588.923	412.792	-0.166	-0.353
-587.909	250.871	0.090	-0.153
-586.894	281.361	-0.129	0.231
-585.879	-21.759	0.217	0.132
-584.865	-200.000	0.026	0.290
-583.850	52.043	0.038	0.036
-582.836	-200.000	-0.070	-0.329
-581.821	69.420	-0.225	0.231
-580.806	-200.000	-0.006	0.226
-579.792	37.707	-0.048	-0.042
-578.777	800.000	0.060	-0.235
-577.763	395.234	0.119	-0.248
-576.748	388.618	-0.191	-0.395
-575.733	733.035	-0.137	-0.365
-574.719	-174.210	-0.438	-0.013
-573.704	-200.000	0.007	0.039
-572.690	202.317	0.064	-0.099
-571.675	36.071	-0.231	-0.203
-570.661	800.000	0.100	0.303
-569.646	-200.000	-0.030	0.166
-568.631	478.470	-0.023	0.052
-567.617	-179.173	-0.309	0.007
-566.602	173.937	-0.223	0.322
-565.588	520.518	-0.103	0.242
-564.573	-67.356	0.286	0.112
-563.558	-55.719	0.146	0.065
-562.544	800.000	-0.017	0.073
-561.529	-188.850	-0.434	-0.005
-560.515	-200.000	0.003	-0.088
-559.500	647.595	-0.040	-0.102
-558.485	-108.735	-0.324	0.069
-557.471	800.000	0.021	0.085
-556.456	800.000	-0.111	-0.357
-555.442	-13.335	0.103	0.067
-554.427	800.000	0.013	-0.039
-553.412	149.114	-0.085	-0.115
-552.398	164.883	0.072	-0.101
-551.383	-108.907	0.108	0.023
-550.369	-93.792	-0.193	-0.053
-549.354	-30.360	-0.228	-0.129
-548.339	-200.000	0.406	0.002
-547.325	-200.000	0.010	0.122
-546.310	-200.000	-0.025	-0.111
-545.296	-163.558	0.206	-0.010
-544.281	118.321	-0.432	-0.532
-543.266	-32.768	0.469	0.260
-542.252	-200.000	-0.012	-0.074
-541.237	10.294	-0.195	0.148
-540.223	26.186	0.038	-0.032
-539.208	155.412	0.069	-0.095
-538.193	800.000	-0.072	-0.297
-537.179	-98.118	-0.178	-0.046
-536.164	4.142	-0.438	0.319
-535.150	800.000	-0.106	0.454
-534.135	-98.306	-0.233	0.060
-533.121	35.779	-0.219	0.192
-532.106	-200.000	-0.019	-0.190
-531.091	-60.078	-0.490	-0.208
-530.077	-138.108	0.126	-0.014
-529.062	-200.000	-0.021	-0.222
-528.048	-130.679	-0.278	0.037
-527.033	-200.000	-0.072	-0.377
-526.018	288.605	0.136	0.245
-525.004	121.175	0.194	-0.241
-523.989	62.705	-0.027	-0.027
-522.975	345.392	0.232	0.454
-521.960	130.245	0.210	-0.268
-520.945	302.870	-0.161	-0.297
-519.931	-161.878	-0.130	0.007
-518.916	24.946	0.226	-0.187
-517.902	86.864	-0.292	-0.321
-516.887	325.424	-0.119	0.226
-515.872	35.346	0.256	0.224
-514.858	-200.000	-0.054	0.249
-513.843	-200.000	0.004	0.040
-512.829	168.346	0.061	-0.086
-511.814	-31.491	0.087	0.049
-510.799	13.644	-0.103	-0.079
-509.785	-200.000	-0.030	0.135
-508.770	-200.000	0.049	-0.347
-507.756	2.317	0.079	0.057
-506.741	107.160	0.221	0.261
-505.726	-200.000	0.002	0.324
-504.712	-52.144	0.335	0.155
-503.697	114.737	0.276	-0.335
-502.683	-22.926	-0.128	0.077
-501.668	800.000	0.025	-0.102
-500.653	-144.336	-0.212	0.020
-499.639	-94.638	-0.200	-0.054
-498.624	-200.000	-0.004	0.072
-497.610	-110.876	0.234	0.048
-496.595	-114.587	-0.309	-0.059
-495.581	-110.826	-0.025	-0.005
-494.566	-118.025	0.225	0.040
-493.551	-187.330	0.323	0.004
-492.537	-200.000	0.012	-0.163
-491.522	-47.712	0.149	-0.072
-490.508	-16.540	-0.097	-0.061
-489.493	41.698	0.337	-0.304
-488.478	-29.931	-0.243	-0.138
-487.464	31.547	-0.139	0.119
-486.449	-140.995	-0.171	0.017
-485.435	800.000	-0.029	0.123
-484.420	-5.721	0.228	0.155
-483.405	-200.000	-0.014	-0.064
-482.391	-106.580	0.196	-0.044
-481.376	-54.724	-0.026	-0.012
-480.362	53.214	-0.166	0.158
-479.347	276.611	0.106	-0.187
-478.332	-81.417	-0.127	0.042
-477.318	-156.580	0.237	-0.015
-476.303	-144.583	-0.156	0.014
-475.289	800.000	0.035	0.109
-474.274	-115.581	0.293	-0.055
-473.259	-102.457	-0.100	0.024
-472.245	-200.000	0.023	0.331
-471.230	716.790	-0.098	0.258
-470.216	366.645	-0.026	0.053
-469.201	-124.993	-0.254	-0.039
-468.186	-200.000	0.000	0.032
-467.172	800.000	-0.011	-0.044
-466.157	-160.640	-0.035	0.002
-465.143	-53.638	0.115	-0.052
-464.128	-61.418	0.123	0.051
-463.113	-22.719	0.142	-0.085
-462.099	-33.669	-0.113	0.062
-461.084	-29.872	0.057	0.032
-460.070	323.954	0.049	-0.093
-459.055	-116.318	0.248	-0.046
-458.040	-200.000	-0.021	0.187
-457.026	18.936	0.128	0.102
-456.011	145.755	0.173	-0.231
-454.997	11.384	-0.185	-0.141
-453.982	413.325	0.076	-0.161
-452.968	800.000	-0.056	0.164
-451.953	-111.796	0.338	0.068
-450.938	-9.483	0.091	-0.060
-449.924	-58.940	-0.320	0.137
-448.909	-168.856	0.088	0.003
-447.895	373.260	0.007	-0.015
-446.880	800.000	0.020	0.085
-445.865	623.151	-0.033	0.083
-444.851	40.700	-0.109	-0.097
-443.836	-200.000	-0.004	0.037
-442.822	-121.299	-0.242	0.040
-441.807	800.000	-0.145	0.410
-440.792	-200.000	-0.026	0.000
-439.778	172.480	-0.127	0.181
-438.763	800.000	-0.011	-0.043
-437.749	-66.501	-0.238	-0.094
-436.734	-73.594	-0.213	0.077
-435.719	-94.912	0.229	0.061
-434.705	38.576	0.375	0.332
-433.690	-65.797	0.032	-0.013
-432.676	800.000	-0.022	-0.061
-431.661	254.089	0.129	-0.219
-430.646	-173.227	0.451	0.014
-429.632	-48.641	-0.207	0.099
-428.617	-37.569	-0.114	0.061
-427.603	-72.034	0.274	0.101
-426.588	48.863	0.121	-0.112
-425.573	-0.235	-0.046	-0.032
-424.559	43.415	-0.196	-0.177
-423.544	98.842	-0.057	-0.066
-422.530	234.106	-0.035	0.057
-421.515	-48.137	-0.272	0.131
-420.500	502.446	-0.072	0.164
-419.486	-200.000	-0.007	0.042
-418.471	800.000	-0.090	0.303
-417.457	127.515	-0.215	0.271
-416.442	20.243	0.370	-0.296
-415.428	450.171	0.052	0.115
-414.413	-50.854	-0.249	-0.116
-413.398	-139.256	0.110	0.012
-412.384	-26.157	-0.155	0.090
-411.369	-92.504	-0.256	-0.071
-410.355	485.836	0.061	0.138
-409.340	-66.844	0.301	0.118
-408.325	373.298	0.132	0.267
-407.311	273.965	0.035	0.062
-406.296	-41.093	-0.215	-0.110
-405.282	-119.194	-0.116	-0.020
-404.267	800.000	0.098	0.339
-403.252	-95.978	-0.288	-0.076
-402.238	-200.000	0.017	0.089
-401.223	17.861	-0.086	-0.068
-400.209	-200.000	-0.013	-0.073
-399.194	-167.276	-0.176	0.007
-398.179	62.172	-0.178	0.176
-397.165	-150.866	0.068	0.005
-396.150	-159.362	0.247	0.014
-395.136	461.851	-0.104	-0.230
-394.121	349.123	0.095	0.186
-393.106	-32.662	0.080	0.044
-392.092	800.000	0.073	-0.291
-391.077	-33.476	0.505	-0.277
-390.063	8.462	0.216	0.161
-389.048	-133.155	0.257	0.032
-388.033	118.904	0.317	0.388
-387.019	-200.000	-0.007	-0.176
-386.004	800.000	0.087	-0.267
-384.990	-96.257	0.132	0.035
-383.975	-200.000	0.035	-0.180
-382.960	52.549	0.185	0.176
-381.946	-84.215	0.157	-0.049
-380.931	800.000	0.030	0.102
-379.917	-133.248	-0.139	0.017
-378.902	-10.297	0.417	-0.274
-377.888	-55.071	-0.115	-0.051
-376.873	-200.000	-0.072	0.337
-375.858	406.126	-0.187	0.392
-374.844	800.000	0.027	0.110
-373.829	-120.744	0.237	0.040
-372.815	800.000	0.109	-0.445
-371.800	-120.285	-0.275	-0.047
-370.785	-82.332	0.305	-0.098
-369.771	508.542	0.166	0.382
-368.756	39.305	-0.190	0.169
-367.742	-5.194	0.023	0.016
-366.727	-200.000	0.002	-0.013
-365.712	-36.193	-0.224	0.120
-364.698	62.527	-0.121	0.120
-363.683	-19.569	0.023	-0.014
-362.669	168.913	-0.049	0.070
-361.654	-15.001	0.325	-0.206
-360.639	351.243	0.062	-0.122
-359.625	9.866	-0.350	-0.263
-358.610	91.989	0.133	0.148
-357.596	800.000	0.038	-0.121
-356.581	59.159	0.186	0.182
-355.566	-69.466	-0.124	-0.047
-354.552	-77.974	0.559	-0.191
-353.537	527.024	0.095	-0.222
-352.523	-82.867	0.158	-0.051
-351.508	-3.391	0.270	-0.186
-350.493	-131.468	0.213	-0.028
-349.479	-108.513	-0.221	0.047
-348.464	-85.275	0.135	0.042
-347.450	-72.603	-0.104	-0.038
-346.435	296.959	-0.057	-0.103
-345.420	313.826	0.051	0.095
-344.406	-200.000	-0.031	-0.142
-343.391	-200.000	-0.029	-0.215
-342.377	-56.996	-0.175	-0.076
-341.362	-200.000	0.057	0.288
-340.348	147.738	0.149	-0.199
-339.333	546.923	-0.155	-0.368
-338.318	101.881	0.107	-0.123
-337.304	-138.859	0.574	-0.062
-336.289	366.702	0.131	-0.261
-335.275	161.926	-0.041	-0.056
-334.260	-200.000	-0.030	-0.361
-333.245	11.950	-0.247	0.188
-332.231	105.740	0.148	-0.173
-331.216	140.858	-0.156	-0.204
-330.202	69.725	-0.212	-0.216
-329.187	-0.797	-0.354	0.248
-328.172	165.836	-0.154	-0.216
-327.158	-131.455	0.085	-0.011
-326.143	-20.635	0.058	0.035
-325.129	-16.019	0.155	-0.098
-324.114	-200.000	0.020	0.184
-323.099	164.746	0.230	-0.321
-322.085	-200.000	-0.074	-0.488
-321.070	-51.602	0.157	0.072
-320.056	-32.869	-0.241	-0.133
-319.041	306.684	0.051	0.094
-318.026	-62.776	-0.154	0.063
-317.012	725.489	0.101	-0.265
-315.997	45.738	0.108	-0.099
-314.983	800.000	-0.022	-0.083
-313.968	800.000	0.072	-0.223
-312.953	90.752	-0.098	0.108
-311.939	-127.100	-0.114	-0.017
-310.924	-200.000	-0.047	-0.210
-309.910	-157.722	0.155	-0.009
-308.895	474.687	-0.074	0.165
-307.880	279.448	-0.093	-0.164
-306.866	495.518	-0.030	-0.068
-305.851	800.000	0.086	0.364
-304.837	-147.757	0.012	-0.001
-303.822	21.592	0.226	-0.182
-302.807	-200.000	-0.006	0.190
-301.793	29.732	-0.025	0.021
-300.778	111.793	-0.172	0.205
-299.764	-133.356	0.232	0.029
-298.749	-200.000	-0.005	0.243
-297.735	-200.000	-0.047	0.394
-296.720	3.284	0.208	0.150
-295.705	-104.775	-0.177	0.040
-294.691	8.664	0.105	0.078
-293.676	-200.000	-0.032	0.156
-292.662	-55.801	-0.160	-0.071
-291.647	164.695	-0.063	0.087
-290.632	-117.753	0.116	-0.021
-289.618	-24.250	-0.177	-0.104
-288.603	-198.704	-0.464	0.003
-287.589	-15.015	-0.169	0.107
-286.574	-97.857	0.173	-0.044
-285.559	348.092	-0.112	-0.217
-284.545	800.000	0.029	0.095
-283.530	-200.000	-0.068	-0.469
-282.516	-200.000	-0.048	0.283
-281.501	9.374	-0.198	0.148
-280.486	-25.379	0.189	0.110
-279.472	63.521	0.281	0.278
-278.457	152.477	-0.223	0.301
-277.443	-60.026	-0.406	-0.171
-276.428	-200.000	-0.064	0.280
-275.413	-164.092	-0.225	0.010
-274.399	-200.000	0.044	-0.236
-273.384	236.793	0.142	0.232
-272.370	536.425	0.057	0.133
-271.355	-200.000	0.004	-0.223
-270.340	-200.000	0.010	-0.076
-269.326	200.571	0.090	-0.136
-268.311	115.066	0.038	0.045
-267.297	41.977	-0.069	0.062
-266.282	585.886	0.106	0.256
-265.267	-200.000	0.038	0.269
-264.253	800.000	0.080	-0.267
-263.238	490.419	0.248	-0.560
-262.224	-22.223	0.236	0.141
-261.209	-87.159	-0.098	-0.029
-260.195	-200.000	0.033	0.225
-259.180	-35.342	0.097	-0.052
-258.165	800.000	-0.082	-0.270
-257.151	116.376	0.106	0.129
-256.136	51.345	-0.240	0.224
-255.122	120.296	-0.119	0.146
-254.107	-200.000	0.005	-0.079
-253.092	-11.600	0.262	-0.170
-252.078	-200.000	-0.030	0.164
-251.063	800.000	0.045	0.154
-250.049	44.618	0.132	0.119
-249.034	800.000	0.029	-0.117
-248.019	120.552	0.109	0.133
-247.005	-183.371	-0.203	-0.003
-245.990	800.000	0.073	-0.216
-244.976	236.540	-0.170	-0.277
-243.961	-110.448	-0.235	0.048
-242.946	800.000	0.012	0.052
-241.932	800.000	0.088	0.313
-240.917	-21.989	0.169	-0.101
-239.903	137.212	0.247	-0.319
-238.888	-111.813	-0.243	0.048
-237.873	-59.616	0.119	-0.050
-236.859	267.396	0.106	-0.183
-235.844	5.049	-0.209	-0.151
-234.830	-37.069	-0.284	0.150
-233.815	-98.285	-0.129	-0.033
-232.800	-14.408	-0.100	0.064
-231.786	107.438	-0.193	0.226
-230.771	338.765	-0.145	0.278
-229.757	158.892	0.054	0.074
-228.742	482.718	-0.136	0.304
-227.727	-165.622	0.221	-0.009
-226.713	216.375	-0.127	-0.198
-225.698	-200.000	-0.010	-0.508
-224.684	-157.161	-0.036	-0.002
-223.669	800.000	0.130	-0.384
-222.655	-200.000	-0.022	0.284
-221.640	-11.665	-0.124	0.080
-220.625	-100.074	-0.047	-0.012
-219.611	263.004	-0.108	0.184
-218.596	-32.575	0.052	0.029
-217.582	-36.811	-0.295	0.156
-216.567	86.628	0.118	0.129
-215.552	-125.021	-0.287	-0.043
-214.538	800.000	0.074	0.264
-213.523	-200.000	0.011	0.085
-212.509	-85.083	0.237	0.073
-211.494	-200.000	-0.006	0.068
-210.479	-200.000	0.031	0.190
-209.465	529.428	-0.198	-0.460
-208.450	-200.000	0.001	0.093
-207.436	800.000	0.104	0.378
-206.421	-140.109	0.521	0.054
-205.406	-88.472	0.095	-0.028
-204.392	42.311	-0.112	-0.100
-203.377	362.502	0.029	0.057
-202.363	413.552	0.104	-0.217
-201.348	800.000	-0.030	-0.098
-200.333	39.549	-0.159	-0.140
-199.319	-113.152	-0.237	-0.046
-198.304	125.880	-0.233	-0.289
-197.290	-200.000	0.036	-0.184
-196.275	-154.924	0.237	-0.015
-195.260	-72.362	-0.117	-0.043
-194.246	-200.000	0.019	0.251
-193.231	800.000	0.060	-0.171
-192.217	-86.778	-0.177	0.053
-191.202	-38.362	0.345	0.180
-190.187	371.544	-0.067	0.134
-189.173	-30.640	-0.081	0.045
-188.158	120.694	-0.147	0.180
-187.144	-200.000	0.028	-0.508
-186.129	-200.000	0.003	-0.203
-185.114	-55.617	-0.186	0.082
-184.100	41.072	0.080	0.071
-183.085	129.585	0.122	0.154
-182.071	171.894	-0.030	0.043
-181.056	-25.977	-0.352	0.204
-180.042	-200.000	-0.056	0.273
-179.027	-74.546	-0.095	-0.034
-178.012	63.091	-0.265	-0.261
-176.998	104.899	0.208	-0.241
-175.983	32.101	0.057	-0.048
-174.969	48.079	-0.083	0.076
-173.954	71.759	0.136	-0.139
-172.939	341.773	0.029	-0.056
-171.925	311.669	-0.048	-0.089
-170.910	-200.000	-0.004	-0.042
-169.896	-200.000	-0.011	0.185
-168.881	-145.624	0.254	-0.022
-167.866	136.513	0.154	-0.197
-166.852	-170.321	0.231	-0.008
-165.837	-200.000	-0.004	-0.041
-164.823	58.788	-0.153	-0.148
-163.808	220.427	0.154	-0.242
-162.793	312.391	0.066	0.121
-161.779	-200.000	0.054	0.290
-160.764	-5.349	-0.110	0.074
-159.750	-200.000	0.020	0.309
-158.735	800.000	0.061	0.240
-157.720	77.893	0.148	0.154
-156.706	-53.838	-0.260	-0.117
-155.691	-34.020	0.285	-0.154
-154.677	-167.651	0.256	0.010
-153.662	800.000	0.079	0.295
-152.647	-200.000	0.043	0.389
-151.633	800.000	-0.045	0.129
-150.618	45.115	0.131	-0.118
-149.604	359.236	0.088	-0.173
-148.589	136.203	0.123	0.157
-147.574	-200.000	-0.002	0.011
-146.560	341.309	-0.056	-0.108
-145.545	-130.667	-0.094	-0.012
-144.531	470.883	-0.077	-0.170
-143.516	800.000	0.084	0.263
-142.502	-137.549	0.101	0.011
-141.487	294.892	0.107	0.193
-140.472	800.000	-0.053	-0.162
-139.458	793.970	0.108	0.291
-138.443	800.000	-0.017	0.065
-137.429	-31.248	0.174	0.096
-136.414	90.812	-0.225	0.248
-135.399	-25.230	-0.412	-0.239
-134.385	450.696	-0.100	0.217
-133.370	91.217	-0.226	0.248
-132.356	16.477	-0.191	-0.148
-131.341	-200.000	0.012	-0.062
-130.326	-72.030	0.470	0.171
-129.312	173.602	-0.069	-0.098
-128.297	-200.000	0.008	0.169
-127.283	0.999	-0.179	0.126
-126.268	-200.000	0.009	0.068
-125.253	-102.613	-0.035	-0.008
-124.239	594.361	-0.061	0.149
-123.224	-200.000	0.004	0.026
-122.210	746.524	0.043	0.113
-121.195	212.636	0.207	-0.320
-120.180	800.000	-0.050	0.192
-119.166	-109.821	-0.163	-0.034
-118.151	14.042	0.236	-0.180
-117.137	-200.000	0.050	0.341
-116.122	13.409	0.318	0.242
-115.107	237.743	-0.144	0.234
-114.093	-200.000	0.001	-0.312
-113.078	138.394	0.143	0.184
-112.064	-164.090	-0.213	0.010
-111.049	-73.022	0.126	-0.045
-110.034	100.734	-0.056	0.064
-109.020	-200.000	-0.083	0.402
-108.005	800.000	-0.090	-0.311
-106.991	-164.547	-0.191	0.009
-105.976	-80.282	-0.095	0.031
-104.962	-77.950	0.123	0.042
-103.947	-200.000	-0.018	-0.150
-102.932	-200.000	-0.057	0.363
-101.918	139.247	0.088	-0.114
-100.903	6.061	-0.206	0.150
-99.889	-45.793	-0.121	0.059
-98.874	25.958	0.016	0.013
-97.859	74.133	-0.126	-0.130
-96.845	559.723	-0.082	-0.194
-95.830	370.772	-0.144	-0.285
-94.816	-74.951	-0.281	0.099
-93.801	800.000	-0.037	0.157
-92.786	-102.455	0.246	-0.058
-91.772	-60.070	-0.228	0.095
-90.757	-200.000	-0.011	-0.263
-89.743	56.187	0.062	0.059
-88.728	25.244	-0.126	-0.103
-87.713	708.114	0.103	0.267
-86.699	-29.336	0.123	-0.069
-85.684	800.000	-0.082	0.326
-84.670	-90.529	-0.407	0.115
-83.655	206.934	-0.119	-0.181
-82.640	-165.326	-0.101	0.004
-81.626	258.270	-0.062	-0.105
-80.611	-200.000	0.020	-0.304
-79.597	735.091	-0.102	0.267
-78.582	42.180	0.031	0.028
-77.567	-172.891	0.223	-0.007
-76.553	800.000	0.093	0.265
-75.538	402.136	-0.037	0.077
-74.524	7.630	-0.203	-0.149
-73.509	-81.384	-0.273	0.088
-72.494	402.738	-0.064	0.131
-71.480	97.179	0.165	0.185
-70.465	-200.000	-0.013	0.166
-69.451	620.975	-0.075	-0.186
-68.436	35.747	0.171	-0.147
-67.422	-119.130	0.102	0.017
-66.407	800.000	0.041	0.114
-65.392	-44.043	0.203	0.100
-64.378	-200.000	-0.022	0.178
-63.363	20.215	0.328	0.259
-62.349	-200.000	0.021	-0.174
-61.334	203.082	-0.855	-1.294
-60.319	38.175	0.852	0.742
-59.305	-200.000	-0.109	-1.299
-58.290	150.059	0.908	1.205
-57.276	-200.000	0.282	1.779
-56.261	-200.000	114.197	650.933
-55.246	539.356	1522.364	3542.802
-54.232	179.096	2687.503	3844.796
-53.217	108.241	2170.723	2532.692
-52.203	37.968	1697.719	1476.380
-51.188	30.563	1517.064	1268.909
-50.173	28.386	1492.465	1233.647
-49.159	52.171	1551.263	1446.127
-48.144	50.751	1566.349	1450.403
-47.130	30.762	1522.069	1274.252
-46.115	27.726	1507.698	1241.545
-45.100	27.571	1504.278	1237.627
-44.086	27.591	1502.137	1235.955
-43.071	27.485	1500.231	1233.620
-42.057	27.555	1498.397	1232.538
-41.042	27.491	1497.215	1231.082
-40.027	27.580	1495.615	1230.318
-39.013	27.467	1494.595	1228.668
-37.998	27.354	1493.137	1226.658
-36.984	27.506	1491.710	1226.461
-35.969	27.519	1490.384	1225.414
-34.954	27.475	1488.644	1223.635
-33.940	27.417	1487.805	1222.509
-32.925	27.563	1486.101	1222.041
-31.911	27.514	1485.242	1220.953
-30.896	27.446	1484.191	1219.585
-29.881	27.539	1482.326	1218.628
-28.867	27.626	1480.748	1217.867
-27.852	27.556	1480.162	1216.863
-26.838	27.605	1478.525	1215.801
-25.823	27.517	1477.324	1214.177
-24.809	27.523	1475.544	1212.703
-23.794	27.511	1474.144	1211.426
-22.779	27.470	1473.494	1210.571
-21.765	27.517	1472.045	1209.643
-20.750	27.567	1470.811	1208.916
-19.736	27.415	1470.424	1207.542
-18.721	27.446	1469.198	1206.692
-17.706	27.581	1467.812	1206.398
-16.692	27.544	1466.306	1204.866
-15.677	27.534	1465.464	1204.061
-14.663	27.506	1465.047	1203.487
-13.648	27.416	1464.308	1202.238
-12.633	27.549	1462.855	1201.877
-11.619	27.572	1461.990	1201.267
-10.604	27.421	1461.630	1199.933
-9.590	27.497	1460.336	1199.318
-8.575	27.547	1459.547	1198.956
-7.560	27.552	1459.003	1198.495
-6.546	27.496	1457.910	1197.176
-5.531	27.475	1457.103	1196.329
-4.517	27.414	1455.939	1194.929
-3.502	27.496	1454.992	1194.638
-2.487	27.432	1454.218	1193.539
-1.473	27.566	1452.461	1192.923
-0.458	27.541	1451.164	1191.650
0.556	29.214	1441.662	1180.631
1.571	26.129	1416.509	1140.478
2.586	22.656	1359.930	1073.716
3.600	21.072	1279.040	1000.683
4.615	19.836	1233.402	958.054
5.629	17.216	1176.978	900.281
6.644	10.125	1094.190	801.835
7.659	4.876	1056.467	748.940
8.673	4.164	1051.249	741.768
9.688	3.970	1047.882	738.401
10.702	3.809	1046.550	736.631
11.717	3.877	1044.238	735.262
12.731	6.259	1046.254	747.950
13.746	13.734	1056.641	791.079
14.761	20.728	1065.490	831.154
15.775	22.776	1067.290	842.270
16.790	22.393	1065.871	839.251
17.804	21.560	1063.993	833.731
18.819	20.790	1062.575	828.884
19.834	20.340	1061.335	825.704
20.848	20.270	1060.745	824.838
21.863	20.431	1060.185	825.093
22.877	20.224	1059.771	823.715
23.892	20.058	1058.847	822.136
24.907	19.857	1057.845	820.335
25.921	19.915	1056.953	819.846
26.936	19.865	1056.015	818.808
27.950	19.754	1055.301	817.656
28.965	19.804	1054.390	817.114
29.980	19.921	1052.794	816.359
30.994	20.110	1052.145	816.670
32.009	20.326	1051.282	816.948
33.023	20.293	1050.677	816.248
34.038	20.233	1049.770	815.192
35.053	20.105	1048.909	813.847
36.067	20.062	1047.721	812.652
37.082	19.865	1047.434	811.434
38.096	20.107	1046.046	811.421
39.111	20.047	1045.547	810.679
40.126	20.196	1044.829	810.752
41.140	20.040	1043.261	808.734
42.155	19.740	1041.936	806.235
43.169	19.496	1040.691	804.063
44.184	19.606	1039.200	803.353
45.199	19.386	1038.859	801.996
46.213	19.485	1037.602	801.414
47.228	19.598	1037.413	801.719
48.242	19.881	1036.781	802.475
49.257	20.133	1035.355	802.466
50.271	20.016	1034.723	801.362
51.286	19.935	1034.331	800.613
52.301	20.106	1033.858	800.966
53.315	20.130	1032.663	800.084
54.330	19.817	1032.129	798.152
55.344	19.660	1031.254	796.683
56.359	19.574	1030.030	795.268
57.374	19.656	1028.927	794.724
58.388	19.713	1028.371	794.487
59.403	19.540	1027.528	792.973
60.417	19.429	1026.363	791.494
61.432	19.363	1026.530	791.249
62.447	19.433	1025.584	790.769
63.461	19.248	1024.589	789.089
64.476	19.241	1023.621	788.240
65.490	19.295	1022.314	787.409
66.505	19.137	1021.984	786.365
67.520	19.297	1020.701	786.037
68.534	19.309	1020.433	785.815
69.549	19.243	1018.947	784.304
70.563	19.179	1018.718	783.766
71.578	19.062	1017.865	782.507
72.593	19.019	1016.616	781.282
73.607	18.912	1015.676	780.008
74.622	18.719	1015.056	778.587
75.636	18.925	1013.794	778.481
76.651	18.973	1013.421	778.345
77.666	19.162	1012.159	778.157
78.680	18.996	1012.235	777.396
79.695	19.015	1011.322	776.713
80.709	19.206	1010.232	776.671
81.724	19.384	1009.801	777.072
82.739	19.424	1009.525	776.970
83.753	19.560	1008.422	776.664
84.768	19.796	1008.431	777.664
85.782	20.097	1008.100	778.694
86.797	20.407	1007.438	779.503
87.812	20.650	1006.152	779.530
88.826	20.177	1005.880	777.129
89.841	20.087	1004.619	775.683
90.855	20.240	1004.304	776.057
91.870	20.294	1003.182	775.361
92.884	20.371	1002.638	775.218
93.899	20.387	1001.703	774.496
94.914	20.318	1000.542	773.226
95.928	20.487	999.897	773.408
96.943	20.416	999.730	772.894
97.957	20.196	998.352	770.787
98.972	20.060	997.502	769.456
99.987	20.104	997.136	769.299
101.001	20.154	996.734	769.143
102.016	20.240	995.399	768.428
103.030	20.150	994.410	767.197
104.045	20.229	993.517	766.789
105.060	20.225	992.529	765.943
106.074	20.150	991.483	764.735
107.089	19.705	990.804	762.184
108.103	19.511	989.449	760.219
109.118	19.414	988.049	758.650
110.133	19.481	986.823	757.936
111.147	19.296	986.131	756.525
112.162	19.146	985.032	754.959
113.176	19.184	984.766	754.855
114.191	19.355	983.940	754.901
115.206	19.543	983.065	754.986
116.220	19.561	982.136	754.285
117.235	19.418	981.586	753.169
118.249	19.328	981.015	752.274
119.264	19.249	980.000	751.083
120.279	19.229	979.126	750.261
121.293	19.102	977.973	748.761
122.308	19.025	977.534	748.021
123.322	18.894	976.565	746.643
124.337	18.863	975.181	745.386
125.352	18.856	974.365	744.666
126.366	18.899	973.022	743.759
127.381	18.812	972.307	742.770
128.395	19.004	971.086	742.601
129.410	19.002	970.482	742.068
130.424	18.948	969.735	741.197
131.439	19.225	968.709	741.541
132.454	19.350	968.308	741.704
133.468	19.340	967.677	741.112
134.483	19.346	966.842	740.435
135.497	19.474	966.376	740.559
136.512	19.446	965.907	740.015
137.527	19.472	964.857	739.258
138.541	19.412	964.163	738.402
139.556	19.555	963.494	738.438
140.570	19.553	962.820	737.847
141.585	19.700	962.205	737.937
142.600	19.946	962.094	738.836
143.614	20.062	961.068	738.480
144.629	20.038	960.576	737.932
145.643	20.249	960.035	738.348
146.658	20.282	959.009	737.637
147.673	19.947	957.895	735.293
148.687	19.704	956.789	733.348
149.702	19.558	955.825	731.924
150.716	19.486	954.380	730.445
151.731	19.426	953.920	729.777
152.746	19.550	952.915	729.467
153.760	19.601	952.512	729.310
154.775	19.734	951.463	729.003
155.789	19.709	950.715	728.258
156.804	19.865	950.000	728.305
157.819	19.900	949.300	727.849
158.833	19.953	948.556	727.436
159.848	20.035	948.355	727.563
160.862	20.147	947.941	727.654
161.877	20.199	946.941	727.038
162.892	19.754	945.671	724.134
163.906	19.583	944.264	722.279
164.921	19.291	943.535	720.438
165.935	19.470	942.105	720.029
166.950	19.513	941.632	719.783
167.964	19.688	940.938	719.918
168.979	19.696	939.762	718.987
169.994	19.539	938.901	717.611
171.008	19.531	938.069	716.880
172.023	19.641	937.150	716.570
173.037	19.923	936.465	717.151
174.052	20.078	936.305	717.610
175.067	20.058	935.381	716.755
176.081	19.721	934.190	714.383
177.096	19.381	933.223	712.179
178.110	19.420	932.292	711.566
179.125	19.318	931.562	710.526
180.140	19.423	930.803	710.318
181.154	19.488	930.364	710.184
182.169	19.708	930.127	710.846
183.183	20.029	929.620	711.716
184.198	20.111	928.957	711.480
185.213	20.106	928.259	710.865
186.227	19.887	927.972	709.681
187.242	20.015	927.020	709.417
188.256	20.115	926.598	709.440
189.271	20.241	925.714	709.216
190.286	20.385	924.870	709.092
191.300	20.162	923.900	707.376
192.315	19.592	922.528	703.944
193.329	19.295	921.515	701.897
194.344	19.286	921.485	701.775
195.359	19.496	920.719	701.983
196.373	19.693	919.968	702.152
197.388	19.789	919.463	702.093
198.402	19.911	920.053	702.976
199.417	20.225	919.503	703.771
200.432	20.430	919.145	704.265
201.446	20.543	918.947	704.509
202.461	20.621	918.662	704.544
203.475	20.756	918.247	704.709
204.490	20.697	917.348	703.719
205.504	20.390	916.030	701.404
206.519	20.147	914.948	699.532
207.534	20.053	914.639	698.855
208.548	20.070	913.376	697.899
209.563	19.901	913.065	696.920
210.577	20.056	912.392	696.965
211.592	20.084	911.973	696.696
212.607	20.353	911.475	697.335
213.621	20.628	910.777	697.844
214.636	20.481	910.328	696.848
215.650	20.376	909.297	695.575
216.665	20.469	908.855	695.549
217.680	20.474	908.640	695.343
218.694	20.657	908.095	695.598
219.709	20.691	907.818	695.459
220.723	20.591	907.072	694.425
221.738	20.487	906.148	693.243
222.753	20.384	905.540	692.307
223.767	20.445	904.715	691.857
224.782	20.490	903.994	691.422
225.796	20.560	903.413	691.195
226.811	20.780	903.019	691.709
227.826	20.678	902.174	690.593
228.840	20.440	901.143	688.799
229.855	20.399	900.151	687.819
230.869	20.250	900.084	687.117
231.884	20.250	899.563	686.657
232.899	20.135	898.829	685.584
233.913	20.113	897.980	684.786
234.928	20.112	896.961	683.945
235.942	19.990	896.043	682.704
236.957	19.941	895.509	682.044
237.972	19.948	894.852	681.509
238.986	19.965	894.309	681.103
240.001	20.022	893.654	680.767
241.015	20.025	892.873	680.125
242.030	20.108	892.290	679.947
243.045	20.161	892.049	679.912
244.059	20.243	891.681	679.892
245.074	20.463	890.766	679.993
246.088	20.506	890.092	679.589
247.103	20.557	889.540	679.306
248.117	20.677	889.041	679.333
249.132	20.826	889.252	680.016
250.147	21.219	888.525	680.931
251.161	21.520	888.380	681.933
252.176	21.519	888.125	681.674
253.190	21.412	887.750	680.911
254.205	21.600	886.361	680.517
255.220	21.676	886.383	680.767
256.234	21.584	885.766	679.873
257.249	21.285	885.318	678.312
258.263	21.485	884.388	678.315
259.278	21.493	883.424	677.544
260.293	21.355	883.332	676.880
261.307	21.533	882.480	676.856
262.322	21.601	882.333	676.948
263.336	21.689	881.936	676.922
264.351	21.673	880.826	675.949
265.366	21.692	880.084	675.393
266.380	21.622	879.629	674.715
267.395	21.659	879.251	674.508
268.409	21.528	878.107	673.065
269.424	21.499	877.294	672.272
270.439	21.474	876.430	671.456
271.453	21.437	875.756	670.736
272.468	21.296	874.747	669.365
273.482	21.075	874.633	668.370
274.497	21.195	873.744	668.091
275.512	21.137	872.953	667.208
276.526	21.178	872.189	666.721
277.541	21.223	871.621	666.397
278.555	21.226	871.414	666.193
279.570	21.491	870.966	666.804
280.585	21.655	870.658	667.130
281.599	21.776	869.739	666.829
282.614	21.538	869.101	665.376
283.628	21.293	868.654	664.044
284.643	21.274	867.754	663.226
285.657	21.252	867.490	662.882
286.672	21.316	866.669	662.439
287.687	21.222	866.448	661.853
288.701	21.366	865.910	661.927
289.716	21.305	865.337	661.201
290.730	21.399	864.698	661.012
291.745	21.423	864.044	660.542
292.760	21.497	863.228	660.140
293.774	21.564	862.832	660.031
294.789	21.822	862.668	660.819
295.803	21.768	862.087	660.113
296.818	21.429	861.273	658.157
297.833	21.299	860.413	656.950
298.847	21.315	859.706	656.412
299.862	21.463	858.888	656.287
300.876	21.453	858.378	655.800
301.891	21.713	857.537	656.073
302.906	21.809	857.364	656.243
303.920	21.886	856.653	655.928
304.935	21.904	856.842	656.083
305.949	22.131	856.210	656.388
306.964	22.177	854.966	655.550
307.979	21.658	854.678	653.334
308.993	21.794	854.308	653.501
310.008	21.795	853.751	653.021
311.022	21.891	853.448	653.087
312.037	21.892	852.936	652.641
313.052	21.689	851.993	651.107
314.066	21.718	850.909	650.331
315.081	21.514	850.039	648.852
316.095	21.262	849.917	647.767
317.110	21.409	849.371	647.839
318.125	21.305	848.676	646.865
319.139	21.402	848.160	646.772
320.154	21.406	847.557	646.273
321.168	21.270	846.905	645.215
322.183	21.413	846.320	645.238
323.197	21.388	846.338	645.103
324.212	21.489	845.911	645.095
325.227	21.530	845.119	644.584
326.241	21.603	844.405	644.252
327.256	21.333	843.688	642.655
328.270	21.328	843.136	642.157
329.285	21.400	842.999	642.260
330.300	21.386	842.174	641.524
331.314	21.213	841.711	640.480
332.329	21.460	840.962	640.759
333.343	21.534	840.614	640.707
334.358	21.929	839.792	641.468
335.373	21.775	839.799	640.854
336.387	21.734	839.209	640.199
337.402	21.830	838.537	639.981
338.416	22.168	837.907	640.674
339.431	22.259	837.738	640.821
340.446	22.345	837.411	640.825
341.460	22.442	836.802	640.657
342.475	22.567	836.253	640.633
343.489	22.445	835.792	639.781
344.504	22.554	835.891	640.197
345.519	22.709	834.914	639.953
346.533	22.789	834.513	639.880
347.548	22.662	833.913	638.903
348.562	22.428	833.311	637.539
349.577	22.305	832.017	636.046
350.592	22.065	831.322	634.594
351.606	22.005	830.847	633.956
352.621	21.781	830.651	632.941
353.635	21.773	830.156	632.480
354.650	21.961	829.740	632.785
355.665	22.009	829.319	632.583
356.679	22.227	828.701	632.839
357.694	22.103	828.607	632.265
358.708	22.206	827.998	632.113
359.723	21.974	827.584	630.908
360.738	22.154	826.525	630.691
361.752	22.070	826.707	630.475
362.767	22.255	826.091	630.610
363.781	22.346	825.649	630.543
364.796	22.732	825.598	631.830
365.810	22.675	825.236	631.296
366.825	22.801	824.713	631.291
367.840	22.946	824.644	631.698
368.854	23.036	823.990	631.464
369.869	22.664	823.062	629.371
370.883	22.588	822.719	628.779
371.898	22.657	821.788	628.258
372.913	22.738	821.135	627.991
373.927	22.774	820.997	627.961
374.942	22.715	820.166	627.059
375.956	22.603	819.281	625.929
376.971	22.711	819.037	626.070
377.986	22.915	818.621	626.420
379.000	23.064	818.357	626.692
380.015	23.001	817.949	626.101
381.029	23.055	817.129	625.610
382.044	22.854	816.386	624.275
383.059	22.996	815.835	624.299
384.073	22.928	815.886	624.042
385.088	22.937	814.823	623.206
386.102	22.732	813.980	621.782
387.117	22.442	813.277	620.169
388.132	22.398	812.907	619.679
389.146	22.414	812.320	619.231
390.161	22.420	811.912	618.888
391.175	22.640	811.711	619.453
392.190	22.990	811.447	620.426
393.205	22.852	810.537	619.191
394.219	22.712	810.365	618.515
395.234	22.508	809.751	617.274
396.248	22.494	808.882	616.511
397.263	22.373	808.416	615.675
398.278	22.457	807.548	615.256
399.292	22.182	807.870	614.486
400.307	22.235	807.050	613.992
401.321	22.154	806.725	613.406
402.336	22.235	806.095	613.157
403.350	22.401	805.817	613.469
404.365	22.537	805.338	613.524
405.380	22.712	805.393	614.119
406.394	22.976	805.128	614.784
407.409	23.151	804.969	615.215
408.423	23.127	804.443	614.676
409.438	23.299	803.844	614.760
410.453	23.410	803.459	614.795
411.467	23.415	803.036	614.435
412.482	23.445	802.451	614.038
413.496	23.363	802.518	613.752
414.511	23.442	802.056	613.615
415.526	23.623	801.383	613.672
416.540	23.448	800.853	612.608
417.555	23.312	800.501	611.815
418.569	23.229	799.923	611.033
419.584	23.333	799.589	611.080
420.599	23.363	799.027	610.702
421.613	164.739	1371.184	1798.780
422.628	143.116	1454.521	1798.867
