DTS Sentinel unit serial number:	SN413079Multiplexer serial number:	ORYXHardware model number:	OX4-SRSoftware version number:	ORYX F/W v4.00 Oryx Data Collector v3.7.2.0data status	okinstallation	princeton_trtdifferential loss correction	single-endedforward channel	channel 3reverse channel	N/Adate	2019/09/12time	16:58:11forward acquisition time	60.00reverse acquisition time	0.00gamma	496.2192k internal	0.2311k external	0.2311temperature offset calibration	1.0087default loss term (dB/km)	0.3790temperature slope calibration	1.0000multiplexer offset coefficient	1.0000multiplexer slope coefficient	1.0000fibre end	0.00T internal ref (°C)	35.87T ext. ref 1 (°C)	2.81T ext. ref 2 (°C)	28.98length (m)	temperature (°C)	Stokes	anti-Stokes-747.200	0.268	0.059	0.043
-746.185	-200.000	0.026	0.333
-745.171	51.582	0.148	0.143
-744.156	-200.000	-0.030	0.513
-743.142	533.009	-0.117	0.281
-742.127	84.729	-0.068	0.076
-741.112	654.846	-0.118	0.308
-740.098	1.780	0.089	-0.065
-739.083	800.000	-0.082	-0.258
-738.069	-55.508	-0.184	0.084
-737.054	345.058	0.041	-0.082
-736.039	-52.917	0.175	0.082
-735.025	-200.000	0.020	0.142
-734.010	-110.788	0.155	0.033
-732.996	-200.000	0.029	0.170
-731.981	586.926	-0.041	0.103
-730.966	423.474	0.127	0.277
-729.952	165.851	0.138	0.197
-728.937	74.551	0.052	-0.056
-727.923	521.200	-0.090	0.215
-726.908	-145.624	-0.259	-0.023
-725.894	-68.788	-0.294	-0.115
-724.879	132.547	-0.058	0.076
-723.864	-87.958	-0.062	0.019
-722.850	49.008	-0.196	0.187
-721.835	-11.266	-0.079	0.053
-720.821	-200.000	0.031	-0.186
-719.806	-135.108	0.073	0.009
-718.791	800.000	-0.046	0.174
-717.777	-91.686	0.386	0.111
-716.762	800.000	-0.095	-0.360
-715.748	-107.195	-0.127	0.028
-714.733	52.051	0.094	-0.091
-713.718	-53.790	0.194	-0.090
-712.704	-90.370	0.148	-0.044
-711.689	94.440	0.154	-0.178
-710.675	200.302	0.117	0.182
-709.660	563.367	-0.104	-0.256
-708.645	-163.655	-0.221	-0.011
-707.631	-110.519	0.251	0.053
-706.616	56.348	-0.107	0.106
-705.602	-128.748	-0.336	-0.048
-704.587	800.000	-0.076	0.214
-703.572	800.000	0.042	0.176
-702.558	50.124	-0.147	0.141
-701.543	-131.077	0.290	-0.039
-700.529	-93.400	-0.448	-0.126
-699.514	-200.000	-0.022	0.182
-698.499	260.375	-0.183	-0.321
-697.485	-200.000	-0.025	-0.267
-696.470	-138.774	-0.267	-0.030
-695.456	-73.513	-0.149	-0.055
-694.441	252.576	0.063	0.109
-693.426	15.798	0.074	-0.059
-692.412	37.538	0.042	0.038
-691.397	-200.000	-0.044	0.255
-690.383	800.000	0.057	-0.211
-689.368	800.000	-0.070	-0.296
-688.354	-138.018	-0.316	-0.036
-687.339	247.855	-0.090	0.154
-686.324	33.417	-0.083	-0.073
-685.310	2.561	0.098	-0.072
-684.295	-102.883	-0.331	-0.080
-683.281	-200.000	-0.066	0.361
-682.266	-200.000	0.044	-0.258
-681.251	247.795	-0.128	-0.218
-680.237	86.575	-0.124	-0.139
-679.222	-21.919	-0.292	-0.180
-678.208	-60.689	0.245	-0.105
-677.193	-70.186	-0.175	-0.067
-676.178	-200.000	0.090	-0.434
-675.164	542.974	0.041	0.099
-674.149	-35.949	-0.139	-0.076
-673.135	-140.569	0.316	0.033
-672.120	98.285	0.081	0.094
-671.105	-139.460	0.696	0.075
-670.091	-137.907	0.142	-0.016
-669.076	13.415	-0.349	0.274
-668.062	257.009	-0.128	0.222
-667.047	-89.585	-0.087	-0.026
-666.032	107.661	0.193	0.232
-665.018	-61.887	-0.149	-0.063
-664.003	-200.000	0.034	0.167
-662.989	91.729	-0.141	0.161
-661.974	357.900	0.124	0.251
-660.959	8.166	0.256	-0.194
-659.945	47.038	-0.153	0.144
-658.930	-181.252	-0.304	0.006
-657.916	-5.705	-0.294	-0.204
-656.901	-200.000	-0.055	0.441
-655.886	-34.656	-0.064	0.035
-654.872	42.752	0.112	0.103
-653.857	-18.400	0.207	0.131
-652.843	-78.210	0.275	-0.096
-651.828	406.882	0.129	0.275
-650.814	-117.865	0.477	0.087
-649.799	-8.304	0.246	-0.167
-648.784	113.362	0.052	-0.064
-647.770	-148.631	0.092	0.008
-646.755	10.949	0.384	-0.297
-645.741	42.233	0.187	-0.172
-644.726	-95.397	0.215	-0.058
-643.711	-62.248	0.059	0.025
-642.697	800.000	-0.084	0.318
-641.682	117.170	0.197	0.244
-640.668	556.643	0.056	0.135
-639.653	-200.000	0.007	0.261
-638.638	225.178	0.082	0.134
-637.624	179.357	-0.178	0.264
-636.609	28.949	-0.080	-0.068
-635.595	-117.048	0.165	-0.030
-634.580	-27.793	0.148	-0.087
-633.565	212.408	0.053	-0.085
-632.551	800.000	0.060	-0.246
-631.536	-0.250	-0.178	-0.128
-630.522	-200.000	0.039	-0.305
-629.507	-77.437	-0.101	0.036
-628.492	-25.908	-0.393	0.234
-627.478	800.000	-0.018	0.069
-626.463	-9.214	-0.147	-0.099
-625.449	-100.447	-0.202	-0.051
-624.434	-10.746	0.268	-0.179
-623.419	-89.477	-0.057	0.017
-622.405	188.512	0.099	0.149
-621.390	84.308	0.193	0.213
-620.376	-148.957	0.119	-0.010
-619.361	-76.722	-0.206	-0.073
-618.346	-200.000	-0.006	0.228
-617.332	198.378	-0.130	0.200
-616.317	800.000	0.084	-0.276
-615.303	27.098	-0.125	-0.106
-614.288	-167.336	-0.208	0.008
-613.273	-51.047	-0.042	0.020
-612.259	105.434	-0.142	-0.170
-611.244	53.617	-0.100	0.097
-610.230	-38.295	0.354	0.189
-609.215	350.918	0.073	-0.146
-608.201	102.567	0.096	0.114
-607.186	-164.388	-0.308	0.014
-606.171	-22.188	-0.288	-0.176
-605.157	4.403	-0.109	-0.081
-604.142	-200.000	0.027	-0.138
-603.128	277.383	0.212	0.380
-602.113	-200.000	-0.010	0.146
-601.098	144.824	-0.105	0.142
-600.084	-129.335	0.235	0.033
-599.069	381.124	0.101	-0.210
-598.055	251.889	-0.100	0.171
-597.040	-72.318	0.289	0.108
-596.025	-200.000	-0.002	0.155
-595.011	-200.000	0.076	0.000
-593.996	33.988	-0.243	-0.213
-592.982	-200.000	-0.005	-0.037
-591.967	-48.848	-0.059	0.029
-590.952	-68.226	0.166	0.065
-589.938	-52.837	-0.247	0.115
-588.923	-200.000	-0.018	-0.170
-587.909	-99.417	0.201	0.051
-586.894	-98.831	0.074	-0.019
-585.879	-200.000	0.018	0.185
-584.865	-200.000	0.013	-0.160
-583.850	657.600	0.084	0.218
-582.836	-200.000	0.039	-0.302
-581.821	43.859	-0.394	0.364
-580.806	-36.319	-0.041	0.022
-579.792	302.655	0.086	-0.160
-578.777	327.372	-0.084	0.162
-577.763	-17.309	-0.240	-0.152
-576.748	-64.271	-0.088	0.036
-575.733	159.495	-0.147	0.206
-574.719	-117.800	0.085	-0.015
-573.704	734.851	-0.234	-0.631
-572.690	800.000	-0.115	0.411
-571.675	-61.107	-0.240	-0.102
-570.661	-37.286	-0.426	-0.230
-569.646	-121.775	-0.229	0.038
-568.631	-30.131	0.196	0.113
-567.617	-72.702	-0.255	0.095
-566.602	-156.509	0.231	0.015
-565.588	-60.572	-0.107	-0.046
-564.573	-124.579	0.069	-0.011
-563.558	134.336	-0.030	-0.039
-562.544	21.962	-0.410	-0.337
-561.529	100.363	-0.106	0.124
-560.515	-0.445	-0.225	-0.161
-559.500	231.717	-0.120	0.199
-558.485	355.506	-0.060	-0.121
-557.471	120.743	0.132	-0.165
-556.456	-8.488	0.184	-0.124
-555.442	-200.000	-0.006	-0.028
-554.427	82.327	0.079	-0.086
-553.412	-200.000	0.024	-0.242
-552.398	-200.000	-0.027	0.286
-551.383	-114.808	0.256	0.049
-550.369	572.172	-0.046	-0.112
-549.354	-39.782	0.189	-0.100
-548.339	-200.000	0.043	-0.373
-547.325	-142.911	0.070	0.007
-546.310	506.936	-0.110	-0.257
-545.296	-153.625	-0.130	0.009
-544.281	128.077	0.074	-0.095
-543.266	-40.070	0.073	-0.038
-542.252	-200.000	-0.002	-0.142
-541.237	-200.000	-0.006	-0.036
-540.223	537.394	-0.115	-0.274
-539.208	-200.000	-0.025	-0.228
-538.193	141.626	-0.063	-0.084
-537.179	-117.869	-0.101	0.018
-536.164	800.000	-0.030	0.107
-535.150	160.418	-0.116	0.163
-534.135	126.884	0.107	-0.137
-533.121	244.798	0.197	0.333
-532.106	-59.395	0.266	0.115
-531.091	-29.624	-0.060	0.034
-530.077	-91.472	-0.163	-0.047
-529.062	-10.219	-0.140	0.094
-528.048	-110.644	-0.166	-0.034
-527.033	4.649	0.268	-0.198
-526.018	800.000	-0.050	0.183
-525.004	-143.039	-0.188	0.018
-523.989	-61.352	0.216	-0.091
-522.975	124.946	-0.147	0.186
-521.960	-200.000	0.045	-0.209
-520.945	78.017	0.145	-0.156
-519.931	-200.000	-0.075	0.403
-518.916	186.182	0.199	0.298
-517.902	404.191	0.261	-0.553
-516.887	800.000	-0.042	-0.147
-515.872	-0.554	0.189	0.135
-514.858	530.218	-0.088	-0.209
-513.843	-200.000	-0.010	0.159
-512.829	555.975	-0.169	0.409
-511.814	-128.719	0.166	0.024
-510.799	-200.000	0.027	0.182
-509.785	-67.410	-0.251	0.099
-508.770	-135.772	0.227	0.027
-507.756	122.694	0.018	-0.022
-506.741	-45.429	0.191	0.095
-505.726	-200.000	0.013	0.335
-504.712	-200.000	0.029	-0.235
-503.697	-200.000	0.017	0.160
-502.683	-200.000	-0.027	0.166
-501.668	50.241	-0.134	-0.128
-500.653	-136.280	0.157	0.018
-499.639	-200.000	0.023	0.430
-498.624	317.902	0.084	0.159
-497.610	-1.518	-0.310	-0.220
-496.595	-166.509	0.421	-0.018
-495.581	-35.414	-0.291	-0.159
-494.566	-115.350	-0.235	-0.045
-493.551	141.012	0.134	0.179
-492.537	515.017	-0.072	0.169
-491.522	298.944	0.220	0.406
-490.508	-200.000	-0.004	-0.172
-489.493	800.000	-0.069	-0.251
-488.478	-113.429	-0.120	0.024
-487.464	-168.992	0.246	-0.009
-486.449	-117.245	0.086	0.016
-485.435	24.362	0.251	0.208
-484.420	800.000	0.087	0.312
-483.405	-200.000	0.002	0.069
-482.391	-200.000	-0.031	-0.161
-481.376	800.000	-0.035	-0.148
-480.362	260.490	0.151	-0.262
-479.347	33.558	-0.014	-0.013
-478.332	-44.177	-0.114	-0.058
-477.318	-157.768	0.211	0.013
-476.303	132.642	-0.055	-0.072
-475.289	15.818	-0.261	-0.206
-474.274	-46.502	0.119	-0.059
-473.259	-95.944	0.060	0.016
-472.245	-56.653	-0.215	0.096
-471.230	-165.871	-0.311	-0.013
-470.216	-200.000	0.014	0.166
-469.201	800.000	0.025	-0.078
-468.186	349.259	0.083	0.166
-467.172	793.220	-0.074	0.204
-466.157	-200.000	0.034	-0.207
-465.143	60.921	0.217	-0.216
-464.128	800.000	0.041	0.162
-463.113	-40.016	-0.207	-0.108
-462.099	-122.841	-0.347	-0.056
-461.084	800.000	0.047	0.135
-460.070	-200.000	0.019	0.225
-459.055	83.143	0.202	0.221
-458.040	-67.935	-0.123	-0.048
-457.026	-200.000	-0.004	0.320
-456.011	800.000	-0.035	0.136
-454.997	123.741	0.052	-0.066
-453.982	-71.801	0.098	-0.037
-452.968	723.771	-0.077	0.206
-451.953	-73.795	-0.295	0.107
-450.938	95.904	0.152	-0.174
-449.924	-200.000	-0.009	-0.250
-448.909	-200.000	0.060	-0.320
-447.895	4.900	0.134	-0.099
-446.880	32.701	-0.120	0.104
-445.865	-189.644	0.128	0.001
-444.851	800.000	-0.068	-0.224
-443.836	-200.000	0.274	-0.000
-442.822	-8.936	0.257	-0.173
-441.807	-95.261	0.209	-0.057
-440.792	565.414	-0.100	0.243
-439.778	617.258	0.131	0.329
-438.763	-2.468	0.304	0.213
-437.749	800.000	-0.077	-0.247
-436.734	-127.382	-0.243	-0.036
-435.719	56.847	0.073	0.072
-434.705	-118.852	-0.274	-0.048
-433.690	-115.710	0.233	-0.044
-432.676	-200.000	0.035	0.260
-431.661	-71.225	-0.220	0.083
-430.646	-118.872	-0.269	-0.047
-429.632	113.723	0.123	0.150
-428.617	-0.764	0.281	-0.200
-427.603	138.566	-0.167	0.220
-426.588	-64.100	0.067	-0.027
-425.573	4.617	-0.172	0.127
-424.559	431.015	-0.096	-0.207
-423.544	-109.608	-0.081	0.017
-422.530	-74.968	-0.218	-0.078
-421.515	115.899	0.209	0.256
-420.500	234.682	0.184	0.304
-419.486	-200.000	0.003	0.110
-418.471	27.267	-0.121	0.102
-417.457	507.247	-0.088	-0.205
-416.442	-200.000	0.014	0.076
-415.428	-105.564	-0.472	-0.107
-414.413	470.099	0.140	-0.315
-413.398	-200.000	-0.058	0.273
-412.384	687.707	0.032	0.084
-411.369	-75.858	-0.101	-0.036
-410.355	800.000	-0.001	0.003
-409.340	-200.000	-0.010	-0.060
-408.325	663.726	0.091	0.236
-407.311	-200.000	0.018	0.222
-406.296	47.749	0.052	0.049
-405.282	-57.689	0.118	0.052
-404.267	-200.000	0.000	-0.251
-403.252	-200.000	-0.010	0.118
-402.238	-121.709	-0.043	0.007
-401.223	360.653	-0.039	-0.077
-400.209	800.000	-0.068	0.189
-399.194	-200.000	-0.004	0.164
-398.179	-200.000	0.031	-0.207
-397.165	551.227	0.194	-0.465
-396.150	-61.462	-0.103	-0.044
-395.136	-200.000	0.003	0.040
-394.121	-153.317	0.487	0.034
-393.106	800.000	0.020	0.073
-392.092	20.990	0.172	-0.139
-391.077	-200.000	0.004	-0.225
-390.063	109.826	0.121	0.145
-389.048	-160.008	-0.421	0.023
-388.033	-200.000	-0.001	0.087
-387.019	643.073	0.062	-0.157
-386.004	-28.338	-0.254	-0.147
-384.990	-200.000	-0.060	0.269
-383.975	52.247	-0.240	-0.229
-382.960	46.380	-0.293	-0.272
-381.946	3.041	0.100	0.072
-380.931	-200.000	-0.002	-0.214
-379.917	-16.541	-0.132	0.084
-378.902	96.918	-0.345	-0.396
-377.888	-11.179	0.419	-0.276
-376.873	28.106	0.314	0.265
-375.858	519.796	0.051	0.121
-374.844	46.531	0.130	-0.120
-373.829	-1.147	0.022	0.016
-372.815	-200.000	0.001	0.174
-371.800	103.181	-0.088	-0.104
-370.785	800.000	0.087	0.342
-369.771	-41.162	0.246	0.127
-368.756	-66.215	-0.209	0.083
-367.742	-38.169	0.353	0.187
-366.727	-59.158	0.212	0.091
-365.712	242.368	-0.218	-0.365
-364.698	70.929	0.068	0.071
-363.683	-200.000	0.023	0.189
-362.669	681.007	-0.098	-0.254
-361.654	-55.757	0.049	0.022
-360.639	20.226	-0.243	-0.196
-359.625	-200.000	0.070	-0.334
-358.610	800.000	-0.025	0.084
-357.596	203.386	-0.121	-0.187
-356.581	-7.056	0.201	-0.137
-355.566	-40.063	-0.350	0.182
-354.552	15.094	-0.189	0.148
-353.537	296.431	0.064	-0.117
-352.523	-55.623	0.077	0.034
-351.508	-200.000	0.037	-0.396
-350.493	-106.626	-0.179	0.040
-349.479	-36.732	0.246	-0.132
-348.464	121.025	0.124	-0.154
-347.450	800.000	-0.064	0.232
-346.435	-200.000	-0.004	0.241
-345.420	-167.759	0.091	-0.004
-344.406	-104.258	0.112	0.026
-343.391	269.452	-0.214	0.375
-342.377	-200.000	-0.003	0.133
-341.362	-200.000	0.003	-0.033
-340.348	-200.000	-0.015	0.094
-339.333	-24.146	0.149	-0.089
-338.318	800.000	0.038	-0.151
-337.304	800.000	-0.122	-0.388
-336.289	-66.799	0.187	-0.074
-335.275	449.301	0.143	0.315
-334.260	-162.518	-0.256	-0.013
-333.245	214.304	0.146	-0.231
-332.231	757.831	0.159	0.429
-331.216	84.700	-0.161	-0.176
-330.202	800.000	-0.061	0.195
-329.187	-200.000	0.021	0.266
-328.172	216.191	0.201	-0.319
-327.158	-16.883	-0.167	0.105
-326.143	-74.798	-0.134	-0.048
-325.129	-22.784	0.179	-0.108
-324.114	428.811	0.110	-0.238
-323.099	800.000	-0.021	-0.066
-322.085	-164.547	-0.236	0.011
-321.070	-57.513	0.330	-0.145
-320.056	-93.478	0.245	-0.068
-319.041	34.722	0.163	-0.142
-318.026	29.929	0.121	0.103
-317.012	139.757	-0.086	0.114
-315.997	-7.261	0.320	0.216
-314.983	107.033	-0.178	0.211
-313.968	-12.145	-0.170	-0.111
-312.953	-125.753	-0.044	-0.007
-311.939	54.248	0.429	-0.413
-310.924	-200.000	0.033	-0.173
-309.910	15.774	0.167	0.131
-308.895	189.408	0.043	-0.064
-307.880	800.000	-0.040	-0.139
-306.866	243.816	-0.058	-0.098
-305.851	326.747	0.087	0.167
-304.837	-200.000	-0.005	-0.268
-303.822	800.000	-0.139	0.393
-302.807	233.030	0.145	0.237
-301.793	-200.000	0.008	-0.126
-300.778	-59.901	-0.304	-0.130
-299.764	-120.596	0.451	0.076
-298.749	187.381	-0.070	-0.104
-297.735	43.416	-0.021	-0.019
-296.720	193.901	0.095	0.144
-295.705	4.686	-0.090	-0.066
-294.691	764.663	0.072	0.195
-293.676	-200.000	-0.063	-0.338
-292.662	800.000	-0.026	-0.082
-291.647	-27.686	0.315	0.182
-290.632	-114.597	-0.099	0.019
-289.618	91.951	0.233	-0.262
-288.603	-184.824	0.167	0.003
-287.589	68.853	-0.045	-0.046
-286.574	54.346	-0.162	-0.155
-285.559	16.432	-0.339	-0.267
-284.545	261.524	0.034	0.059
-283.530	461.019	-0.075	0.167
-282.516	-200.000	-0.007	0.045
-281.501	-14.767	0.171	0.110
-280.486	72.730	-0.155	0.161
-279.472	183.050	-0.144	0.212
-278.457	208.700	-0.055	0.086
-277.443	-60.882	-0.099	-0.042
-276.428	-39.360	-0.198	0.103
-275.413	-200.000	-0.008	0.413
-274.399	-38.836	0.164	0.086
-273.384	-117.688	0.310	0.056
-272.370	-170.348	-0.115	-0.004
-271.355	61.035	0.226	0.224
-270.340	70.345	0.086	0.088
-269.326	-0.348	-0.033	-0.023
-268.311	800.000	0.074	-0.284
-267.297	800.000	0.026	0.084
-266.282	-125.241	-0.312	0.048
-265.267	-200.000	0.028	0.143
-264.253	-92.407	0.237	0.066
-263.238	76.202	-0.125	-0.132
-262.224	-49.835	0.427	-0.202
-261.209	16.734	-0.059	-0.047
-260.195	-89.395	-0.117	-0.034
-259.180	5.661	0.162	0.120
-258.165	-200.000	0.034	0.302
-257.151	-113.105	0.156	-0.031
-256.136	-200.000	-0.003	0.040
-255.122	30.745	-0.119	-0.101
-254.107	233.482	0.123	0.202
-253.092	-48.745	0.137	-0.065
-252.078	-200.000	0.017	0.079
-251.063	-43.629	-0.108	0.054
-250.049	-50.137	0.149	-0.070
-249.034	-137.657	0.082	0.009
-248.019	-86.571	-0.155	-0.047
-247.005	-93.770	-0.134	0.037
-245.990	800.000	-0.048	0.179
-244.976	-200.000	0.015	-0.357
-243.961	63.955	0.178	0.178
-242.946	-200.000	0.003	0.089
-241.932	-200.000	-0.003	0.041
-240.917	194.140	0.046	-0.069
-239.903	266.197	0.090	0.157
-238.888	-40.740	0.316	0.163
-237.873	800.000	0.105	0.319
-236.859	-200.000	0.026	0.203
-235.844	48.847	-0.281	-0.263
-234.830	16.673	0.271	-0.213
-233.815	275.854	-0.178	0.314
-232.800	145.339	-0.123	-0.164
-231.786	-200.000	0.090	-0.654
-230.771	-200.000	-0.009	-0.149
-229.757	52.486	-0.328	0.312
-228.742	42.882	0.125	0.113
-227.727	-21.056	-0.105	0.064
-226.713	-142.123	-0.263	-0.026
-225.698	-106.277	-0.116	0.026
-224.684	611.934	-0.028	-0.071
-223.669	-95.005	0.164	0.044
-222.655	228.581	0.156	-0.253
-221.640	-90.144	-0.146	-0.042
-220.625	800.000	-0.053	-0.191
-219.611	-28.172	0.260	-0.150
-218.596	-118.638	0.165	0.029
-217.582	238.579	0.068	0.113
-216.567	733.456	0.116	0.310
-215.552	2.586	0.151	0.109
-214.538	106.976	0.053	-0.063
-213.523	-114.850	-0.150	-0.028
-212.509	66.752	-0.425	-0.430
-211.494	-200.000	-0.014	0.106
-210.479	-135.009	-0.207	0.025
-209.465	-200.000	0.010	0.064
-208.450	-200.000	0.027	0.279
-207.436	-144.166	0.107	0.010
-206.421	-200.000	0.052	-0.230
-205.406	268.954	-0.128	0.224
-204.392	800.000	0.074	0.307
-203.377	-10.324	0.212	-0.140
-202.363	-200.000	-0.007	-0.070
-201.348	44.160	-0.083	-0.075
-200.333	130.717	-0.159	-0.203
-199.319	-200.000	0.028	-0.256
-198.304	-81.288	-0.098	0.032
-197.290	228.531	-0.060	-0.098
-196.275	-200.000	-0.010	-0.435
-195.260	-15.171	-0.388	-0.247
-194.246	-137.680	-0.013	-0.001
-193.231	169.272	-0.063	0.090
-192.217	20.444	0.099	0.080
-191.202	-200.000	0.047	0.213
-190.187	-131.048	-0.275	0.036
-189.173	160.822	-0.024	-0.033
-188.158	-57.166	0.102	-0.045
-187.144	-29.066	0.288	-0.164
-186.129	-200.000	0.051	-0.235
-185.114	39.849	0.125	-0.112
-184.100	21.223	-0.146	0.117
-183.085	2.486	0.076	-0.055
-182.071	-67.656	-0.190	0.074
-181.056	119.168	0.129	-0.159
-180.042	128.041	0.049	0.062
-179.027	73.615	-0.183	-0.191
-178.012	123.851	-0.358	-0.446
-176.998	-86.563	-0.249	0.076
-175.983	7.017	0.148	0.110
-174.969	-73.707	-0.138	-0.050
-173.954	-13.668	-0.373	-0.240
-172.939	165.062	-0.135	0.190
-171.925	181.754	-0.162	-0.236
-170.910	-200.000	0.033	0.265
-169.896	-20.805	-0.051	-0.031
-168.881	260.351	0.136	0.234
-167.866	-120.679	-0.171	-0.029
-166.852	80.715	-0.076	-0.081
-165.837	575.837	0.092	-0.222
-164.823	-66.954	-0.295	-0.116
-163.808	162.086	0.122	0.169
-162.793	63.870	-0.214	0.214
-161.779	-200.000	0.047	-0.294
-160.764	325.615	0.017	-0.033
-159.750	-7.777	-0.147	0.099
-158.735	90.998	-0.161	0.179
-157.720	-200.000	-0.007	0.080
-156.706	-101.561	0.217	-0.052
-155.691	59.793	0.096	0.094
-154.677	80.259	0.071	0.076
-153.662	4.364	0.364	0.265
-152.647	-65.974	-0.260	0.103
-151.633	-200.000	-0.011	-0.069
-150.618	800.000	0.053	-0.207
-149.604	301.124	0.114	0.210
-148.589	-82.713	0.149	0.048
-147.574	41.048	0.055	-0.049
-146.560	-200.000	0.005	0.175
-145.545	158.198	0.115	-0.158
-144.531	161.616	-0.093	-0.130
-143.516	18.697	-0.087	-0.069
-142.502	56.050	0.169	0.163
-141.487	-71.593	-0.329	-0.122
-140.472	308.166	0.065	0.120
-139.458	-125.167	-0.327	0.050
-138.443	-120.857	-0.112	-0.019
-137.429	541.374	-0.082	-0.194
-136.414	-33.103	-0.046	-0.025
-135.399	67.552	-0.219	-0.222
-134.385	638.202	-0.128	0.322
-133.370	-1.401	-0.368	0.257
-132.356	307.143	-0.183	0.339
-131.341	-200.000	-0.031	-0.454
-130.326	129.060	0.076	-0.096
-129.312	-46.859	0.422	-0.205
-128.297	-164.639	-0.189	-0.008
-127.283	-200.000	0.014	-0.163
-126.268	-200.000	-0.051	-0.349
-125.253	333.279	0.079	-0.151
-124.239	348.058	-0.069	-0.135
-123.224	277.158	-0.115	0.203
-122.210	800.000	-0.074	-0.205
-121.195	25.256	0.100	-0.082
-120.180	800.000	0.027	-0.088
-119.166	123.910	0.009	-0.011
-118.151	683.797	-0.099	-0.257
-117.137	329.430	0.143	0.273
-116.122	181.627	0.062	0.090
-115.107	234.344	0.213	0.348
-114.093	-149.047	0.126	0.010
-113.078	800.000	-0.041	-0.128
-112.064	-7.124	-0.237	-0.159
-111.049	304.434	0.104	-0.191
-110.034	-200.000	-0.002	0.046
-109.020	800.000	0.145	-0.457
-108.005	392.060	-0.085	-0.176
-106.991	56.266	-0.124	-0.119
-105.976	-166.720	0.173	0.007
-104.962	7.986	0.259	0.193
-103.947	-200.000	-0.012	-0.060
-102.932	80.002	0.131	0.139
-101.918	-200.000	0.003	0.433
-100.903	1.245	-0.042	-0.030
-99.889	-46.858	-0.229	-0.111
-98.874	-97.367	0.093	0.024
-97.859	42.778	0.246	0.222
-96.845	44.462	-0.014	-0.013
-95.830	-83.404	0.244	0.077
-94.816	25.387	-0.058	-0.047
-93.801	302.122	-0.178	-0.325
-92.786	550.536	-0.011	0.026
-91.772	132.337	-0.245	0.312
-90.757	-91.209	-0.163	0.046
-89.743	-34.582	0.258	-0.140
-88.728	-49.609	-0.137	-0.065
-87.713	13.531	-0.207	-0.159
-86.699	-60.294	0.064	0.027
-85.684	329.978	0.098	0.187
-84.670	-200.000	0.050	0.240
-83.655	471.957	-0.165	0.367
-82.640	142.886	-0.054	-0.071
-81.626	800.000	0.056	0.201
-80.611	55.717	-0.128	0.123
-79.597	109.857	-0.186	-0.221
-78.582	78.795	-0.159	-0.168
-77.567	-31.089	0.321	-0.179
-76.553	-200.000	-0.017	0.170
-75.538	-200.000	-0.019	0.273
-74.524	-22.182	-0.082	-0.049
-73.509	-90.443	0.122	-0.035
-72.494	-84.334	0.380	0.119
-71.480	52.862	0.076	0.072
-70.465	-141.521	0.221	0.022
-69.451	607.908	-0.193	-0.476
-68.436	-114.502	0.380	-0.072
-67.422	266.458	-0.210	0.363
-66.407	-8.072	-0.059	-0.039
-65.392	-200.000	0.046	0.245
-64.378	-25.335	0.162	-0.095
-63.363	-10.795	0.187	0.122
-62.349	-87.760	-0.309	-0.092
-61.334	143.925	-0.630	-0.831
-60.319	-200.000	0.027	0.685
-59.305	800.000	-0.216	-0.750
-58.290	129.884	0.751	0.950
-57.276	-200.000	0.360	1.728
-56.261	-200.000	94.640	575.255
-55.246	565.908	1369.664	3283.176
-54.232	153.929	2572.632	3485.615
-53.217	116.609	2181.769	2644.703
-52.203	46.541	1720.583	1577.759
-51.188	39.055	1532.197	1353.626
-50.173	36.519	1504.503	1311.918
-49.159	55.777	1554.634	1488.918
-48.144	59.570	1574.344	1533.884
-47.130	39.389	1529.510	1353.333
-46.115	36.071	1513.846	1316.796
-45.100	35.942	1510.874	1313.282
-44.086	35.941	1508.456	1311.120
-43.071	35.846	1506.830	1309.007
-42.057	35.845	1505.287	1307.606
-41.042	35.775	1503.833	1305.821
-40.027	35.830	1502.642	1305.107
-39.013	35.813	1500.891	1303.416
-37.998	35.790	1500.049	1302.477
-36.984	35.850	1498.153	1301.189
-35.969	35.788	1497.580	1300.216
-34.954	35.871	1495.607	1299.012
-33.940	35.808	1494.357	1297.449
-32.925	35.941	1492.866	1297.002
-31.911	35.895	1492.230	1296.088
-30.896	35.947	1489.832	1294.301
-29.881	36.055	1488.571	1293.878
-28.867	35.947	1487.379	1292.068
-27.852	36.022	1486.341	1291.622
-26.838	35.954	1484.936	1289.894
-25.823	35.963	1483.563	1288.708
-24.809	35.909	1481.669	1286.650
-23.794	35.800	1480.416	1284.781
-22.779	35.869	1479.131	1284.078
-21.765	35.919	1478.178	1283.530
-20.750	35.982	1477.073	1282.945
-19.736	35.858	1475.901	1281.046
-18.721	35.856	1474.662	1279.909
-17.706	35.928	1473.537	1279.360
-16.692	35.890	1472.623	1278.262
-15.677	35.917	1471.828	1277.702
-14.663	35.868	1470.449	1276.128
-13.648	35.795	1469.668	1274.915
-12.633	35.834	1469.097	1274.630
-11.619	35.799	1467.985	1273.383
-10.604	35.806	1466.893	1272.428
-9.590	35.854	1465.880	1271.815
-8.575	35.885	1464.934	1271.149
-7.560	35.964	1464.537	1271.275
-6.546	35.837	1463.547	1269.531
-5.531	35.791	1462.660	1268.405
-4.517	35.827	1461.338	1267.451
-3.502	35.823	1460.654	1266.780
-2.487	35.730	1459.900	1265.465
-1.473	35.806	1458.708	1264.877
-0.458	35.899	1457.004	1263.962
0.556	36.699	1446.876	1251.455
1.571	32.853	1420.521	1204.065
2.586	28.396	1359.148	1124.665
3.600	26.129	1277.340	1043.782
4.615	24.524	1229.925	996.004
5.629	20.970	1173.309	931.123
6.644	11.747	1087.324	816.951
7.659	4.186	1045.349	748.921
8.673	3.056	1039.371	739.143
9.688	2.809	1036.355	735.749
10.702	2.699	1034.534	733.863
11.717	2.688	1032.556	732.344
12.731	5.695	1035.902	749.043
13.746	14.989	1049.630	803.739
14.761	23.350	1060.465	852.367
15.775	25.938	1062.886	866.701
16.790	26.473	1062.543	868.915
17.804	26.264	1061.683	867.131
18.819	26.136	1061.199	866.044
19.834	26.254	1060.570	866.018
20.848	26.254	1060.295	865.720
21.863	26.413	1059.572	865.812
22.877	26.470	1059.603	866.035
23.892	26.313	1059.310	864.965
24.907	26.414	1057.818	864.157
25.921	26.327	1056.943	862.950
26.936	26.364	1056.350	862.564
27.950	26.315	1055.168	861.288
28.965	26.308	1054.247	860.430
29.980	26.098	1052.661	858.061
30.994	26.224	1051.647	857.755
32.009	26.145	1051.169	856.912
33.023	26.452	1050.005	857.345
34.038	26.174	1049.586	855.611
35.053	26.297	1048.160	854.953
36.067	26.288	1047.852	854.587
37.082	26.340	1047.000	854.060
38.096	26.365	1046.615	853.788
39.111	26.532	1045.565	853.645
40.126	26.742	1044.551	853.729
41.140	26.615	1043.396	852.110
42.155	26.225	1042.057	849.111
43.169	25.986	1041.092	847.129
44.184	25.938	1039.782	845.760
45.199	26.091	1038.890	845.677
46.213	25.973	1038.058	844.372
47.228	25.925	1037.227	843.397
48.242	26.124	1036.416	843.596
49.257	26.167	1035.571	843.032
50.271	26.241	1034.973	842.817
51.286	26.335	1034.498	842.793
52.301	26.357	1033.650	842.131
53.315	26.410	1032.566	841.421
54.330	26.309	1032.318	840.672
55.344	26.247	1031.241	839.432
56.359	26.320	1030.197	838.847
57.374	26.420	1029.423	838.605
58.388	26.145	1028.984	836.901
59.403	26.073	1027.773	835.508
60.417	26.013	1027.483	834.918
61.432	25.905	1026.543	833.582
62.447	25.922	1025.433	832.688
63.461	26.122	1025.078	833.250
64.476	26.182	1024.170	832.715
65.490	26.246	1023.372	832.287
66.505	26.002	1022.504	830.384
67.520	26.010	1021.772	829.750
68.534	26.176	1021.362	830.109
69.549	25.904	1020.138	827.790
70.563	25.540	1018.919	825.059
71.578	25.505	1018.380	824.389
72.593	25.461	1017.608	823.489
73.607	25.535	1015.627	822.154
74.622	25.561	1014.860	821.576
75.636	25.795	1014.457	822.249
76.651	25.849	1014.343	822.329
77.666	25.760	1013.113	820.853
78.680	25.609	1012.279	819.417
79.695	25.629	1011.915	819.140
80.709	25.728	1011.035	818.807
81.724	26.050	1010.061	819.408
82.739	25.911	1009.345	818.125
83.753	25.855	1008.504	817.113
84.768	26.186	1008.446	818.497
85.782	26.315	1008.053	818.690
86.797	26.563	1007.692	819.445
87.812	26.713	1006.030	818.700
88.826	26.364	1005.370	816.516
89.841	26.347	1004.793	815.899
90.855	26.566	1003.916	816.101
91.870	26.567	1003.312	815.541
92.884	26.528	1002.252	814.432
93.899	26.549	1001.483	813.832
94.914	26.445	1000.287	812.318
95.928	26.588	999.859	812.539
96.943	26.591	998.825	811.642
97.957	26.156	997.980	808.937
98.972	25.992	996.925	807.276
99.987	25.943	995.353	805.711
101.001	25.979	995.114	805.608
102.016	26.264	994.809	806.564
103.030	26.298	994.206	806.152
104.045	26.210	992.624	804.408
105.060	26.061	991.532	802.788
106.074	25.881	990.467	801.053
107.089	25.870	990.251	800.762
108.103	26.171	989.843	801.696
109.118	26.408	988.515	801.599
110.133	26.052	987.670	799.268
111.147	26.038	986.580	798.255
112.162	25.882	985.625	796.719
113.176	25.663	984.322	794.628
114.191	25.807	983.929	794.877
115.206	25.884	983.114	794.490
116.220	25.593	981.711	792.002
117.235	25.528	980.971	791.050
118.249	25.702	980.464	791.337
119.264	25.704	979.588	790.566
120.279	25.493	978.671	788.831
121.293	25.606	978.020	788.732
122.308	25.656	977.541	788.494
123.322	25.796	976.706	788.365
124.337	25.778	975.267	787.056
125.352	25.506	974.372	785.075
126.366	25.189	972.457	782.083
127.381	24.862	971.105	779.500
128.395	25.266	971.391	781.421
129.410	25.940	971.527	784.396
130.424	26.142	970.752	784.579
131.439	26.204	969.653	783.891
132.454	26.189	968.652	782.948
133.468	26.244	967.598	782.264
134.483	26.125	966.855	781.080
135.497	26.122	966.633	780.815
136.512	26.342	965.549	780.823
137.527	26.518	965.145	781.185
138.541	26.446	964.200	780.040
139.556	26.391	963.831	779.439
140.570	26.386	963.121	778.771
141.585	26.468	962.112	778.239
142.600	26.614	961.451	778.264
143.614	26.458	960.453	776.719
144.629	26.524	959.995	776.562
145.643	26.894	959.033	777.302
146.658	26.700	957.895	775.479
147.673	26.482	956.854	773.638
148.687	26.369	955.629	772.096
149.702	26.317	954.780	771.121
150.716	26.239	953.655	769.810
151.731	26.035	953.399	768.666
152.746	26.211	952.340	768.495
153.760	26.417	951.628	768.727
154.775	26.493	951.047	768.510
155.789	26.709	949.963	768.486
156.804	26.689	949.183	767.701
157.819	26.533	948.185	766.166
158.833	26.634	947.193	765.722
159.848	26.686	947.079	765.781
160.862	26.765	946.313	765.428
161.877	26.710	945.085	764.138
162.892	26.608	944.136	762.872
163.906	26.581	943.418	762.110
164.921	26.659	942.316	761.479
165.935	26.554	941.217	760.084
166.950	26.607	940.402	759.581
167.964	26.669	939.580	759.108
168.979	26.580	938.903	758.123
169.994	26.496	937.715	756.745
171.008	26.344	936.813	755.317
172.023	26.349	936.299	754.854
173.037	26.770	935.178	755.641
174.052	26.510	934.376	753.842
175.067	26.291	933.270	751.970
176.081	26.288	932.367	751.166
177.096	26.319	931.919	750.864
178.110	26.364	930.926	750.189
179.125	26.184	929.857	748.513
180.140	25.838	928.969	746.301
181.154	25.990	928.076	746.144
182.169	26.021	927.819	746.000
183.183	26.356	927.367	746.955
184.198	26.590	927.003	747.562
185.213	26.465	926.628	746.679
186.227	26.439	925.898	745.917
187.242	26.469	925.388	745.565
188.256	26.620	925.036	745.833
189.271	26.511	923.810	744.331
190.286	26.756	923.133	744.726
191.300	26.691	922.057	743.529
192.315	25.830	921.119	739.172
193.329	25.176	919.254	734.933
194.344	24.704	918.541	732.363
195.359	25.397	918.041	734.739
196.373	26.111	919.268	738.579
197.388	26.434	919.040	739.650
198.402	26.415	918.169	738.807
199.417	26.496	917.531	738.559
200.432	26.437	917.225	738.005
201.446	26.242	916.695	736.719
202.461	26.045	915.562	734.939
203.475	26.112	915.488	735.088
204.490	25.709	913.805	732.033
205.504	24.532	911.512	725.355
206.519	24.842	911.654	726.662
207.534	25.950	912.006	731.376
208.548	26.050	911.369	731.208
209.563	26.309	911.320	732.150
210.577	26.380	910.583	731.782
211.592	26.242	909.582	730.355
212.607	26.577	909.627	731.681
213.621	26.785	909.419	732.288
214.636	26.559	908.796	730.812
215.650	26.686	907.720	730.393
216.665	26.591	907.078	729.430
217.680	26.757	906.550	729.607
218.694	26.807	906.426	729.643
219.709	26.500	905.492	727.592
220.723	26.193	904.062	725.148
221.738	26.187	903.991	725.000
222.753	26.519	903.676	726.017
223.767	26.446	902.981	725.104
224.782	26.399	902.469	724.438
225.796	26.571	902.049	724.725
226.811	26.806	901.631	725.267
227.826	26.246	899.951	721.616
228.840	25.571	898.294	717.529
229.855	25.239	898.159	716.032
230.869	25.565	897.857	717.029
231.884	25.398	896.684	715.363
232.899	25.620	896.054	715.682
233.913	26.298	896.190	718.422
234.928	26.470	895.937	718.841
235.942	26.275	895.379	717.557
236.957	26.278	894.590	716.871
237.972	26.097	893.601	715.297
238.986	25.921	892.749	713.855
240.001	26.052	892.270	713.930
241.015	26.205	891.468	713.828
242.030	26.266	891.059	713.678
243.045	26.396	890.505	713.683
244.059	26.364	890.146	713.208
245.074	26.476	890.140	713.582
246.088	26.583	889.096	713.102
247.103	26.187	888.107	710.690
248.117	26.163	887.635	710.152
249.132	26.769	887.915	712.696
250.147	27.156	887.633	713.929
251.161	27.147	887.306	713.568
252.176	27.330	886.363	713.463
253.190	27.405	885.897	713.319
254.205	27.231	885.553	712.298
255.220	27.574	884.876	713.032
256.234	27.521	884.674	712.600
257.249	27.430	883.722	711.416
258.263	27.216	883.273	710.153
259.278	27.253	882.636	709.721
260.293	27.200	882.230	709.126
261.307	27.538	881.682	709.941
262.322	27.418	881.019	708.878
263.336	27.280	880.022	707.474
264.351	26.942	878.698	705.035
265.366	25.715	876.967	698.824
266.380	25.362	875.735	696.411
267.395	26.091	876.277	699.610
268.409	26.873	876.769	702.971
269.424	26.864	876.007	702.262
270.439	26.828	875.842	701.929
271.453	27.157	874.789	702.296
272.468	27.076	874.077	701.351
273.482	27.197	873.918	701.626
274.497	27.203	873.905	701.575
275.512	27.322	871.814	700.294
276.526	26.694	870.966	697.136
277.541	26.744	870.617	696.989
278.555	27.071	870.689	698.241
279.570	26.951	869.965	697.138
280.585	26.748	869.367	695.817
281.599	26.906	868.992	696.062
282.614	27.179	868.312	696.501
283.628	26.658	866.974	693.374
284.643	26.235	866.366	691.206
285.657	26.478	866.514	692.192
286.672	26.579	865.529	691.732
287.687	26.129	864.177	688.871
288.701	26.483	864.376	690.323
289.716	26.944	864.122	691.813
290.730	26.567	863.273	689.637
291.745	26.353	862.437	688.095
292.760	26.195	861.407	686.612
293.774	25.986	861.124	685.532
294.789	27.004	861.647	689.756
295.803	27.675	861.354	692.008
296.818	27.701	861.218	691.936
297.833	27.741	860.694	691.604
298.847	27.555	859.644	689.996
299.862	27.190	858.563	687.688
300.876	27.335	858.457	688.091
301.891	27.601	858.195	688.825
302.906	27.698	857.391	688.483
303.920	27.373	856.000	686.082
304.935	27.224	855.604	685.142
305.949	27.657	855.514	686.640
306.964	27.650	854.863	686.029
307.979	27.566	853.947	684.920
308.993	27.146	854.030	683.348
310.008	27.710	853.551	685.022
311.022	27.856	853.320	685.323
312.037	27.722	852.304	683.943
313.052	27.442	851.757	682.395
314.066	27.231	851.060	680.988
315.081	26.637	849.589	677.526
316.095	25.713	848.361	673.038
317.110	26.354	848.760	675.690
318.125	27.414	848.723	679.560
319.139	26.791	848.102	676.677
320.154	25.716	845.959	670.904
321.168	25.228	845.390	668.573
322.183	25.823	845.840	671.090
323.197	26.893	845.937	675.090
324.212	27.227	845.212	675.694
325.227	27.328	845.003	675.842
326.241	27.616	844.696	676.606
327.256	27.368	843.947	675.024
328.270	27.214	843.595	674.114
329.285	27.298	842.700	673.651
330.300	26.930	842.197	671.825
331.314	26.735	841.246	670.288
332.329	26.873	840.746	670.339
333.343	27.287	840.495	671.610
334.358	27.633	840.126	672.532
335.373	27.507	839.789	671.737
336.387	27.542	839.114	671.268
337.402	27.804	838.692	671.835
338.416	27.952	838.509	672.173
339.431	27.914	837.758	671.372
340.446	27.960	837.300	671.116
341.460	28.193	837.121	671.767
342.475	28.148	836.385	670.954
343.489	27.872	836.055	669.617
344.504	27.924	835.272	669.118
345.519	28.143	834.723	669.423
346.533	28.563	834.200	670.480
347.548	28.415	834.244	669.916
348.562	28.532	833.727	669.868
349.577	28.388	833.066	668.752
350.592	28.365	832.067	667.805
351.606	28.238	831.601	666.908
352.621	28.221	831.407	666.632
353.635	28.339	830.696	666.435
354.650	28.195	830.248	665.494
355.665	27.800	829.263	663.208
356.679	26.841	827.383	658.169
357.694	26.664	826.972	657.139
358.708	27.181	827.500	659.377
359.723	27.326	826.496	659.045
360.738	27.523	826.140	659.415
361.752	27.966	826.653	661.370
362.767	28.040	825.920	660.993
363.781	28.381	825.664	661.961
364.796	28.616	825.660	662.750
365.810	28.618	825.154	662.292
366.825	28.814	824.907	662.741
367.840	28.846	824.302	662.314
368.854	28.590	823.520	660.704
369.869	28.157	822.924	658.608
370.883	27.950	822.101	657.149
371.898	28.126	821.704	657.406
372.913	28.133	820.866	656.703
373.927	27.891	820.759	655.689
374.942	28.179	819.703	655.819
375.956	28.343	819.233	655.975
376.971	28.194	819.209	655.364
377.986	28.468	818.523	655.736
379.000	28.722	818.131	656.272
380.015	28.614	817.800	655.561
381.029	28.600	816.746	654.610
382.044	28.464	816.198	653.629
383.059	28.561	815.834	653.622
384.073	28.630	815.389	653.455
385.088	28.644	814.999	653.133
386.102	28.686	814.043	652.461
387.117	28.497	813.677	651.439
388.132	28.206	813.042	649.840
389.146	28.215	811.946	648.937
390.161	27.718	811.006	646.367
391.175	27.618	811.056	645.997
392.190	28.254	810.884	648.055
393.205	28.356	810.799	648.288
394.219	27.256	808.968	642.882
395.234	25.734	806.200	635.261
396.248	24.788	805.646	631.430
397.263	25.884	806.386	635.822
398.278	27.740	807.752	643.396
399.292	28.231	807.656	644.992
400.307	27.871	807.109	643.232
401.321	27.776	806.300	642.197
402.336	27.896	806.407	642.645
403.350	28.238	806.324	643.727
404.365	28.858	805.932	645.534
405.380	29.096	805.567	646.022
406.394	29.226	805.861	646.655
407.409	29.514	805.587	647.389
408.423	29.380	804.954	646.353
409.438	29.324	804.156	645.460
410.453	29.332	803.956	645.270
411.467	29.535	803.323	645.412
412.482	29.286	802.959	644.193
413.496	29.312	802.478	643.841
414.511	29.377	802.125	643.729
415.526	29.310	801.730	643.121
416.540	29.463	801.081	643.075
417.555	29.242	800.722	641.960
418.569	29.001	799.819	640.343
419.584	28.917	799.728	639.921
420.599	29.046	798.763	639.539
421.613	107.331	1280.798	1437.541
422.628	92.410	1351.057	1437.659
