DTS Sentinel unit serial number:	SN413079Multiplexer serial number:	ORYXHardware model number:	OX4-SRSoftware version number:	ORYX F/W v4.00 Oryx Data Collector v3.7.2.0data status	okinstallation	princeton_trtdifferential loss correction	single-endedforward channel	channel 3reverse channel	N/Adate	2019/09/17time	09:12:35forward acquisition time	60.00reverse acquisition time	0.00gamma	496.2192k internal	0.2328k external	0.2328temperature offset calibration	0.9939default loss term (dB/km)	0.3790temperature slope calibration	1.0000multiplexer offset coefficient	1.0000multiplexer slope coefficient	1.0000fibre end	0.00T internal ref (°C)	28.37T ext. ref 1 (°C)	0.14T ext. ref 2 (°C)	25.35length (m)	temperature (°C)	Stokes	anti-Stokes-747.200	86.976	0.051	-0.056
-746.185	-90.145	0.074	0.022
-745.171	155.219	0.202	0.280
-744.156	-200.000	-0.029	0.139
-743.142	-200.000	0.070	0.344
-742.127	-53.761	-0.392	0.180
-741.112	-147.535	-0.156	-0.013
-740.098	-165.430	-0.195	0.009
-739.083	-200.000	0.007	0.385
-738.069	-132.622	-0.362	0.047
-737.054	-13.717	-0.317	-0.207
-736.039	-115.669	-0.287	-0.054
-735.025	-1.549	0.369	0.262
-734.010	181.900	-0.216	-0.320
-732.996	-47.470	0.047	0.023
-731.981	800.000	0.053	0.175
-730.966	-19.490	-0.212	0.133
-729.952	-200.000	0.000	-0.127
-728.937	-149.799	-0.165	0.013
-727.923	30.763	-0.110	-0.095
-726.908	-71.530	-0.230	-0.087
-725.894	112.864	-0.366	0.447
-724.879	-142.271	-0.066	-0.007
-723.864	116.861	-0.278	-0.344
-722.850	-200.000	-0.008	-0.191
-721.835	659.490	0.028	-0.071
-720.821	-137.024	-0.333	0.038
-719.806	-139.510	0.055	-0.006
-718.791	-126.622	-0.419	0.062
-717.777	-48.232	0.201	-0.098
-716.762	-108.979	-0.276	-0.059
-715.748	409.932	-0.093	-0.198
-714.733	37.999	-0.161	-0.144
-713.718	203.013	-0.066	0.103
-712.704	-32.609	0.240	0.134
-711.689	800.000	0.009	0.039
-710.675	-90.193	-0.145	-0.043
-709.660	-63.988	0.174	0.071
-708.645	-200.000	0.003	0.097
-707.631	502.579	0.068	0.158
-706.616	-122.317	-0.207	0.034
-705.602	333.095	-0.102	0.198
-704.587	-101.454	0.249	0.061
-703.572	101.076	0.072	0.084
-702.558	313.386	-0.103	-0.195
-701.543	37.610	0.152	0.136
-700.529	800.000	0.033	-0.113
-699.514	12.016	-0.223	0.172
-698.499	121.924	-0.221	0.277
-697.485	153.217	-0.144	-0.198
-696.470	800.000	0.071	0.227
-695.456	93.660	-0.111	-0.127
-694.441	29.616	0.131	0.112
-693.426	-170.821	-0.086	-0.003
-692.412	-40.834	-0.241	0.125
-691.397	47.137	0.080	0.075
-690.383	489.448	-0.126	-0.290
-689.368	-130.221	-0.143	0.020
-688.354	-134.501	-0.089	0.011
-687.339	219.297	-0.072	0.116
-686.324	223.806	-0.122	0.198
-685.310	-147.683	-0.215	-0.018
-684.295	114.395	-0.096	0.118
-683.281	-94.841	-0.377	-0.103
-682.266	51.039	0.068	-0.064
-681.251	-65.696	0.248	0.100
-680.237	-91.109	0.429	-0.124
-679.222	245.320	-0.128	-0.216
-678.208	-20.819	0.142	-0.087
-677.193	-48.357	-0.159	-0.077
-676.178	64.735	0.104	0.106
-675.164	800.000	0.080	0.258
-674.149	57.148	-0.142	-0.140
-673.135	-200.000	-0.005	-0.090
-672.120	-200.000	0.006	-0.285
-671.105	453.385	0.150	-0.333
-670.091	107.201	-0.270	-0.323
-669.076	-83.286	-0.228	0.074
-668.062	134.942	0.098	0.128
-667.047	200.729	-0.026	0.040
-666.032	-91.048	-0.277	0.080
-665.018	-82.075	0.282	0.092
-664.003	800.000	-0.073	-0.305
-662.989	-200.000	0.021	-0.136
-661.974	-121.772	-0.269	-0.045
-660.959	-33.922	0.356	0.197
-659.945	326.769	-0.140	-0.270
-658.930	800.000	-0.069	0.260
-657.916	-200.000	-0.032	-0.153
-656.901	800.000	0.135	-0.494
-655.886	79.845	-0.102	-0.110
-654.872	-88.762	0.171	0.051
-653.857	119.281	0.041	0.051
-652.843	-200.000	-0.010	0.160
-651.828	-161.505	0.257	0.013
-650.814	-132.550	0.237	-0.031
-649.799	800.000	-0.078	-0.286
-648.784	-7.861	0.102	-0.069
-647.770	-141.468	-0.273	-0.028
-646.755	-122.102	-0.191	-0.031
-645.741	800.000	-0.043	-0.167
-644.726	77.012	-0.091	-0.097
-643.711	712.756	0.066	-0.176
-642.697	-50.408	-0.301	0.143
-641.682	79.995	0.131	-0.141
-640.668	121.618	-0.204	-0.256
-639.653	220.325	-0.198	0.318
-638.638	-55.967	-0.233	-0.104
-637.624	800.000	0.067	-0.232
-636.609	-200.000	0.032	0.151
-635.595	-71.752	-0.057	0.021
-634.580	21.790	0.028	0.023
-633.565	-34.196	0.245	0.135
-632.551	-72.116	-0.098	-0.037
-631.536	-75.067	0.131	0.047
-630.522	800.000	-0.179	-0.594
-629.507	-57.032	-0.197	-0.087
-628.492	290.575	0.051	0.094
-627.478	-70.230	-0.136	0.052
-626.463	-99.340	-0.168	-0.043
-625.449	800.000	0.049	-0.190
-624.434	34.033	0.210	0.184
-623.419	-79.598	0.058	0.020
-622.405	661.267	0.035	0.091
-621.390	-155.270	-0.390	0.025
-620.376	-200.000	-0.011	0.104
-619.361	30.655	-0.046	0.039
-618.346	91.662	-0.096	0.108
-617.332	-140.146	0.325	-0.034
-616.317	407.791	-0.037	0.079
-615.303	99.403	-0.031	-0.036
-614.288	-200.000	-0.003	-0.445
-613.273	-142.939	0.178	-0.017
-612.259	-41.861	0.171	0.088
-611.244	-61.758	-0.107	0.045
-610.230	24.541	0.213	-0.177
-609.215	800.000	0.054	-0.203
-608.201	0.479	-0.360	0.258
-607.186	-68.288	-0.128	-0.050
-606.171	-114.536	0.253	0.049
-605.157	75.806	-0.235	0.249
-604.142	77.304	0.220	0.234
-603.128	87.049	0.130	0.144
-602.113	292.943	-0.130	0.238
-601.098	104.346	0.192	0.226
-600.084	-58.368	0.485	0.211
-599.069	56.331	-0.181	-0.176
-598.055	304.099	0.128	-0.239
-597.040	-42.860	-0.054	-0.028
-596.025	-121.291	0.270	-0.045
-595.011	133.365	-0.190	-0.246
-593.996	8.333	-0.033	0.025
-592.982	469.702	0.094	0.211
-591.967	-90.339	-0.268	-0.078
-590.952	-87.073	0.332	-0.101
-589.938	-200.000	-0.002	-0.295
-588.923	212.919	0.182	-0.287
-587.909	-111.557	-0.047	-0.010
-586.894	536.408	0.081	-0.193
-585.879	-200.000	-0.020	0.256
-584.865	-122.674	-0.222	-0.036
-583.850	-5.145	-0.094	0.065
-582.836	800.000	0.043	0.122
-581.821	94.018	-0.179	-0.203
-580.806	-153.546	0.344	0.024
-579.792	45.049	0.233	-0.215
-578.777	-63.911	0.187	-0.077
-577.763	30.272	-0.206	-0.176
-576.748	-137.448	0.041	0.005
-575.733	-200.000	0.014	-0.360
-574.719	-165.055	-0.486	0.022
-573.704	-200.000	-0.005	0.225
-572.690	-33.523	-0.195	-0.108
-571.675	-66.195	0.281	0.112
-570.661	196.980	0.028	-0.042
-569.646	-156.564	0.213	-0.013
-568.631	-200.000	-0.014	-0.187
-567.617	73.600	-0.238	-0.250
-566.602	800.000	-0.119	0.493
-565.588	-69.632	-0.265	-0.102
-564.573	-63.839	0.434	0.178
-563.558	-141.672	0.189	0.019
-562.544	249.356	0.025	-0.042
-561.529	800.000	-0.076	-0.305
-560.515	-67.056	0.480	-0.189
-559.500	228.521	-0.051	0.082
-558.485	-106.987	-0.164	0.036
-557.471	-125.030	-0.153	0.023
-556.456	-200.000	-0.025	0.170
-555.442	-140.125	-0.305	-0.032
-554.427	66.548	-0.070	-0.071
-553.412	122.797	0.021	0.027
-552.398	800.000	-0.055	-0.225
-551.383	-26.431	0.239	-0.140
-550.369	-83.822	-0.097	0.031
-549.354	79.477	-0.064	0.069
-548.339	-115.856	-0.153	0.029
-547.325	131.523	-0.260	-0.335
-546.310	81.188	-0.230	0.249
-545.296	192.522	0.056	0.084
-544.281	175.686	0.132	0.191
-543.266	-80.698	-0.327	-0.109
-542.252	-112.706	-0.160	0.032
-541.237	13.176	0.252	-0.195
-540.223	-101.385	-0.169	-0.041
-539.208	-200.000	-0.023	0.114
-538.193	-88.481	0.189	-0.056
-537.179	437.227	0.123	0.268
-536.164	-200.000	-0.023	0.173
-535.150	175.960	0.013	0.019
-534.135	-115.202	-0.170	0.032
-533.121	52.955	-0.202	-0.193
-532.106	94.981	-0.104	-0.118
-531.091	-83.709	0.168	0.054
-530.077	124.709	-0.189	-0.238
-529.062	-68.476	-0.192	0.074
-528.048	59.746	0.141	0.140
-527.033	349.314	-0.185	-0.366
-526.018	800.000	-0.050	0.144
-525.004	-147.615	0.246	-0.021
-523.989	800.000	-0.057	-0.198
-522.975	10.423	-0.195	-0.148
-521.960	460.924	-0.094	-0.210
-520.945	-200.000	0.341	0.001
-519.931	453.666	-0.050	0.110
-518.916	800.000	0.075	0.267
-517.902	135.219	0.193	0.251
-516.887	-23.277	-0.112	-0.067
-515.872	800.000	-0.093	-0.385
-514.858	49.483	0.021	0.020
-513.843	-200.000	0.010	-0.139
-512.829	-109.515	0.153	0.032
-511.814	155.015	0.158	-0.217
-510.799	334.363	-0.093	0.180
-509.785	448.839	-0.132	-0.291
-508.770	-19.848	0.053	0.033
-507.756	-141.513	-0.067	-0.007
-506.741	88.907	-0.094	0.105
-505.726	198.314	0.099	0.151
-504.712	-81.650	-0.137	-0.045
-503.697	522.604	0.075	-0.177
-502.683	-200.000	-0.004	-0.098
-501.668	800.000	0.007	0.028
-500.653	800.000	0.061	0.178
-499.639	800.000	0.046	-0.161
-498.624	800.000	-0.012	0.042
-497.610	592.369	-0.159	-0.392
-496.595	35.800	0.261	0.229
-495.581	139.770	-0.099	-0.130
-494.566	96.695	0.107	-0.123
-493.551	-0.457	-0.131	-0.093
-492.537	-140.140	0.222	-0.023
-491.522	-133.714	0.267	0.033
-490.508	96.848	0.159	0.181
-489.493	-127.954	-0.235	0.034
-488.478	-76.260	-0.139	0.049
-487.464	-85.414	-0.205	0.064
-486.449	243.563	-0.195	0.326
-485.435	95.344	0.219	0.249
-484.420	-200.000	-0.023	0.131
-483.405	391.552	-0.173	0.359
-482.391	-132.496	-0.125	0.016
-481.376	-200.000	-0.060	0.277
-480.362	-200.000	0.019	-0.343
-479.347	800.000	0.129	-0.459
-478.332	-200.000	-0.011	-0.203
-477.318	-44.333	-0.091	-0.046
-476.303	-84.578	0.272	-0.086
-475.289	166.867	0.061	-0.086
-474.274	-48.617	-0.192	-0.092
-473.259	413.748	-0.171	0.362
-472.245	800.000	-0.066	0.279
-471.230	-72.555	-0.431	-0.159
-470.216	-123.728	0.152	0.024
-469.201	107.916	0.133	-0.158
-468.186	-143.916	0.280	-0.026
-467.172	456.417	-0.044	-0.097
-466.157	14.038	0.136	-0.105
-465.143	-200.000	0.052	0.294
-464.128	-133.874	0.156	-0.019
-463.113	-200.000	-0.005	0.139
-462.099	-200.000	0.026	0.347
-461.084	59.517	0.105	-0.103
-460.070	-200.000	-0.048	-0.253
-459.055	631.768	0.053	0.133
-458.040	-200.000	0.002	0.493
-457.026	-200.000	-0.074	0.521
-456.011	-77.485	0.241	0.083
-454.997	-200.000	0.022	-0.128
-453.982	220.398	-0.073	-0.117
-452.968	248.984	0.043	0.072
-451.953	-146.819	0.064	-0.005
-450.938	414.528	0.049	0.104
-449.924	-69.519	0.117	0.045
-448.909	54.098	-0.081	0.077
-447.895	-11.713	0.325	0.212
-446.880	-200.000	-0.036	-0.252
-445.865	0.475	0.068	-0.048
-444.851	-145.656	0.286	0.025
-443.836	-105.154	-0.090	0.020
-442.822	-200.000	0.040	-0.181
-441.807	12.005	0.104	-0.079
-440.792	36.222	0.194	-0.171
-439.778	409.052	0.177	-0.372
-438.763	-200.000	0.009	-0.096
-437.749	-200.000	0.010	-0.109
-436.734	-72.933	0.375	0.137
-435.719	-200.000	0.039	-0.239
-434.705	-157.212	-0.208	0.013
-433.690	303.985	0.103	0.190
-432.676	-113.933	0.406	0.078
-431.661	183.294	-0.074	-0.109
-430.646	-109.884	-0.253	-0.053
-429.632	20.905	-0.240	-0.194
-428.617	-121.509	0.465	-0.077
-427.603	-57.799	0.131	-0.057
-426.588	105.938	-0.169	-0.200
-425.573	-200.000	-0.004	-0.222
-424.559	-57.327	0.148	0.065
-423.544	360.281	-0.073	0.145
-422.530	-200.000	-0.007	0.077
-421.515	99.611	-0.311	0.358
-420.500	15.986	0.346	-0.271
-419.486	-44.493	-0.278	0.138
-418.471	-200.000	0.031	-0.136
-417.457	-11.819	-0.282	0.184
-416.442	-200.000	-0.073	-0.335
-415.428	199.986	-0.151	-0.231
-414.413	134.340	-0.164	0.211
-413.398	-150.370	-0.425	-0.033
-412.384	-12.572	0.242	0.157
-411.369	-200.000	0.025	0.176
-410.355	800.000	0.091	-0.350
-409.340	-40.715	-0.340	-0.175
-408.325	-141.528	0.095	0.010
-407.311	82.375	0.402	0.433
-406.296	212.298	-0.132	0.208
-405.282	-16.162	-0.158	-0.100
-404.267	641.467	-0.030	-0.076
-403.252	119.967	-0.183	0.226
-402.238	181.076	-0.085	-0.124
-401.223	74.329	-0.045	-0.047
-400.209	-73.627	-0.217	-0.079
-399.194	94.327	0.187	-0.211
-398.179	-200.000	0.017	-0.196
-397.165	-200.000	-0.036	-0.178
-396.150	236.481	0.023	0.037
-395.136	66.099	-0.043	0.044
-394.121	26.015	0.201	-0.167
-393.106	585.512	0.112	-0.275
-392.092	-200.000	0.073	-0.327
-391.077	589.812	0.126	-0.310
-390.063	100.853	0.061	0.070
-389.048	800.000	0.072	-0.250
-388.033	-200.000	-0.015	-0.297
-387.019	149.860	-0.075	-0.102
-386.004	800.000	-0.103	-0.332
-384.990	689.803	0.077	-0.201
-383.975	-46.551	-0.085	-0.041
-382.960	124.633	-0.131	-0.163
-381.946	-73.550	-0.264	-0.096
-380.931	77.336	0.116	-0.123
-379.917	165.739	-0.159	-0.224
-378.902	-11.626	0.136	0.089
-377.888	-51.505	0.170	0.079
-376.873	-144.127	-0.281	0.026
-375.858	386.249	-0.169	0.347
-374.844	-65.858	0.277	0.110
-373.829	76.230	0.200	-0.211
-372.815	-77.958	0.094	0.032
-371.800	48.902	0.145	0.135
-370.785	-53.191	-0.029	-0.013
-369.771	95.569	-0.148	0.167
-368.756	-200.000	-0.019	-0.168
-367.742	-2.567	0.109	-0.076
-366.727	67.055	-0.157	0.159
-365.712	-182.456	-0.223	-0.004
-364.698	255.177	0.032	-0.054
-363.683	800.000	-0.092	0.362
-362.669	-42.068	-0.217	0.110
-361.654	-200.000	0.007	0.107
-360.639	-200.000	-0.016	0.140
-359.625	800.000	0.030	0.083
-358.610	-200.000	0.010	0.168
-357.596	-49.920	-0.298	0.140
-356.581	13.991	0.101	-0.078
-355.566	-200.000	0.037	-0.228
-354.552	-200.000	-0.045	-0.389
-353.537	-59.042	-0.233	-0.100
-352.523	714.773	-0.078	-0.205
-351.508	-74.694	0.173	0.062
-350.493	231.350	-0.143	0.232
-349.479	-91.455	-0.477	0.135
-348.464	170.042	-0.110	-0.157
-347.450	581.700	-0.127	-0.310
-346.435	52.481	0.145	0.138
-345.420	-116.346	0.476	0.087
-344.406	800.000	0.096	0.274
-343.391	136.548	0.288	0.372
-342.377	400.267	0.057	-0.118
-341.362	374.412	-0.087	-0.176
-340.348	-200.000	-0.018	-0.301
-339.333	122.671	0.277	0.344
-338.318	-200.000	0.014	0.369
-337.304	-99.628	0.395	-0.098
-336.289	-92.330	0.230	0.064
-335.275	-200.000	-0.019	0.376
-334.260	800.000	0.036	0.151
-333.245	-67.019	-0.215	0.084
-332.231	-200.000	-0.002	-0.172
-331.216	-100.966	0.238	-0.058
-330.202	-200.000	-0.004	-0.045
-329.187	16.458	-0.141	-0.110
-328.172	-200.000	0.007	0.261
-327.158	-108.369	0.192	-0.041
-326.143	-125.840	0.187	-0.028
-325.129	129.800	-0.095	0.120
-324.114	-155.711	-0.281	0.018
-323.099	192.380	0.264	-0.395
-322.085	-147.196	-0.028	-0.002
-321.070	-118.690	0.221	-0.039
-320.056	-17.235	-0.379	0.237
-319.041	307.124	0.161	-0.297
-318.026	101.773	0.234	0.270
-317.012	-74.759	-0.121	0.043
-315.997	-118.021	-0.273	0.048
-314.983	800.000	0.034	0.137
-313.968	-58.831	0.175	0.075
-312.953	-44.190	0.168	0.084
-311.939	-104.187	-0.273	0.063
-310.924	800.000	-0.031	0.126
-309.910	-106.927	0.358	-0.079
-308.895	-200.000	0.044	-0.250
-307.880	800.000	-0.033	0.105
-306.866	-200.000	-0.033	0.232
-305.851	800.000	0.057	0.247
-304.837	-12.441	0.106	-0.069
-303.822	-200.000	-0.079	-0.455
-302.807	704.738	-0.076	-0.198
-301.793	17.971	0.132	0.104
-300.778	29.820	-0.244	0.206
-299.764	222.285	0.073	-0.116
-298.749	-66.526	0.058	0.023
-297.735	-140.049	-0.202	-0.021
-296.720	-140.247	0.102	-0.011
-295.705	-33.532	-0.099	-0.054
-294.691	743.955	0.167	0.444
-293.676	-200.000	-0.021	0.353
-292.662	0.393	-0.171	0.121
-291.647	354.975	0.178	0.350
-290.632	-200.000	0.032	-0.240
-289.618	-200.000	-0.002	0.075
-288.603	129.333	0.224	0.283
-287.589	-106.070	-0.161	0.036
-286.574	-107.728	0.189	0.041
-285.559	-108.084	0.399	-0.086
-284.545	105.571	0.029	-0.033
-283.530	53.229	0.039	0.037
-282.516	-200.000	-0.006	0.209
-281.501	75.685	-0.129	0.135
-280.486	32.996	0.136	-0.116
-279.472	-160.247	0.075	0.004
-278.457	215.348	0.226	0.354
-277.443	18.705	-0.341	0.270
-276.428	89.156	-0.150	-0.165
-275.413	-200.000	0.002	-0.107
-274.399	498.846	0.099	0.225
-273.384	7.134	-0.051	0.037
-272.370	-62.713	-0.253	0.104
-271.355	-200.000	-0.042	-0.324
-270.340	800.000	0.061	-0.204
-269.326	50.252	-0.132	-0.124
-268.311	-43.832	-0.159	-0.079
-267.297	142.854	0.108	0.142
-266.282	184.425	-0.310	0.454
-265.267	-144.942	-0.450	-0.041
-264.253	684.999	0.044	-0.113
-263.238	800.000	-0.084	-0.317
-262.224	-28.096	-0.245	0.140
-261.209	-21.391	-0.079	-0.048
-260.195	-200.000	-0.006	-0.069
-259.180	27.690	0.164	-0.136
-258.165	-133.364	-0.203	0.025
-257.151	-33.221	-0.107	-0.059
-256.136	296.246	0.110	0.199
-255.122	85.098	-0.112	0.121
-254.107	-200.000	0.007	-0.153
-253.092	90.778	-0.206	-0.228
-252.078	520.318	-0.100	0.231
-251.063	169.061	0.159	-0.224
-250.049	191.394	0.174	-0.258
-249.034	130.208	-0.145	-0.183
-248.019	-53.413	-0.099	0.045
-247.005	-98.019	0.454	-0.116
-245.990	-127.049	-0.143	-0.021
-244.976	-165.981	0.049	-0.002
-243.961	800.000	0.088	0.265
-242.946	295.994	-0.148	0.268
-241.932	-200.000	-0.010	-0.093
-240.917	-200.000	0.023	0.199
-239.903	-16.808	-0.107	-0.067
-238.888	-6.729	0.281	0.189
-237.873	-142.299	-0.078	0.008
-236.859	94.026	0.121	0.136
-235.844	-200.000	-0.062	-0.301
-234.830	-67.790	-0.086	0.033
-233.815	-109.422	-0.353	-0.074
-232.800	-200.000	0.014	-0.220
-231.786	-65.219	-0.096	-0.038
-230.771	800.000	0.017	-0.049
-229.757	-29.298	-0.147	-0.083
-228.742	-30.372	-0.026	0.015
-227.727	391.296	0.121	0.247
-226.713	204.021	-0.100	0.153
-225.698	-49.137	-0.110	0.052
-224.684	800.000	-0.110	0.410
-223.669	-82.925	0.243	-0.078
-222.655	236.279	-0.170	-0.278
-221.640	112.281	-0.104	0.125
-220.625	-200.000	0.036	0.341
-219.611	106.737	0.126	0.148
-218.596	-200.000	0.059	-0.289
-217.582	-172.495	-0.216	-0.007
-216.567	11.616	0.052	0.039
-215.552	85.487	-0.164	-0.178
-214.538	800.000	-0.043	-0.145
-213.523	-157.592	-0.180	0.011
-212.509	-97.540	0.419	-0.107
-211.494	619.919	-0.070	-0.173
-210.479	6.265	0.117	-0.086
-209.465	800.000	0.062	0.222
-208.450	-200.000	0.020	-0.233
-207.436	264.917	0.053	0.091
-206.421	-28.302	-0.279	-0.159
-205.406	-92.013	-0.065	-0.018
-204.392	-180.608	-0.124	-0.003
-203.377	-200.000	0.007	0.054
-202.363	253.315	0.086	-0.145
-201.348	150.210	-0.128	0.171
-200.333	-106.922	0.284	-0.062
-199.319	-87.414	0.416	-0.124
-198.304	45.371	-0.211	0.192
-197.290	-84.203	0.520	-0.163
-196.275	-200.000	-0.078	-0.370
-195.260	7.096	-0.134	0.099
-194.246	102.510	0.231	0.266
-193.231	177.609	0.041	0.059
-192.217	122.602	-0.091	-0.113
-191.202	800.000	-0.007	0.020
-190.187	-28.074	-0.198	0.113
-189.173	-200.000	0.030	-0.189
-188.158	800.000	-0.038	0.147
-187.144	-10.110	0.375	-0.245
-186.129	56.817	-0.211	-0.203
-185.114	800.000	-0.085	0.300
-184.100	-168.817	0.272	-0.010
-183.085	-88.565	0.089	0.026
-182.071	-39.443	-0.223	0.115
-181.056	-59.042	-0.354	0.151
-180.042	6.068	0.169	0.123
-179.027	-200.000	-0.021	0.178
-178.012	-107.751	0.252	0.054
-176.998	800.000	-0.073	0.205
-175.983	-163.191	0.326	-0.015
-174.969	-152.353	-0.212	0.015
-173.954	234.361	-0.035	-0.057
-172.939	-200.000	0.010	-0.099
-171.925	-147.174	-0.147	-0.012
-170.910	18.266	-0.183	0.144
-169.896	-104.476	0.411	0.094
-168.881	-51.095	0.196	-0.090
-167.866	6.981	-0.157	0.116
-166.852	86.571	-0.175	0.190
-165.837	83.722	0.140	0.150
-164.823	-42.581	0.355	0.178
-163.808	566.723	0.125	0.298
-162.793	-104.836	0.042	-0.010
-161.779	800.000	0.176	0.535
-160.764	261.325	-0.100	-0.171
-159.750	-51.887	-0.022	-0.010
-158.735	-58.015	0.097	-0.042
-157.720	-200.000	0.020	0.133
-156.706	-66.167	0.197	0.077
-155.691	-82.398	0.189	-0.060
-154.677	489.473	0.096	0.217
-153.662	-5.007	-0.365	0.248
-152.647	13.086	-0.336	0.256
-151.633	-173.043	0.294	0.009
-150.618	362.949	0.012	0.024
-149.604	575.559	-0.064	0.153
-148.589	77.753	0.063	0.066
-147.574	381.059	-0.052	-0.105
-146.560	-145.697	0.318	-0.028
-145.545	-200.000	-0.076	0.435
-144.531	-50.026	0.328	0.153
-143.516	-137.523	0.310	-0.034
-142.502	-157.219	-0.334	-0.020
-141.487	120.716	-0.058	0.070
-140.472	-8.470	0.145	-0.096
-139.458	44.864	0.190	0.172
-138.443	800.000	-0.018	0.060
-137.429	-200.000	0.016	-0.114
-136.414	-62.562	0.171	-0.070
-135.399	87.900	0.242	0.264
-134.385	46.383	-0.205	0.187
-133.370	800.000	-0.036	-0.142
-132.356	71.412	-0.182	-0.186
-131.341	800.000	-0.145	0.448
-130.326	-41.920	0.199	-0.100
-129.312	-200.000	-0.024	0.268
-128.297	-200.000	0.039	-0.344
-127.283	255.225	0.080	0.135
-126.268	222.056	-0.128	0.203
-125.253	800.000	-0.043	0.121
-124.239	91.957	-0.144	-0.160
-123.224	520.914	0.038	-0.088
-122.210	-125.974	-0.078	-0.011
-121.195	-46.820	0.148	-0.071
-120.180	-200.000	-0.010	-0.283
-119.166	719.661	-0.086	-0.225
-118.151	-104.202	0.171	0.039
-117.137	-200.000	-0.061	0.373
-116.122	-200.000	0.084	-0.423
-115.107	499.426	0.086	-0.195
-114.093	-184.607	-0.219	-0.003
-113.078	16.139	-0.078	0.061
-112.064	-63.634	0.149	-0.060
-111.049	384.539	0.091	0.185
-110.034	762.082	-0.067	-0.178
-109.020	19.073	0.257	0.203
-108.005	212.645	0.130	0.201
-106.991	800.000	0.108	0.317
-105.976	-200.000	0.074	-0.416
-104.962	-200.000	-0.012	0.201
-103.947	-200.000	0.058	0.271
-102.932	-200.000	0.076	-0.401
-101.918	367.128	0.055	-0.109
-100.903	-200.000	-0.039	-0.231
-99.889	-37.083	-0.031	0.016
-98.874	-200.000	0.016	-0.288
-97.859	17.046	-0.048	0.038
-96.845	-92.985	0.274	0.075
-95.830	-80.367	-0.241	-0.079
-94.816	-200.000	0.006	0.480
-93.801	758.541	0.143	0.380
-92.786	181.076	0.216	0.312
-91.772	-5.814	-0.124	0.084
-90.757	36.601	0.126	0.109
-89.743	-200.000	0.003	-0.025
-88.728	47.953	0.138	0.127
-87.713	-200.000	0.022	0.189
-86.699	-84.374	0.174	-0.054
-85.684	-200.000	-0.018	0.203
-84.670	-25.586	0.022	-0.013
-83.655	131.811	0.117	0.147
-82.640	11.637	-0.063	-0.047
-81.626	-200.000	0.021	-0.132
-80.611	800.000	0.047	0.194
-79.597	216.144	0.177	0.276
-78.582	419.701	0.093	0.195
-77.567	-87.235	0.139	-0.041
-76.553	251.142	-0.199	-0.332
-75.538	284.071	0.198	0.350
-74.524	31.274	0.230	0.194
-73.509	734.628	-0.019	-0.049
-72.494	213.040	0.043	0.067
-71.480	-112.084	0.066	-0.013
-70.465	-139.314	0.173	0.018
-69.451	6.863	0.064	0.047
-68.436	8.380	-0.084	0.062
-67.422	-200.000	-0.032	0.143
-66.407	176.737	0.286	-0.409
-65.392	-200.000	-0.002	0.375
-64.378	-65.290	0.068	0.027
-63.363	-200.000	-0.039	-0.388
-62.349	8.857	-0.082	-0.061
-61.334	94.738	-0.736	-0.821
-60.319	123.440	0.592	0.729
-59.305	648.319	-0.382	-0.957
-58.290	568.285	0.558	1.329
-57.276	658.535	0.636	1.605
-56.261	-200.000	109.099	590.026
-55.246	434.686	1506.896	3213.156
-54.232	144.701	2686.408	3521.385
-53.217	103.110	2185.774	2512.581
-52.203	38.662	1713.453	1499.637
-51.188	31.545	1529.445	1289.696
-50.173	29.121	1504.461	1252.121
-49.159	50.340	1561.335	1447.134
-48.144	50.155	1577.602	1460.869
-47.130	31.718	1533.372	1293.997
-46.115	28.652	1518.518	1260.398
-45.100	28.475	1515.237	1256.411
-44.086	28.417	1512.808	1253.949
-43.071	28.443	1510.755	1252.380
-42.057	28.315	1509.496	1250.409
-41.042	28.310	1508.314	1249.350
-40.027	28.326	1506.455	1247.869
-39.013	28.338	1504.741	1246.479
-37.998	28.341	1503.455	1245.388
-36.984	28.278	1502.588	1244.191
-35.969	28.356	1501.470	1243.744
-34.954	28.330	1499.845	1242.175
-33.940	28.378	1498.267	1241.144
-32.925	28.414	1496.663	1240.006
-31.911	28.454	1495.298	1239.097
-30.896	28.478	1494.281	1238.370
-29.881	28.425	1493.029	1236.922
-28.867	28.360	1491.607	1235.258
-27.852	28.283	1490.663	1233.906
-26.838	28.473	1488.760	1233.562
-25.823	28.297	1487.846	1231.572
-24.809	28.456	1486.226	1231.248
-23.794	28.450	1484.524	1229.753
-22.779	28.384	1483.702	1228.579
-21.765	28.374	1482.656	1227.594
-20.750	28.467	1481.376	1227.111
-19.736	28.410	1480.537	1225.989
-18.721	28.379	1479.171	1224.598
-17.706	28.361	1478.432	1223.817
-16.692	28.350	1477.654	1223.052
-15.677	28.430	1476.211	1222.346
-14.663	28.464	1474.960	1221.489
-13.648	28.377	1474.203	1220.229
-12.633	28.364	1473.162	1219.235
-11.619	28.448	1472.353	1219.076
-10.604	28.315	1471.559	1217.485
-9.590	28.344	1470.955	1217.129
-8.575	28.293	1469.997	1215.952
-7.560	28.407	1468.544	1215.454
-6.546	28.304	1467.739	1214.057
-5.531	28.411	1466.963	1214.077
-4.517	28.314	1466.159	1212.723
-3.502	28.317	1464.869	1211.629
-2.487	28.215	1464.054	1210.227
-1.473	28.326	1462.713	1209.808
-0.458	28.337	1461.739	1209.024
0.556	26.663	1451.979	1199.092
1.571	24.162	1427.274	1162.287
2.586	21.059	1366.098	1092.961
3.600	19.859	1282.895	1019.243
4.615	18.336	1238.250	975.018
5.629	15.537	1180.584	914.314
6.644	7.694	1095.319	808.449
7.659	1.221	1055.599	747.255
8.673	0.358	1049.621	738.731
9.688	0.138	1047.017	735.755
10.702	-0.029	1045.529	733.833
11.717	0.073	1043.033	732.512
12.731	2.482	1045.185	745.702
13.746	10.402	1056.212	792.358
14.761	16.381	1063.466	827.089
15.775	17.184	1063.969	831.337
16.790	16.385	1062.182	825.961
17.804	15.419	1059.709	819.252
18.819	14.581	1057.490	813.381
19.834	14.117	1056.465	810.260
20.848	13.778	1055.568	807.848
21.863	13.625	1054.493	806.210
22.877	13.365	1053.735	804.297
23.892	13.063	1053.299	802.427
24.907	12.943	1052.113	800.869
25.921	13.028	1051.390	800.659
26.936	13.007	1051.222	800.359
27.950	13.160	1050.192	800.246
28.965	13.096	1050.096	799.789
29.980	13.091	1048.760	798.676
30.994	13.208	1047.623	798.305
32.009	13.233	1046.784	797.718
33.023	13.374	1046.134	797.829
34.038	13.345	1045.346	797.021
35.053	13.261	1044.380	795.810
36.067	13.266	1043.679	795.229
37.082	13.242	1042.672	794.276
38.096	13.293	1041.967	793.912
39.111	13.397	1041.256	793.799
40.126	13.347	1040.554	792.954
41.140	13.230	1039.611	791.607
42.155	13.074	1038.468	789.918
43.169	12.965	1038.117	789.059
44.184	12.985	1036.761	788.055
45.199	12.960	1035.852	787.177
46.213	13.018	1035.190	786.879
47.228	13.109	1033.915	786.273
48.242	13.258	1032.569	785.889
49.257	13.154	1031.889	784.808
50.271	13.362	1029.933	784.237
51.286	13.221	1029.771	783.375
52.301	13.182	1028.731	782.330
53.315	13.092	1028.360	781.554
54.330	13.091	1027.468	780.803
55.344	13.202	1026.054	780.183
56.359	13.149	1025.556	779.482
57.374	13.065	1024.533	778.243
58.388	13.118	1023.497	777.637
59.403	13.082	1022.722	776.810
60.417	13.065	1022.522	776.508
61.432	13.055	1021.672	775.749
62.447	12.996	1020.723	774.683
63.461	12.929	1020.279	773.958
64.476	12.951	1019.316	773.265
65.490	13.016	1017.916	772.440
66.505	13.089	1017.078	772.075
67.520	13.010	1016.489	771.193
68.534	12.871	1015.965	770.077
69.549	13.022	1015.011	769.989
70.563	13.123	1014.592	770.075
71.578	13.118	1013.586	769.222
72.593	13.075	1012.596	768.201
73.607	12.974	1011.963	767.184
74.622	12.895	1010.878	765.925
75.636	12.872	1009.949	765.046
76.651	13.029	1008.931	764.937
77.666	13.087	1008.310	764.665
78.680	12.956	1007.552	763.418
79.695	12.947	1007.268	763.093
80.709	13.034	1006.788	763.064
81.724	12.924	1005.891	761.807
82.739	13.023	1004.749	761.332
83.753	13.078	1004.125	761.047
84.768	13.056	1003.720	760.572
85.782	13.230	1002.299	760.229
86.797	13.265	1002.026	760.114
87.812	13.260	1001.177	759.382
88.826	13.195	1000.281	758.333
89.841	13.188	999.662	757.768
90.855	13.163	998.786	756.920
91.870	13.179	997.966	756.304
92.884	13.292	997.229	756.195
93.899	13.323	996.390	755.635
94.914	13.230	995.977	754.828
95.928	13.345	995.172	754.679
96.943	13.284	994.521	753.838
97.957	13.426	993.444	753.603
98.972	13.219	992.674	752.008
99.987	13.330	991.617	751.648
101.001	13.319	990.989	751.056
102.016	13.217	990.855	750.422
103.030	13.138	989.648	749.084
104.045	13.265	988.226	748.515
105.060	13.207	987.302	747.487
106.074	13.234	986.430	746.885
107.089	13.199	985.938	746.287
108.103	13.002	985.067	744.674
109.118	13.111	983.846	744.176
110.133	13.016	983.551	743.457
111.147	13.204	982.605	743.527
112.162	13.021	981.411	741.733
113.176	13.187	980.488	741.713
114.191	13.128	980.141	741.120
115.206	13.293	978.627	740.653
116.220	13.252	977.965	739.900
117.235	13.172	977.176	738.880
118.249	13.199	976.351	738.313
119.264	13.106	975.553	737.227
120.279	13.141	974.638	736.626
121.293	13.190	973.536	735.947
122.308	13.126	973.146	735.302
123.322	13.126	972.203	734.526
124.337	13.110	971.067	733.532
125.352	13.164	969.758	732.718
126.366	13.064	969.164	731.762
127.381	13.088	967.700	730.698
128.395	13.236	966.294	730.222
129.410	13.096	965.455	728.906
130.424	13.045	965.160	728.397
131.439	13.224	963.997	728.243
132.454	13.075	963.095	726.842
133.468	13.242	962.352	726.951
134.483	13.164	961.918	726.212
135.497	13.163	961.138	725.558
136.512	13.158	960.525	725.010
137.527	13.138	959.614	724.169
138.541	13.129	958.665	723.351
139.556	13.068	958.498	722.891
140.570	13.208	957.101	722.388
141.585	13.190	956.720	721.955
142.600	13.316	955.823	721.765
143.614	13.199	955.125	720.664
144.629	13.158	954.504	719.952
145.643	13.333	953.718	720.057
146.658	13.388	952.543	719.347
147.673	13.270	951.295	717.828
148.687	13.247	951.028	717.462
149.702	13.331	950.093	717.061
150.716	13.278	949.098	716.014
151.731	13.140	948.677	715.038
152.746	13.267	947.624	714.730
153.760	13.298	946.648	714.062
154.775	13.169	946.123	713.047
155.789	13.295	945.732	713.231
156.804	13.379	944.862	712.876
157.819	13.505	943.559	712.373
158.833	13.488	943.070	711.866
159.848	13.495	942.519	711.419
160.862	13.629	941.491	711.153
161.877	13.410	941.228	709.952
162.892	13.411	940.402	709.269
163.906	13.303	939.415	708.002
164.921	13.378	938.775	707.778
165.935	13.367	937.736	706.885
166.950	13.353	937.013	706.219
167.964	13.376	935.968	705.465
168.979	13.441	934.870	704.853
169.994	13.363	933.973	703.782
171.008	13.412	933.291	703.416
172.023	13.383	932.315	702.493
173.037	13.421	931.992	702.347
174.052	13.515	930.773	701.766
175.067	13.545	929.849	701.134
176.081	13.570	929.224	700.706
177.096	13.474	928.630	699.790
178.110	13.327	927.889	698.549
179.125	13.455	926.983	698.347
180.140	13.566	926.317	698.252
181.154	13.416	925.557	696.986
182.169	13.554	924.947	697.043
183.183	13.634	924.110	696.688
184.198	13.564	924.018	696.262
185.213	13.602	923.240	695.773
186.227	13.512	922.738	694.957
187.242	13.713	921.679	694.940
188.256	13.754	921.068	694.592
189.271	13.750	920.139	693.809
190.286	13.773	919.770	693.569
191.300	13.600	919.095	692.273
192.315	13.465	918.287	691.043
193.329	13.406	917.321	690.007
194.344	13.614	916.613	690.279
195.359	13.532	916.048	689.454
196.373	13.632	915.509	689.402
197.388	13.730	915.220	689.529
198.402	13.758	914.343	688.924
199.417	13.785	913.948	688.677
200.432	13.854	913.510	688.571
201.446	13.805	913.197	688.073
202.461	13.824	912.722	687.731
203.475	14.061	911.972	688.086
204.490	13.952	911.457	687.186
205.504	13.933	910.356	686.219
206.519	13.845	909.709	685.307
207.534	13.826	909.029	684.656
208.548	13.884	908.318	684.298
209.563	13.964	907.476	683.935
210.577	13.761	907.128	682.773
211.592	13.912	906.246	682.670
212.607	14.062	905.792	682.887
213.621	14.002	905.102	682.060
214.636	14.112	904.223	681.788
215.650	14.007	903.431	680.699
216.665	14.080	902.783	680.450
217.680	14.163	902.685	680.656
218.694	14.073	901.908	679.640
219.709	14.089	901.729	679.510
220.723	14.110	901.192	679.131
221.738	13.994	900.481	678.063
222.753	14.229	899.162	677.968
223.767	14.159	898.935	677.452
224.782	13.934	898.321	676.011
225.796	14.230	897.220	676.329
226.811	14.317	896.300	675.928
227.826	14.282	895.754	675.312
228.840	14.283	895.039	674.720
229.855	14.295	894.152	674.041
230.869	14.349	893.832	673.956
231.884	14.281	893.067	673.045
232.899	14.108	892.341	671.741
233.913	14.226	891.625	671.618
234.928	14.112	890.980	670.615
235.942	14.226	890.043	670.308
236.957	14.215	889.746	669.980
237.972	14.270	888.862	669.477
238.986	14.161	888.680	668.841
240.001	14.369	887.552	668.768
241.015	14.277	887.052	667.965
242.030	14.249	886.545	667.411
243.045	14.344	885.806	667.176
244.059	14.336	885.181	666.615
245.074	14.339	884.548	666.090
246.088	14.496	883.606	665.950
247.103	14.462	883.198	665.448
248.117	14.542	882.350	665.068
249.132	14.518	881.888	664.565
250.147	14.534	881.390	664.195
251.161	14.673	881.095	664.468
252.176	14.723	880.150	663.894
253.190	14.752	879.330	663.332
254.205	14.836	878.851	663.247
255.220	14.766	878.146	662.379
256.234	14.687	877.776	661.728
257.249	14.745	876.702	661.087
258.263	14.728	876.695	660.958
259.278	14.744	876.026	660.457
260.293	14.744	875.281	659.836
261.307	14.838	874.804	659.790
262.322	14.798	874.147	659.080
263.336	14.962	873.583	659.240
264.351	14.824	873.064	658.249
265.366	14.943	872.669	658.361
266.380	14.961	871.860	657.762
267.395	15.073	870.910	657.429
268.409	14.885	870.414	656.258
269.424	14.941	869.693	655.874
270.439	14.903	869.231	655.318
271.453	15.025	867.967	654.785
272.468	15.018	867.538	654.376
273.482	14.878	867.333	653.619
274.497	14.957	866.499	653.242
275.512	14.822	865.652	652.017
276.526	14.985	864.652	651.842
277.541	15.003	864.147	651.472
278.555	14.978	863.618	650.918
279.570	14.981	863.411	650.717
280.585	15.080	862.472	650.336
281.599	15.045	862.215	649.947
282.614	15.131	861.431	649.634
283.628	15.078	861.041	649.079
284.643	15.128	860.163	648.550
285.657	15.181	859.566	648.249
286.672	15.286	859.159	648.292
287.687	15.076	859.052	647.341
288.701	15.205	858.301	647.216
289.716	15.246	858.014	647.102
290.730	15.135	856.954	645.816
291.745	15.199	856.466	645.636
292.760	15.295	855.688	645.363
293.774	15.396	855.001	645.177
294.789	15.445	854.291	644.771
295.803	15.267	854.442	644.144
296.818	15.290	853.727	643.638
297.833	15.242	852.766	642.672
298.847	15.381	852.050	642.608
299.862	15.273	851.347	641.608
300.876	15.316	850.636	641.177
301.891	15.492	849.909	641.248
302.906	15.317	849.728	640.386
303.920	15.369	849.050	640.017
304.935	15.459	848.054	639.553
305.949	15.604	847.323	639.494
306.964	15.466	847.140	638.776
307.979	15.544	846.272	638.359
308.993	15.493	845.840	637.784
310.008	15.602	845.439	637.842
311.022	15.636	844.570	637.255
312.037	15.606	844.101	636.733
313.052	15.680	843.472	636.481
314.066	15.445	843.552	635.596
315.081	15.555	842.650	635.275
316.095	15.520	841.906	634.526
317.110	15.581	841.161	634.139
318.125	15.776	840.312	634.180
319.139	15.617	840.015	633.298
320.154	15.605	839.842	633.067
321.168	15.671	838.777	632.459
322.183	15.637	838.460	632.034
323.197	15.677	838.629	632.256
324.212	15.672	837.759	631.527
325.227	15.592	837.318	630.836
326.241	15.712	836.190	630.381
327.256	15.633	835.661	629.630
328.270	15.823	835.424	630.109
329.285	15.718	834.861	629.234
330.300	15.587	834.421	628.358
331.314	15.564	834.004	627.903
332.329	15.840	833.039	628.150
333.343	15.745	832.428	627.278
334.358	15.745	832.200	627.051
335.373	15.761	831.717	626.693
336.387	15.854	830.482	626.051
337.402	15.846	830.353	625.869
338.416	15.908	829.844	625.663
339.431	15.950	829.145	625.235
340.446	15.896	828.914	624.804
341.460	15.914	828.421	624.445
342.475	15.909	827.604	623.755
343.489	16.108	826.811	623.838
344.504	16.008	826.385	623.092
345.519	16.034	826.060	622.890
346.533	16.007	825.327	622.181
347.548	16.255	824.993	622.789
348.562	16.173	824.295	621.905
349.577	16.006	824.028	621.031
350.592	16.162	823.141	620.883
351.606	16.100	822.753	620.307
352.621	16.122	822.572	620.198
353.635	16.163	821.999	619.862
354.650	15.924	821.799	618.779
355.665	15.987	821.510	618.735
356.679	16.061	820.736	618.371
357.694	16.276	820.064	618.596
358.708	16.239	819.358	617.875
359.723	16.304	818.645	617.521
360.738	16.099	818.632	616.705
361.752	16.125	817.659	616.014
362.767	16.201	817.376	616.022
363.781	16.475	817.141	616.792
364.796	16.184	816.734	615.368
365.810	16.318	816.273	615.454
366.825	16.384	815.888	615.350
367.840	16.255	815.655	614.648
368.854	16.538	814.918	615.068
369.869	16.556	814.306	614.618
370.883	16.444	814.076	613.986
371.898	16.365	813.327	613.079
372.913	16.334	812.744	612.473
373.927	16.502	811.995	612.463
374.942	16.548	811.347	612.088
375.956	16.386	811.223	611.353
376.971	16.632	810.243	611.448
377.986	16.664	809.806	611.178
379.000	16.610	809.251	610.513
380.015	16.617	809.179	610.430
381.029	16.643	808.678	610.092
382.044	16.557	808.003	609.219
383.059	16.618	807.562	609.049
384.073	16.799	806.764	609.047
385.088	16.675	806.296	608.192
386.102	16.555	805.863	607.380
387.117	16.561	805.282	606.914
388.132	16.729	804.613	606.957
389.146	16.822	804.203	606.928
390.161	16.826	803.652	606.470
391.175	16.720	803.561	605.969
392.190	16.683	803.382	605.647
393.205	16.663	802.719	605.023
394.219	16.890	802.067	605.290
395.234	16.861	801.821	604.947
396.248	16.649	801.460	603.863
397.263	16.856	800.790	604.045
398.278	16.691	800.079	602.868
399.292	16.846	799.342	602.808
400.307	16.813	799.537	602.787
401.321	16.738	798.874	601.965
402.336	16.667	798.556	601.422
403.350	16.712	798.351	601.372
404.365	16.999	797.485	601.686
405.380	16.855	797.512	601.142
406.394	16.950	796.932	600.989
407.409	17.082	796.197	600.848
408.423	16.948	796.145	600.280
409.438	16.958	795.376	599.684
410.453	16.969	795.096	599.458
411.467	17.067	794.556	599.343
412.482	17.207	794.132	599.466
413.496	17.053	794.130	598.867
414.511	17.042	793.717	598.462
415.526	16.993	793.037	597.726
416.540	17.286	792.277	598.131
417.555	17.201	792.268	597.774
418.569	17.120	791.717	597.020
419.584	17.315	790.873	597.015
420.599	17.262	790.656	596.612
421.613	110.056	1291.258	1473.572
422.628	94.506	1364.165	1473.675
