DTS Sentinel unit serial number:	SN413079Multiplexer serial number:	ORYXHardware model number:	OX4-SRSoftware version number:	ORYX F/W v4.00 Oryx Data Collector v3.7.2.0data status	okinstallation	princeton_trtdifferential loss correction	single-endedforward channel	channel 3reverse channel	N/Adate	2019/09/12time	11:50:11forward acquisition time	60.00reverse acquisition time	0.00gamma	496.2192k internal	0.2293k external	0.2293temperature offset calibration	1.0042default loss term (dB/km)	0.3790temperature slope calibration	1.0000multiplexer offset coefficient	1.0000multiplexer slope coefficient	1.0000fibre end	0.00T internal ref (°C)	39.97T ext. ref 1 (°C)	2.03T ext. ref 2 (°C)	37.65length (m)	temperature (°C)	Stokes	anti-Stokes-747.200	-66.261	0.274	0.112
-746.185	61.338	-0.203	0.206
-745.171	-117.201	0.178	0.033
-744.156	137.559	0.146	-0.195
-743.142	163.146	-0.174	-0.250
-742.127	-14.327	0.175	0.115
-741.112	-200.000	-0.005	0.059
-740.098	-200.000	0.055	0.332
-739.083	-200.000	-0.013	-0.142
-738.069	20.389	0.294	0.243
-737.054	232.742	0.303	0.509
-736.039	-163.202	-0.168	-0.008
-735.025	587.221	-0.013	0.033
-734.010	-50.231	-0.294	-0.142
-732.996	59.020	-0.118	-0.119
-731.981	275.221	-0.088	0.160
-730.966	158.804	-0.069	0.099
-729.952	-200.000	0.003	0.277
-728.937	-63.610	0.147	0.062
-727.923	-16.945	0.033	0.021
-726.908	36.568	0.219	0.198
-725.894	800.000	0.045	0.144
-724.879	226.436	-0.225	-0.373
-723.864	-200.000	0.004	0.360
-722.850	-200.000	0.017	0.262
-721.835	-177.500	0.193	-0.005
-720.821	-72.699	0.334	0.126
-719.806	-27.772	0.270	0.160
-718.791	23.679	0.195	-0.164
-717.777	-116.314	-0.196	-0.037
-716.762	42.553	0.201	0.187
-715.748	-7.585	0.163	0.113
-714.733	138.089	-0.193	0.259
-713.718	-60.628	-0.182	-0.079
-712.704	800.000	-0.026	0.085
-711.689	800.000	0.098	0.288
-710.675	-200.000	0.037	-0.193
-709.660	-49.212	-0.121	0.059
-708.645	-72.349	0.339	0.128
-707.631	239.543	0.078	0.133
-706.616	-84.297	-0.110	-0.035
-705.602	-39.986	0.194	0.104
-704.587	-42.778	0.211	0.110
-703.572	-122.856	0.171	-0.028
-702.558	455.042	0.178	0.404
-701.543	-200.000	-0.028	0.205
-700.529	800.000	0.051	0.189
-699.514	84.097	0.056	-0.063
-698.499	13.752	-0.356	-0.283
-697.485	33.537	-0.068	0.060
-696.470	309.410	0.149	0.285
-695.456	-3.313	-0.077	0.055
-694.441	13.509	0.140	-0.111
-693.426	-123.113	0.292	0.048
-692.412	-71.812	0.199	0.076
-691.397	-49.188	0.289	0.141
-690.383	-97.375	-0.127	0.034
-689.368	158.418	-0.253	-0.358
-688.354	-109.167	-0.047	0.010
-687.339	40.919	0.150	0.138
-686.324	-4.622	0.099	-0.070
-685.310	23.591	0.128	-0.108
-684.295	-200.000	-0.072	-0.344
-683.281	-99.532	-0.363	-0.093
-682.266	150.953	0.154	0.213
-681.251	-149.844	0.268	0.021
-680.237	462.352	0.044	0.099
-679.222	-62.151	0.182	0.078
-678.208	67.647	-0.404	-0.421
-677.193	209.596	0.115	0.184
-676.178	323.665	-0.192	0.374
-675.164	-1.700	-0.118	-0.085
-674.149	66.433	-0.140	-0.145
-673.135	-11.137	-0.016	-0.011
-672.120	28.326	0.070	0.060
-671.105	26.283	0.084	0.071
-670.091	109.398	-0.249	-0.305
-669.076	800.000	-0.094	-0.327
-668.062	129.730	0.152	-0.198
-667.047	-124.333	0.230	0.037
-666.032	679.410	0.032	0.085
-665.018	-139.337	0.281	0.031
-664.003	800.000	-0.046	0.164
-662.989	-200.000	0.020	-0.252
-661.974	-10.513	-0.190	0.128
-660.959	25.787	-0.131	-0.111
-659.945	-16.879	0.026	0.017
-658.930	-80.432	0.246	-0.084
-657.916	800.000	0.035	0.156
-656.901	-175.256	-0.172	0.005
-655.886	368.277	-0.118	-0.243
-654.872	-15.880	0.125	-0.081
-653.857	800.000	-0.069	0.195
-652.843	-60.858	0.070	0.030
-651.828	162.926	-0.279	-0.400
-650.814	67.249	-0.345	-0.359
-649.799	-75.778	0.221	-0.080
-648.784	58.474	-0.140	-0.140
-647.770	-33.739	0.069	0.039
-646.755	800.000	0.045	0.185
-645.741	154.133	0.053	0.074
-644.726	-109.356	-0.081	-0.017
-643.711	57.987	0.036	-0.036
-642.697	800.000	-0.085	-0.297
-641.682	-132.490	0.168	-0.022
-640.668	-200.000	0.027	-0.126
-639.653	22.524	0.058	-0.049
-638.638	181.060	-0.050	-0.075
-637.624	572.104	0.136	-0.338
-636.609	312.424	0.061	0.117
-635.595	-200.000	0.004	0.216
-634.580	304.089	0.149	-0.282
-633.565	-200.000	0.010	-0.496
-632.551	-107.783	-0.091	0.020
-631.536	346.616	0.100	-0.199
-630.522	-200.000	-0.039	0.243
-629.507	-123.611	0.293	-0.047
-628.492	-103.385	0.169	0.041
-627.478	-145.341	0.304	-0.028
-626.463	-155.909	-0.228	0.015
-625.449	95.888	-0.253	0.295
-624.434	62.209	0.118	0.120
-623.419	5.771	0.029	0.022
-622.405	800.000	-0.100	-0.343
-621.390	-200.000	0.013	0.106
-620.376	47.316	-0.264	0.250
-619.361	-26.429	-0.171	-0.102
-618.346	480.223	0.030	-0.069
-617.332	-44.766	-0.321	0.163
-616.317	187.116	0.091	0.139
-615.303	-56.096	0.182	0.082
-614.288	119.350	0.016	-0.020
-613.273	122.188	0.274	0.349
-612.259	-200.000	0.002	-0.135
-611.244	30.068	0.143	0.124
-610.230	-127.495	-0.271	0.040
-609.215	-40.543	0.207	-0.109
-608.201	-12.754	-0.100	0.066
-607.186	-162.616	-0.267	-0.013
-606.171	4.294	0.402	0.300
-605.157	54.349	0.358	-0.351
-604.142	507.863	-0.025	-0.060
-603.128	-15.488	0.235	-0.152
-602.113	106.939	0.058	0.070
-601.098	800.000	-0.146	0.454
-600.084	-124.463	0.056	0.009
-599.069	-200.000	0.012	-0.169
-598.055	-73.868	0.185	-0.068
-597.040	139.146	-0.191	-0.255
-596.025	568.480	0.033	0.082
-595.011	141.038	-0.043	0.058
-593.996	27.619	0.195	0.167
-592.982	402.505	0.191	-0.408
-591.967	155.773	-0.104	0.145
-590.952	-200.000	-0.009	0.130
-589.938	-200.000	0.016	-0.149
-588.923	184.120	-0.086	-0.130
-587.909	800.000	-0.051	0.145
-586.894	-200.000	-0.001	-0.045
-585.879	-123.659	0.193	-0.031
-584.865	-77.189	-0.282	0.100
-583.850	-200.000	-0.045	-0.228
-582.836	29.737	-0.050	-0.043
-581.821	800.000	0.030	-0.111
-580.806	340.868	-0.079	0.157
-579.792	-122.847	-0.145	-0.024
-578.777	-76.691	-0.248	0.088
-577.763	-154.897	-0.118	0.008
-576.748	-100.967	0.322	-0.080
-575.733	-117.669	-0.168	-0.031
-574.719	51.159	0.132	0.127
-573.704	-117.353	-0.067	0.012
-572.690	-147.193	-0.101	0.009
-571.675	-76.010	0.234	-0.084
-570.661	-130.683	0.134	0.018
-569.646	70.585	-0.523	0.550
-568.631	-119.180	0.136	-0.024
-567.617	-133.904	0.166	0.021
-566.602	-200.000	-0.019	0.177
-565.588	-154.110	-0.178	-0.012
-564.573	-200.000	-0.068	-0.449
-563.558	50.707	-0.150	0.145
-562.544	-45.933	-0.179	-0.089
-561.529	-200.000	0.016	-0.306
-560.515	-58.504	-0.291	0.128
-559.500	479.382	-0.061	0.141
-558.485	146.169	0.127	0.173
-557.471	-49.400	0.147	-0.071
-556.456	102.025	0.107	0.127
-555.442	-102.077	-0.478	0.117
-554.427	-200.000	-0.022	-0.168
-553.412	-34.516	0.144	0.080
-552.398	-106.968	-0.115	0.026
-551.383	800.000	0.097	-0.355
-550.369	-175.088	0.437	-0.012
-549.354	345.445	-0.170	-0.339
-548.339	109.320	-0.155	-0.189
-547.325	188.437	0.104	-0.159
-546.310	800.000	0.034	-0.100
-545.296	110.348	0.071	-0.086
-544.281	-121.306	-0.504	0.085
-543.266	-133.863	0.259	0.033
-542.252	137.591	-0.120	-0.159
-541.237	-81.324	-0.330	0.111
-540.223	-200.000	-0.026	-0.233
-539.208	12.788	0.179	0.140
-538.193	-27.706	0.113	-0.067
-537.179	36.071	0.244	-0.218
-536.164	213.483	-0.155	0.248
-535.150	674.710	-0.076	0.199
-534.135	169.894	-0.187	0.272
-533.121	-17.445	0.095	0.061
-532.106	228.969	0.189	0.312
-531.091	-17.424	-0.120	0.076
-530.077	800.000	0.038	-0.113
-529.062	-200.000	-0.038	0.498
-528.048	591.018	-0.079	-0.199
-527.033	-200.000	-0.014	-0.190
-526.018	189.012	0.147	0.223
-525.004	-200.000	0.003	-0.183
-523.989	43.939	-0.112	-0.104
-522.975	312.313	0.051	-0.097
-521.960	310.306	-0.117	0.222
-520.945	111.414	-0.207	-0.253
-519.931	-99.152	0.202	0.052
-518.916	800.000	-0.102	-0.301
-517.902	-200.000	0.005	0.124
-516.887	37.552	0.151	-0.136
-515.872	139.275	0.199	-0.265
-514.858	78.983	-0.122	-0.132
-513.843	-95.247	-0.243	0.066
-512.829	188.059	0.094	0.142
-511.814	33.790	0.150	0.132
-510.799	800.000	-0.047	0.184
-509.785	334.250	0.226	-0.443
-508.770	-200.000	0.003	-0.165
-507.756	-200.000	-0.011	-0.069
-506.741	800.000	-0.055	0.237
-505.726	-166.030	0.250	0.011
-504.712	-13.115	-0.075	0.049
-503.697	-71.724	0.131	0.050
-502.683	113.160	-0.099	-0.121
-501.668	118.676	0.101	-0.127
-500.653	800.000	-0.042	0.142
-499.639	-200.000	-0.014	0.140
-498.624	93.952	-0.198	-0.228
-497.610	426.979	-0.040	0.088
-496.595	117.673	0.173	-0.215
-495.581	162.436	-0.130	-0.185
-494.566	-200.000	0.025	-0.190
-493.551	-153.937	-0.244	0.017
-492.537	243.458	-0.093	-0.157
-491.522	-92.193	0.199	-0.057
-490.508	102.906	-0.284	0.337
-489.493	-200.000	-0.033	-0.299
-488.478	570.425	0.168	-0.413
-487.464	-200.000	0.002	0.234
-486.449	18.598	-0.302	0.245
-485.435	24.956	-0.098	-0.082
-484.420	-200.000	0.111	0.509
-483.405	132.329	0.023	0.030
-482.391	-130.125	-0.228	0.032
-481.376	-191.869	-0.283	0.003
-480.362	23.621	-0.077	-0.064
-479.347	-31.678	-0.250	-0.142
-478.332	-154.554	0.218	-0.015
-477.318	284.363	0.050	-0.091
-476.303	248.639	0.173	0.297
-475.289	-200.000	0.014	-0.082
-474.274	800.000	-0.009	-0.032
-473.259	-8.943	-0.167	-0.114
-472.245	-13.863	-0.297	0.194
-471.230	48.981	0.104	0.099
-470.216	-45.130	0.143	0.072
-469.201	-200.000	-0.003	0.135
-468.186	800.000	0.032	0.100
-467.172	122.223	0.129	0.163
-466.157	600.498	-0.142	0.358
-465.143	-31.503	-0.144	0.082
-464.128	300.421	0.079	0.148
-463.113	69.803	-0.135	0.141
-462.099	-27.528	0.195	0.115
-461.084	-133.675	0.453	-0.057
-460.070	36.096	0.288	0.256
-459.055	464.557	-0.187	0.423
-458.040	-200.000	-0.002	0.106
-457.026	-94.992	-0.151	0.041
-456.011	-200.000	-0.043	0.250
-454.997	411.855	0.085	-0.183
-453.982	-115.794	-0.141	-0.027
-452.968	-69.322	0.490	-0.190
-451.953	-3.892	-0.073	-0.051
-450.938	-3.160	-0.264	-0.187
-449.924	644.713	-0.113	0.293
-448.909	40.859	0.054	0.049
-447.895	14.093	-0.350	-0.275
-446.880	-70.126	0.335	-0.129
-445.865	-47.400	-0.250	0.123
-444.851	-69.637	0.200	-0.077
-443.836	-112.129	-0.083	-0.017
-442.822	-200.000	0.013	-0.465
-441.807	72.697	0.139	0.147
-440.792	-10.263	0.212	-0.142
-439.778	88.354	0.118	0.133
-438.763	800.000	0.060	0.170
-437.749	-95.301	0.275	-0.075
-436.734	280.762	0.063	-0.114
-435.719	370.453	0.110	0.225
-434.705	323.419	-0.090	0.174
-433.690	-84.338	-0.182	0.058
-432.676	-106.335	0.195	0.044
-431.661	30.429	0.160	-0.139
-430.646	359.782	0.080	-0.162
-429.632	71.966	-0.177	-0.186
-428.617	-42.270	0.257	0.133
-427.603	-200.000	-0.004	0.387
-426.588	33.091	-0.252	0.220
-425.573	100.284	0.073	0.086
-424.559	-125.728	-0.499	-0.076
-423.544	-200.000	-0.033	0.229
-422.530	800.000	-0.058	0.164
-421.515	800.000	0.077	-0.272
-420.500	-89.742	0.223	0.066
-419.486	-160.970	-0.119	-0.006
-418.471	3.534	-0.281	0.207
-417.457	-110.998	0.264	-0.055
-416.442	-92.040	-0.268	0.077
-415.428	-200.000	-0.014	-0.126
-414.413	96.155	0.045	-0.052
-413.398	-175.769	-0.315	-0.009
-412.384	37.605	-0.250	0.224
-411.369	800.000	-0.028	-0.107
-410.355	-82.704	-0.181	0.059
-409.340	800.000	0.043	-0.162
-408.325	303.144	-0.044	0.083
-407.311	-200.000	0.089	-0.440
-406.296	-124.251	0.107	-0.017
-405.282	-31.301	-0.143	-0.081
-404.267	55.023	-0.165	0.161
-403.252	754.983	0.028	-0.078
-402.238	79.043	0.133	-0.143
-401.223	800.000	0.062	0.212
-400.209	87.365	0.168	-0.188
-399.194	62.749	0.136	0.137
-398.179	-98.183	-0.095	0.025
-397.165	-170.420	0.094	-0.003
-396.150	147.362	-0.225	0.306
-395.136	800.000	-0.076	-0.218
-394.121	800.000	0.054	-0.157
-393.106	-108.502	-0.158	0.034
-392.092	-108.117	0.296	-0.065
-391.077	-98.656	0.163	0.042
-390.063	1.530	0.158	0.114
-389.048	33.817	-0.155	-0.136
-388.033	240.002	-0.058	-0.097
-387.019	328.497	0.045	-0.088
-386.004	-73.557	0.157	-0.058
-384.990	-200.000	0.075	0.342
-383.975	-122.120	-0.160	0.027
-382.960	-113.429	-0.225	-0.044
-381.946	-88.476	-0.070	-0.021
-380.931	21.508	-0.136	0.112
-379.917	-104.058	0.118	-0.028
-378.902	800.000	-0.052	0.175
-377.888	-45.683	-0.164	0.082
-376.873	-50.145	-0.208	0.099
-375.858	7.829	0.166	0.126
-374.844	6.469	-0.399	-0.299
-373.829	79.758	-0.185	0.200
-372.815	100.922	-0.084	0.099
-371.800	742.688	-0.088	-0.239
-370.785	-141.297	0.480	0.049
-369.771	9.293	-0.100	-0.076
-368.756	-200.000	0.013	-0.180
-367.742	-106.785	-0.070	-0.016
-366.727	80.625	-0.234	-0.254
-365.712	139.233	-0.297	0.394
-364.698	-118.865	-0.266	-0.047
-363.683	-128.546	-0.192	0.027
-362.669	9.386	0.073	0.055
-361.654	-122.663	0.353	-0.058
-360.639	-124.799	0.074	0.012
-359.625	181.288	-0.145	0.214
-358.610	-200.000	-0.015	-0.153
-357.596	175.495	0.083	-0.122
-356.581	204.939	0.045	-0.070
-355.566	-49.556	-0.251	-0.121
-354.552	-200.000	-0.011	-0.310
-353.537	-125.265	0.368	0.057
-352.523	-141.021	-0.150	0.016
-351.508	-200.000	-0.021	0.301
-350.493	-22.910	0.387	0.235
-349.479	-200.000	0.018	0.137
-348.464	800.000	0.063	-0.216
-347.450	-200.000	0.017	-0.173
-346.435	-79.345	0.389	0.133
-345.420	-200.000	-0.005	0.340
-344.406	-200.000	-0.052	0.255
-343.391	-37.729	0.193	0.103
-342.377	444.207	-0.192	0.425
-341.362	-94.949	-0.036	0.010
-340.348	-85.498	0.108	-0.034
-339.333	-165.368	0.162	-0.007
-338.318	-50.921	0.154	0.073
-337.304	-23.459	0.246	0.149
-336.289	-200.000	0.003	0.182
-335.275	-116.257	-0.345	0.064
-334.260	327.285	-0.036	-0.070
-333.245	60.267	0.103	0.102
-332.231	26.434	-0.310	-0.261
-331.216	-82.127	0.193	-0.063
-330.202	-200.000	0.045	-0.491
-329.187	-200.000	-0.004	-0.153
-328.172	22.476	0.200	0.165
-327.158	-100.897	-0.182	-0.045
-326.143	181.703	0.089	0.131
-325.129	800.000	0.041	-0.155
-324.114	-198.147	-0.340	0.002
-323.099	41.306	-0.187	0.170
-322.085	-57.870	0.077	0.034
-321.070	-111.298	-0.203	0.042
-320.056	159.873	-0.076	-0.107
-319.041	-82.064	0.197	-0.065
-318.026	-124.238	0.088	-0.014
-317.012	242.624	-0.066	-0.111
-315.997	-84.452	-0.133	0.042
-314.983	322.262	0.133	0.255
-313.968	-72.378	0.110	0.041
-312.953	-38.904	-0.178	-0.094
-311.939	174.908	0.005	0.008
-310.924	-15.045	-0.269	0.173
-309.910	800.000	0.084	-0.315
-308.895	-200.000	0.022	0.180
-307.880	-175.397	-0.170	-0.005
-306.866	-200.000	0.020	-0.164
-305.851	-200.000	-0.001	-0.178
-304.837	258.423	0.068	-0.118
-303.822	-40.007	0.243	0.128
-302.807	47.185	-0.254	0.238
-301.793	-43.600	0.227	0.115
-300.778	401.354	-0.172	0.364
-299.764	76.922	-0.137	-0.146
-298.749	255.301	-0.114	0.196
-297.735	4.843	-0.223	-0.165
-296.720	-200.000	0.043	-0.239
-295.705	800.000	-0.117	-0.354
-294.691	-90.458	-0.180	-0.052
-293.676	142.159	-0.115	0.154
-292.662	-83.993	-0.313	-0.100
-291.647	51.526	0.064	-0.061
-290.632	-67.282	-0.061	0.024
-289.618	-66.264	-0.019	0.008
-288.603	47.842	-0.090	-0.084
-287.589	-200.000	0.010	-0.154
-286.574	-200.000	0.042	-0.215
-285.559	-14.486	0.113	-0.073
-284.545	-143.870	0.246	-0.023
-283.530	286.958	0.061	0.111
-282.516	-34.251	0.370	-0.204
-281.501	-7.036	0.160	0.109
-280.486	273.095	0.116	-0.206
-279.472	8.893	0.286	-0.217
-278.457	-115.434	0.228	-0.043
-277.443	89.572	0.103	0.115
-276.428	-69.893	0.063	0.024
-275.413	-52.824	-0.236	0.109
-274.399	-200.000	0.033	0.167
-273.384	77.068	0.077	0.082
-272.370	563.171	-0.045	0.111
-271.355	-118.213	0.397	0.071
-270.340	27.110	0.246	-0.207
-269.326	-200.000	-0.009	0.218
-268.311	-11.473	-0.074	0.049
-267.297	16.364	0.124	-0.098
-266.282	-195.733	0.187	-0.001
-265.267	-139.780	0.324	-0.034
-264.253	221.042	-0.079	0.127
-263.238	292.717	0.158	-0.288
-262.224	-19.655	0.040	-0.025
-261.209	62.979	0.108	-0.108
-260.195	-125.092	-0.324	-0.050
-259.180	24.126	0.138	-0.114
-258.165	157.532	-0.089	-0.123
-257.151	442.604	-0.005	0.012
-256.136	16.706	0.152	-0.120
-255.122	-68.341	0.178	-0.069
-254.107	650.135	-0.043	0.110
-253.092	-193.941	-0.221	-0.002
-252.078	-50.275	0.252	-0.119
-251.063	236.580	-0.105	0.175
-250.049	-79.333	-0.252	-0.085
-249.034	-197.365	0.153	-0.001
-248.019	-126.741	-0.336	-0.050
-247.005	800.000	0.029	-0.091
-245.990	127.750	-0.072	-0.092
-244.976	134.729	0.070	-0.091
-243.961	70.221	0.234	0.243
-242.946	694.155	-0.083	0.219
-241.932	-200.000	-0.030	-0.258
-240.917	-103.005	0.297	-0.071
-239.903	-200.000	0.004	0.058
-238.888	-200.000	-0.074	-0.324
-237.873	64.912	-0.134	0.136
-236.859	-53.347	0.165	-0.076
-235.844	-200.000	0.001	0.108
-234.830	-110.969	-0.267	-0.055
-233.815	-49.429	-0.135	0.065
-232.800	-200.000	0.034	-0.229
-231.786	-200.000	0.013	-0.201
-230.771	-192.623	0.456	-0.004
-229.757	-200.000	0.004	0.034
-228.742	-200.000	-0.009	-0.285
-227.727	299.093	0.029	0.054
-226.713	-135.675	-0.095	-0.011
-225.698	643.771	-0.052	-0.132
-224.684	800.000	0.128	0.368
-223.669	188.065	-0.219	0.327
-222.655	-43.424	-0.144	-0.073
-221.640	102.462	-0.048	-0.056
-220.625	213.460	0.183	-0.290
-219.611	-10.703	0.161	-0.107
-218.596	-96.216	-0.198	0.053
-217.582	-71.661	-0.153	-0.057
-216.567	-118.733	0.168	0.030
-215.552	800.000	0.064	0.217
-214.538	472.607	0.148	0.335
-213.523	-77.340	0.092	-0.032
-212.509	26.103	0.036	0.030
-211.494	-200.000	-0.013	0.315
-210.479	408.370	0.042	-0.089
-209.465	-200.000	0.006	-0.140
-208.450	-200.000	0.015	0.137
-207.436	-89.571	0.158	0.046
-206.421	226.150	0.126	-0.204
-205.406	132.053	0.205	-0.265
-204.392	-5.042	-0.108	0.074
-203.377	117.179	0.066	0.082
-202.363	800.000	-0.064	0.275
-201.348	-115.944	-0.254	-0.048
-200.333	-87.828	-0.110	-0.033
-199.319	179.565	0.109	0.160
-198.304	167.779	-0.134	-0.190
-197.290	800.000	0.059	-0.206
-196.275	800.000	-0.108	-0.378
-195.260	800.000	-0.055	-0.223
-194.246	28.467	0.148	-0.126
-193.231	12.968	-0.352	0.273
-192.217	-11.600	-0.291	0.192
-191.202	37.803	0.143	-0.127
-190.187	694.665	0.089	0.235
-189.173	-200.000	0.018	-0.176
-188.158	-72.273	-0.219	-0.081
-187.144	-67.654	0.325	-0.128
-186.129	-6.301	0.078	0.053
-185.114	104.293	-0.241	-0.284
-184.100	307.769	-0.102	0.191
-183.085	800.000	0.074	-0.220
-182.071	48.202	0.045	0.042
-181.056	31.827	-0.148	0.127
-180.042	-39.993	-0.131	0.068
-179.027	800.000	-0.054	0.196
-178.012	67.570	0.093	0.095
-176.998	-200.000	0.040	0.288
-175.983	514.224	0.051	0.118
-174.969	96.599	0.232	-0.265
-173.954	-161.081	0.109	0.006
-172.939	-200.000	0.047	-0.220
-171.925	-59.534	0.227	0.098
-170.910	-134.675	-0.215	0.026
-169.896	-200.000	0.015	0.114
-168.881	-200.000	-0.029	0.310
-167.866	301.619	0.277	0.513
-166.852	40.689	-0.081	0.073
-165.837	16.097	-0.123	-0.097
-164.823	-200.000	0.047	-0.298
-163.808	274.261	-0.109	-0.192
-162.793	-46.919	0.088	-0.043
-161.779	-124.139	-0.034	-0.005
-160.764	116.626	-0.138	0.169
-159.750	-12.718	-0.240	0.157
-158.735	23.186	-0.248	0.203
-157.720	-90.816	0.085	-0.024
-156.706	24.628	0.174	-0.144
-155.691	393.426	-0.245	-0.511
-154.677	54.292	0.054	-0.052
-153.662	31.168	0.129	-0.110
-152.647	-200.000	-0.026	0.143
-151.633	28.242	0.171	0.144
-150.618	-79.885	0.180	0.061
-149.604	90.260	0.176	-0.196
-148.589	1.845	-0.162	0.117
-147.574	280.731	-0.164	-0.294
-146.560	189.622	0.077	0.115
-145.545	77.914	-0.146	-0.155
-144.531	24.210	-0.074	-0.061
-143.516	400.183	-0.054	0.114
-142.502	6.724	-0.229	0.171
-141.487	218.827	-0.054	-0.087
-140.472	74.929	-0.157	0.165
-139.458	130.743	0.218	0.279
-138.443	444.593	0.097	0.212
-137.429	32.232	0.114	-0.099
-136.414	-161.435	0.323	-0.017
-135.399	11.420	0.081	0.062
-134.385	154.051	0.114	-0.156
-133.370	800.000	0.041	-0.138
-132.356	493.663	-0.071	0.162
-131.341	731.699	0.073	0.195
-130.326	-200.000	0.022	-0.237
-129.312	-162.760	0.081	0.004
-128.297	-200.000	-0.034	0.209
-127.283	-6.922	0.269	-0.183
-126.268	535.751	0.028	-0.067
-125.253	94.236	0.143	0.162
-124.239	660.721	0.040	0.102
-123.224	-200.000	-0.008	-0.136
-122.210	-200.000	0.033	-0.368
-121.195	512.637	-0.039	0.090
-120.180	-139.577	-0.127	-0.014
-119.166	-163.489	0.114	-0.005
-118.151	-47.059	0.145	0.071
-117.137	104.205	-0.180	0.211
-116.122	-200.000	-0.008	0.265
-115.107	-200.000	-0.002	0.262
-114.093	-147.549	-0.171	-0.014
-113.078	-57.506	0.162	0.071
-112.064	-74.189	0.071	-0.026
-111.049	241.960	0.123	-0.206
-110.034	183.131	0.253	-0.373
-109.020	-200.000	-0.045	-0.264
-108.005	-9.711	0.264	0.175
-106.991	57.982	0.138	-0.135
-105.976	800.000	-0.115	0.347
-104.962	-200.000	0.070	0.540
-103.947	-145.622	-0.091	0.008
-102.932	165.615	0.169	-0.238
-101.918	-85.830	0.125	-0.039
-100.903	235.936	0.089	0.147
-99.889	800.000	0.059	0.179
-98.874	-73.934	0.135	0.049
-97.859	-37.297	-0.169	0.090
-96.845	-154.890	-0.443	0.029
-95.830	35.893	0.077	0.068
-94.816	-200.000	0.020	-0.368
-93.801	-77.460	0.265	-0.092
-92.786	89.501	0.076	-0.085
-91.772	84.542	-0.087	0.095
-90.757	195.576	-0.071	-0.107
-89.743	40.913	0.181	0.163
-88.728	113.199	-0.071	-0.086
-87.713	99.271	-0.167	-0.192
-86.699	216.935	-0.278	-0.441
-85.684	-200.000	-0.015	0.223
-84.670	-14.185	-0.200	0.129
-83.655	-105.708	-0.170	-0.038
-82.640	-200.000	-0.006	0.176
-81.626	-62.237	0.254	-0.106
-80.611	8.189	-0.300	0.225
-79.597	542.757	0.095	-0.225
-78.582	-200.000	0.050	0.295
-77.567	-1.813	-0.153	0.108
-76.553	93.087	-0.165	0.186
-75.538	800.000	0.025	0.087
-74.524	-200.000	-0.016	-0.125
-73.509	-200.000	0.003	0.039
-72.494	119.813	0.125	0.154
-71.480	114.776	0.141	-0.171
-70.465	-200.000	0.001	0.164
-69.451	450.206	-0.108	0.237
-68.436	-200.000	0.038	-0.212
-67.422	-92.098	-0.204	0.057
-66.407	-80.008	0.033	-0.011
-65.392	165.333	-0.090	0.127
-64.378	-200.000	0.067	0.665
-63.363	421.549	-0.040	-0.084
-62.349	-200.000	-0.012	0.194
-61.334	18.877	-0.990	-0.790
-60.319	392.444	0.282	0.585
-59.305	-200.000	-0.018	-0.890
-58.290	118.753	0.320	0.394
-57.276	545.160	0.797	1.896
-56.261	-200.000	76.346	510.109
-55.246	503.038	1345.701	3098.615
-54.232	144.023	2584.663	3432.939
-53.217	114.277	2257.698	2736.832
-52.203	50.288	1781.731	1676.327
-51.188	43.208	1581.648	1437.801
-50.173	40.640	1551.002	1391.905
-49.159	56.693	1587.838	1538.899
-48.144	62.217	1607.853	1597.328
-47.130	43.799	1571.665	1432.680
-46.115	40.238	1557.277	1394.482
-45.100	40.050	1553.953	1390.130
-44.086	40.011	1551.884	1387.944
-43.071	39.930	1549.787	1385.445
-42.057	39.904	1547.641	1383.293
-41.042	39.947	1545.927	1382.005
-40.027	39.901	1544.803	1380.624
-39.013	39.933	1542.600	1378.826
-37.998	40.024	1541.224	1378.175
-36.984	39.941	1540.857	1377.214
-35.969	39.953	1539.578	1376.100
-34.954	39.916	1538.289	1374.633
-33.940	39.791	1536.929	1372.496
-32.925	39.986	1534.989	1372.066
-31.911	40.005	1533.685	1370.976
-30.896	40.091	1531.932	1369.947
-29.881	40.029	1530.977	1368.611
-28.867	40.077	1529.709	1367.758
-27.852	40.064	1528.033	1366.117
-26.838	40.048	1526.665	1364.725
-25.823	40.011	1525.205	1363.111
-24.809	40.091	1523.131	1361.755
-23.794	39.991	1522.159	1360.143
-22.779	40.082	1520.471	1359.207
-21.765	39.996	1519.905	1358.058
-20.750	40.046	1518.570	1357.153
-19.736	40.069	1516.960	1355.819
-18.721	40.073	1515.811	1354.767
-17.706	39.980	1515.038	1353.383
-16.692	39.888	1513.975	1351.752
-15.677	39.956	1512.843	1351.153
-14.663	39.952	1511.924	1350.245
-13.648	39.945	1510.325	1348.717
-12.633	39.915	1509.770	1347.965
-11.619	39.860	1509.620	1347.405
-10.604	39.945	1508.234	1346.690
-9.590	39.886	1507.192	1345.308
-8.575	39.905	1506.420	1344.695
-7.560	39.939	1504.806	1343.428
-6.546	39.962	1504.323	1343.101
-5.531	39.834	1503.846	1341.755
-4.517	39.878	1502.443	1340.743
-3.502	39.963	1501.080	1340.053
-2.487	39.901	1500.354	1338.930
-1.473	40.016	1499.429	1338.832
-0.458	39.973	1498.141	1337.336
0.556	40.306	1488.930	1327.717
1.571	37.867	1461.382	1286.959
2.586	33.955	1398.166	1206.411
3.600	32.072	1313.191	1121.752
4.615	30.171	1263.976	1068.672
5.629	25.211	1204.625	991.079
6.644	13.366	1111.023	853.256
7.659	3.798	1063.843	769.499
8.673	2.348	1057.512	757.675
9.688	2.121	1054.115	754.055
10.702	1.830	1052.511	751.404
11.717	1.802	1051.093	750.191
12.731	5.344	1055.389	770.678
13.746	16.285	1071.421	836.823
14.761	24.399	1081.925	885.391
15.775	25.420	1082.191	890.597
16.790	25.502	1081.518	890.367
17.804	25.449	1080.279	889.009
18.819	25.138	1080.226	887.347
19.834	25.285	1079.272	887.209
20.848	25.442	1078.548	887.310
21.863	25.426	1078.437	887.064
22.877	25.413	1078.250	886.768
23.892	25.339	1077.668	885.844
24.907	25.278	1076.851	884.797
25.921	25.292	1076.248	884.288
26.936	25.370	1075.021	883.586
27.950	25.277	1073.813	882.057
28.965	25.358	1072.487	881.287
29.980	25.010	1071.741	878.891
30.994	25.180	1069.829	878.078
32.009	25.320	1069.594	878.492
33.023	25.425	1068.796	878.272
34.038	25.257	1067.607	876.397
35.053	25.182	1066.793	875.285
36.067	25.388	1066.212	875.735
37.082	25.361	1065.438	874.889
38.096	25.345	1064.868	874.266
39.111	25.597	1064.096	874.783
40.126	25.689	1063.300	874.496
41.140	25.594	1061.814	872.738
42.155	25.266	1060.510	870.000
43.169	24.939	1059.185	867.253
44.184	24.889	1058.487	866.361
45.199	25.057	1057.173	866.019
46.213	24.896	1056.661	864.747
47.228	24.925	1055.664	863.994
48.242	25.028	1054.882	863.775
49.257	25.180	1054.206	863.879
50.271	25.149	1053.552	863.115
51.286	25.289	1052.939	863.210
52.301	25.408	1052.020	862.954
53.315	25.450	1051.304	862.491
54.330	25.372	1050.216	861.149
55.344	25.263	1049.873	860.268
56.359	25.273	1048.844	859.394
57.374	25.330	1047.500	858.490
58.388	24.999	1047.211	856.597
59.403	25.027	1046.352	855.953
60.417	25.104	1045.696	855.709
61.432	24.882	1045.087	854.071
62.447	24.892	1044.141	853.272
63.461	25.119	1043.530	853.778
64.476	25.008	1043.176	852.887
65.490	24.987	1042.135	851.857
66.505	24.970	1040.699	850.528
67.520	24.951	1040.264	850.010
68.534	25.216	1039.185	850.305
69.549	24.979	1038.580	848.616
70.563	24.692	1037.172	846.029
71.578	24.584	1036.187	844.641
72.593	24.444	1036.183	843.903
73.607	24.367	1034.933	842.446
74.622	24.472	1033.364	841.588
75.636	24.811	1032.388	842.316
76.651	24.777	1032.245	841.966
77.666	24.739	1031.228	840.882
78.680	24.667	1030.780	840.102
79.695	24.527	1030.138	838.850
80.709	24.780	1029.289	839.268
81.724	24.949	1028.628	839.447
82.739	24.865	1027.685	838.215
83.753	24.902	1026.563	837.395
84.768	25.164	1026.125	838.189
85.782	25.457	1025.818	839.233
86.797	25.701	1025.248	839.832
87.812	25.677	1024.230	838.812
88.826	25.313	1023.519	836.458
89.841	25.445	1022.177	835.902
90.855	25.567	1021.815	836.099
91.870	25.654	1020.849	835.639
92.884	25.718	1019.859	835.053
93.899	25.473	1019.139	833.254
94.914	25.295	1017.981	831.407
95.928	25.511	1017.431	831.887
96.943	25.487	1016.990	831.338
97.957	25.247	1015.687	829.092
98.972	25.140	1014.444	827.510
99.987	24.923	1013.211	825.430
101.001	24.802	1013.401	824.957
102.016	25.319	1012.621	826.627
103.030	25.304	1011.688	825.726
104.045	25.126	1010.814	824.122
105.060	25.046	1009.615	822.701
106.074	24.950	1008.154	820.998
107.089	24.863	1007.529	820.021
108.103	25.342	1007.594	822.193
109.118	25.275	1006.643	821.039
110.133	25.071	1005.190	818.849
111.147	24.881	1004.814	817.600
112.162	24.856	1003.279	816.165
113.176	24.679	1002.069	814.305
114.191	24.705	1001.394	813.804
115.206	24.933	1000.591	814.113
116.220	24.754	999.466	812.313
117.235	24.499	998.494	810.296
118.249	24.731	997.815	810.723
119.264	24.708	997.018	809.899
120.279	24.693	995.930	808.877
121.293	24.649	995.534	808.285
122.308	24.583	995.312	807.734
123.322	24.579	994.013	806.593
124.337	24.591	993.128	805.857
125.352	24.556	991.761	804.516
126.366	24.280	989.938	801.725
127.381	23.836	988.624	798.599
128.395	24.370	988.552	800.868
129.410	25.017	988.324	803.513
130.424	25.106	987.325	803.028
131.439	25.037	986.917	802.319
132.454	25.068	985.784	801.462
133.468	25.317	984.086	801.123
134.483	25.109	983.983	800.041
135.497	25.150	983.284	799.585
136.512	25.434	982.664	800.274
137.527	25.447	982.172	799.861
138.541	25.451	981.108	798.942
139.556	25.438	980.505	798.324
140.570	25.479	979.453	797.576
141.585	25.420	979.012	796.886
142.600	25.583	978.220	796.893
143.614	25.548	977.013	795.686
144.629	25.536	976.544	795.179
145.643	25.764	976.062	795.723
146.658	25.631	975.058	794.247
147.673	25.512	973.536	792.412
148.687	25.354	972.377	790.704
149.702	25.319	971.290	789.596
150.716	25.117	970.581	788.061
151.731	25.179	969.890	787.705
152.746	25.360	968.829	787.568
153.760	25.335	968.427	787.060
154.775	25.552	967.671	787.328
155.789	25.641	966.618	786.790
156.804	25.543	965.998	785.786
157.819	25.413	965.006	784.343
158.833	25.564	963.711	783.880
159.848	25.703	963.555	784.287
160.862	25.716	962.632	783.525
161.877	25.612	961.738	782.276
162.892	25.526	960.565	780.880
163.906	25.631	959.747	780.601
164.921	25.596	958.700	779.525
165.935	25.599	957.720	778.674
166.950	25.467	956.973	777.429
167.964	25.624	955.989	777.239
168.979	25.563	955.022	776.120
169.994	25.396	953.774	774.317
171.008	25.295	952.761	772.990
172.023	25.278	952.669	772.776
173.037	25.474	952.036	773.038
174.052	25.498	950.411	771.753
175.067	25.312	949.536	770.177
176.081	25.165	948.814	768.892
177.096	25.241	947.759	768.295
178.110	25.401	947.002	768.298
179.125	25.103	946.448	766.504
180.140	24.915	944.694	764.215
181.154	24.910	944.082	763.629
182.169	25.087	943.879	764.154
183.183	25.232	943.952	764.764
184.198	25.623	943.446	765.950
185.213	25.459	942.410	764.343
186.227	25.389	941.876	763.545
187.242	25.429	941.261	763.147
188.256	25.602	940.756	763.409
189.271	25.594	940.021	762.708
190.286	25.686	938.944	762.159
191.300	25.498	938.276	760.753
192.315	24.912	936.710	756.938
193.329	24.174	935.211	752.542
194.344	23.735	934.180	749.796
195.359	24.334	934.866	752.807
196.373	25.332	934.902	756.979
197.388	25.519	934.609	757.465
198.402	25.360	934.355	756.521
199.417	25.438	933.732	756.279
200.432	25.419	933.121	755.636
201.446	25.426	931.996	754.689
202.461	24.986	931.320	752.228
203.475	25.101	930.650	752.103
204.490	24.752	929.353	749.523
205.504	23.529	927.385	742.756
206.519	23.906	927.297	744.197
207.534	24.667	928.336	748.149
208.548	25.009	927.013	748.446
209.563	25.323	926.678	749.419
210.577	25.342	926.092	748.960
211.592	25.152	925.199	747.381
212.607	25.522	925.371	748.995
213.621	25.753	924.831	749.454
214.636	25.447	924.253	747.644
215.650	25.613	923.100	747.337
216.665	25.568	922.785	746.829
217.680	25.543	922.506	746.432
218.694	25.748	921.842	746.678
219.709	25.420	920.936	744.519
220.723	25.026	919.723	741.841
221.738	25.059	919.677	741.878
222.753	25.314	919.000	742.319
223.767	25.189	918.736	741.523
224.782	25.385	917.794	741.506
225.796	25.562	917.185	741.679
226.811	25.701	916.685	741.781
227.826	25.348	915.707	739.474
228.840	24.374	913.950	733.982
229.855	24.375	913.106	733.243
230.869	24.722	912.433	734.062
231.884	24.411	911.846	732.251
232.899	24.318	911.530	731.550
233.913	25.136	911.807	735.061
234.928	25.281	911.193	735.097
235.942	25.244	910.302	734.164
236.957	25.273	909.714	733.743
237.972	25.018	908.569	731.712
238.986	24.925	907.991	730.800
240.001	25.138	907.482	731.195
241.015	25.165	906.682	730.597
242.030	25.105	906.102	729.822
243.045	25.307	906.071	730.551
244.059	25.314	905.415	729.988
245.074	25.537	905.168	730.629
246.088	25.552	904.130	729.789
247.103	25.199	903.465	727.755
248.117	25.119	902.644	726.704
249.132	25.605	902.724	728.676
250.147	26.007	902.595	730.135
251.161	26.020	902.264	729.854
252.176	26.293	901.456	730.238
253.190	26.205	900.821	729.306
254.205	26.228	900.536	729.103
255.220	26.468	900.163	729.704
256.234	26.466	899.179	728.834
257.249	26.198	898.888	727.453
258.263	26.105	898.612	726.793
259.278	26.237	897.602	726.442
260.293	26.360	896.869	726.279
261.307	26.435	896.434	726.165
262.322	26.323	895.705	725.062
263.336	26.093	895.192	723.658
264.351	25.700	893.743	720.851
265.366	24.651	891.760	714.994
266.380	24.162	890.984	712.351
267.395	25.040	891.238	716.002
268.409	25.870	891.310	719.309
269.424	25.629	891.024	718.053
270.439	25.793	890.317	718.075
271.453	26.081	889.491	718.490
272.468	25.963	889.143	717.676
273.482	26.235	888.279	718.000
274.497	26.401	888.239	718.562
275.512	26.249	886.819	716.749
276.526	25.572	885.666	713.067
277.541	25.826	885.432	713.825
278.555	26.242	884.903	714.979
279.570	25.925	884.359	713.225
280.585	25.791	883.907	712.266
281.599	25.818	883.432	711.927
282.614	25.944	882.694	711.767
283.628	25.627	881.405	709.413
284.643	25.174	881.180	707.385
285.657	25.653	880.613	708.754
286.672	25.388	880.209	707.322
287.687	25.036	878.726	704.684
288.701	25.423	878.860	706.251
289.716	25.735	878.866	707.420
290.730	25.472	877.643	705.341
291.745	25.443	876.912	704.579
292.760	25.073	876.281	702.556
293.774	25.061	875.289	701.655
294.789	25.859	876.499	705.688
295.803	26.692	876.337	708.754
296.818	26.633	875.676	707.928
297.833	26.700	875.608	708.072
298.847	26.518	873.874	705.898
299.862	26.138	872.547	703.281
300.876	26.325	872.433	703.859
301.891	26.611	872.195	704.717
302.906	26.619	871.975	704.506
303.920	26.287	870.408	701.889
304.935	26.233	869.535	700.913
305.949	26.575	869.550	702.189
306.964	26.576	869.846	702.371
307.979	26.376	868.604	700.532
308.993	26.281	868.096	699.692
310.008	26.552	867.868	700.496
311.022	26.894	867.427	701.398
312.037	26.625	866.685	699.698
313.052	26.343	865.986	697.984
314.066	26.322	865.081	697.111
315.081	25.674	863.680	693.425
316.095	24.759	862.544	688.930
317.110	25.292	862.862	691.174
318.125	26.256	862.789	694.765
319.139	25.852	862.141	692.627
320.154	24.736	860.272	686.782
321.168	24.115	859.352	683.605
322.183	24.789	859.466	686.222
323.197	25.662	860.305	690.180
324.212	26.161	859.501	691.387
325.227	26.256	859.263	691.497
326.241	26.516	858.782	692.042
327.256	26.379	858.102	690.909
328.270	26.200	857.512	689.688
329.285	26.026	857.256	688.757
330.300	25.897	856.014	687.207
331.314	25.710	855.063	685.672
332.329	25.731	854.544	685.276
333.343	26.170	854.521	686.866
334.358	26.420	854.041	687.369
335.373	26.531	853.599	687.375
336.387	26.459	853.331	686.824
337.402	26.676	852.988	687.309
338.416	26.941	852.478	687.843
339.431	26.860	851.746	686.884
340.446	27.013	851.160	686.931
341.460	27.036	851.061	686.877
342.475	27.085	850.101	686.227
343.489	26.899	849.342	684.851
344.504	26.872	848.894	684.329
345.519	27.066	848.837	684.952
346.533	27.239	848.425	685.212
347.548	27.332	848.169	685.293
348.562	27.405	847.383	684.875
349.577	27.257	847.022	683.966
350.592	27.291	845.935	683.155
351.606	27.260	845.450	682.585
352.621	27.227	845.285	682.267
353.635	27.170	844.416	681.293
354.650	26.992	844.336	680.499
355.665	26.668	843.280	678.378
356.679	25.749	841.497	673.446
357.694	25.555	841.322	672.521
358.708	26.311	840.916	674.963
359.723	26.042	840.550	673.604
360.738	26.389	840.225	674.577
361.752	26.804	840.146	676.004
362.767	26.966	839.946	676.388
363.781	27.179	839.865	677.053
364.796	27.449	839.828	677.970
365.810	27.533	839.608	678.047
366.825	27.688	838.748	677.866
367.840	27.628	838.575	677.445
368.854	27.489	837.768	676.218
369.869	27.252	836.412	674.183
370.883	26.995	835.822	672.698
371.898	27.106	835.614	672.880
372.913	27.082	834.313	671.684
373.927	26.956	834.126	671.008
374.942	27.051	833.921	671.137
375.956	27.261	833.201	671.272
376.971	27.227	832.672	670.659
377.986	27.409	832.512	671.145
379.000	27.624	831.787	671.293
380.015	27.535	831.672	670.812
381.029	27.436	830.673	669.581
382.044	27.319	830.578	669.017
383.059	27.643	829.487	669.268
384.073	27.627	829.013	668.767
385.088	27.612	828.363	668.130
386.102	27.580	828.015	667.671
387.117	27.399	827.094	666.209
388.132	27.256	826.578	665.211
389.146	27.080	825.997	664.041
390.161	26.604	825.009	661.449
391.175	26.438	824.984	660.765
392.190	27.200	824.854	663.385
393.205	27.251	824.395	663.143
394.219	26.155	822.737	657.757
395.234	24.710	820.138	650.371
396.248	23.890	818.867	646.327
397.263	24.713	820.159	650.285
398.278	26.695	821.322	658.359
399.292	27.152	821.260	659.912
400.307	26.828	820.554	658.109
401.321	26.708	820.345	657.449
402.336	26.800	820.022	657.465
403.350	27.233	819.905	658.881
404.365	27.669	819.629	660.180
405.380	27.866	819.396	660.647
406.394	28.178	819.689	661.953
407.409	28.291	818.842	661.619
408.423	28.342	818.279	661.290
409.438	28.404	817.440	660.777
410.453	28.294	817.304	660.212
411.467	28.386	816.894	660.154
412.482	28.398	816.228	659.600
413.496	28.331	815.625	658.813
414.511	28.296	815.447	658.486
415.526	28.468	814.942	658.638
416.540	28.267	815.008	657.910
417.555	28.237	814.238	657.124
418.569	27.844	813.399	654.977
419.584	27.985	812.688	654.853
420.599	28.006	812.004	654.320
421.613	96.458	1266.755	1384.888
422.628	82.976	1333.035	1385.007
