DTS Sentinel unit serial number:	SN413079Multiplexer serial number:	ORYXHardware model number:	OX4-SRSoftware version number:	ORYX F/W v4.00 Oryx Data Collector v3.7.2.0data status	okinstallation	princeton_trtdifferential loss correction	single-endedforward channel	channel 3reverse channel	N/Adate	2019/09/15time	04:20:34forward acquisition time	60.00reverse acquisition time	0.00gamma	496.2192k internal	0.2323k external	0.2323temperature offset calibration	0.9969default loss term (dB/km)	0.3790temperature slope calibration	1.0000multiplexer offset coefficient	1.0000multiplexer slope coefficient	1.0000fibre end	0.00T internal ref (°C)	30.87T ext. ref 1 (°C)	4.62T ext. ref 2 (°C)	25.64length (m)	temperature (°C)	Stokes	anti-Stokes-747.200	-40.959	0.147	0.077
-746.185	-26.416	-0.196	0.116
-745.171	97.831	-0.078	0.091
-744.156	-1.736	-0.435	0.310
-743.142	800.000	0.037	-0.161
-742.127	-48.703	0.346	0.168
-741.112	-200.000	-0.044	0.218
-740.098	-158.649	-0.127	-0.007
-739.083	-200.000	-0.089	-0.000
-738.069	800.000	-0.136	0.424
-737.054	232.653	0.081	0.134
-736.039	-105.725	0.077	-0.018
-735.025	800.000	-0.075	-0.251
-734.010	132.947	-0.231	-0.301
-732.996	-51.956	-0.187	0.088
-731.981	57.863	-0.111	-0.110
-730.966	-33.514	0.248	0.138
-729.952	-87.023	-0.135	0.041
-728.937	-5.242	-0.312	-0.216
-727.923	-200.000	-0.067	-0.316
-726.908	-200.000	0.000	-0.014
-725.894	800.000	0.097	0.317
-724.879	341.551	-0.178	-0.350
-723.864	-51.464	-0.089	-0.042
-722.850	11.831	-0.210	-0.163
-721.835	-200.000	0.012	-0.385
-720.821	-79.793	-0.460	0.156
-719.806	-200.000	-0.008	0.107
-718.791	-45.805	0.187	0.093
-717.777	9.687	0.169	-0.129
-716.762	-148.979	-0.134	0.011
-715.748	-200.000	0.048	-0.364
-714.733	258.308	-0.115	0.201
-713.718	800.000	-0.059	0.255
-712.704	61.309	0.087	-0.087
-711.689	281.540	0.193	-0.349
-710.675	-200.000	0.039	-0.374
-709.660	-115.712	0.187	-0.035
-708.645	-117.958	-0.142	-0.026
-707.631	-66.497	0.321	-0.128
-706.616	-200.000	-0.000	0.092
-705.602	99.566	-0.144	-0.168
-704.587	800.000	-0.042	-0.133
-703.572	677.507	-0.043	-0.114
-702.558	58.225	-0.186	0.184
-701.543	168.168	-0.072	0.104
-700.529	-200.000	0.060	0.381
-699.514	-39.442	-0.064	-0.034
-698.499	123.391	0.284	0.359
-697.485	29.857	0.136	-0.117
-696.470	160.028	0.171	-0.241
-695.456	-200.000	-0.020	-0.094
-694.441	-61.212	0.374	0.159
-693.426	3.082	0.098	0.072
-692.412	60.827	-0.199	0.199
-691.397	-200.000	0.002	-0.051
-690.383	-50.553	-0.117	-0.056
-689.368	128.069	0.165	0.212
-688.354	-79.566	-0.249	0.085
-687.339	299.366	0.256	-0.475
-686.324	523.356	-0.161	0.380
-685.310	6.434	0.089	0.067
-684.295	-112.459	-0.211	-0.042
-683.281	71.386	0.107	0.112
-682.266	-112.354	0.274	-0.055
-681.251	610.441	-0.131	-0.329
-680.237	153.586	-0.102	0.141
-679.222	-134.711	-0.039	0.005
-678.208	-97.897	-0.269	-0.070
-677.193	-200.000	-0.001	-0.115
-676.178	-90.958	0.042	0.012
-675.164	-200.000	-0.010	-0.111
-674.149	-200.000	-0.021	-0.297
-673.135	-107.708	-0.146	0.032
-672.120	800.000	0.041	0.167
-671.105	211.963	0.110	0.175
-670.091	0.193	0.089	0.064
-669.076	800.000	-0.101	-0.313
-668.062	243.026	-0.155	-0.262
-667.047	-200.000	0.005	-0.074
-666.032	106.285	-0.092	-0.110
-665.018	-47.457	0.345	0.169
-664.003	800.000	-0.099	-0.330
-662.989	48.977	0.250	0.236
-661.974	-129.824	-0.231	-0.032
-660.959	800.000	0.060	0.254
-659.945	633.468	-0.027	-0.070
-658.930	-106.335	-0.215	-0.048
-657.916	10.214	-0.170	0.131
-656.901	-142.471	0.199	-0.020
-655.886	69.490	0.207	0.215
-654.872	50.048	-0.233	0.221
-653.857	215.293	-0.080	-0.128
-652.843	109.204	0.356	-0.429
-651.828	-200.000	-0.006	-0.095
-650.814	-30.029	-0.204	0.117
-649.799	93.050	0.050	0.056
-648.784	800.000	0.046	-0.138
-647.770	-42.476	0.184	-0.095
-646.755	-70.708	-0.207	0.079
-645.741	800.000	0.044	-0.143
-644.726	-40.146	-0.208	0.109
-643.711	-200.000	0.029	-0.175
-642.697	-200.000	-0.044	0.289
-641.682	-109.585	0.009	-0.002
-640.668	-29.999	-0.420	-0.241
-639.653	33.428	-0.196	-0.171
-638.638	800.000	-0.092	-0.315
-637.624	86.585	0.247	-0.274
-636.609	-200.000	0.017	-0.108
-635.595	-68.977	-0.060	-0.023
-634.580	-200.000	-0.012	0.262
-633.565	800.000	-0.078	0.332
-632.551	-12.160	-0.148	-0.097
-631.536	-162.955	0.192	0.009
-630.522	384.633	-0.050	-0.103
-629.507	30.622	-0.292	-0.251
-628.492	800.000	0.065	0.256
-627.478	144.784	-0.251	-0.337
-626.463	-39.087	-0.071	0.038
-625.449	-200.000	-0.002	-0.081
-624.434	497.012	-0.162	0.374
-623.419	800.000	0.082	-0.245
-622.405	-193.761	-0.213	0.002
-621.390	-93.879	0.079	0.022
-620.376	37.367	-0.119	0.106
-619.361	800.000	-0.017	0.075
-618.346	-74.046	-0.127	-0.046
-617.332	154.891	0.074	-0.102
-616.317	-29.696	0.058	-0.033
-615.303	522.154	0.001	0.003
-614.288	83.799	0.085	-0.094
-613.273	170.346	-0.102	-0.146
-612.259	-55.718	-0.210	-0.094
-611.244	-96.251	0.203	0.054
-610.230	730.518	-0.100	-0.268
-609.215	-70.029	-0.260	-0.099
-608.201	-200.000	-0.037	-0.299
-607.186	-200.000	-0.033	0.252
-606.171	-200.000	-0.029	0.130
-605.157	-32.758	-0.203	0.113
-604.142	52.023	0.072	0.069
-603.128	-34.747	-0.223	0.123
-602.113	2.717	-0.218	0.159
-601.098	-106.013	-0.142	-0.032
-600.084	-200.000	0.002	-0.154
-599.069	622.662	0.046	0.116
-598.055	102.571	0.357	0.420
-597.040	-41.156	-0.007	0.004
-596.025	-43.901	-0.111	-0.056
-595.011	-200.000	0.019	0.228
-593.996	225.646	0.190	-0.309
-592.982	269.717	-0.137	0.242
-591.967	-200.000	-0.001	0.228
-590.952	-95.518	-0.134	-0.036
-589.938	-112.765	-0.138	-0.028
-588.923	-27.585	-0.259	-0.151
-587.909	-183.704	0.261	0.004
-586.894	-200.000	-0.008	-0.260
-585.879	-200.000	0.019	-0.240
-584.865	38.954	-0.135	-0.121
-583.850	-194.053	-0.068	-0.001
-582.836	335.521	-0.075	0.146
-581.821	672.836	0.089	-0.231
-580.806	696.807	-0.066	0.173
-579.792	-200.000	0.005	-0.157
-578.777	-122.020	-0.188	0.031
-577.763	-116.548	0.207	0.038
-576.748	-200.000	-0.011	-0.054
-575.733	151.956	-0.180	-0.246
-574.719	50.005	-0.369	0.349
-573.704	468.719	-0.112	-0.253
-572.690	127.605	0.091	-0.115
-571.675	-200.000	-0.029	0.196
-570.661	-112.055	0.371	-0.075
-569.646	-9.012	-0.245	-0.165
-568.631	-170.831	0.182	0.006
-567.617	61.528	-0.044	0.044
-566.602	-200.000	0.081	0.533
-565.588	-200.000	0.031	0.283
-564.573	-154.770	0.235	0.016
-563.558	31.805	-0.166	-0.144
-562.544	-200.000	-0.002	0.148
-561.529	-199.640	0.311	-0.002
-560.515	-200.000	-0.004	-0.022
-559.500	7.877	-0.303	0.228
-558.485	75.190	0.119	0.126
-557.471	-67.345	0.307	0.121
-556.456	-61.714	0.147	-0.062
-555.442	-52.084	0.208	-0.097
-554.427	-57.213	0.217	-0.096
-553.412	-3.124	-0.123	0.086
-552.398	150.592	-0.290	-0.395
-551.383	-67.194	0.212	-0.084
-550.369	127.820	-0.031	0.040
-549.354	255.988	0.112	0.193
-548.339	-54.311	-0.152	0.069
-547.325	177.460	0.085	-0.125
-546.310	800.000	-0.040	0.148
-545.296	-200.000	-0.015	0.126
-544.281	-150.764	-0.090	0.007
-543.266	106.521	-0.192	-0.228
-542.252	-200.000	-0.003	0.134
-541.237	70.380	0.067	0.069
-540.223	39.622	0.132	0.118
-539.208	-151.914	-0.241	0.018
-538.193	27.641	-0.107	0.091
-537.179	-200.000	0.040	-0.680
-536.164	610.906	0.106	-0.265
-535.150	175.809	0.049	-0.072
-534.135	46.378	-0.120	0.111
-533.121	-74.303	-0.207	0.075
-532.106	800.000	0.089	-0.263
-531.091	-86.185	-0.053	0.016
-530.077	135.865	-0.241	0.314
-529.062	-83.979	-0.134	0.043
-528.048	171.806	-0.149	0.214
-527.033	-34.601	-0.161	0.088
-526.018	800.000	-0.025	0.071
-525.004	-200.000	-0.011	-0.089
-523.989	135.653	-0.260	0.339
-522.975	-200.000	0.010	0.062
-521.960	-44.161	0.220	-0.111
-520.945	-51.138	-0.129	-0.060
-519.931	-89.787	0.110	0.032
-518.916	16.425	0.238	-0.188
-517.902	-176.276	-0.231	-0.006
-516.887	-38.592	0.338	-0.179
-515.872	681.869	0.174	-0.455
-514.858	589.395	0.110	0.272
-513.843	800.000	-0.059	-0.169
-512.829	-13.658	-0.435	-0.282
-511.814	-200.000	0.056	-0.278
-510.799	9.298	-0.117	-0.088
-509.785	125.626	-0.210	-0.265
-508.770	-169.415	-0.320	0.012
-507.756	800.000	0.078	0.256
-506.741	-6.360	-0.325	0.222
-505.726	-152.824	-0.211	-0.015
-504.712	13.071	-0.048	-0.037
-503.697	39.769	0.170	0.153
-502.683	122.417	0.106	-0.132
-501.668	-126.462	-0.141	0.021
-500.653	800.000	0.113	0.432
-499.639	799.753	0.071	-0.197
-498.624	800.000	-0.021	0.089
-497.610	-200.000	-0.026	-0.126
-496.595	-110.656	-0.062	0.013
-495.581	221.052	-0.134	-0.215
-494.566	55.565	0.073	-0.070
-493.551	-53.776	0.243	0.111
-492.537	71.361	-0.219	-0.227
-491.522	517.520	0.138	-0.322
-490.508	150.221	-0.250	-0.340
-489.493	-110.743	-0.405	0.084
-488.478	523.492	0.088	-0.207
-487.464	160.750	-0.149	-0.208
-486.449	429.804	-0.130	0.281
-485.435	76.347	0.173	0.183
-484.420	34.815	-0.114	-0.099
-483.405	215.790	0.108	0.171
-482.391	196.927	0.247	-0.376
-481.376	-200.000	-0.047	0.350
-480.362	168.723	-0.075	-0.107
-479.347	84.142	-0.118	0.129
-478.332	198.514	0.211	0.322
-477.318	89.688	0.350	-0.390
-476.303	62.915	0.018	0.018
-475.289	155.691	-0.109	0.150
-474.274	297.944	-0.094	0.173
-473.259	-75.742	0.286	-0.102
-472.245	-107.844	-0.292	-0.063
-471.230	392.546	-0.091	0.189
-470.216	-200.000	-0.036	0.254
-469.201	-105.452	0.292	-0.066
-468.186	-100.231	-0.311	0.077
-467.172	-145.061	-0.181	0.016
-466.157	178.382	-0.117	0.171
-465.143	81.781	0.224	-0.243
-464.128	-89.679	0.042	-0.012
-463.113	-89.920	0.101	-0.029
-462.099	30.979	-0.105	-0.090
-461.084	-78.679	-0.188	0.064
-460.070	800.000	0.037	0.131
-459.055	-106.770	-0.188	-0.042
-458.040	-40.909	0.215	0.111
-457.026	213.009	-0.041	0.064
-456.011	193.085	0.109	-0.165
-454.997	7.481	-0.403	-0.301
-453.982	800.000	-0.047	0.165
-452.968	212.925	0.149	-0.235
-451.953	142.021	0.109	-0.145
-450.938	22.788	-0.207	-0.169
-449.924	-5.431	0.168	-0.115
-448.909	-92.232	0.254	-0.071
-447.895	-200.000	0.001	-0.344
-446.880	800.000	-0.062	0.176
-445.865	210.499	0.057	0.089
-444.851	235.016	-0.165	-0.272
-443.836	-80.155	0.398	0.133
-442.822	-38.620	-0.130	-0.069
-441.807	555.819	0.113	0.273
-440.792	-24.483	0.342	0.203
-439.778	391.832	-0.051	-0.105
-438.763	-200.000	0.006	-0.201
-437.749	174.038	0.203	0.293
-436.734	188.509	-0.168	0.251
-435.719	113.199	0.236	-0.285
-434.705	-115.644	0.346	-0.065
-433.690	-192.230	-0.175	0.002
-432.676	-56.283	-0.262	-0.116
-431.661	-148.550	-0.196	-0.016
-430.646	-96.331	0.309	-0.082
-429.632	71.992	0.097	0.101
-428.617	-200.000	0.001	-0.075
-427.603	-47.079	-0.187	-0.091
-426.588	178.512	-0.058	-0.084
-425.573	-17.519	0.185	0.116
-424.559	42.248	-0.096	0.087
-423.544	113.104	0.125	0.152
-422.530	221.175	-0.062	0.099
-421.515	-73.461	0.066	0.024
-420.500	8.823	0.148	0.112
-419.486	800.000	0.022	-0.077
-418.471	-15.798	-0.080	0.051
-417.457	-200.000	0.038	0.190
-416.442	308.279	0.057	0.106
-415.428	-45.101	-0.353	0.175
-414.413	608.890	0.088	-0.220
-413.398	128.427	0.145	0.184
-412.384	-28.867	0.152	0.087
-411.369	-72.946	0.058	0.021
-410.355	22.937	-0.182	-0.149
-409.340	16.418	0.251	-0.198
-408.325	-180.682	0.267	-0.005
-407.311	16.271	0.172	-0.135
-406.296	-200.000	-0.019	-0.083
-405.282	-171.883	-0.320	0.010
-404.267	149.398	0.366	-0.494
-403.252	57.357	-0.265	-0.258
-402.238	-47.986	-0.244	-0.118
-401.223	77.318	-0.044	-0.047
-400.209	800.000	0.027	0.109
-399.194	78.924	-0.272	0.290
-398.179	95.598	-0.231	0.263
-397.165	-165.536	0.127	0.006
-396.150	-200.000	-0.001	-0.121
-395.136	403.427	0.139	0.292
-394.121	561.281	0.074	0.178
-393.106	168.364	-0.130	-0.184
-392.092	92.133	0.271	-0.305
-391.077	-156.744	0.278	0.017
-390.063	10.951	-0.047	-0.036
-389.048	-29.385	-0.251	-0.143
-388.033	-89.129	0.442	-0.130
-387.019	434.762	0.186	-0.403
-386.004	216.186	0.048	0.076
-384.990	-200.000	-0.036	0.256
-383.975	-61.814	0.224	0.093
-382.960	-164.403	0.394	-0.018
-381.946	124.743	-0.056	-0.070
-380.931	800.000	0.139	0.467
-379.917	76.346	-0.199	0.210
-378.902	-84.224	0.038	0.012
-377.888	800.000	0.028	-0.114
-376.873	800.000	-0.040	-0.113
-375.858	800.000	0.048	-0.170
-374.844	-9.817	0.009	0.006
-373.829	74.640	0.228	-0.238
-372.815	191.018	-0.219	0.328
-371.800	28.584	-0.327	0.275
-370.785	-45.242	-0.164	0.081
-369.771	-139.166	-0.178	-0.019
-368.756	-172.869	0.298	0.009
-367.742	800.000	-0.187	0.601
-366.727	-200.000	-0.099	-0.439
-365.712	800.000	0.056	-0.199
-364.698	2.124	-0.002	-0.001
-363.683	-10.169	-0.350	0.232
-362.669	-63.417	0.314	0.128
-361.654	6.599	0.062	0.046
-360.639	800.000	0.069	0.262
-359.625	-36.260	-0.066	0.035
-358.610	195.003	0.136	-0.205
-357.596	45.848	0.097	-0.090
-356.581	800.000	0.067	-0.195
-355.566	-200.000	0.000	-0.076
-354.552	-200.000	0.045	0.316
-353.537	-41.876	0.277	0.141
-352.523	-90.639	0.136	0.039
-351.508	-47.640	0.102	-0.049
-350.493	-109.263	0.024	-0.005
-349.479	107.523	0.177	-0.210
-348.464	201.008	-0.142	-0.218
-347.450	223.303	0.138	0.221
-346.435	151.622	0.064	0.087
-345.420	60.623	0.035	-0.035
-344.406	-122.966	-0.338	0.054
-343.391	-200.000	0.016	-0.342
-342.377	-94.039	0.028	-0.008
-341.362	-5.616	0.157	-0.107
-340.348	-153.341	0.249	0.017
-339.333	212.540	-0.106	-0.166
-338.318	-31.032	-0.176	0.099
-337.304	-66.729	0.240	-0.094
-336.289	4.613	0.247	0.180
-335.275	800.000	0.037	0.106
-334.260	666.946	0.067	0.173
-333.245	218.631	0.083	0.132
-332.231	32.851	0.157	0.135
-331.216	130.170	0.115	-0.146
-330.202	39.371	-0.127	-0.113
-329.187	-188.224	-0.326	-0.004
-328.172	800.000	-0.065	-0.241
-327.158	-200.000	-0.020	-0.160
-326.143	-85.866	-0.393	-0.121
-325.129	-200.000	0.045	-0.292
-324.114	151.918	-0.092	-0.125
-323.099	-148.678	0.092	0.007
-322.085	8.453	-0.160	-0.119
-321.070	-34.488	0.315	0.171
-320.056	87.725	0.285	0.313
-319.041	-200.000	-0.037	0.327
-318.026	110.276	0.047	-0.056
-317.012	800.000	0.102	0.425
-315.997	-200.000	-0.025	-0.156
-314.983	6.223	0.066	-0.049
-313.968	-135.625	-0.177	-0.021
-312.953	-135.991	0.228	0.027
-311.939	148.267	0.178	-0.239
-310.924	-200.000	0.007	-0.076
-309.910	-148.869	-0.180	0.014
-308.895	264.725	0.049	-0.084
-307.880	-162.351	0.289	0.014
-306.866	-89.103	-0.174	0.051
-305.851	394.018	0.043	-0.088
-304.837	16.556	-0.065	0.051
-303.822	-200.000	0.007	0.299
-302.807	4.104	0.131	0.095
-301.793	55.349	-0.175	0.168
-300.778	-6.277	-0.106	0.072
-299.764	-38.958	0.322	-0.168
-298.749	-107.106	-0.053	-0.012
-297.735	2.216	0.435	-0.312
-296.720	265.806	0.156	0.271
-295.705	-200.000	0.009	-0.400
-294.691	-75.570	0.031	0.011
-293.676	41.706	-0.071	-0.064
-292.662	100.819	-0.039	0.045
-291.647	-197.349	-0.138	-0.001
-290.632	-138.459	0.169	0.018
-289.618	113.992	-0.097	-0.117
-288.603	-200.000	0.079	-0.526
-287.589	196.494	-0.196	0.296
-286.574	800.000	0.071	-0.281
-285.559	-200.000	0.022	-0.109
-284.545	39.350	0.069	0.061
-283.530	82.156	-0.264	0.284
-282.516	-57.176	-0.257	0.112
-281.501	-154.956	-0.234	0.015
-280.486	800.000	0.023	0.079
-279.472	-200.000	0.054	0.350
-278.457	-83.041	-0.054	0.017
-277.443	-7.347	0.210	-0.141
-276.428	63.558	0.229	0.228
-275.413	800.000	0.062	-0.216
-274.399	800.000	-0.053	0.155
-273.384	195.220	0.108	0.162
-272.370	130.051	-0.267	0.339
-271.355	-92.485	0.054	0.015
-270.340	-200.000	-0.043	-0.218
-269.326	-106.702	-0.328	-0.072
-268.311	109.200	-0.084	0.100
-267.297	289.420	0.114	0.205
-266.282	140.981	-0.088	0.115
-265.267	82.603	0.160	-0.172
-264.253	-57.374	0.062	0.027
-263.238	63.148	0.042	0.042
-262.224	800.000	-0.079	-0.259
-261.209	800.000	0.051	0.207
-260.195	75.733	-0.127	0.133
-259.180	800.000	0.030	-0.131
-258.165	-108.324	0.204	0.044
-257.151	800.000	-0.063	-0.187
-256.136	-38.897	-0.134	-0.070
-255.122	715.662	0.041	-0.109
-254.107	-50.838	0.239	0.111
-253.092	800.000	0.032	-0.123
-252.078	28.778	-0.212	-0.178
-251.063	261.987	0.077	-0.133
-250.049	-123.654	-0.400	0.063
-249.034	-105.207	-0.465	-0.105
-248.019	-200.000	-0.011	-0.052
-247.005	188.121	0.232	-0.344
-245.990	-19.797	-0.119	0.073
-244.976	-87.441	-0.172	0.052
-243.961	-39.917	-0.186	0.096
-242.946	-113.066	0.134	0.026
-241.932	-94.748	-0.357	-0.096
-240.917	2.747	0.056	0.040
-239.903	800.000	-0.130	0.381
-238.888	800.000	0.073	-0.252
-237.873	-27.368	-0.283	0.163
-236.859	177.138	-0.086	0.124
-235.844	-43.628	-0.014	-0.007
-234.830	-8.483	0.415	0.276
-233.815	-200.000	-0.010	-0.070
-232.800	800.000	-0.034	-0.144
-231.786	-200.000	0.018	0.095
-230.771	138.893	0.165	0.214
-229.757	-61.121	0.390	-0.163
-228.742	-200.000	-0.023	0.193
-227.727	-87.541	-0.114	-0.034
-226.713	100.981	-0.080	0.092
-225.698	-157.567	0.127	-0.008
-224.684	54.662	-0.085	-0.081
-223.669	-200.000	0.008	0.508
-222.655	-6.364	0.177	-0.120
-221.640	96.045	-0.058	0.066
-220.625	-20.610	-0.349	0.212
-219.611	206.053	0.142	0.219
-218.596	-200.000	0.017	0.215
-217.582	54.592	-0.234	-0.224
-216.567	-108.168	0.272	0.058
-215.552	-60.834	0.217	-0.091
-214.538	-157.742	0.195	0.011
-213.523	-34.861	0.172	0.093
-212.509	-200.000	0.011	-0.181
-211.494	-34.113	-0.237	-0.129
-210.479	176.962	-0.073	0.106
-209.465	-84.230	0.350	-0.110
-208.450	-92.073	-0.153	0.043
-207.436	9.821	0.092	0.069
-206.421	-23.024	0.093	-0.055
-205.406	-176.102	-0.414	-0.011
-204.392	232.313	-0.058	-0.095
-203.377	-135.222	0.161	-0.019
-202.363	-200.000	0.039	0.464
-201.348	362.533	-0.101	0.199
-200.333	-84.687	-0.113	0.035
-199.319	366.953	0.210	0.420
-198.304	-200.000	0.021	0.122
-197.290	-200.000	-0.038	-0.343
-196.275	-200.000	0.029	-0.160
-195.260	-55.455	-0.113	-0.050
-194.246	274.776	-0.028	0.050
-193.231	178.764	-0.168	0.243
-192.217	-58.589	-0.245	-0.105
-191.202	57.804	-0.139	-0.134
-190.187	-200.000	0.022	-0.133
-189.173	93.988	0.196	-0.219
-188.158	39.922	0.294	0.261
-187.144	-44.863	-0.073	0.036
-186.129	676.890	0.114	-0.292
-185.114	-65.945	0.383	-0.151
-184.100	9.341	0.165	-0.124
-183.085	-200.000	-0.042	0.277
-182.071	-13.722	-0.234	-0.150
-181.056	443.804	-0.133	0.288
-180.042	230.201	-0.064	-0.104
-179.027	500.959	-0.093	-0.212
-178.012	-200.000	0.015	0.108
-176.998	-90.721	0.256	0.073
-175.983	-200.000	-0.010	0.254
-174.969	-158.246	0.169	-0.010
-173.954	-105.025	0.189	0.043
-172.939	-171.201	-0.068	0.002
-171.925	-64.404	-0.235	-0.094
-170.910	530.504	-0.056	0.131
-169.896	716.241	0.126	0.331
-168.881	77.478	-0.172	-0.181
-167.866	-126.441	-0.131	0.019
-166.852	44.458	0.116	-0.105
-165.837	-64.520	0.385	0.154
-164.823	157.124	0.124	0.169
-163.808	-200.000	0.018	0.122
-162.793	-37.748	0.302	0.159
-161.779	-200.000	0.012	0.176
-160.764	-106.596	-0.093	-0.020
-159.750	-3.875	0.137	-0.094
-158.735	10.882	0.219	0.165
-157.720	-53.810	0.214	0.097
-156.706	-200.000	-0.013	0.100
-155.691	-13.370	0.247	0.158
-154.677	-53.200	-0.191	-0.087
-153.662	645.148	0.196	-0.493
-152.647	318.495	0.144	-0.269
-151.633	75.005	-0.110	0.114
-150.618	800.000	0.035	-0.110
-149.604	800.000	-0.043	-0.128
-148.589	-200.000	0.012	-0.409
-147.574	-4.833	-0.083	-0.056
-146.560	-200.000	-0.025	-0.206
-145.545	-110.752	-0.289	0.059
-144.531	-200.000	0.062	-0.330
-143.516	-200.000	-0.013	0.072
-142.502	-14.836	-0.281	0.178
-141.487	800.000	-0.020	-0.086
-140.472	-26.900	-0.198	-0.114
-139.458	54.704	0.209	-0.199
-138.443	-37.980	-0.110	0.058
-137.429	125.264	0.269	-0.334
-136.414	88.894	-0.106	0.116
-135.399	147.696	-0.105	-0.140
-134.385	-96.122	-0.116	-0.030
-133.370	-42.490	-0.400	0.201
-132.356	-158.068	-0.169	0.010
-131.341	-200.000	0.049	-0.309
-130.326	-200.000	0.007	-0.218
-129.312	-153.330	-0.185	-0.013
-128.297	-200.000	-0.047	-0.591
-127.283	16.166	0.394	-0.306
-126.268	800.000	-0.042	0.141
-125.253	-13.672	-0.141	-0.090
-124.239	-36.600	-0.059	-0.031
-123.224	-200.000	-0.064	0.348
-122.210	23.377	0.129	0.105
-121.195	-200.000	-0.020	0.199
-120.180	-117.302	-0.636	0.114
-119.166	-93.896	-0.044	0.012
-118.151	124.635	-0.114	-0.142
-117.137	1.471	-0.251	0.178
-116.122	-121.264	-0.312	-0.051
-115.107	800.000	0.024	-0.071
-114.093	-200.000	0.069	0.554
-113.078	143.151	-0.112	0.147
-112.064	569.354	-0.138	-0.331
-111.049	800.000	0.048	-0.191
-110.034	800.000	-0.040	-0.110
-109.020	-99.816	0.132	0.033
-108.005	-117.707	0.271	0.048
-106.991	-79.468	-0.200	0.067
-105.976	192.675	0.092	-0.137
-104.962	-52.198	0.178	0.081
-103.947	66.996	-0.105	0.105
-102.932	-200.000	0.011	-0.167
-101.918	383.511	-0.040	-0.082
-100.903	69.409	0.140	0.142
-99.889	-98.818	0.271	-0.068
-98.874	478.899	0.057	0.127
-97.859	-200.000	0.088	0.426
-96.845	-61.107	0.334	0.139
-95.830	275.674	0.111	-0.193
-94.816	-60.720	0.128	-0.053
-93.801	35.087	-0.386	0.333
-92.786	-135.449	0.317	-0.037
-91.772	-14.269	-0.203	0.129
-90.757	3.288	-0.110	0.079
-89.743	-156.082	0.103	0.006
-88.728	-200.000	-0.025	0.116
-87.713	-112.442	0.138	0.027
-86.699	-200.000	-0.024	-0.136
-85.684	-155.093	0.122	0.008
-84.670	800.000	0.105	-0.384
-83.655	-82.749	-0.142	0.045
-82.640	-30.739	-0.097	0.054
-81.626	-6.892	-0.089	-0.060
-80.611	121.785	-0.067	0.082
-79.597	-90.812	-0.257	0.073
-78.582	10.297	0.196	-0.146
-77.567	800.000	0.025	0.092
-76.553	-158.058	0.165	0.010
-75.538	-200.000	0.022	0.361
-74.524	-148.513	-0.491	0.039
-73.509	166.573	-0.282	0.393
-72.494	-77.071	-0.140	0.048
-71.480	-167.415	0.405	-0.016
-70.465	-78.835	-0.210	-0.071
-69.451	464.905	-0.070	0.154
-68.436	670.448	0.121	-0.309
-67.422	107.940	-0.303	0.355
-66.407	90.609	0.030	-0.033
-65.392	173.732	0.083	0.117
-64.378	426.251	-0.028	0.059
-63.363	-200.000	-0.027	0.229
-62.349	-107.026	-0.202	0.044
-61.334	51.407	-0.983	-0.918
-60.319	165.961	0.585	0.814
-59.305	667.671	-0.475	-1.207
-58.290	176.265	0.671	0.958
-57.276	491.509	0.703	1.583
-56.261	-200.000	102.168	594.680
-55.246	563.353	1421.421	3383.555
-54.232	189.719	2605.674	3842.323
-53.217	116.051	2163.940	2604.806
-52.203	41.555	1697.132	1510.622
-51.188	34.079	1506.882	1290.741
-50.173	31.649	1479.749	1251.234
-49.159	51.376	1532.503	1430.582
-48.144	52.730	1550.584	1456.627
-47.130	34.323	1507.951	1293.106
-46.115	31.115	1493.071	1258.697
-45.100	30.907	1490.150	1254.785
-44.086	30.972	1487.386	1252.843
-43.071	30.886	1485.394	1250.536
-42.057	30.845	1484.079	1249.104
-41.042	30.845	1482.748	1247.934
-40.027	30.790	1481.513	1246.475
-39.013	30.790	1479.902	1245.076
-37.998	30.775	1478.288	1243.563
-36.984	30.877	1477.315	1243.377
-35.969	30.920	1475.603	1242.175
-34.954	30.870	1474.509	1240.869
-33.940	30.900	1473.049	1239.794
-32.925	30.858	1471.677	1238.311
-31.911	30.884	1470.089	1237.098
-30.896	30.844	1469.380	1236.190
-29.881	30.901	1468.389	1235.685
-28.867	30.902	1466.764	1234.273
-27.852	30.912	1465.433	1233.172
-26.838	30.977	1463.836	1232.206
-25.823	30.997	1461.994	1230.738
-24.809	30.941	1461.055	1229.529
-23.794	31.038	1458.647	1228.092
-22.779	30.898	1458.389	1226.909
-21.765	30.870	1457.161	1225.641
-20.750	30.914	1455.890	1224.813
-19.736	30.881	1455.152	1223.924
-18.721	30.887	1453.848	1222.820
-17.706	30.920	1452.656	1221.985
-16.692	30.884	1451.743	1220.934
-15.677	30.773	1450.957	1219.495
-14.663	30.871	1449.747	1219.069
-13.648	30.816	1448.558	1217.661
-12.633	30.941	1447.479	1217.524
-11.619	30.946	1446.996	1217.101
-10.604	30.931	1445.742	1215.902
-9.590	30.810	1445.176	1214.587
-8.575	30.874	1444.259	1214.186
-7.560	30.858	1443.282	1213.216
-6.546	30.796	1442.582	1212.174
-5.531	30.740	1442.203	1211.439
-4.517	30.674	1441.055	1210.001
-3.502	30.785	1440.170	1209.931
-2.487	30.815	1438.961	1209.063
-1.473	30.760	1437.709	1207.608
-0.458	30.798	1436.515	1206.800
0.556	29.458	1427.020	1195.739
1.571	26.615	1401.861	1156.427
2.586	23.238	1343.244	1087.275
3.600	21.647	1262.653	1012.755
4.615	20.227	1217.459	968.497
5.629	17.698	1161.414	910.346
6.644	10.777	1079.727	811.771
7.659	5.318	1042.425	757.259
8.673	4.813	1036.554	750.496
9.688	4.663	1034.236	748.027
10.702	4.506	1032.587	746.017
11.717	4.499	1030.638	744.509
12.731	6.453	1032.161	754.913
13.746	13.112	1040.904	793.326
14.761	18.056	1046.901	821.653
15.775	18.210	1046.391	821.923
16.790	17.277	1044.414	815.820
17.804	16.338	1042.071	809.421
18.819	15.303	1040.312	803.030
19.834	14.941	1038.844	800.093
20.848	14.745	1037.486	798.040
21.863	14.541	1036.829	796.490
22.877	14.153	1036.452	794.274
23.892	13.914	1036.113	792.808
24.907	13.983	1034.752	792.023
25.921	13.857	1034.402	791.087
26.936	13.942	1033.356	790.619
27.950	13.932	1032.735	790.024
28.965	13.995	1031.397	789.233
29.980	14.037	1030.448	788.637
30.994	14.097	1029.193	787.890
32.009	14.221	1027.998	787.490
33.023	14.134	1027.441	786.585
34.038	14.324	1026.270	786.513
35.053	14.209	1025.813	785.553
36.067	14.262	1024.733	784.906
37.082	14.080	1023.727	783.210
38.096	14.108	1022.960	782.687
39.111	14.144	1022.589	782.500
40.126	14.213	1021.383	781.832
41.140	14.029	1020.584	780.288
42.155	13.931	1019.382	778.842
43.169	13.925	1018.387	777.984
44.184	13.736	1017.730	776.528
45.199	13.765	1016.506	775.662
46.213	13.860	1015.225	775.061
47.228	13.888	1014.094	774.256
48.242	14.035	1012.812	773.896
49.257	13.967	1012.792	773.493
50.271	13.972	1011.603	772.540
51.286	14.063	1010.754	772.248
52.301	14.057	1010.046	771.609
53.315	14.027	1009.222	770.772
54.330	14.116	1008.179	770.322
55.344	13.977	1007.286	768.926
56.359	14.006	1006.361	768.286
57.374	14.011	1005.454	767.551
58.388	14.051	1004.553	766.979
59.403	13.880	1003.648	765.429
60.417	13.870	1002.964	764.798
61.432	13.908	1002.172	764.301
62.447	13.891	1001.221	763.430
63.461	13.775	1000.706	762.434
64.476	13.602	999.812	760.892
65.490	13.606	999.047	760.263
66.505	13.811	998.131	760.437
67.520	13.780	997.687	759.889
68.534	13.791	996.454	758.931
69.549	13.737	996.204	758.426
70.563	13.907	995.270	758.427
71.578	13.732	994.726	757.146
72.593	13.816	993.322	756.393
73.607	13.670	992.758	755.229
74.622	13.649	991.822	754.356
75.636	13.583	990.930	753.311
76.651	13.721	990.064	753.214
77.666	13.765	989.394	752.836
78.680	13.644	988.807	751.773
79.695	13.686	988.599	751.743
80.709	13.754	988.000	751.527
81.724	13.928	986.655	751.224
82.739	13.920	985.893	750.542
83.753	13.875	985.279	749.806
84.768	14.136	984.306	750.174
85.782	14.033	984.227	749.582
86.797	14.186	983.404	749.581
87.812	14.204	982.609	748.987
88.826	14.079	981.690	747.661
89.841	14.071	980.910	746.964
90.855	14.132	980.037	746.508
91.870	14.120	979.417	745.914
92.884	14.186	978.606	745.525
93.899	14.074	978.205	744.654
94.914	14.216	977.126	744.399
95.928	14.253	976.499	744.022
96.943	14.197	975.892	743.243
97.957	14.362	974.505	742.861
98.972	14.181	974.249	741.792
99.987	14.072	973.622	740.760
101.001	14.136	972.721	740.295
102.016	14.049	972.163	739.417
103.030	14.086	971.130	738.733
104.045	14.185	969.807	738.099
105.060	14.018	969.397	736.984
106.074	14.108	967.887	736.168
107.089	14.047	966.678	734.912
108.103	13.870	966.171	733.680
109.118	13.770	965.301	732.513
110.133	13.929	964.526	732.560
111.147	13.853	963.751	731.572
112.162	13.750	962.848	730.369
113.176	13.808	962.090	729.986
114.191	13.854	961.386	729.590
115.206	14.018	960.252	729.384
116.220	13.904	959.316	728.110
117.235	13.920	958.787	727.713
118.249	13.870	958.009	726.839
119.264	13.975	956.930	726.416
120.279	13.866	956.028	725.191
121.293	13.913	955.344	724.813
122.308	13.801	954.266	723.444
123.322	13.911	953.522	723.292
124.337	13.830	952.353	721.991
125.352	13.756	951.570	721.012
126.366	13.808	950.600	720.437
127.381	13.602	949.823	718.890
128.395	13.826	948.922	719.115
129.410	13.853	947.721	718.259
130.424	13.761	947.015	717.264
131.439	13.790	946.037	716.585
132.454	13.969	945.467	716.861
133.468	13.796	945.002	715.700
134.483	13.817	944.250	715.158
135.497	13.938	943.530	715.071
136.512	13.910	942.928	714.429
137.527	13.893	942.102	713.667
138.541	13.933	940.907	712.873
139.556	13.902	940.591	712.436
140.570	13.859	939.472	711.339
141.585	14.045	938.392	711.255
142.600	14.046	938.385	711.193
143.614	14.211	937.144	710.894
144.629	14.136	936.589	710.089
145.643	14.279	935.769	710.016
146.658	14.214	935.205	709.245
147.673	14.193	934.147	708.293
148.687	14.081	933.268	707.088
149.702	14.035	932.138	705.971
150.716	14.036	931.179	705.190
151.731	13.928	930.583	704.216
152.746	13.916	929.764	703.485
153.760	14.079	928.896	703.455
154.775	14.058	928.262	702.824
155.789	14.286	927.362	703.042
156.804	14.048	927.254	701.894
157.819	14.168	926.088	701.455
158.833	14.338	924.913	701.217
159.848	14.304	924.716	700.865
160.862	14.345	924.190	700.575
161.877	14.332	923.629	700.033
162.892	14.088	922.809	698.325
163.906	14.050	921.617	697.204
164.921	14.091	921.035	696.873
165.935	14.074	919.990	695.949
166.950	13.984	919.040	694.791
167.964	14.204	917.834	694.737
168.979	14.121	917.189	693.840
169.994	14.293	915.873	693.502
171.008	14.172	915.167	692.400
172.023	14.154	914.562	691.810
173.037	14.256	913.547	691.401
174.052	14.368	913.103	691.469
175.067	14.451	912.406	691.227
176.081	14.162	911.738	689.459
177.096	14.136	910.606	688.435
178.110	14.084	910.402	688.006
179.125	14.216	909.277	687.639
180.140	14.251	908.502	687.137
181.154	14.095	907.910	685.986
182.169	14.254	907.331	686.144
183.183	14.139	906.941	685.313
184.198	14.408	905.873	685.552
185.213	14.354	905.852	685.253
186.227	14.376	905.053	684.678
187.242	14.508	904.591	684.812
188.256	14.445	903.918	683.984
189.271	14.491	903.068	683.466
190.286	14.569	902.416	683.234
191.300	14.488	901.446	682.107
192.315	14.266	900.735	680.602
193.329	14.280	899.583	679.726
194.344	14.287	898.825	679.124
195.359	14.291	898.570	678.885
196.373	14.282	898.287	678.575
197.388	14.413	897.913	678.767
198.402	14.394	897.923	678.639
199.417	14.514	897.455	678.712
200.432	14.588	897.002	678.612
201.446	14.645	896.495	678.397
202.461	14.783	896.046	678.558
203.475	14.914	895.509	678.624
204.490	14.830	894.507	677.463
205.504	14.597	893.878	675.984
206.519	14.747	892.776	675.697
207.534	14.677	892.036	674.794
208.548	14.726	891.481	674.512
209.563	14.577	890.676	673.242
210.577	14.548	890.199	672.708
211.592	14.697	889.634	672.821
212.607	14.676	889.460	672.543
213.621	14.740	888.821	672.258
214.636	14.799	888.051	671.856
215.650	14.694	887.051	670.618
216.665	14.691	887.105	670.588
217.680	14.744	886.295	670.128
218.694	14.993	885.484	670.455
219.709	14.866	885.156	669.639
220.723	14.856	884.598	669.115
221.738	15.007	883.568	668.881
222.753	15.006	882.951	668.352
223.767	14.815	882.646	667.296
224.782	15.023	881.588	667.267
225.796	14.933	881.179	666.540
226.811	15.142	880.410	666.732
227.826	15.120	879.633	665.997
228.840	14.982	878.657	664.653
229.855	15.134	878.251	664.890
230.869	15.111	877.224	663.961
231.884	15.034	876.778	663.259
232.899	15.040	876.037	662.666
233.913	14.997	875.313	661.889
234.928	14.910	875.019	661.264
235.942	14.960	874.105	660.710
236.957	14.878	873.544	659.904
237.972	14.943	872.919	659.632
238.986	15.006	872.461	659.474
240.001	14.893	871.736	658.425
241.015	14.987	870.769	658.004
242.030	14.944	870.684	657.712
243.045	15.062	869.799	657.449
244.059	15.117	869.429	657.328
245.074	15.141	868.223	656.454
246.088	15.218	867.817	656.387
247.103	15.044	867.657	655.527
248.117	15.289	866.665	655.680
249.132	15.316	866.445	655.561
250.147	15.278	865.972	654.998
251.161	15.465	865.169	655.060
252.176	15.501	864.221	654.424
253.190	15.553	863.701	654.174
254.205	15.551	863.527	653.976
255.220	15.592	862.579	653.361
256.234	15.510	862.178	652.680
257.249	15.602	861.116	652.175
258.263	15.579	861.029	651.963
259.278	15.553	860.325	651.271
260.293	15.550	859.792	650.800
261.307	15.645	859.429	650.837
262.322	15.643	858.863	650.340
263.336	15.693	857.795	649.669
264.351	15.796	857.286	649.625
265.366	15.725	856.903	649.002
266.380	15.843	856.286	648.932
267.395	15.739	855.732	648.053
268.409	15.675	855.014	647.207
269.424	15.720	853.846	646.439
270.439	15.831	853.409	646.476
271.453	15.758	852.704	645.605
272.468	15.796	851.666	644.909
273.482	15.692	851.250	644.138
274.497	15.739	850.969	644.049
275.512	15.583	850.252	642.850
276.526	15.631	849.581	642.471
277.541	15.792	848.798	642.437
278.555	15.748	848.309	641.842
279.570	15.882	847.879	641.972
280.585	15.986	847.122	641.737
281.599	16.046	847.022	641.832
282.614	15.898	846.365	640.713
283.628	15.845	845.750	639.991
284.643	15.939	844.968	639.700
285.657	15.824	844.583	638.913
286.672	15.944	844.250	639.063
287.687	16.020	843.458	638.694
288.701	15.961	843.191	638.212
289.716	15.925	842.593	637.564
290.730	15.960	842.041	637.224
291.745	15.984	841.404	636.775
292.760	15.990	840.754	636.249
293.774	16.042	839.912	635.752
294.789	16.090	839.396	635.488
295.803	16.118	838.748	635.045
296.818	16.016	838.214	634.203
297.833	16.189	837.239	634.060
298.847	16.050	837.202	633.452
299.862	16.094	836.152	632.765
300.876	16.065	836.087	632.553
301.891	16.180	835.234	632.281
302.906	16.337	834.402	632.184
303.920	16.222	833.740	631.198
304.935	16.335	833.183	631.142
305.949	16.472	832.617	631.170
306.964	16.376	832.280	630.498
307.979	16.227	831.654	629.415
308.993	16.348	831.107	629.395
310.008	16.528	830.361	629.443
311.022	16.367	830.191	628.659
312.037	16.292	829.633	627.902
313.052	16.331	829.258	627.710
314.066	16.325	828.276	626.888
315.081	16.248	827.673	626.088
316.095	16.165	827.238	625.397
317.110	16.180	826.680	624.975
318.125	16.199	826.116	624.566
319.139	16.276	825.778	624.537
320.154	16.228	825.495	624.093
321.168	16.338	824.511	623.700
322.183	16.468	823.961	623.708
323.197	16.278	823.978	622.965
324.212	16.383	823.042	622.589
325.227	16.275	822.886	622.019
326.241	16.424	821.989	621.831
327.256	16.327	821.531	621.075
328.270	16.352	821.173	620.840
329.285	16.386	820.744	620.586
330.300	16.346	820.011	619.830
331.314	16.350	819.594	619.476
332.329	16.501	818.560	619.192
333.343	16.424	818.021	618.446
334.358	16.626	817.305	618.592
335.373	16.467	816.770	617.549
336.387	16.461	816.393	617.188
337.402	16.602	816.115	617.438
338.416	16.613	815.459	616.927
339.431	16.712	814.681	616.644
340.446	16.739	814.284	616.388
341.460	16.716	813.976	616.015
342.475	16.851	813.380	616.001
343.489	16.874	812.860	615.636
344.504	16.789	812.495	614.996
345.519	16.873	811.888	614.787
346.533	17.009	811.390	614.847
347.548	16.997	811.102	614.533
348.562	16.948	810.147	613.579
349.577	16.811	809.502	612.541
350.592	16.775	809.189	612.118
351.606	16.720	808.448	611.307
352.621	16.697	808.158	610.948
353.635	16.775	807.687	610.821
354.650	16.795	807.319	610.559
355.665	16.831	807.018	610.408
356.679	16.877	806.180	609.886
357.694	16.899	806.289	609.994
358.708	16.899	805.573	609.397
359.723	16.913	804.753	608.773
360.738	16.788	804.507	608.084
361.752	16.887	804.275	608.210
362.767	16.937	803.526	607.770
363.781	17.106	803.140	608.031
364.796	17.183	802.878	608.054
365.810	17.076	802.360	607.224
366.825	17.340	801.959	607.810
367.840	17.247	801.898	607.380
368.854	17.284	801.457	607.122
369.869	17.279	800.862	606.601
370.883	17.287	800.079	605.983
371.898	17.323	799.463	605.591
372.913	17.290	799.078	605.129
373.927	17.295	798.384	604.568
374.942	17.214	798.161	604.055
375.956	17.286	796.945	603.340
376.971	17.183	796.701	602.736
377.986	17.333	796.251	602.874
379.000	17.546	795.636	603.107
380.015	17.606	794.795	602.629
381.029	17.618	794.292	602.238
382.044	17.446	794.146	601.463
383.059	17.433	793.635	600.981
384.073	17.532	792.942	600.751
385.088	17.277	792.917	599.780
386.102	17.440	791.608	599.311
387.117	17.470	791.457	599.248
388.132	17.140	790.995	597.683
389.146	17.469	790.416	598.350
390.161	17.377	790.227	597.831
391.175	17.520	789.795	597.952
392.190	17.481	789.399	597.465
393.205	17.466	788.979	597.042
394.219	17.380	788.845	596.585
395.234	17.416	788.296	596.242
396.248	17.449	787.576	595.761
397.263	17.459	786.591	594.997
398.278	17.300	786.488	594.310
399.292	17.237	786.442	594.003
400.307	17.366	785.803	593.919
401.321	17.444	785.410	593.843
402.336	17.458	785.047	593.563
403.350	17.446	784.748	593.243
404.365	17.414	784.255	592.707
405.380	17.491	783.951	592.692
406.394	17.648	783.247	592.652
407.409	17.762	782.891	592.729
408.423	17.874	782.305	592.622
409.438	17.859	782.062	592.334
410.453	17.950	781.748	592.358
411.467	17.750	781.453	591.387
412.482	17.859	780.747	591.181
413.496	17.893	780.328	590.928
414.511	18.006	779.881	590.928
415.526	17.827	779.789	590.187
416.540	17.959	779.189	590.136
417.555	17.888	778.768	589.519
418.569	17.992	778.023	589.264
419.584	17.976	777.576	588.816
420.599	17.964	777.189	588.432
421.613	156.384	1369.101	1795.247
422.628	134.854	1455.341	1795.315
