DTS Sentinel unit serial number:	SN413079Multiplexer serial number:	ORYXHardware model number:	OX4-SRSoftware version number:	ORYX F/W v4.00 Oryx Data Collector v3.7.2.0data status	okinstallation	princeton_trtdifferential loss correction	single-endedforward channel	channel 3reverse channel	N/Adate	2019/09/11time	08:42:11forward acquisition time	60.00reverse acquisition time	0.00gamma	496.2192k internal	0.2312k external	0.2312temperature offset calibration	0.9938default loss term (dB/km)	0.3790temperature slope calibration	1.0000multiplexer offset coefficient	1.0000multiplexer slope coefficient	1.0000fibre end	0.00T internal ref (°C)	33.55T ext. ref 1 (°C)	0.07T ext. ref 2 (°C)	31.07length (m)	temperature (°C)	Stokes	anti-Stokes-747.200	-53.771	0.187	-0.087
-746.185	208.188	-0.217	0.345
-745.171	29.549	0.140	-0.121
-744.156	-37.378	-0.046	0.025
-743.142	-37.377	0.469	0.254
-742.127	800.000	0.024	0.075
-741.112	800.000	-0.093	0.345
-740.098	295.886	-0.145	0.269
-739.083	800.000	0.040	-0.154
-738.069	-196.080	-0.356	-0.003
-737.054	118.532	-0.051	0.064
-736.039	-65.017	0.244	-0.100
-735.025	-115.737	-0.018	0.003
-734.010	-45.157	-0.046	-0.023
-732.996	-89.397	-0.187	0.056
-731.981	-200.000	0.002	0.218
-730.966	40.688	-0.044	-0.041
-729.952	-46.860	0.210	0.104
-728.937	-135.607	-0.068	-0.008
-727.923	-110.096	0.175	-0.037
-726.908	192.371	-0.162	0.248
-725.894	-200.000	-0.035	-0.164
-724.879	171.604	-0.093	-0.135
-723.864	-200.000	0.028	0.150
-722.850	195.425	0.155	-0.239
-721.835	149.743	-0.326	-0.449
-720.821	-146.658	-0.337	0.030
-719.806	-46.367	-0.374	0.186
-718.791	335.487	-0.029	-0.057
-717.777	-129.367	0.041	-0.006
-716.762	-118.059	-0.074	0.013
-715.748	53.960	0.325	-0.317
-714.733	-191.968	-0.190	0.002
-713.718	67.746	0.052	0.054
-712.704	-73.119	0.067	0.025
-711.689	184.157	-0.040	0.060
-710.675	-69.188	-0.197	-0.077
-709.660	143.406	-0.072	-0.097
-708.645	-133.397	0.308	0.039
-707.631	-200.000	0.014	-0.189
-706.616	-126.090	-0.305	-0.046
-705.602	250.335	0.100	0.172
-704.587	244.102	0.130	0.221
-703.572	-200.000	0.004	0.093
-702.558	800.000	-0.149	-0.433
-701.543	541.607	0.085	0.205
-700.529	800.000	0.108	0.384
-699.514	312.781	-0.096	-0.183
-698.499	-123.824	0.178	-0.029
-697.485	332.124	0.069	0.135
-696.470	-200.000	-0.011	-0.073
-695.456	45.313	-0.089	0.083
-694.441	345.665	-0.071	-0.140
-693.426	26.148	0.190	-0.161
-692.412	268.983	0.156	-0.278
-691.397	447.785	-0.146	-0.326
-690.383	282.843	0.076	-0.138
-689.368	-97.090	-0.160	0.042
-688.354	-200.000	-0.004	-0.280
-687.339	-3.728	-0.222	0.156
-686.324	-110.087	-0.182	0.038
-685.310	117.123	-0.098	0.122
-684.295	14.912	0.213	0.169
-683.281	201.661	0.134	-0.208
-682.266	-134.079	0.388	-0.049
-681.251	177.525	-0.141	0.207
-680.237	158.774	-0.058	0.081
-679.222	54.048	0.147	0.143
-678.208	45.625	-0.010	0.010
-677.193	-79.330	-0.537	0.184
-676.178	800.000	0.039	0.130
-675.164	-200.000	0.043	0.214
-674.149	285.715	-0.038	0.069
-673.135	79.445	-0.070	-0.076
-672.120	-60.799	0.152	-0.065
-671.105	-121.399	0.322	-0.054
-670.091	347.934	0.058	0.115
-669.076	-200.000	0.004	-0.226
-668.062	97.318	0.164	-0.190
-667.047	800.000	0.056	-0.173
-666.032	-200.000	0.008	0.108
-665.018	-2.343	-0.215	0.153
-664.003	-19.089	-0.223	0.140
-662.989	800.000	0.017	0.068
-661.974	-108.265	-0.203	0.044
-660.959	-94.267	0.275	0.076
-659.945	-21.643	0.265	-0.163
-658.930	-200.000	0.001	-0.445
-657.916	592.964	-0.184	-0.459
-656.901	-79.476	0.308	-0.105
-655.886	-51.183	-0.297	0.141
-654.872	88.520	0.122	-0.137
-653.857	-83.261	-0.114	-0.037
-652.843	-200.000	0.052	0.235
-651.828	-200.000	-0.020	-0.174
-650.814	248.374	-0.119	-0.204
-649.799	230.472	-0.094	0.155
-648.784	-200.000	-0.009	0.266
-647.770	316.574	-0.126	-0.240
-646.755	-200.000	0.030	-0.309
-645.741	70.028	0.125	-0.131
-644.726	271.540	-0.075	0.134
-643.711	-64.767	-0.228	-0.093
-642.697	-200.000	-0.060	-0.288
-641.682	118.502	-0.135	-0.169
-640.668	800.000	-0.085	-0.293
-639.653	-200.000	-0.077	0.425
-638.638	-111.306	-0.241	-0.050
-637.624	-200.000	-0.049	-0.307
-636.609	-200.000	0.015	-0.082
-635.595	-22.774	-0.182	-0.111
-634.580	152.007	-0.146	0.201
-633.565	-90.792	0.247	0.072
-632.551	-162.696	-0.293	0.015
-631.536	-183.621	-0.072	-0.001
-630.522	-44.250	-0.220	0.112
-629.507	129.892	0.096	0.124
-628.492	-200.000	0.032	-0.143
-627.478	-95.107	0.172	-0.047
-626.463	-91.435	-0.237	0.068
-625.449	273.636	0.064	0.114
-624.434	273.978	-0.081	0.146
-623.419	145.010	0.446	0.603
-622.405	-200.000	-0.048	0.283
-621.390	-90.119	0.360	-0.106
-620.376	-55.118	-0.116	-0.053
-619.361	-200.000	0.012	-0.113
-618.346	-200.000	0.024	-0.133
-617.332	-52.102	-0.335	-0.157
-616.317	-190.338	-0.200	0.002
-615.303	365.143	0.011	-0.023
-614.288	800.000	-0.130	-0.465
-613.273	-19.376	-0.214	0.134
-612.259	105.693	-0.122	-0.146
-611.244	19.180	0.116	-0.094
-610.230	44.736	0.206	0.192
-609.215	588.633	-0.108	-0.269
-608.201	-107.583	-0.151	0.033
-607.186	343.376	0.028	0.056
-606.171	-91.713	-0.139	-0.040
-605.157	-83.298	-0.308	0.100
-604.142	-73.921	0.074	-0.027
-603.128	9.610	-0.220	-0.168
-602.113	316.528	-0.122	0.232
-601.098	296.811	-0.148	-0.274
-600.084	103.909	-0.177	-0.210
-599.069	-46.655	-0.209	0.103
-598.055	20.303	-0.315	0.256
-597.040	137.979	0.062	0.083
-596.025	291.984	0.163	0.299
-595.011	28.497	-0.303	0.259
-593.996	800.000	0.024	-0.105
-592.982	120.752	-0.077	-0.097
-591.967	800.000	-0.079	-0.294
-590.952	-50.273	-0.205	0.098
-589.938	-200.000	-0.011	0.128
-588.923	-113.392	-0.156	0.031
-587.909	164.606	-0.138	0.197
-586.894	-200.000	0.003	-0.108
-585.879	-200.000	0.008	0.150
-584.865	-91.006	0.254	-0.074
-583.850	-11.553	-0.288	-0.191
-582.836	-200.000	0.008	-0.442
-581.821	-65.311	-0.104	0.042
-580.806	336.069	-0.070	-0.138
-579.792	-200.000	-0.011	-0.050
-578.777	-80.509	0.219	-0.074
-577.763	138.789	0.093	0.124
-576.748	-109.251	0.411	-0.088
-575.733	17.478	0.144	-0.115
-574.719	464.818	0.146	-0.329
-573.704	27.227	0.132	0.112
-572.690	-113.056	0.336	-0.067
-571.675	-14.865	0.181	0.117
-570.661	128.787	0.218	-0.280
-569.646	0.371	-0.374	0.269
-568.631	204.021	-0.050	-0.077
-567.617	-105.206	0.314	-0.072
-566.602	-95.187	0.307	0.083
-565.588	48.560	-0.031	0.029
-564.573	-15.812	-0.247	-0.159
-563.558	224.167	0.155	0.253
-562.544	76.969	-0.211	0.226
-561.529	260.147	-0.144	0.250
-560.515	107.759	0.096	0.115
-559.500	40.468	-0.150	0.136
-558.485	107.948	-0.252	-0.302
-557.471	80.377	-0.127	0.138
-556.456	81.636	-0.192	-0.209
-555.442	800.000	0.131	-0.575
-554.427	-79.481	-0.211	-0.072
-553.412	8.107	0.124	-0.093
-552.398	210.930	0.190	0.301
-551.383	-12.475	-0.109	-0.072
-550.369	-3.604	-0.036	0.025
-549.354	-46.501	-0.119	-0.059
-548.339	-200.000	0.025	-0.280
-547.325	455.758	-0.192	-0.430
-546.310	-200.000	0.024	0.175
-545.296	16.566	0.222	0.176
-544.281	-200.000	0.013	-0.165
-543.266	740.473	0.046	0.124
-542.252	-86.463	0.216	-0.067
-541.237	495.924	-0.113	-0.261
-540.223	147.207	0.256	-0.346
-539.208	800.000	0.022	0.067
-538.193	77.363	-0.192	0.206
-537.179	-112.778	-0.404	-0.081
-536.164	111.075	0.120	0.145
-535.150	187.187	0.093	-0.139
-534.135	27.833	-0.456	0.387
-533.121	365.212	-0.083	-0.168
-532.106	207.765	0.243	0.381
-531.091	-41.458	0.205	0.106
-530.077	800.000	0.106	0.319
-529.062	191.403	0.062	0.094
-528.048	54.746	-0.236	-0.229
-527.033	-175.558	0.239	0.007
-526.018	-30.464	-0.403	-0.230
-525.004	-61.676	-0.102	-0.043
-523.989	9.105	0.258	0.196
-522.975	800.000	0.070	0.218
-521.960	-64.431	-0.179	-0.073
-520.945	247.243	0.186	-0.316
-519.931	-28.939	-0.302	-0.175
-518.916	624.595	-0.123	-0.312
-517.902	16.051	-0.283	-0.224
-516.887	-200.000	0.002	-0.234
-515.872	590.109	0.174	-0.432
-514.858	-119.912	-0.588	-0.102
-513.843	10.138	-0.399	-0.305
-512.829	-61.511	0.245	0.104
-511.814	-58.707	0.275	-0.120
-510.799	20.768	0.256	-0.208
-509.785	-93.530	-0.499	0.139
-508.770	-76.659	-0.188	0.066
-507.756	-58.589	-0.028	0.012
-506.741	-81.586	0.193	0.064
-505.726	10.984	-0.099	-0.076
-504.712	-99.894	0.281	0.071
-503.697	-129.004	-0.129	0.018
-502.683	-200.000	-0.019	0.251
-501.668	-55.202	0.115	0.052
-500.653	-29.932	0.328	-0.188
-499.639	511.023	0.033	-0.077
-498.624	80.507	-0.065	0.071
-497.610	420.190	0.110	-0.237
-496.595	254.675	-0.205	0.353
-495.581	-172.743	0.234	0.007
-494.566	-86.869	-0.259	0.079
-493.551	16.375	-0.053	-0.042
-492.537	-116.460	0.276	0.051
-491.522	-200.000	-0.011	-0.250
-490.508	-14.762	-0.221	0.142
-489.493	800.000	0.016	-0.058
-488.478	-6.931	-0.168	-0.115
-487.464	17.261	0.062	0.049
-486.449	242.715	0.035	-0.059
-485.435	-200.000	0.039	-0.242
-484.420	423.373	0.077	0.166
-483.405	-46.994	0.194	0.095
-482.391	79.064	-0.044	-0.047
-481.376	176.400	-0.129	0.189
-480.362	-200.000	0.019	0.103
-479.347	186.633	0.060	0.089
-478.332	-200.000	0.009	0.273
-477.318	-30.457	0.127	0.072
-476.303	180.793	-0.192	-0.283
-475.289	-65.390	0.419	-0.169
-474.274	-200.000	0.058	0.347
-473.259	237.022	0.108	-0.179
-472.245	41.381	-0.028	-0.026
-471.230	-200.000	-0.043	-0.193
-470.216	-103.178	0.478	0.113
-469.201	39.321	-0.009	0.009
-468.186	-200.000	0.006	-0.158
-467.172	-104.054	0.127	0.030
-466.157	-54.932	0.180	-0.082
-465.143	278.722	-0.098	0.176
-464.128	207.835	0.085	0.134
-463.113	-107.193	0.116	0.026
-462.099	-178.318	-0.102	-0.002
-461.084	-51.966	-0.217	0.101
-460.070	298.631	-0.067	0.123
-459.055	120.486	0.041	-0.051
-458.040	-51.644	-0.177	-0.083
-457.026	204.096	0.138	-0.214
-456.011	-86.160	-0.109	0.034
-454.997	15.534	0.242	-0.191
-453.982	2.148	0.340	0.246
-452.968	800.000	0.088	0.257
-451.953	794.852	-0.045	0.124
-450.938	-70.014	-0.296	-0.113
-449.924	-85.969	-0.189	-0.059
-448.909	121.123	-0.169	0.210
-447.895	671.922	-0.057	0.147
-446.880	-15.280	0.067	0.043
-445.865	-78.430	0.574	0.197
-444.851	-89.535	-0.193	0.057
-443.836	-200.000	-0.013	-0.147
-442.822	-112.041	0.442	0.089
-441.807	-200.000	0.007	0.060
-440.792	-54.060	0.215	-0.098
-439.778	-112.769	-0.207	-0.041
-438.763	-200.000	0.057	0.263
-437.749	800.000	0.053	-0.230
-436.734	-122.636	-0.273	0.044
-435.719	96.407	0.271	-0.311
-434.705	-200.000	0.044	0.443
-433.690	43.030	-0.039	-0.036
-432.676	-117.907	-0.217	-0.039
-431.661	800.000	-0.055	-0.159
-430.646	558.208	-0.065	-0.158
-429.632	-5.364	-0.157	-0.108
-428.617	800.000	-0.029	0.122
-427.603	-19.399	0.129	-0.080
-426.588	-46.395	-0.155	-0.076
-425.573	225.851	0.133	0.215
-424.559	800.000	-0.086	-0.341
-423.544	320.566	0.057	-0.108
-422.530	-200.000	-0.000	-0.357
-421.515	-200.000	0.035	0.241
-420.500	391.647	-0.106	-0.222
-419.486	735.984	0.099	0.266
-418.471	-100.957	-0.170	-0.042
-417.457	43.724	-0.035	-0.032
-416.442	-134.355	0.184	0.023
-415.428	-200.000	-0.003	0.059
-414.413	-95.527	-0.256	-0.069
-413.398	188.298	-0.130	-0.194
-412.384	-59.291	-0.398	0.172
-411.369	-117.076	0.225	0.041
-410.355	-200.000	-0.026	0.338
-409.340	14.675	-0.083	0.065
-408.325	-200.000	-0.009	0.049
-407.311	-136.190	0.295	-0.035
-406.296	33.796	0.115	-0.100
-405.282	612.311	-0.029	0.073
-404.267	177.923	-0.301	-0.440
-403.252	-41.229	-0.223	0.115
-402.238	142.418	0.168	0.223
-401.223	-200.000	-0.041	0.330
-400.209	-68.340	0.078	0.030
-399.194	-72.771	0.082	0.030
-398.179	800.000	-0.082	0.279
-397.165	-4.095	0.282	0.196
-396.150	-31.034	-0.631	0.356
-395.136	-1.914	0.175	0.123
-394.121	-156.549	0.003	-0.000
-393.106	-200.000	-0.024	-0.154
-392.092	42.291	0.199	-0.181
-391.077	726.747	0.078	-0.209
-390.063	17.833	-0.224	-0.178
-389.048	31.161	0.118	-0.101
-388.033	543.628	-0.030	0.072
-387.019	-40.261	0.117	-0.061
-386.004	564.010	0.047	0.114
-384.990	-200.000	0.012	-0.089
-383.975	-130.770	-0.130	0.017
-382.960	291.179	-0.035	-0.064
-381.946	634.114	-0.046	0.117
-380.931	-42.776	0.058	-0.030
-379.917	189.200	0.088	0.131
-378.902	371.411	-0.060	-0.121
-377.888	-10.012	0.232	0.154
-376.873	-178.422	-0.498	-0.012
-375.858	255.561	-0.045	0.077
-374.844	19.393	-0.217	0.175
-373.829	209.807	0.151	0.237
-372.815	-133.858	0.240	-0.030
-371.800	267.929	-0.064	-0.112
-370.785	64.722	0.297	-0.300
-369.771	-89.255	0.299	0.088
-368.756	-10.900	-0.326	-0.215
-367.742	322.159	-0.095	-0.181
-366.727	-200.000	-0.063	-0.334
-365.712	-115.446	0.278	0.052
-364.698	89.056	-0.273	0.304
-363.683	-133.130	-0.099	0.013
-362.669	255.175	-0.036	0.061
-361.654	-145.791	-0.048	0.004
-360.639	-142.956	-0.101	0.010
-359.625	-200.000	0.013	-0.294
-358.610	-13.678	-0.036	0.023
-357.596	-200.000	0.014	-0.084
-356.581	-20.480	-0.090	0.055
-355.566	-96.975	-0.404	-0.106
-354.552	40.534	-0.188	-0.169
-353.537	116.095	-0.178	0.218
-352.523	-115.311	-0.116	0.022
-351.508	34.293	-0.077	0.067
-350.493	-200.000	-0.037	0.479
-349.479	-80.299	0.054	0.018
-348.464	800.000	-0.128	-0.379
-347.450	-171.688	-0.061	-0.002
-346.435	57.513	0.188	-0.184
-345.420	-200.000	0.005	0.173
-344.406	-47.689	0.270	-0.131
-343.391	-184.130	0.273	0.005
-342.377	100.950	0.132	0.153
-341.362	411.547	0.088	-0.187
-340.348	-200.000	-0.024	0.324
-339.333	156.578	0.118	0.162
-338.318	-0.750	0.062	-0.044
-337.304	800.000	-0.061	0.244
-336.289	509.233	-0.036	0.082
-335.275	-200.000	0.043	0.429
-334.260	-98.421	0.146	0.037
-333.245	-52.591	-0.141	0.065
-332.231	456.332	-0.119	-0.265
-331.216	800.000	-0.058	-0.162
-330.202	-131.503	0.375	-0.049
-329.187	-99.396	0.113	-0.029
-328.172	-58.105	-0.268	0.117
-327.158	-52.199	0.224	-0.104
-326.143	-200.000	0.067	-0.352
-325.129	800.000	-0.087	0.315
-324.114	800.000	-0.031	-0.090
-323.099	-167.011	-0.315	0.013
-322.085	-127.259	-0.364	0.053
-321.070	-28.868	0.210	0.120
-320.056	-117.592	-0.369	-0.066
-319.041	-144.119	-0.163	-0.015
-318.026	-33.816	-0.354	-0.195
-317.012	212.003	-0.164	0.258
-315.997	-200.000	0.009	-0.370
-314.983	189.904	-0.054	0.081
-313.968	381.576	-0.070	-0.143
-312.953	206.595	0.094	0.146
-311.939	800.000	0.071	-0.216
-310.924	800.000	0.052	0.170
-309.910	-16.162	0.253	-0.160
-308.895	-105.114	-0.143	-0.033
-307.880	-156.767	0.179	-0.011
-306.866	-43.943	0.375	-0.188
-305.851	-200.000	0.009	0.427
-304.837	36.364	0.135	-0.119
-303.822	800.000	0.081	-0.270
-302.807	101.059	-0.062	0.072
-301.793	-29.258	0.191	0.109
-300.778	-145.946	-0.320	-0.028
-299.764	-156.858	0.360	0.022
-298.749	339.332	-0.164	-0.319
-297.735	191.051	-0.070	0.106
-296.720	800.000	-0.158	-0.519
-295.705	62.378	0.046	-0.046
-294.691	-102.254	-0.008	-0.002
-293.676	-83.194	0.159	-0.051
-292.662	432.974	-0.097	-0.209
-291.647	68.109	0.128	-0.130
-290.632	-35.271	0.009	-0.005
-289.618	-16.677	-0.161	0.102
-288.603	-67.267	0.387	-0.152
-287.589	-120.280	0.406	-0.069
-286.574	-200.000	-0.026	0.208
-285.559	-25.908	-0.109	0.064
-284.545	-5.818	-0.076	-0.052
-283.530	-159.880	-0.247	-0.014
-282.516	-23.218	-0.182	0.109
-281.501	-200.000	-0.019	0.253
-280.486	244.341	0.021	0.036
-279.472	136.289	0.157	0.204
-278.457	62.780	-0.117	-0.117
-277.443	6.479	0.158	0.117
-276.428	23.035	0.070	0.057
-275.413	-115.263	-0.087	-0.016
-274.399	-95.333	-0.241	-0.065
-273.384	-77.312	0.075	-0.026
-272.370	97.474	0.263	0.301
-271.355	92.582	-0.073	0.083
-270.340	-131.344	-0.031	0.004
-269.326	-200.000	-0.027	0.196
-268.311	-200.000	-0.029	-0.282
-267.297	165.574	-0.128	-0.180
-266.282	30.993	0.120	-0.103
-265.267	-200.000	-0.013	0.273
-264.253	-200.000	-0.006	0.139
-263.238	800.000	-0.081	0.226
-262.224	-29.312	0.062	-0.036
-261.209	-85.691	-0.234	-0.072
-260.195	52.190	0.132	0.126
-259.180	800.000	-0.082	0.266
-258.165	-153.387	-0.082	-0.006
-257.151	14.268	0.386	0.299
-256.136	-2.341	0.099	0.069
-255.122	-34.432	0.229	-0.125
-254.107	-152.471	0.350	-0.025
-253.092	621.482	-0.037	-0.093
-252.078	34.351	-0.189	0.164
-251.063	57.864	-0.146	0.142
-250.049	-175.784	0.253	0.007
-249.034	-200.000	0.038	-0.290
-248.019	5.557	-0.195	-0.143
-247.005	4.109	-0.196	0.142
-245.990	220.999	0.298	0.476
-244.976	-139.117	0.455	0.049
-243.961	126.026	-0.295	0.372
-242.946	-70.373	0.234	0.088
-241.932	15.237	-0.075	0.059
-240.917	-115.535	-0.187	-0.035
-239.903	-38.554	0.313	-0.165
-238.888	119.202	-0.077	0.094
-237.873	-172.464	0.181	-0.006
-236.859	24.729	0.197	-0.162
-235.844	39.195	-0.156	-0.139
-234.830	583.300	0.087	0.212
-233.815	-69.913	0.399	0.151
-232.800	338.158	0.089	0.173
-231.786	-200.000	0.045	0.323
-230.771	21.521	-0.120	-0.097
-229.757	-3.593	0.144	-0.100
-228.742	-73.669	0.272	-0.099
-227.727	6.208	0.275	0.203
-226.713	800.000	-0.052	-0.200
-225.698	374.244	-0.070	0.141
-224.684	-142.199	0.369	0.036
-223.669	-200.000	0.027	0.425
-222.655	200.915	-0.184	0.282
-221.640	800.000	-0.071	-0.208
-220.625	-200.000	-0.017	0.196
-219.611	259.591	0.102	-0.174
-218.596	110.792	-0.133	0.160
-217.582	-164.974	-0.266	-0.012
-216.567	-50.598	0.225	0.105
-215.552	403.125	-0.069	0.145
-214.538	800.000	0.067	0.187
-213.523	-200.000	0.025	0.160
-212.509	-123.218	-0.185	0.029
-211.494	-133.977	0.275	0.034
-210.479	-190.013	-0.385	0.004
-209.465	-191.310	0.140	0.001
-208.450	-200.000	-0.006	0.141
-207.436	72.713	0.139	0.144
-206.421	14.382	-0.245	-0.190
-205.406	-200.000	-0.028	-0.182
-204.392	-106.941	-0.161	0.035
-203.377	-100.297	0.040	0.010
-202.363	708.375	-0.030	-0.080
-201.348	-112.136	0.165	-0.033
-200.333	21.694	-0.112	-0.091
-199.319	-49.826	0.323	-0.152
-198.304	-181.738	0.488	0.009
-197.290	-146.255	0.235	-0.021
-196.275	143.617	0.161	-0.214
-195.260	756.150	0.049	0.131
-194.246	-200.000	-0.035	0.154
-193.231	-3.195	-0.377	0.261
-192.217	-200.000	-0.031	-0.400
-191.202	208.985	0.135	-0.209
-190.187	101.104	-0.214	-0.247
-189.173	-200.000	-0.063	0.287
-188.158	-109.494	-0.289	0.061
-187.144	-200.000	-0.024	-0.200
-186.129	800.000	0.036	-0.138
-185.114	89.884	0.130	0.145
-184.100	35.023	0.171	0.148
-183.085	-107.865	0.249	-0.054
-182.071	-200.000	0.042	-0.327
-181.056	178.430	-0.065	0.093
-180.042	316.484	0.087	-0.164
-179.027	-200.000	0.020	-0.189
-178.012	513.679	-0.128	-0.297
-176.998	-200.000	-0.007	-0.318
-175.983	-150.756	0.126	0.009
-174.969	270.093	0.134	-0.234
-173.954	-84.861	-0.093	0.029
-172.939	800.000	0.031	-0.118
-171.925	31.289	-0.024	0.020
-170.910	77.318	0.071	-0.075
-169.896	800.000	-0.050	0.177
-168.881	67.736	0.113	0.115
-167.866	19.018	-0.070	-0.056
-166.852	-156.816	0.242	0.015
-165.837	-99.693	0.285	0.071
-164.823	20.315	0.211	0.169
-163.808	253.325	0.023	0.039
-162.793	-53.499	-0.149	0.068
-161.779	-122.616	0.153	0.025
-160.764	70.179	-0.083	0.085
-159.750	575.946	-0.045	-0.108
-158.735	-81.363	-0.323	0.106
-157.720	90.978	0.220	-0.245
-156.706	-192.620	-0.252	0.002
-155.691	-200.000	0.009	-0.059
-154.677	-128.469	0.250	0.035
-153.662	-61.118	0.535	0.224
-152.647	74.552	-0.130	0.136
-151.633	42.379	0.153	0.138
-150.618	-128.210	0.099	0.014
-149.604	-13.318	-0.059	-0.038
-148.589	800.000	-0.045	-0.186
-147.574	156.340	0.266	-0.364
-146.560	34.270	0.356	-0.308
-145.545	-200.000	0.010	-0.067
-144.531	-74.928	-0.208	0.074
-143.516	439.980	-0.063	0.135
-142.502	-166.931	0.079	0.003
-141.487	139.253	-0.124	0.162
-140.472	800.000	-0.122	-0.356
-139.458	-200.000	-0.003	0.202
-138.443	82.879	0.171	-0.185
-137.429	-158.341	-0.224	0.013
-136.414	111.966	0.017	0.020
-135.399	-200.000	-0.027	0.121
-134.385	-37.356	0.119	-0.063
-133.370	-163.083	0.242	0.012
-132.356	-38.578	0.234	-0.122
-131.341	-122.953	0.206	0.033
-130.326	-60.131	-0.092	-0.039
-129.312	-110.233	-0.383	-0.079
-128.297	29.894	-0.132	-0.111
-127.283	-200.000	-0.025	-0.113
-126.268	16.363	0.156	-0.122
-125.253	53.986	-0.163	0.155
-124.239	-55.828	-0.268	-0.119
-123.224	-189.616	0.157	-0.002
-122.210	-117.814	0.211	-0.038
-121.195	67.987	0.097	-0.099
-120.180	800.000	0.067	-0.206
-119.166	251.453	0.065	-0.110
-118.151	-171.528	-0.128	-0.004
-117.137	-200.000	0.074	0.692
-116.122	-200.000	0.003	0.158
-115.107	-200.000	-0.041	-0.562
-114.093	-115.894	0.141	-0.026
-113.078	-200.000	0.013	-0.157
-112.064	600.218	0.057	-0.141
-111.049	608.868	-0.012	-0.030
-110.034	800.000	-0.109	-0.433
-109.020	18.435	-0.158	0.125
-108.005	-114.036	-0.224	0.043
-106.991	112.502	-0.064	-0.077
-105.976	248.146	0.321	0.538
-104.962	-129.002	0.107	0.015
-103.947	605.156	0.090	-0.221
-102.932	-144.175	-0.221	-0.020
-101.918	-200.000	-0.029	0.000
-100.903	800.000	-0.088	-0.254
-99.889	561.067	0.022	-0.052
-98.874	-200.000	-0.021	0.153
-97.859	-172.106	-0.165	0.005
-96.845	112.220	-0.220	-0.263
-95.830	186.473	-0.144	0.211
-94.816	-90.402	-0.280	0.080
-93.801	800.000	0.080	-0.272
-92.786	295.125	-0.117	0.212
-91.772	-200.000	-0.069	0.450
-90.757	170.588	-0.195	-0.276
-89.743	-22.604	0.059	0.035
-88.728	-129.868	0.131	-0.018
-87.713	423.119	-0.186	0.395
-86.699	-63.195	0.176	0.072
-85.684	-200.000	0.001	-0.246
-84.670	14.913	0.066	0.051
-83.655	101.543	0.185	-0.214
-82.640	4.534	0.330	-0.240
-81.626	50.547	-0.198	0.185
-80.611	-200.000	0.076	-0.435
-79.597	367.974	0.087	0.174
-78.582	-178.977	0.167	-0.004
-77.567	-116.168	-0.382	0.070
-76.553	800.000	0.083	0.294
-75.538	114.902	-0.394	-0.476
-74.524	-200.000	0.002	0.028
-73.509	-200.000	-0.068	-0.428
-72.494	-82.990	0.187	0.060
-71.480	-88.376	-0.372	0.110
-70.465	-131.704	0.146	-0.019
-69.451	-75.466	0.128	0.045
-68.436	-47.263	0.069	-0.033
-67.422	-200.000	-0.028	-0.181
-66.407	201.902	0.079	-0.120
-65.392	-24.822	0.218	0.128
-64.378	39.101	-0.311	-0.275
-63.363	-169.806	0.290	0.010
-62.349	-6.052	0.325	-0.219
-61.334	142.801	-0.934	-1.227
-60.319	262.620	0.433	0.742
-59.305	400.311	-0.337	-0.699
-58.290	11.420	0.703	0.532
-57.276	-200.000	0.343	1.734
-56.261	-200.000	99.824	590.160
-55.246	613.190	1420.804	3512.892
-54.232	180.305	2650.748	3840.348
-53.217	118.459	2219.545	2705.167
-52.203	44.191	1747.729	1583.426
-51.188	36.739	1558.619	1359.924
-50.173	34.335	1531.939	1319.961
-49.159	53.542	1584.493	1501.064
-48.144	56.712	1601.902	1539.812
-47.130	37.086	1556.713	1360.481
-46.115	33.822	1541.458	1324.377
-45.100	33.679	1537.714	1320.113
-44.086	33.715	1535.623	1318.518
-43.071	33.533	1534.220	1315.998
-42.057	33.571	1532.425	1314.667
-41.042	33.606	1531.200	1313.807
-40.027	33.589	1530.023	1312.630
-39.013	33.616	1527.924	1310.960
-37.998	33.480	1527.261	1309.404
-36.984	33.485	1525.869	1308.190
-35.969	33.545	1524.412	1307.306
-34.954	33.590	1523.203	1306.524
-33.940	33.466	1522.155	1304.717
-32.925	33.523	1520.532	1303.672
-31.911	33.568	1519.106	1302.707
-30.896	33.642	1517.848	1302.084
-29.881	33.616	1516.588	1300.767
-28.867	33.598	1514.919	1299.162
-27.852	33.655	1513.931	1298.656
-26.838	33.591	1512.462	1296.907
-25.823	33.604	1510.438	1295.207
-24.809	33.596	1508.799	1293.699
-23.794	33.512	1507.691	1292.125
-22.779	33.607	1506.563	1291.750
-21.765	33.571	1505.522	1290.566
-20.750	33.577	1504.112	1289.342
-19.736	33.630	1502.993	1288.695
-18.721	33.542	1502.152	1287.321
-17.706	33.484	1500.972	1285.867
-16.692	33.551	1499.652	1285.139
-15.677	33.527	1498.703	1284.115
-14.663	33.543	1497.745	1283.347
-13.648	33.552	1496.400	1282.207
-12.633	33.534	1495.649	1281.394
-11.619	33.529	1495.156	1280.880
-10.604	33.567	1493.963	1280.067
-9.590	33.601	1492.498	1278.990
-8.575	33.528	1492.424	1278.384
-7.560	33.538	1491.210	1277.362
-6.546	33.508	1490.289	1276.318
-5.531	33.351	1489.815	1274.807
-4.517	33.372	1488.655	1273.904
-3.502	33.441	1487.447	1273.282
-2.487	33.488	1486.258	1272.533
-1.473	33.412	1485.943	1271.701
-0.458	33.594	1484.072	1271.271
0.556	31.868	1475.402	1262.061
1.571	29.469	1449.305	1223.747
2.586	26.595	1388.635	1154.125
3.600	25.128	1307.328	1077.642
4.615	23.695	1261.566	1031.509
5.629	19.342	1202.251	958.776
6.644	8.833	1112.426	832.710
7.659	1.213	1069.068	762.015
8.673	0.258	1063.325	753.081
9.688	0.016	1060.069	749.505
10.702	-0.055	1058.795	748.183
11.717	0.052	1056.520	747.042
12.731	3.401	1060.808	766.686
13.746	13.232	1074.916	826.169
14.761	20.465	1083.736	869.191
15.775	21.696	1085.542	876.730
16.790	21.797	1085.511	877.132
17.804	21.679	1084.458	875.610
18.819	21.580	1083.446	874.225
19.834	21.737	1082.526	874.188
20.848	21.784	1082.490	874.314
21.863	21.748	1081.944	873.616
22.877	21.883	1081.089	873.521
23.892	21.815	1080.893	872.949
24.907	21.700	1079.964	871.550
25.921	21.759	1079.191	871.140
26.936	21.711	1078.840	870.542
27.950	21.624	1077.529	868.974
28.965	21.797	1076.064	868.573
29.980	21.589	1074.703	866.371
30.994	21.644	1072.885	865.101
32.009	21.756	1072.092	864.934
33.023	21.836	1071.922	865.118
34.038	21.586	1070.448	862.621
35.053	21.580	1069.622	861.847
36.067	21.758	1069.054	862.190
37.082	21.691	1068.464	861.309
38.096	21.795	1067.552	861.006
39.111	21.942	1067.040	861.240
40.126	22.060	1065.812	860.750
41.140	21.954	1064.591	859.170
42.155	21.688	1062.953	856.471
43.169	21.381	1061.353	853.609
44.184	21.335	1060.917	852.957
45.199	21.500	1059.744	852.743
46.213	21.537	1058.189	851.599
47.228	21.285	1057.737	849.931
48.242	21.486	1056.726	850.020
49.257	21.651	1056.150	850.281
50.271	21.760	1054.519	849.422
51.286	21.726	1054.243	848.962
52.301	21.796	1053.752	848.827
53.315	21.828	1052.914	848.231
54.330	21.781	1052.056	847.240
55.344	21.697	1051.209	846.078
56.359	21.689	1050.705	845.557
57.374	21.807	1049.566	845.134
58.388	21.544	1048.591	843.011
59.403	21.494	1048.152	842.339
60.417	21.624	1047.183	842.113
61.432	21.314	1046.608	840.085
62.447	21.360	1045.475	839.326
63.461	21.445	1045.161	839.406
64.476	21.489	1044.165	838.740
65.490	21.531	1042.735	837.722
66.505	21.528	1041.917	836.974
67.520	21.503	1041.186	836.195
68.534	21.543	1040.837	836.028
69.549	21.544	1039.281	834.713
70.563	21.090	1038.045	831.481
71.578	21.116	1037.344	830.971
72.593	21.062	1036.705	830.127
73.607	21.061	1035.437	829.035
74.622	20.942	1034.572	827.702
75.636	21.231	1033.988	828.536
76.651	21.320	1033.233	828.279
77.666	21.316	1032.193	827.353
78.680	21.164	1031.276	825.826
79.695	21.191	1030.433	825.204
80.709	21.230	1030.052	825.009
81.724	21.345	1029.566	825.091
82.739	21.336	1028.233	823.908
83.753	21.296	1027.496	823.057
84.768	21.452	1027.073	823.379
85.782	21.995	1026.165	825.129
86.797	22.076	1025.496	824.901
87.812	22.045	1024.618	823.974
88.826	21.829	1023.670	822.129
89.841	21.859	1022.696	821.416
90.855	21.895	1021.914	820.880
91.870	21.990	1020.953	820.482
92.884	22.023	1020.104	819.878
93.899	21.779	1019.698	818.343
94.914	21.746	1018.577	817.217
95.928	21.861	1018.151	817.339
96.943	22.007	1017.028	817.043
97.957	21.711	1015.630	814.473
98.972	21.412	1014.673	812.243
99.987	21.165	1013.684	810.236
101.001	21.360	1012.709	810.286
102.016	21.545	1013.001	811.306
103.030	21.863	1011.310	811.351
104.045	21.650	1010.519	809.663
105.060	21.297	1009.771	807.358
106.074	21.330	1008.101	806.103
107.089	21.364	1007.473	805.686
108.103	21.758	1006.854	806.934
109.118	21.832	1006.212	806.692
110.133	21.524	1005.296	804.469
111.147	21.570	1003.415	803.103
112.162	21.287	1003.248	801.603
113.176	21.171	1001.255	799.405
114.191	21.337	1000.312	799.345
115.206	21.324	999.994	798.958
116.220	21.049	998.807	796.685
117.235	20.974	997.559	795.275
118.249	21.071	997.123	795.297
119.264	21.141	996.064	794.702
120.279	21.054	995.057	793.435
121.293	21.140	994.173	793.051
122.308	21.229	993.650	792.968
123.322	21.170	993.296	792.346
124.337	21.179	991.906	791.209
125.352	21.077	990.232	789.340
126.366	20.674	988.883	786.377
127.381	20.389	987.446	783.875
128.395	20.801	986.955	785.275
129.410	21.547	986.488	788.195
130.424	21.621	985.633	787.774
131.439	21.693	985.170	787.662
132.454	21.751	983.513	786.526
133.468	21.768	983.086	786.190
134.483	21.562	982.321	784.588
135.497	21.636	981.628	784.296
136.512	21.733	981.594	784.633
137.527	21.879	980.379	784.244
138.541	21.854	979.447	783.317
139.556	21.758	978.803	782.303
140.570	21.912	977.419	781.814
141.585	21.928	976.658	781.210
142.600	21.920	976.113	780.670
143.614	21.888	975.182	779.712
144.629	21.856	974.272	778.775
145.643	22.223	974.029	780.139
146.658	22.098	972.264	778.102
147.673	21.851	971.385	776.237
148.687	21.775	970.163	774.857
149.702	21.878	969.090	774.388
150.716	21.681	967.998	772.575
151.731	21.716	966.731	771.653
152.746	21.908	965.746	771.641
153.760	21.891	966.009	771.709
154.775	21.987	964.895	771.174
155.789	22.095	964.306	771.106
156.804	22.023	963.355	769.960
157.819	21.936	962.340	768.701
158.833	22.123	961.500	768.781
159.848	22.052	960.913	767.934
160.862	22.144	959.996	767.536
161.877	22.045	959.038	766.267
162.892	21.956	958.196	765.139
163.906	22.015	957.461	764.742
164.921	22.140	956.374	764.350
165.935	21.986	956.003	763.316
166.950	22.059	954.085	762.036
167.964	22.129	953.517	761.819
168.979	22.074	952.280	760.522
169.994	21.858	951.231	758.682
171.008	21.845	950.131	757.685
172.023	21.907	949.505	757.383
173.037	22.071	948.559	757.270
174.052	21.943	947.374	755.707
175.067	21.719	946.587	754.046
176.081	21.573	946.072	752.941
177.096	21.793	944.873	752.866
178.110	21.746	944.103	751.985
179.125	21.627	942.831	750.394
180.140	21.389	941.788	748.480
181.154	21.392	941.271	748.018
182.169	21.502	940.845	748.082
183.183	21.784	940.126	748.651
184.198	22.045	939.711	749.365
185.213	22.049	939.297	748.986
186.227	21.919	938.739	747.922
187.242	21.915	938.559	747.694
188.256	22.067	937.429	747.372
189.271	22.034	936.338	746.299
190.286	22.217	935.908	746.666
191.300	22.045	935.012	745.156
192.315	21.429	933.661	741.401
193.329	20.766	932.045	737.248
194.344	20.311	931.043	734.464
195.359	20.968	931.416	737.474
196.373	21.669	931.734	740.627
197.388	21.984	931.416	741.640
198.402	21.878	930.483	740.381
199.417	21.796	929.964	739.560
200.432	21.930	929.595	739.765
201.446	21.744	928.685	738.193
202.461	21.314	928.191	735.920
203.475	21.630	927.319	736.494
204.490	21.091	925.878	733.022
205.504	19.986	923.598	726.519
206.519	20.504	923.286	728.379
207.534	21.265	924.265	732.280
208.548	21.507	923.278	732.445
209.563	21.813	923.321	733.698
210.577	21.857	922.584	733.230
211.592	21.678	921.629	731.657
212.607	22.050	921.314	732.897
213.621	22.157	920.742	732.825
214.636	21.956	920.455	731.692
215.650	22.070	919.637	731.452
216.665	21.936	918.929	730.265
217.680	22.005	918.693	730.303
218.694	22.211	917.913	730.474
219.709	21.783	917.036	727.932
220.723	21.444	916.177	725.781
221.738	21.611	915.643	725.987
222.753	21.936	914.819	726.616
223.767	21.816	914.370	725.695
224.782	21.845	913.793	725.295
225.796	22.129	912.991	725.767
226.811	22.243	912.057	725.431
227.826	21.753	911.169	722.642
228.840	21.076	909.283	718.293
229.855	21.002	908.877	717.604
230.869	21.124	908.818	717.998
231.884	20.894	907.712	716.115
232.899	20.853	907.204	715.482
233.913	21.690	907.637	719.199
234.928	21.996	906.807	719.731
235.942	21.855	906.015	718.461
236.957	21.849	905.354	717.849
237.972	21.626	904.294	716.034
238.986	21.425	903.665	714.651
240.001	21.645	902.895	714.876
241.015	21.476	902.877	714.109
242.030	21.672	901.612	713.846
243.045	21.902	901.355	714.512
244.059	21.837	901.095	713.979
245.074	22.002	900.360	714.007
246.088	22.024	899.715	713.519
247.103	21.688	898.529	711.153
248.117	21.651	898.160	710.649
249.132	22.105	898.347	712.575
250.147	22.518	897.701	713.675
251.161	22.500	896.775	712.800
252.176	22.612	896.548	713.012
253.190	22.612	896.151	712.632
254.205	22.706	895.669	712.564
255.220	22.938	895.299	713.143
256.234	22.808	894.704	712.085
257.249	22.832	893.608	711.244
258.263	22.613	893.519	710.228
259.278	22.684	892.635	709.748
260.293	22.687	892.338	709.462
261.307	22.814	891.269	709.059
262.322	22.756	890.773	708.369
263.336	22.469	890.471	706.914
264.351	22.273	888.570	704.559
265.366	21.075	886.222	697.845
266.380	20.688	885.681	695.807
267.395	21.503	886.244	699.452
268.409	22.192	886.217	702.122
269.424	22.257	885.450	701.708
270.439	22.452	885.100	702.146
271.453	22.586	884.606	702.228
272.468	22.547	883.793	701.366
273.482	22.736	883.462	701.790
274.497	22.845	882.830	701.662
275.512	22.548	881.676	699.503
276.526	22.001	880.406	696.264
277.541	22.274	880.245	697.159
278.555	22.606	880.150	698.338
279.570	22.467	879.004	696.815
280.585	22.164	878.306	695.003
281.599	22.360	877.541	695.110
282.614	22.420	877.542	695.288
283.628	21.950	876.401	692.465
284.643	21.635	875.585	690.521
285.657	22.138	875.270	692.189
286.672	21.992	874.703	691.109
287.687	21.531	873.475	688.263
288.701	21.936	873.223	689.594
289.716	22.265	873.023	690.670
290.730	21.860	872.341	688.478
291.745	21.741	871.557	687.333
292.760	21.587	870.468	685.809
293.774	21.623	869.940	685.474
294.789	22.661	869.869	689.416
295.803	23.117	870.194	691.397
296.818	23.071	869.629	690.707
297.833	23.244	869.238	691.011
298.847	22.877	868.293	688.765
299.862	22.633	866.988	686.720
300.876	22.680	866.778	686.677
301.891	22.949	866.886	687.749
302.906	23.039	866.340	687.606
303.920	22.751	864.821	685.220
304.935	22.629	863.927	683.977
305.949	22.922	863.961	685.081
306.964	23.064	863.377	685.107
307.979	22.736	862.769	683.294
308.993	22.711	862.080	682.592
310.008	23.059	861.928	683.758
311.022	23.304	861.248	684.102
312.037	23.102	860.593	682.743
313.052	22.829	860.255	681.361
314.066	22.705	859.280	680.050
315.081	22.120	857.842	676.599
316.095	21.405	856.847	673.006
317.110	21.778	857.200	674.656
318.125	22.698	857.167	678.109
319.139	22.297	856.004	675.591
320.154	21.202	854.365	670.037
321.168	20.705	853.455	667.358
322.183	21.429	853.340	669.985
323.197	22.328	853.921	673.827
324.212	22.691	853.464	674.794
325.227	22.821	853.126	674.966
326.241	22.867	852.856	674.868
327.256	22.777	852.025	673.807
328.270	22.686	851.240	672.780
329.285	22.572	850.767	671.910
330.300	22.539	849.964	671.094
331.314	22.269	849.381	669.545
332.329	22.259	848.880	669.053
333.343	22.661	848.267	670.040
334.358	23.024	847.650	670.868
335.373	22.917	847.328	670.150
336.387	23.042	846.669	670.042
337.402	23.188	846.554	670.444
338.416	23.399	846.229	670.926
339.431	23.315	845.547	670.009
340.446	23.356	844.871	669.568
341.460	23.454	844.203	669.349
342.475	23.561	843.752	669.339
343.489	23.390	843.036	668.066
344.504	23.265	842.540	667.144
345.519	23.541	842.103	667.777
346.533	23.772	841.647	668.226
347.548	23.751	841.463	667.939
348.562	23.670	840.838	667.080
349.577	23.626	840.753	666.790
350.592	23.736	839.768	666.361
351.606	23.780	839.152	665.981
352.621	23.631	838.946	665.198
353.635	23.470	838.306	664.030
354.650	23.507	837.836	663.736
355.665	23.084	836.835	661.303
356.679	22.110	834.929	656.104
357.694	21.963	834.497	655.159
358.708	22.702	834.204	657.624
359.723	22.647	833.766	657.016
360.738	22.952	833.498	657.883
361.752	23.396	833.480	659.464
362.767	23.438	833.077	659.242
363.781	23.715	833.088	660.222
364.796	23.934	832.737	660.700
365.810	23.923	832.689	660.562
366.825	24.180	831.967	660.885
367.840	24.054	831.665	660.118
368.854	23.709	831.575	658.711
369.869	23.572	830.156	657.021
370.883	23.361	829.616	655.754
371.898	23.392	829.064	655.375
372.913	23.270	828.432	654.365
373.927	23.219	827.767	653.596
374.942	23.606	826.962	654.330
375.956	23.597	826.585	653.939
376.971	23.731	826.263	654.122
377.986	23.882	825.455	653.979
379.000	24.013	824.905	653.966
380.015	24.006	824.591	653.632
381.029	23.891	824.003	652.687
382.044	23.881	823.120	651.893
383.059	23.913	822.940	651.810
384.073	23.951	822.447	651.503
385.088	24.091	821.562	651.256
386.102	24.048	821.196	650.750
387.117	23.824	820.679	649.464
388.132	23.819	819.811	648.702
389.146	23.545	819.335	647.270
390.161	23.066	818.251	644.611
391.175	23.117	817.816	644.396
392.190	23.611	818.033	646.308
393.205	23.713	817.614	646.290
394.219	22.686	815.907	641.153
395.234	20.994	813.745	633.259
396.248	20.488	812.375	630.302
397.263	21.554	813.135	634.703
398.278	23.177	814.853	641.880
399.292	23.678	814.677	643.500
400.307	23.354	813.706	641.502
401.321	23.467	812.925	641.239
402.336	23.551	812.971	641.524
403.350	23.717	812.865	641.984
404.365	24.225	812.835	643.738
405.380	24.368	812.575	643.991
406.394	24.631	812.510	644.833
407.409	24.763	811.871	644.744
408.423	24.671	811.578	644.122
409.438	24.575	810.799	643.103
410.453	24.641	810.456	643.010
411.467	24.691	809.959	642.741
412.482	24.584	809.295	641.769
413.496	24.712	808.873	641.840
414.511	24.746	808.432	641.555
415.526	24.803	808.181	641.502
416.540	24.728	807.882	640.941
417.555	24.678	807.150	640.123
418.569	24.306	806.577	638.279
419.584	24.270	805.943	637.593
420.599	24.374	805.483	637.546
421.613	154.148	1365.258	1793.145
422.628	133.867	1446.812	1793.263
