DTS Sentinel unit serial number:	SN413079Multiplexer serial number:	ORYXHardware model number:	OX4-SRSoftware version number:	ORYX F/W v4.00 Oryx Data Collector v3.7.2.0data status	okinstallation	princeton_trtdifferential loss correction	single-endedforward channel	channel 3reverse channel	N/Adate	2019/09/18time	23:00:35forward acquisition time	60.00reverse acquisition time	0.00gamma	496.2192k internal	0.2345k external	0.2345temperature offset calibration	0.9991default loss term (dB/km)	0.3790temperature slope calibration	1.0000multiplexer offset coefficient	1.0000multiplexer slope coefficient	1.0000fibre end	0.00T internal ref (°C)	24.02T ext. ref 1 (°C)	0.78T ext. ref 2 (°C)	18.01length (m)	temperature (°C)	Stokes	anti-Stokes-747.200	92.554	0.054	-0.060
-746.185	47.928	-0.246	0.230
-745.171	-36.444	-0.021	0.012
-744.156	-200.000	0.084	0.383
-743.142	-94.482	0.205	-0.056
-742.127	26.881	-0.238	0.200
-741.112	800.000	0.161	-0.478
-740.098	9.296	-0.062	0.047
-739.083	169.574	-0.175	0.250
-738.069	-52.663	0.223	0.103
-737.054	186.672	-0.304	-0.453
-736.039	118.642	-0.066	-0.082
-735.025	665.935	-0.121	0.314
-734.010	-148.703	0.378	-0.031
-732.996	800.000	-0.060	0.193
-731.981	123.522	-0.055	-0.069
-730.966	491.575	-0.225	-0.516
-729.952	-91.713	-0.342	-0.097
-728.937	800.000	0.076	-0.244
-727.923	-98.522	-0.161	-0.041
-726.908	-200.000	-0.007	-0.259
-725.894	432.042	0.054	-0.118
-724.879	186.517	0.089	-0.132
-723.864	127.682	-0.187	-0.238
-722.850	-89.879	0.136	-0.040
-721.835	671.120	-0.092	-0.237
-720.821	-200.000	-0.017	-0.240
-719.806	-24.148	-0.212	0.127
-718.791	-200.000	-0.034	0.614
-717.777	232.822	0.038	0.062
-716.762	-200.000	0.020	-0.111
-715.748	149.439	-0.070	-0.095
-714.733	458.625	0.057	0.127
-713.718	800.000	-0.059	0.207
-712.704	74.176	-0.105	-0.111
-711.689	-6.830	0.341	0.232
-710.675	71.746	-0.399	-0.414
-709.660	299.059	-0.115	-0.211
-708.645	111.088	-0.165	0.199
-707.631	-200.000	-0.002	-0.064
-706.616	6.516	0.124	-0.092
-705.602	-135.259	-0.186	-0.022
-704.587	482.850	0.232	0.528
-703.572	800.000	0.042	0.147
-702.558	249.670	0.099	0.168
-701.543	-200.000	0.022	-0.182
-700.529	301.576	-0.060	-0.110
-699.514	178.211	0.228	-0.333
-698.499	506.525	0.104	-0.240
-697.485	19.998	-0.350	-0.282
-696.470	-70.365	-0.292	0.110
-695.456	138.431	-0.055	-0.073
-694.441	577.537	-0.080	-0.195
-693.426	-194.922	0.191	0.001
-692.412	-151.372	-0.288	-0.021
-691.397	44.061	-0.179	-0.164
-690.383	-142.861	0.080	-0.008
-689.368	73.459	-0.036	-0.037
-688.354	117.204	0.244	0.300
-687.339	165.940	-0.156	0.220
-686.324	-23.684	0.229	0.137
-685.310	50.180	-0.168	-0.159
-684.295	112.657	-0.244	-0.295
-683.281	-141.573	0.348	-0.035
-682.266	32.096	0.056	-0.048
-681.251	147.334	-0.175	0.236
-680.237	403.393	0.091	-0.192
-679.222	601.782	-0.018	-0.044
-678.208	-45.112	0.424	-0.210
-677.193	96.607	-0.171	0.196
-676.178	91.797	-0.131	-0.147
-675.164	152.441	-0.115	0.156
-674.149	-20.867	-0.089	-0.054
-673.135	-11.150	0.080	-0.053
-672.120	-21.333	-0.129	-0.079
-671.105	51.615	-0.269	0.255
-670.091	-91.969	0.099	0.028
-669.076	-123.582	0.238	0.038
-668.062	800.000	0.081	0.269
-667.047	-200.000	-0.026	-0.283
-666.032	-42.300	-0.437	0.222
-665.018	-39.930	0.286	-0.149
-664.003	92.360	-0.190	-0.213
-662.989	800.000	0.032	-0.111
-661.974	-200.000	-0.028	-0.130
-660.959	800.000	-0.062	-0.175
-659.945	-126.451	-0.209	-0.031
-658.930	800.000	-0.027	-0.098
-657.916	800.000	-0.107	0.366
-656.901	782.052	0.066	-0.180
-655.886	-92.222	0.550	0.155
-654.872	-200.000	0.005	-0.159
-653.857	353.039	0.156	-0.309
-652.843	-79.288	-0.247	0.083
-651.828	97.229	-0.268	-0.306
-650.814	-13.186	0.333	-0.216
-649.799	171.311	0.188	0.269
-648.784	266.312	-0.180	0.313
-647.770	-136.566	-0.304	0.035
-646.755	-24.822	0.233	0.138
-645.741	-124.176	-0.205	0.032
-644.726	-200.000	0.002	-0.119
-643.711	800.000	-0.060	0.169
-642.697	196.878	0.043	0.066
-641.682	-119.569	-0.193	0.033
-640.668	-43.614	-0.084	-0.042
-639.653	4.851	0.067	-0.049
-638.638	-181.867	0.250	-0.005
-637.624	-72.831	-0.098	0.036
-636.609	167.076	0.093	0.132
-635.595	-125.182	0.076	0.012
-634.580	800.000	-0.017	-0.059
-633.565	-34.986	0.220	0.119
-632.551	-37.435	0.448	0.238
-631.536	479.670	0.097	0.220
-630.522	258.350	0.085	0.146
-629.507	26.221	0.098	0.082
-628.492	34.615	-0.141	0.123
-627.478	-165.704	-0.202	0.009
-626.463	-200.000	0.038	-0.208
-625.449	87.255	-0.277	-0.305
-624.434	199.206	-0.086	-0.132
-623.419	-157.809	0.307	-0.018
-622.405	6.360	0.107	-0.079
-621.390	-200.000	-0.032	-0.185
-620.376	22.154	0.107	-0.087
-619.361	-90.064	-0.357	0.103
-618.346	-112.371	-0.106	0.021
-617.332	-117.624	-0.237	0.043
-616.317	-39.493	0.256	0.134
-615.303	76.474	-0.170	-0.179
-614.288	-78.584	0.170	-0.058
-613.273	-163.580	-0.172	0.008
-612.259	-72.969	0.290	-0.106
-611.244	-188.096	-0.364	-0.005
-610.230	22.223	-0.156	-0.127
-609.215	-200.000	0.036	0.177
-608.201	333.054	0.071	0.137
-607.186	-200.000	-0.036	-0.296
-606.171	714.247	-0.118	-0.312
-605.157	139.135	-0.018	0.023
-604.142	800.000	0.037	0.157
-603.128	-64.284	0.317	0.129
-602.113	63.036	-0.129	-0.128
-601.098	800.000	0.075	0.244
-600.084	800.000	0.102	-0.318
-599.069	534.118	-0.096	-0.227
-598.055	11.731	-0.227	0.173
-597.040	-102.008	0.195	-0.047
-596.025	800.000	-0.058	-0.222
-595.011	117.327	-0.076	-0.093
-593.996	800.000	-0.106	-0.340
-592.982	-200.000	0.104	0.466
-591.967	-120.837	-0.410	-0.069
-590.952	-32.457	0.202	-0.112
-589.938	-21.921	0.181	-0.109
-588.923	518.743	-0.134	0.311
-587.909	800.000	-0.098	0.300
-586.894	-132.052	-0.173	-0.022
-585.879	800.000	-0.101	-0.398
-584.865	44.762	0.079	-0.072
-583.850	-200.000	-0.015	-0.270
-582.836	-200.000	-0.013	-0.209
-581.821	-121.278	-0.059	-0.010
-580.806	227.115	-0.187	-0.302
-579.792	137.269	-0.166	-0.216
-578.777	800.000	0.138	0.394
-577.763	800.000	0.033	0.122
-576.748	-200.000	-0.002	0.179
-575.733	711.164	-0.083	0.217
-574.719	-19.834	-0.253	-0.155
-573.704	800.000	0.009	0.032
-572.690	-153.397	0.180	0.012
-571.675	800.000	0.018	0.080
-570.661	800.000	0.059	-0.210
-569.646	-200.000	0.008	-0.184
-568.631	20.950	-0.212	-0.171
-567.617	193.048	0.031	-0.047
-566.602	-150.067	-0.413	-0.032
-565.588	800.000	-0.069	-0.284
-564.573	318.769	0.125	-0.236
-563.558	188.833	-0.114	0.170
-562.544	-3.804	0.118	-0.082
-561.529	43.367	0.075	-0.068
-560.515	-65.584	-0.229	0.091
-559.500	186.484	0.053	-0.078
-558.485	231.109	-0.060	-0.098
-557.471	800.000	-0.056	0.211
-556.456	-57.090	0.346	-0.151
-555.442	223.531	0.108	-0.172
-554.427	-48.363	-0.058	-0.028
-553.412	154.443	-0.084	-0.115
-552.398	95.884	0.217	0.246
-551.383	67.978	-0.155	0.158
-550.369	-200.000	-0.026	-0.344
-549.354	117.978	-0.127	-0.155
-548.339	2.338	-0.063	0.045
-547.325	-76.296	0.168	0.059
-546.310	800.000	0.064	-0.274
-545.296	-38.566	-0.087	-0.046
-544.281	-200.000	-0.016	-0.178
-543.266	-130.832	0.462	0.062
-542.252	58.979	0.188	0.184
-541.237	293.829	-0.106	0.192
-540.223	-33.156	0.156	0.086
-539.208	61.459	-0.070	-0.069
-538.193	-136.875	0.231	-0.026
-537.179	422.314	-0.097	-0.207
-536.164	-200.000	0.020	-0.203
-535.150	-3.797	-0.181	-0.125
-534.135	-200.000	-0.003	0.324
-533.121	106.573	0.231	0.272
-532.106	8.905	-0.172	-0.128
-531.091	81.152	-0.184	-0.197
-530.077	283.475	-0.132	0.235
-529.062	-59.692	-0.229	-0.097
-528.048	800.000	0.119	-0.466
-527.033	-125.440	0.521	0.079
-526.018	423.584	0.040	-0.085
-525.004	-200.000	-0.034	-0.219
-523.989	800.000	-0.009	-0.028
-522.975	-200.000	0.011	-0.216
-521.960	586.870	-0.043	-0.106
-520.945	-200.000	-0.045	0.449
-519.931	-122.484	0.355	0.057
-518.916	800.000	0.029	0.113
-517.902	-200.000	0.016	-0.162
-516.887	-64.233	0.115	-0.046
-515.872	646.893	0.109	-0.276
-514.858	82.711	0.128	0.138
-513.843	-169.573	0.303	0.011
-512.829	-78.152	0.151	-0.051
-511.814	-200.000	-0.009	0.071
-510.799	102.443	-0.274	-0.317
-509.785	-36.140	0.161	-0.086
-508.770	564.970	-0.136	0.328
-507.756	-130.938	0.057	-0.008
-506.741	-28.758	0.125	0.071
-505.726	67.216	0.171	-0.173
-504.712	-200.000	-0.018	-0.205
-503.697	-200.000	0.013	-0.183
-502.683	-200.000	-0.003	0.311
-501.668	-200.000	-0.013	-0.082
-500.653	-187.815	-0.173	-0.002
-499.639	-86.645	0.344	-0.104
-498.624	378.156	-0.136	-0.276
-497.610	-91.634	-0.026	0.007
-496.595	207.043	-0.109	0.169
-495.581	-200.000	0.011	0.138
-494.566	545.765	0.109	-0.258
-493.551	-127.932	-0.211	0.030
-492.537	-23.660	-0.355	-0.211
-491.522	-200.000	-0.009	0.460
-490.508	683.774	-0.111	0.288
-489.493	-27.573	-0.436	-0.251
-488.478	326.268	0.202	-0.383
-487.464	-12.885	-0.327	-0.211
-486.449	7.097	0.146	-0.108
-485.435	-200.000	-0.025	0.328
-484.420	-29.045	-0.160	-0.091
-483.405	15.129	0.329	-0.256
-482.391	-86.663	0.188	0.057
-481.376	-36.804	0.365	-0.194
-480.362	-169.057	-0.044	0.002
-479.347	28.560	-0.126	-0.106
-478.332	-22.001	0.057	0.034
-477.318	800.000	-0.003	-0.008
-476.303	527.751	0.117	-0.273
-475.289	-38.403	-0.212	-0.111
-474.274	-190.486	0.264	-0.003
-473.259	-155.679	-0.198	0.013
-472.245	800.000	0.053	0.171
-471.230	-155.800	0.216	-0.014
-470.216	-200.000	0.008	0.371
-469.201	540.841	-0.148	0.348
-468.186	5.635	0.276	-0.202
-467.172	-90.005	0.052	-0.015
-466.157	718.306	-0.021	-0.056
-465.143	97.347	-0.261	0.296
-464.128	41.625	-0.218	0.195
-463.113	800.000	0.055	0.173
-462.099	34.347	0.138	0.119
-461.084	800.000	0.096	-0.271
-460.070	483.124	-0.221	0.498
-459.055	294.502	-0.169	0.306
-458.040	-200.000	-0.022	-0.314
-457.026	102.886	-0.089	0.103
-456.011	-200.000	-0.075	0.349
-454.997	135.071	-0.097	0.125
-453.982	-145.380	-0.105	0.009
-452.968	-200.000	-0.044	0.414
-451.953	167.810	-0.133	0.187
-450.938	-200.000	0.077	-0.349
-449.924	-139.393	-0.034	-0.004
-448.909	-200.000	-0.003	0.325
-447.895	-200.000	0.019	-0.263
-446.880	-200.000	-0.003	-0.104
-445.865	166.488	-0.272	0.381
-444.851	-36.764	-0.191	0.102
-443.836	473.753	-0.164	-0.365
-442.822	800.000	0.039	-0.110
-441.807	145.404	-0.096	0.126
-440.792	-78.293	0.130	-0.044
-439.778	435.339	-0.048	0.103
-438.763	-10.368	0.278	0.182
-437.749	83.296	0.033	0.036
-436.734	-20.919	0.203	-0.123
-435.719	44.506	-0.122	0.111
-434.705	42.288	-0.205	0.184
-433.690	544.199	0.143	0.338
-432.676	110.087	0.247	-0.293
-431.661	640.329	-0.032	0.081
-430.646	800.000	0.048	0.192
-429.632	800.000	0.101	0.308
-428.617	253.398	0.148	0.249
-427.603	-140.673	0.164	0.017
-426.588	239.868	-0.151	-0.249
-425.573	-127.197	-0.020	-0.003
-424.559	-66.319	-0.133	0.052
-423.544	457.842	-0.116	-0.255
-422.530	119.138	-0.077	-0.094
-421.515	800.000	-0.004	0.013
-420.500	-124.103	0.347	-0.054
-419.486	-158.256	0.095	-0.006
-418.471	-155.372	0.188	-0.012
-417.457	212.498	0.037	-0.057
-416.442	315.815	-0.013	0.024
-415.428	180.884	-0.069	0.101
-414.413	-17.958	-0.186	0.115
-413.398	-87.175	0.147	0.044
-412.384	642.867	0.196	0.493
-411.369	800.000	-0.050	-0.146
-410.355	540.149	-0.099	-0.232
-409.340	-145.347	-0.226	-0.020
-408.325	227.591	-0.206	-0.332
-407.311	-200.000	0.015	-0.255
-406.296	18.644	0.034	0.027
-405.282	4.601	0.037	0.027
-404.267	87.102	-0.266	0.290
-403.252	-81.083	0.193	0.063
-402.238	-200.000	-0.049	0.214
-401.223	13.639	0.318	0.244
-400.209	-200.000	-0.004	-0.289
-399.194	219.540	-0.174	-0.275
-398.179	-109.412	0.116	-0.024
-397.165	-141.121	-0.201	0.020
-396.150	246.360	0.088	0.146
-395.136	800.000	-0.086	-0.297
-394.121	-200.000	-0.026	-0.156
-393.106	-19.748	-0.389	-0.237
-392.092	-24.729	0.220	-0.129
-391.077	-200.000	-0.040	0.206
-390.063	-106.760	-0.239	0.052
-389.048	491.751	-0.147	0.332
-388.033	-200.000	-0.001	-0.209
-387.019	-41.780	-0.408	0.207
-386.004	-153.749	-0.136	-0.009
-384.990	-95.632	-0.106	-0.028
-383.975	-92.579	0.193	-0.054
-382.960	30.721	0.220	-0.186
-381.946	93.144	-0.278	0.310
-380.931	355.565	-0.054	0.107
-379.917	-165.585	0.120	0.005
-378.902	-200.000	0.232	-0.000
-377.888	281.654	0.052	-0.091
-376.873	-200.000	0.004	-0.246
-375.858	24.498	-0.151	0.123
-374.844	-84.042	-0.215	-0.067
-373.829	-28.374	-0.044	0.025
-372.815	2.305	-0.224	-0.160
-371.800	-200.000	0.000	-0.369
-370.785	365.270	-0.046	-0.090
-369.771	-200.000	0.018	0.140
-368.756	-25.000	0.200	0.117
-367.742	577.995	0.046	-0.112
-366.727	54.555	0.217	-0.206
-365.712	98.997	-0.189	0.215
-364.698	-200.000	-0.043	0.229
-363.683	182.177	0.145	0.211
-362.669	-9.438	-0.052	-0.034
-361.654	800.000	-0.030	0.097
-360.639	-82.914	-0.074	-0.024
-359.625	-152.318	0.411	-0.029
-358.610	148.682	0.086	0.115
-357.596	20.643	0.181	0.144
-356.581	-188.913	-0.098	0.001
-355.566	-111.880	-0.153	-0.030
-354.552	72.698	-0.229	-0.236
-353.537	-200.000	-0.010	0.167
-352.523	11.997	0.078	-0.059
-351.508	-19.742	-0.179	0.109
-350.493	-34.209	0.167	-0.090
-349.479	12.366	-0.246	-0.187
-348.464	-110.811	-0.176	0.036
-347.450	-163.718	-0.406	0.019
-346.435	710.837	0.103	0.269
-345.420	-185.938	-0.287	-0.004
-344.406	-200.000	-0.050	0.419
-343.391	-97.772	-0.181	0.046
-342.377	-13.943	0.190	0.121
-341.362	-200.000	-0.022	-0.335
-340.348	86.886	0.105	0.114
-339.333	12.702	0.038	-0.029
-338.318	-117.427	0.306	-0.055
-337.304	800.000	-0.069	0.241
-336.289	-96.963	-0.079	-0.020
-335.275	-136.824	-0.230	0.026
-334.260	32.234	-0.249	0.211
-333.245	45.254	0.182	0.165
-332.231	628.203	-0.138	-0.342
-331.216	-138.948	0.312	0.033
-330.202	800.000	-0.082	-0.281
-329.187	-129.830	0.211	0.029
-328.172	-114.209	0.198	-0.038
-327.158	-33.164	-0.300	-0.164
-326.143	785.816	0.086	0.233
-325.129	800.000	-0.046	0.195
-324.114	117.027	0.276	-0.333
-323.099	177.527	-0.181	-0.260
-322.085	800.000	0.056	-0.217
-321.070	486.359	-0.025	0.055
-320.056	-58.780	0.337	0.143
-319.041	149.389	0.069	-0.092
-318.026	-200.000	-0.024	-0.318
-317.012	-200.000	0.030	0.369
-315.997	643.392	0.089	0.224
-314.983	168.645	-0.081	0.114
-313.968	81.491	0.084	-0.090
-312.953	32.283	0.033	0.028
-311.939	63.508	-0.062	0.061
-310.924	-200.000	-0.007	-0.296
-309.910	-72.705	0.281	0.102
-308.895	-87.174	-0.483	0.144
-307.880	224.783	-0.192	0.306
-306.866	-200.000	-0.061	-0.271
-305.851	-200.000	0.029	0.233
-304.837	800.000	-0.095	0.379
-303.822	-162.339	0.088	-0.004
-302.807	-92.888	0.148	-0.041
-301.793	-24.096	0.210	-0.124
-300.778	-18.739	0.193	-0.118
-299.764	559.411	-0.079	-0.187
-298.749	-23.456	-0.076	0.045
-297.735	-57.201	0.472	0.204
-296.720	800.000	-0.093	0.308
-295.705	51.038	0.177	0.165
-294.691	-200.000	-0.001	-0.351
-293.676	11.982	-0.076	0.058
-292.662	4.338	0.193	-0.139
-291.647	800.000	-0.047	0.129
-290.632	-37.947	0.136	-0.071
-289.618	422.031	0.234	-0.493
-288.603	-71.026	-0.204	-0.076
-287.589	-200.000	-0.008	-0.131
-286.574	-63.188	0.107	-0.043
-285.559	-44.679	0.056	0.028
-284.545	-36.400	-0.320	0.170
-283.530	18.788	-0.156	0.123
-282.516	-62.154	0.333	0.136
-281.501	-84.988	0.145	0.045
-280.486	44.329	0.325	0.294
-279.472	193.141	-0.151	0.224
-278.457	-131.591	0.021	0.003
-277.443	762.176	0.160	-0.427
-276.428	0.201	0.324	-0.227
-275.413	32.442	-0.259	0.220
-274.399	-200.000	0.002	0.033
-273.384	-200.000	-0.001	-0.144
-272.370	-108.060	-0.205	-0.044
-271.355	5.591	-0.122	0.088
-270.340	234.268	0.183	0.296
-269.326	83.850	-0.074	-0.079
-268.311	-75.640	-0.089	0.031
-267.297	54.542	-0.034	-0.032
-266.282	-96.377	0.228	-0.059
-265.267	40.874	0.115	-0.102
-264.253	-56.840	0.144	0.063
-263.238	-69.707	0.292	-0.110
-262.224	30.482	-0.257	-0.215
-261.209	-64.669	0.220	-0.088
-260.195	-142.408	-0.072	0.007
-259.180	-129.521	0.011	0.001
-258.165	134.789	0.209	-0.266
-257.151	-174.937	0.188	0.005
-256.136	15.798	0.186	0.143
-255.122	148.771	0.171	0.227
-254.107	-133.356	0.092	0.011
-253.092	29.483	-0.232	0.194
-252.078	-19.797	-0.313	0.190
-251.063	623.150	0.030	0.074
-250.049	-154.184	0.272	0.018
-249.034	-100.822	-0.103	0.025
-248.019	43.203	-0.306	-0.274
-247.005	-47.212	-0.219	0.105
-245.990	718.604	0.177	-0.460
-244.976	800.000	-0.071	-0.302
-243.961	-98.491	-0.308	0.077
-242.946	-200.000	0.003	-0.183
-241.932	800.000	-0.024	0.093
-240.917	-21.958	-0.134	-0.080
-239.903	-48.938	0.083	0.039
-238.888	3.924	0.291	0.208
-237.873	800.000	0.017	-0.049
-236.859	100.520	-0.052	0.059
-235.844	800.000	0.034	0.104
-234.830	-66.567	-0.318	0.124
-233.815	800.000	0.079	0.222
-232.800	-88.423	-0.065	0.019
-231.786	-200.000	-0.045	0.199
-230.771	-92.717	0.261	0.072
-229.757	-41.865	-0.142	-0.072
-228.742	-200.000	-0.015	-0.066
-227.727	-79.182	0.157	-0.052
-226.713	51.651	0.102	-0.096
-225.698	-42.533	0.420	0.210
-224.684	201.870	0.161	-0.243
-223.669	27.600	-0.247	-0.204
-222.655	-144.586	0.105	0.009
-221.640	800.000	0.093	-0.262
-220.625	-134.510	-0.079	0.009
-219.611	-20.779	0.097	-0.058
-218.596	13.770	-0.150	0.114
-217.582	-26.872	-0.155	-0.089
-216.567	-136.996	0.075	-0.008
-215.552	209.126	0.073	0.111
-214.538	-148.973	-0.353	-0.028
-213.523	-105.101	0.104	-0.023
-212.509	-43.369	-0.178	-0.088
-211.494	-128.591	0.187	-0.026
-210.479	-184.572	0.121	0.002
-209.465	-124.234	-0.311	-0.048
-208.450	800.000	-0.035	0.120
-207.436	37.020	-0.168	-0.146
-206.421	-123.570	-0.162	-0.025
-205.406	-17.983	0.197	0.121
-204.392	-33.398	0.043	-0.023
-203.377	800.000	-0.225	-0.613
-202.363	800.000	0.076	0.255
-201.348	109.019	0.216	0.253
-200.333	-200.000	-0.021	-0.102
-199.319	800.000	-0.101	0.321
-198.304	-200.000	-0.006	0.046
-197.290	800.000	0.069	0.215
-196.275	-200.000	-0.006	-0.110
-195.260	-145.185	0.333	0.030
-194.246	-162.991	-0.309	0.015
-193.231	-200.000	-0.019	-0.161
-192.217	39.600	0.199	-0.175
-191.202	-144.057	-0.364	0.033
-190.187	224.080	0.125	0.198
-189.173	-48.558	-0.256	-0.121
-188.158	29.324	0.329	0.274
-187.144	-3.006	0.073	0.050
-186.129	-155.402	-0.157	-0.010
-185.114	-97.437	0.384	0.098
-184.100	-128.556	-0.058	-0.008
-183.085	-200.000	0.011	-0.058
-182.071	-134.731	0.212	-0.025
-181.056	37.228	0.251	-0.218
-180.042	124.214	-0.225	0.277
-179.027	800.000	0.105	-0.300
-178.012	67.323	0.160	-0.160
-176.998	356.148	-0.166	-0.324
-175.983	521.386	0.184	-0.423
-174.969	183.841	-0.139	-0.201
-173.954	-200.000	-0.065	0.536
-172.939	62.859	-0.152	0.149
-171.925	-52.831	-0.163	-0.073
-170.910	660.843	0.080	0.201
-169.896	-200.000	-0.029	-0.198
-168.881	-200.000	-0.020	0.144
-167.866	-110.261	-0.081	0.017
-166.852	-68.142	-0.283	0.108
-165.837	-200.000	0.024	0.315
-164.823	84.668	0.169	0.181
-163.808	800.000	-0.100	0.293
-162.793	-77.587	0.449	0.152
-161.779	-102.702	-0.347	-0.081
-160.764	-44.439	-0.152	-0.075
-159.750	-64.713	-0.072	-0.028
-158.735	265.224	-0.010	0.018
-157.720	598.092	-0.071	-0.173
-156.706	-200.000	0.024	-0.131
-155.691	800.000	0.056	0.224
-154.677	268.850	0.199	0.341
-153.662	23.102	-0.141	0.113
-152.647	-59.341	0.167	-0.070
-151.633	182.521	0.119	-0.171
-150.618	-3.902	0.308	-0.209
-149.604	-200.000	-0.006	-0.071
-148.589	106.456	0.098	-0.114
-147.574	-200.000	-0.009	0.228
-146.560	53.213	-0.077	-0.072
-145.545	-200.000	-0.019	0.386
-144.531	399.583	0.145	0.298
-143.516	-11.043	-0.238	-0.154
-142.502	-85.228	-0.277	-0.085
-141.487	-7.385	0.287	0.190
-140.472	-200.000	0.071	-0.357
-139.458	84.427	0.149	0.159
-138.443	-24.314	0.119	0.069
-137.429	-200.000	-0.023	-0.179
-136.414	-67.593	0.066	0.025
-135.399	-24.647	0.256	0.149
-134.385	-41.132	-0.264	-0.133
-133.370	800.000	-0.018	0.059
-132.356	385.871	0.196	0.396
-131.341	-130.113	-0.254	-0.034
-130.326	240.328	-0.216	0.351
-129.312	-200.000	-0.007	0.372
-128.297	-200.000	0.040	-0.204
-127.283	170.684	0.108	0.151
-126.268	52.883	0.181	-0.169
-125.253	-200.000	0.014	0.381
-124.239	120.097	0.141	-0.170
-123.224	800.000	0.043	-0.162
-122.210	104.763	-0.217	0.249
-121.195	-0.996	0.390	-0.269
-120.180	750.231	-0.034	-0.089
-119.166	2.138	-0.131	0.092
-118.151	-97.651	-0.271	0.068
-117.137	330.256	-0.031	-0.059
-116.122	-21.102	-0.067	0.040
-115.107	-83.886	-0.302	0.094
-114.093	109.810	-0.108	0.127
-113.078	0.609	-0.019	-0.013
-112.064	-103.673	-0.090	-0.021
-111.049	312.561	0.163	-0.299
-110.034	684.174	-0.035	-0.090
-109.020	188.268	0.165	-0.241
-108.005	800.000	-0.061	0.240
-106.991	800.000	0.072	-0.209
-105.976	-200.000	-0.030	-0.186
-104.962	-62.085	0.181	-0.074
-103.947	141.945	0.050	-0.065
-102.932	186.864	0.236	0.343
-101.918	-146.240	0.066	-0.006
-100.903	-17.402	0.389	-0.239
-99.889	-200.000	0.006	0.118
-98.874	-200.000	0.024	0.185
-97.859	29.518	-0.227	0.188
-96.845	-200.000	-0.019	-0.237
-95.830	41.367	-0.146	-0.129
-94.816	145.394	0.211	0.276
-93.801	-200.000	0.017	0.153
-92.786	-200.000	-0.010	0.183
-91.772	800.000	0.101	0.322
-90.757	-134.834	0.317	-0.038
-89.743	507.759	0.057	0.129
-88.728	-59.875	0.411	-0.172
-87.713	14.550	0.040	0.031
-86.699	78.726	0.138	0.144
-85.684	-145.780	-0.227	0.020
-84.670	11.268	-0.290	0.216
-83.655	80.961	0.375	0.395
-82.640	-108.051	-0.341	-0.072
-81.626	40.928	0.114	-0.101
-80.611	-200.000	-0.004	0.102
-79.597	-45.044	0.211	0.102
-78.582	20.040	0.200	0.157
-77.567	-200.000	-0.025	0.321
-76.553	-41.766	-0.186	0.093
-75.538	-58.675	-0.095	-0.040
-74.524	11.468	-0.140	-0.104
-73.509	-154.793	0.224	-0.014
-72.494	800.000	0.087	-0.268
-71.480	-71.166	0.337	-0.123
-70.465	-200.000	-0.017	-0.266
-69.451	-93.746	0.339	-0.091
-68.436	750.297	0.053	0.138
-67.422	-23.094	0.559	0.328
-66.407	706.610	-0.055	0.141
-65.392	231.201	0.066	0.105
-64.378	-12.550	0.042	-0.027
-63.363	-48.551	0.293	-0.138
-62.349	-80.737	0.426	0.138
-61.334	23.283	-1.363	-1.091
-60.319	60.666	0.796	0.768
-59.305	800.000	-0.381	-1.261
-58.290	350.259	0.659	1.268
-57.276	800.000	0.626	1.767
-56.261	-200.000	122.226	645.247
-55.246	432.328	1544.333	3261.772
-54.232	147.487	2696.005	3536.382
-53.217	97.198	2164.461	2418.815
-52.203	34.510	1688.213	1435.809
-51.188	27.090	1506.467	1231.121
-50.173	25.058	1483.447	1198.688
-49.159	48.419	1554.216	1417.186
-48.144	46.133	1566.634	1412.756
-47.130	27.111	1516.091	1238.935
-46.115	24.294	1499.919	1206.632
-45.100	24.171	1496.591	1203.078
-44.086	24.123	1494.756	1201.233
-43.071	24.008	1492.978	1198.978
-42.057	24.072	1491.191	1197.929
-41.042	24.055	1489.576	1196.470
-40.027	24.000	1488.110	1194.878
-39.013	23.971	1486.948	1193.700
-37.998	23.953	1485.824	1192.629
-36.984	24.011	1484.805	1192.154
-35.969	24.055	1482.898	1190.868
-34.954	24.027	1481.074	1189.173
-33.940	23.859	1480.144	1187.256
-32.925	24.015	1478.617	1187.025
-31.911	23.906	1477.791	1185.587
-30.896	23.982	1476.508	1185.014
-29.881	24.005	1475.361	1184.201
-28.867	24.078	1473.982	1183.535
-27.852	24.110	1472.025	1182.126
-26.838	24.073	1471.250	1181.214
-25.823	24.124	1469.701	1180.258
-24.809	24.029	1467.927	1178.157
-23.794	24.058	1466.424	1177.098
-22.779	24.049	1465.567	1176.300
-21.765	24.110	1464.263	1175.614
-20.750	24.063	1463.313	1174.493
-19.736	24.025	1462.123	1173.238
-18.721	23.941	1461.232	1171.927
-17.706	24.037	1460.319	1171.778
-16.692	24.040	1459.091	1170.765
-15.677	24.082	1457.614	1169.812
-14.663	24.107	1457.053	1169.481
-13.648	24.028	1456.207	1168.234
-12.633	24.046	1454.913	1167.270
-11.619	24.075	1454.454	1167.048
-10.604	23.975	1453.624	1165.679
-9.590	23.927	1452.962	1164.785
-8.575	24.012	1451.598	1164.203
-7.560	23.992	1451.087	1163.612
-6.546	23.992	1450.194	1162.850
-5.531	24.005	1449.239	1162.124
-4.517	23.911	1448.361	1160.760
-3.502	23.961	1447.111	1160.042
-2.487	24.016	1446.252	1159.662
-1.473	24.032	1445.303	1158.964
-0.458	24.003	1444.013	1157.693
0.556	23.085	1433.799	1146.282
1.571	19.916	1409.586	1106.596
2.586	16.317	1349.314	1037.120
3.600	14.769	1267.031	964.854
4.615	13.794	1223.703	926.340
5.629	12.047	1167.996	874.776
6.644	6.267	1087.268	785.457
7.659	1.486	1051.446	736.387
8.673	0.821	1045.962	729.279
9.688	0.810	1043.086	727.156
10.702	0.756	1041.459	725.696
11.717	0.723	1039.440	724.067
12.731	2.718	1040.260	734.134
13.746	8.918	1048.804	769.945
14.761	15.068	1056.888	805.483
15.775	17.179	1059.205	817.347
16.790	17.109	1057.287	815.459
17.804	16.174	1055.352	809.413
18.819	15.106	1053.810	803.036
19.834	14.689	1052.175	799.723
20.848	14.437	1051.645	798.046
21.863	14.248	1050.579	796.260
22.877	13.972	1049.981	794.416
23.892	13.793	1048.942	792.705
24.907	13.782	1048.033	791.894
25.921	13.776	1047.232	791.192
26.936	13.739	1047.342	791.030
27.950	13.878	1046.124	790.699
28.965	13.753	1045.370	789.465
29.980	13.860	1044.469	789.222
30.994	13.858	1043.785	788.629
32.009	13.923	1042.599	787.971
33.023	13.891	1042.399	787.598
34.038	13.982	1041.149	787.014
35.053	13.989	1040.272	786.313
36.067	13.945	1039.226	785.247
37.082	13.936	1038.763	784.787
38.096	13.826	1038.365	783.898
39.111	13.990	1037.315	783.806
40.126	13.957	1036.171	782.717
41.140	13.955	1034.958	781.723
42.155	13.851	1033.994	780.436
43.169	13.761	1033.797	779.796
44.184	13.797	1032.407	778.847
45.199	13.775	1031.058	777.656
46.213	13.743	1030.434	776.968
47.228	13.769	1029.213	776.102
48.242	13.838	1028.302	775.666
49.257	13.787	1027.460	774.727
50.271	13.854	1026.391	774.164
51.286	13.817	1025.488	773.245
52.301	13.886	1024.128	772.470
53.315	13.873	1023.977	772.228
54.330	13.860	1022.831	771.236
55.344	13.748	1022.266	770.220
56.359	13.707	1021.180	769.143
57.374	13.846	1020.160	768.950
58.388	13.799	1019.918	768.483
59.403	13.801	1019.014	767.741
60.417	13.738	1017.940	766.572
61.432	13.748	1017.246	766.028
62.447	13.718	1016.682	765.398
63.461	13.677	1015.922	764.571
64.476	13.727	1014.806	763.891
65.490	13.684	1014.197	763.171
66.505	13.597	1013.441	762.131
67.520	13.745	1012.484	762.026
68.534	13.658	1012.019	761.207
69.549	13.718	1011.120	760.738
70.563	13.753	1009.875	759.896
71.578	13.684	1010.005	759.612
72.593	13.774	1008.428	758.771
73.607	13.589	1008.108	757.617
74.622	13.529	1007.256	756.633
75.636	13.690	1005.802	756.207
76.651	13.664	1005.186	755.561
77.666	13.794	1004.476	755.551
78.680	13.755	1003.974	754.930
79.695	13.646	1003.135	753.738
80.709	13.698	1002.521	753.446
81.724	13.692	1002.133	753.059
82.739	13.774	1000.647	752.251
83.753	13.724	1000.561	751.891
84.768	13.923	999.395	751.848
85.782	13.977	998.045	751.009
86.797	13.860	997.929	750.328
87.812	13.906	997.001	749.770
88.826	13.805	996.417	748.809
89.841	13.832	995.235	747.977
90.855	13.871	994.456	747.500
91.870	13.844	993.951	746.936
92.884	13.854	993.698	746.721
93.899	14.044	992.385	746.526
94.914	14.041	991.498	745.776
95.928	13.933	991.075	744.908
96.943	13.825	990.871	744.203
97.957	14.011	989.513	743.954
98.972	14.033	988.679	743.359
99.987	13.985	988.175	742.697
101.001	14.141	987.157	742.565
102.016	13.924	986.632	741.133
103.030	13.936	985.549	740.307
104.045	14.002	984.669	739.877
105.060	14.021	983.699	739.168
106.074	13.980	982.756	738.209
107.089	13.961	981.917	737.432
108.103	13.906	981.269	736.637
109.118	13.846	980.085	735.415
110.133	13.720	979.488	734.345
111.147	13.914	978.433	734.344
112.162	13.809	977.806	733.348
113.176	13.954	976.548	732.977
114.191	13.936	975.907	732.351
115.206	13.928	975.060	731.618
116.220	13.951	974.427	731.181
117.235	13.933	973.427	730.286
118.249	14.049	972.381	729.945
119.264	13.923	971.516	728.676
120.279	13.911	971.123	728.267
121.293	13.837	970.229	727.209
122.308	13.761	969.802	726.491
123.322	13.921	968.660	726.272
124.337	13.790	968.104	725.216
125.352	13.914	966.720	724.656
126.366	13.998	965.206	723.822
127.381	13.840	964.281	722.377
128.395	13.764	963.483	721.387
129.410	13.747	962.467	720.487
130.424	13.823	961.361	719.928
131.439	13.915	960.697	719.762
132.454	13.872	959.698	718.766
133.468	13.969	958.801	718.449
134.483	13.911	958.256	717.728
135.497	13.999	957.803	717.706
136.512	13.923	956.736	716.513
137.527	13.961	956.067	716.113
138.541	13.902	955.303	715.222
139.556	13.902	954.397	714.480
140.570	13.833	953.965	713.800
141.585	13.915	952.977	713.350
142.600	13.911	952.613	712.997
143.614	13.909	951.773	712.295
144.629	14.015	951.175	712.240
145.643	14.102	950.243	711.848
146.658	13.994	950.169	711.268
147.673	14.103	948.517	710.436
148.687	13.968	947.704	709.189
149.702	14.043	947.026	708.939
150.716	13.941	945.968	707.646
151.731	13.986	944.871	706.958
152.746	13.921	944.539	706.367
153.760	13.994	943.858	706.105
154.775	14.144	942.656	705.783
155.789	14.151	942.211	705.416
156.804	14.227	941.397	705.068
157.819	14.137	940.584	704.012
158.833	14.080	940.180	703.407
159.848	14.161	939.711	703.337
160.862	14.226	938.911	702.952
161.877	14.161	937.762	701.753
162.892	14.215	936.868	701.253
163.906	14.175	936.241	700.551
164.921	14.203	935.069	699.728
165.935	14.157	934.769	699.252
166.950	14.210	933.270	698.289
167.964	14.210	932.871	697.929
168.979	14.135	931.560	696.574
169.994	14.109	930.780	695.817
171.008	14.089	929.928	695.037
172.023	14.364	928.770	695.258
173.037	14.223	928.205	694.184
174.052	14.344	927.140	693.832
175.067	14.220	926.966	693.123
176.081	14.257	926.195	692.638
177.096	14.289	925.230	691.991
178.110	14.271	924.666	691.431
179.125	14.235	923.814	690.584
180.140	14.225	923.289	690.091
181.154	14.357	922.361	689.883
182.169	14.340	921.470	689.084
183.183	14.433	921.051	689.093
184.198	14.463	920.146	688.478
185.213	14.217	919.712	687.078
186.227	14.338	919.148	687.097
187.242	14.354	918.561	686.663
188.256	14.451	918.185	686.721
189.271	14.655	916.795	686.457
190.286	14.551	916.370	685.653
191.300	14.403	915.929	684.653
192.315	14.345	914.953	683.624
193.329	14.290	914.182	682.763
194.344	14.342	913.533	682.430
195.359	14.363	913.322	682.297
196.373	14.464	912.668	682.162
197.388	14.513	911.878	681.712
198.402	14.426	911.520	681.030
199.417	14.600	910.915	681.229
200.432	14.589	910.701	680.963
201.446	14.700	910.109	680.913
202.461	14.727	909.753	680.693
203.475	14.657	909.376	680.067
204.490	14.816	908.181	679.759
205.504	14.848	907.308	679.179
206.519	14.700	906.673	678.040
207.534	14.649	906.330	677.518
208.548	14.758	905.207	677.061
209.563	14.805	904.421	676.602
210.577	14.751	903.762	675.831
211.592	14.714	902.963	675.022
212.607	14.770	902.504	674.847
213.621	14.847	902.105	674.799
214.636	14.793	901.395	673.994
215.650	14.907	900.836	673.973
216.665	14.927	899.930	673.318
217.680	14.939	899.523	673.001
218.694	14.909	899.233	672.604
219.709	14.932	898.708	672.245
220.723	14.936	897.880	671.581
221.738	14.888	897.316	670.907
222.753	15.090	895.938	670.628
223.767	15.003	895.763	670.089
224.782	14.882	895.073	669.028
225.796	14.973	894.107	668.612
226.811	15.003	893.637	668.321
227.826	15.055	892.799	667.843
228.840	15.101	892.117	667.454
229.855	14.832	891.958	666.207
230.869	15.117	890.860	666.463
231.884	15.097	890.234	665.853
232.899	14.984	889.803	665.025
233.913	15.105	888.688	664.613
234.928	14.988	888.341	663.831
235.942	15.054	887.349	663.290
236.957	15.061	886.859	662.892
237.972	15.001	886.355	662.223
238.986	15.120	885.758	662.187
240.001	15.175	884.854	661.668
241.015	15.143	884.332	661.096
242.030	15.063	883.720	660.263
243.045	15.001	883.243	659.604
244.059	15.214	882.314	659.688
245.074	15.266	881.874	659.508
246.088	15.206	881.074	658.614
247.103	15.115	881.075	658.200
248.117	15.109	880.564	657.737
249.132	15.259	879.435	657.422
250.147	15.233	878.917	656.877
251.161	15.369	878.215	656.827
252.176	15.352	877.384	656.081
253.190	15.458	876.953	656.113
254.205	15.464	876.420	655.679
255.220	15.489	875.763	655.227
256.234	15.520	875.083	654.781
257.249	15.667	873.861	654.382
258.263	15.625	873.879	654.175
259.278	15.646	872.958	653.509
260.293	15.630	872.589	653.114
261.307	15.629	871.941	652.564
262.322	15.617	871.323	652.000
263.336	15.654	870.883	651.755
264.351	15.686	870.230	651.331
265.366	15.785	869.524	651.132
266.380	15.780	868.915	650.598
267.395	15.782	868.115	649.948
268.409	15.749	867.668	649.430
269.424	15.806	867.201	649.242
270.439	15.755	866.466	648.437
271.453	15.643	865.787	647.442
272.468	15.741	864.632	646.897
273.482	15.779	864.039	646.540
274.497	15.921	863.551	646.664
275.512	15.778	862.967	645.623
276.526	15.802	862.191	645.076
277.541	15.728	861.803	644.446
278.555	15.773	860.747	643.768
279.570	15.878	860.286	643.769
280.585	15.909	859.745	643.426
281.599	15.943	859.587	643.382
282.614	15.963	858.592	642.655
283.628	15.933	858.059	642.085
284.643	15.984	857.647	641.916
285.657	15.931	857.232	641.345
286.672	15.903	856.721	640.798
287.687	16.045	855.589	640.435
288.701	15.962	855.523	640.014
289.716	16.016	854.939	639.728
290.730	16.038	854.382	639.338
291.745	16.105	853.552	638.913
292.760	16.009	853.125	638.172
293.774	16.160	852.241	638.025
294.789	16.234	851.855	637.962
295.803	16.348	851.119	637.786
296.818	16.244	850.348	636.756
297.833	16.189	849.790	636.075
298.847	16.105	849.422	635.428
299.862	16.204	848.700	635.203
300.876	16.304	847.874	634.907
301.891	16.167	847.656	634.172
302.906	16.157	846.818	633.452
303.920	16.263	846.124	633.273
304.935	16.421	845.412	633.277
305.949	16.330	845.174	632.699
306.964	16.440	844.273	632.380
307.979	16.430	844.185	632.224
308.993	16.304	843.300	631.033
310.008	16.490	842.645	631.180
311.022	16.455	841.620	630.227
312.037	16.388	841.780	630.043
313.052	16.395	841.068	629.479
314.066	16.375	840.412	628.858
315.081	16.422	840.169	628.795
316.095	16.553	839.461	628.697
317.110	16.444	838.816	627.754
318.125	16.594	837.754	627.458
319.139	16.460	837.564	626.765
320.154	16.591	837.417	627.086
321.168	16.544	836.610	626.252
322.183	16.523	836.289	625.877
323.197	16.557	835.744	625.542
324.212	16.553	835.048	624.950
325.227	16.563	834.691	624.663
326.241	16.493	834.184	623.971
327.256	16.474	833.582	623.394
328.270	16.570	833.146	623.367
329.285	16.695	832.440	623.246
330.300	16.552	831.827	622.203
331.314	16.618	831.133	621.873
332.329	16.611	830.386	621.234
333.343	16.631	829.941	620.919
334.358	16.571	829.465	620.287
335.373	16.649	828.927	620.117
336.387	16.728	828.200	619.806
337.402	16.766	828.095	619.812
338.416	16.724	827.517	619.171
339.431	16.779	826.811	618.789
340.446	16.903	826.220	618.744
341.460	16.887	825.660	618.211
342.475	16.870	824.847	617.488
343.489	16.895	824.607	617.342
344.504	16.866	824.218	616.893
345.519	16.904	823.356	616.329
346.533	16.995	823.132	616.441
347.548	16.970	822.599	615.895
348.562	17.180	821.766	615.978
349.577	16.914	821.786	614.972
350.592	16.890	821.243	614.425
351.606	17.022	820.298	614.143
352.621	17.018	820.284	614.061
353.635	17.007	819.808	613.611
354.650	17.014	819.563	613.402
355.665	17.055	819.007	613.077
356.679	17.102	818.195	612.586
357.694	16.980	818.014	611.956
358.708	17.086	817.385	611.811
359.723	17.032	816.807	611.134
360.738	17.023	816.458	610.785
361.752	17.167	815.616	610.616
362.767	17.261	815.254	610.630
363.781	17.084	815.285	609.963
364.796	17.234	814.287	609.701
365.810	17.161	814.077	609.228
366.825	17.281	813.601	609.249
367.840	17.254	813.753	609.210
368.854	17.309	812.782	608.626
369.869	17.241	812.484	608.108
370.883	17.243	811.431	607.271
371.898	17.383	810.966	607.372
372.913	17.335	810.569	606.848
373.927	17.428	809.742	606.506
374.942	17.504	809.042	606.201
375.956	17.387	808.689	605.463
376.971	17.512	808.033	605.365
377.986	17.426	807.920	604.919
379.000	17.548	807.101	604.688
380.015	17.461	806.730	604.047
381.029	17.570	806.248	604.020
382.044	17.477	805.749	603.261
383.059	17.662	804.951	603.265
384.073	17.658	804.103	602.562
385.088	17.581	803.893	602.079
386.102	17.731	803.290	602.105
387.117	17.515	802.848	600.958
388.132	17.559	802.626	600.892
389.146	17.644	801.995	600.670
390.161	17.659	801.544	600.330
391.175	17.637	801.253	599.981
392.190	17.685	800.944	599.866
393.205	17.520	800.468	598.875
394.219	17.809	799.876	599.396
395.234	17.595	799.761	598.505
396.248	17.539	799.076	597.742
397.263	17.641	798.850	597.880
398.278	17.433	798.588	596.902
399.292	17.565	798.120	596.962
400.307	17.481	797.819	596.389
401.321	17.725	796.812	596.434
402.336	17.730	796.422	596.111
403.350	17.759	795.808	595.698
404.365	17.808	795.530	595.608
405.380	17.744	795.118	595.022
406.394	17.915	794.725	595.275
407.409	17.853	794.170	594.587
408.423	17.867	793.692	594.226
409.438	17.904	793.332	594.035
410.453	18.013	792.987	594.101
411.467	17.994	792.527	593.640
412.482	18.014	792.147	593.370
413.496	18.060	791.683	593.129
414.511	18.075	791.407	592.923
415.526	18.132	790.741	592.569
416.540	18.014	790.603	592.003
417.555	18.004	790.163	591.587
418.569	18.025	789.780	591.323
419.584	18.009	789.191	590.773
420.599	18.177	788.680	590.918
421.613	115.808	1296.317	1489.289
422.628	99.638	1370.247	1489.344
