DTS Sentinel unit serial number:	SN413079Multiplexer serial number:	ORYXHardware model number:	OX4-SRSoftware version number:	ORYX F/W v4.00 Oryx Data Collector v3.7.2.0data status	okinstallation	princeton_trtdifferential loss correction	single-endedforward channel	channel 3reverse channel	N/Adate	2019/09/15time	18:08:34forward acquisition time	60.00reverse acquisition time	0.00gamma	496.2192k internal	0.2285k external	0.2285temperature offset calibration	0.9928default loss term (dB/km)	0.3790temperature slope calibration	1.0000multiplexer offset coefficient	1.0000multiplexer slope coefficient	1.0000fibre end	0.00T internal ref (°C)	44.62T ext. ref 1 (°C)	6.53T ext. ref 2 (°C)	39.21length (m)	temperature (°C)	Stokes	anti-Stokes-747.200	-130.035	0.315	-0.044
-746.185	-148.110	0.092	-0.008
-745.171	800.000	0.028	-0.099
-744.156	800.000	0.072	0.288
-743.142	145.664	-0.059	0.082
-742.127	116.016	0.150	0.189
-741.112	103.881	-0.114	0.137
-740.098	-200.000	0.011	0.108
-739.083	-18.138	0.196	0.126
-738.069	35.217	-0.221	-0.199
-737.054	-32.158	0.159	-0.091
-736.039	-78.403	-0.538	-0.189
-735.025	-2.537	-0.122	0.087
-734.010	-172.235	-0.347	0.011
-732.996	221.666	-0.144	-0.238
-731.981	344.748	-0.121	0.244
-730.966	-6.690	-0.208	0.145
-729.952	-43.097	0.269	-0.140
-728.937	800.000	0.073	0.234
-727.923	-5.386	-0.232	0.163
-726.908	137.734	-0.287	-0.386
-725.894	310.245	0.134	0.257
-724.879	339.723	0.187	0.374
-723.864	375.968	0.269	0.563
-722.850	-63.963	-0.206	0.086
-721.835	-33.531	-0.084	-0.048
-720.821	800.000	-0.033	-0.125
-719.806	70.896	-0.082	0.087
-718.791	-67.043	-0.167	0.067
-717.777	73.011	-0.226	-0.242
-716.762	-84.558	-0.369	0.119
-715.748	73.492	-0.079	0.085
-714.733	-200.000	-0.003	-0.170
-713.718	-200.000	-0.014	-0.101
-712.704	800.000	-0.019	0.058
-711.689	97.842	0.117	0.138
-710.675	116.427	0.071	-0.090
-709.660	108.529	0.144	-0.176
-708.645	-74.982	0.143	-0.052
-707.631	-40.193	0.307	-0.164
-706.616	-37.681	-0.138	0.075
-705.602	-28.257	-0.184	-0.109
-704.587	-62.250	0.375	0.160
-703.572	-142.806	-0.184	-0.018
-702.558	267.509	0.131	-0.234
-701.543	-71.228	0.144	0.055
-700.529	-51.877	0.148	-0.071
-699.514	-153.242	0.251	0.018
-698.499	800.000	0.027	0.090
-697.485	-13.707	0.178	0.118
-696.470	-66.736	0.131	0.053
-695.456	61.608	-0.144	-0.147
-694.441	-1.953	-0.277	0.200
-693.426	-155.991	-0.020	-0.001
-692.412	-35.955	-0.050	-0.028
-691.397	-200.000	0.028	0.207
-690.383	-200.000	-0.113	0.000
-689.368	-167.904	-0.181	0.007
-688.354	512.006	0.203	0.485
-687.339	-165.681	-0.140	-0.006
-686.324	800.000	-0.079	0.287
-685.310	-200.000	0.003	-0.176
-684.295	-36.526	-0.117	-0.064
-683.281	321.837	0.120	-0.233
-682.266	13.002	0.284	-0.225
-681.251	-168.779	-0.422	0.016
-680.237	-200.000	-0.036	-0.226
-679.222	-200.000	-0.013	-0.148
-678.208	147.225	0.211	-0.291
-677.193	269.054	-0.079	0.142
-676.178	-159.540	0.297	0.017
-675.164	-200.000	0.026	0.257
-674.149	195.866	0.005	-0.008
-673.135	111.262	-0.183	-0.226
-672.120	-200.000	0.056	0.323
-671.105	-54.356	0.322	0.149
-670.091	68.693	0.243	-0.256
-669.076	-200.000	0.060	-0.496
-668.062	-84.312	-0.262	0.085
-667.047	152.045	-0.107	-0.150
-666.032	27.187	-0.097	-0.084
-665.018	155.167	0.210	-0.296
-664.003	-93.573	-0.018	0.005
-662.989	154.074	0.179	-0.251
-661.974	-99.191	0.046	-0.012
-660.959	-200.000	-0.012	-0.165
-659.945	484.971	-0.026	-0.062
-658.930	-200.000	0.035	-0.226
-657.916	-63.402	-0.249	0.105
-656.901	230.202	-0.066	0.110
-655.886	-52.103	0.199	0.095
-654.872	-95.928	-0.154	-0.042
-653.857	19.844	0.292	-0.240
-652.843	-200.000	0.029	0.228
-651.828	394.769	0.112	0.240
-650.814	-200.000	-0.006	0.083
-649.799	-111.232	0.082	0.017
-648.784	-104.603	-0.030	0.007
-647.770	79.245	0.259	-0.284
-646.755	-163.860	0.176	-0.008
-645.741	319.863	0.067	0.130
-644.726	357.704	0.183	0.374
-643.711	800.000	-0.070	-0.283
-642.697	-1.740	-0.291	-0.209
-641.682	-200.000	0.006	-0.187
-640.668	-200.000	-0.085	-0.383
-639.653	-136.529	-0.198	0.023
-638.638	-31.436	-0.106	-0.061
-637.624	10.820	-0.297	0.232
-636.609	148.186	0.038	-0.052
-635.595	182.667	-0.069	-0.104
-634.580	98.925	-0.242	0.286
-633.565	-57.584	0.043	-0.019
-632.551	-111.994	-0.310	0.064
-631.536	69.510	0.327	0.344
-630.522	-200.000	0.007	0.421
-629.507	800.000	-0.077	0.333
-628.492	101.984	-0.127	0.152
-627.478	-12.732	-0.155	-0.103
-626.463	20.190	-0.228	0.188
-625.449	62.206	0.111	0.113
-624.434	129.483	-0.067	-0.087
-623.419	255.366	-0.101	0.177
-622.405	-90.084	0.148	0.044
-621.390	-200.000	0.092	0.000
-620.376	617.567	0.056	0.144
-619.361	-27.512	-0.244	0.145
-618.346	6.948	-0.186	-0.141
-617.332	48.853	-0.106	0.101
-616.317	12.701	0.079	0.062
-615.303	-200.000	-0.038	0.194
-614.288	80.730	0.122	0.134
-613.273	31.562	0.224	-0.197
-612.259	209.056	0.130	-0.208
-611.244	800.000	0.052	-0.215
-610.230	-200.000	0.024	0.116
-609.215	800.000	-0.058	0.198
-608.201	-90.660	-0.170	-0.050
-607.186	489.119	-0.128	0.298
-606.171	-56.249	0.205	-0.093
-605.157	-46.679	-0.343	-0.172
-604.142	-39.757	-0.213	-0.114
-603.128	-6.066	-0.132	-0.092
-602.113	301.810	0.068	0.129
-601.098	224.169	0.073	-0.120
-600.084	-123.722	0.220	0.036
-599.069	72.181	-0.069	-0.074
-598.055	800.000	-0.058	-0.234
-597.040	-58.947	-0.262	-0.116
-596.025	800.000	-0.024	0.071
-595.011	64.121	-0.124	0.127
-593.996	-89.801	-0.395	0.118
-592.982	-73.814	0.197	-0.073
-591.967	235.315	0.103	-0.174
-590.952	28.271	-0.129	-0.112
-589.938	-63.361	0.349	-0.147
-588.923	103.257	-0.178	-0.213
-587.909	781.952	0.096	-0.267
-586.894	-200.000	0.090	-0.442
-585.879	78.143	0.104	0.113
-584.865	800.000	0.127	-0.359
-583.850	71.918	-0.112	-0.118
-582.836	108.435	0.132	0.161
-581.821	256.719	-0.098	-0.172
-580.806	800.000	0.097	0.306
-579.792	-200.000	-0.014	-0.233
-578.777	-134.824	-0.360	0.044
-577.763	389.863	-0.139	0.295
-576.748	800.000	0.044	-0.145
-575.733	-121.802	0.091	-0.015
-574.719	564.639	0.024	0.058
-573.704	-200.000	0.013	-0.066
-572.690	-70.939	0.315	-0.121
-571.675	14.234	0.178	-0.141
-570.661	15.982	-0.128	-0.103
-569.646	-82.947	0.082	-0.027
-568.631	38.307	-0.054	-0.049
-567.617	-200.000	-0.009	-0.135
-566.602	586.127	-0.115	-0.289
-565.588	102.286	0.295	-0.351
-564.573	-200.000	-0.003	0.311
-563.558	-200.000	-0.046	0.228
-562.544	800.000	0.015	-0.057
-561.529	257.849	-0.328	-0.575
-560.515	-200.000	0.010	0.279
-559.500	686.322	-0.040	-0.106
-558.485	-82.003	-0.100	0.033
-557.471	74.583	-0.234	0.251
-556.456	800.000	0.065	0.187
-555.442	-140.448	0.043	0.005
-554.427	-79.108	0.189	-0.065
-553.412	800.000	0.083	-0.349
-552.398	-7.360	0.097	0.067
-551.383	-75.022	-0.398	0.145
-550.369	-121.312	-0.102	-0.017
-549.354	50.447	-0.206	-0.198
-548.339	-106.190	-0.331	0.076
-547.325	41.030	0.235	0.216
-546.310	559.125	0.113	-0.278
-545.296	-15.674	0.217	0.141
-544.281	468.135	-0.110	0.251
-543.266	-200.000	0.053	0.597
-542.252	39.543	-0.147	0.134
-541.237	-112.821	-0.081	-0.016
-540.223	316.345	0.094	0.181
-539.208	-124.561	-0.456	0.072
-538.193	-82.711	0.289	-0.095
-537.179	-96.276	0.276	-0.074
-536.164	-200.000	-0.056	-0.586
-535.150	173.417	0.185	-0.271
-534.135	800.000	-0.032	-0.121
-533.121	94.119	0.163	0.189
-532.106	64.231	-0.134	-0.138
-531.091	-81.521	0.457	-0.153
-530.077	391.002	0.229	-0.483
-529.062	94.929	-0.123	-0.142
-528.048	-67.640	-0.235	-0.094
-527.033	-11.348	-0.122	0.082
-526.018	-27.287	0.231	0.137
-525.004	-65.443	-0.157	0.064
-523.989	-176.466	0.203	-0.005
-522.975	-200.000	-0.010	0.244
-521.960	-200.000	-0.015	-0.208
-520.945	-149.589	-0.190	0.015
-519.931	54.940	0.131	-0.128
-518.916	29.492	0.183	0.158
-517.902	572.166	-0.108	0.267
-516.887	18.313	0.185	0.150
-515.872	165.996	0.234	0.337
-514.858	135.987	0.137	-0.182
-513.843	800.000	-0.079	-0.295
-512.829	276.454	0.104	0.188
-511.814	-200.000	-0.006	-0.114
-510.799	800.000	-0.146	-0.416
-509.785	448.354	0.109	0.243
-508.770	740.555	-0.098	0.266
-507.756	-51.583	-0.224	0.106
-506.741	30.578	-0.252	-0.219
-505.726	-8.388	0.034	0.024
-504.712	-200.000	0.002	-0.082
-503.697	70.554	0.174	-0.183
-502.683	24.264	0.170	0.142
-501.668	252.042	-0.107	-0.185
-500.653	-144.238	0.116	0.011
-499.639	800.000	0.061	0.249
-498.624	-89.552	-0.526	-0.157
-497.610	-200.000	-0.001	0.024
-496.595	-113.660	0.179	0.036
-495.581	93.612	-0.099	-0.114
-494.566	391.781	-0.066	-0.140
-493.551	9.007	0.100	0.076
-492.537	43.608	-0.112	-0.104
-491.522	209.551	0.184	0.294
-490.508	60.323	-0.131	-0.132
-489.493	-81.416	-0.116	0.039
-488.478	-70.123	-0.208	-0.080
-487.464	-109.327	-0.019	-0.004
-486.449	-143.745	-0.211	0.020
-485.435	348.587	-0.194	0.389
-484.420	43.154	0.135	0.125
-483.405	5.979	-0.391	-0.294
-482.391	-200.000	-0.057	-0.275
-481.376	1.385	0.242	-0.177
-480.362	-111.552	-0.454	-0.094
-479.347	228.463	-0.021	-0.034
-478.332	-200.000	-0.028	-0.205
-477.318	-200.000	0.048	0.365
-476.303	-103.127	0.099	-0.024
-475.289	-63.924	-0.241	0.100
-474.274	-14.743	-0.059	-0.038
-473.259	103.418	-0.082	-0.097
-472.245	-55.394	0.254	0.116
-471.230	-200.000	0.008	0.135
-470.216	-126.877	-0.465	0.070
-469.201	800.000	0.034	0.098
-468.186	-165.704	0.108	0.005
-467.172	-98.628	-0.148	0.038
-466.157	91.291	-0.162	-0.185
-465.143	800.000	0.020	-0.085
-464.128	-101.582	-0.151	0.037
-463.113	69.653	-0.320	0.334
-462.099	74.575	0.140	-0.149
-461.084	5.009	-0.074	-0.055
-460.070	-4.454	-0.131	0.092
-459.055	-200.000	-0.029	-0.218
-458.040	288.487	0.007	0.014
-457.026	-200.000	0.017	0.174
-456.011	-79.706	-0.357	-0.122
-454.997	17.354	-0.063	0.051
-453.982	5.204	0.192	-0.144
-452.968	54.632	0.217	-0.212
-451.953	-200.000	0.059	-0.304
-450.938	-66.003	0.173	-0.070
-449.924	-47.009	0.153	-0.076
-448.909	505.340	-0.014	0.033
-447.895	-200.000	-0.005	0.132
-446.880	800.000	0.126	0.459
-445.865	-68.930	-0.365	0.143
-444.851	-2.315	-0.040	0.029
-443.836	800.000	-0.031	-0.119
-442.822	-14.789	0.103	0.067
-441.807	-142.975	-0.331	0.032
-440.792	132.766	0.091	-0.118
-439.778	67.439	-0.210	-0.217
-438.763	-200.000	0.023	-0.217
-437.749	782.133	-0.100	-0.277
-436.734	-39.634	0.173	-0.092
-435.719	241.809	0.067	0.113
-434.705	800.000	-0.064	0.183
-433.690	135.660	0.186	0.245
-432.676	-82.311	0.287	0.095
-431.661	-58.225	-0.135	0.060
-430.646	-24.272	-0.260	0.157
-429.632	797.036	0.105	0.295
-428.617	215.269	0.134	0.216
-427.603	-200.000	0.032	-0.430
-426.588	-13.884	-0.285	-0.187
-425.573	367.683	0.067	-0.138
-424.559	120.556	-0.126	-0.159
-423.544	800.000	0.085	0.264
-422.530	800.000	-0.042	0.169
-421.515	148.253	0.094	-0.129
-420.500	-200.000	-0.011	0.166
-419.486	-71.799	-0.130	0.049
-418.471	16.633	0.081	-0.065
-417.457	-97.720	0.285	-0.075
-416.442	292.609	-0.111	0.205
-415.428	-200.000	0.021	-0.258
-414.413	292.382	-0.101	0.186
-413.398	-84.336	0.383	-0.123
-412.384	319.480	-0.238	0.457
-411.369	800.000	-0.088	0.318
-410.355	-200.000	0.013	0.188
-409.340	64.859	0.255	0.261
-408.325	-200.000	0.021	-0.260
-407.311	-83.997	-0.266	0.086
-406.296	-117.231	0.337	0.062
-405.282	789.532	-0.056	-0.157
-404.267	183.039	-0.113	-0.169
-403.252	-14.318	-0.214	-0.140
-402.238	46.864	0.140	0.132
-401.223	-12.131	-0.294	0.195
-400.209	-77.820	-0.286	-0.100
-399.194	-62.454	-0.086	-0.036
-398.179	-137.873	0.407	-0.046
-397.165	93.602	0.148	0.170
-396.150	155.732	-0.038	0.053
-395.136	354.820	0.053	-0.106
-394.121	700.729	-0.020	-0.053
-393.106	-200.000	-0.040	-0.240
-392.092	-181.383	0.044	0.001
-391.077	800.000	-0.059	0.180
-390.063	-40.326	0.248	0.130
-389.048	45.295	-0.116	-0.109
-388.033	-200.000	-0.060	0.317
-387.019	-200.000	0.015	0.110
-386.004	-200.000	0.013	0.125
-384.990	365.926	-0.033	-0.068
-383.975	588.698	0.061	0.151
-382.960	145.978	-0.124	-0.168
-381.946	800.000	0.014	0.042
-380.931	-9.537	-0.103	0.070
-379.917	-44.445	0.261	-0.132
-378.902	-127.381	0.339	-0.050
-377.888	49.343	0.204	-0.194
-376.873	-200.000	-0.018	-0.208
-375.858	425.303	-0.206	0.448
-374.844	-200.000	0.016	0.297
-373.829	-200.000	0.039	-0.218
-372.815	-200.000	0.036	-0.346
-371.800	127.037	-0.165	0.211
-370.785	800.000	-0.042	-0.138
-369.771	289.116	-0.092	-0.169
-368.756	-200.000	-0.012	-0.381
-367.742	-200.000	0.007	0.086
-366.727	-200.000	-0.053	-0.319
-365.712	-98.778	-0.118	-0.030
-364.698	-200.000	-0.005	0.094
-363.683	-148.447	0.105	0.009
-362.669	-31.230	-0.197	-0.113
-361.654	-83.738	0.146	0.047
-360.639	45.912	-0.027	0.025
-359.625	108.304	-0.187	-0.226
-358.610	605.732	-0.142	0.359
-357.596	40.866	0.276	-0.252
-356.581	-32.600	-0.039	-0.022
-355.566	-200.000	0.023	0.224
-354.552	800.000	0.066	0.250
-353.537	11.643	0.210	0.163
-352.523	800.000	-0.046	0.169
-351.508	255.328	0.218	-0.377
-350.493	-200.000	-0.020	-0.267
-349.479	-200.000	-0.001	-0.146
-348.464	276.394	-0.135	-0.243
-347.450	-92.111	-0.295	0.084
-346.435	458.021	0.205	-0.460
-345.420	27.019	-0.183	0.155
-344.406	70.649	0.234	0.245
-343.391	-121.391	-0.130	-0.022
-342.377	-88.577	-0.035	0.010
-341.362	-200.000	0.030	-0.169
-340.348	-116.532	-0.174	0.032
-339.333	-30.617	0.417	-0.239
-338.318	-161.150	-0.102	0.005
-337.304	-66.281	0.062	-0.025
-336.289	-200.000	0.046	0.412
-335.275	-102.499	-0.315	0.076
-334.260	-3.363	0.245	-0.172
-333.245	141.259	-0.104	-0.139
-332.231	-191.582	-0.057	-0.001
-331.216	-106.652	0.183	0.041
-330.202	11.620	-0.258	0.200
-329.187	-0.868	0.175	-0.125
-328.172	81.916	-0.224	0.246
-327.158	-200.000	-0.017	-0.189
-326.143	63.851	0.147	-0.149
-325.129	-75.487	0.289	-0.104
-324.114	-47.291	-0.242	-0.119
-323.099	-200.000	0.004	-0.080
-322.085	-136.135	-0.268	0.032
-321.070	87.915	-0.290	-0.325
-320.056	-77.782	0.300	-0.105
-319.041	-200.000	-0.038	-0.269
-318.026	-154.037	-0.456	-0.031
-317.012	379.554	-0.024	0.049
-315.997	-130.983	0.378	-0.051
-314.983	390.069	0.196	-0.411
-313.968	334.605	-0.045	0.088
-312.953	-99.644	-0.228	0.058
-311.939	-200.000	0.017	-0.189
-310.924	-37.866	-0.278	0.149
-309.910	-200.000	0.007	-0.085
-308.895	371.991	-0.081	-0.166
-307.880	-110.260	0.121	-0.025
-306.866	68.760	-0.155	-0.161
-305.851	-37.080	0.121	-0.065
-304.837	-75.537	0.246	0.088
-303.822	180.229	0.134	-0.198
-302.807	-7.825	0.231	0.158
-301.793	-82.624	0.072	-0.024
-300.778	-0.688	0.044	-0.031
-299.764	133.862	0.058	-0.075
-298.749	-107.085	0.366	-0.081
-297.735	-200.000	-0.015	0.115
-296.720	-33.437	-0.112	-0.063
-295.705	-25.546	-0.318	0.189
-294.691	462.511	0.206	0.464
-293.676	-200.000	0.047	0.252
-292.662	18.250	-0.080	0.065
-291.647	-13.811	0.294	-0.192
-290.632	142.535	0.020	-0.027
-289.618	-200.000	0.003	-0.032
-288.603	469.068	0.066	-0.150
-287.589	-13.108	-0.366	0.240
-286.574	800.000	0.159	0.442
-285.559	-52.520	-0.144	-0.067
-284.545	-119.612	-0.213	-0.037
-283.530	145.063	-0.116	0.156
-282.516	-52.228	0.064	-0.030
-281.501	-200.000	-0.004	-0.072
-280.486	464.764	0.027	-0.061
-279.472	53.026	0.241	-0.232
-278.457	171.636	-0.022	-0.032
-277.443	19.281	0.210	0.170
-276.428	-25.873	0.194	0.115
-275.413	-200.000	0.050	-0.303
-274.399	-85.827	0.297	-0.093
-273.384	178.781	0.044	0.065
-272.370	43.463	-0.144	-0.133
-271.355	-183.460	0.468	0.008
-270.340	-109.719	-0.232	-0.049
-269.326	3.148	-0.314	0.230
-268.311	-200.000	-0.036	-0.344
-267.297	46.951	0.113	-0.106
-266.282	8.996	-0.192	0.146
-265.267	41.692	0.211	0.192
-264.253	-41.289	-0.174	0.091
-263.238	37.444	-0.097	-0.087
-262.224	-103.568	0.114	-0.027
-261.209	-27.442	0.020	-0.012
-260.195	-104.065	0.058	-0.014
-259.180	175.585	0.120	0.176
-258.165	4.860	-0.156	-0.115
-257.151	640.382	0.141	0.361
-256.136	105.020	0.241	0.286
-255.122	-200.000	0.011	0.101
-254.107	-200.000	0.007	0.173
-253.092	93.798	0.046	-0.052
-252.078	-200.000	0.039	-0.274
-251.063	98.202	-0.191	-0.222
-250.049	23.846	0.112	-0.093
-249.034	-200.000	-0.019	0.199
-248.019	-49.678	0.202	0.097
-247.005	-77.477	0.369	0.129
-245.990	-113.505	0.175	-0.034
-244.976	-124.978	-0.059	0.009
-243.961	-200.000	0.018	0.330
-242.946	-200.000	0.059	-0.279
-241.932	800.000	0.067	-0.242
-240.917	211.104	0.028	-0.045
-239.903	-200.000	-0.036	0.500
-238.888	231.756	-0.039	-0.064
-237.873	-139.094	0.146	-0.016
-236.859	26.545	-0.023	0.020
-235.844	-122.466	-0.330	0.054
-234.830	454.241	-0.132	-0.295
-233.815	800.000	0.021	-0.067
-232.800	-25.290	0.208	-0.124
-231.786	-35.604	0.231	-0.126
-230.771	-89.484	0.434	0.128
-229.757	726.318	0.107	-0.288
-228.742	21.289	-0.191	0.156
-227.727	-11.667	0.067	0.044
-226.713	104.790	0.221	0.262
-225.698	800.000	0.025	-0.094
-224.684	-39.804	0.253	0.133
-223.669	800.000	-0.062	-0.265
-222.655	-200.000	0.051	0.244
-221.640	272.885	-0.074	-0.132
-220.625	-59.882	0.295	-0.127
-219.611	28.742	-0.230	-0.196
-218.596	800.000	0.099	0.276
-217.582	-13.953	0.112	-0.073
-216.567	-21.388	-0.137	-0.084
-215.552	-8.279	0.257	-0.174
-214.538	-125.109	0.171	-0.026
-213.523	314.157	0.145	-0.274
-212.509	172.824	-0.053	0.077
-211.494	49.643	0.144	-0.136
-210.479	3.938	0.207	-0.152
-209.465	-200.000	-0.013	0.145
-208.450	-200.000	-0.018	0.126
-207.436	-200.000	0.025	0.157
-206.421	-200.000	-0.020	-0.190
-205.406	-30.013	-0.102	0.058
-204.392	-91.598	0.312	0.089
-203.377	650.337	-0.088	-0.228
-202.363	338.400	0.163	-0.320
-201.348	480.573	0.074	-0.169
-200.333	41.244	0.039	0.035
-199.319	142.001	-0.174	-0.231
-198.304	-35.157	0.107	0.058
-197.290	382.860	0.146	0.301
-196.275	243.738	0.255	0.429
-195.260	-18.369	-0.214	-0.134
-194.246	39.525	0.235	0.212
-193.231	-190.076	-0.092	0.001
-192.217	-200.000	0.062	0.498
-191.202	-200.000	0.009	0.274
-190.187	259.440	0.032	0.056
-189.173	-200.000	0.002	0.029
-188.158	-200.000	0.022	0.170
-187.144	-94.220	0.228	-0.063
-186.129	398.028	-0.059	0.124
-185.114	-35.296	-0.153	0.083
-184.100	43.857	0.140	0.129
-183.085	800.000	-0.073	0.312
-182.071	217.278	0.204	0.327
-181.056	-200.000	-0.028	0.360
-180.042	-200.000	-0.019	-0.293
-179.027	800.000	-0.086	-0.293
-178.012	-200.000	0.002	0.114
-176.998	-200.000	-0.027	0.259
-175.983	-200.000	-0.015	0.253
-174.969	-200.000	-0.012	0.198
-173.954	-94.591	0.273	-0.075
-172.939	-49.791	-0.041	0.019
-171.925	133.225	0.053	-0.068
-170.910	106.466	-0.042	-0.051
-169.896	-19.669	-0.228	0.141
-168.881	-120.109	-0.217	0.037
-167.866	800.000	0.033	0.118
-166.852	6.387	0.065	0.048
-165.837	565.586	-0.066	0.161
-164.823	202.416	0.109	-0.169
-163.808	-93.874	-0.086	0.024
-162.793	-61.336	-0.066	-0.028
-161.779	-119.558	-0.099	-0.017
-160.764	-200.000	-0.045	0.282
-159.750	19.627	-0.201	0.162
-158.735	-119.030	-0.310	0.054
-157.720	-7.883	0.059	-0.040
-156.706	-44.127	0.094	0.047
-155.691	-200.000	0.041	-0.195
-154.677	-67.763	-0.218	-0.086
-153.662	710.672	-0.078	0.208
-152.647	-120.850	0.019	-0.003
-151.633	-35.572	-0.088	-0.048
-150.618	-55.955	0.133	0.060
-149.604	800.000	0.038	0.142
-148.589	-139.323	0.202	0.022
-147.574	27.360	0.256	0.215
-146.560	355.334	-0.063	-0.126
-145.545	208.221	-0.247	-0.387
-144.531	-64.633	-0.285	0.116
-143.516	-200.000	-0.012	0.330
-142.502	302.141	0.080	0.149
-141.487	-46.542	-0.163	-0.080
-140.472	-71.681	0.194	0.073
-139.458	-166.465	0.074	-0.003
-138.443	-156.050	0.374	0.024
-137.429	-107.291	-0.073	-0.016
-136.414	273.285	0.059	0.104
-135.399	-32.289	-0.106	0.059
-134.385	800.000	-0.046	0.130
-133.370	-200.000	0.058	0.568
-132.356	-127.036	-0.283	0.042
-131.341	382.832	0.100	0.205
-130.326	-89.362	0.105	0.031
-129.312	-200.000	-0.005	-0.135
-128.297	-93.682	0.153	-0.042
-127.283	518.728	0.132	0.310
-126.268	800.000	-0.114	0.380
-125.253	329.319	0.091	0.175
-124.239	-187.062	0.269	0.004
-123.224	800.000	0.065	-0.207
-122.210	-55.148	0.191	-0.086
-121.195	-179.534	0.304	-0.007
-120.180	325.478	0.139	-0.267
-119.166	800.000	-0.094	0.323
-118.151	-200.000	0.069	0.355
-117.137	116.254	0.158	-0.194
-116.122	-27.068	0.420	0.246
-115.107	-48.989	-0.174	0.083
-114.093	-54.161	-0.300	-0.137
-113.078	146.781	-0.298	-0.401
-112.064	114.962	0.116	0.142
-111.049	212.643	0.082	0.129
-110.034	359.360	0.013	-0.027
-109.020	800.000	0.104	0.317
-108.005	-101.132	0.400	0.098
-106.991	-200.000	-0.009	0.214
-105.976	29.018	-0.197	0.167
-104.962	245.371	0.073	0.124
-103.947	263.611	-0.139	0.242
-102.932	-41.240	0.220	0.113
-101.918	207.300	-0.140	0.219
-100.903	210.243	0.056	0.088
-99.889	-28.193	0.164	-0.095
-98.874	-200.000	-0.036	0.189
-97.859	28.847	0.240	0.203
-96.845	37.762	0.106	-0.094
-95.830	49.298	0.316	-0.297
-94.816	4.563	0.142	-0.105
-93.801	-68.331	-0.228	-0.089
-92.786	121.205	0.081	0.101
-91.772	404.756	0.120	0.253
-90.757	-200.000	0.027	0.249
-89.743	143.615	-0.129	-0.172
-88.728	288.397	-0.021	-0.038
-87.713	-200.000	-0.016	-0.286
-86.699	-121.313	0.319	-0.053
-85.684	-200.000	-0.012	-0.107
-84.670	-200.000	0.006	0.135
-83.655	-200.000	0.038	-0.179
-82.640	-58.814	-0.255	0.110
-81.626	649.422	0.083	0.213
-80.611	31.910	0.201	0.173
-79.597	379.829	0.045	0.093
-78.582	-13.264	0.145	0.094
-77.567	131.761	0.154	-0.198
-76.553	15.198	-0.133	-0.104
-75.538	-200.000	-0.028	0.410
-74.524	800.000	0.038	0.164
-73.509	-200.000	-0.036	0.220
-72.494	-200.000	-0.053	-0.234
-71.480	-200.000	0.059	-0.259
-70.465	-61.988	0.142	-0.059
-69.451	800.000	-0.081	0.299
-68.436	-200.000	-0.005	-0.198
-67.422	147.504	-0.179	0.241
-66.407	800.000	0.094	0.346
-65.392	3.330	0.288	0.209
-64.378	-197.058	0.117	0.001
-63.363	-104.949	0.274	0.063
-62.349	427.657	0.091	0.197
-61.334	132.785	-0.564	-0.728
-60.319	292.828	0.332	0.605
-59.305	800.000	0.131	-0.572
-58.290	81.788	0.525	0.568
-57.276	505.117	0.653	1.512
-56.261	-200.000	69.999	523.847
-55.246	598.789	1247.015	3090.379
-54.232	143.515	2489.873	3313.153
-53.217	120.347	2249.782	2790.849
-52.203	56.198	1774.710	1722.003
-51.188	48.117	1567.474	1464.301
-50.173	45.290	1536.192	1415.477
-49.159	60.324	1568.233	1550.106
-48.144	68.136	1589.193	1625.180
-47.130	48.811	1553.566	1455.918
-46.115	44.987	1539.532	1416.226
-45.100	44.663	1536.916	1411.515
-44.086	44.554	1535.251	1409.173
-43.071	44.617	1532.273	1406.822
-42.057	44.496	1531.254	1404.996
-41.042	44.533	1529.174	1403.283
-40.027	44.550	1528.045	1402.314
-39.013	44.560	1526.350	1400.772
-37.998	44.548	1525.204	1399.583
-36.984	44.610	1524.173	1399.003
-35.969	44.604	1523.106	1397.926
-34.954	44.650	1521.063	1396.310
-33.940	44.699	1519.557	1395.208
-32.925	44.667	1518.141	1393.639
-31.911	44.647	1516.554	1391.989
-30.896	44.630	1515.506	1390.851
-29.881	44.701	1513.514	1389.453
-28.867	44.733	1512.163	1388.375
-27.852	44.802	1510.921	1387.653
-26.838	44.742	1509.384	1385.775
-25.823	44.657	1507.419	1383.342
-24.809	44.622	1505.870	1381.625
-23.794	44.732	1504.228	1380.813
-22.779	44.644	1503.121	1379.142
-21.765	44.572	1502.273	1377.822
-20.750	44.635	1500.942	1376.973
-19.736	44.633	1500.228	1376.251
-18.721	44.636	1499.052	1375.141
-17.706	44.622	1497.578	1373.639
-16.692	44.665	1496.682	1373.048
-15.677	44.555	1495.675	1371.329
-14.663	44.669	1494.405	1370.881
-13.648	44.593	1493.800	1369.760
-12.633	44.605	1492.779	1368.848
-11.619	44.585	1491.849	1367.805
-10.604	44.532	1491.320	1366.910
-9.590	44.514	1490.918	1366.371
-8.575	44.590	1489.371	1365.404
-7.560	44.582	1488.704	1364.687
-6.546	44.609	1487.432	1363.647
-5.531	44.673	1486.396	1363.076
-4.517	44.624	1485.425	1361.801
-3.502	44.544	1484.386	1360.255
-2.487	44.560	1482.967	1359.012
-1.473	44.586	1481.796	1358.058
-0.458	44.603	1480.743	1357.151
0.556	42.539	1471.834	1347.022
1.571	39.444	1442.827	1299.968
2.586	34.288	1378.522	1209.295
3.600	31.117	1293.422	1115.619
4.615	28.584	1243.644	1058.002
5.629	24.483	1187.564	987.571
6.644	15.506	1099.900	868.376
7.659	8.039	1053.542	794.590
8.673	6.776	1047.287	783.537
9.688	6.532	1044.832	780.423
10.702	6.447	1043.113	778.650
11.717	6.366	1041.432	776.931
12.731	9.347	1044.889	794.175
13.746	16.677	1055.184	838.360
14.761	19.981	1057.985	856.890
15.775	18.309	1054.702	845.898
16.790	16.978	1051.922	837.030
17.804	15.669	1049.694	828.735
18.819	14.558	1048.505	822.249
19.834	14.155	1046.928	818.960
20.848	13.911	1045.393	816.485
21.863	13.608	1044.579	814.290
22.877	13.425	1044.013	812.875
23.892	13.182	1043.199	810.979
24.907	13.117	1042.548	810.082
25.921	13.156	1041.547	809.421
26.936	13.082	1041.130	808.663
27.950	13.128	1039.643	807.662
28.965	13.143	1038.817	807.026
29.980	13.256	1037.366	806.374
30.994	13.299	1036.011	805.462
32.009	13.322	1035.729	805.280
33.023	13.450	1034.505	804.884
34.038	13.354	1034.141	804.061
35.053	13.425	1032.553	803.100
36.067	13.231	1032.553	802.087
37.082	13.262	1031.310	801.198
38.096	13.169	1030.706	800.210
39.111	13.271	1029.900	800.009
40.126	13.414	1028.645	799.654
41.140	13.257	1028.278	798.538
42.155	13.193	1026.728	796.953
43.169	13.016	1026.335	795.726
44.184	13.065	1024.918	794.795
45.199	13.112	1023.627	793.946
46.213	13.074	1023.032	793.231
47.228	13.081	1021.852	792.281
48.242	13.192	1020.937	792.033
49.257	13.298	1020.074	791.802
50.271	13.243	1018.850	790.519
51.286	13.187	1018.352	789.794
52.301	13.112	1018.116	789.184
53.315	13.272	1016.803	788.862
54.330	13.243	1015.934	787.976
55.344	13.088	1014.777	786.273
56.359	13.142	1013.637	785.577
57.374	13.169	1013.139	785.252
58.388	13.192	1012.201	784.562
59.403	13.069	1011.418	783.302
60.417	13.017	1010.696	782.428
61.432	13.104	1010.107	782.314
62.447	13.005	1009.454	781.273
63.461	12.998	1008.439	780.381
64.476	12.962	1007.743	779.607
65.490	13.015	1006.434	778.773
66.505	12.946	1006.201	778.199
67.520	12.938	1005.122	777.257
68.534	12.925	1004.503	776.650
69.549	13.078	1003.742	776.712
70.563	13.086	1002.708	775.882
71.578	13.054	1002.164	775.242
72.593	13.019	1001.337	774.367
73.607	12.936	1000.728	773.440
74.622	12.862	999.769	772.284
75.636	12.913	998.721	771.644
76.651	12.908	997.883	770.905
77.666	12.896	997.009	770.104
78.680	12.870	996.250	769.332
79.695	12.845	995.962	768.923
80.709	12.894	995.613	768.813
81.724	12.980	994.270	768.110
82.739	13.028	993.778	767.885
83.753	13.137	992.913	767.655
84.768	13.251	992.200	767.566
85.782	13.271	991.483	767.033
86.797	13.383	990.687	766.869
87.812	13.344	989.830	765.960
88.826	13.204	989.482	764.975
89.841	13.120	988.419	763.698
90.855	13.177	987.425	763.123
91.870	13.251	987.084	763.135
92.884	13.361	986.590	763.191
93.899	13.395	985.312	762.292
94.914	13.381	984.667	761.664
95.928	13.342	984.146	761.011
96.943	13.411	983.179	760.516
97.957	13.320	982.468	759.479
98.972	13.312	981.676	758.764
99.987	13.296	981.095	758.173
101.001	13.376	980.008	757.633
102.016	13.290	979.420	756.715
103.030	13.319	978.337	755.944
104.045	13.288	977.271	754.913
105.060	13.407	976.071	754.462
106.074	13.309	975.793	753.734
107.089	13.161	974.695	752.144
108.103	13.058	973.970	751.051
109.118	13.101	972.931	750.381
110.133	13.001	972.150	749.254
111.147	13.098	971.252	748.939
112.162	13.139	970.303	748.324
113.176	13.076	969.570	747.409
114.191	13.039	968.744	746.540
115.206	13.234	967.911	746.712
116.220	13.209	967.159	745.953
117.235	13.146	966.510	745.103
118.249	13.121	965.350	744.031
119.264	13.144	964.224	743.197
120.279	13.172	963.545	742.735
121.293	13.070	962.963	741.763
122.308	13.029	962.072	740.826
123.322	13.002	961.464	740.173
124.337	12.956	960.241	738.957
125.352	12.988	959.176	738.216
126.366	13.086	957.995	737.683
127.381	12.995	957.024	736.462
128.395	12.989	956.249	735.774
129.410	12.992	954.959	734.731
130.424	13.153	954.308	734.878
131.439	13.230	953.485	734.523
132.454	13.321	952.537	734.132
133.468	13.186	951.982	733.041
134.483	13.323	951.268	733.033
135.497	13.248	950.998	732.429
136.512	13.231	949.930	731.466
137.527	13.257	949.163	730.924
138.541	13.220	949.077	730.630
139.556	13.055	948.559	729.440
140.570	13.257	947.538	729.481
141.585	13.244	946.105	728.254
142.600	13.358	945.595	728.299
143.614	13.418	945.131	728.143
144.629	13.489	944.312	727.760
145.643	13.414	943.457	726.708
146.658	13.591	942.511	726.690
147.673	13.544	941.637	725.744
148.687	13.407	940.876	724.493
149.702	13.334	939.887	723.348
150.716	13.344	938.954	722.610
151.731	13.186	938.533	721.535
152.746	13.398	937.382	721.508
153.760	13.193	936.978	720.240
154.775	13.342	936.101	720.153
155.789	13.311	935.068	719.159
156.804	13.517	934.281	719.384
157.819	13.365	933.826	718.310
158.833	13.321	933.132	717.522
159.848	13.346	932.494	717.079
160.862	13.503	931.948	717.274
161.877	13.368	931.451	716.245
162.892	13.392	930.337	715.428
163.906	13.247	929.318	713.956
164.921	13.327	928.657	713.729
165.935	13.282	927.575	712.641
166.950	13.450	926.891	712.775
167.964	13.346	925.949	711.538
168.979	13.487	924.833	711.226
169.994	13.335	924.112	709.954
171.008	13.393	923.476	709.653
172.023	13.369	922.483	708.726
173.037	13.441	921.412	708.146
174.052	13.395	921.190	707.715
175.067	13.557	919.901	707.357
176.081	13.459	919.474	706.547
177.096	13.399	918.411	705.412
178.110	13.414	917.721	704.880
179.125	13.495	916.724	704.401
180.140	13.496	916.036	703.814
181.154	13.459	915.516	703.192
182.169	13.492	915.107	702.955
183.183	13.641	914.265	702.880
184.198	13.555	913.878	702.155
185.213	13.693	913.335	702.260
186.227	13.629	912.412	701.220
187.242	13.592	912.285	700.903
188.256	13.667	911.392	700.470
189.271	13.742	910.315	699.899
190.286	13.720	909.930	699.448
191.300	13.507	909.399	698.078
192.315	13.519	908.329	697.248
193.329	13.412	907.364	695.995
194.344	13.358	907.113	695.514
195.359	13.412	906.670	695.339
196.373	13.621	905.881	695.549
197.388	13.662	905.255	695.179
198.402	13.729	904.626	694.915
199.417	13.729	904.999	695.142
200.432	13.853	904.144	694.940
201.446	13.931	903.982	695.082
202.461	13.834	903.395	694.163
203.475	13.879	902.793	693.826
204.490	14.097	902.006	694.073
205.504	13.920	901.098	692.575
206.519	13.908	900.158	691.740
207.534	13.818	900.015	691.193
208.548	13.805	899.245	690.486
209.563	13.874	898.031	689.780
210.577	13.858	898.192	689.775
211.592	13.817	896.979	688.615
212.607	13.963	896.660	688.912
213.621	14.064	895.850	688.647
214.636	13.998	895.135	687.763
215.650	14.085	894.260	687.389
216.665	14.049	893.938	686.934
217.680	13.991	893.798	686.526
218.694	13.995	893.198	686.021
219.709	14.114	892.822	686.164
220.723	14.181	891.760	685.560
221.738	14.135	891.336	684.987
222.753	14.162	890.101	684.087
223.767	14.178	889.472	683.611
224.782	14.194	888.894	683.170
225.796	14.140	888.070	682.254
226.811	14.315	887.490	682.465
227.826	14.311	886.942	681.967
228.840	14.225	886.099	680.906
229.855	14.238	885.440	680.393
230.869	14.128	885.193	679.697
231.884	14.206	884.481	679.405
232.899	14.168	883.626	678.536
233.913	14.208	882.662	677.897
234.928	14.198	882.195	677.437
235.942	14.223	881.318	676.805
236.957	14.108	880.822	675.898
237.972	14.167	880.057	675.492
238.986	14.115	879.629	674.889
240.001	14.158	878.981	674.507
241.015	14.136	878.263	673.809
242.030	14.161	877.738	673.446
243.045	14.118	877.256	672.845
244.059	14.280	876.423	672.799
245.074	14.351	875.520	672.335
246.088	14.383	874.957	671.971
247.103	14.298	874.736	671.402
248.117	14.374	873.952	671.043
249.132	14.538	873.558	671.342
250.147	14.538	872.703	670.625
251.161	14.576	872.679	670.701
252.176	14.641	871.657	670.118
253.190	14.656	871.083	669.677
254.205	14.726	870.476	669.430
255.220	14.689	870.011	668.865
256.234	14.806	869.151	668.615
257.249	14.887	868.573	668.436
258.263	14.807	868.023	667.633
259.278	14.705	867.627	666.862
260.293	14.817	866.793	666.610
261.307	14.887	866.259	666.419
262.322	14.939	865.504	665.985
263.336	14.927	865.123	665.585
264.351	14.834	864.550	664.716
265.366	15.049	863.748	664.894
266.380	14.997	863.383	664.348
267.395	15.075	862.396	663.839
268.409	14.943	861.897	662.874
269.424	14.986	860.829	662.164
270.439	14.927	860.272	661.442
271.453	15.028	859.697	661.341
272.468	14.938	859.024	660.409
273.482	14.926	858.351	659.786
274.497	14.922	858.080	659.504
275.512	15.005	856.769	658.767
276.526	14.819	856.775	657.977
277.541	14.935	856.041	657.812
278.555	14.880	855.481	657.108
279.570	15.049	854.555	657.004
280.585	14.987	854.478	656.641
281.599	15.166	853.451	656.497
282.614	15.177	852.729	655.926
283.628	15.173	852.660	655.799
284.643	15.000	851.825	654.421
285.657	15.107	851.488	654.524
286.672	15.152	850.803	654.114
287.687	15.215	850.209	653.848
288.701	15.279	849.859	653.768
289.716	15.065	849.370	652.502
290.730	15.157	848.675	652.268
291.745	15.229	848.147	652.085
292.760	15.325	847.102	651.596
293.774	15.094	846.817	650.424
294.789	15.363	846.328	651.032
295.803	15.250	845.903	650.208
296.818	15.216	845.031	649.349
297.833	15.242	844.467	648.962
298.847	15.266	843.498	648.251
299.862	15.230	842.929	647.618
300.876	15.207	842.524	647.162
301.891	15.342	841.911	647.154
302.906	15.342	841.474	646.760
303.920	15.407	840.879	646.497
304.935	15.525	840.094	646.290
305.949	15.574	839.581	646.025
306.964	15.625	839.015	645.728
307.979	15.442	838.226	644.362
308.993	15.387	837.983	643.907
310.008	15.604	837.338	644.185
311.022	15.791	836.521	644.216
312.037	15.557	836.241	643.049
313.052	15.576	835.208	642.272
314.066	15.580	834.805	641.918
315.081	15.490	834.166	641.028
316.095	15.496	834.032	640.891
317.110	15.609	833.116	640.560
318.125	15.491	832.612	639.668
319.139	15.627	832.251	639.851
320.154	15.534	831.928	639.191
321.168	15.723	830.858	639.034
322.183	15.633	830.822	638.605
323.197	15.605	830.182	637.951
324.212	15.825	829.523	638.224
325.227	15.662	829.434	637.478
326.241	15.694	828.592	636.898
327.256	15.597	828.441	636.357
328.270	15.612	827.842	635.896
329.285	15.625	827.252	635.435
330.300	15.640	826.353	634.747
331.314	15.674	825.732	634.342
332.329	15.730	824.942	633.891
333.343	15.638	824.836	633.407
334.358	15.673	824.366	633.121
335.373	15.838	823.663	633.147
336.387	15.871	823.112	632.790
337.402	15.700	822.776	631.832
338.416	15.751	822.237	631.556
339.431	15.910	821.417	631.466
340.446	16.020	821.212	631.664
341.460	15.914	820.884	630.959
342.475	16.030	819.860	630.551
343.489	16.147	819.244	630.457
344.504	16.160	818.882	630.172
345.519	16.092	818.113	629.270
346.533	16.319	817.451	629.550
347.548	16.166	817.752	629.157
348.562	16.215	816.517	628.336
349.577	16.156	816.241	627.845
350.592	16.044	816.013	627.199
351.606	16.002	815.306	626.444
352.621	16.084	814.775	626.285
353.635	15.946	814.486	625.495
354.650	15.995	814.163	625.374
355.665	15.981	813.905	625.068
356.679	16.149	813.321	625.188
357.694	16.183	812.497	624.626
358.708	16.191	811.845	624.097
359.723	16.162	811.890	623.968
360.738	16.200	810.735	623.166
361.752	16.154	810.583	622.826
362.767	16.151	809.956	622.276
363.781	16.292	809.585	622.456
364.796	16.364	809.361	622.496
365.810	16.334	809.155	622.169
366.825	16.465	808.520	622.109
367.840	16.434	808.081	621.602
368.854	16.474	807.407	621.176
369.869	16.381	807.293	620.693
370.883	16.407	806.696	620.273
371.898	16.557	805.804	620.085
372.913	16.574	805.443	619.813
373.927	16.413	804.795	618.670
374.942	16.558	804.158	618.655
375.956	16.430	803.649	617.741
376.971	16.585	803.060	617.801
377.986	16.558	802.418	617.154
379.000	16.731	802.063	617.455
380.015	16.629	801.962	616.953
381.029	16.763	800.880	616.551
382.044	16.696	800.582	616.024
383.059	16.679	799.903	615.388
384.073	16.689	799.500	615.058
385.088	16.668	799.237	614.725
386.102	16.663	798.393	614.005
387.117	16.570	797.766	613.131
388.132	16.583	797.428	612.863
389.146	16.593	797.029	612.537
390.161	16.798	796.764	613.024
391.175	16.735	796.129	612.252
392.190	16.738	796.042	612.143
393.205	16.845	795.202	611.826
394.219	16.804	794.854	611.359
395.234	16.760	794.360	610.767
396.248	16.731	793.805	610.179
397.263	16.654	793.559	609.660
398.278	16.721	792.906	609.345
399.292	16.787	792.005	608.835
400.307	16.722	792.343	608.808
401.321	16.700	791.718	608.196
402.336	16.685	791.640	608.025
403.350	16.783	791.106	607.915
404.365	16.720	790.768	607.377
405.380	16.747	790.210	606.991
406.394	16.707	789.974	606.612
407.409	16.843	789.374	606.582
408.423	17.052	788.774	606.818
409.438	17.054	788.388	606.473
410.453	16.977	788.376	606.134
411.467	17.146	787.186	605.769
412.482	17.164	786.980	605.620
413.496	17.117	786.621	605.124
414.511	17.232	786.353	605.275
415.526	17.203	785.869	604.743
416.540	17.038	785.789	604.044
417.555	17.160	785.288	604.039
418.569	17.077	784.734	603.261
419.584	17.266	784.052	603.356
420.599	17.206	783.917	602.986
421.613	75.953	1233.692	1265.042
422.628	63.730	1299.246	1265.184
