DTS Sentinel unit serial number:	SN413079Multiplexer serial number:	ORYXHardware model number:	OX4-SRSoftware version number:	ORYX F/W v4.00 Oryx Data Collector v3.7.2.0data status	okinstallation	princeton_trtdifferential loss correction	single-endedforward channel	channel 3reverse channel	N/Adate	2019/09/18time	07:12:35forward acquisition time	60.00reverse acquisition time	0.00gamma	496.2192k internal	0.2343k external	0.2343temperature offset calibration	0.9950default loss term (dB/km)	0.3790temperature slope calibration	1.0000multiplexer offset coefficient	1.0000multiplexer slope coefficient	1.0000fibre end	0.00T internal ref (°C)	23.19T ext. ref 1 (°C)	0.19T ext. ref 2 (°C)	17.32length (m)	temperature (°C)	Stokes	anti-Stokes-747.200	-200.000	-0.005	0.332
-746.185	-136.820	0.194	-0.022
-745.171	-70.842	-0.131	0.049
-744.156	-129.474	-0.167	0.023
-743.142	-200.000	-0.006	0.133
-742.127	800.000	0.079	0.331
-741.112	-47.013	-0.227	-0.111
-740.098	-6.752	-0.225	0.153
-739.083	-60.778	0.079	0.033
-738.069	11.146	-0.225	-0.172
-737.054	-200.000	0.007	-0.154
-736.039	-145.259	0.256	-0.023
-735.025	109.851	-0.136	0.164
-734.010	327.581	-0.111	-0.214
-732.996	49.727	0.106	-0.100
-731.981	147.215	-0.151	-0.203
-730.966	800.000	-0.077	-0.243
-729.952	-71.152	0.481	-0.181
-728.937	25.076	-0.168	0.140
-727.923	-46.322	0.132	0.065
-726.908	-2.322	-0.215	-0.151
-725.894	-18.700	0.349	-0.217
-724.879	257.618	0.143	0.247
-723.864	577.849	0.083	-0.202
-722.850	277.228	-0.201	-0.358
-721.835	-118.136	0.252	-0.045
-720.821	-36.676	-0.242	-0.130
-719.806	443.577	-0.078	-0.172
-718.791	-58.070	0.246	-0.107
-717.777	26.293	0.036	-0.030
-716.762	-118.778	-0.084	-0.015
-715.748	227.780	0.120	-0.195
-714.733	-113.684	-0.130	0.025
-713.718	90.940	0.120	-0.135
-712.704	-33.236	-0.141	0.078
-711.689	55.214	0.207	0.200
-710.675	800.000	-0.170	-0.490
-709.660	126.295	-0.093	0.118
-708.645	-121.838	0.269	-0.044
-707.631	-91.815	0.215	0.061
-706.616	-74.886	0.207	-0.074
-705.602	127.266	-0.288	-0.365
-704.587	-200.000	-0.005	-0.065
-703.572	-39.820	0.295	-0.154
-702.558	-23.324	-0.109	0.066
-701.543	-200.000	-0.034	-0.211
-700.529	-40.379	-0.139	-0.072
-699.514	196.669	-0.208	0.317
-698.499	46.488	-0.167	0.155
-697.485	13.467	0.244	-0.190
-696.470	-200.000	0.013	0.100
-695.456	556.046	-0.137	0.330
-694.441	-200.000	-0.030	0.330
-693.426	50.900	0.106	-0.100
-692.412	-105.704	0.225	-0.051
-691.397	-79.751	0.118	-0.040
-690.383	-200.000	0.008	-0.368
-689.368	491.411	0.068	-0.155
-688.354	-117.155	0.359	-0.065
-687.339	-105.895	-0.459	-0.103
-686.324	106.264	0.137	0.162
-685.310	-97.795	-0.295	-0.076
-684.295	101.042	0.064	0.075
-683.281	-200.000	-0.004	-0.020
-682.266	-13.068	-0.238	-0.155
-681.251	102.367	-0.213	0.249
-680.237	31.455	0.252	-0.216
-679.222	-73.589	-0.258	-0.094
-678.208	491.009	0.045	0.103
-677.193	-200.000	-0.023	-0.181
-676.178	54.101	-0.236	-0.227
-675.164	-50.235	0.281	-0.132
-674.149	-107.633	-0.204	0.045
-673.135	-37.543	0.301	-0.160
-672.120	-200.000	0.012	-0.067
-671.105	-200.000	-0.016	-0.125
-670.091	-112.467	-0.072	0.014
-669.076	98.647	0.126	0.145
-668.062	35.613	0.062	-0.055
-667.047	-200.000	-0.022	0.348
-666.032	-95.745	-0.308	-0.082
-665.018	172.495	-0.072	-0.103
-664.003	300.263	0.052	0.097
-662.989	-200.000	-0.001	-0.072
-661.974	-133.166	-0.371	-0.047
-660.959	-200.000	-0.349	-0.002
-659.945	800.000	-0.028	-0.114
-658.930	-149.524	-0.163	0.013
-657.916	-200.000	0.021	-0.096
-656.901	-200.000	-0.038	-0.414
-655.886	-200.000	0.028	-0.299
-654.872	-98.782	0.122	0.031
-653.857	-103.490	-0.186	0.044
-652.843	-200.000	-0.011	-0.056
-651.828	-6.599	0.164	-0.112
-650.814	12.262	0.290	-0.223
-649.799	-200.000	0.035	-0.189
-648.784	336.592	0.073	-0.142
-647.770	17.207	-0.359	-0.284
-646.755	-130.141	-0.137	-0.019
-645.741	-200.000	0.063	0.442
-644.726	194.441	0.166	0.252
-643.711	-77.929	0.176	0.061
-642.697	-143.350	-0.178	-0.017
-641.682	-200.000	0.059	-0.309
-640.668	411.647	-0.120	-0.255
-639.653	800.000	-0.044	0.166
-638.638	589.266	-0.102	-0.250
-637.624	-200.000	-0.051	-0.227
-636.609	-84.792	-0.131	0.041
-635.595	800.000	0.133	-0.463
-634.580	36.616	-0.203	-0.178
-633.565	-73.512	0.169	0.062
-632.551	-135.249	-0.224	-0.027
-631.536	556.838	0.142	0.342
-630.522	-200.000	-0.059	-0.355
-629.507	130.684	-0.128	-0.163
-628.492	-93.314	0.427	0.118
-627.478	-163.105	0.103	0.005
-626.463	-84.917	0.184	-0.058
-625.449	-145.927	0.046	0.004
-624.434	-200.000	0.066	0.361
-623.419	193.165	0.124	0.187
-622.405	-200.000	-0.046	-0.398
-621.390	12.525	0.090	-0.069
-620.376	-200.000	-0.020	-0.328
-619.361	-77.064	0.296	0.103
-618.346	-200.000	-0.000	0.071
-617.332	-94.678	-0.156	-0.042
-616.317	28.629	0.096	0.081
-615.303	-200.000	0.036	0.207
-614.288	-13.998	0.091	0.058
-613.273	800.000	-0.056	-0.182
-612.259	-102.393	0.086	0.020
-611.244	0.589	0.071	-0.050
-610.230	-36.598	-0.319	0.171
-609.215	800.000	-0.053	-0.191
-608.201	-200.000	0.020	-0.194
-607.186	155.049	0.099	0.135
-606.171	3.196	-0.229	-0.166
-605.157	-71.099	0.115	-0.043
-604.142	64.218	-0.267	0.267
-603.128	-200.000	0.014	0.101
-602.113	-103.353	-0.118	0.028
-601.098	621.319	-0.127	-0.318
-600.084	800.000	0.091	-0.385
-599.069	589.509	-0.071	0.174
-598.055	-132.221	-0.152	0.020
-597.040	322.058	0.125	-0.236
-596.025	220.505	-0.214	-0.342
-595.011	-101.787	-0.300	0.072
-593.996	-140.136	0.237	-0.025
-592.982	100.224	-0.235	-0.271
-591.967	800.000	0.064	0.232
-590.952	15.120	-0.084	-0.066
-589.938	-24.722	-0.202	-0.120
-588.923	341.429	-0.115	0.223
-587.909	-200.000	0.026	0.148
-586.894	-200.000	0.006	-0.050
-585.879	800.000	-0.054	0.160
-584.865	-6.014	-0.127	0.087
-583.850	474.216	0.043	0.097
-582.836	-18.250	-0.224	0.139
-581.821	28.183	-0.245	-0.206
-580.806	-14.236	-0.509	-0.326
-579.792	-50.647	0.042	0.020
-578.777	151.112	-0.262	-0.355
-577.763	179.528	-0.159	-0.232
-576.748	337.657	-0.116	-0.225
-575.733	-134.665	0.086	0.010
-574.719	-200.000	0.090	0.444
-573.704	-53.328	-0.145	-0.066
-572.690	5.440	-0.127	0.093
-571.675	316.958	-0.135	0.254
-570.661	778.276	0.118	0.321
-569.646	-91.252	0.377	-0.107
-568.631	-200.000	0.002	-0.307
-567.617	-34.686	-0.208	0.113
-566.602	-98.556	0.027	-0.007
-565.588	131.625	-0.232	-0.297
-564.573	-200.000	0.039	-0.294
-563.558	-72.385	0.405	-0.149
-562.544	-144.812	0.258	-0.024
-561.529	-130.778	-0.161	0.021
-560.515	-200.000	-0.054	-0.283
-559.500	-136.621	0.286	0.033
-558.485	136.651	-0.313	0.407
-557.471	-200.000	0.078	0.528
-556.456	800.000	0.042	-0.147
-555.442	-200.000	-0.073	0.403
-554.427	800.000	0.006	0.024
-553.412	-200.000	-0.019	-0.143
-552.398	766.987	-0.109	-0.295
-551.383	13.004	-0.180	0.139
-550.369	-59.849	-0.231	-0.098
-549.354	122.431	-0.085	0.105
-548.339	-148.147	-0.243	0.020
-547.325	-52.881	0.075	0.034
-546.310	-67.272	-0.157	-0.061
-545.296	-200.000	-0.021	-0.168
-544.281	5.810	-0.261	-0.192
-543.266	-58.313	0.179	-0.077
-542.252	-140.683	-0.116	0.012
-541.237	-143.656	-0.226	0.021
-540.223	-200.000	-0.003	0.457
-539.208	18.660	-0.219	-0.174
-538.193	-126.526	0.194	0.029
-537.179	17.853	-0.106	-0.084
-536.164	-28.341	-0.031	0.018
-535.150	-200.000	-0.012	-0.149
-534.135	263.989	-0.042	-0.073
-533.121	-200.000	0.000	-0.031
-532.106	-200.000	0.015	-0.103
-531.091	185.011	0.175	0.257
-530.077	-200.000	0.064	0.360
-529.062	89.679	-0.108	-0.120
-528.048	3.363	0.241	-0.174
-527.033	20.557	0.110	0.089
-526.018	-189.763	-0.165	-0.002
-525.004	10.145	0.395	0.298
-523.989	-200.000	-0.018	0.188
-522.975	-191.290	0.106	-0.001
-521.960	-14.946	-0.076	-0.048
-520.945	800.000	-0.046	-0.139
-519.931	-116.058	-0.211	-0.039
-518.916	-15.961	-0.169	0.107
-517.902	129.176	-0.138	0.175
-516.887	35.781	0.331	-0.289
-515.872	713.347	0.164	-0.430
-514.858	-200.000	-0.029	0.147
-513.843	-72.718	0.349	-0.128
-512.829	573.820	0.014	-0.035
-511.814	-121.422	0.161	-0.027
-510.799	-200.000	0.010	0.344
-509.785	-29.038	-0.044	0.025
-508.770	14.545	0.131	0.101
-507.756	-19.207	-0.264	-0.163
-506.741	-21.563	-0.196	-0.119
-505.726	-79.922	-0.238	0.079
-504.712	91.049	0.288	0.321
-503.697	-200.000	0.050	0.227
-502.683	-200.000	0.034	-0.172
-501.668	-113.956	-0.269	0.052
-500.653	-200.000	0.019	0.293
-499.639	25.699	0.338	-0.279
-498.624	-200.000	-0.025	0.251
-497.610	-108.987	0.098	0.021
-496.595	-200.000	-0.003	-0.340
-495.581	-200.000	-0.049	0.249
-494.566	134.783	0.149	0.192
-493.551	-122.690	-0.069	0.011
-492.537	-12.863	-0.171	0.111
-491.522	-94.727	0.361	0.097
-490.508	214.371	0.065	-0.102
-489.493	-200.000	0.028	-0.131
-488.478	-200.000	0.016	-0.173
-487.464	-29.948	-0.215	-0.121
-486.449	-81.690	0.149	-0.049
-485.435	-82.566	0.147	-0.047
-484.420	800.000	0.040	-0.121
-483.405	-73.078	0.136	0.049
-482.391	87.859	-0.175	0.192
-481.376	-149.823	-0.121	0.009
-480.362	258.137	-0.115	0.196
-479.347	-108.414	-0.096	0.020
-478.332	-48.640	-0.162	0.077
-477.318	-71.453	0.294	-0.109
-476.303	19.917	-0.043	0.034
-475.289	800.000	-0.075	-0.232
-474.274	717.708	-0.073	0.191
-473.259	-27.127	-0.267	-0.154
-472.245	-4.641	0.131	-0.090
-471.230	423.673	0.048	-0.102
-470.216	105.305	-0.126	-0.147
-469.201	800.000	0.055	-0.232
-468.186	246.445	-0.115	0.191
-467.172	503.855	-0.070	0.161
-466.157	22.855	0.153	0.124
-465.143	-52.181	-0.196	-0.090
-464.128	52.223	0.282	-0.266
-463.113	388.090	-0.072	-0.147
-462.099	577.620	-0.097	0.236
-461.084	-122.080	-0.077	0.013
-460.070	-5.329	0.226	0.154
-459.055	-200.000	0.015	-0.196
-458.040	38.856	-0.368	-0.325
-457.026	321.927	0.079	0.148
-456.011	787.186	-0.058	-0.158
-454.997	-200.000	0.046	-0.303
-453.982	689.272	-0.056	-0.145
-452.968	-200.000	0.001	0.300
-451.953	148.466	0.201	0.268
-450.938	695.842	-0.021	-0.055
-449.924	-47.547	0.226	-0.109
-448.909	-2.173	0.377	0.262
-447.895	676.659	0.079	0.204
-446.880	-98.883	0.333	-0.084
-445.865	-140.038	0.255	-0.027
-444.851	-159.313	-0.081	0.005
-443.836	-43.543	0.457	-0.228
-442.822	62.684	-0.056	-0.055
-441.807	13.558	0.296	-0.228
-440.792	9.044	0.181	-0.135
-439.778	333.815	-0.086	0.164
-438.763	103.264	-0.058	-0.067
-437.749	-70.090	-0.261	-0.098
-436.734	-143.791	0.352	0.033
-435.719	112.287	0.049	0.058
-434.705	-200.000	0.056	0.285
-433.690	-32.894	0.201	0.110
-432.676	437.558	-0.074	0.159
-431.661	-49.042	0.281	0.133
-430.646	-9.021	-0.096	0.063
-429.632	-174.310	0.095	-0.003
-428.617	-63.568	0.364	0.148
-427.603	153.319	0.116	-0.156
-426.588	-112.459	-0.090	0.018
-425.573	24.246	-0.097	0.079
-424.559	-200.000	0.020	0.264
-423.544	339.483	-0.029	-0.056
-422.530	-200.000	-0.030	0.459
-421.515	479.131	0.068	-0.152
-420.500	221.367	0.087	-0.138
-419.486	123.279	-0.165	0.204
-418.471	-34.372	0.107	0.058
-417.457	-200.000	0.086	0.000
-416.442	-18.140	0.236	-0.146
-415.428	-200.000	-0.045	-0.250
-414.413	52.307	-0.050	0.047
-413.398	-200.000	0.008	-0.115
-412.384	220.946	0.124	0.197
-411.369	-157.159	0.291	0.017
-410.355	9.393	-0.291	0.217
-409.340	-53.677	-0.184	0.083
-408.325	41.736	0.152	-0.136
-407.311	800.000	-0.003	0.012
-406.296	59.530	-0.064	0.062
-405.282	538.504	0.029	-0.069
-404.267	68.971	0.239	0.242
-403.252	-200.000	-0.107	0.475
-402.238	-200.000	0.061	-0.393
-401.223	-51.512	-0.212	-0.098
-400.209	-200.000	0.038	-0.242
-399.194	-81.244	0.282	-0.092
-398.179	-17.122	-0.453	0.282
-397.165	800.000	0.150	-0.468
-396.150	318.566	0.153	-0.286
-395.136	215.736	-0.104	-0.162
-394.121	-163.600	0.256	0.012
-393.106	-111.081	0.197	0.040
-392.092	-114.818	-0.004	-0.001
-391.077	19.225	0.160	0.127
-390.063	127.298	-0.083	0.104
-389.048	154.020	-0.195	0.264
-388.033	161.469	0.226	-0.312
-387.019	-118.700	-0.297	0.052
-386.004	800.000	0.042	0.147
-384.990	192.146	0.134	0.200
-383.975	-31.634	0.236	-0.131
-382.960	-200.000	0.063	-0.329
-381.946	-105.456	0.192	-0.043
-380.931	9.727	-0.029	0.022
-379.917	-200.000	0.016	-0.225
-378.902	296.849	0.028	-0.051
-377.888	-63.806	0.213	0.086
-376.873	-40.723	0.166	-0.085
-375.858	-159.040	-0.200	0.011
-374.844	365.906	-0.051	0.102
-373.829	22.729	-0.298	-0.241
-372.815	-105.001	0.132	0.030
-371.800	-84.771	-0.031	0.010
-370.785	-107.901	-0.125	-0.027
-369.771	-134.178	-0.145	0.018
-368.756	51.172	0.046	-0.043
-367.742	337.176	0.129	-0.248
-366.727	-200.000	0.008	-0.087
-365.712	-18.402	0.276	0.170
-364.698	128.082	0.224	-0.281
-363.683	407.074	-0.323	-0.674
-362.669	-81.616	0.274	0.089
-361.654	142.708	-0.299	-0.392
-360.639	44.457	0.159	-0.144
-359.625	412.042	-0.071	0.149
-358.610	5.299	-0.087	-0.063
-357.596	800.000	-0.092	0.373
-356.581	434.197	0.058	-0.125
-355.566	-50.096	-0.217	-0.102
-354.552	-35.239	-0.097	0.052
-353.537	-91.605	0.151	0.042
-352.523	-200.000	-0.009	-0.103
-351.508	-56.651	-0.099	-0.043
-350.493	339.601	-0.164	-0.316
-349.479	-44.255	0.135	0.067
-348.464	-200.000	-0.005	0.254
-347.450	-61.360	0.079	0.033
-346.435	783.820	0.082	0.222
-345.420	-52.440	0.184	-0.084
-344.406	324.687	-0.164	-0.309
-343.391	25.619	-0.318	0.261
-342.377	-68.233	0.130	0.050
-341.362	28.820	0.074	0.062
-340.348	800.000	-0.039	-0.152
-339.333	-14.800	-0.169	-0.107
-338.318	-69.984	0.025	0.009
-337.304	435.819	-0.050	0.107
-336.289	-200.000	-0.016	0.378
-335.275	-54.385	-0.041	-0.018
-334.260	341.749	0.077	-0.148
-333.245	58.357	0.312	0.301
-332.231	2.270	-0.123	0.088
-331.216	68.775	0.148	-0.150
-330.202	26.478	-0.377	-0.311
-329.187	-69.436	-0.202	-0.076
-328.172	169.859	-0.155	-0.218
-327.158	-43.190	-0.208	-0.104
-326.143	-200.000	-0.006	-0.263
-325.129	-51.158	0.088	0.041
-324.114	-153.976	0.219	0.015
-323.099	-200.000	0.009	0.186
-322.085	800.000	0.014	-0.049
-321.070	230.820	0.048	0.077
-320.056	98.650	-0.167	0.190
-319.041	-200.000	0.015	0.136
-318.026	71.840	0.172	0.176
-317.012	-200.000	-0.012	0.136
-315.997	-79.718	0.107	-0.035
-314.983	69.316	-0.275	0.278
-313.968	6.458	0.229	-0.168
-312.953	141.272	0.122	-0.159
-311.939	61.953	-0.172	0.169
-310.924	5.455	-0.170	-0.123
-309.910	-54.620	0.150	-0.067
-308.895	-123.229	-0.289	0.046
-307.880	-200.000	0.058	-0.377
-306.866	112.653	-0.153	0.182
-305.851	-200.000	-0.009	0.076
-304.837	-64.651	0.118	0.047
-303.822	125.616	0.063	-0.078
-302.807	501.260	-0.069	0.157
-301.793	-134.430	0.199	0.024
-300.778	19.361	0.144	0.114
-299.764	-46.637	-0.251	-0.121
-298.749	800.000	-0.024	0.071
-297.735	-93.548	0.180	-0.049
-296.720	-15.351	-0.222	-0.140
-295.705	-200.000	-0.007	-0.156
-294.691	600.646	-0.092	-0.224
-293.676	250.698	0.100	-0.168
-292.662	141.683	0.045	0.058
-291.647	-44.020	-0.310	0.153
-290.632	-200.000	-0.014	0.116
-289.618	-169.379	0.258	0.009
-288.603	17.186	0.090	-0.070
-287.589	-200.000	-0.029	-0.126
-286.574	-72.974	-0.166	0.060
-285.559	372.434	-0.050	0.100
-284.545	-200.000	0.004	-0.079
-283.530	373.205	-0.074	-0.148
-282.516	-137.658	0.244	0.027
-281.501	800.000	0.051	0.159
-280.486	48.509	0.084	-0.078
-279.472	-200.000	-0.069	-0.369
-278.457	-25.880	-0.237	0.137
-277.443	-84.437	-0.121	0.038
-276.428	404.661	0.093	0.193
-275.413	-14.205	-0.155	-0.098
-274.399	31.865	-0.148	-0.125
-273.384	86.469	-0.074	-0.080
-272.370	-37.871	0.169	0.088
-271.355	142.292	-0.202	0.264
-270.340	114.779	0.190	0.228
-269.326	800.000	0.123	0.404
-268.311	800.000	0.073	-0.213
-267.297	-54.049	-0.141	-0.063
-266.282	576.773	0.032	0.076
-265.267	485.849	-0.152	0.340
-264.253	4.109	0.332	0.239
-263.238	-200.000	-0.039	0.301
-262.224	-27.488	0.216	0.123
-261.209	-151.136	-0.207	0.015
-260.195	-190.465	-0.382	0.004
-259.180	-83.215	-0.185	-0.059
-258.165	-58.891	0.132	0.056
-257.151	287.237	0.017	0.030
-256.136	-14.825	0.133	0.084
-255.122	-200.000	0.000	-0.242
-254.107	-200.000	-0.056	0.266
-253.092	-200.000	0.015	0.309
-252.078	-102.057	-0.036	0.009
-251.063	-87.860	-0.234	0.069
-250.049	232.802	0.137	-0.222
-249.034	-129.957	0.187	-0.025
-248.019	323.091	-0.147	-0.275
-247.005	800.000	-0.097	-0.322
-245.990	545.284	-0.089	0.210
-244.976	763.638	0.061	0.163
-243.961	-137.849	0.240	-0.026
-242.946	62.358	-0.194	0.190
-241.932	-102.163	0.132	-0.031
-240.917	-144.759	-0.023	-0.002
-239.903	-200.000	-0.025	0.108
-238.888	800.000	0.095	0.294
-237.873	388.080	0.076	0.155
-236.859	16.331	0.197	0.153
-235.844	-155.568	0.205	0.013
-234.830	-198.366	-0.020	0.000
-233.815	-125.286	-0.294	-0.044
-232.800	-163.051	-0.059	0.003
-231.786	54.729	0.097	0.092
-230.771	61.064	0.157	0.153
-229.757	-200.000	0.014	0.153
-228.742	-200.000	0.055	0.270
-227.727	-22.411	0.142	0.084
-226.713	-34.348	-0.085	0.046
-225.698	-42.269	-0.085	0.043
-224.684	-29.126	0.288	-0.162
-223.669	-71.462	0.168	0.062
-222.655	800.000	-0.060	-0.241
-221.640	-200.000	0.010	-0.050
-220.625	-101.807	0.290	-0.069
-219.611	-200.000	-0.011	-0.248
-218.596	129.766	-0.290	-0.364
-217.582	209.898	0.096	0.148
-216.567	-200.000	-0.022	0.096
-215.552	-200.000	-0.080	-0.403
-214.538	-200.000	0.004	0.131
-213.523	58.257	-0.177	0.170
-212.509	800.000	-0.017	-0.062
-211.494	-102.128	0.244	0.058
-210.479	716.795	-0.012	-0.031
-209.465	764.770	-0.174	-0.463
-208.450	49.424	0.064	0.059
-207.436	-111.124	0.151	-0.030
-206.421	-200.000	0.006	0.460
-205.406	-8.105	0.181	0.120
-204.392	-100.939	0.177	0.043
-203.377	-122.304	-0.192	-0.031
-202.363	-32.848	-0.267	-0.146
-201.348	-82.103	0.315	0.101
-200.333	-65.562	-0.403	0.159
-199.319	-126.630	-0.201	-0.029
-198.304	35.496	-0.231	0.198
-197.290	-23.246	0.085	0.050
-196.275	800.000	-0.143	0.473
-195.260	-164.562	-0.162	0.007
-194.246	68.779	-0.165	-0.166
-193.231	800.000	0.036	-0.105
-192.217	244.348	-0.189	0.311
-191.202	-59.390	-0.148	-0.062
-190.187	-87.176	-0.193	0.057
-189.173	-200.000	0.047	0.202
-188.158	621.856	-0.059	0.145
-187.144	-200.000	-0.007	0.136
-186.129	-44.565	0.141	-0.069
-185.114	27.425	0.102	-0.084
-184.100	32.933	0.074	0.063
-183.085	498.455	-0.130	0.294
-182.071	-19.582	-0.075	-0.045
-181.056	221.094	-0.010	-0.015
-180.042	-158.562	-0.200	-0.011
-179.027	93.991	-0.055	-0.061
-178.012	50.445	0.147	0.136
-176.998	-5.188	-0.119	0.080
-175.983	673.562	0.118	-0.299
-174.969	-5.736	0.127	0.085
-173.954	-120.687	0.413	0.068
-172.939	-150.298	0.215	-0.016
-171.925	120.776	-0.108	-0.132
-170.910	-111.756	0.091	-0.018
-169.896	236.678	0.058	-0.095
-168.881	-32.579	0.333	0.181
-167.866	-47.301	0.167	0.080
-166.852	-200.000	0.017	-0.133
-165.837	-78.328	0.180	0.060
-164.823	604.723	0.051	0.123
-163.808	773.641	-0.065	-0.174
-162.793	12.740	-0.113	0.086
-161.779	-138.399	0.093	0.010
-160.764	800.000	-0.127	0.349
-159.750	-176.528	0.211	0.005
-158.735	-121.997	0.285	0.046
-157.720	-27.744	-0.402	-0.228
-156.706	800.000	-0.030	-0.089
-155.691	110.493	-0.128	0.151
-154.677	-171.875	-0.170	-0.005
-153.662	30.872	0.198	-0.166
-152.647	-16.816	-0.356	-0.220
-151.633	-200.000	0.029	0.239
-150.618	-74.517	-0.186	0.065
-149.604	-12.269	0.393	0.251
-148.589	-200.000	-0.043	0.386
-147.574	61.146	0.178	0.173
-146.560	302.270	0.103	-0.186
-145.545	-200.000	-0.027	0.388
-144.531	567.393	0.054	-0.129
-143.516	683.900	-0.034	0.087
-142.502	88.684	0.198	-0.215
-141.487	35.992	-0.216	0.186
-140.472	-86.678	-0.092	-0.027
-139.458	-13.264	0.127	0.081
-138.443	301.755	-0.107	-0.193
-137.429	456.286	0.135	0.293
-136.414	0.517	-0.250	0.175
-135.399	-200.000	0.065	0.365
-134.385	-109.168	0.290	0.060
-133.370	281.079	0.099	0.174
-132.356	-124.168	0.194	0.030
-131.341	-9.895	0.132	-0.086
-130.326	800.000	-0.051	0.205
-129.312	239.390	0.116	0.189
-128.297	214.937	0.120	0.186
-127.283	58.808	-0.028	-0.027
-126.268	-157.530	-0.169	-0.010
-125.253	295.372	0.084	-0.150
-124.239	800.000	0.116	-0.319
-123.224	800.000	0.040	-0.161
-122.210	78.532	-0.208	0.217
-121.195	-79.338	0.295	0.098
-120.180	222.812	0.022	0.034
-119.166	-169.802	-0.071	0.002
-118.151	126.572	-0.103	0.128
-117.137	54.534	0.199	0.187
-116.122	150.225	-0.188	0.250
-115.107	506.891	0.074	-0.168
-114.093	273.383	-0.051	0.088
-113.078	800.000	-0.105	-0.285
-112.064	-112.063	0.055	0.011
-111.049	-200.000	-0.019	0.259
-110.034	572.144	0.083	-0.198
-109.020	-87.159	0.513	-0.152
-108.005	-200.000	0.002	-0.304
-106.991	800.000	-0.119	-0.324
-105.976	-49.656	0.461	-0.214
-104.962	-7.454	0.136	-0.090
-103.947	330.111	0.121	0.228
-102.932	-200.000	0.023	-0.182
-101.918	-54.090	0.075	0.033
-100.903	-157.020	-0.250	-0.015
-99.889	-18.676	0.266	-0.162
-98.874	233.517	-0.146	-0.235
-97.859	-24.299	-0.097	0.056
-96.845	-89.945	0.349	0.099
-95.830	800.000	-0.045	-0.138
-94.816	331.378	-0.150	-0.282
-93.801	-200.000	0.040	0.202
-92.786	287.531	-0.067	0.118
-91.772	55.046	0.080	-0.075
-90.757	-113.928	0.263	0.050
-89.743	-200.000	-0.041	0.229
-88.728	-53.443	-0.041	0.018
-87.713	88.818	0.118	0.128
-86.699	-200.000	0.032	0.173
-85.684	211.075	0.151	0.232
-84.670	-73.092	-0.184	-0.066
-83.655	-41.409	-0.179	-0.090
-82.640	68.356	-0.222	-0.222
-81.626	29.440	-0.189	0.157
-80.611	265.759	-0.100	0.170
-79.597	-106.540	0.083	0.018
-78.582	2.267	-0.313	-0.221
-77.567	584.827	-0.110	0.264
-76.553	-24.757	-0.261	0.151
-75.538	-93.405	0.416	0.112
-74.524	-200.000	0.028	-0.495
-73.509	800.000	0.028	0.114
-72.494	-75.075	-0.170	0.059
-71.480	280.910	0.032	-0.055
-70.465	-39.903	0.356	-0.181
-69.451	-11.951	0.158	-0.101
-68.436	-34.104	-0.369	0.198
-67.422	800.000	0.124	0.411
-66.407	-68.994	0.470	0.177
-65.392	15.431	-0.108	-0.083
-64.378	-200.000	0.002	-0.174
-63.363	-149.195	0.272	-0.021
-62.349	-27.247	-0.315	0.179
-61.334	23.947	-0.902	-0.725
-60.319	202.033	0.600	0.902
-59.305	-200.000	-0.281	-1.427
-58.290	217.696	0.802	1.246
-57.276	693.553	0.574	1.466
-56.261	-200.000	125.196	651.726
-55.246	402.910	1585.961	3250.443
-54.232	140.729	2746.373	3535.600
-53.217	94.174	2191.845	2423.825
-52.203	33.767	1706.213	1446.231
-51.188	26.151	1523.932	1239.607
-50.173	24.222	1500.692	1207.596
-49.159	48.869	1571.828	1437.098
-48.144	45.665	1584.963	1426.784
-47.130	26.336	1533.388	1248.379
-46.115	23.429	1517.380	1215.397
-45.100	23.286	1513.447	1211.219
-44.086	23.184	1511.853	1209.201
-43.071	23.220	1509.702	1207.677
-42.057	23.160	1508.346	1206.139
-41.042	23.128	1506.911	1204.725
-40.027	23.201	1505.063	1203.694
-39.013	23.113	1504.129	1202.302
-37.998	23.167	1502.490	1201.313
-36.984	23.194	1501.951	1201.018
-35.969	23.102	1500.129	1198.889
-34.954	23.236	1497.933	1197.989
-33.940	23.126	1497.313	1196.704
-32.925	23.199	1495.752	1195.905
-31.911	23.219	1494.986	1195.379
-30.896	23.175	1493.273	1193.663
-29.881	23.267	1491.910	1193.147
-28.867	23.315	1490.791	1192.529
-27.852	23.173	1489.602	1190.575
-26.838	23.212	1487.960	1189.479
-25.823	23.176	1486.591	1188.091
-24.809	23.142	1484.944	1186.504
-23.794	23.194	1483.616	1185.744
-22.779	23.279	1481.715	1184.744
-21.765	23.328	1480.364	1183.942
-20.750	23.220	1480.125	1182.985
-19.736	23.268	1478.461	1181.927
-18.721	23.218	1477.857	1181.063
-17.706	23.186	1476.626	1179.823
-16.692	23.236	1475.401	1179.130
-15.677	23.129	1474.738	1177.839
-14.663	23.149	1473.773	1177.156
-13.648	23.119	1472.659	1176.018
-12.633	23.195	1472.006	1175.956
-11.619	23.069	1471.421	1174.608
-10.604	23.070	1470.352	1173.711
-9.590	23.276	1469.053	1173.995
-8.575	23.177	1468.086	1172.520
-7.560	23.159	1467.503	1171.889
-6.546	23.263	1466.416	1171.658
-5.531	23.239	1465.787	1170.954
-4.517	23.164	1464.650	1169.503
-3.502	23.144	1463.652	1168.530
-2.487	23.218	1462.964	1168.422
-1.473	23.216	1461.732	1167.374
-0.458	23.178	1460.701	1166.254
0.556	21.520	1450.250	1154.536
1.571	18.386	1426.103	1114.845
2.586	14.981	1364.712	1045.514
3.600	13.607	1280.322	972.720
4.615	12.692	1237.374	934.814
5.629	11.064	1180.524	882.963
6.644	5.417	1099.448	793.654
7.659	1.008	1063.636	746.053
8.673	0.274	1058.427	738.738
9.688	0.193	1054.988	735.874
10.702	0.157	1053.389	734.519
11.717	0.136	1051.260	732.868
12.731	1.927	1052.116	742.123
13.746	8.172	1060.182	778.295
14.761	14.216	1068.252	813.788
15.775	16.553	1070.693	827.015
16.790	16.475	1069.359	825.532
17.804	15.483	1067.502	819.186
18.819	14.655	1065.625	813.641
19.834	14.100	1064.297	809.852
20.848	13.848	1063.197	807.714
21.863	13.709	1062.469	806.416
22.877	13.403	1062.032	804.526
23.892	13.185	1060.734	802.412
24.907	13.167	1060.144	801.806
25.921	13.172	1059.242	801.081
26.936	13.247	1058.518	800.823
27.950	13.256	1058.229	800.579
28.965	13.236	1057.149	799.594
29.980	13.307	1056.733	799.552
30.994	13.177	1055.787	798.136
32.009	13.435	1054.720	798.504
33.023	13.472	1053.665	797.811
34.038	13.462	1053.426	797.514
35.053	13.384	1052.490	796.357
36.067	13.308	1051.667	795.298
37.082	13.261	1050.481	794.105
38.096	13.535	1049.781	794.822
39.111	13.323	1049.137	793.250
40.126	13.357	1048.445	792.819
41.140	13.390	1047.227	791.984
42.155	13.322	1045.878	790.570
43.169	13.153	1045.702	789.557
44.184	13.165	1044.618	788.727
45.199	13.267	1043.226	788.093
46.213	13.308	1042.341	787.548
47.228	13.202	1041.390	786.257
48.242	13.221	1040.348	785.492
49.257	13.201	1039.809	784.919
50.271	13.378	1037.961	784.296
51.286	13.286	1037.457	783.408
52.301	13.346	1036.762	783.096
53.315	13.336	1035.955	782.370
54.330	13.305	1035.192	781.581
55.344	13.300	1034.049	780.626
56.359	13.258	1033.278	779.774
57.374	13.381	1032.150	779.432
58.388	13.232	1031.377	778.080
59.403	13.254	1030.565	777.500
60.417	13.230	1029.829	776.764
61.432	13.243	1029.010	776.141
62.447	13.198	1028.417	775.412
63.461	13.180	1027.377	774.477
64.476	13.134	1026.716	773.693
65.490	13.135	1025.779	772.926
66.505	13.084	1025.304	772.261
67.520	13.286	1024.224	772.319
68.534	13.232	1023.344	771.338
69.549	13.208	1023.052	770.936
70.563	13.233	1021.975	770.175
71.578	13.157	1021.002	769.017
72.593	13.233	1020.215	768.710
73.607	13.081	1019.512	767.406
74.622	13.141	1018.316	766.717
75.636	13.120	1017.368	765.838
76.651	13.126	1016.750	765.331
77.666	13.186	1015.868	764.880
78.680	13.154	1015.624	764.479
79.695	13.219	1014.314	763.727
80.709	13.184	1013.603	762.964
81.724	13.169	1013.333	762.623
82.739	13.263	1012.252	762.176
83.753	13.166	1012.045	761.502
84.768	13.507	1011.069	762.270
85.782	13.298	1010.541	760.847
86.797	13.369	1009.440	760.275
87.812	13.298	1008.669	759.298
88.826	13.408	1007.559	758.905
89.841	13.311	1007.052	758.009
90.855	13.337	1006.466	757.619
91.870	13.350	1005.430	756.831
92.884	13.509	1004.531	756.816
93.899	13.335	1004.225	755.721
94.914	13.419	1003.462	755.465
95.928	13.450	1002.748	755.000
96.943	13.503	1001.550	754.276
97.957	13.450	1000.999	753.551
98.972	13.521	999.949	753.017
99.987	13.421	999.797	752.382
101.001	13.480	998.666	751.734
102.016	13.435	997.919	750.900
103.030	13.460	996.902	750.183
104.045	13.464	996.196	749.599
105.060	13.511	994.573	748.525
106.074	13.533	993.817	747.992
107.089	13.384	993.357	746.908
108.103	13.323	992.430	745.867
109.118	13.197	991.713	744.693
110.133	13.241	991.270	744.495
111.147	13.312	989.670	743.548
112.162	13.318	989.299	743.230
113.176	13.389	987.880	742.416
114.191	13.320	987.357	741.645
115.206	13.340	986.434	740.977
116.220	13.291	985.666	740.115
117.235	13.394	984.649	739.750
118.249	13.306	983.909	738.735
119.264	13.455	982.666	738.400
120.279	13.317	982.347	737.479
121.293	13.388	981.427	737.039
122.308	13.351	980.348	736.000
123.322	13.210	979.810	734.903
124.337	13.327	978.722	734.543
125.352	13.257	977.592	733.318
126.366	13.330	976.747	732.945
127.381	13.277	975.456	731.675
128.395	13.232	974.321	730.558
129.410	13.331	973.250	730.127
130.424	13.308	972.530	729.423
131.439	13.325	971.642	728.769
132.454	13.302	970.944	728.080
133.468	13.295	970.384	727.561
134.483	13.417	969.219	727.160
135.497	13.347	968.828	726.497
136.512	13.403	967.626	725.776
137.527	13.427	966.952	725.310
138.541	13.365	966.837	724.889
139.556	13.406	965.919	724.316
140.570	13.313	965.096	723.226
141.585	13.538	964.226	723.497
142.600	13.498	963.564	722.762
143.614	13.485	962.859	722.110
144.629	13.498	961.969	721.434
145.643	13.530	961.112	720.868
146.658	13.563	960.132	720.213
147.673	13.570	959.410	719.638
148.687	13.513	958.961	718.991
149.702	13.541	957.678	718.085
150.716	13.428	956.847	716.910
151.731	13.480	955.959	716.408
152.746	13.398	955.447	715.606
153.760	13.449	954.764	715.249
154.775	13.552	953.702	714.835
155.789	13.567	953.194	714.456
156.804	13.566	952.320	713.733
157.819	13.586	951.524	713.161
158.833	13.548	950.900	712.467
159.848	13.780	950.283	712.937
160.862	13.670	949.585	711.879
161.877	13.705	948.625	711.247
162.892	13.705	947.917	710.653
163.906	13.562	947.486	709.656
164.921	13.637	946.364	709.072
165.935	13.506	945.660	707.922
166.950	13.648	944.491	707.592
167.964	13.643	943.439	706.719
168.979	13.661	942.657	706.147
169.994	13.549	941.573	704.797
171.008	13.583	940.612	704.159
172.023	13.570	940.389	703.873
173.037	13.722	939.299	703.642
174.052	13.818	938.486	703.378
175.067	13.814	937.864	702.831
176.081	13.768	937.343	702.185
177.096	13.758	936.185	701.212
178.110	13.750	935.718	700.767
179.125	13.820	934.816	700.325
180.140	13.718	934.078	699.278
181.154	13.701	933.459	698.680
182.169	13.774	932.659	698.328
183.183	13.882	932.185	698.367
184.198	13.769	931.685	697.456
185.213	13.817	931.214	697.242
186.227	13.981	930.172	697.090
187.242	13.944	929.954	696.708
188.256	13.976	929.099	696.139
189.271	13.981	928.110	695.360
190.286	14.153	927.148	695.295
191.300	13.867	926.493	693.549
192.315	13.746	925.932	692.560
193.329	13.825	925.431	692.455
194.344	13.876	924.285	691.748
195.359	13.800	923.933	691.107
196.373	13.853	923.859	691.210
197.388	13.955	922.904	690.859
198.402	14.026	922.462	690.765
199.417	14.192	921.493	690.668
200.432	14.211	921.340	690.571
201.446	14.316	920.938	690.641
202.461	14.178	920.443	689.637
203.475	14.220	920.217	689.581
204.490	14.278	918.724	688.643
205.504	14.128	918.598	687.864
206.519	14.285	917.434	687.580
207.534	14.195	917.189	686.966
208.548	14.113	916.577	686.109
209.563	14.103	916.051	685.612
210.577	14.246	915.124	685.446
211.592	14.225	914.505	684.835
212.607	14.371	913.617	684.712
213.621	14.194	913.577	683.894
214.636	14.364	912.594	683.793
215.650	14.369	911.451	682.897
216.665	14.325	911.297	682.541
217.680	14.272	911.309	682.275
218.694	14.386	910.335	681.950
219.709	14.320	910.051	681.405
220.723	14.346	909.081	680.726
221.738	14.505	908.532	680.903
222.753	14.398	907.859	679.904
223.767	14.456	906.731	679.236
224.782	14.448	906.053	678.634
225.796	14.492	905.363	678.238
226.811	14.499	904.775	677.764
227.826	14.508	904.311	677.395
228.840	14.453	903.499	676.500
229.855	14.497	902.863	676.146
230.869	14.505	902.200	675.621
231.884	14.379	901.837	674.778
232.899	14.439	901.127	674.432
233.913	14.567	900.402	674.347
234.928	14.461	899.512	673.192
235.942	14.617	898.497	673.002
236.957	14.420	898.338	672.030
237.972	14.633	897.001	671.826
238.986	14.487	896.809	671.034
240.001	14.491	895.906	670.318
241.015	14.499	895.575	670.040
242.030	14.472	895.172	669.571
243.045	14.533	894.350	669.141
244.059	14.700	893.594	669.189
245.074	14.517	892.980	667.935
246.088	14.652	892.288	667.899
247.103	14.744	891.681	667.754
248.117	14.737	891.284	667.368
249.132	14.642	891.029	666.741
250.147	14.805	890.126	666.654
251.161	14.849	889.168	666.054
252.176	15.039	888.345	666.137
253.190	14.966	887.504	665.157
254.205	14.915	887.215	664.677
255.220	14.954	886.674	664.367
256.234	15.069	885.412	663.821
257.249	14.923	885.387	663.164
258.263	14.937	885.018	662.883
259.278	15.055	884.562	662.952
260.293	15.106	883.575	662.353
261.307	15.130	882.897	661.881
262.322	15.219	882.284	661.717
263.336	15.180	881.478	660.900
264.351	15.187	880.922	660.450
265.366	15.246	880.836	660.562
266.380	15.365	879.930	660.290
267.395	15.214	879.680	659.450
268.409	15.222	878.976	658.897
269.424	15.234	878.114	658.239
270.439	15.200	877.521	657.602
271.453	15.340	876.370	657.233
272.468	15.181	875.804	656.127
273.482	15.246	875.132	655.820
274.497	15.220	874.765	655.383
275.512	15.194	874.018	654.663
276.526	15.389	873.026	654.625
277.541	15.334	872.284	653.794
278.555	15.404	871.832	653.671
279.570	15.446	871.140	653.260
280.585	15.407	870.786	652.786
281.599	15.498	870.319	652.728
282.614	15.372	870.138	652.045
283.628	15.361	869.427	651.413
284.643	15.426	868.908	651.219
285.657	15.379	868.117	650.387
286.672	15.594	867.215	650.484
287.687	15.583	866.813	650.085
288.701	15.490	866.379	649.342
289.716	15.507	865.777	648.897
290.730	15.602	865.180	648.762
291.745	15.755	864.287	648.625
292.760	15.642	863.184	647.303
293.774	15.653	863.124	647.244
294.789	15.717	862.755	647.153
295.803	15.615	862.120	646.230
296.818	15.555	861.618	645.564
297.833	15.622	860.682	645.065
298.847	15.460	860.434	644.201
299.862	15.702	859.273	644.201
300.876	15.820	858.682	644.151
301.891	15.765	857.922	643.313
302.906	15.778	857.541	643.024
303.920	15.761	856.871	642.399
304.935	15.695	856.495	641.806
305.949	15.891	855.279	641.585
306.964	15.868	854.976	641.212
307.979	15.887	854.697	641.020
308.993	15.911	853.978	640.516
310.008	15.955	853.238	640.071
311.022	15.921	853.033	639.733
312.037	16.087	852.100	639.606
313.052	15.998	851.668	638.886
314.066	15.886	851.236	638.081
315.081	15.899	850.714	637.683
316.095	15.855	850.014	636.934
317.110	15.890	849.320	636.491
318.125	15.977	848.751	636.337
319.139	15.945	848.592	636.041
320.154	15.895	847.849	635.240
321.168	15.984	847.427	635.204
322.183	16.011	846.497	634.549
323.197	16.062	846.149	634.426
324.212	16.038	845.830	634.039
325.227	16.077	845.112	633.593
326.241	15.980	844.529	632.737
327.256	16.023	844.136	632.547
328.270	15.927	843.616	631.739
329.285	16.086	842.986	631.809
330.300	16.035	842.513	631.209
331.314	15.980	841.931	630.508
332.329	15.973	841.407	630.036
333.343	16.140	840.707	630.081
334.358	16.187	839.744	629.477
335.373	16.201	839.359	629.183
336.387	16.258	838.703	628.849
337.402	16.209	838.463	628.430
338.416	16.148	838.045	627.835
339.431	16.193	837.503	627.543
340.446	16.293	836.671	627.234
341.460	16.397	835.934	627.011
342.475	16.409	835.488	626.669
343.489	16.390	834.893	626.096
344.504	16.509	834.473	626.163
345.519	16.455	834.008	625.560
346.533	16.568	833.049	625.203
347.548	16.493	833.009	624.843
348.562	16.589	832.402	624.685
349.577	16.424	832.215	623.880
350.592	16.423	830.931	622.858
351.606	16.202	831.065	622.089
352.621	16.451	830.273	622.360
353.635	16.411	829.915	621.887
354.650	16.558	829.668	622.191
355.665	16.492	829.133	621.490
356.679	16.450	828.746	620.990
357.694	16.472	828.493	620.826
358.708	16.728	827.558	621.011
359.723	16.629	827.104	620.252
360.738	16.422	826.842	619.243
361.752	16.638	825.883	619.260
362.767	16.491	825.703	618.533
363.781	16.684	825.047	618.692
364.796	16.547	824.733	617.902
365.810	16.724	824.246	618.127
366.825	16.881	823.650	618.196
367.840	16.750	823.522	617.569
368.854	17.004	822.657	617.792
369.869	16.757	822.792	616.937
370.883	16.868	821.986	616.684
371.898	16.990	821.276	616.538
372.913	16.769	820.720	615.266
373.927	16.938	820.085	615.347
374.942	16.886	819.208	614.448
375.956	16.814	818.831	613.847
376.971	16.993	818.427	614.140
377.986	16.991	817.811	613.616
379.000	17.017	817.239	613.228
380.015	17.139	817.123	613.525
381.029	16.954	816.813	612.569
382.044	16.919	815.932	611.730
383.059	17.134	815.005	611.756
384.073	16.877	815.316	611.009
385.088	17.136	814.258	611.092
386.102	17.000	813.345	609.864
387.117	17.155	812.945	610.067
388.132	17.000	812.629	609.221
389.146	17.078	812.287	609.191
390.161	17.041	812.207	608.944
391.175	16.953	811.430	607.993
392.190	17.174	811.462	608.754
393.205	17.095	810.638	607.797
394.219	17.131	810.588	607.837
395.234	17.274	809.720	607.644
396.248	17.231	808.773	606.726
397.263	17.035	808.578	605.827
398.278	17.073	807.865	605.372
399.292	17.181	807.408	605.363
400.307	17.130	807.283	605.033
401.321	17.095	806.860	604.539
402.336	17.219	806.514	604.665
403.350	17.197	806.423	604.466
404.365	17.154	805.683	603.705
405.380	17.242	805.391	603.747
406.394	17.395	804.722	603.734
407.409	17.369	804.088	603.113
408.423	17.511	803.506	603.124
409.438	17.381	803.141	602.338
410.453	17.557	802.817	602.665
411.467	17.454	802.565	602.057
412.482	17.471	802.038	601.671
413.496	17.597	801.334	601.531
414.511	17.610	801.042	601.305
415.526	17.634	800.748	601.119
416.540	17.547	800.256	600.387
417.555	17.615	799.871	600.284
418.569	17.543	799.537	599.728
419.584	17.691	798.654	599.532
420.599	17.531	798.712	598.961
421.613	113.893	1297.759	1488.487
422.628	98.150	1370.430	1488.542
