DTS Sentinel unit serial number:	SN413079Multiplexer serial number:	ORYXHardware model number:	OX4-SRSoftware version number:	ORYX F/W v4.00 Oryx Data Collector v3.7.2.0data status	okinstallation	princeton_trtdifferential loss correction	single-endedforward channel	channel 3reverse channel	N/Adate	2019/09/11time	23:10:11forward acquisition time	60.00reverse acquisition time	0.00gamma	496.2192k internal	0.2317k external	0.2317temperature offset calibration	1.0049default loss term (dB/km)	0.3790temperature slope calibration	1.0000multiplexer offset coefficient	1.0000multiplexer slope coefficient	1.0000fibre end	0.00T internal ref (°C)	34.50T ext. ref 1 (°C)	1.84T ext. ref 2 (°C)	28.45length (m)	temperature (°C)	Stokes	anti-Stokes-747.200	800.000	0.066	-0.200
-746.185	-170.234	-0.064	0.002
-745.171	-114.140	-0.395	-0.077
-744.156	-200.000	-0.062	0.287
-743.142	120.970	-0.060	-0.075
-742.127	186.516	0.183	-0.277
-741.112	-39.760	0.208	-0.110
-740.098	-73.830	-0.370	-0.136
-739.083	49.461	-0.103	-0.098
-738.069	-200.000	0.002	-0.021
-737.054	65.949	0.077	0.079
-736.039	29.574	-0.360	-0.310
-735.025	-200.000	0.015	0.128
-734.010	-24.855	-0.300	-0.180
-732.996	46.292	-0.172	-0.161
-731.981	26.347	0.068	0.058
-730.966	330.671	-0.092	-0.179
-729.952	331.328	0.220	-0.428
-728.937	-12.043	-0.288	-0.191
-727.923	119.384	0.097	0.121
-726.908	800.000	0.049	0.213
-725.894	-200.000	0.004	-0.070
-724.879	-200.000	0.007	-0.079
-723.864	78.740	-0.223	-0.242
-722.850	-58.411	0.182	0.080
-721.835	119.638	-0.232	0.291
-720.821	800.000	0.072	-0.219
-719.806	-200.000	0.029	-0.184
-718.791	-149.803	0.041	-0.003
-717.777	7.106	-0.146	-0.110
-716.762	274.579	0.188	0.337
-715.748	-200.000	0.042	0.188
-714.733	42.158	-0.134	-0.123
-713.718	-194.950	-0.086	0.001
-712.704	-200.000	-0.071	0.344
-711.689	-83.098	0.246	-0.080
-710.675	543.385	-0.066	-0.158
-709.660	64.503	0.040	-0.041
-708.645	-131.969	0.122	-0.016
-707.631	-83.280	0.130	-0.042
-706.616	800.000	-0.049	-0.142
-705.602	-151.638	-0.200	-0.015
-704.587	527.848	-0.147	0.351
-703.572	165.664	-0.142	-0.203
-702.558	-96.840	-0.392	0.104
-701.543	196.256	0.135	-0.208
-700.529	652.093	-0.148	-0.384
-699.514	-112.309	-0.198	0.040
-698.499	-200.000	-0.056	0.273
-697.485	-86.961	-0.150	-0.046
-696.470	-125.504	0.222	-0.034
-695.456	-200.000	0.086	0.425
-694.441	-105.293	0.226	-0.052
-693.426	-61.203	0.202	-0.086
-692.412	518.705	-0.101	-0.239
-691.397	-55.204	0.059	-0.027
-690.383	-200.000	0.009	0.188
-689.368	43.080	-0.272	0.251
-688.354	-200.000	-0.336	0.001
-687.339	800.000	-0.072	-0.272
-686.324	530.822	0.008	-0.018
-685.310	407.145	-0.089	-0.191
-684.295	-200.000	-0.029	0.176
-683.281	-89.290	0.195	0.058
-682.266	374.527	0.078	0.161
-681.251	88.269	-0.189	-0.212
-680.237	-200.000	0.004	-0.112
-679.222	-200.000	0.012	-0.127
-678.208	800.000	-0.033	-0.139
-677.193	-183.475	-0.199	-0.003
-676.178	463.028	-0.034	-0.076
-675.164	800.000	-0.062	-0.229
-674.149	800.000	0.022	-0.065
-673.135	93.975	0.151	-0.172
-672.120	-99.769	0.211	-0.053
-671.105	-200.000	0.016	0.097
-670.091	-190.162	-0.235	-0.003
-669.076	-33.551	0.072	-0.040
-668.062	800.000	0.037	0.111
-667.047	-59.993	-0.270	-0.116
-666.032	89.376	0.087	-0.097
-665.018	61.955	-0.214	-0.216
-664.003	-200.000	-0.099	-0.446
-662.989	70.853	0.174	-0.182
-661.974	312.400	-0.097	-0.183
-660.959	187.108	-0.077	-0.116
-659.945	-200.000	0.004	0.018
-658.930	50.079	-0.179	0.171
-657.916	491.698	-0.162	-0.373
-656.901	531.767	-0.053	0.126
-655.886	-42.524	-0.418	-0.215
-654.872	-149.381	0.149	-0.012
-653.857	800.000	-0.069	0.272
-652.843	-200.000	0.066	-0.397
-651.828	72.183	0.041	-0.044
-650.814	430.016	0.108	0.236
-649.799	-200.000	0.047	0.408
-648.784	15.833	-0.079	0.062
-647.770	-117.867	-0.211	-0.038
-646.755	511.340	0.059	-0.138
-645.741	278.363	-0.099	0.179
-644.726	-200.000	0.020	0.180
-643.711	-2.509	0.051	-0.036
-642.697	-119.153	-0.256	0.045
-641.682	-121.278	0.067	-0.011
-640.668	-77.763	0.043	0.015
-639.653	797.233	0.103	-0.286
-638.638	-90.053	-0.113	-0.033
-637.624	111.849	-0.173	0.211
-636.609	-107.289	0.307	-0.068
-635.595	28.942	0.020	0.017
-634.580	-200.000	-0.076	0.367
-633.565	-200.000	-0.037	0.213
-632.551	-162.213	0.119	0.006
-631.536	157.741	0.328	0.458
-630.522	-88.794	-0.302	0.090
-629.507	250.856	0.137	-0.235
-628.492	800.000	0.029	-0.113
-627.478	-78.065	-0.132	-0.046
-626.463	-158.895	-0.118	-0.007
-625.449	-67.115	0.301	-0.119
-624.434	489.220	-0.064	-0.147
-623.419	-156.405	-0.147	0.009
-622.405	-72.428	0.160	0.060
-621.390	-45.822	0.195	0.097
-620.376	-200.000	-0.077	-0.521
-619.361	800.000	-0.106	-0.305
-618.346	-71.751	-0.394	0.148
-617.332	-138.373	0.044	0.005
-616.317	-62.451	-0.393	-0.165
-615.303	800.000	0.066	-0.258
-614.288	-200.000	0.029	-0.347
-613.273	406.644	0.025	0.053
-612.259	-96.686	0.133	-0.035
-611.244	-8.938	0.317	-0.214
-610.230	-200.000	-0.003	-0.235
-609.215	47.104	-0.043	0.040
-608.201	800.000	0.055	0.234
-607.186	7.387	0.094	0.071
-606.171	30.814	-0.056	-0.049
-605.157	236.216	-0.081	0.135
-604.142	-121.080	-0.217	-0.037
-603.128	56.261	0.138	0.135
-602.113	-200.000	0.011	0.084
-601.098	-200.000	0.007	0.234
-600.084	608.844	-0.051	-0.129
-599.069	-61.296	0.133	0.056
-598.055	608.336	-0.138	-0.348
-597.040	36.041	-0.244	-0.216
-596.025	56.559	0.049	0.048
-595.011	-142.995	0.044	-0.004
-593.996	-74.496	0.177	0.064
-592.982	-200.000	-0.031	0.160
-591.967	-91.880	-0.204	-0.058
-590.952	25.872	-0.128	0.108
-589.938	153.010	-0.166	0.228
-588.923	85.680	0.118	0.131
-587.909	616.129	0.073	0.184
-586.894	800.000	-0.055	0.238
-585.879	-200.000	-0.001	0.167
-584.865	-94.358	-0.311	0.085
-583.850	270.639	0.117	-0.207
-582.836	-46.494	-0.153	0.076
-581.821	-84.519	-0.145	-0.046
-580.806	-200.000	-0.025	0.189
-579.792	696.658	0.124	-0.328
-578.777	-18.330	-0.126	0.079
-577.763	41.335	0.166	0.151
-576.748	-157.695	-0.241	0.014
-575.733	-119.497	0.377	-0.066
-574.719	50.512	0.343	0.326
-573.704	-40.734	-0.064	-0.033
-572.690	15.798	-0.226	-0.179
-571.675	-11.669	0.140	0.093
-570.661	318.192	-0.016	-0.030
-569.646	532.315	0.090	0.214
-568.631	121.149	0.124	-0.156
-567.617	-59.971	0.144	0.062
-566.602	118.609	0.087	-0.108
-565.588	196.775	0.014	-0.021
-564.573	1.953	0.161	-0.116
-563.558	44.030	0.087	0.080
-562.544	261.348	-0.099	0.172
-561.529	-200.000	-0.052	-0.250
-560.515	-167.184	0.241	0.010
-559.500	-154.088	0.103	-0.007
-558.485	743.011	0.051	-0.139
-557.471	-62.532	-0.147	-0.062
-556.456	-163.535	-0.217	-0.010
-555.442	-132.022	0.246	0.032
-554.427	-23.828	0.191	-0.115
-553.412	-70.829	0.227	0.086
-552.398	-68.321	-0.420	-0.164
-551.383	-18.940	-0.253	0.158
-550.369	800.000	0.082	-0.298
-549.354	254.900	0.079	-0.136
-548.339	309.379	-0.153	0.288
-547.325	139.634	-0.007	-0.009
-546.310	-71.303	0.181	-0.068
-545.296	-200.000	0.013	0.340
-544.281	-200.000	0.007	0.220
-543.266	-113.256	-0.317	-0.063
-542.252	-32.251	0.132	-0.074
-541.237	-88.230	-0.230	0.069
-540.223	-200.000	-0.016	-0.116
-539.208	-33.782	-0.126	-0.070
-538.193	545.831	-0.049	-0.117
-537.179	-73.888	0.298	-0.109
-536.164	-81.672	-0.327	-0.108
-535.150	800.000	0.119	0.349
-534.135	-200.000	-0.024	-0.313
-533.121	0.745	0.046	-0.033
-532.106	25.905	0.222	0.186
-531.091	149.381	0.178	-0.241
-530.077	109.438	0.267	-0.322
-529.062	57.600	0.126	0.124
-528.048	-29.218	0.221	0.127
-527.033	233.558	-0.011	-0.018
-526.018	-62.550	0.171	0.071
-525.004	800.000	0.099	0.349
-523.989	-137.111	-0.132	-0.015
-522.975	-101.396	0.253	0.062
-521.960	162.686	-0.174	-0.245
-520.945	-200.000	0.002	-0.018
-519.931	128.052	0.125	0.160
-518.916	-17.515	-0.166	0.105
-517.902	-104.770	-0.177	0.041
-516.887	-43.787	-0.293	0.148
-515.872	-170.041	-0.277	-0.010
-514.858	-4.944	0.080	0.055
-513.843	656.774	-0.048	-0.124
-512.829	-31.012	0.404	-0.229
-511.814	125.275	-0.167	-0.212
-510.799	-200.000	0.025	-0.204
-509.785	392.625	-0.145	0.302
-508.770	-87.641	-0.401	-0.121
-507.756	296.426	-0.087	0.161
-506.741	204.137	0.144	0.224
-505.726	-200.000	-0.045	0.319
-504.712	127.290	-0.344	0.438
-503.697	56.519	-0.084	-0.082
-502.683	-91.958	-0.151	-0.043
-501.668	-85.013	0.088	0.028
-500.653	530.546	0.068	-0.161
-499.639	-139.530	-0.051	-0.005
-498.624	-200.000	0.002	-0.165
-497.610	-30.681	0.148	-0.084
-496.595	-200.000	-0.064	-0.350
-495.581	800.000	-0.133	-0.418
-494.566	580.604	-0.146	-0.359
-493.551	-182.647	-0.266	-0.005
-492.537	28.763	-0.255	-0.217
-491.522	690.549	-0.109	-0.287
-490.508	48.202	-0.130	-0.121
-489.493	800.000	-0.077	-0.229
-488.478	800.000	0.031	0.111
-487.464	420.586	0.103	0.222
-486.449	-52.403	0.182	-0.084
-485.435	-200.000	0.040	0.342
-484.420	44.296	0.107	-0.099
-483.405	-27.359	0.043	0.025
-482.391	-200.000	0.015	-0.272
-481.376	-200.000	0.009	-0.365
-480.362	142.632	-0.180	-0.240
-479.347	271.793	0.218	-0.386
-478.332	-200.000	0.023	0.122
-477.318	107.442	-0.083	0.099
-476.303	-136.371	0.107	0.013
-475.289	452.902	0.065	0.145
-474.274	-39.246	-0.247	-0.130
-473.259	800.000	-0.052	0.217
-472.245	109.538	-0.247	-0.297
-471.230	800.000	-0.044	-0.164
-470.216	93.024	0.228	0.258
-469.201	800.000	-0.039	0.150
-468.186	800.000	-0.071	-0.261
-467.172	-64.764	0.148	0.060
-466.157	-200.000	0.009	-0.266
-465.143	-154.737	-0.292	-0.019
-464.128	-200.000	0.003	0.062
-463.113	-200.000	-0.072	-0.369
-462.099	-101.668	0.060	0.014
-461.084	800.000	-0.031	-0.100
-460.070	-200.000	-0.019	0.230
-459.055	-200.000	0.043	-0.405
-458.040	-200.000	0.008	0.178
-457.026	-50.268	-0.174	-0.082
-456.011	-176.343	-0.151	0.004
-454.997	-40.873	0.111	0.058
-453.982	64.116	0.045	0.045
-452.968	-200.000	-0.029	-0.198
-451.953	100.522	-0.107	0.124
-450.938	-87.506	0.241	-0.073
-449.924	-2.634	0.112	-0.079
-448.909	128.525	0.218	-0.277
-447.895	103.102	0.198	0.232
-446.880	7.237	-0.344	0.257
-445.865	59.680	-0.062	-0.061
-444.851	257.432	-0.205	-0.353
-443.836	800.000	-0.076	0.211
-442.822	288.425	0.016	-0.029
-441.807	-124.377	0.366	0.057
-440.792	297.520	-0.122	0.225
-439.778	344.466	-0.048	0.095
-438.763	800.000	-0.018	0.063
-437.749	-171.862	0.198	-0.006
-436.734	78.079	-0.102	-0.109
-435.719	611.952	0.112	0.281
-434.705	93.788	-0.192	0.217
-433.690	-27.525	-0.136	0.079
-432.676	-95.309	-0.210	-0.057
-431.661	-156.567	0.252	0.016
-430.646	249.066	0.128	0.216
-429.632	477.939	-0.108	0.243
-428.617	55.802	-0.196	0.190
-427.603	232.950	0.045	0.075
-426.588	-60.008	0.221	-0.094
-425.573	-80.397	-0.241	-0.080
-424.559	200.355	-0.188	0.289
-423.544	-200.000	0.002	-0.071
-422.530	201.727	0.119	-0.184
-421.515	-53.005	0.078	-0.036
-420.500	-6.682	0.336	-0.229
-419.486	-35.452	-0.239	-0.130
-418.471	-67.195	0.342	-0.135
-417.457	444.941	0.126	0.276
-416.442	573.738	-0.070	0.171
-415.428	-200.000	-0.001	-0.007
-414.413	-68.527	-0.267	-0.104
-413.398	-88.873	0.100	-0.030
-412.384	-27.975	-0.199	0.115
-411.369	-200.000	0.005	-0.099
-410.355	32.934	0.272	-0.235
-409.340	-200.000	0.084	-0.376
-408.325	-99.913	0.314	-0.078
-407.311	-84.370	-0.173	0.055
-406.296	115.226	0.194	0.237
-405.282	-67.853	-0.442	-0.173
-404.267	800.000	-0.070	-0.272
-403.252	-200.000	-0.032	-0.269
-402.238	-200.000	-0.007	-0.049
-401.223	-82.572	0.272	0.088
-400.209	111.118	-0.051	-0.061
-399.194	-200.000	-0.007	-0.233
-398.179	-200.000	0.015	-0.246
-397.165	800.000	0.026	-0.106
-396.150	648.971	0.111	-0.283
-395.136	19.885	-0.206	-0.165
-394.121	-114.131	0.152	-0.029
-393.106	272.924	-0.104	0.184
-392.092	57.985	0.243	0.238
-391.077	85.481	-0.124	-0.136
-390.063	-110.771	-0.173	0.036
-389.048	293.868	0.238	0.435
-388.033	26.055	0.117	-0.098
-387.019	-200.000	0.050	0.320
-386.004	212.265	-0.088	0.139
-384.990	-200.000	-0.023	-0.218
-383.975	-190.702	-0.116	0.001
-382.960	800.000	-0.064	-0.279
-381.946	65.450	0.218	-0.220
-380.931	800.000	0.078	0.219
-379.917	-20.952	-0.130	-0.079
-378.902	-50.067	-0.131	-0.062
-377.888	4.344	-0.234	-0.171
-376.873	-200.000	0.007	0.200
-375.858	-200.000	0.032	-0.178
-374.844	24.595	-0.206	-0.170
-373.829	-200.000	0.012	-0.071
-372.815	18.760	0.183	0.146
-371.800	73.875	-0.065	-0.068
-370.785	800.000	0.077	0.272
-369.771	-0.605	-0.061	-0.043
-368.756	-132.383	-0.145	-0.019
-367.742	-107.431	0.297	-0.065
-366.727	-46.278	0.082	0.040
-365.712	0.766	0.164	-0.117
-364.698	-74.836	0.207	0.074
-363.683	221.166	0.110	0.176
-362.669	365.376	-0.017	0.033
-361.654	-162.556	0.171	-0.008
-360.639	-86.235	-0.291	0.090
-359.625	-5.745	0.145	0.099
-358.610	69.790	-0.099	0.101
-357.596	41.700	0.072	-0.065
-356.581	775.804	-0.110	-0.299
-355.566	-132.470	0.240	-0.031
-354.552	-5.944	-0.051	0.035
-353.537	192.004	-0.083	-0.125
-352.523	158.081	-0.128	0.177
-351.508	-46.700	0.114	0.056
-350.493	-89.063	0.163	0.048
-349.479	-100.675	-0.187	0.046
-348.464	324.592	-0.020	-0.038
-347.450	-125.452	0.188	-0.029
-346.435	-200.000	0.051	0.284
-345.420	-23.411	0.253	-0.152
-344.406	232.419	0.141	0.231
-343.391	7.850	0.031	0.023
-342.377	-130.862	-0.089	0.012
-341.362	-95.031	0.064	-0.017
-340.348	163.679	0.106	-0.148
-339.333	-200.000	-0.006	-0.086
-338.318	231.717	0.145	-0.237
-337.304	26.493	-0.184	-0.154
-336.289	-33.710	0.092	-0.051
-335.275	363.901	-0.111	-0.222
-334.260	-174.903	0.082	-0.002
-333.245	6.579	0.191	0.141
-332.231	77.504	-0.292	0.309
-331.216	-131.122	-0.180	-0.024
-330.202	-79.263	0.308	-0.104
-329.187	93.458	0.026	-0.029
-328.172	-93.895	-0.098	-0.027
-327.158	-20.737	-0.376	-0.230
-326.143	-193.799	-0.044	0.000
-325.129	-40.319	0.123	-0.064
-324.114	246.481	0.172	0.289
-323.099	-95.476	-0.293	0.078
-322.085	187.692	-0.131	-0.194
-321.070	-102.309	0.292	0.070
-320.056	-38.528	-0.085	0.045
-319.041	48.402	-0.236	0.220
-318.026	-142.912	-0.259	-0.025
-317.012	-174.109	-0.272	0.008
-315.997	196.406	0.068	-0.103
-314.983	-53.967	0.183	0.083
-313.968	441.078	0.107	-0.232
-312.953	-69.383	-0.077	-0.029
-311.939	-87.000	0.114	-0.035
-310.924	-4.690	-0.110	-0.075
-309.910	-200.000	-0.004	0.089
-308.895	-106.074	0.130	-0.029
-307.880	177.697	0.128	0.186
-306.866	190.408	0.257	0.385
-305.851	567.040	-0.150	-0.363
-304.837	800.000	-0.055	-0.221
-303.822	-102.624	-0.280	0.067
-302.807	146.337	-0.144	0.193
-301.793	115.689	0.076	0.093
-300.778	-35.113	-0.162	0.088
-299.764	-81.253	-0.033	-0.011
-298.749	41.786	0.205	0.185
-297.735	142.243	-0.131	-0.173
-296.720	-99.248	0.326	0.082
-295.705	81.053	-0.222	0.238
-294.691	-121.875	-0.312	0.051
-293.676	-21.271	0.100	-0.061
-292.662	-200.000	0.032	-0.184
-291.647	102.747	0.158	0.184
-290.632	245.034	-0.178	0.298
-289.618	-200.000	-0.057	0.291
-288.603	-200.000	0.002	0.214
-287.589	-83.654	0.253	-0.080
-286.574	-59.586	0.056	-0.024
-285.559	-133.533	0.235	0.029
-284.545	117.461	0.200	0.244
-283.530	800.000	0.116	0.345
-282.516	-96.161	0.248	0.065
-281.501	263.100	-0.024	0.042
-280.486	417.195	-0.083	0.177
-279.472	77.176	0.168	-0.177
-278.457	188.421	0.182	-0.270
-277.443	-173.697	-0.298	0.009
-276.428	611.652	0.062	-0.153
-275.413	130.142	-0.262	-0.333
-274.399	104.969	0.348	-0.407
-273.384	-142.179	0.492	0.048
-272.370	300.598	-0.120	-0.220
-271.355	-200.000	-0.009	0.244
-270.340	-44.791	0.247	0.122
-269.326	172.092	-0.250	0.358
-268.311	800.000	0.087	0.360
-267.297	60.578	0.180	0.177
-266.282	-108.422	-0.258	-0.055
-265.267	35.769	-0.108	-0.095
-264.253	-148.473	-0.225	0.018
-263.238	354.334	-0.029	-0.057
-262.224	-200.000	-0.024	-0.191
-261.209	-103.400	-0.123	-0.029
-260.195	800.000	-0.039	0.162
-259.180	355.479	0.162	0.320
-258.165	800.000	0.029	-0.083
-257.151	-70.720	0.263	0.099
-256.136	-200.000	-0.036	-0.226
-255.122	46.421	-0.227	0.209
-254.107	617.154	-0.007	0.018
-253.092	121.534	0.152	0.189
-252.078	69.030	0.180	-0.184
-251.063	-88.957	0.079	-0.023
-250.049	4.465	-0.190	0.138
-249.034	-200.000	0.037	-0.170
-248.019	24.774	-0.168	0.138
-247.005	-200.000	0.005	-0.143
-245.990	-200.000	0.074	-0.328
-244.976	-108.269	0.159	0.034
-243.961	86.391	0.184	0.201
-242.946	-46.387	0.232	0.113
-241.932	-200.000	0.027	0.188
-240.917	44.474	-0.237	0.216
-239.903	-200.000	-0.021	0.270
-238.888	-200.000	-0.026	-0.243
-237.873	-143.516	0.151	0.014
-236.859	-126.826	-0.117	-0.017
-235.844	-3.560	-0.253	-0.175
-234.830	800.000	0.092	-0.327
-233.815	6.850	-0.240	0.178
-232.800	-82.255	0.209	0.067
-231.786	-131.804	0.057	-0.007
-230.771	-200.000	0.006	0.137
-229.757	-200.000	-0.103	-0.515
-228.742	683.224	-0.069	-0.180
-227.727	236.674	0.137	0.224
-226.713	-78.293	0.110	-0.037
-225.698	511.619	0.160	0.370
-224.684	37.115	0.345	0.303
-223.669	73.156	-0.223	-0.232
-222.655	-55.907	0.107	-0.047
-221.640	31.969	-0.229	0.196
-220.625	-200.000	-0.004	0.108
-219.611	46.830	-0.109	0.100
-218.596	-15.964	0.313	-0.198
-217.582	-41.328	-0.048	0.024
-216.567	-94.045	0.160	0.044
-215.552	1.744	0.215	0.154
-214.538	-43.169	-0.197	0.099
-213.523	35.385	0.081	0.071
-212.509	-114.014	-0.325	-0.063
-211.494	206.219	-0.140	-0.217
-210.479	-200.000	-0.012	0.075
-209.465	-78.167	0.300	0.102
-208.450	-49.122	0.136	-0.065
-207.436	719.297	-0.157	0.413
-206.421	-112.196	-0.295	0.059
-205.406	65.758	0.100	-0.100
-204.392	-0.321	-0.321	-0.226
-203.377	800.000	-0.074	0.306
-202.363	11.706	0.259	0.197
-201.348	147.828	-0.033	0.045
-200.333	13.805	0.325	-0.250
-199.319	800.000	0.071	0.283
-198.304	800.000	-0.061	0.214
-197.290	-81.547	-0.116	0.038
-196.275	-147.959	-0.213	-0.018
-195.260	800.000	-0.077	0.244
-194.246	-25.938	0.278	-0.162
-193.231	-200.000	-0.014	-0.126
-192.217	177.070	0.251	0.363
-191.202	-190.867	-0.075	0.001
-190.187	459.849	0.154	-0.340
-189.173	737.619	0.066	0.174
-188.158	-200.000	0.001	-0.098
-187.144	-15.528	-0.261	0.165
-186.129	4.566	0.144	-0.105
-185.114	-51.707	-0.328	-0.151
-184.100	800.000	-0.057	-0.207
-183.085	-14.814	0.175	-0.111
-182.071	23.595	-0.248	-0.203
-181.056	-61.659	0.053	0.022
-180.042	-29.397	-0.142	-0.080
-179.027	800.000	-0.069	-0.194
-178.012	-140.538	-0.299	0.031
-176.998	476.859	-0.115	-0.257
-175.983	-200.000	0.001	-0.136
-174.969	-200.000	0.011	-0.068
-173.954	125.448	0.098	0.122
-172.939	90.260	0.368	0.408
-171.925	-200.000	-0.010	0.108
-170.910	-3.761	-0.090	-0.062
-169.896	-200.000	-0.045	-0.198
-168.881	-92.976	-0.122	-0.034
-167.866	-172.138	-0.137	-0.004
-166.852	516.599	-0.031	-0.072
-165.837	-200.000	-0.019	0.256
-164.823	223.866	0.211	-0.338
-163.808	800.000	0.114	-0.334
-162.793	-35.994	-0.285	0.153
-161.779	184.427	0.110	0.161
-160.764	94.788	0.138	-0.156
-159.750	-200.000	0.036	-0.484
-158.735	262.223	-0.281	0.482
-157.720	-200.000	0.036	0.202
-156.706	-200.000	0.036	0.324
-155.691	-200.000	0.015	0.170
-154.677	-160.990	0.199	-0.010
-153.662	40.692	-0.125	0.112
-152.647	25.020	0.174	0.143
-151.633	127.435	-0.112	-0.140
-150.618	-156.954	0.315	-0.019
-149.604	132.046	-0.054	-0.068
-148.589	-52.238	-0.243	0.112
-147.574	20.100	0.118	-0.094
-146.560	194.480	0.258	-0.387
-145.545	-200.000	-0.043	-0.236
-144.531	65.799	-0.134	-0.134
-143.516	-15.287	0.368	0.232
-142.502	30.753	-0.217	-0.183
-141.487	-8.168	-0.173	-0.116
-140.472	-6.419	0.123	-0.083
-139.458	-200.000	0.024	-0.107
-138.443	495.645	-0.097	0.220
-137.429	-32.704	-0.144	-0.079
-136.414	-55.077	0.517	0.230
-135.399	-200.000	0.034	-0.155
-134.385	-164.793	-0.301	0.013
-133.370	800.000	-0.092	0.266
-132.356	-131.506	0.220	0.029
-131.341	-128.275	-0.396	0.056
-130.326	800.000	-0.127	0.525
-129.312	-200.000	0.049	0.384
-128.297	-200.000	0.010	-0.261
-127.283	-106.411	0.231	-0.051
-126.268	353.366	-0.043	-0.085
-125.253	-25.359	-0.296	-0.173
-124.239	800.000	-0.027	0.090
-123.224	253.558	-0.206	-0.348
-122.210	-105.850	-0.253	-0.056
-121.195	65.350	-0.088	0.087
-120.180	-52.305	0.153	0.070
-119.166	167.714	0.107	-0.151
-118.151	800.000	-0.064	0.224
-117.137	97.503	-0.144	0.163
-116.122	33.174	-0.165	0.141
-115.107	28.433	0.204	-0.171
-114.093	313.748	-0.106	-0.197
-113.078	105.263	-0.197	-0.230
-112.064	800.000	-0.087	0.351
-111.049	266.238	-0.053	-0.092
-110.034	-200.000	0.023	-0.238
-109.020	31.141	-0.188	0.159
-108.005	-142.957	0.217	-0.021
-106.991	-134.283	-0.269	-0.033
-105.976	79.229	0.168	-0.178
-104.962	-118.336	-0.153	-0.027
-103.947	193.322	-0.034	-0.050
-102.932	-200.000	-0.073	0.418
-101.918	22.847	-0.194	-0.157
-100.903	-143.809	0.063	-0.006
-99.889	121.482	0.220	0.271
-98.874	800.000	0.126	-0.413
-97.859	66.586	-0.104	0.104
-96.845	9.478	0.271	-0.203
-95.830	800.000	0.041	0.146
-94.816	-200.000	-0.008	-0.200
-93.801	-79.076	0.037	-0.012
-92.786	-42.955	0.510	-0.256
-91.772	-141.068	0.066	-0.007
-90.757	-94.183	-0.339	0.092
-89.743	742.559	-0.050	-0.132
-88.728	800.000	0.069	-0.232
-87.713	16.870	0.221	0.172
-86.699	-8.318	-0.091	0.060
-85.684	258.832	-0.195	-0.332
-84.670	-59.194	-0.093	-0.040
-83.655	489.481	-0.100	0.224
-82.640	-200.000	-0.025	0.216
-81.626	-147.119	-0.051	-0.004
-80.611	-21.656	-0.096	0.058
-79.597	-39.638	-0.136	-0.070
-78.582	800.000	0.053	-0.199
-77.567	800.000	-0.104	-0.434
-76.553	-200.000	0.009	-0.342
-75.538	-153.061	0.120	0.008
-74.524	60.692	0.111	0.109
-73.509	-142.815	0.379	0.036
-72.494	101.063	-0.180	-0.206
-71.480	-33.683	0.316	0.172
-70.465	53.983	-0.187	-0.177
-69.451	-200.000	0.033	-0.173
-68.436	-81.032	0.359	0.117
-67.422	-150.436	0.202	0.015
-66.407	800.000	-0.016	-0.055
-65.392	27.637	0.247	-0.205
-64.378	134.734	0.284	0.363
-63.363	-59.835	0.155	0.065
-62.349	53.743	-0.207	0.196
-61.334	59.849	-1.026	-0.999
-60.319	146.131	0.417	0.552
-59.305	-200.000	-0.055	-0.853
-58.290	260.917	0.530	0.904
-57.276	491.801	0.652	1.473
-56.261	-200.000	97.878	590.419
-55.246	560.267	1388.421	3306.026
-54.232	153.721	2587.487	3494.440
-53.217	114.781	2177.319	2616.549
-52.203	45.035	1715.050	1557.022
-51.188	37.787	1527.022	1336.773
-50.173	35.271	1500.069	1296.145
-49.159	55.541	1551.919	1480.756
-48.144	58.911	1570.654	1521.709
-47.130	38.240	1524.638	1337.582
-46.115	34.763	1509.877	1300.951
-45.100	34.601	1506.079	1296.528
-44.086	34.609	1504.384	1295.070
-43.071	34.521	1502.953	1293.196
-42.057	34.523	1501.222	1291.665
-41.042	34.614	1499.437	1290.691
-40.027	34.467	1498.285	1288.659
-39.013	34.544	1496.742	1287.798
-37.998	34.462	1495.561	1286.176
-36.984	34.517	1494.528	1285.612
-35.969	34.502	1493.181	1284.298
-34.954	34.540	1491.626	1283.169
-33.940	34.430	1490.454	1281.366
-32.925	34.536	1488.944	1280.732
-31.911	34.517	1487.424	1279.247
-30.896	34.534	1485.988	1278.071
-29.881	34.549	1485.114	1277.375
-28.867	34.586	1483.626	1276.287
-27.852	34.600	1482.010	1274.938
-26.838	34.603	1480.776	1273.848
-25.823	34.511	1479.075	1271.723
-24.809	34.540	1478.273	1271.172
-23.794	34.481	1476.496	1269.206
-22.779	34.553	1474.999	1268.343
-21.765	34.522	1474.342	1267.524
-20.750	34.613	1473.175	1267.074
-19.736	34.569	1472.077	1265.788
-18.721	34.539	1471.245	1264.824
-17.706	34.585	1469.945	1263.959
-16.692	34.477	1468.803	1262.217
-15.677	34.495	1467.866	1261.479
-14.663	34.430	1466.929	1260.192
-13.648	34.510	1466.389	1260.210
-12.633	34.463	1465.148	1258.780
-11.619	34.429	1464.477	1257.932
-10.604	34.456	1463.676	1257.370
-9.590	34.409	1462.667	1256.143
-8.575	34.447	1461.990	1255.759
-7.560	34.439	1461.021	1254.826
-6.546	34.461	1460.224	1254.237
-5.531	34.398	1459.328	1253.007
-4.517	34.501	1458.088	1252.566
-3.502	34.488	1457.147	1251.624
-2.487	34.451	1456.117	1250.446
-1.473	34.401	1455.046	1249.151
-0.458	34.532	1453.726	1248.825
0.556	34.585	1444.242	1236.797
1.571	31.616	1418.757	1195.931
2.586	28.180	1358.296	1123.803
3.600	26.481	1276.780	1046.450
4.615	25.013	1230.168	999.970
5.629	21.155	1173.074	932.898
6.644	11.218	1085.986	814.156
7.659	3.316	1042.414	743.404
8.673	2.103	1037.377	733.916
9.688	1.791	1034.053	730.008
10.702	1.679	1032.722	728.466
11.717	1.768	1030.486	727.250
12.731	5.384	1035.216	747.844
13.746	15.366	1049.187	806.051
14.761	23.125	1058.659	850.725
15.775	24.592	1060.188	858.937
16.790	24.896	1060.147	860.288
17.804	24.873	1058.813	859.020
18.819	24.536	1058.355	856.956
19.834	24.840	1057.196	857.398
20.848	24.797	1057.172	857.094
21.863	24.905	1057.141	857.512
22.877	24.997	1056.566	857.413
23.892	24.916	1055.565	856.135
24.907	24.755	1055.276	855.057
25.921	24.780	1054.660	854.602
26.936	24.906	1053.550	854.228
27.950	24.816	1052.671	853.010
28.965	24.869	1051.128	851.934
29.980	24.724	1049.641	849.964
30.994	24.549	1048.929	848.482
32.009	24.855	1047.889	849.016
33.023	24.893	1047.715	848.983
34.038	24.698	1046.177	846.739
35.053	24.788	1045.361	846.427
36.067	24.914	1044.443	846.205
37.082	24.809	1044.269	845.495
38.096	24.886	1043.249	844.957
39.111	24.994	1042.755	844.992
40.126	25.237	1041.766	845.261
41.140	25.110	1040.503	843.562
42.155	24.581	1039.609	840.278
43.169	24.368	1038.178	838.047
44.184	24.261	1037.033	836.546
45.199	24.546	1035.729	836.753
46.213	24.544	1034.606	835.762
47.228	24.382	1034.082	834.507
48.242	24.631	1033.582	835.194
49.257	24.737	1032.727	834.925
50.271	24.747	1031.846	834.187
51.286	24.784	1031.400	833.923
52.301	24.861	1030.747	833.681
53.315	24.877	1029.837	832.945
54.330	24.889	1028.809	832.096
55.344	24.837	1027.886	831.035
56.359	24.741	1027.629	830.305
57.374	24.700	1027.143	829.649
58.388	24.657	1025.534	828.080
59.403	24.609	1024.762	827.160
60.417	24.615	1024.436	826.850
61.432	24.485	1023.280	825.244
62.447	24.484	1023.062	824.991
63.461	24.699	1022.225	825.237
64.476	24.569	1021.805	824.224
65.490	24.648	1020.471	823.438
66.505	24.556	1019.663	822.292
67.520	24.524	1019.072	821.594
68.534	24.627	1018.242	821.327
69.549	24.446	1017.519	819.837
70.563	24.197	1016.164	817.532
71.578	24.048	1015.168	815.974
72.593	24.070	1014.646	815.584
73.607	23.953	1013.486	814.041
74.622	23.976	1012.489	813.276
75.636	24.214	1012.259	814.109
76.651	24.476	1011.358	814.506
77.666	24.269	1010.889	813.111
78.680	24.126	1009.629	811.376
79.695	24.084	1009.012	810.615
80.709	24.344	1008.425	811.257
81.724	24.449	1007.599	810.997
82.739	24.525	1006.508	810.392
83.753	24.350	1006.354	809.404
84.768	24.651	1005.568	810.061
85.782	25.058	1004.785	811.202
86.797	25.042	1004.371	810.723
87.812	25.062	1003.675	810.179
88.826	24.999	1002.562	808.928
89.841	24.969	1001.761	808.072
90.855	25.052	1000.994	807.757
91.870	24.993	1000.317	806.873
92.884	25.054	999.625	806.521
93.899	24.943	998.807	805.287
94.914	24.959	997.219	804.009
95.928	25.152	996.615	804.317
96.943	25.034	995.806	803.061
97.957	24.727	994.825	800.828
98.972	24.343	994.028	798.398
99.987	24.407	992.549	797.421
101.001	24.437	992.133	797.154
102.016	24.698	992.135	798.251
103.030	24.769	990.703	797.341
104.045	24.697	989.878	796.289
105.060	24.536	988.672	794.533
106.074	24.627	986.958	793.488
107.089	24.530	986.553	792.660
108.103	24.699	986.638	793.409
109.118	24.786	985.979	793.196
110.133	24.507	984.845	790.978
111.147	24.688	983.396	790.543
112.162	24.449	982.543	788.733
113.176	24.198	981.164	786.446
114.191	24.323	980.351	786.275
115.206	24.313	980.089	785.954
116.220	24.088	978.606	783.704
117.235	23.999	978.140	782.869
118.249	24.298	977.322	783.458
119.264	24.169	976.941	782.519
120.279	24.108	975.455	780.991
121.293	24.239	974.909	781.061
122.308	24.155	974.347	780.174
123.322	24.179	973.641	779.644
124.337	24.223	972.405	778.777
125.352	23.943	971.529	776.783
126.366	23.780	969.161	774.113
127.381	23.524	967.829	771.866
128.395	24.011	967.842	773.926
129.410	24.575	967.713	776.206
130.424	24.759	967.312	776.615
131.439	24.860	965.984	775.919
132.454	24.610	965.368	774.269
133.468	24.839	963.870	773.991
134.483	24.532	963.876	772.598
135.497	24.660	963.043	772.418
136.512	24.840	962.666	772.824
137.527	24.925	961.771	772.405
138.541	24.898	961.198	771.759
139.556	25.068	959.895	771.378
140.570	25.034	959.250	770.645
141.585	24.956	958.563	769.688
142.600	24.985	957.803	769.133
143.614	24.976	956.815	768.233
144.629	24.991	956.366	767.872
145.643	25.311	955.772	768.696
146.658	25.282	954.084	767.147
147.673	24.914	953.581	765.103
148.687	24.867	952.294	763.801
149.702	24.837	951.345	762.845
150.716	24.720	950.352	761.482
151.731	24.802	949.232	760.866
152.746	24.914	948.331	760.551
153.760	25.044	947.977	760.753
154.775	25.199	947.020	760.576
155.789	25.186	946.633	760.140
156.804	25.364	945.522	759.935
157.819	25.037	944.564	757.716
158.833	25.235	943.799	757.873
159.848	25.238	943.257	757.380
160.862	25.199	942.695	756.701
161.877	25.139	941.292	755.255
162.892	24.965	940.411	753.747
163.906	25.174	939.526	753.850
164.921	25.173	938.787	753.185
165.935	25.091	937.697	751.899
166.950	25.106	936.574	750.998
167.964	25.294	935.894	751.174
168.979	25.166	934.672	749.592
169.994	25.034	933.657	748.159
171.008	24.851	933.011	746.813
172.023	25.063	932.516	747.235
173.037	25.218	931.730	747.182
174.052	25.088	930.180	745.332
175.067	24.860	929.260	743.584
176.081	24.851	928.574	742.929
177.096	24.901	928.009	742.620
178.110	24.891	927.405	742.032
179.125	24.755	926.377	740.579
180.140	24.562	924.904	738.536
181.154	24.540	924.421	737.995
182.169	24.600	924.122	737.939
183.183	24.901	923.689	738.773
184.198	24.963	923.671	738.946
185.213	25.161	922.461	738.728
186.227	25.054	921.881	737.760
187.242	25.117	921.711	737.816
188.256	25.090	921.031	737.097
189.271	24.903	920.327	735.698
190.286	25.182	919.643	736.232
191.300	25.057	918.285	734.567
192.315	24.505	917.039	731.247
193.329	23.864	915.329	727.198
194.344	23.344	914.342	724.222
195.359	24.032	914.766	727.307
196.373	24.796	914.976	730.532
197.388	25.161	914.641	731.687
198.402	25.028	914.153	730.692
199.417	24.858	913.916	729.744
200.432	25.027	912.931	729.583
201.446	24.758	912.553	728.120
202.461	24.625	911.544	726.708
203.475	24.669	911.156	726.515
204.490	24.247	909.658	723.542
205.504	23.197	907.406	717.434
206.519	23.492	907.367	718.535
207.534	24.445	907.859	722.723
208.548	24.592	907.238	722.759
209.563	24.877	907.029	723.683
210.577	24.940	906.553	723.492
211.592	24.734	905.711	721.925
212.607	25.207	905.488	723.592
213.621	25.182	905.134	723.143
214.636	25.039	904.678	722.137
215.650	25.141	903.936	721.892
216.665	25.063	903.434	721.115
217.680	25.080	903.087	720.841
218.694	25.216	902.780	721.081
219.709	24.865	901.547	718.623
220.723	24.552	900.224	716.249
221.738	24.790	900.045	716.996
222.753	25.041	899.435	717.453
223.767	24.865	898.854	716.221
224.782	24.909	898.052	715.694
225.796	25.065	897.873	716.112
226.811	25.164	897.242	715.942
227.826	24.994	895.498	713.809
228.840	24.020	894.251	708.874
229.855	23.934	893.461	707.845
230.869	24.227	893.336	708.846
231.884	24.064	892.337	707.342
232.899	23.900	892.106	706.447
233.913	24.784	891.879	709.713
234.928	25.003	891.249	710.018
235.942	24.897	890.811	709.187
236.957	24.871	890.213	708.544
237.972	24.626	889.370	706.840
238.986	24.480	888.402	705.432
240.001	24.556	888.243	705.545
241.015	24.686	887.357	705.292
242.030	24.592	886.895	704.490
243.045	24.904	886.611	705.435
244.059	25.000	885.694	705.017
245.074	25.108	885.435	705.176
246.088	25.076	884.738	704.430
247.103	24.660	884.054	702.192
248.117	24.775	883.096	701.819
249.132	25.194	883.155	703.449
250.147	25.586	883.079	704.862
251.161	25.781	882.552	705.141
252.176	25.843	882.304	705.123
253.190	25.924	881.484	704.723
254.205	25.842	880.949	703.913
255.220	26.205	880.531	704.934
256.234	26.086	879.706	703.745
257.249	25.767	879.598	702.356
258.263	25.820	878.440	701.575
259.278	25.876	877.653	701.102
260.293	25.863	877.616	700.958
261.307	26.070	876.877	701.111
262.322	25.905	876.241	699.901
263.336	25.761	875.614	698.778
264.351	25.376	873.795	695.772
265.366	24.170	871.986	689.605
266.380	23.902	870.721	687.507
267.395	24.714	871.610	691.291
268.409	25.502	871.549	694.226
269.424	25.449	871.051	693.562
270.439	25.526	870.865	693.650
271.453	25.716	870.026	693.653
272.468	25.702	869.322	692.978
273.482	25.763	869.575	693.354
274.497	25.965	868.606	693.297
275.512	25.814	867.658	691.897
276.526	25.152	866.361	688.261
277.541	25.320	865.984	688.544
278.555	25.652	865.645	689.487
279.570	25.600	864.758	688.520
280.585	25.400	864.454	687.453
281.599	25.485	863.837	687.228
282.614	25.591	863.524	687.322
283.628	25.124	862.628	684.765
284.643	24.837	861.672	682.850
285.657	25.273	861.554	684.360
286.672	25.114	860.640	682.966
287.687	24.638	859.756	680.395
288.701	24.829	859.971	681.229
289.716	25.250	859.793	682.630
290.730	24.988	858.818	680.801
291.745	24.842	857.920	679.474
292.760	24.854	856.256	678.141
293.774	24.566	856.351	677.065
294.789	25.494	856.790	680.869
295.803	26.209	856.768	683.499
296.818	26.205	856.445	683.165
297.833	26.333	856.007	683.240
298.847	26.119	854.658	681.295
299.862	25.561	854.100	678.685
300.876	25.845	853.737	679.408
301.891	26.073	853.501	680.020
302.906	26.186	852.543	679.621
303.920	25.886	851.285	677.430
304.935	25.698	850.924	676.377
305.949	26.022	850.565	677.247
306.964	26.152	850.138	677.336
307.979	25.954	849.630	676.131
308.993	25.829	849.297	675.335
310.008	26.197	848.772	676.238
311.022	26.448	847.994	676.495
312.037	26.091	847.820	674.964
313.052	25.967	847.029	673.810
314.066	25.926	846.511	673.183
315.081	25.214	844.581	668.937
316.095	24.467	843.663	665.367
317.110	25.054	843.467	667.339
318.125	25.945	843.820	670.878
319.139	25.605	842.445	668.463
320.154	24.299	840.852	662.293
321.168	23.845	840.111	659.964
322.183	24.356	841.041	662.535
323.197	25.258	841.217	665.964
324.212	25.667	840.905	667.174
325.227	25.765	840.669	667.293
326.241	26.088	839.861	667.788
327.256	26.044	839.058	666.927
328.270	25.776	838.687	665.581
329.285	25.680	837.757	664.429
330.300	25.476	837.435	663.362
331.314	25.242	836.634	661.807
332.329	25.421	835.836	661.777
333.343	25.738	835.506	662.624
334.358	26.012	835.223	663.350
335.373	26.113	834.710	663.256
336.387	26.238	834.150	663.211
337.402	26.396	833.989	663.603
338.416	26.538	833.653	663.797
339.431	26.477	833.024	663.014
340.446	26.612	832.202	662.796
341.460	26.651	832.288	662.947
342.475	26.569	831.479	661.947
343.489	26.416	830.765	660.761
344.504	26.404	830.219	660.222
345.519	26.578	830.130	660.729
346.533	26.850	829.534	661.187
347.548	26.927	829.057	661.030
348.562	26.812	828.675	660.248
349.577	26.877	827.952	659.849
350.592	26.857	827.308	659.203
351.606	26.836	826.921	658.762
352.621	26.837	826.413	658.304
353.635	26.629	825.983	657.147
354.650	26.669	825.089	656.523
355.665	26.290	824.826	654.882
356.679	25.245	822.906	649.520
357.694	25.110	822.101	648.340
358.708	25.900	822.228	651.239
359.723	25.754	821.547	650.114
360.738	25.925	821.788	650.862
361.752	26.497	821.252	652.443
362.767	26.563	821.378	652.725
363.781	27.009	820.618	653.670
364.796	27.174	820.361	654.002
365.810	27.179	820.223	653.852
366.825	27.287	819.757	653.811
367.840	27.293	819.527	653.591
368.854	27.149	818.949	652.556
369.869	26.609	817.920	649.740
370.883	26.542	817.459	649.076
371.898	26.570	816.966	648.726
372.913	26.542	815.970	647.778
373.927	26.417	815.525	646.920
374.942	26.564	815.221	647.148
375.956	26.736	814.412	647.064
376.971	26.948	813.777	647.259
377.986	26.987	813.523	647.135
379.000	27.465	812.740	648.158
380.015	27.195	812.470	646.926
381.029	26.957	811.857	645.533
382.044	26.915	811.420	644.978
383.059	27.057	811.251	645.294
384.073	27.320	810.203	645.334
385.088	27.280	809.484	644.563
386.102	27.245	809.261	644.204
387.117	27.063	808.431	642.843
388.132	26.885	807.825	641.674
389.146	26.769	806.889	640.464
390.161	26.167	806.339	637.847
391.175	26.153	806.008	637.478
392.190	26.698	806.176	639.478
393.205	26.895	805.231	639.366
394.219	25.724	803.998	634.209
395.234	24.162	801.556	626.736
396.248	23.518	800.310	623.442
397.263	24.548	801.129	627.646
398.278	26.340	802.683	635.110
399.292	26.828	802.523	636.642
400.307	26.616	801.821	635.286
401.321	26.444	801.380	634.278
402.336	26.539	800.906	634.178
403.350	26.740	801.025	634.922
404.365	27.255	800.834	636.518
405.380	27.562	800.710	637.436
406.394	27.798	800.525	638.057
407.409	28.064	800.038	638.543
408.423	28.088	799.264	637.951
409.438	27.772	798.958	636.549
410.453	27.829	798.546	636.363
411.467	27.829	798.361	636.160
412.482	27.769	797.654	635.329
413.496	27.964	796.982	635.417
414.511	27.842	796.920	634.886
415.526	28.054	796.176	634.974
416.540	27.869	796.164	634.266
417.555	27.836	795.543	633.600
418.569	27.680	794.667	632.305
419.584	27.583	794.050	631.425
420.599	27.612	793.693	631.184
421.613	108.836	1280.759	1446.414
422.628	93.652	1351.734	1446.516
