DTS Sentinel unit serial number:	SN413079Multiplexer serial number:	ORYXHardware model number:	OX4-SRSoftware version number:	ORYX F/W v4.00 Oryx Data Collector v3.7.2.0data status	okinstallation	princeton_trtdifferential loss correction	single-endedforward channel	channel 3reverse channel	N/Adate	2019/09/19time	05:40:35forward acquisition time	60.00reverse acquisition time	0.00gamma	496.2192k internal	0.2349k external	0.2349temperature offset calibration	0.9988default loss term (dB/km)	0.3790temperature slope calibration	1.0000multiplexer offset coefficient	1.0000multiplexer slope coefficient	1.0000fibre end	0.00T internal ref (°C)	19.31T ext. ref 1 (°C)	0.58T ext. ref 2 (°C)	12.84length (m)	temperature (°C)	Stokes	anti-Stokes-747.200	-103.008	0.054	0.013
-746.185	-0.522	-0.405	0.287
-745.171	561.657	-0.098	0.237
-744.156	6.109	-0.129	-0.095
-743.142	151.598	0.302	0.411
-742.127	-200.000	-0.036	0.325
-741.112	165.337	0.103	0.145
-740.098	319.053	-0.085	0.161
-739.083	-200.000	-0.005	0.085
-738.069	10.597	-0.128	0.097
-737.054	-143.516	-0.312	-0.030
-736.039	-24.541	-0.362	-0.215
-735.025	-165.170	0.136	-0.006
-734.010	-200.000	-0.141	-0.622
-732.996	-200.000	-0.031	-0.164
-731.981	-149.230	0.174	0.014
-730.966	-200.000	0.079	0.389
-729.952	-45.768	0.218	-0.108
-728.937	-48.903	-0.209	0.100
-727.923	479.994	-0.056	-0.127
-726.908	552.871	-0.150	-0.360
-725.894	-36.413	-0.391	-0.210
-724.879	-68.990	-0.215	-0.083
-723.864	800.000	-0.015	-0.059
-722.850	39.652	0.062	0.055
-721.835	-200.000	-0.033	0.449
-720.821	571.735	-0.065	-0.159
-719.806	43.233	0.102	-0.093
-718.791	-137.087	-0.335	0.038
-717.777	-200.000	-0.011	-0.107
-716.762	-19.709	0.280	0.173
-715.748	800.000	-0.068	-0.275
-714.733	-200.000	0.045	0.207
-713.718	-75.002	-0.240	0.086
-712.704	-80.807	0.209	0.069
-711.689	-164.690	-0.301	-0.014
-710.675	3.979	-0.142	-0.104
-709.660	-200.000	-0.009	-0.285
-708.645	800.000	0.063	-0.214
-707.631	-37.616	0.222	-0.118
-706.616	103.970	-0.089	-0.104
-705.602	-89.700	-0.086	-0.025
-704.587	-70.853	0.231	0.087
-703.572	-53.278	0.090	0.041
-702.558	-113.786	-0.360	0.070
-701.543	-101.203	-0.164	0.040
-700.529	-53.387	-0.226	-0.103
-699.514	415.284	0.122	0.258
-698.499	78.609	0.086	0.092
-697.485	-90.564	0.226	-0.065
-696.470	53.002	-0.104	-0.099
-695.456	-200.000	0.040	-0.197
-694.441	-48.833	-0.199	0.095
-693.426	-106.238	0.122	-0.027
-692.412	800.000	0.079	-0.325
-691.397	47.614	-0.247	-0.230
-690.383	172.153	0.179	0.256
-689.368	-200.000	0.022	-0.176
-688.354	-23.652	0.150	-0.090
-687.339	-41.296	-0.448	-0.230
-686.324	-3.905	-0.278	0.193
-685.310	-26.870	0.119	0.069
-684.295	-132.789	0.058	0.007
-683.281	-106.429	-0.150	-0.033
-682.266	110.445	-0.167	0.200
-681.251	-186.982	-0.189	0.003
-680.237	165.408	-0.123	-0.173
-679.222	262.039	0.034	0.059
-678.208	11.315	-0.096	0.074
-677.193	278.305	0.055	-0.097
-676.178	375.523	-0.092	0.186
-675.164	148.371	-0.182	0.245
-674.149	-119.967	0.261	-0.045
-673.135	149.347	0.154	0.208
-672.120	-145.469	-0.193	0.017
-671.105	-200.000	0.008	0.063
-670.091	34.718	0.057	-0.050
-669.076	800.000	0.071	-0.283
-668.062	-49.171	-0.219	0.104
-667.047	-22.001	0.318	-0.192
-666.032	-200.000	-0.014	-0.080
-665.018	-97.365	0.403	-0.105
-664.003	29.509	0.487	0.412
-662.989	-9.259	-0.091	0.060
-661.974	-90.927	-0.294	0.084
-660.959	-29.068	-0.303	0.173
-659.945	327.394	-0.078	-0.149
-658.930	25.557	-0.052	-0.043
-657.916	785.466	-0.101	0.276
-656.901	22.975	-0.418	0.341
-655.886	21.585	-0.095	-0.077
-654.872	-200.000	-0.012	-0.082
-653.857	254.967	-0.035	0.060
-652.843	-73.676	0.272	0.099
-651.828	366.768	0.121	-0.243
-650.814	98.212	0.197	-0.226
-649.799	22.309	-0.076	-0.062
-648.784	442.466	0.125	-0.272
-647.770	-95.187	-0.355	0.095
-646.755	150.516	0.219	0.295
-645.741	47.130	0.152	0.141
-644.726	332.968	-0.072	0.138
-643.711	95.188	-0.160	-0.181
-642.697	-200.000	0.012	-0.129
-641.682	-108.352	0.171	0.037
-640.668	338.315	-0.096	-0.186
-639.653	-89.870	-0.272	-0.079
-638.638	-25.035	-0.425	0.251
-637.624	-46.708	-0.216	0.105
-636.609	-161.308	0.139	-0.007
-635.595	288.656	0.206	0.371
-634.580	-59.670	0.304	-0.130
-633.565	144.387	0.207	-0.275
-632.551	213.786	-0.211	-0.331
-631.536	467.219	0.017	-0.038
-630.522	114.371	0.230	0.279
-629.507	18.819	0.175	0.139
-628.492	800.000	0.030	-0.109
-627.478	184.808	0.052	0.077
-626.463	54.321	-0.107	0.103
-625.449	321.320	-0.127	-0.241
-624.434	434.286	-0.120	-0.259
-623.419	56.993	-0.034	-0.033
-622.405	-5.347	0.028	-0.019
-621.390	-200.000	0.003	-0.022
-620.376	55.828	0.131	0.126
-619.361	-91.140	0.269	0.077
-618.346	-200.000	-0.009	0.046
-617.332	800.000	-0.071	0.215
-616.317	-200.000	-0.001	-0.381
-615.303	-200.000	-0.037	0.295
-614.288	106.230	-0.034	-0.040
-613.273	129.600	-0.254	-0.323
-612.259	-200.000	-0.082	-0.432
-611.244	-200.000	0.021	-0.252
-610.230	216.368	0.134	0.212
-609.215	470.237	-0.089	-0.198
-608.201	-200.000	-0.038	0.303
-607.186	-70.226	-0.074	0.028
-606.171	-5.876	-0.140	-0.095
-605.157	-9.170	0.496	0.330
-604.142	486.003	0.111	0.251
-603.128	61.237	0.033	-0.033
-602.113	227.499	0.165	-0.267
-601.098	19.503	0.247	0.198
-600.084	50.407	-0.085	0.080
-599.069	-200.000	-0.059	-0.298
-598.055	305.552	-0.180	-0.332
-597.040	-67.621	-0.019	-0.007
-596.025	-111.328	-0.349	-0.071
-595.011	-200.000	-0.027	-0.124
-593.996	-200.000	0.029	-0.159
-592.982	276.389	0.117	-0.206
-591.967	-106.964	0.112	0.025
-590.952	-114.151	0.399	0.077
-589.938	58.922	-0.236	0.231
-588.923	232.041	-0.090	-0.147
-587.909	143.425	0.136	0.179
-586.894	-61.194	-0.091	0.038
-585.879	-67.892	0.261	-0.101
-584.865	100.614	-0.203	0.235
-583.850	480.455	0.134	0.301
-582.836	65.055	0.111	-0.111
-581.821	-2.221	0.096	-0.067
-580.806	546.174	0.195	0.462
-579.792	-83.692	-0.396	-0.126
-578.777	-19.928	0.146	0.089
-577.763	-200.000	0.018	0.090
-576.748	-200.000	-0.014	0.257
-575.733	-200.000	-0.001	-0.196
-574.719	248.955	-0.113	-0.190
-573.704	231.530	-0.181	0.295
-572.690	-200.000	-0.024	0.132
-571.675	-68.110	0.319	-0.123
-570.661	-179.165	-0.345	0.008
-569.646	383.555	0.040	0.083
-568.631	-89.453	-0.256	-0.075
-567.617	-200.000	-0.034	0.155
-566.602	25.423	-0.117	-0.096
-565.588	-200.000	0.012	-0.191
-564.573	37.909	0.061	0.054
-563.558	-20.895	-0.276	0.168
-562.544	89.153	0.181	-0.200
-561.529	312.679	-0.139	0.259
-560.515	-2.342	0.107	0.074
-559.500	-12.525	-0.198	-0.128
-558.485	92.197	0.329	-0.368
-557.471	-189.079	-0.393	-0.005
-556.456	800.000	-0.028	-0.098
-555.442	161.311	-0.201	-0.278
-554.427	-55.924	0.134	0.059
-553.412	-78.288	0.246	0.084
-552.398	800.000	0.119	0.389
-551.383	394.742	-0.039	-0.081
-550.369	-76.830	-0.410	0.142
-549.354	272.679	-0.252	0.441
-548.339	3.540	-0.202	0.146
-547.325	384.985	0.090	0.184
-546.310	800.000	0.108	0.329
-545.296	800.000	-0.058	-0.210
-544.281	261.656	-0.058	0.099
-543.266	153.692	0.057	0.078
-542.252	160.026	-0.248	-0.342
-541.237	701.927	-0.050	0.130
-540.223	-105.916	0.248	0.055
-539.208	-90.721	-0.183	-0.052
-538.193	-112.581	-0.193	-0.038
-537.179	44.204	0.204	-0.185
-536.164	-0.081	-0.114	0.081
-535.150	34.322	-0.037	-0.032
-534.135	-133.715	-0.160	-0.020
-533.121	800.000	0.167	-0.465
-532.106	-200.000	0.022	-0.466
-531.091	800.000	0.063	-0.203
-530.077	28.784	-0.233	0.196
-529.062	-85.017	0.152	-0.047
-528.048	-60.169	-0.310	-0.131
-527.033	800.000	-0.027	0.096
-526.018	800.000	-0.084	-0.268
-525.004	-128.419	0.294	-0.041
-523.989	-200.000	-0.007	-0.099
-522.975	800.000	-0.088	0.251
-521.960	-139.753	-0.339	0.036
-520.945	800.000	-0.016	0.052
-519.931	-200.000	-0.048	-0.232
-518.916	-76.846	0.243	-0.084
-517.902	-98.733	-0.053	-0.013
-516.887	180.908	0.123	-0.179
-515.872	-200.000	0.024	-0.225
-514.858	53.140	-0.100	-0.094
-513.843	-187.381	-0.127	-0.002
-512.829	124.246	0.279	-0.347
-511.814	-200.000	-0.054	0.356
-510.799	35.882	0.094	-0.082
-509.785	454.860	0.037	-0.080
-508.770	800.000	0.168	0.660
-507.756	-200.000	-0.039	0.201
-506.741	800.000	-0.064	0.233
-505.726	-48.286	-0.177	0.085
-504.712	-67.219	0.106	0.041
-503.697	792.086	0.027	0.073
-502.683	45.079	-0.250	0.228
-501.668	-68.622	0.258	0.099
-500.653	-121.346	-0.104	0.017
-499.639	-20.647	0.084	-0.051
-498.624	-54.653	0.191	-0.086
-497.610	-105.188	-0.413	0.093
-496.595	-131.362	-0.319	0.042
-495.581	158.790	0.127	0.174
-494.566	14.492	-0.204	0.158
-493.551	-200.000	-0.179	0.000
-492.537	-145.603	-0.215	0.019
-491.522	-47.914	0.075	-0.036
-490.508	794.646	0.057	0.156
-489.493	106.551	0.174	0.205
-488.478	-140.316	-0.193	0.020
-487.464	97.352	0.110	-0.125
-486.449	-155.623	-0.354	-0.022
-485.435	47.675	0.121	-0.111
-484.420	-141.953	0.598	0.059
-483.405	-200.000	-0.004	0.371
-482.391	-68.560	0.313	-0.120
-481.376	3.221	-0.169	0.121
-480.362	-34.705	-0.043	-0.023
-479.347	-43.742	0.084	0.042
-478.332	-141.664	0.081	-0.008
-477.318	-200.000	-0.025	-0.284
-476.303	391.604	0.062	-0.128
-475.289	489.015	-0.176	-0.397
-474.274	-79.191	0.094	-0.032
-473.259	-200.000	-0.041	0.254
-472.245	-200.000	-0.040	0.248
-471.230	-134.816	0.205	-0.025
-470.216	411.032	0.040	-0.085
-469.201	-200.000	0.008	-0.255
-468.186	-6.177	-0.065	0.044
-467.172	-155.684	0.406	-0.026
-466.157	154.210	-0.259	-0.351
-465.143	215.111	0.176	-0.276
-464.128	250.561	0.150	-0.252
-463.113	-11.769	0.121	-0.078
-462.099	135.533	0.023	0.030
-461.084	-200.000	-0.019	-0.356
-460.070	-62.157	-0.060	-0.025
-459.055	-200.000	-0.013	0.091
-458.040	-200.000	-0.012	0.074
-457.026	800.000	-0.062	-0.184
-456.011	119.507	0.220	0.269
-454.997	-173.674	-0.264	-0.008
-453.982	278.310	-0.097	0.171
-452.968	-119.411	-0.020	-0.003
-451.953	-160.193	0.051	0.003
-450.938	-1.251	0.038	-0.026
-449.924	115.670	-0.092	0.111
-448.909	-200.000	0.011	0.105
-447.895	-200.000	-0.008	-0.046
-446.880	40.590	0.161	0.143
-445.865	36.681	0.146	0.127
-444.851	-116.830	-0.236	0.043
-443.836	162.198	0.153	0.211
-442.822	-109.947	-0.284	0.059
-441.807	-111.637	-0.555	-0.111
-440.792	393.324	0.166	-0.341
-439.778	114.864	-0.215	-0.259
-438.763	-54.907	0.107	0.048
-437.749	-48.190	-0.111	0.053
-436.734	83.527	0.098	0.106
-435.719	800.000	0.054	0.151
-434.705	-200.000	-0.016	0.143
-433.690	294.289	-0.079	0.142
-432.676	-200.000	-0.023	0.227
-431.661	750.446	0.023	0.062
-430.646	267.849	0.116	-0.201
-429.632	-70.982	-0.148	0.055
-428.617	250.759	-0.162	0.271
-427.603	29.860	-0.099	-0.083
-426.588	-200.000	-0.024	0.457
-425.573	439.110	0.085	0.184
-424.559	180.740	-0.171	-0.248
-423.544	7.266	0.143	-0.105
-422.530	-99.947	0.196	-0.048
-421.515	109.208	-0.178	-0.210
-420.500	-22.673	0.343	-0.204
-419.486	-131.357	-0.074	-0.010
-418.471	509.900	0.129	-0.296
-417.457	-30.391	-0.255	-0.142
-416.442	-200.000	0.084	0.416
-415.428	46.649	0.162	-0.148
-414.413	-58.901	0.112	0.048
-413.398	62.652	-0.082	0.081
-412.384	-49.437	-0.061	0.029
-411.369	202.926	0.052	0.079
-410.355	-90.004	0.193	0.056
-409.340	-105.776	-0.038	-0.008
-408.325	-200.000	0.006	-0.033
-407.311	405.671	-0.039	0.080
-406.296	17.995	0.095	-0.075
-405.282	-150.370	0.513	-0.039
-404.267	-18.439	-0.135	0.083
-403.252	139.721	0.069	-0.090
-402.238	-55.414	-0.205	0.090
-401.223	-200.000	-0.066	0.364
-400.209	23.561	-0.200	-0.162
-399.194	98.569	-0.168	-0.190
-398.179	-124.601	0.481	-0.074
-397.165	-200.000	-0.037	0.212
-396.150	-200.000	0.001	0.102
-395.136	308.233	0.068	0.125
-394.121	-156.392	0.215	-0.013
-393.106	451.150	-0.030	-0.065
-392.092	-155.613	-0.193	-0.012
-391.077	-119.995	-0.060	0.010
-390.063	-200.000	-0.022	0.124
-389.048	-139.384	0.057	0.006
-388.033	119.647	0.059	0.072
-387.019	-51.268	-0.230	0.106
-386.004	-68.951	0.217	-0.082
-384.990	-200.000	-0.003	-0.177
-383.975	769.146	0.018	-0.049
-382.960	-178.270	-0.318	0.007
-381.946	-200.000	0.034	-0.162
-380.931	-143.919	0.113	-0.010
-379.917	254.766	0.081	0.136
-378.902	-69.446	-0.089	-0.034
-377.888	800.000	0.046	-0.168
-376.873	-200.000	-0.002	-0.329
-375.858	0.723	0.088	0.062
-374.844	-77.540	-0.198	-0.068
-373.829	-17.428	0.125	0.078
-372.815	410.566	0.113	0.235
-371.800	188.538	-0.029	0.043
-370.785	-67.484	-0.306	0.118
-369.771	81.995	-0.098	0.105
-368.756	-132.630	0.421	0.053
-367.742	-109.496	-0.523	-0.109
-366.727	-78.452	0.245	0.083
-365.712	-56.909	0.231	-0.100
-364.698	242.693	-0.076	-0.125
-363.683	800.000	0.056	0.176
-362.669	46.857	-0.078	0.071
-361.654	251.247	-0.060	0.101
-360.639	22.131	0.123	-0.099
-359.625	367.562	-0.126	-0.250
-358.610	-29.515	0.048	0.027
-357.596	800.000	0.022	0.077
-356.581	-200.000	0.006	-0.192
-355.566	410.362	0.107	0.223
-354.552	14.403	-0.231	0.177
-353.537	-182.081	0.172	-0.003
-352.523	-51.539	0.067	-0.031
-351.508	189.460	-0.153	0.225
-350.493	64.239	-0.165	-0.164
-349.479	-88.915	0.161	0.047
-348.464	-56.967	0.268	-0.117
-347.450	800.000	-0.057	0.209
-346.435	-98.124	0.106	0.027
-345.420	800.000	-0.055	-0.171
-344.406	800.000	-0.047	-0.180
-343.391	143.965	-0.093	0.122
-342.377	7.389	-0.263	-0.194
-341.362	-138.903	0.393	0.042
-340.348	800.000	-0.074	0.268
-339.333	-123.514	0.108	0.017
-338.318	-141.673	0.388	0.038
-337.304	800.000	-0.034	0.121
-336.289	2.117	0.089	-0.063
-335.275	-28.144	0.400	0.228
-334.260	-200.000	0.005	-0.036
-333.245	-200.000	-0.361	-0.002
-332.231	472.775	0.146	-0.322
-331.216	800.000	0.053	0.203
-330.202	8.581	0.150	-0.111
-329.187	-200.000	-0.002	-0.205
-328.172	-200.000	-0.036	-0.162
-327.158	-200.000	-0.011	-0.274
-326.143	58.211	-0.385	0.371
-325.129	-176.545	0.401	-0.010
-324.114	-93.732	-0.107	-0.029
-323.099	175.999	-0.267	-0.381
-322.085	-103.940	-0.171	0.039
-321.070	-65.348	0.356	0.141
-320.056	-119.349	0.524	0.090
-319.041	-119.123	-0.103	-0.018
-318.026	-200.000	-0.043	0.331
-317.012	-63.889	-0.155	0.062
-315.997	231.540	-0.080	0.129
-314.983	-200.000	-0.035	0.297
-313.968	253.886	-0.219	0.367
-312.953	149.984	0.068	0.091
-311.939	214.079	0.198	0.307
-310.924	221.141	0.156	-0.246
-309.910	800.000	0.016	0.056
-308.895	263.539	0.084	-0.144
-307.880	-200.000	-0.031	0.220
-306.866	800.000	-0.098	0.290
-305.851	29.112	-0.110	0.092
-304.837	-12.682	-0.108	-0.069
-303.822	-14.258	0.183	-0.116
-302.807	-103.465	0.077	-0.018
-301.793	-31.178	-0.486	-0.269
-300.778	-67.754	-0.311	-0.119
-299.764	780.476	0.057	-0.152
-298.749	-200.000	-0.033	0.186
-297.735	37.274	-0.149	-0.130
-296.720	726.777	-0.098	-0.256
-295.705	141.560	-0.061	-0.079
-294.691	-95.722	0.181	-0.048
-293.676	-200.000	0.022	0.100
-292.662	-200.000	0.031	-0.152
-291.647	-200.000	0.035	0.241
-290.632	-36.206	-0.237	-0.125
-289.618	-19.175	-0.204	0.124
-288.603	173.420	0.095	-0.134
-287.589	-100.442	0.141	-0.034
-286.574	-140.866	-0.211	0.021
-285.559	-26.290	-0.133	0.076
-284.545	-106.022	-0.135	0.030
-283.530	-200.000	-0.025	-0.132
-282.516	12.301	-0.219	0.165
-281.501	192.467	0.171	0.253
-280.486	55.133	-0.157	-0.149
-279.472	800.000	0.024	-0.100
-278.457	-200.000	-0.038	-0.168
-277.443	-200.000	0.043	0.202
-276.428	-200.000	-0.178	0.000
-275.413	-200.000	0.004	-0.029
-274.399	174.348	0.095	-0.134
-273.384	-97.733	0.329	-0.083
-272.370	253.670	-0.130	-0.217
-271.355	411.003	0.075	0.155
-270.340	-89.185	0.023	0.007
-269.326	-137.095	0.235	0.026
-268.311	314.396	-0.081	-0.149
-267.297	-113.885	0.085	-0.016
-266.282	656.857	-0.171	-0.432
-265.267	100.168	0.164	0.186
-264.253	582.477	-0.180	0.434
-263.238	158.888	0.123	-0.167
-262.224	-200.000	-0.026	0.199
-261.209	800.000	-0.031	0.108
-260.195	-68.918	-0.387	0.146
-259.180	203.203	-0.208	0.315
-258.165	-61.309	-0.021	-0.009
-257.151	800.000	0.009	-0.035
-256.136	-32.828	-0.313	-0.170
-255.122	184.302	0.077	-0.112
-254.107	-117.291	-0.346	0.062
-253.092	-200.000	-0.001	-0.295
-252.078	-1.100	-0.180	-0.125
-251.063	-183.569	0.505	-0.009
-250.049	-106.684	-0.299	-0.065
-249.034	-112.215	0.351	0.069
-248.019	259.513	-0.074	-0.125
-247.005	232.675	0.239	0.385
-245.990	-152.656	0.379	0.026
-244.976	756.868	0.009	0.025
-243.961	75.729	-0.267	0.276
-242.946	208.232	-0.040	-0.061
-241.932	-200.000	-0.028	-0.233
-240.917	-52.279	-0.373	0.169
-239.903	286.604	-0.129	0.228
-238.888	-6.072	-0.102	-0.068
-237.873	158.460	0.129	-0.175
-236.859	258.716	-0.106	-0.178
-235.844	-198.419	0.041	0.000
-234.830	-155.054	0.463	-0.030
-233.815	-152.434	-0.298	-0.021
-232.800	64.547	0.068	0.068
-231.786	800.000	-0.038	0.112
-230.771	-48.207	0.300	0.142
-229.757	1.232	-0.171	-0.121
-228.742	53.795	-0.280	0.263
-227.727	-200.000	-0.006	-0.134
-226.713	3.096	0.256	-0.182
-225.698	-78.531	0.250	0.084
-224.684	-91.997	0.261	-0.072
-223.669	326.762	-0.016	-0.031
-222.655	-164.288	0.193	0.009
-221.640	367.086	-0.107	0.211
-220.625	23.339	-0.112	0.090
-219.611	328.117	0.089	0.168
-218.596	-183.039	-0.098	-0.002
-217.582	501.655	0.049	0.111
-216.567	110.209	0.223	-0.262
-215.552	-81.715	0.291	-0.094
-214.538	-200.000	-0.053	-0.242
-213.523	89.240	0.053	0.058
-212.509	-200.000	0.009	0.045
-211.494	-20.860	-0.136	-0.082
-210.479	-69.250	-0.065	-0.024
-209.465	-74.080	0.205	0.073
-208.450	-200.000	0.012	0.165
-207.436	178.446	-0.157	0.224
-206.421	-155.954	0.188	0.012
-205.406	-65.972	-0.143	-0.056
-204.392	800.000	-0.108	-0.446
-203.377	-101.282	0.261	-0.062
-202.363	28.047	0.250	0.206
-201.348	-106.773	0.063	0.014
-200.333	-200.000	0.024	-0.120
-199.319	-136.253	0.398	-0.045
-198.304	-21.697	-0.140	0.083
-197.290	-11.036	0.017	-0.011
-196.275	126.338	-0.194	0.240
-195.260	800.000	-0.048	0.177
-194.246	-200.000	0.016	-0.267
-193.231	-200.000	0.023	-0.176
-192.217	-115.805	0.193	-0.035
-191.202	-200.000	-0.003	0.046
-190.187	-111.504	-0.148	0.029
-189.173	-200.000	-0.008	-0.042
-188.158	26.643	0.108	-0.088
-187.144	800.000	0.068	-0.237
-186.129	610.729	-0.036	-0.089
-185.114	62.098	0.186	-0.182
-184.100	-85.292	-0.029	0.009
-183.085	-42.543	0.189	-0.094
-182.071	-20.910	0.231	0.138
-181.056	432.267	0.115	0.243
-180.042	-47.020	-0.063	-0.030
-179.027	-115.300	0.323	-0.060
-178.012	800.000	-0.058	-0.232
-176.998	-200.000	0.067	-0.316
-175.983	-1.659	-0.187	-0.129
-174.969	-200.000	0.010	0.220
-173.954	-166.462	-0.372	0.015
-172.939	-200.000	-0.045	-0.213
-171.925	-200.000	0.046	-0.207
-170.910	618.484	0.180	-0.442
-169.896	-109.514	0.428	0.088
-168.881	-66.907	0.473	0.182
-167.866	159.036	-0.191	0.259
-166.852	0.302	0.095	-0.067
-165.837	-200.000	0.005	-0.208
-164.823	-69.134	0.280	0.105
-163.808	85.881	-0.116	-0.125
-162.793	-200.000	-0.010	0.097
-161.779	800.000	0.086	-0.346
-160.764	119.807	0.052	0.063
-159.750	-200.000	0.030	0.238
-158.735	-129.925	0.179	-0.024
-157.720	112.853	-0.192	-0.228
-156.706	-127.657	-0.295	-0.042
-155.691	-20.389	-0.170	-0.102
-154.677	184.645	-0.199	0.287
-153.662	-40.312	-0.249	0.127
-152.647	800.000	0.100	0.317
-151.633	229.466	-0.267	-0.425
-150.618	62.435	0.069	0.068
-149.604	478.654	0.120	0.266
-148.589	800.000	-0.065	0.203
-147.574	262.123	-0.280	0.475
-146.560	-25.019	-0.391	-0.226
-145.545	110.134	-0.085	0.099
-144.531	800.000	0.112	0.381
-143.516	800.000	-0.082	0.293
-142.502	55.414	-0.056	0.053
-141.487	159.282	0.131	0.178
-140.472	523.337	0.137	-0.315
-139.458	46.577	-0.267	-0.241
-138.443	-149.405	-0.210	0.016
-137.429	-29.057	0.144	0.080
-136.414	-200.000	-0.009	0.205
-135.399	-89.626	-0.236	-0.067
-134.385	-117.016	0.135	-0.024
-133.370	247.566	0.158	-0.261
-132.356	27.136	-0.232	-0.190
-131.341	800.000	0.072	0.245
-130.326	-179.530	-0.199	0.004
-129.312	800.000	0.106	0.317
-128.297	6.174	0.095	0.068
-127.283	-76.857	-0.252	0.086
-126.268	-176.276	-0.212	-0.005
-125.253	557.455	-0.025	0.058
-124.239	800.000	0.090	0.320
-123.224	22.164	0.151	-0.120
-122.210	269.563	-0.092	-0.158
-121.195	-53.419	-0.257	-0.115
-120.180	128.622	0.144	0.178
-119.166	-200.000	0.001	-0.172
-118.151	-200.000	0.023	-0.133
-117.137	-67.105	-0.286	0.110
-116.122	-53.814	0.221	0.098
-115.107	-76.375	0.144	0.049
-114.093	338.580	0.110	-0.209
-113.078	-200.000	-0.007	-0.104
-112.064	-131.358	-0.102	0.013
-111.049	55.808	-0.193	0.182
-110.034	-118.719	-0.317	-0.054
-109.020	64.801	0.152	-0.149
-108.005	-27.493	0.106	-0.060
-106.991	-89.045	-0.159	0.046
-105.976	-200.000	0.009	-0.051
-104.962	471.768	0.254	0.556
-103.947	243.901	-0.105	-0.172
-102.932	-118.732	0.204	-0.035
-101.918	-150.286	0.269	-0.020
-100.903	-200.000	-0.079	0.424
-99.889	-200.000	-0.006	0.110
-98.874	88.866	-0.124	0.135
-97.859	800.000	-0.094	-0.295
-96.845	-200.000	-0.053	0.319
-95.830	-200.000	-0.049	0.275
-94.816	216.134	-0.126	-0.195
-93.801	-100.530	0.430	-0.103
-92.786	-200.000	-0.013	0.102
-91.772	-95.973	-0.143	0.037
-90.757	-77.533	0.196	-0.066
-89.743	-121.743	0.362	-0.058
-88.728	-62.696	-0.349	0.141
-87.713	232.723	0.125	0.200
-86.699	-122.497	0.394	0.062
-85.684	800.000	0.084	-0.253
-84.670	-10.936	0.347	0.223
-83.655	-69.717	0.297	0.110
-82.640	-141.534	0.088	0.009
-81.626	386.959	-0.099	0.199
-80.611	-0.880	0.100	0.069
-79.597	800.000	-0.019	0.069
-78.582	502.839	0.032	-0.071
-77.567	800.000	0.096	0.274
-76.553	800.000	-0.049	-0.174
-75.538	99.319	-0.181	-0.204
-74.524	593.745	0.059	-0.141
-73.509	96.396	-0.101	0.112
-72.494	292.662	0.126	0.224
-71.480	-46.819	0.213	0.102
-70.465	800.000	0.091	0.355
-69.451	42.258	0.126	-0.112
-68.436	800.000	0.020	0.064
-67.422	-200.000	0.008	0.178
-66.407	800.000	0.055	0.192
-65.392	15.580	-0.150	0.114
-64.378	-200.000	-0.003	-0.067
-63.363	518.092	-0.058	0.131
-62.349	-200.000	-0.079	0.353
-61.334	125.852	-1.108	-1.362
-60.319	140.813	0.896	1.152
-59.305	717.882	-0.455	-1.174
-58.290	248.804	0.823	1.355
-57.276	800.000	0.474	1.478
-56.261	-200.000	136.480	625.133
-55.246	342.265	1640.196	3119.947
-54.232	138.245	2771.791	3534.545
-53.217	81.095	2176.318	2284.372
-52.203	28.965	1697.266	1398.966
-51.188	22.172	1522.955	1208.698
-50.173	20.673	1502.718	1182.412
-49.159	43.993	1579.327	1406.947
-48.144	39.776	1589.164	1386.117
-47.130	22.155	1538.374	1220.627
-46.115	19.563	1523.240	1190.717
-45.100	19.357	1519.939	1186.676
-44.086	19.321	1518.059	1184.913
-43.071	19.290	1515.905	1182.973
-42.057	19.287	1514.258	1181.616
-41.042	19.305	1513.212	1180.876
-40.027	19.343	1511.169	1179.494
-39.013	19.198	1510.286	1177.770
-37.998	19.195	1509.027	1176.718
-36.984	19.191	1507.985	1175.833
-35.969	19.327	1506.209	1175.332
-34.954	19.220	1504.482	1173.207
-33.940	19.154	1503.628	1172.042
-32.925	19.291	1502.077	1171.723
-31.911	19.329	1500.297	1170.542
-30.896	19.361	1499.747	1170.286
-29.881	19.368	1498.160	1169.046
-28.867	19.472	1496.779	1168.631
-27.852	19.278	1495.762	1166.474
-26.838	19.298	1494.214	1165.358
-25.823	19.404	1492.456	1164.656
-24.809	19.482	1490.868	1163.893
-23.794	19.380	1489.972	1162.460
-22.779	19.316	1489.033	1161.252
-21.765	19.348	1487.254	1160.033
-20.750	19.368	1486.478	1159.519
-19.736	19.379	1485.309	1158.635
-18.721	19.332	1484.175	1157.390
-17.706	19.324	1483.080	1156.432
-16.692	19.342	1482.369	1155.955
-15.677	19.273	1481.252	1154.576
-14.663	19.335	1479.717	1153.745
-13.648	19.306	1478.924	1152.887
-12.633	19.330	1477.502	1151.898
-11.619	19.322	1477.174	1151.539
-10.604	19.262	1476.504	1150.573
-9.590	19.240	1475.902	1149.914
-8.575	19.373	1474.615	1149.750
-7.560	19.425	1473.357	1149.071
-6.546	19.295	1472.836	1147.751
-5.531	19.322	1472.284	1147.453
-4.517	19.310	1471.200	1146.486
-3.502	19.327	1469.726	1145.403
-2.487	19.268	1468.951	1144.362
-1.473	19.257	1468.135	1143.607
-0.458	19.317	1466.750	1142.881
0.556	18.228	1456.790	1130.946
1.571	14.982	1432.775	1091.073
2.586	11.586	1371.207	1022.865
3.600	10.038	1287.060	950.909
4.615	9.163	1244.141	914.139
5.629	8.124	1188.114	867.245
6.644	4.287	1109.385	790.190
7.659	1.002	1076.430	750.396
8.673	0.674	1070.736	744.746
9.688	0.521	1067.502	741.679
10.702	0.552	1066.364	740.970
11.717	0.593	1063.341	739.005
12.731	1.831	1063.377	745.022
13.746	6.807	1069.600	773.742
14.761	13.100	1078.641	811.215
15.775	16.733	1082.607	832.005
16.790	16.825	1082.257	832.111
17.804	15.857	1079.746	825.362
18.819	15.107	1077.804	820.136
19.834	14.518	1076.812	816.428
20.848	14.400	1075.509	814.789
21.863	14.143	1074.883	812.984
22.877	13.858	1074.274	811.061
23.892	13.689	1073.021	809.217
24.907	13.696	1072.296	808.633
25.921	13.681	1071.625	807.981
26.936	13.638	1070.870	807.132
27.950	13.753	1070.325	807.212
28.965	13.585	1069.941	806.032
29.980	13.789	1068.539	805.897
30.994	13.859	1067.767	805.583
32.009	13.984	1066.945	805.496
33.023	13.964	1066.010	804.624
34.038	13.814	1065.538	803.468
35.053	13.849	1064.550	802.824
36.067	13.894	1063.346	802.063
37.082	13.860	1062.749	801.375
38.096	13.709	1062.391	800.305
39.111	13.839	1061.292	800.032
40.126	13.790	1060.428	799.077
41.140	13.741	1059.166	797.820
42.155	13.654	1057.962	796.422
43.169	13.827	1056.939	796.411
44.184	13.700	1055.638	794.753
45.199	13.663	1054.677	793.780
46.213	13.687	1054.166	793.445
47.228	13.640	1053.109	792.352
48.242	13.681	1051.793	791.489
49.257	13.651	1051.335	790.928
50.271	13.730	1050.146	790.342
51.286	13.723	1049.088	789.443
52.301	13.748	1048.729	789.221
53.315	13.759	1047.610	788.362
54.330	13.814	1046.503	787.719
55.344	13.642	1046.132	786.553
56.359	13.693	1045.057	785.919
57.374	13.727	1044.065	785.262
58.388	13.821	1043.321	785.078
59.403	13.538	1042.851	783.320
60.417	13.673	1041.102	782.574
61.432	13.570	1040.941	781.896
62.447	13.711	1039.786	781.624
63.461	13.611	1039.097	780.568
64.476	13.523	1038.520	779.647
65.490	13.624	1037.275	779.122
66.505	13.590	1036.729	778.484
67.520	13.619	1035.890	777.918
68.534	13.644	1034.818	777.162
69.549	13.676	1034.239	776.810
70.563	13.743	1033.013	776.134
71.578	13.675	1032.603	775.437
72.593	13.663	1031.743	774.667
73.607	13.534	1030.614	773.149
74.622	13.633	1029.692	772.850
75.636	13.593	1029.010	772.086
76.651	13.620	1028.173	771.512
77.666	13.518	1027.607	770.544
78.680	13.490	1026.917	769.832
79.695	13.489	1026.437	769.397
80.709	13.590	1025.444	769.054
81.724	13.583	1024.519	768.258
82.739	13.599	1023.801	767.728
83.753	13.792	1022.678	767.712
84.768	13.789	1022.284	767.333
85.782	13.873	1020.731	766.485
86.797	13.876	1019.874	765.790
87.812	13.762	1019.560	764.960
88.826	13.732	1018.278	763.793
89.841	13.660	1017.849	763.073
90.855	13.687	1016.794	762.337
91.870	13.838	1015.847	762.253
92.884	13.757	1015.682	761.691
93.899	13.754	1015.108	761.179
94.914	13.630	1014.145	759.822
95.928	13.980	1013.191	760.641
96.943	13.915	1012.351	759.645
97.957	13.883	1011.756	758.985
98.972	13.878	1010.764	758.152
99.987	13.744	1010.256	757.095
101.001	13.822	1009.560	756.859
102.016	13.786	1008.818	756.072
103.030	13.843	1007.520	755.292
104.045	13.812	1007.047	754.729
105.060	13.932	1005.800	754.273
106.074	13.974	1004.302	753.274
107.089	13.796	1003.725	751.968
108.103	13.724	1002.939	750.988
109.118	13.826	1001.728	750.475
110.133	13.675	1001.598	749.630
111.147	13.766	1000.376	749.058
112.162	13.648	999.396	747.724
113.176	13.680	998.956	747.476
114.191	13.725	998.132	746.997
115.206	13.825	996.888	746.448
116.220	13.802	995.994	745.608
117.235	13.848	995.128	745.100
118.249	13.899	994.151	744.531
119.264	13.703	993.818	743.337
120.279	13.748	992.819	742.726
121.293	13.760	991.993	742.097
122.308	13.750	990.939	741.200
123.322	13.718	990.556	740.704
124.337	13.781	989.305	739.985
125.352	13.692	987.926	738.488
126.366	13.728	986.913	737.828
127.381	13.723	985.888	736.973
128.395	13.688	984.863	735.986
129.410	13.713	983.884	735.303
130.424	13.752	982.942	734.705
131.439	13.677	982.004	733.607
132.454	13.767	981.602	733.639
133.468	13.808	980.514	732.941
134.483	13.728	979.810	731.998
135.497	13.707	978.889	731.152
136.512	13.722	978.410	730.797
137.527	13.707	977.785	730.198
138.541	13.904	976.501	730.041
139.556	13.879	975.670	729.246
140.570	13.834	975.498	728.854
141.585	13.865	974.561	728.227
142.600	13.978	974.318	728.475
143.614	13.888	973.223	727.201
144.629	13.865	972.649	726.607
145.643	13.879	972.048	726.152
146.658	14.004	970.623	725.572
147.673	14.030	969.611	724.861
148.687	13.898	969.217	723.928
149.702	13.958	968.406	723.518
150.716	13.881	967.556	722.485
151.731	13.986	966.560	722.136
152.746	13.945	965.710	721.258
153.760	13.950	965.021	720.703
154.775	13.953	964.241	720.070
155.789	13.966	963.739	719.687
156.804	13.977	963.126	719.212
157.819	13.998	962.047	718.435
158.833	13.977	961.733	718.046
159.848	14.122	960.598	717.759
160.862	14.241	960.031	717.785
161.877	14.103	959.314	716.591
162.892	14.103	958.149	715.658
163.906	14.106	957.610	715.206
164.921	14.028	956.842	714.231
165.935	13.977	955.846	713.206
166.950	14.065	954.577	712.575
167.964	14.240	953.510	712.464
168.979	14.092	952.700	711.162
169.994	14.086	951.466	710.153
171.008	14.086	951.044	709.778
172.023	14.100	950.445	709.325
173.037	14.010	949.543	708.206
174.052	14.246	948.246	708.180
175.067	14.240	947.525	707.554
176.081	14.079	947.316	706.652
177.096	13.989	946.611	705.682
178.110	14.124	945.425	705.308
179.125	14.073	944.629	704.436
180.140	14.209	943.738	704.282
181.154	14.281	942.986	703.964
182.169	14.263	943.020	703.851
183.183	14.367	941.824	703.336
184.198	14.389	941.246	702.933
185.213	14.404	940.123	702.094
186.227	14.361	939.944	701.719
187.242	14.409	939.207	701.307
188.256	14.388	938.760	700.822
189.271	14.348	937.737	699.829
190.286	14.449	936.982	699.628
191.300	14.399	936.120	698.714
192.315	14.247	935.545	697.588
193.329	14.252	935.058	697.182
194.344	14.416	934.135	697.118
195.359	14.286	933.851	696.302
196.373	14.320	933.002	695.747
197.388	14.444	932.648	695.941
198.402	14.410	932.080	695.315
199.417	14.339	931.852	694.785
200.432	14.449	930.753	694.362
201.446	14.630	930.571	694.921
202.461	14.642	930.358	694.750
203.475	14.461	930.096	693.739
204.490	14.674	928.835	693.624
205.504	14.697	927.516	692.671
206.519	14.580	927.286	691.954
207.534	14.568	926.672	691.384
208.548	14.672	925.495	690.873
209.563	14.597	925.245	690.316
210.577	14.662	924.565	690.016
211.592	14.644	923.548	689.120
212.607	14.673	923.541	689.175
213.621	14.762	922.442	688.660
214.636	14.766	921.953	688.253
215.650	14.836	921.125	687.862
216.665	14.685	920.727	686.882
217.680	14.739	920.451	686.839
218.694	14.826	919.690	686.567
219.709	14.822	919.190	686.117
220.723	14.879	918.765	685.971
221.738	14.792	917.687	684.749
222.753	14.879	917.254	684.724
223.767	14.939	916.269	684.170
224.782	14.841	915.658	683.256
225.796	14.926	914.974	683.030
226.811	14.992	914.003	682.515
227.826	14.850	913.769	681.702
228.840	14.985	912.761	681.439
229.855	14.994	912.290	681.064
230.869	15.052	911.364	680.546
231.884	15.003	910.590	679.709
232.899	14.984	910.019	679.146
233.913	14.913	909.505	678.413
234.928	15.011	908.769	678.205
235.942	14.933	908.169	677.380
236.957	14.960	907.244	676.738
237.972	15.033	906.462	676.389
238.986	14.998	906.119	675.935
240.001	15.030	905.292	675.386
241.015	14.868	904.744	674.263
242.030	14.937	904.043	673.958
243.045	15.183	902.829	673.985
244.059	15.056	902.681	673.304
245.074	15.103	901.931	672.874
246.088	15.154	901.488	672.688
247.103	15.007	901.250	671.860
248.117	15.196	900.238	671.805
249.132	15.209	899.475	671.228
250.147	15.176	899.309	670.913
251.161	15.336	897.938	670.472
252.176	15.301	897.610	670.025
253.190	15.380	896.942	669.782
254.205	15.302	896.360	668.978
255.220	15.466	895.161	668.678
256.234	15.209	895.246	667.660
257.249	15.526	894.103	668.009
258.263	15.469	893.635	667.374
259.278	15.457	892.739	666.598
260.293	15.484	892.395	666.390
261.307	15.547	892.010	666.294
262.322	15.491	891.594	665.699
263.336	15.479	891.401	665.452
264.351	15.667	890.057	665.133
265.366	15.717	888.958	664.448
266.380	15.511	889.110	663.688
267.395	15.659	888.240	663.566
268.409	15.666	887.504	662.985
269.424	15.665	886.769	662.374
270.439	15.690	886.278	662.049
271.453	15.799	885.048	661.496
272.468	15.629	884.516	660.374
273.482	15.601	884.162	659.939
274.497	15.683	883.294	659.556
275.512	15.650	882.447	658.736
276.526	15.715	881.778	658.435
277.541	15.622	881.474	657.784
278.555	15.765	880.956	657.897
279.570	15.641	880.197	656.790
280.585	15.847	879.675	657.144
281.599	15.801	879.118	656.493
282.614	15.708	878.568	655.662
283.628	15.900	877.711	655.711
284.643	15.804	877.491	655.114
285.657	15.769	877.127	654.650
286.672	15.933	876.277	654.593
287.687	15.826	875.610	653.623
288.701	15.907	875.138	653.526
289.716	16.013	874.467	653.379
290.730	16.020	873.794	652.846
291.745	16.017	873.344	652.437
292.760	15.950	872.890	651.784
293.774	16.036	872.086	651.459
294.789	15.958	871.475	650.644
295.803	16.122	870.659	650.607
296.818	16.102	869.961	649.952
297.833	16.163	869.209	649.567
298.847	16.074	868.780	648.846
299.862	16.187	867.845	648.527
300.876	16.089	867.243	647.642
301.891	15.975	866.625	646.686
302.906	16.160	865.919	646.809
303.920	16.153	865.339	646.292
304.935	16.265	864.950	646.373
305.949	16.344	863.669	645.663
306.964	16.253	863.945	645.463
307.979	16.108	863.051	644.185
308.993	16.242	862.347	644.113
310.008	16.239	861.984	643.774
311.022	16.265	861.454	643.421
312.037	16.325	861.108	643.335
313.052	16.418	860.136	642.904
314.066	16.392	859.513	642.284
315.081	16.338	859.099	641.711
316.095	16.339	858.434	641.162
317.110	16.354	857.847	640.723
318.125	16.352	857.565	640.448
319.139	16.453	856.748	640.165
320.154	16.281	856.613	639.356
321.168	16.465	855.796	639.385
322.183	16.475	855.124	638.866
323.197	16.406	855.137	638.556
324.212	16.587	853.973	638.315
325.227	16.409	853.668	637.360
326.241	16.525	853.354	637.504
327.256	16.451	852.524	636.549
328.270	16.442	851.910	636.000
329.285	16.392	851.663	635.574
330.300	16.496	850.758	635.230
331.314	16.444	850.436	634.739
332.329	16.479	849.752	634.306
333.343	16.672	848.644	634.143
334.358	16.514	848.378	633.296
335.373	16.608	847.877	633.218
336.387	16.574	847.585	632.818
337.402	16.629	846.843	632.414
338.416	16.598	846.132	631.713
339.431	16.642	845.957	631.688
340.446	16.751	844.821	631.189
341.460	16.616	844.536	630.420
342.475	16.741	844.019	630.441
343.489	16.687	843.793	630.016
344.504	16.939	842.933	630.255
345.519	16.963	841.969	629.568
346.533	16.956	841.687	629.276
347.548	16.928	841.173	628.734
348.562	16.754	840.679	627.661
349.577	17.049	839.895	628.112
350.592	16.809	839.932	627.196
351.606	16.874	839.178	626.819
352.621	16.782	838.843	626.174
353.635	16.858	838.692	626.285
354.650	16.949	837.698	625.825
355.665	16.838	837.522	625.227
356.679	16.992	837.300	625.576
357.694	17.097	836.489	625.301
358.708	17.065	835.835	624.639
359.723	16.981	835.102	623.725
360.738	17.066	834.915	623.844
361.752	17.086	834.101	623.255
362.767	17.023	834.126	622.987
363.781	16.924	833.715	622.259
364.796	16.967	833.385	622.117
365.810	17.174	832.412	622.092
366.825	17.136	831.908	621.525
367.840	16.967	832.391	621.212
368.854	17.136	831.630	621.207
369.869	17.175	830.954	620.789
370.883	17.301	830.231	620.654
371.898	17.188	829.830	619.887
372.913	17.315	828.719	619.465
373.927	17.280	828.307	618.974
374.942	17.352	827.169	618.330
375.956	17.406	826.825	618.216
376.971	17.490	826.477	618.206
377.986	17.450	826.198	617.797
379.000	17.515	825.482	617.442
380.015	17.414	825.281	616.870
381.029	17.477	824.491	616.452
382.044	17.506	823.961	616.106
383.059	17.348	823.437	615.091
384.073	17.581	822.818	615.414
385.088	17.464	822.363	614.597
386.102	17.489	821.614	614.076
387.117	17.455	821.271	613.641
388.132	17.474	820.795	613.300
389.146	17.406	820.974	613.135
390.161	17.517	820.272	612.956
391.175	17.469	819.827	612.395
392.190	17.558	819.483	612.404
393.205	17.477	818.927	611.645
394.219	17.489	818.218	611.104
395.234	17.580	818.104	611.289
396.248	17.613	817.178	610.662
397.263	17.651	816.657	610.354
398.278	17.409	816.462	609.288
399.292	17.400	815.976	608.841
400.307	17.574	815.520	609.067
401.321	17.605	815.348	608.997
402.336	17.691	814.691	608.759
403.350	17.564	814.553	608.151
404.365	17.674	814.013	608.085
405.380	17.652	813.609	607.649
406.394	17.923	812.281	607.569
407.409	17.766	812.331	606.994
408.423	17.835	811.714	606.725
409.438	17.778	811.622	606.399
410.453	17.876	811.144	606.335
411.467	17.913	810.548	605.968
412.482	17.997	809.839	605.682
413.496	17.873	809.629	605.035
414.511	18.126	809.179	605.541
415.526	17.889	809.241	604.694
416.540	17.992	808.764	604.646
417.555	18.010	808.509	604.468
418.569	18.085	807.322	603.791
419.584	18.078	807.024	603.489
420.599	17.993	806.888	603.036
421.613	115.859	1300.142	1491.763
422.628	100.166	1371.937	1491.822
