DTS Sentinel unit serial number:	SN413079Multiplexer serial number:	ORYXHardware model number:	OX4-SRSoftware version number:	ORYX F/W v4.00 Oryx Data Collector v3.7.2.0data status	okinstallation	princeton_trtdifferential loss correction	single-endedforward channel	channel 3reverse channel	N/Adate	2019/09/12time	21:48:35forward acquisition time	60.00reverse acquisition time	0.00gamma	496.2192k internal	0.2326k external	0.2326temperature offset calibration	1.0131default loss term (dB/km)	0.3790temperature slope calibration	1.0000multiplexer offset coefficient	1.0000multiplexer slope coefficient	1.0000fibre end	0.00T internal ref (°C)	30.20T ext. ref 1 (°C)	3.74T ext. ref 2 (°C)	24.82length (m)	temperature (°C)	Stokes	anti-Stokes-747.200	-49.064	-0.168	-0.081
-746.185	64.496	0.139	0.141
-745.171	187.965	-0.126	0.189
-744.156	-200.000	-0.020	0.213
-743.142	8.742	-0.168	0.127
-742.127	69.160	-0.169	-0.175
-741.112	-200.000	0.017	-0.280
-740.098	187.525	-0.119	0.179
-739.083	-38.190	-0.234	0.125
-738.069	-200.000	-0.009	0.141
-737.054	93.200	-0.100	0.115
-736.039	-125.429	-0.199	-0.031
-735.025	-142.910	0.430	0.042
-734.010	133.302	0.082	0.108
-732.996	-135.630	-0.454	0.054
-731.981	-68.005	0.381	0.150
-730.966	-200.000	-0.006	0.364
-729.952	-200.000	0.005	0.219
-728.937	77.118	0.167	0.179
-727.923	276.128	-0.074	0.132
-726.908	641.028	0.130	-0.333
-725.894	-200.000	0.029	-0.313
-724.879	-168.790	-0.321	-0.012
-723.864	-73.593	-0.217	0.080
-722.850	-155.134	-0.136	-0.009
-721.835	-7.336	-0.198	0.135
-720.821	193.097	-0.225	-0.343
-719.806	-200.000	-0.013	-0.340
-718.791	0.583	0.210	0.151
-717.777	9.767	-0.148	-0.113
-716.762	-200.000	-0.024	-0.229
-715.748	-97.517	-0.225	0.059
-714.733	-200.000	0.006	-0.145
-713.718	-0.037	-0.414	0.297
-712.704	800.000	0.042	0.131
-711.689	20.164	0.072	-0.059
-710.675	-200.000	0.001	-0.038
-709.660	-72.873	0.101	-0.038
-708.645	-114.752	-0.225	0.043
-707.631	-200.000	0.007	0.152
-706.616	167.329	-0.123	-0.176
-705.602	-42.277	-0.056	0.029
-704.587	-77.992	-0.321	-0.111
-703.572	-81.029	0.186	0.062
-702.558	114.202	-0.339	0.415
-701.543	-200.000	-0.018	-0.399
-700.529	-99.532	-0.106	0.027
-699.514	800.000	-0.048	-0.152
-698.499	-200.000	-0.094	-0.498
-697.485	-149.902	0.198	0.016
-696.470	800.000	-0.033	0.115
-695.456	-24.245	0.104	-0.063
-694.441	-73.089	0.045	-0.017
-693.426	-158.924	-0.225	0.013
-692.412	139.284	0.145	-0.192
-691.397	-200.000	0.019	0.268
-690.383	294.402	0.183	0.337
-689.368	800.000	-0.084	-0.280
-688.354	-200.000	-0.045	-0.220
-687.339	-200.000	-0.013	-0.065
-686.324	-29.811	-0.209	0.120
-685.310	800.000	-0.021	0.091
-684.295	800.000	0.039	-0.130
-683.281	-1.597	-0.212	-0.150
-682.266	-86.031	-0.282	0.088
-681.251	-29.142	0.465	0.268
-680.237	-97.767	-0.065	0.017
-679.222	-179.280	0.218	0.005
-678.208	-43.435	-0.108	-0.055
-677.193	-176.642	0.191	-0.005
-676.178	-74.774	-0.333	-0.120
-675.164	-96.013	0.315	-0.084
-674.149	-21.392	-0.139	-0.085
-673.135	-136.652	0.327	-0.038
-672.120	-148.838	0.318	0.026
-671.105	-83.302	-0.300	-0.097
-670.091	157.362	0.186	-0.259
-669.076	800.000	0.035	0.118
-668.062	800.000	-0.034	0.104
-667.047	68.139	-0.095	0.098
-666.032	-130.427	0.111	-0.015
-665.018	180.480	-0.286	-0.422
-664.003	60.967	-0.130	0.130
-662.989	800.000	0.033	0.118
-661.974	-200.000	0.029	0.232
-660.959	-2.641	-0.068	0.048
-659.945	316.394	-0.095	-0.180
-658.930	290.619	-0.154	-0.281
-657.916	-200.000	-0.005	-0.066
-656.901	-67.215	-0.187	0.074
-655.886	-93.368	0.215	-0.060
-654.872	479.396	-0.106	0.241
-653.857	105.178	-0.212	-0.252
-652.843	100.188	0.167	-0.195
-651.828	-98.691	-0.083	-0.021
-650.814	-27.387	0.204	-0.119
-649.799	-154.614	-0.404	-0.027
-648.784	-200.000	0.015	0.402
-647.770	-41.255	-0.040	0.021
-646.755	214.951	0.160	-0.255
-645.741	-200.000	0.017	0.195
-644.726	277.368	-0.049	0.087
-643.711	-28.681	0.456	0.264
-642.697	-200.000	0.025	-0.190
-641.682	-62.132	0.473	-0.198
-640.668	640.438	0.068	-0.173
-639.653	-116.107	-0.149	0.028
-638.638	-155.180	0.389	0.025
-637.624	198.152	-0.216	0.332
-636.609	-85.097	-0.156	-0.049
-635.595	-55.165	-0.310	0.140
-634.580	63.967	-0.104	0.105
-633.565	213.130	-0.048	-0.077
-632.551	-56.976	-0.131	0.058
-631.536	72.759	-0.043	0.045
-630.522	-200.000	0.019	-0.208
-629.507	267.668	-0.093	0.164
-628.492	-13.614	-0.375	0.244
-627.478	272.497	0.100	0.178
-626.463	779.875	-0.148	-0.407
-625.449	-200.000	0.023	0.248
-624.434	-38.166	-0.077	0.041
-623.419	-25.523	-0.404	0.239
-622.405	126.348	0.354	0.450
-621.390	39.994	0.250	-0.225
-620.376	84.698	0.261	-0.287
-619.361	-200.000	-0.023	-0.157
-618.346	59.633	-0.196	0.194
-617.332	-40.038	-0.216	-0.113
-616.317	-200.000	-0.003	-0.040
-615.303	177.520	0.079	0.116
-614.288	-0.693	0.176	-0.125
-613.273	-29.114	-0.559	-0.322
-612.259	96.698	-0.182	-0.209
-611.244	129.364	0.116	0.149
-610.230	178.972	-0.071	-0.104
-609.215	800.000	-0.127	0.455
-608.201	141.755	-0.026	-0.035
-607.186	-161.601	-0.122	-0.006
-606.171	-200.000	-0.012	-0.077
-605.157	43.958	0.090	-0.083
-604.142	-122.502	0.276	-0.045
-603.128	-181.856	0.312	-0.006
-602.113	137.451	0.070	-0.092
-601.098	-59.646	-0.039	-0.017
-600.084	-144.157	0.085	0.008
-599.069	-200.000	-0.007	0.199
-598.055	71.912	0.120	-0.125
-597.040	256.995	-0.178	0.307
-596.025	245.489	-0.077	0.130
-595.011	-200.000	-0.017	-0.103
-593.996	-115.667	0.374	0.070
-592.982	-112.587	-0.334	-0.067
-591.967	800.000	-0.065	-0.206
-590.952	-75.216	0.405	0.145
-589.938	122.137	-0.094	-0.118
-588.923	-200.000	0.067	-0.306
-587.909	289.890	0.253	-0.460
-586.894	22.616	-0.287	0.235
-585.879	-142.642	-0.073	-0.007
-584.865	-200.000	0.026	-0.122
-583.850	-154.906	0.193	0.013
-582.836	-112.688	0.274	-0.055
-581.821	208.128	0.007	0.011
-580.806	97.140	-0.205	-0.235
-579.792	-22.287	-0.330	-0.200
-578.777	179.544	0.178	-0.261
-577.763	52.834	-0.217	0.208
-576.748	-66.746	-0.125	0.050
-575.733	-137.964	0.304	0.034
-574.719	39.261	-0.168	0.151
-573.704	345.917	-0.058	0.114
-572.690	108.747	-0.330	-0.395
-571.675	-53.401	0.213	-0.098
-570.661	-3.280	-0.192	0.134
-569.646	280.951	0.145	-0.260
-568.631	-22.385	-0.107	0.065
-567.617	752.808	0.153	-0.415
-566.602	-125.512	-0.264	-0.040
-565.588	-144.619	0.227	-0.021
-564.573	237.382	0.095	0.157
-563.558	162.671	0.053	0.075
-562.544	-43.951	-0.119	0.060
-561.529	263.620	-0.238	0.415
-560.515	-45.349	0.247	0.123
-559.500	-69.920	-0.074	0.028
-558.485	58.535	-0.112	0.110
-557.471	800.000	-0.018	0.069
-556.456	249.549	-0.178	0.303
-555.442	-200.000	0.028	0.127
-554.427	-141.050	0.170	0.017
-553.412	43.753	-0.107	0.098
-552.398	-200.000	-0.297	0.001
-551.383	345.543	0.133	0.262
-550.369	-90.524	-0.044	-0.013
-549.354	658.228	0.025	-0.065
-548.339	-145.250	0.194	0.018
-547.325	-50.640	-0.180	0.085
-546.310	182.104	-0.149	-0.220
-545.296	-57.680	-0.211	-0.093
-544.281	108.767	0.094	-0.112
-543.266	24.692	0.138	-0.114
-542.252	-16.595	-0.062	0.039
-541.237	800.000	-0.073	-0.257
-540.223	171.102	-0.112	0.161
-539.208	42.717	-0.137	0.125
-538.193	256.447	0.209	-0.358
-537.179	244.487	-0.039	0.066
-536.164	-76.671	-0.361	-0.127
-535.150	74.580	0.087	0.092
-534.135	-90.591	0.220	0.064
-533.121	-173.262	-0.054	-0.002
-532.106	-200.000	-0.026	0.368
-531.091	-200.000	-0.048	-0.220
-530.077	800.000	0.030	-0.128
-529.062	-21.011	-0.240	0.147
-528.048	-119.396	0.091	0.016
-527.033	-200.000	-0.015	-0.114
-526.018	255.076	0.091	-0.156
-525.004	479.568	0.044	0.100
-523.989	800.000	-0.034	-0.119
-522.975	647.314	0.085	0.217
-521.960	-93.282	0.304	0.084
-520.945	-76.053	-0.354	-0.125
-519.931	800.000	-0.065	-0.207
-518.916	173.758	-0.168	0.242
-517.902	-139.143	-0.035	0.004
-516.887	572.281	-0.042	0.103
-515.872	-136.061	0.284	-0.033
-514.858	-70.248	-0.215	0.082
-513.843	-115.984	-0.193	-0.036
-512.829	-200.000	-0.024	0.419
-511.814	-82.344	-0.136	0.044
-510.799	-126.328	0.215	0.032
-509.785	-8.784	-0.095	-0.064
-508.770	-128.910	0.218	-0.031
-507.756	15.497	0.140	-0.110
-506.741	800.000	-0.085	-0.306
-505.726	800.000	-0.043	0.161
-504.712	-90.398	-0.202	-0.058
-503.697	97.424	0.267	0.307
-502.683	-200.000	0.005	-0.433
-501.668	-107.446	0.118	-0.026
-500.653	42.979	-0.065	-0.059
-499.639	-84.361	-0.067	0.021
-498.624	19.534	0.264	0.212
-497.610	800.000	-0.108	-0.314
-496.595	63.995	0.221	-0.222
-495.581	57.152	-0.144	0.141
-494.566	-134.963	-0.597	-0.072
-493.551	-124.789	0.287	-0.044
-492.537	800.000	-0.129	-0.458
-491.522	-140.008	-0.423	0.045
-490.508	-149.454	0.090	0.007
-489.493	-110.710	0.105	-0.022
-488.478	44.475	-0.345	-0.316
-487.464	800.000	-0.048	-0.145
-486.449	732.133	0.146	-0.391
-485.435	-124.743	-0.342	-0.053
-484.420	800.000	-0.059	-0.188
-483.405	141.728	-0.196	-0.260
-482.391	-0.729	-0.050	-0.035
-481.376	143.194	0.194	-0.258
-480.362	234.449	-0.092	-0.152
-479.347	-165.658	0.431	0.019
-478.332	800.000	-0.057	0.176
-477.318	-172.889	-0.185	0.006
-476.303	800.000	-0.105	0.368
-475.289	-200.000	-0.037	-0.298
-474.274	-76.049	0.296	0.105
-473.259	-65.192	-0.152	-0.061
-472.245	-105.943	0.271	-0.061
-471.230	-131.907	-0.203	-0.026
-470.216	-200.000	-0.014	0.121
-469.201	132.513	-0.076	0.097
-468.186	-66.139	-0.111	-0.044
-467.172	-200.000	0.018	-0.157
-466.157	-200.000	0.037	-0.403
-465.143	82.793	-0.058	-0.062
-464.128	-105.045	-0.188	-0.043
-463.113	-12.428	0.232	0.152
-462.099	16.365	0.146	0.115
-461.084	-22.605	-0.163	0.098
-460.070	31.506	-0.285	0.245
-459.055	-200.000	0.010	-0.163
-458.040	185.947	0.045	-0.066
-457.026	184.437	-0.077	0.114
-456.011	-48.060	0.256	-0.124
-454.997	-200.000	-0.057	-0.279
-453.982	453.633	-0.112	0.248
-452.968	-52.022	0.134	0.062
-451.953	39.854	0.204	0.183
-450.938	-90.575	0.482	0.139
-449.924	-4.122	-0.302	0.209
-448.909	-51.068	0.140	-0.065
-447.895	-99.008	-0.320	-0.081
-446.880	-136.909	0.180	0.021
-445.865	-16.802	0.092	-0.058
-444.851	-198.551	0.456	-0.003
-443.836	-200.000	-0.014	-0.380
-442.822	95.558	0.039	0.044
-441.807	-106.485	-0.010	0.002
-440.792	110.189	0.053	-0.063
-439.778	-200.000	-0.044	0.263
-438.763	-74.105	-0.110	-0.040
-437.749	190.146	0.228	0.341
-436.734	-119.855	-0.295	0.051
-435.719	-23.404	-0.131	0.079
-434.705	-38.315	-0.151	0.080
-433.690	-72.093	0.353	0.131
-432.676	-39.184	0.201	-0.105
-431.661	18.032	-0.062	-0.049
-430.646	-126.578	-0.191	0.028
-429.632	-96.180	0.101	0.027
-428.617	-154.590	-0.182	-0.012
-427.603	28.043	0.319	-0.268
-426.588	3.755	0.110	0.080
-425.573	715.334	-0.084	0.222
-424.559	217.458	-0.107	0.170
-423.544	138.774	0.083	-0.108
-422.530	-89.610	-0.246	-0.072
-421.515	-200.000	0.066	0.311
-420.500	-98.581	0.188	0.048
-419.486	14.268	-0.148	-0.115
-418.471	-126.071	0.099	-0.015
-417.457	-80.072	-0.192	-0.064
-416.442	-200.000	0.027	0.326
-415.428	1.923	0.179	0.128
-414.413	-133.608	-0.191	0.024
-413.398	-166.343	0.082	-0.003
-412.384	800.000	-0.104	-0.392
-411.369	-133.444	-0.427	0.053
-410.355	13.634	0.212	-0.164
-409.340	775.542	-0.188	0.510
-408.325	-80.921	0.282	-0.093
-407.311	-21.975	-0.238	0.144
-406.296	31.778	-0.052	0.044
-405.282	-200.000	-0.032	0.304
-404.267	-60.146	0.126	0.053
-403.252	392.430	0.081	-0.167
-402.238	-89.625	0.130	-0.038
-401.223	-200.000	0.015	-0.147
-400.209	506.101	0.072	0.167
-399.194	20.482	0.239	-0.192
-398.179	-139.399	0.062	-0.007
-397.165	-10.839	0.277	0.182
-396.150	-73.312	-0.075	0.027
-395.136	-200.000	-0.009	-0.248
-394.121	517.876	-0.106	0.246
-393.106	-79.423	0.157	-0.053
-392.092	-110.943	-0.228	-0.047
-391.077	-147.926	0.241	0.020
-390.063	90.920	-0.181	0.202
-389.048	-145.566	0.193	-0.017
-388.033	-95.961	0.219	0.058
-387.019	-191.981	-0.079	-0.001
-386.004	132.687	0.179	-0.230
-384.990	288.055	-0.090	0.163
-383.975	-111.831	-0.489	-0.098
-382.960	-200.000	0.010	0.068
-381.946	-99.808	-0.270	0.067
-380.931	62.512	0.194	0.193
-379.917	-176.044	0.335	-0.009
-378.902	20.070	-0.194	-0.156
-377.888	581.625	0.130	-0.316
-376.873	-200.000	-0.069	-0.336
-375.858	800.000	0.053	0.152
-374.844	-18.021	0.090	0.056
-373.829	-74.077	-0.148	-0.053
-372.815	-112.410	0.161	-0.032
-371.800	-153.346	-0.113	0.008
-370.785	196.173	-0.158	0.239
-369.771	109.798	0.120	0.143
-368.756	56.372	-0.187	-0.181
-367.742	-121.509	-0.222	0.037
-366.727	-97.649	-0.322	-0.083
-365.712	-116.889	0.390	-0.071
-364.698	-100.029	-0.246	0.061
-363.683	-92.548	-0.081	-0.023
-362.669	-62.934	0.284	0.117
-361.654	157.322	0.129	-0.178
-360.639	-200.000	-0.033	-0.227
-359.625	-38.465	0.133	0.070
-358.610	64.784	0.094	0.094
-357.596	-200.000	0.009	0.052
-356.581	-72.964	-0.213	-0.078
-355.566	178.184	0.073	0.106
-354.552	-128.256	-0.052	0.007
-353.537	66.944	-0.089	0.090
-352.523	-200.000	-0.012	-0.271
-351.508	-169.636	0.266	0.010
-350.493	-36.884	0.026	0.014
-349.479	-1.329	0.338	0.237
-348.464	444.611	-0.153	-0.333
-347.450	-71.357	-0.169	-0.063
-346.435	61.956	-0.073	0.072
-345.420	347.007	0.123	0.241
-344.406	800.000	0.119	-0.331
-343.391	28.932	0.130	-0.109
-342.377	79.163	0.046	0.049
-341.362	-27.811	-0.166	0.096
-340.348	800.000	-0.105	-0.364
-339.333	181.335	0.128	-0.187
-338.318	371.433	0.089	-0.179
-337.304	239.794	0.050	-0.083
-336.289	800.000	0.022	-0.069
-335.275	141.882	-0.051	-0.067
-334.260	184.833	-0.273	0.401
-333.245	-55.615	-0.088	0.039
-332.231	-118.561	-0.054	0.009
-331.216	-116.781	0.311	-0.057
-330.202	800.000	-0.113	0.406
-329.187	158.395	-0.138	0.191
-328.172	-42.954	0.122	-0.061
-327.158	-154.285	0.484	-0.032
-326.143	173.015	-0.072	0.103
-325.129	-200.000	-0.045	-0.367
-324.114	-54.700	0.285	-0.128
-323.099	-50.735	0.180	-0.084
-322.085	386.898	-0.089	0.183
-321.070	-141.691	-0.179	0.018
-320.056	124.154	-0.174	0.217
-319.041	797.437	-0.112	0.306
-318.026	120.041	-0.181	0.222
-317.012	-67.007	0.041	0.016
-315.997	-200.000	-0.032	0.244
-314.983	397.581	-0.067	-0.138
-313.968	800.000	0.065	0.210
-312.953	-200.000	0.197	0.001
-311.939	-171.752	0.092	-0.003
-310.924	-200.000	-0.024	-0.249
-309.910	197.246	0.052	0.078
-308.895	-200.000	-0.026	0.358
-307.880	-192.342	0.109	0.001
-306.866	-114.526	-0.180	-0.034
-305.851	-200.000	0.005	-0.138
-304.837	158.920	-0.057	0.078
-303.822	220.159	0.134	0.212
-302.807	-200.000	0.016	-0.173
-301.793	112.042	0.210	-0.251
-300.778	-200.000	0.001	0.063
-299.764	547.178	-0.205	-0.485
-298.749	186.518	-0.088	-0.131
-297.735	-125.286	-0.123	0.019
-296.720	-200.000	-0.214	-0.001
-295.705	598.078	-0.028	-0.068
-294.691	-56.458	-0.179	0.079
-293.676	-114.203	0.134	0.026
-292.662	800.000	-0.182	-0.519
-291.647	586.982	0.121	-0.295
-290.632	-86.719	0.247	0.075
-289.618	122.033	0.087	0.107
-288.603	800.000	-0.110	0.326
-287.589	-61.866	-0.141	0.058
-286.574	800.000	-0.083	-0.304
-285.559	-175.928	0.063	-0.002
-284.545	-47.440	0.280	-0.135
-283.530	288.578	0.127	0.227
-282.516	-200.000	0.298	0.001
-281.501	158.546	0.101	0.140
-280.486	3.828	0.100	-0.072
-279.472	267.105	0.054	0.094
-278.457	-138.911	0.431	0.046
-277.443	109.782	-0.071	-0.085
-276.428	10.245	0.203	-0.153
-275.413	171.068	-0.082	0.116
-274.399	-18.912	-0.103	0.064
-273.384	68.847	0.190	0.193
-272.370	-200.000	0.006	-0.278
-271.355	374.051	-0.023	-0.047
-270.340	-147.514	0.118	0.010
-269.326	-143.115	-0.242	0.023
-268.311	-132.210	-0.102	-0.013
-267.297	-10.234	-0.073	0.048
-266.282	-62.924	-0.198	0.081
-265.267	-200.000	-0.007	-0.049
-264.253	-34.646	0.308	-0.167
-263.238	23.332	-0.313	-0.255
-262.224	-46.979	-0.103	-0.050
-261.209	800.000	-0.090	0.368
-260.195	-18.941	-0.263	-0.162
-259.180	360.021	0.173	0.343
-258.165	438.100	0.129	0.278
-257.151	12.659	-0.287	0.219
-256.136	-73.769	0.203	-0.073
-255.122	-172.384	0.142	-0.004
-254.107	-58.006	0.175	-0.076
-253.092	-200.000	-0.055	-0.412
-252.078	89.841	-0.390	0.431
-251.063	-163.032	0.089	0.004
-250.049	143.965	-0.071	-0.094
-249.034	65.083	0.151	0.151
-248.019	-11.171	-0.048	0.031
-247.005	-77.466	-0.023	-0.008
-245.990	-104.035	0.289	-0.067
-244.976	426.420	0.106	-0.226
-243.961	-50.781	-0.197	0.092
-242.946	-62.419	-0.124	0.051
-241.932	-200.000	-0.025	0.158
-240.917	-126.296	0.139	0.021
-239.903	800.000	0.060	-0.248
-238.888	148.038	-0.064	-0.086
-237.873	158.429	0.238	-0.326
-236.859	800.000	0.062	0.189
-235.844	-52.243	-0.086	0.039
-234.830	92.463	0.090	0.100
-233.815	800.000	-0.031	0.086
-232.800	800.000	0.057	-0.221
-231.786	162.515	0.127	-0.176
-230.771	-5.844	0.142	0.096
-229.757	800.000	-0.041	-0.134
-228.742	-63.019	0.123	0.050
-227.727	-118.432	0.294	-0.052
-226.713	-163.085	0.080	0.004
-225.698	-191.444	-0.307	0.003
-224.684	-104.238	0.204	-0.047
-223.669	47.326	-0.164	0.151
-222.655	-131.737	0.144	-0.019
-221.640	-127.545	0.320	-0.046
-220.625	800.000	-0.125	-0.513
-219.611	-105.397	0.333	0.075
-218.596	-69.834	0.479	-0.181
-217.582	800.000	-0.064	0.265
-216.567	-200.000	0.023	0.155
-215.552	321.128	0.030	0.056
-214.538	100.282	-0.168	0.193
-213.523	-43.312	-0.277	-0.138
-212.509	-200.000	0.035	0.169
-211.494	-179.230	0.232	-0.005
-210.479	800.000	-0.077	-0.217
-209.465	-200.000	0.034	0.166
-208.450	39.153	0.209	0.185
-207.436	-140.409	-0.109	0.011
-206.421	-136.276	-0.076	-0.009
-205.406	-130.873	-0.167	0.022
-204.392	-78.301	0.184	-0.062
-203.377	-59.708	-0.262	0.111
-202.363	9.277	0.126	0.094
-201.348	326.570	0.043	-0.082
-200.333	-54.128	-0.121	0.054
-199.319	131.582	0.127	-0.162
-198.304	800.000	0.061	-0.169
-197.290	-200.000	-0.054	0.260
-196.275	-169.788	-0.317	-0.011
-195.260	569.357	0.084	-0.202
-194.246	-49.118	-0.162	-0.076
-193.231	-79.428	0.303	-0.101
-192.217	-200.000	0.013	0.070
-191.202	-143.703	0.164	0.015
-190.187	605.401	0.079	0.195
-189.173	261.107	0.028	0.047
-188.158	496.203	0.025	-0.057
-187.144	-64.804	-0.054	0.022
-186.129	8.367	-0.201	0.149
-185.114	-200.000	-0.001	-0.244
-184.100	160.696	0.028	0.038
-183.085	-24.491	-0.104	-0.061
-182.071	-99.765	0.112	-0.028
-181.056	-62.510	-0.096	0.039
-180.042	-200.000	0.011	-0.211
-179.027	755.947	-0.105	0.280
-178.012	193.075	-0.093	0.138
-176.998	-92.626	-0.326	-0.090
-175.983	-141.948	-0.149	-0.015
-174.969	-78.782	-0.100	0.034
-173.954	-200.000	0.019	-0.321
-172.939	-176.321	-0.117	-0.003
-171.925	-83.121	0.107	0.034
-170.910	392.500	0.118	-0.241
-169.896	70.392	-0.048	-0.049
-168.881	162.229	0.052	-0.072
-167.866	-200.000	0.011	0.153
-166.852	414.965	0.040	-0.084
-165.837	-200.000	-0.015	0.268
-164.823	19.569	0.143	0.113
-163.808	-158.855	-0.198	-0.011
-162.793	179.710	-0.198	0.285
-161.779	-143.259	-0.222	0.021
-160.764	138.825	0.098	0.127
-159.750	2.696	0.445	0.318
-158.735	476.203	0.069	0.153
-157.720	-83.318	-0.121	-0.038
-156.706	-30.865	-0.075	0.042
-155.691	337.781	-0.098	0.188
-154.677	800.000	-0.094	0.311
-153.662	-87.941	0.097	0.029
-152.647	0.574	0.083	-0.058
-151.633	439.113	0.044	-0.094
-150.618	-119.664	0.043	0.007
-149.604	255.631	0.170	0.287
-148.589	5.842	-0.122	-0.089
-147.574	800.000	-0.072	-0.202
-146.560	-105.461	0.506	0.113
-145.545	691.152	0.118	0.305
-144.531	-128.965	0.201	0.028
-143.516	-78.863	0.209	-0.070
-142.502	-200.000	0.013	-0.085
-141.487	-200.000	-0.047	-0.406
-140.472	187.597	0.102	-0.151
-139.458	-51.744	0.501	-0.230
-138.443	438.400	-0.024	0.051
-137.429	-40.939	0.162	0.083
-136.414	-124.896	-0.136	0.021
-135.399	236.174	-0.071	-0.116
-134.385	314.227	-0.097	0.180
-133.370	-200.000	0.008	-0.123
-132.356	-117.670	0.236	-0.042
-131.341	-200.000	0.042	0.232
-130.326	-200.000	0.011	0.369
-129.312	24.094	-0.163	-0.132
-128.297	-74.257	0.219	-0.078
-127.283	149.081	-0.127	-0.169
-126.268	-115.275	-0.291	-0.054
-125.253	800.000	-0.063	-0.175
-124.239	-200.000	0.012	0.170
-123.224	-200.000	-0.044	-0.191
-122.210	72.217	0.233	-0.239
-121.195	800.000	-0.075	0.309
-120.180	251.319	0.126	0.211
-119.166	-106.610	0.353	-0.077
-118.151	-200.000	-0.016	-0.079
-117.137	-200.000	-0.077	0.541
-116.122	53.987	-0.060	0.057
-115.107	-200.000	-0.005	-0.048
-114.093	-80.672	-0.121	-0.040
-113.078	-141.681	0.056	-0.006
-112.064	-149.167	-0.176	0.014
-111.049	-200.000	0.014	-0.115
-110.034	-200.000	0.031	-0.234
-109.020	-18.491	-0.162	-0.099
-108.005	171.782	-0.037	0.052
-106.991	197.176	0.121	-0.181
-105.976	-3.867	-0.022	-0.015
-104.962	-200.000	-0.037	0.206
-103.947	-25.436	-0.127	-0.074
-102.932	-124.654	0.057	-0.009
-101.918	-167.697	-0.344	-0.013
-100.903	-19.107	0.195	0.119
-99.889	210.572	-0.174	-0.269
-98.874	569.292	-0.149	0.355
-97.859	48.732	-0.190	-0.175
-96.845	110.867	-0.251	0.297
-95.830	800.000	-0.080	0.297
-94.816	378.144	0.020	0.040
-93.801	800.000	0.012	-0.032
-92.786	546.347	0.095	0.224
-91.772	177.037	0.116	0.167
-90.757	-129.982	0.152	-0.020
-89.743	198.398	0.216	-0.325
-88.728	-87.098	-0.347	-0.104
-87.713	6.108	0.403	0.294
-86.699	-200.000	-0.001	0.008
-85.684	-200.000	0.000	0.234
-84.670	-10.659	-0.257	-0.167
-83.655	178.551	-0.080	-0.114
-82.640	31.005	0.122	-0.103
-81.626	-102.833	0.270	0.063
-80.611	-200.000	-0.005	-0.303
-79.597	-8.941	0.030	-0.019
-78.582	-108.617	0.235	0.050
-77.567	141.970	-0.164	0.213
-76.553	-19.979	-0.168	-0.102
-75.538	-200.000	-0.015	-0.064
-74.524	45.288	0.208	0.188
-73.509	-64.147	0.231	0.093
-72.494	800.000	0.075	0.213
-71.480	800.000	0.137	0.376
-70.465	55.223	-0.088	-0.084
-69.451	15.264	-0.114	-0.088
-68.436	-200.000	0.035	-0.257
-67.422	-15.200	-0.203	-0.128
-66.407	-162.452	-0.156	-0.008
-65.392	-42.828	-0.105	0.053
-64.378	-11.400	-0.371	-0.240
-63.363	800.000	0.114	0.386
-62.349	-48.636	-0.219	-0.103
-61.334	15.454	-1.043	-0.804
-60.319	58.731	0.500	0.482
-59.305	-200.000	-0.163	-1.201
-58.290	282.493	0.704	1.240
-57.276	250.843	0.809	1.351
-56.261	-200.000	105.263	591.265
-55.246	547.287	1449.387	3406.009
-54.232	186.218	2631.792	3844.438
-53.217	114.231	2159.809	2581.071
-52.203	40.611	1693.945	1498.769
-51.188	33.405	1506.112	1283.896
-50.173	30.980	1479.437	1244.937
-49.159	51.771	1534.108	1432.952
-48.144	52.331	1551.346	1452.807
-47.130	33.535	1507.765	1285.985
-46.115	30.419	1493.161	1252.506
-45.100	30.267	1490.135	1248.893
-44.086	30.281	1487.638	1246.842
-43.071	30.226	1485.834	1244.916
-42.057	30.173	1484.296	1243.224
-41.042	30.159	1482.610	1241.662
-40.027	30.235	1481.044	1240.811
-39.013	30.162	1480.089	1239.475
-37.998	30.107	1478.561	1237.781
-36.984	30.040	1477.681	1236.548
-35.969	30.223	1475.949	1236.266
-34.954	30.054	1475.085	1234.367
-33.940	30.170	1473.631	1233.876
-32.925	30.249	1471.659	1232.700
-31.911	30.241	1470.520	1231.645
-30.896	30.307	1469.691	1231.336
-29.881	30.195	1468.644	1229.669
-28.867	30.279	1466.824	1228.655
-27.852	30.290	1465.416	1227.498
-26.838	30.377	1463.684	1226.570
-25.823	30.223	1462.483	1224.504
-24.809	30.333	1460.567	1223.571
-23.794	30.299	1459.520	1222.423
-22.779	30.192	1458.606	1220.908
-21.765	30.273	1457.472	1220.442
-20.750	30.287	1456.404	1219.591
-19.736	30.239	1455.360	1218.351
-18.721	30.252	1454.076	1217.313
-17.706	30.114	1453.417	1215.807
-16.692	30.223	1451.902	1215.207
-15.677	30.255	1450.680	1214.348
-14.663	30.299	1449.583	1213.670
-13.648	30.120	1448.929	1211.903
-12.633	30.163	1448.107	1211.449
-11.619	30.191	1447.218	1210.841
-10.604	30.126	1446.608	1209.858
-9.590	30.168	1445.785	1209.393
-8.575	30.302	1444.461	1209.112
-7.560	30.077	1443.923	1207.149
-6.546	30.158	1442.806	1206.689
-5.531	30.150	1442.292	1206.161
-4.517	30.175	1440.943	1205.151
-3.502	30.204	1439.999	1204.499
-2.487	30.257	1438.929	1203.900
-1.473	30.038	1438.326	1201.929
-0.458	30.080	1436.721	1200.814
0.556	31.781	1427.083	1189.931
1.571	28.557	1402.482	1149.160
2.586	24.953	1344.681	1080.008
3.600	23.154	1263.760	1004.723
4.615	21.703	1218.689	960.849
5.629	18.896	1162.373	901.664
6.644	11.043	1079.528	798.921
7.659	4.759	1040.593	740.228
8.673	3.952	1035.113	732.450
9.688	3.754	1031.798	729.101
10.702	3.661	1029.880	727.245
11.717	3.584	1028.489	725.837
12.731	6.530	1030.842	741.304
13.746	14.573	1042.471	787.714
14.761	21.770	1051.510	828.624
15.775	23.775	1053.102	839.288
16.790	23.637	1051.802	837.527
17.804	22.787	1050.679	832.550
18.819	22.205	1048.838	828.280
19.834	21.946	1047.724	826.106
20.848	21.939	1047.535	825.850
21.863	22.093	1047.110	826.166
22.877	22.064	1046.686	825.623
23.892	21.931	1045.533	824.016
24.907	21.709	1044.955	822.445
25.921	21.633	1043.801	821.109
26.936	21.661	1043.183	820.680
27.950	21.556	1042.160	819.312
28.965	21.529	1040.928	818.143
29.980	21.592	1040.053	817.678
30.994	21.666	1038.956	817.086
32.009	21.884	1038.099	817.357
33.023	21.852	1037.762	816.872
34.038	21.938	1036.516	816.220
35.053	21.662	1036.313	814.701
36.067	21.699	1035.096	813.845
37.082	21.515	1034.210	812.223
38.096	21.602	1033.450	811.959
39.111	21.669	1033.097	811.918
40.126	21.800	1031.982	811.579
41.140	21.596	1030.965	809.762
42.155	21.396	1029.374	807.518
43.169	21.098	1028.133	805.099
44.184	21.063	1027.198	804.131
45.199	20.912	1026.341	802.696
46.213	21.019	1025.309	802.311
47.228	21.175	1024.343	802.201
48.242	21.546	1023.645	803.287
49.257	21.760	1023.776	804.301
50.271	21.734	1022.487	803.095
51.286	21.724	1021.734	802.386
52.301	21.921	1021.226	802.818
53.315	21.804	1021.161	802.162
54.330	21.754	1019.856	800.838
55.344	21.581	1019.096	799.379
56.359	21.451	1017.725	797.642
57.374	21.356	1017.128	796.672
58.388	21.323	1016.368	795.852
59.403	21.170	1015.563	794.457
60.417	21.171	1014.118	793.262
61.432	21.085	1014.020	792.721
62.447	21.118	1013.116	792.096
63.461	20.993	1012.450	790.937
64.476	20.947	1011.861	790.202
65.490	20.912	1010.926	789.240
66.505	20.828	1009.975	788.051
67.520	20.781	1009.475	787.376
68.534	20.956	1008.466	787.308
69.549	20.758	1008.121	786.076
70.563	20.758	1006.664	784.871
71.578	20.633	1006.167	783.850
72.593	20.569	1004.838	782.456
73.607	20.270	1003.876	780.295
74.622	20.272	1002.628	779.263
75.636	20.382	1002.240	779.388
76.651	20.480	1001.624	779.280
77.666	20.505	1001.071	778.893
78.680	20.629	1000.310	778.786
79.695	20.581	1000.061	778.308
80.709	20.698	999.010	777.944
81.724	20.747	998.572	777.755
82.739	20.862	997.793	777.594
83.753	20.875	997.523	777.371
84.768	21.473	996.626	779.269
85.782	21.875	997.106	781.366
86.797	22.260	996.147	782.259
87.812	22.246	995.266	781.434
88.826	21.890	994.619	779.276
89.841	21.879	993.583	778.349
90.855	22.135	992.443	778.518
91.870	22.101	991.844	777.831
92.884	22.084	991.243	777.216
93.899	22.106	990.257	776.471
94.914	21.958	989.594	775.226
95.928	21.983	988.868	774.701
96.943	22.127	988.147	774.702
97.957	21.951	986.980	772.944
98.972	21.850	985.817	771.521
99.987	21.829	985.446	771.068
101.001	21.929	984.713	770.869
102.016	21.925	983.822	770.087
103.030	21.903	982.711	769.051
104.045	21.704	982.351	767.830
105.060	21.862	981.465	767.759
106.074	21.908	980.186	766.890
107.089	21.660	979.134	764.918
108.103	21.275	977.789	762.119
109.118	21.069	977.157	760.662
110.133	20.789	975.974	758.456
111.147	20.944	974.346	757.797
112.162	20.640	973.865	756.036
113.176	20.651	973.064	755.394
114.191	20.932	972.424	756.047
115.206	20.994	971.741	755.720
116.220	21.074	970.718	755.202
117.235	20.802	970.692	753.939
118.249	20.800	969.132	752.653
119.264	20.769	968.305	751.809
120.279	20.620	967.308	750.325
121.293	20.698	966.194	749.730
122.308	20.514	965.789	748.558
123.322	20.319	964.823	746.906
124.337	20.416	963.349	746.115
125.352	20.338	961.915	744.604
126.366	20.224	961.575	743.787
127.381	20.344	960.688	743.547
128.395	20.416	960.175	743.394
129.410	20.536	959.180	743.069
130.424	20.592	958.199	742.482
131.439	20.711	957.236	742.179
132.454	20.856	957.011	742.557
133.468	21.134	956.151	743.007
134.483	21.024	955.615	742.057
135.497	20.998	954.807	741.256
136.512	21.016	954.265	740.842
137.527	20.987	953.518	740.076
138.541	21.135	952.700	740.004
139.556	21.189	951.763	739.438
140.570	21.099	951.368	738.683
141.585	21.181	951.020	738.694
142.600	21.556	950.307	739.660
143.614	21.740	949.951	740.096
144.629	21.744	949.266	739.516
145.643	22.108	948.421	740.324
146.658	21.784	947.723	738.350
147.673	21.650	946.553	736.810
148.687	21.441	945.020	734.673
149.702	21.175	944.602	733.168
150.716	21.119	943.203	731.780
151.731	21.161	942.062	731.006
152.746	21.091	941.928	730.545
153.760	21.283	940.841	730.440
154.775	21.314	940.338	730.116
155.789	21.455	939.732	730.170
156.804	21.659	938.562	730.044
157.819	21.499	937.818	728.734
158.833	21.461	937.310	728.118
159.848	21.750	937.137	729.120
160.862	21.941	936.521	729.371
161.877	21.905	935.628	728.461
162.892	21.602	934.008	725.882
163.906	21.073	933.179	722.978
164.921	21.041	931.837	721.745
165.935	20.894	931.050	720.463
166.950	20.920	930.164	719.822
167.964	21.222	929.405	720.414
168.979	21.367	928.120	719.954
169.994	21.189	927.340	718.553
171.008	21.040	926.500	717.223
172.023	21.209	925.890	717.383
173.037	21.451	925.551	718.051
174.052	21.778	924.989	718.893
175.067	21.768	923.734	717.813
176.081	21.299	922.441	714.828
177.096	20.929	921.648	712.637
178.110	20.958	920.399	711.724
179.125	20.959	919.947	711.318
180.140	20.993	919.431	710.995
181.154	20.919	918.548	709.947
182.169	21.255	918.641	711.325
183.183	21.468	918.356	711.910
184.198	21.622	917.827	712.059
185.213	21.651	916.646	711.199
186.227	21.673	916.317	710.969
187.242	21.609	916.079	710.464
188.256	21.777	915.390	710.547
189.271	21.777	914.608	709.877
190.286	21.943	913.851	709.900
191.300	21.718	912.868	708.164
192.315	21.110	911.624	704.682
193.329	20.635	910.651	701.951
194.344	20.770	910.163	702.056
195.359	20.970	909.620	702.383
196.373	21.070	909.335	702.500
197.388	21.362	908.758	703.167
198.402	21.583	908.748	703.987
199.417	21.777	908.314	704.366
200.432	22.025	908.203	705.218
201.446	22.217	907.934	705.717
202.461	22.212	907.704	705.453
203.475	22.098	907.875	705.067
204.490	22.295	906.568	704.778
205.504	21.769	905.090	701.462
206.519	21.648	904.045	700.107
207.534	21.564	903.004	698.903
208.548	21.530	902.562	698.365
209.563	21.534	901.872	697.785
210.577	21.835	900.824	698.110
211.592	21.634	900.465	696.973
212.607	21.902	900.786	698.224
213.621	22.110	900.272	698.594
214.636	22.060	899.090	697.413
215.650	21.878	899.007	696.564
216.665	21.939	898.199	696.120
217.680	21.875	898.156	695.771
218.694	22.151	897.552	696.334
219.709	22.186	897.013	695.995
220.723	22.138	896.444	695.301
221.738	22.065	895.633	694.322
222.753	21.724	894.823	692.285
223.767	21.739	894.162	691.772
224.782	21.830	893.253	691.366
225.796	22.134	892.709	692.081
226.811	22.219	892.110	691.891
227.826	22.079	891.549	690.846
228.840	21.969	890.088	689.219
229.855	21.600	889.920	687.578
230.869	21.621	889.369	687.175
231.884	21.816	888.056	686.865
232.899	21.590	887.583	685.552
233.913	21.535	887.015	684.836
234.928	21.388	886.359	683.694
235.942	21.324	885.380	682.629
236.957	21.138	884.791	681.390
237.972	21.119	884.156	680.765
238.986	21.217	883.373	680.484
240.001	21.287	883.090	680.480
241.015	21.309	881.723	679.451
242.030	21.340	881.418	679.276
243.045	21.588	881.089	679.927
244.059	21.661	880.685	679.838
245.074	21.729	879.847	679.395
246.088	21.673	879.943	679.192
247.103	21.822	879.662	679.492
248.117	22.170	878.772	680.090
249.132	22.369	878.332	680.460
250.147	22.770	878.324	681.942
251.161	23.130	878.225	683.195
252.176	23.153	877.608	682.746
253.190	23.155	876.995	682.216
254.205	23.283	876.605	682.344
255.220	23.356	876.037	682.123
256.234	23.055	875.236	680.282
257.249	22.826	874.831	679.025
258.263	22.869	874.400	678.797
259.278	22.910	873.220	677.976
260.293	22.852	873.194	677.674
261.307	23.137	871.938	677.733
262.322	23.049	871.983	677.368
263.336	23.067	871.398	676.924
264.351	23.233	870.713	676.966
265.366	22.964	870.405	675.637
266.380	22.832	869.828	674.629
267.395	23.068	868.957	674.794
268.409	23.142	868.309	674.513
269.424	22.915	867.609	673.043
270.439	22.803	867.088	672.153
271.453	22.796	866.247	671.414
272.468	22.734	865.028	670.175
273.482	22.564	864.489	669.052
274.497	22.706	863.492	668.760
275.512	22.671	863.008	668.193
276.526	22.689	862.281	667.640
277.541	22.652	861.808	667.076
278.555	22.676	861.479	666.851
279.570	23.018	860.990	667.708
280.585	23.078	860.789	667.717
281.599	23.136	860.547	667.691
282.614	22.848	859.598	665.811
283.628	22.678	858.319	664.119
284.643	22.550	857.873	663.234
285.657	22.658	857.486	663.284
286.672	22.685	856.739	662.749
287.687	22.613	856.392	662.151
288.701	22.709	855.971	662.128
289.716	22.745	855.718	662.008
290.730	22.737	854.988	661.353
291.745	22.932	854.433	661.596
292.760	22.813	853.728	660.546
293.774	22.759	853.481	660.094
294.789	23.129	852.904	660.972
295.803	23.378	852.593	661.602
296.818	23.025	851.983	659.754
297.833	22.715	851.186	657.923
298.847	22.780	850.101	657.268
299.862	22.701	849.757	656.651
300.876	22.830	849.184	656.629
301.891	23.073	848.666	657.072
302.906	23.218	848.001	657.039
303.920	23.320	848.118	657.451
304.935	23.502	847.182	657.340
305.949	23.719	846.958	657.912
306.964	23.615	845.985	656.714
307.979	23.133	845.834	654.756
308.993	23.095	845.215	654.077
310.008	23.233	844.448	653.934
311.022	23.367	844.211	654.187
312.037	23.508	843.237	653.895
313.052	23.150	843.015	652.345
314.066	23.003	841.988	650.953
315.081	22.664	841.137	648.988
316.095	22.514	840.281	647.720
317.110	22.774	839.815	648.259
318.125	22.584	839.031	646.900
319.139	22.515	838.903	646.491
320.154	22.474	837.933	645.535
321.168	22.443	837.785	645.251
322.183	22.543	837.273	645.165
323.197	22.703	837.187	645.626
324.212	22.895	836.412	645.674
325.227	22.779	836.006	644.880
326.241	22.804	835.191	644.287
327.256	22.774	834.546	643.623
328.270	22.538	834.298	642.514
329.285	22.450	833.707	641.680
330.300	22.501	833.014	641.276
331.314	22.472	832.220	640.503
332.329	22.446	831.819	640.044
333.343	22.718	831.306	640.581
334.358	23.202	830.622	641.753
335.373	23.183	830.287	641.368
336.387	23.151	830.211	641.133
337.402	23.187	829.584	640.724
338.416	23.320	829.066	640.748
339.431	23.451	828.729	640.906
340.446	23.665	828.599	641.520
341.460	23.851	828.049	641.710
342.475	23.795	827.863	641.308
343.489	23.899	827.226	641.133
344.504	24.063	826.675	641.239
345.519	24.084	826.528	641.144
346.533	24.156	826.093	641.010
347.548	24.040	825.674	640.211
348.562	23.808	824.661	638.533
349.577	23.511	823.709	636.674
350.592	23.402	822.637	635.398
351.606	23.247	822.547	634.718
352.621	23.034	821.671	633.222
353.635	23.034	820.969	632.627
354.650	23.233	820.943	633.263
355.665	23.199	820.644	632.852
356.679	23.217	820.074	632.422
357.694	23.347	819.716	632.553
358.708	23.551	819.143	632.785
359.723	23.374	818.602	631.678
360.738	23.307	818.115	631.009
361.752	23.166	817.793	630.203
362.767	23.381	817.135	630.403
363.781	23.655	817.526	631.626
364.796	24.100	816.823	632.609
365.810	24.067	816.689	632.329
366.825	24.266	815.877	632.351
367.840	24.300	815.994	632.507
368.854	24.382	815.322	632.219
369.869	23.965	814.527	630.072
370.883	23.774	813.865	628.826
371.898	23.760	813.337	628.316
372.913	23.958	813.033	628.724
373.927	24.289	812.242	629.227
374.942	23.998	811.209	627.345
375.956	23.919	810.912	626.780
376.971	24.011	810.790	626.956
377.986	24.058	810.561	626.887
379.000	24.249	809.693	626.831
380.015	24.397	809.429	627.092
381.029	24.453	808.582	626.579
382.044	24.320	807.932	625.551
383.059	24.380	807.419	625.309
384.073	24.464	806.889	625.137
385.088	24.340	806.184	624.102
386.102	23.853	805.467	621.789
387.117	23.826	804.488	620.885
388.132	23.638	803.994	619.791
389.146	23.460	803.443	618.693
390.161	23.616	803.145	618.952
391.175	23.885	803.166	619.853
392.190	24.202	803.036	620.800
393.205	24.128	802.448	620.031
394.219	23.797	801.535	618.122
395.234	23.553	800.972	616.785
396.248	23.437	800.475	615.946
397.263	23.514	799.646	615.521
398.278	23.459	799.378	615.068
399.292	23.207	799.141	613.958
400.307	23.401	797.944	613.654
401.321	23.292	797.454	612.845
402.336	23.327	797.366	612.846
403.350	23.430	797.374	613.155
404.365	23.784	797.022	614.051
405.380	23.928	796.947	614.438
406.394	24.244	796.789	615.352
407.409	24.644	796.124	616.164
408.423	24.616	795.762	615.732
409.438	24.752	795.378	615.849
410.453	24.618	795.335	615.302
411.467	24.659	794.853	615.015
412.482	24.624	794.004	614.184
413.496	24.756	793.744	614.382
414.511	24.825	793.516	614.385
415.526	24.879	793.043	614.152
416.540	24.713	792.428	613.053
417.555	24.641	792.091	612.488
418.569	24.595	791.737	612.006
419.584	24.717	790.796	611.639
420.599	24.632	790.526	611.087
421.613	163.265	1369.887	1797.736
422.628	141.504	1454.309	1797.812
