DTS Sentinel unit serial number:	SN413079Multiplexer serial number:	ORYXHardware model number:	OX4-SRSoftware version number:	ORYX F/W v4.00 Oryx Data Collector v3.7.2.0data status	okinstallation	princeton_trtdifferential loss correction	single-endedforward channel	channel 3reverse channel	N/Adate	2019/09/11time	00:46:10forward acquisition time	60.00reverse acquisition time	0.00gamma	496.2192k internal	0.2332k external	0.2332temperature offset calibration	0.9916default loss term (dB/km)	0.3790temperature slope calibration	1.0000multiplexer offset coefficient	1.0000multiplexer slope coefficient	1.0000fibre end	0.00T internal ref (°C)	29.19T ext. ref 1 (°C)	-0.31T ext. ref 2 (°C)	22.77length (m)	temperature (°C)	Stokes	anti-Stokes-747.200	-67.334	-0.293	-0.116
-746.185	800.000	0.124	0.387
-745.171	365.470	0.121	0.246
-744.156	800.000	-0.018	-0.060
-743.142	675.006	0.109	-0.284
-742.127	800.000	0.120	0.399
-741.112	-117.448	-0.307	0.056
-740.098	552.814	0.188	0.454
-739.083	-59.774	0.498	0.214
-738.069	-165.448	-0.185	0.008
-737.054	728.688	-0.134	-0.359
-736.039	-110.669	-0.100	-0.021
-735.025	-145.899	0.466	-0.042
-734.010	-41.692	-0.295	-0.152
-732.996	-200.000	-0.049	-0.354
-731.981	17.298	-0.114	-0.091
-730.966	769.598	0.115	-0.314
-729.952	-76.032	0.061	0.022
-728.937	-200.000	0.048	-0.299
-727.923	784.691	0.060	-0.165
-726.908	178.181	-0.175	0.256
-725.894	3.989	-0.226	-0.166
-724.879	155.631	0.254	0.351
-723.864	61.671	0.093	-0.093
-722.850	87.757	-0.103	-0.115
-721.835	120.230	0.123	0.153
-720.821	590.778	0.024	-0.059
-719.806	70.014	-0.118	-0.122
-718.791	-200.000	0.052	-0.268
-717.777	618.287	-0.088	0.223
-716.762	113.769	0.186	-0.227
-715.748	-17.408	0.311	0.197
-714.733	8.893	-0.367	0.278
-713.718	140.986	0.044	0.059
-712.704	800.000	-0.076	-0.323
-711.689	103.084	-0.212	-0.249
-710.675	215.356	0.167	0.267
-709.660	-159.465	0.297	-0.017
-708.645	-73.673	0.165	-0.060
-707.631	15.595	0.124	-0.098
-706.616	-114.107	-0.109	0.021
-705.602	-130.753	-0.230	0.031
-704.587	273.532	0.046	0.082
-703.572	708.859	-0.048	-0.126
-702.558	277.185	-0.118	0.210
-701.543	-64.978	-0.148	0.060
-700.529	122.008	0.065	-0.082
-699.514	-152.090	-0.211	-0.015
-698.499	800.000	0.063	-0.204
-697.485	-73.515	-0.211	0.077
-696.470	-148.617	-0.142	0.012
-695.456	-111.346	-0.046	-0.009
-694.441	-200.000	-0.022	-0.287
-693.426	-98.644	-0.069	0.018
-692.412	-200.000	-0.008	0.145
-691.397	187.429	-0.051	0.076
-690.383	85.815	-0.282	0.312
-689.368	-107.304	-0.373	-0.082
-688.354	-98.618	-0.141	-0.036
-687.339	-63.231	0.375	0.155
-686.324	800.000	0.064	-0.226
-685.310	324.095	-0.174	-0.333
-684.295	440.997	0.111	-0.243
-683.281	-35.924	0.170	0.092
-682.266	-200.000	-0.012	-0.217
-681.251	-67.466	-0.429	-0.169
-680.237	-77.787	0.494	-0.171
-679.222	-93.789	-0.131	0.036
-678.208	-176.678	-0.413	-0.011
-677.193	326.345	-0.104	-0.200
-676.178	80.706	-0.240	-0.259
-675.164	447.507	-0.112	0.247
-674.149	-20.181	-0.069	-0.042
-673.135	376.945	0.087	0.178
-672.120	800.000	0.115	-0.495
-671.105	-57.237	0.328	-0.145
-670.091	362.390	0.144	-0.290
-669.076	800.000	0.027	-0.108
-668.062	512.346	-0.137	-0.321
-667.047	629.118	0.042	0.106
-666.032	-18.712	-0.140	-0.087
-665.018	11.659	0.282	0.217
-664.003	-200.000	0.054	0.513
-662.989	-52.332	0.195	-0.091
-661.974	683.014	0.042	0.110
-660.959	-95.493	0.065	0.017
-659.945	800.000	0.085	0.272
-658.930	-16.830	-0.172	-0.109
-657.916	7.232	0.183	-0.137
-656.901	5.964	0.147	-0.109
-655.886	-55.917	0.163	0.073
-654.872	-61.043	-0.252	-0.107
-653.857	-200.000	-0.014	-0.291
-652.843	-154.453	-0.325	0.022
-651.828	-200.000	0.004	-0.019
-650.814	-49.701	-0.164	-0.078
-649.799	248.091	0.071	0.120
-648.784	-44.911	0.333	0.166
-647.770	-10.401	-0.049	-0.033
-646.755	-177.450	-0.410	-0.010
-645.741	-6.392	-0.257	-0.176
-644.726	-180.914	-0.029	0.001
-643.711	-200.000	0.012	-0.101
-642.697	-14.457	-0.075	0.048
-641.682	211.056	0.166	0.262
-640.668	-109.390	-0.173	0.037
-639.653	-200.000	0.014	-0.344
-638.638	44.735	0.111	0.102
-637.624	159.007	-0.123	0.171
-636.609	-200.000	-0.008	-0.173
-635.595	-42.092	0.173	0.089
-634.580	105.954	-0.066	-0.078
-633.565	-200.000	-0.005	-0.091
-632.551	-122.873	0.279	0.045
-631.536	-16.599	0.156	-0.099
-630.522	-58.167	-0.367	-0.160
-629.507	-111.466	-0.031	-0.006
-628.492	89.743	-0.116	0.130
-627.478	-117.540	0.263	-0.048
-626.463	39.170	-0.122	0.109
-625.449	-179.673	-0.345	-0.007
-624.434	288.892	0.036	0.066
-623.419	-158.916	0.353	-0.020
-622.405	421.779	0.045	-0.096
-621.390	-65.013	0.257	0.104
-620.376	46.504	-0.170	0.158
-619.361	14.607	0.121	0.095
-618.346	-127.524	-0.220	-0.032
-617.332	162.369	-0.232	0.326
-616.317	737.255	-0.068	0.182
-615.303	389.246	-0.190	-0.395
-614.288	-200.000	0.027	0.193
-613.273	53.897	0.098	0.094
-612.259	-102.288	-0.377	0.091
-611.244	231.355	-0.066	-0.108
-610.230	479.157	-0.099	-0.224
-609.215	56.011	-0.298	-0.289
-608.201	-154.510	0.257	-0.017
-607.186	-111.807	-0.222	0.045
-606.171	-200.000	-0.097	-0.443
-605.157	-82.870	0.335	-0.108
-604.142	209.384	-0.030	0.047
-603.128	110.964	-0.289	-0.348
-602.113	-200.000	-0.016	0.077
-601.098	51.004	-0.100	0.095
-600.084	157.983	0.257	-0.357
-599.069	-63.624	-0.113	0.046
-598.055	-141.449	0.237	0.024
-597.040	87.781	-0.141	0.156
-596.025	427.224	0.073	-0.158
-595.011	282.220	0.087	-0.156
-593.996	-142.597	-0.148	-0.015
-592.982	-82.279	-0.069	-0.023
-591.967	-184.524	0.018	-0.000
-590.952	86.074	0.051	-0.056
-589.938	800.000	0.040	0.152
-588.923	800.000	-0.028	-0.105
-587.909	230.789	-0.049	0.079
-586.894	-77.924	-0.073	-0.025
-585.879	-46.935	-0.309	0.151
-584.865	61.455	0.109	0.109
-583.850	28.162	-0.226	-0.191
-582.836	114.149	-0.087	0.106
-581.821	4.862	0.221	0.163
-580.806	-200.000	0.016	-0.247
-579.792	-200.000	-0.002	-0.128
-578.777	800.000	0.081	0.282
-577.763	274.427	-0.118	-0.209
-576.748	800.000	0.036	0.102
-575.733	73.627	0.140	0.147
-574.719	305.425	0.039	0.073
-573.704	323.949	-0.141	-0.269
-572.690	57.619	-0.192	0.187
-571.675	-200.000	-0.000	0.133
-570.661	-200.000	0.017	-0.103
-569.646	-58.457	0.356	-0.155
-568.631	-7.583	-0.242	0.164
-567.617	179.386	0.118	-0.172
-566.602	-0.415	0.141	-0.100
-565.588	-109.796	-0.199	0.042
-564.573	-93.927	0.487	-0.134
-563.558	179.199	-0.101	-0.148
-562.544	366.998	0.065	-0.130
-561.529	-108.906	-0.141	0.030
-560.515	317.273	0.192	-0.362
-559.500	-22.955	0.274	0.165
-558.485	164.790	0.130	-0.184
-557.471	411.546	-0.046	-0.097
-556.456	45.950	0.196	-0.181
-555.442	18.651	-0.301	-0.240
-554.427	41.485	0.311	-0.281
-553.412	357.245	0.108	-0.215
-552.398	648.435	0.122	-0.311
-551.383	-125.780	-0.244	0.037
-550.369	-200.000	-0.025	-0.237
-549.354	249.201	-0.112	-0.190
-548.339	-40.969	0.212	0.110
-547.325	-119.765	0.204	-0.035
-546.310	-105.123	0.294	0.067
-545.296	-15.081	-0.277	-0.177
-544.281	172.876	0.151	-0.217
-543.266	-130.867	-0.410	0.055
-542.252	202.986	-0.028	0.043
-541.237	-200.000	0.031	-0.166
-540.223	307.475	-0.025	-0.046
-539.208	-37.160	0.366	0.196
-538.193	494.434	-0.119	0.273
-537.179	260.276	0.155	-0.268
-536.164	-2.933	0.129	-0.090
-535.150	-90.047	-0.110	-0.032
-534.135	20.756	-0.332	0.268
-533.121	726.826	-0.070	-0.187
-532.106	-200.000	-0.021	0.140
-531.091	-76.209	0.137	0.048
-530.077	800.000	-0.071	-0.200
-529.062	-111.129	0.177	0.036
-528.048	-154.722	-0.142	0.009
-527.033	36.452	0.236	0.207
-526.018	169.169	0.243	0.345
-525.004	66.572	0.282	-0.286
-523.989	-200.000	-0.019	-0.407
-522.975	-5.008	-0.248	-0.170
-521.960	-200.000	0.000	-0.003
-520.945	800.000	-0.053	-0.228
-519.931	-200.000	0.046	0.224
-518.916	231.051	-0.036	0.059
-517.902	-36.020	-0.356	0.192
-516.887	-200.000	0.001	0.225
-515.872	-85.038	-0.374	0.117
-514.858	203.283	0.156	-0.241
-513.843	-48.744	-0.335	0.160
-512.829	-200.000	-0.060	0.363
-511.814	-48.406	0.096	-0.046
-510.799	-113.562	-0.150	-0.029
-509.785	-65.330	0.256	0.103
-508.770	-86.589	-0.097	-0.030
-507.756	-16.398	0.148	-0.094
-506.741	240.855	-0.294	-0.490
-505.726	-200.000	0.018	0.103
-504.712	-200.000	0.002	0.067
-503.697	-105.932	-0.062	0.014
-502.683	-5.940	0.364	0.248
-501.668	800.000	0.011	0.041
-500.653	140.395	0.185	0.243
-499.639	-122.964	0.512	0.082
-498.624	-137.042	-0.337	0.038
-497.610	322.975	0.038	0.072
-496.595	56.831	0.204	0.198
-495.581	-37.242	0.412	-0.220
-494.566	800.000	0.040	-0.125
-493.551	800.000	0.012	0.035
-492.537	28.898	0.208	-0.176
-491.522	-99.913	0.092	-0.023
-490.508	-200.000	-0.044	-0.294
-489.493	-14.516	-0.224	-0.144
-488.478	-198.648	-0.080	-0.000
-487.464	536.797	0.087	0.205
-486.449	-107.388	0.145	-0.032
-485.435	287.200	-0.076	-0.137
-484.420	157.247	0.073	0.101
-483.405	-200.000	0.003	-0.123
-482.391	143.937	-0.026	-0.034
-481.376	-193.240	0.567	0.005
-480.362	-37.977	-0.106	-0.056
-479.347	192.678	-0.179	0.269
-478.332	29.848	0.096	-0.082
-477.318	-35.955	0.158	0.085
-476.303	-94.847	0.274	-0.074
-475.289	488.009	0.034	0.077
-474.274	437.830	0.078	0.170
-473.259	-30.087	-0.458	-0.259
-472.245	-62.510	0.157	0.065
-471.230	-17.384	-0.306	0.192
-470.216	-13.669	-0.345	0.223
-469.201	-57.523	0.524	0.229
-468.186	-157.008	0.246	-0.015
-467.172	20.418	0.231	0.186
-466.157	-21.361	0.236	0.144
-465.143	-200.000	0.009	-0.173
-464.128	-81.821	-0.198	-0.065
-463.113	800.000	-0.058	-0.164
-462.099	-22.374	0.089	0.054
-461.084	-42.528	-0.134	0.068
-460.070	108.702	-0.365	0.434
-459.055	800.000	0.010	-0.045
-458.040	-49.491	-0.276	0.131
-457.026	-125.057	-0.365	-0.056
-456.011	39.058	0.179	-0.159
-454.997	23.445	-0.207	-0.169
-453.982	-70.831	-0.215	-0.081
-452.968	114.199	-0.197	-0.239
-451.953	227.358	-0.283	0.458
-450.938	-66.655	-0.128	-0.051
-449.924	119.310	-0.200	-0.246
-448.909	-200.000	0.061	0.347
-447.895	181.426	0.113	-0.165
-446.880	152.854	0.081	-0.110
-445.865	-7.101	-0.067	0.045
-444.851	6.091	0.188	-0.139
-443.836	-200.000	-0.018	0.102
-442.822	-107.376	-0.252	0.055
-441.807	163.349	-0.235	0.329
-440.792	-200.000	0.063	0.359
-439.778	-200.000	-0.038	-0.316
-438.763	-200.000	0.001	0.059
-437.749	85.158	0.022	0.024
-436.734	-39.808	-0.289	-0.150
-435.719	-82.687	0.118	-0.038
-434.705	60.302	-0.178	-0.175
-433.690	529.468	0.080	-0.187
-432.676	154.843	0.028	-0.039
-431.661	-179.510	-0.341	-0.007
-430.646	81.779	0.236	0.254
-429.632	-200.000	0.009	0.052
-428.617	261.733	-0.078	0.135
-427.603	-200.000	0.008	0.192
-426.588	800.000	-0.047	-0.143
-425.573	174.838	0.091	-0.131
-424.559	152.188	-0.218	0.296
-423.544	47.805	0.038	0.035
-422.530	-200.000	-0.023	-0.203
-421.515	382.903	-0.130	-0.266
-420.500	-134.738	-0.348	0.042
-419.486	-101.397	0.125	-0.030
-418.471	-53.953	-0.416	-0.188
-417.457	-101.589	-0.336	0.081
-416.442	-87.831	-0.148	0.044
-415.428	-200.000	-0.015	0.096
-414.413	678.794	0.044	-0.113
-413.398	800.000	0.030	0.083
-412.384	-78.383	-0.193	0.066
-411.369	46.139	0.020	0.018
-410.355	52.961	0.250	0.238
-409.340	73.973	-0.119	0.124
-408.325	-145.448	-0.220	0.020
-407.311	-113.565	0.044	0.008
-406.296	79.872	0.257	0.274
-405.282	-78.060	0.210	-0.072
-404.267	800.000	-0.067	-0.272
-403.252	185.631	0.369	-0.544
-402.238	-52.096	-0.389	0.179
-401.223	-200.000	-0.009	-0.222
-400.209	116.001	-0.471	-0.572
-399.194	31.677	0.252	-0.216
-398.179	-200.000	0.002	0.098
-397.165	-200.000	-0.006	-0.398
-396.150	-200.000	0.022	-0.278
-395.136	28.552	-0.204	-0.171
-394.121	-1.907	-0.060	0.042
-393.106	115.533	0.151	-0.184
-392.092	604.512	0.076	-0.189
-391.077	-39.468	-0.467	0.243
-390.063	800.000	-0.077	-0.299
-389.048	-29.868	0.449	0.254
-388.033	538.272	0.035	0.082
-387.019	800.000	-0.134	-0.376
-386.004	27.482	-0.283	-0.236
-384.990	240.065	0.141	-0.233
-383.975	433.351	-0.089	0.191
-382.960	413.502	-0.100	0.210
-381.946	67.098	0.024	-0.025
-380.931	-71.785	-0.164	-0.061
-379.917	405.732	-0.101	0.211
-378.902	82.303	-0.054	-0.058
-377.888	-24.466	0.233	-0.138
-376.873	-18.634	-0.258	0.159
-375.858	396.945	0.093	-0.192
-374.844	-106.735	-0.172	-0.038
-373.829	-137.539	0.158	-0.018
-372.815	128.870	0.156	-0.197
-371.800	-127.795	-0.147	-0.021
-370.785	-89.034	0.121	0.035
-369.771	36.714	0.212	0.185
-368.756	9.836	0.087	0.065
-367.742	-200.000	-0.001	-0.424
-366.727	398.578	-0.097	-0.201
-365.712	-200.000	0.058	-0.430
-364.698	8.243	-0.151	0.112
-363.683	435.866	-0.069	-0.148
-362.669	264.683	0.271	0.468
-361.654	800.000	0.091	0.380
-360.639	149.916	0.013	-0.018
-359.625	-86.209	0.295	-0.090
-358.610	-46.207	-0.244	-0.119
-357.596	-148.910	-0.138	0.011
-356.581	-13.130	-0.116	-0.074
-355.566	211.133	0.095	-0.148
-354.552	-138.070	-0.159	0.017
-353.537	-131.006	0.255	0.034
-352.523	-200.000	-0.013	0.106
-351.508	-200.000	0.006	-0.156
-350.493	-106.304	0.120	-0.027
-349.479	800.000	0.063	0.204
-348.464	-116.900	0.251	-0.046
-347.450	-1.604	0.299	0.209
-346.435	276.939	0.184	0.325
-345.420	288.588	-0.127	-0.228
-344.406	137.623	-0.116	0.151
-343.391	-23.889	-0.266	0.158
-342.377	800.000	0.076	0.309
-341.362	-200.000	-0.023	0.139
-340.348	346.531	0.075	0.146
-339.333	-46.803	0.224	0.108
-338.318	-163.144	-0.174	-0.008
-337.304	-17.672	0.116	0.072
-336.289	-71.701	0.177	0.065
-335.275	33.983	0.318	-0.274
-334.260	-200.000	-0.005	0.186
-333.245	60.698	-0.110	-0.108
-332.231	-77.080	0.283	0.098
-331.216	79.957	-0.264	-0.281
-330.202	-49.859	0.103	0.048
-329.187	19.244	-0.251	0.200
-328.172	-128.377	-0.192	-0.027
-327.158	-67.431	0.363	-0.141
-326.143	653.225	0.026	0.065
-325.129	800.000	0.080	-0.243
-324.114	-45.177	0.297	-0.146
-323.099	-120.525	-0.244	-0.041
-322.085	-91.750	0.272	0.077
-321.070	800.000	0.090	-0.249
-320.056	-111.566	0.203	-0.041
-319.041	-200.000	0.013	0.382
-318.026	-1.655	0.122	0.085
-317.012	206.358	-0.132	-0.204
-315.997	12.603	0.135	0.103
-314.983	-64.154	0.204	0.082
-313.968	-72.105	0.360	0.132
-312.953	-200.000	0.024	-0.151
-311.939	800.000	-0.052	0.145
-310.924	15.228	0.266	0.207
-309.910	198.619	-0.146	0.222
-308.895	800.000	-0.098	0.318
-307.880	-149.259	0.131	-0.010
-306.866	-200.000	-0.023	-0.243
-305.851	1.843	0.219	0.156
-304.837	800.000	0.044	-0.123
-303.822	-4.550	0.165	0.113
-302.807	-200.000	0.053	0.346
-301.793	350.797	0.092	0.179
-300.778	-200.000	-0.017	0.000
-299.764	-200.000	0.021	-0.257
-298.749	10.286	-0.384	0.289
-297.735	-173.228	-0.570	-0.017
-296.720	800.000	0.057	0.163
-295.705	20.739	0.147	0.118
-294.691	-31.269	0.248	-0.138
-293.676	225.831	0.058	0.093
-292.662	-200.000	-0.031	0.329
-291.647	236.267	0.160	-0.261
-290.632	56.696	-0.113	0.109
-289.618	192.563	0.130	0.194
-288.603	-200.000	0.004	0.130
-287.589	-200.000	-0.043	-0.234
-286.574	-62.035	-0.445	0.184
-285.559	-200.000	0.008	0.038
-284.545	-2.647	0.364	-0.252
-283.530	-136.055	0.092	0.011
-282.516	-2.631	-0.169	0.117
-281.501	-152.597	0.200	0.014
-280.486	-44.748	-0.271	-0.133
-279.472	-51.504	-0.193	-0.089
-278.457	746.272	-0.033	0.089
-277.443	-119.774	0.205	-0.035
-276.428	-110.907	0.054	0.011
-275.413	553.696	-0.027	0.064
-274.399	-37.637	-0.351	0.185
-273.384	67.455	0.097	0.098
-272.370	-200.000	-0.036	-0.295
-271.355	-20.201	0.168	0.102
-270.340	-200.000	0.072	0.313
-269.326	-113.968	-0.196	-0.038
-268.311	-200.000	-0.003	0.040
-267.297	-33.148	-0.009	0.005
-266.282	-200.000	-0.051	0.376
-265.267	35.172	-0.230	0.199
-264.253	-100.481	0.137	-0.033
-263.238	469.827	0.022	0.050
-262.224	800.000	0.086	0.284
-261.209	353.874	0.155	0.304
-260.195	-200.000	-0.021	-0.269
-259.180	-53.992	-0.281	-0.126
-258.165	-46.312	0.185	0.090
-257.151	138.942	0.114	-0.148
-256.136	-122.980	-0.285	-0.045
-255.122	-200.000	-0.007	-0.262
-254.107	-200.000	-0.008	0.208
-253.092	7.665	-0.193	-0.143
-252.078	74.695	0.119	-0.123
-251.063	145.005	0.181	-0.240
-250.049	-72.177	-0.044	-0.016
-249.034	800.000	0.028	0.113
-248.019	643.616	0.052	-0.131
-247.005	67.354	-0.077	0.077
-245.990	-16.805	0.164	0.102
-244.976	98.593	0.160	-0.182
-243.961	35.257	0.243	0.210
-242.946	-21.134	-0.167	0.101
-241.932	800.000	-0.073	0.241
-240.917	-200.000	0.025	-0.140
-239.903	-200.000	0.047	0.228
-238.888	-175.453	0.248	-0.007
-237.873	-10.426	-0.169	0.111
-236.859	504.641	0.134	-0.306
-235.844	-82.940	-0.133	0.042
-234.830	-172.662	-0.091	-0.003
-233.815	-136.547	0.160	0.018
-232.800	529.804	0.047	0.109
-231.786	-145.446	0.039	-0.003
-230.771	-177.355	-0.213	-0.005
-229.757	321.274	-0.064	0.120
-228.742	-42.380	-0.508	0.256
-227.727	323.844	0.036	0.068
-226.713	-44.358	0.151	0.075
-225.698	-200.000	-0.055	0.322
-224.684	-200.000	0.003	0.242
-223.669	9.366	-0.152	-0.114
-222.655	-10.987	0.087	0.057
-221.640	-200.000	-0.026	-0.125
-220.625	-200.000	0.011	0.098
-219.611	123.835	0.072	-0.089
-218.596	257.713	-0.121	0.205
-217.582	-135.819	0.331	0.038
-216.567	-160.280	-0.624	0.033
-215.552	-48.369	0.209	-0.099
-214.538	-58.364	-0.126	0.054
-213.523	330.353	0.095	0.181
-212.509	219.826	0.115	0.182
-211.494	147.169	-0.227	0.301
-210.479	-200.000	0.063	-0.297
-209.465	800.000	0.036	0.107
-208.450	800.000	-0.022	0.073
-207.436	-137.557	-0.310	0.034
-206.421	108.619	-0.098	0.115
-205.406	-56.108	0.375	-0.165
-204.392	-200.000	0.023	-0.430
-203.377	351.276	0.109	0.212
-202.363	-1.864	-0.239	0.166
-201.348	-200.000	0.000	0.034
-200.333	-78.622	0.110	0.037
-199.319	308.737	0.087	-0.159
-198.304	38.809	0.042	-0.037
-197.290	315.019	0.093	-0.172
-196.275	114.335	0.131	0.157
-195.260	-42.685	-0.330	0.165
-194.246	115.517	-0.216	-0.260
-193.231	202.167	-0.129	0.196
-192.217	-72.115	-0.071	0.026
-191.202	89.309	0.076	-0.083
-190.187	131.022	0.151	-0.191
-189.173	66.421	0.223	-0.223
-188.158	234.964	-0.116	0.189
-187.144	-12.345	-0.126	0.081
-186.129	-58.559	0.303	-0.129
-185.114	-200.000	-0.006	0.176
-184.100	8.145	0.168	0.124
-183.085	221.214	-0.132	-0.209
-182.071	-200.000	0.094	0.458
-181.056	-9.336	-0.124	-0.082
-180.042	-74.158	0.066	-0.023
-179.027	7.351	-0.146	-0.107
-178.012	-25.787	0.176	-0.102
-176.998	32.757	0.088	0.075
-175.983	800.000	-0.129	0.376
-174.969	211.067	0.190	-0.293
-173.954	800.000	-0.039	-0.107
-172.939	175.832	0.140	-0.200
-171.925	-200.000	0.008	-0.575
-170.910	221.466	-0.054	-0.086
-169.896	-48.107	-0.337	0.160
-168.881	-70.558	0.219	0.081
-167.866	-151.452	-0.282	0.021
-166.852	800.000	0.054	-0.214
-165.837	107.065	0.065	-0.077
-164.823	800.000	-0.099	-0.276
-163.808	-200.000	0.023	0.117
-162.793	-200.000	0.023	0.231
-161.779	800.000	0.036	0.105
-160.764	-7.698	-0.097	0.065
-159.750	-79.552	0.214	-0.071
-158.735	11.592	0.175	0.132
-157.720	175.998	-0.114	0.162
-156.706	-149.685	-0.252	-0.019
-155.691	389.729	0.093	0.190
-154.677	527.228	0.044	0.103
-153.662	18.252	0.292	-0.229
-152.647	100.974	0.076	0.087
-151.633	-130.455	0.241	0.032
-150.618	76.085	0.195	0.203
-149.604	-54.554	0.088	-0.039
-148.589	401.621	0.113	0.233
-147.574	473.156	0.123	0.273
-146.560	-200.000	-0.054	-0.266
-145.545	-200.000	-0.021	0.110
-144.531	-48.614	0.142	-0.067
-143.516	140.999	0.220	-0.286
-142.502	-200.000	0.004	-0.252
-141.487	-73.844	-0.047	-0.017
-140.472	253.027	-0.112	0.188
-139.458	-157.335	-0.270	-0.016
-138.443	-200.000	0.066	0.292
-137.429	800.000	-0.034	-0.141
-136.414	467.532	-0.047	-0.104
-135.399	8.968	0.167	-0.124
-134.385	645.663	0.147	-0.368
-133.370	448.117	0.024	0.051
-132.356	224.285	-0.085	-0.135
-131.341	-200.000	0.005	-0.031
-130.326	-98.585	-0.262	0.066
-129.312	-200.000	0.018	0.082
-128.297	-59.222	-0.123	-0.052
-127.283	-200.000	-0.011	-0.245
-126.268	71.292	0.132	-0.134
-125.253	4.988	-0.165	0.119
-124.239	-200.000	-0.038	-0.175
-123.224	800.000	0.070	0.217
-122.210	17.507	0.240	-0.188
-121.195	-200.000	-0.037	0.202
-120.180	-92.430	0.177	0.049
-119.166	313.015	-0.134	-0.247
-118.151	-152.262	0.243	-0.017
-117.137	800.000	0.113	-0.318
-116.122	800.000	0.092	0.368
-115.107	-50.443	0.096	0.045
-114.093	23.312	-0.024	0.019
-113.078	-71.112	0.465	0.171
-112.064	-104.934	-0.095	-0.021
-111.049	82.777	0.319	0.340
-110.034	-9.728	0.479	0.313
-109.020	19.865	-0.173	0.136
-108.005	-79.839	0.387	0.128
-106.991	-163.720	0.112	-0.005
-105.976	99.025	-0.145	0.164
-104.962	-64.379	-0.217	-0.087
-103.947	-23.550	-0.068	-0.040
-102.932	-200.000	-0.013	-0.195
-101.918	-41.622	0.219	0.110
-100.903	199.205	0.110	-0.166
-99.889	-135.106	-0.364	-0.043
-98.874	-200.000	-0.013	0.169
-97.859	800.000	-0.016	-0.048
-96.845	-200.000	-0.095	-0.544
-95.830	39.088	0.088	0.077
-94.816	69.646	0.187	0.189
-93.801	9.565	-0.153	0.114
-92.786	-84.617	-0.134	0.041
-91.772	800.000	0.057	-0.239
-90.757	-24.103	-0.350	-0.205
-89.743	-8.886	-0.230	0.151
-88.728	-200.000	-0.069	-0.324
-87.713	-88.602	-0.074	0.022
-86.699	-200.000	-0.068	0.377
-85.684	547.611	0.103	-0.241
-84.670	-116.770	-0.188	-0.034
-83.655	-200.000	0.015	-0.195
-82.640	-200.000	-0.020	0.561
-81.626	800.000	0.051	0.170
-80.611	-200.000	0.020	-0.147
-79.597	210.945	-0.099	0.153
-78.582	800.000	0.048	-0.194
-77.567	445.872	-0.090	0.195
-76.553	129.396	-0.051	-0.064
-75.538	16.280	0.083	-0.064
-74.524	-123.356	-0.348	0.054
-73.509	-200.000	-0.005	-0.021
-72.494	800.000	0.077	-0.253
-71.480	342.959	-0.030	0.057
-70.465	-106.524	0.250	0.055
-69.451	800.000	0.022	-0.069
-68.436	-6.929	0.225	0.150
-67.422	-71.157	0.189	0.070
-66.407	-143.798	-0.184	0.017
-65.392	-1.507	-0.200	0.138
-64.378	-200.000	0.026	-0.370
-63.363	-76.912	0.336	-0.115
-62.349	-22.652	-0.291	-0.172
-61.334	150.374	-0.865	-1.151
-60.319	211.044	0.225	0.347
-59.305	-200.000	-0.103	-1.096
-58.290	155.155	0.809	1.090
-57.276	365.131	0.768	1.514
-56.261	-200.000	106.934	626.087
-55.246	523.111	1513.298	3482.365
-54.232	176.349	2701.854	3844.207
-53.217	110.468	2181.315	2567.492
-52.203	39.768	1704.556	1497.820
-51.188	32.435	1517.794	1283.859
-50.173	29.956	1491.505	1244.931
-49.159	50.765	1548.306	1435.604
-48.144	50.953	1564.398	1451.756
-47.130	32.592	1519.431	1286.115
-46.115	29.607	1504.655	1253.336
-45.100	29.212	1501.761	1248.204
-44.086	29.233	1499.642	1246.533
-43.071	29.231	1497.467	1244.664
-42.057	29.215	1495.705	1243.042
-41.042	29.144	1494.373	1241.406
-40.027	29.211	1493.475	1241.066
-39.013	29.216	1491.138	1239.108
-37.998	29.194	1490.180	1238.109
-36.984	29.031	1489.288	1236.225
-35.969	29.109	1487.434	1235.163
-34.954	29.110	1486.265	1234.151
-33.940	29.075	1485.103	1232.898
-32.925	29.207	1483.515	1232.420
-31.911	29.208	1482.058	1231.161
-30.896	29.226	1480.935	1230.304
-29.881	29.386	1479.706	1230.301
-28.867	29.262	1478.633	1228.533
-27.852	29.273	1477.093	1227.278
-26.838	29.297	1475.624	1226.171
-25.823	29.233	1474.410	1224.687
-24.809	29.151	1472.615	1222.604
-23.794	29.277	1470.713	1221.808
-22.779	29.201	1470.322	1220.934
-21.765	29.271	1468.755	1220.043
-20.750	29.158	1467.746	1218.411
-19.736	29.261	1466.408	1217.934
-18.721	29.264	1465.677	1217.298
-17.706	29.171	1464.951	1216.032
-16.692	29.193	1463.797	1215.169
-15.677	29.245	1462.336	1214.255
-14.663	29.163	1461.367	1212.861
-13.648	29.201	1460.577	1212.407
-12.633	29.112	1459.676	1211.022
-11.619	29.141	1459.344	1210.889
-10.604	29.185	1457.935	1209.963
-9.590	29.126	1457.147	1208.875
-8.575	29.106	1456.326	1208.017
-7.560	29.203	1454.937	1207.449
-6.546	29.222	1454.354	1207.042
-5.531	29.122	1453.897	1205.960
-4.517	29.266	1452.649	1205.818
-3.502	29.162	1451.372	1204.029
-2.487	29.191	1450.588	1203.525
-1.473	29.168	1449.554	1202.466
-0.458	29.229	1448.147	1201.650
0.556	26.893	1438.842	1190.561
1.571	24.014	1413.846	1151.185
2.586	20.723	1353.996	1081.931
3.600	19.136	1272.580	1007.507
4.615	18.181	1227.856	966.617
5.629	15.770	1172.796	910.161
6.644	7.526	1089.183	803.617
7.659	0.843	1049.205	741.384
8.673	-0.044	1043.702	733.103
9.688	-0.331	1040.407	729.330
10.702	-0.437	1039.066	727.811
11.717	-0.437	1037.283	726.497
12.731	2.604	1039.882	743.013
13.746	11.388	1052.640	795.022
14.761	18.214	1061.475	835.059
15.775	19.910	1063.132	844.571
16.790	20.107	1062.285	844.781
17.804	19.890	1062.172	843.560
18.819	19.821	1060.756	842.026
19.834	19.988	1059.971	842.137
20.848	20.110	1059.746	842.478
21.863	20.039	1059.247	841.661
22.877	20.142	1058.863	841.783
23.892	19.980	1058.103	840.319
24.907	19.842	1056.989	838.689
25.921	20.006	1057.009	839.428
26.936	20.053	1056.207	838.941
27.950	19.825	1055.085	836.874
28.965	19.934	1053.701	836.229
29.980	19.846	1051.808	834.229
30.994	19.715	1050.567	832.543
32.009	20.039	1049.605	833.263
33.023	20.038	1049.057	832.749
34.038	19.928	1047.433	830.860
35.053	19.903	1046.911	830.249
36.067	19.977	1046.330	830.074
37.082	20.101	1045.249	829.737
38.096	20.130	1044.462	829.176
39.111	20.226	1043.961	829.163
40.126	20.382	1043.204	829.235
41.140	20.307	1041.312	827.298
42.155	20.012	1040.506	825.181
43.169	19.623	1039.285	822.286
44.184	19.783	1037.795	821.796
45.199	19.811	1036.803	821.069
46.213	19.697	1036.098	819.899
47.228	19.657	1034.882	818.677
48.242	19.793	1034.140	818.661
49.257	19.922	1032.968	818.269
50.271	19.957	1031.788	817.429
51.286	19.955	1031.283	816.947
52.301	20.065	1030.912	817.097
53.315	20.054	1029.594	815.928
54.330	20.104	1028.704	815.387
55.344	20.034	1028.011	814.437
56.359	20.068	1027.206	813.885
57.374	19.956	1026.482	812.717
58.388	19.909	1025.178	811.389
59.403	19.735	1024.665	810.100
60.417	19.956	1023.477	810.122
61.432	19.700	1023.088	808.542
62.447	19.681	1022.289	807.750
63.461	19.918	1021.386	808.072
64.476	20.037	1020.784	808.081
65.490	19.935	1019.846	806.793
66.505	19.834	1018.452	805.145
67.520	19.805	1017.985	804.569
68.534	19.912	1017.450	804.577
69.549	19.681	1016.515	802.694
70.563	19.515	1015.104	800.738
71.578	19.395	1014.457	799.601
72.593	19.400	1013.669	798.933
73.607	19.303	1012.219	797.268
74.622	19.391	1011.308	796.885
75.636	19.621	1010.660	797.370
76.651	19.792	1009.926	797.505
77.666	19.618	1009.227	796.081
78.680	19.567	1008.176	794.947
79.695	19.438	1008.275	794.359
80.709	19.609	1007.151	794.194
81.724	19.664	1006.368	793.759
82.739	19.690	1005.218	792.901
83.753	19.591	1004.797	792.042
84.768	19.941	1004.139	793.058
85.782	20.238	1003.389	793.752
86.797	20.383	1002.693	793.797
87.812	20.298	1001.665	792.523
88.826	20.101	1000.339	790.508
89.841	20.165	999.824	790.323
90.855	20.376	998.716	790.334
91.870	20.342	997.790	789.377
92.884	20.445	996.838	789.025
93.899	20.148	996.280	787.166
94.914	20.083	995.140	785.898
95.928	20.023	994.945	785.404
96.943	20.161	993.927	785.156
97.957	19.853	992.601	782.644
98.972	19.825	990.968	781.163
99.987	19.520	990.357	779.234
101.001	19.522	990.101	778.973
102.016	19.961	989.379	780.317
103.030	19.998	988.326	779.584
104.045	19.927	986.830	778.016
105.060	19.722	985.320	775.834
106.074	19.665	984.081	774.537
107.089	19.754	983.301	774.250
108.103	19.989	983.852	775.669
109.118	20.149	982.506	775.254
110.133	19.922	981.133	773.090
111.147	19.924	980.281	772.359
112.162	19.850	978.579	770.622
113.176	19.506	977.877	768.466
114.191	19.821	976.659	768.842
115.206	19.820	975.983	768.237
116.220	19.464	974.585	765.492
117.235	19.395	973.397	764.187
118.249	19.588	973.315	764.908
119.264	19.568	971.946	763.675
120.279	19.503	971.014	762.590
121.293	19.451	970.752	762.085
122.308	19.741	969.604	762.396
123.322	19.494	969.662	761.286
124.337	19.663	967.744	760.456
125.352	19.544	966.585	758.953
126.366	19.162	964.728	755.755
127.381	18.935	963.452	753.692
128.395	19.346	963.473	755.443
129.410	19.834	962.859	757.029
130.424	20.133	961.897	757.512
131.439	19.998	960.914	756.083
132.454	19.889	960.172	754.956
133.468	19.936	958.823	754.034
134.483	19.820	958.209	752.980
135.497	19.938	957.620	752.964
136.512	20.157	956.761	753.171
137.527	20.299	956.150	753.241
138.541	20.133	955.447	751.901
139.556	20.265	954.567	751.713
140.570	20.245	953.651	750.840
141.585	20.337	952.795	750.499
142.600	20.212	952.177	749.404
143.614	20.223	951.480	748.838
144.629	20.265	950.618	748.275
145.643	20.527	949.742	748.645
146.658	20.246	948.636	746.498
147.673	20.092	947.847	745.151
148.687	20.141	946.538	744.266
149.702	20.075	945.857	743.382
150.716	19.994	944.738	742.087
151.731	19.964	943.731	741.104
152.746	20.087	942.589	740.667
153.760	20.237	942.609	741.259
154.775	20.391	941.632	741.083
155.789	20.487	940.571	740.590
156.804	20.405	939.561	739.381
157.819	20.327	938.714	738.315
158.833	20.287	937.775	737.342
159.848	20.326	937.477	737.209
160.862	20.475	936.483	736.995
161.877	20.348	935.389	735.530
162.892	20.196	934.559	734.167
163.906	20.523	933.560	734.704
164.921	20.472	932.848	733.859
165.935	20.465	931.707	732.868
166.950	20.455	930.540	731.843
167.964	20.376	929.622	730.725
168.979	20.342	928.801	729.871
169.994	20.246	927.686	728.527
171.008	20.163	926.429	727.127
172.023	20.296	926.026	727.307
173.037	20.396	925.193	727.004
174.052	20.042	924.404	724.839
175.067	20.064	922.963	723.739
176.081	20.080	922.325	723.242
177.096	20.232	921.681	723.307
178.110	20.238	920.548	722.377
179.125	19.981	919.628	720.521
180.140	19.809	918.347	718.741
181.154	19.900	917.762	718.595
182.169	19.978	916.738	718.056
183.183	20.150	916.744	718.709
184.198	20.393	916.124	719.165
185.213	20.471	915.407	718.861
186.227	20.394	914.663	717.895
187.242	20.343	914.680	717.633
188.256	20.573	913.544	717.632
189.271	20.377	912.869	716.227
190.286	20.466	912.355	716.129
191.300	20.422	910.806	714.665
192.315	19.948	909.386	711.542
193.329	19.238	908.164	707.608
194.344	18.910	907.110	705.380
195.359	19.426	907.549	707.775
196.373	20.226	907.606	711.037
197.388	20.331	907.578	711.385
198.402	20.191	906.745	710.095
199.417	20.132	905.976	709.188
200.432	20.292	905.465	709.378
201.446	19.985	904.706	707.466
202.461	19.776	903.826	705.866
203.475	19.755	903.640	705.572
204.490	19.423	901.971	702.853
205.504	18.286	900.075	696.686
206.519	18.912	900.177	699.252
207.534	19.730	900.275	702.594
208.548	19.866	899.482	702.464
209.563	20.150	900.020	703.974
210.577	20.315	898.800	703.629
211.592	19.930	898.059	701.427
212.607	20.210	898.065	702.504
213.621	20.372	897.662	702.780
214.636	20.352	896.545	701.763
215.650	20.332	896.470	701.564
216.665	20.428	895.072	700.794
217.680	20.388	894.599	700.199
218.694	20.637	893.996	700.667
219.709	20.132	892.835	697.664
220.723	19.874	892.353	696.188
221.738	20.135	891.651	696.630
222.753	20.392	891.210	697.255
223.767	20.227	890.727	696.154
224.782	20.323	889.712	695.682
225.796	20.368	889.470	695.611
226.811	20.489	888.878	695.573
227.826	20.189	887.314	693.087
228.840	19.403	885.997	688.860
229.855	19.354	885.278	688.044
230.869	19.656	885.072	689.029
231.884	19.311	884.148	686.873
232.899	19.472	883.499	686.951
233.913	20.075	883.655	689.408
234.928	20.367	882.922	689.936
235.942	20.151	882.484	688.675
236.957	20.273	881.808	688.573
237.972	19.924	881.026	686.517
238.986	19.864	880.313	685.662
240.001	19.998	879.762	685.704
241.015	20.136	878.661	685.331
242.030	20.117	878.304	684.916
243.045	20.098	877.578	684.212
244.059	20.183	877.178	684.176
245.074	20.451	876.431	684.589
246.088	20.264	876.055	683.498
247.103	20.001	874.684	681.333
248.117	20.100	874.003	681.132
249.132	20.597	873.985	683.009
250.147	20.763	873.936	683.563
251.161	20.755	872.985	682.727
252.176	21.074	872.768	683.750
253.190	21.073	871.880	682.990
254.205	21.110	871.736	682.960
255.220	21.194	871.315	682.897
256.234	21.296	870.475	682.579
257.249	21.072	870.199	681.428
258.263	20.864	869.231	679.798
259.278	20.976	868.691	679.751
260.293	21.063	868.219	679.661
261.307	21.194	867.387	679.457
262.322	21.137	866.652	678.601
263.336	20.901	866.133	677.218
264.351	20.476	864.822	674.485
265.366	19.380	862.600	668.444
266.380	18.885	861.698	665.772
267.395	19.826	862.188	669.736
268.409	20.710	862.044	672.983
269.424	20.500	861.590	671.757
270.439	20.850	861.008	672.596
271.453	20.919	860.271	672.227
272.468	20.989	859.600	671.913
273.482	21.053	859.426	671.965
274.497	21.210	858.529	671.807
275.512	21.129	857.530	670.656
276.526	20.336	856.929	667.079
277.541	20.597	855.973	667.278
278.555	20.869	855.716	668.064
279.570	20.800	855.059	667.226
280.585	20.456	854.654	665.535
281.599	20.695	853.766	665.697
282.614	21.012	852.974	666.231
283.628	20.358	851.917	662.852
284.643	20.108	851.426	661.458
285.657	20.513	851.252	662.806
286.672	20.296	850.735	661.521
287.687	19.868	849.676	659.008
288.701	20.304	849.405	660.398
289.716	20.590	849.064	661.162
290.730	20.186	848.174	658.875
291.745	20.312	847.189	658.533
292.760	20.073	846.261	656.847
293.774	19.904	845.979	655.929
294.789	20.792	846.482	659.624
295.803	21.318	846.276	661.398
296.818	21.495	845.678	661.540
297.833	21.604	845.280	661.585
298.847	21.231	844.186	659.261
299.862	20.925	843.121	657.218
300.876	21.261	842.413	657.872
301.891	21.418	842.240	658.273
302.906	21.509	841.607	658.058
303.920	21.066	840.615	655.562
304.935	20.944	839.654	654.297
305.949	21.271	839.766	655.553
306.964	21.299	839.157	655.126
307.979	21.139	838.524	653.972
308.993	21.123	837.869	653.344
310.008	21.553	837.431	654.553
311.022	21.634	837.700	655.010
312.037	21.422	836.721	653.395
313.052	21.111	836.103	651.691
314.066	21.125	835.307	651.066
315.081	20.604	833.742	647.850
316.095	19.889	832.689	644.314
317.110	20.427	832.928	646.444
318.125	21.108	833.033	649.001
319.139	20.812	831.915	646.974
320.154	19.679	830.336	641.484
321.168	19.201	829.648	639.122
322.183	19.963	829.560	641.825
323.197	20.742	830.002	644.998
324.212	20.985	829.813	645.693
325.227	21.184	829.220	645.912
326.241	21.310	829.048	646.185
327.256	21.199	827.936	644.853
328.270	21.063	827.428	643.897
329.285	21.147	826.692	643.576
330.300	20.843	825.979	641.846
331.314	20.632	824.973	640.232
332.329	20.930	824.341	640.779
333.343	21.228	824.199	641.707
334.358	21.359	823.981	641.961
335.373	21.383	823.392	641.535
336.387	21.306	822.890	640.802
337.402	21.596	822.520	641.522
338.416	21.745	822.150	641.722
339.431	21.824	821.450	641.407
340.446	21.703	821.074	640.614
341.460	21.933	820.719	641.124
342.475	21.776	819.853	639.817
343.489	21.593	818.941	638.379
344.504	21.647	818.621	638.273
345.519	21.878	818.292	638.798
346.533	22.205	817.449	639.275
347.548	22.025	817.783	638.823
348.562	22.219	816.870	638.758
349.577	22.135	816.355	637.994
350.592	22.197	815.729	637.672
351.606	22.123	815.339	637.045
352.621	22.094	815.158	636.740
353.635	22.001	814.570	635.889
354.650	21.923	813.757	634.915
355.665	21.627	812.874	633.101
356.679	20.603	810.949	627.852
357.694	20.493	811.025	627.458
358.708	21.084	810.509	629.135
359.723	21.166	809.762	628.795
360.738	21.270	809.820	629.159
361.752	21.638	809.963	630.540
362.767	21.875	809.386	630.884
363.781	22.049	809.561	631.594
364.796	22.528	808.676	632.564
365.810	22.426	808.286	631.838
366.825	22.450	808.308	631.884
367.840	22.508	807.883	631.704
368.854	22.301	807.365	630.503
369.869	21.832	806.624	628.187
370.883	21.785	805.425	627.030
371.898	21.787	805.373	626.943
372.913	21.614	804.394	625.507
373.927	21.839	803.606	625.644
374.942	21.921	803.272	625.618
375.956	21.879	802.964	625.175
376.971	22.079	802.206	625.240
377.986	22.298	801.908	625.731
379.000	22.298	801.563	625.408
380.015	22.405	800.954	625.256
381.029	22.236	799.920	623.797
382.044	22.191	799.382	623.162
383.059	22.323	799.394	623.583
384.073	22.346	798.731	623.093
385.088	22.266	798.407	622.500
386.102	22.326	798.002	622.342
387.117	22.231	797.148	621.287
388.132	22.110	796.674	620.433
389.146	22.038	795.997	619.599
390.161	21.351	794.930	616.291
391.175	21.455	794.512	616.278
392.190	22.126	794.221	618.360
393.205	21.832	794.380	617.396
394.219	21.062	792.206	612.947
395.234	19.557	790.145	606.020
396.248	18.724	789.578	602.610
397.263	20.054	790.486	607.919
398.278	21.879	791.361	614.939
399.292	22.156	791.092	615.650
400.307	21.841	790.488	614.022
401.321	21.862	789.914	613.593
402.336	21.968	789.674	613.723
403.350	22.244	789.709	614.662
404.365	22.643	789.625	615.935
405.380	22.796	789.313	616.172
406.394	22.851	789.255	616.265
407.409	23.185	788.578	616.847
408.423	23.172	787.954	616.258
409.438	22.974	787.544	615.192
410.453	22.888	787.198	614.569
411.467	23.077	787.122	615.113
412.482	22.959	785.998	613.771
413.496	23.018	785.441	613.488
414.511	23.091	785.163	613.467
415.526	23.209	784.938	613.649
416.540	23.100	784.517	612.886
417.555	23.091	783.754	612.205
418.569	22.860	783.319	611.013
419.584	22.712	782.433	609.753
420.599	22.926	782.251	610.299
421.613	157.932	1363.472	1797.872
422.628	136.541	1448.136	1797.967
