DTS Sentinel unit serial number:	SN413079Multiplexer serial number:	ORYXHardware model number:	OX4-SRSoftware version number:	ORYX F/W v4.00 Oryx Data Collector v3.7.2.0data status	okinstallation	princeton_trtdifferential loss correction	single-endedforward channel	channel 3reverse channel	N/Adate	2019/09/17time	11:08:35forward acquisition time	60.00reverse acquisition time	0.00gamma	496.2192k internal	0.2322k external	0.2322temperature offset calibration	0.9949default loss term (dB/km)	0.3790temperature slope calibration	1.0000multiplexer offset coefficient	1.0000multiplexer slope coefficient	1.0000fibre end	0.00T internal ref (°C)	30.37T ext. ref 1 (°C)	0.22T ext. ref 2 (°C)	26.05length (m)	temperature (°C)	Stokes	anti-Stokes-747.200	-111.717	-0.306	-0.063
-746.185	26.869	0.212	0.179
-745.171	37.169	0.314	-0.281
-744.156	800.000	-0.079	0.245
-743.142	1.703	0.059	-0.043
-742.127	34.538	-0.100	0.089
-741.112	800.000	-0.083	0.260
-740.098	181.285	-0.217	0.322
-739.083	-133.757	0.299	-0.038
-738.069	-69.894	-0.372	-0.143
-737.054	-85.050	0.392	-0.124
-736.039	293.689	-0.053	0.097
-735.025	-200.000	-0.009	0.137
-734.010	-138.050	-0.124	-0.014
-732.996	386.068	-0.120	0.251
-731.981	12.169	-0.186	0.144
-730.966	-49.607	-0.270	0.130
-729.952	119.941	-0.136	-0.170
-728.937	800.000	0.052	-0.197
-727.923	-200.000	0.084	-0.381
-726.908	800.000	-0.065	-0.193
-725.894	146.132	-0.082	0.111
-724.879	96.487	-0.026	-0.030
-723.864	800.000	-0.047	-0.138
-722.850	184.661	-0.168	-0.252
-721.835	50.538	0.134	0.128
-720.821	800.000	-0.151	-0.446
-719.806	-200.000	-0.049	-0.360
-718.791	10.746	-0.181	-0.140
-717.777	55.984	0.067	-0.066
-716.762	217.524	0.082	-0.131
-715.748	277.302	-0.094	-0.169
-714.733	412.633	0.109	-0.234
-713.718	492.284	-0.075	-0.173
-712.704	-200.000	0.009	-0.335
-711.689	800.000	0.011	0.033
-710.675	124.305	-0.049	0.062
-709.660	478.647	-0.102	0.234
-708.645	-50.605	0.252	0.120
-707.631	86.354	-0.164	-0.183
-706.616	396.423	-0.088	0.186
-705.602	92.075	-0.324	0.368
-704.587	-108.532	-0.141	0.030
-703.572	800.000	-0.094	0.266
-702.558	-39.898	0.387	0.204
-701.543	16.114	-0.072	0.057
-700.529	800.000	0.061	0.191
-699.514	371.256	-0.097	-0.197
-698.499	-99.480	-0.065	0.017
-697.485	716.918	0.082	0.220
-696.470	160.629	-0.106	0.150
-695.456	800.000	-0.077	-0.306
-694.441	656.591	0.154	-0.398
-693.426	800.000	0.049	0.153
-692.412	32.312	-0.175	-0.152
-691.397	439.948	-0.204	0.450
-690.383	8.909	0.419	-0.319
-689.368	166.008	-0.108	-0.154
-688.354	-101.610	0.219	-0.054
-687.339	14.721	-0.146	0.115
-686.324	-200.000	-0.075	0.388
-685.310	74.790	-0.274	-0.291
-684.295	30.523	-0.044	0.038
-683.281	-181.433	-0.223	-0.004
-682.266	69.275	-0.266	-0.276
-681.251	-139.322	0.275	-0.030
-680.237	800.000	0.066	-0.206
-679.222	-71.418	0.475	-0.179
-678.208	-66.242	-0.442	0.177
-677.193	105.304	-0.071	0.084
-676.178	-95.799	0.205	-0.055
-675.164	147.738	-0.015	-0.021
-674.149	88.578	0.326	-0.365
-673.135	36.805	-0.335	-0.298
-672.120	-75.415	-0.108	-0.039
-671.105	174.678	0.230	0.335
-670.091	327.849	0.258	0.499
-669.076	157.556	-0.064	-0.090
-668.062	78.825	-0.111	-0.119
-667.047	-14.077	-0.136	-0.088
-666.032	-31.279	-0.123	0.070
-665.018	106.070	0.261	-0.311
-664.003	766.175	-0.047	-0.128
-662.989	315.394	0.037	0.070
-661.974	-82.852	-0.281	0.091
-660.959	176.146	0.263	0.384
-659.945	76.677	0.353	-0.377
-658.930	-152.165	-0.223	-0.016
-657.916	-134.160	-0.145	0.018
-656.901	-149.038	0.137	-0.011
-655.886	19.184	-0.053	-0.043
-654.872	-200.000	0.055	0.347
-653.857	-200.000	0.008	0.124
-652.843	-121.553	-0.214	0.036
-651.828	-75.126	0.080	-0.029
-650.814	-90.785	0.106	0.031
-649.799	598.345	-0.026	0.064
-648.784	44.024	0.113	0.104
-647.770	-115.085	0.267	0.051
-646.755	-86.810	0.317	0.097
-645.741	-120.652	-0.355	-0.060
-644.726	99.552	0.040	-0.047
-643.711	33.490	0.071	0.062
-642.697	-84.845	-0.258	-0.082
-641.682	407.688	-0.088	0.187
-640.668	635.096	-0.091	-0.232
-639.653	-51.286	0.147	-0.069
-638.638	394.638	0.055	0.116
-637.624	800.000	-0.102	-0.300
-636.609	-58.703	0.209	0.091
-635.595	42.013	-0.060	-0.054
-634.580	300.022	0.141	-0.262
-633.565	151.209	-0.209	-0.286
-632.551	471.954	0.100	0.227
-631.536	156.616	-0.171	0.237
-630.522	8.004	-0.398	-0.300
-629.507	-200.000	0.008	0.075
-628.492	-98.464	-0.118	0.030
-627.478	15.939	-0.232	-0.183
-626.463	-200.000	-0.016	-0.364
-625.449	-167.156	0.060	-0.002
-624.434	362.685	-0.133	-0.268
-623.419	547.353	-0.097	-0.234
-622.405	10.457	-0.218	-0.167
-621.390	178.748	-0.228	-0.336
-620.376	-86.902	0.500	0.154
-619.361	-88.753	-0.183	-0.055
-618.346	-107.632	0.145	-0.032
-617.332	-200.000	-0.044	-0.232
-616.317	100.472	0.103	0.120
-615.303	-200.000	-0.014	-0.118
-614.288	-200.000	0.022	-0.105
-613.273	-200.000	-0.033	0.262
-612.259	800.000	0.031	-0.125
-611.244	800.000	-0.032	0.101
-610.230	-200.000	0.005	-0.094
-609.215	-200.000	-0.001	-0.505
-608.201	113.588	-0.099	-0.121
-607.186	-200.000	-0.017	0.237
-606.171	5.124	-0.291	0.216
-605.157	-200.000	0.041	0.397
-604.142	-106.058	0.193	-0.044
-603.128	540.822	-0.138	-0.329
-602.113	452.776	-0.107	0.238
-601.098	-130.581	-0.367	0.050
-600.084	800.000	0.021	0.077
-599.069	290.441	-0.134	-0.245
-598.055	721.167	0.053	0.143
-597.040	-66.663	0.186	0.074
-596.025	85.265	0.126	0.139
-595.011	-200.000	0.066	-0.308
-593.996	292.083	0.069	0.127
-592.982	9.323	-0.052	0.040
-591.967	-11.715	-0.185	0.122
-590.952	-200.000	0.013	-0.088
-589.938	164.559	-0.063	-0.089
-588.923	800.000	0.065	-0.278
-587.909	-14.447	-0.246	-0.159
-586.894	-91.895	-0.255	-0.073
-585.879	629.129	0.112	-0.284
-584.865	79.281	-0.261	0.281
-583.850	800.000	0.041	0.177
-582.836	-158.820	-0.278	0.016
-581.821	113.832	-0.126	-0.154
-580.806	800.000	-0.066	-0.205
-579.792	245.002	0.163	0.274
-578.777	185.871	-0.220	-0.329
-577.763	-200.000	-0.031	-0.188
-576.748	-200.000	-0.000	0.062
-575.733	-24.481	0.175	-0.104
-574.719	800.000	-0.078	0.308
-573.704	800.000	0.032	0.130
-572.690	72.473	-0.221	0.231
-571.675	-37.894	0.229	0.122
-570.661	-87.276	0.148	0.045
-569.646	-14.057	0.273	-0.177
-568.631	46.712	0.244	-0.227
-567.617	-200.000	0.018	0.154
-566.602	18.702	-0.208	-0.167
-565.588	800.000	-0.065	0.233
-564.573	800.000	-0.079	0.237
-563.558	-10.739	0.031	-0.020
-562.544	35.649	0.275	-0.242
-561.529	-200.000	0.043	-0.264
-560.515	26.591	0.018	-0.015
-559.500	-4.346	-0.257	0.178
-558.485	-123.351	0.020	0.003
-557.471	-200.000	-0.003	-0.035
-556.456	26.326	-0.321	0.269
-555.442	-200.000	0.001	-0.128
-554.427	7.566	-0.078	-0.058
-553.412	57.668	0.154	-0.151
-552.398	-127.418	-0.224	0.033
-551.383	16.535	0.166	0.131
-550.369	227.698	0.075	-0.123
-549.354	84.339	0.223	-0.244
-548.339	20.845	0.164	-0.134
-547.325	-64.087	-0.129	-0.053
-546.310	-142.992	0.175	-0.017
-545.296	-110.920	0.140	0.029
-544.281	-71.200	0.199	-0.075
-543.266	-159.248	0.117	0.007
-542.252	82.157	-0.217	0.236
-541.237	-200.000	-0.051	0.333
-540.223	800.000	-0.061	0.241
-539.208	-126.150	0.225	0.034
-538.193	101.097	0.061	0.071
-537.179	440.484	-0.090	-0.197
-536.164	-40.923	0.128	0.066
-535.150	-200.000	-0.007	-0.331
-534.135	80.822	-0.149	-0.161
-533.121	-194.560	-0.070	-0.001
-532.106	-83.366	0.144	0.046
-531.091	-200.000	0.022	0.124
-530.077	-63.317	0.294	0.121
-529.062	65.639	0.214	0.217
-528.048	-200.000	0.016	-0.193
-527.033	290.990	0.119	-0.217
-526.018	-59.776	-0.186	0.080
-525.004	91.303	-0.205	0.230
-523.989	800.000	0.068	0.193
-522.975	-38.806	-0.104	-0.055
-521.960	86.824	-0.025	0.028
-520.945	148.641	-0.285	-0.386
-519.931	-126.934	0.366	-0.054
-518.916	-200.000	-0.004	0.118
-517.902	92.422	0.226	-0.255
-516.887	-32.211	-0.088	0.049
-515.872	-200.000	-0.002	-0.300
-514.858	-200.000	-0.012	-0.154
-513.843	-126.518	-0.287	-0.043
-512.829	-108.448	-0.225	-0.049
-511.814	-88.610	-0.366	0.109
-510.799	210.157	-0.145	-0.227
-509.785	-200.000	-0.057	-0.385
-508.770	-18.633	-0.358	0.223
-507.756	800.000	-0.059	-0.231
-506.741	-78.481	0.215	-0.074
-505.726	-13.258	0.331	0.215
-504.712	-200.000	0.029	0.224
-503.697	-14.819	-0.127	-0.082
-502.683	-37.693	-0.031	0.016
-501.668	800.000	0.035	0.125
-500.653	183.128	-0.145	-0.214
-499.639	198.351	0.137	0.210
-498.624	-200.000	0.053	0.347
-497.610	-44.466	0.052	-0.026
-496.595	-44.354	0.285	0.143
-495.581	800.000	-0.053	0.209
-494.566	58.003	0.159	0.156
-493.551	21.617	0.049	0.040
-492.537	-47.967	0.289	0.140
-491.522	344.552	0.102	0.200
-490.508	24.696	-0.011	-0.009
-489.493	19.932	0.097	-0.078
-488.478	-68.666	0.264	0.102
-487.464	-44.269	0.407	0.204
-486.449	-200.000	0.018	-0.226
-485.435	478.605	0.076	-0.173
-484.420	-76.295	-0.206	0.072
-483.405	19.657	0.267	0.215
-482.391	759.425	-0.023	-0.062
-481.376	169.646	-0.152	0.217
-480.362	800.000	-0.068	0.291
-479.347	-200.000	-0.002	-0.092
-478.332	-2.176	0.137	-0.097
-477.318	-112.087	-0.227	-0.046
-476.303	-14.382	-0.366	-0.236
-475.289	-33.421	-0.103	-0.057
-474.274	38.662	0.327	-0.292
-473.259	-200.000	0.003	-0.215
-472.245	-76.119	-0.109	-0.039
-471.230	800.000	-0.056	0.194
-470.216	-66.912	-0.067	0.026
-469.201	-28.157	-0.268	0.155
-468.186	151.613	-0.140	0.191
-467.172	227.003	0.108	-0.176
-466.157	-0.085	0.185	0.132
-465.143	244.243	-0.117	0.196
-464.128	-110.293	0.110	-0.023
-463.113	641.443	0.101	-0.258
-462.099	540.567	-0.087	0.206
-461.084	-183.877	0.092	-0.002
-460.070	-200.000	0.023	-0.303
-459.055	-5.032	-0.352	-0.242
-458.040	-71.680	0.135	-0.050
-457.026	-95.279	0.311	0.084
-456.011	476.285	-0.109	0.245
-454.997	-73.107	0.144	0.053
-453.982	-118.918	0.300	-0.053
-452.968	202.525	-0.163	0.252
-451.953	-200.000	-0.000	0.057
-450.938	-72.567	-0.063	0.023
-449.924	253.951	0.205	0.350
-448.909	-200.000	0.027	-0.149
-447.895	-50.517	-0.441	0.208
-446.880	93.560	-0.128	0.145
-445.865	79.509	0.231	0.248
-444.851	800.000	0.032	0.139
-443.836	182.235	0.098	-0.145
-442.822	-200.000	0.162	0.001
-441.807	-69.775	-0.188	-0.072
-440.792	287.349	-0.129	0.232
-439.778	279.123	-0.075	-0.133
-438.763	-200.000	-0.006	-0.143
-437.749	-200.000	0.004	-0.233
-436.734	-38.401	0.303	0.160
-435.719	-200.000	0.007	0.127
-434.705	-132.341	0.169	0.022
-433.690	-110.736	-0.273	0.056
-432.676	-200.000	0.057	0.383
-431.661	800.000	-0.016	0.063
-430.646	60.056	0.087	-0.085
-429.632	800.000	-0.105	-0.415
-428.617	-97.318	-0.340	-0.088
-427.603	-200.000	0.022	-0.146
-426.588	-194.596	0.217	0.002
-425.573	-58.904	-0.080	-0.035
-424.559	800.000	-0.077	-0.313
-423.544	74.055	-0.058	0.061
-422.530	83.871	0.073	-0.080
-421.515	-145.223	-0.421	0.038
-420.500	110.990	0.341	0.410
-419.486	-95.278	0.432	-0.116
-418.471	-155.503	-0.049	-0.003
-417.457	95.973	-0.064	0.073
-416.442	142.306	-0.141	0.187
-415.428	139.461	-0.201	-0.264
-414.413	-200.000	-0.047	0.265
-413.398	-84.622	0.284	0.089
-412.384	-1.852	0.186	-0.130
-411.369	64.369	0.172	0.173
-410.355	-8.301	0.096	-0.064
-409.340	30.057	0.097	-0.082
-408.325	-200.000	0.028	-0.298
-407.311	800.000	0.143	-0.441
-406.296	-200.000	0.035	-0.269
-405.282	-57.190	0.207	-0.091
-404.267	25.335	-0.157	0.130
-403.252	49.337	0.054	0.051
-402.238	800.000	-0.152	0.421
-401.223	-200.000	0.020	-0.141
-400.209	233.504	0.015	-0.025
-399.194	800.000	0.007	0.022
-398.179	-200.000	-0.007	0.309
-397.165	18.698	-0.036	-0.029
-396.150	757.828	0.158	-0.428
-395.136	-200.000	-0.055	-0.341
-394.121	-11.263	0.344	-0.226
-393.106	-29.536	-0.237	-0.135
-392.092	-200.000	0.019	-0.271
-391.077	-61.297	-0.108	0.045
-390.063	-75.906	-0.102	0.036
-389.048	8.420	-0.373	0.279
-388.033	114.489	-0.069	0.083
-387.019	2.814	0.239	-0.173
-386.004	688.431	-0.118	-0.309
-384.990	-200.000	0.030	-0.416
-383.975	-69.146	0.201	-0.077
-382.960	278.556	-0.213	0.378
-381.946	-200.000	-0.006	0.050
-380.931	-99.508	0.145	0.036
-379.917	14.986	0.089	-0.069
-378.902	53.072	0.159	0.151
-377.888	-120.421	0.098	0.017
-376.873	72.927	-0.281	0.293
-375.858	800.000	0.118	-0.355
-374.844	-200.000	-0.011	-0.313
-373.829	265.282	-0.152	0.264
-372.815	-124.489	-0.334	-0.052
-371.800	-127.888	0.338	-0.048
-370.785	-200.000	0.005	-0.121
-369.771	-119.316	-0.181	0.031
-368.756	-45.560	-0.426	-0.210
-367.742	419.108	0.068	-0.145
-366.727	159.955	-0.096	0.133
-365.712	-64.920	0.262	0.105
-364.698	-150.202	0.115	-0.009
-363.683	-200.000	0.056	-0.366
-362.669	800.000	0.131	0.361
-361.654	522.160	0.114	-0.267
-360.639	-200.000	0.000	-0.290
-359.625	437.676	0.159	0.344
-358.610	27.261	0.170	-0.142
-357.596	-200.000	-0.042	0.192
-356.581	164.844	-0.103	0.145
-355.566	82.180	0.194	0.209
-354.552	383.514	-0.185	0.378
-353.537	-74.688	0.456	0.163
-352.523	800.000	-0.082	-0.272
-351.508	115.932	0.247	-0.301
-350.493	294.501	-0.171	0.310
-349.479	-200.000	-0.011	0.235
-348.464	-200.000	-0.049	0.323
-347.450	-66.010	-0.080	-0.032
-346.435	565.513	-0.103	0.250
-345.420	-200.000	-0.013	0.260
-344.406	338.258	-0.069	-0.134
-343.391	-200.000	0.005	0.035
-342.377	-86.702	0.110	0.033
-341.362	800.000	0.031	0.131
-340.348	-87.329	0.199	-0.060
-339.333	800.000	0.049	0.189
-338.318	108.088	-0.092	0.109
-337.304	583.172	-0.093	0.227
-336.289	800.000	0.007	-0.024
-335.275	-81.672	0.163	-0.053
-334.260	730.648	0.072	-0.190
-333.245	243.830	0.068	0.113
-332.231	10.461	-0.043	0.033
-331.216	-200.000	-0.019	0.095
-330.202	800.000	-0.061	0.218
-329.187	-200.000	-0.006	-0.216
-328.172	-200.000	0.042	0.318
-327.158	193.458	0.113	0.170
-326.143	-85.554	-0.084	0.026
-325.129	9.658	-0.141	-0.106
-324.114	797.936	-0.084	0.230
-323.099	-105.341	0.285	0.065
-322.085	-200.000	-0.008	-0.127
-321.070	800.000	-0.124	0.386
-320.056	800.000	0.049	0.189
-319.041	-137.021	-0.243	0.028
-318.026	40.209	0.122	0.109
-317.012	800.000	0.079	0.228
-315.997	527.655	0.088	-0.205
-314.983	-200.000	0.019	-0.255
-313.968	106.457	-0.069	-0.081
-312.953	-200.000	0.015	-0.208
-311.939	20.130	-0.116	-0.093
-310.924	-200.000	-0.015	-0.232
-309.910	533.071	-0.071	0.167
-308.895	-200.000	0.000	-0.045
-307.880	221.941	-0.119	0.190
-306.866	-119.257	0.470	-0.081
-305.851	149.934	-0.071	0.096
-304.837	-75.315	0.168	-0.059
-303.822	-90.377	-0.155	-0.045
-302.807	-35.519	0.382	0.206
-301.793	-198.987	0.404	-0.002
-300.778	-111.028	0.107	-0.022
-299.764	-200.000	-0.068	-0.306
-298.749	10.083	-0.169	-0.128
-297.735	-183.132	0.251	-0.004
-296.720	-200.000	0.019	0.117
-295.705	-91.381	-0.115	0.033
-294.691	-200.000	0.008	-0.061
-293.676	602.333	-0.117	0.288
-292.662	133.610	-0.170	0.219
-291.647	-44.613	-0.152	0.075
-290.632	-154.832	0.051	-0.003
-289.618	-98.552	-0.159	0.040
-288.603	12.486	0.139	0.106
-287.589	-200.000	0.018	0.091
-286.574	-200.000	-0.019	0.166
-285.559	-86.773	-0.199	-0.060
-284.545	-98.502	0.196	0.050
-283.530	-31.087	0.312	0.175
-282.516	13.494	0.163	-0.126
-281.501	-42.857	0.081	-0.041
-280.486	-101.967	0.376	-0.090
-279.472	103.448	-0.091	-0.106
-278.457	800.000	0.060	0.256
-277.443	239.582	0.290	0.479
-276.428	-12.992	-0.409	-0.264
-275.413	-200.000	-0.052	-0.257
-274.399	-34.030	0.297	0.162
-273.384	481.041	-0.128	-0.289
-272.370	-159.586	-0.150	0.008
-271.355	800.000	0.112	0.388
-270.340	-72.333	0.352	0.129
-269.326	321.781	-0.158	0.299
-268.311	127.191	-0.284	0.357
-267.297	-46.382	0.298	-0.145
-266.282	-43.160	0.373	-0.187
-265.267	-200.000	0.014	-0.219
-264.253	-200.000	-0.003	-0.278
-263.238	-159.476	-0.241	-0.013
-262.224	-81.806	-0.220	0.071
-261.209	762.234	-0.023	0.061
-260.195	478.596	-0.039	0.088
-259.180	-72.606	-0.102	-0.037
-258.165	-25.296	-0.192	0.113
-257.151	800.000	0.091	-0.279
-256.136	-97.001	-0.099	0.026
-255.122	-124.608	-0.095	-0.015
-254.107	-4.825	0.123	-0.084
-253.092	411.416	0.156	0.329
-252.078	288.074	-0.167	0.300
-251.063	-200.000	-0.032	0.432
-250.049	800.000	-0.107	0.297
-249.034	-149.594	-0.039	-0.003
-248.019	-71.395	0.332	-0.123
-247.005	-200.000	-0.008	0.121
-245.990	344.621	0.183	-0.355
-244.976	8.213	-0.163	0.121
-243.961	-25.482	0.245	0.144
-242.946	-173.682	-0.217	0.006
-241.932	-180.306	0.268	-0.006
-240.917	351.063	-0.052	-0.103
-239.903	-200.000	0.052	-0.235
-238.888	-87.841	0.051	-0.015
-237.873	654.588	-0.101	0.258
-236.859	99.411	-0.084	0.096
-235.844	-179.670	-0.204	0.004
-234.830	-102.705	-0.418	-0.099
-233.815	111.754	0.172	-0.206
-232.800	128.377	-0.254	0.320
-231.786	-200.000	0.006	-0.097
-230.771	-200.000	0.000	-0.091
-229.757	-200.000	-0.342	0.000
-228.742	-141.389	0.059	0.006
-227.727	-162.714	-0.115	0.006
-226.713	21.683	-0.054	-0.044
-225.698	-200.000	-0.030	0.353
-224.684	-125.889	-0.050	0.007
-223.669	5.499	-0.257	0.188
-222.655	-200.000	-0.026	0.133
-221.640	-64.038	0.171	-0.069
-220.625	585.780	0.082	-0.199
-219.611	38.154	-0.400	-0.352
-218.596	50.369	-0.267	-0.250
-217.582	800.000	-0.065	0.213
-216.567	800.000	0.099	-0.280
-215.552	322.423	-0.021	-0.040
-214.538	139.635	0.150	0.196
-213.523	-142.012	-0.308	-0.030
-212.509	-50.791	0.420	0.195
-211.494	-40.579	-0.419	-0.215
-210.479	800.000	0.196	-0.538
-209.465	23.584	-0.178	-0.145
-208.450	-168.183	0.461	0.018
-207.436	5.384	0.004	0.003
-206.421	483.627	0.112	-0.252
-205.406	-139.888	0.310	-0.032
-204.392	165.898	0.163	-0.229
-203.377	407.238	-0.053	-0.112
-202.363	349.475	-0.079	-0.155
-201.348	115.558	-0.231	0.280
-200.333	309.838	-0.052	-0.097
-199.319	-5.412	-0.034	0.023
-198.304	336.544	-0.059	0.112
-197.290	-188.986	-0.342	0.004
-196.275	337.785	0.073	0.141
-195.260	800.000	-0.065	-0.196
-194.246	25.118	0.120	-0.099
-193.231	-58.392	0.102	-0.044
-192.217	800.000	0.043	-0.127
-191.202	-159.461	-0.305	-0.017
-190.187	290.087	-0.098	0.176
-189.173	800.000	-0.035	0.129
-188.158	-85.325	-0.112	0.034
-187.144	36.409	0.028	-0.024
-186.129	241.512	0.076	-0.125
-185.114	-200.000	-0.052	0.263
-184.100	-54.769	-0.175	0.078
-183.085	16.139	0.299	0.233
-182.071	-69.207	-0.230	0.087
-181.056	800.000	-0.024	0.096
-180.042	513.123	0.103	0.237
-179.027	282.995	0.127	0.225
-178.012	132.426	-0.031	0.039
-176.998	-33.402	-0.050	0.028
-175.983	47.781	0.171	-0.158
-174.969	-121.658	0.250	-0.041
-173.954	-100.530	0.235	0.057
-172.939	-80.755	-0.156	0.051
-171.925	12.001	-0.260	0.197
-170.910	-200.000	0.019	-0.294
-169.896	275.418	-0.059	0.104
-168.881	-3.609	0.095	-0.065
-167.866	800.000	0.035	-0.106
-166.852	-46.791	-0.095	0.046
-165.837	-9.503	-0.147	0.097
-164.823	-81.764	-0.320	-0.104
-163.808	800.000	0.083	-0.329
-162.793	-101.043	-0.328	-0.079
-161.779	114.476	0.215	-0.259
-160.764	400.359	-0.160	0.331
-159.750	493.258	0.034	0.076
-158.735	-149.067	-0.227	-0.018
-157.720	-1.242	0.295	-0.206
-156.706	-1.863	0.109	-0.076
-155.691	-148.741	0.083	-0.007
-154.677	800.000	0.135	-0.382
-153.662	-56.266	-0.144	-0.063
-152.647	-200.000	-0.061	-0.299
-151.633	55.577	0.151	0.144
-150.618	-41.184	0.155	-0.079
-149.604	-70.272	-0.138	-0.052
-148.589	457.172	-0.057	0.124
-147.574	-53.225	0.047	0.021
-146.560	-165.491	0.370	0.016
-145.545	-200.000	0.043	-0.267
-144.531	800.000	0.051	0.202
-143.516	-80.834	0.148	0.049
-142.502	91.830	0.140	-0.155
-141.487	-102.846	0.517	-0.121
-140.472	800.000	-0.056	0.166
-139.458	89.048	-0.225	0.247
-138.443	-102.161	0.280	0.067
-137.429	36.501	0.080	-0.069
-136.414	47.812	-0.265	0.244
-135.399	351.520	0.114	0.222
-134.385	53.284	0.198	0.187
-133.370	-145.742	-0.369	-0.032
-132.356	124.072	-0.195	-0.242
-131.341	309.689	0.178	0.327
-130.326	526.007	0.153	-0.356
-129.312	800.000	0.038	-0.131
-128.297	-64.230	-0.467	0.188
-127.283	-200.000	0.058	0.336
-126.268	224.110	-0.073	0.116
-125.253	282.436	0.186	-0.328
-124.239	-74.015	-0.208	-0.074
-123.224	-32.582	0.168	-0.092
-122.210	-94.761	-0.238	0.064
-121.195	510.932	-0.076	-0.175
-120.180	-32.126	0.247	-0.136
-119.166	-200.000	-0.028	0.263
-118.151	9.685	0.157	0.117
-117.137	800.000	-0.073	0.250
-116.122	246.811	-0.116	-0.193
-115.107	-200.000	-0.061	0.317
-114.093	43.145	0.213	0.191
-113.078	-185.538	-0.225	-0.003
-112.064	-200.000	0.024	-0.185
-111.049	-200.000	0.025	-0.144
-110.034	-25.570	0.351	0.204
-109.020	388.086	0.021	-0.043
-108.005	-96.485	-0.399	-0.104
-106.991	760.636	0.029	0.077
-105.976	-200.000	0.070	-0.312
-104.962	-179.969	0.118	-0.002
-103.947	-4.657	0.139	0.094
-102.932	-35.631	-0.081	-0.043
-101.918	-111.768	-0.150	0.030
-100.903	64.696	-0.062	0.062
-99.889	132.526	0.023	0.029
-98.874	133.120	-0.180	-0.229
-97.859	-159.193	-0.354	-0.020
-96.845	800.000	-0.030	-0.098
-95.830	-200.000	0.008	0.053
-94.816	43.856	0.150	0.135
-93.801	-200.000	-0.013	-0.106
-92.786	140.878	0.082	0.107
-91.772	-200.000	-0.002	0.250
-90.757	-200.000	-0.001	-0.053
-89.743	-200.000	-0.056	-0.297
-88.728	92.491	0.051	0.057
-87.713	-84.943	0.044	0.014
-86.699	-52.246	0.076	-0.035
-85.684	100.399	0.221	0.253
-84.670	135.423	-0.274	-0.351
-83.655	612.205	0.027	-0.067
-82.640	164.891	0.055	0.076
-81.626	800.000	0.094	0.383
-80.611	-200.000	0.054	0.251
-79.597	800.000	0.095	-0.315
-78.582	371.657	-0.072	-0.145
-77.567	-200.000	0.001	0.103
-76.553	208.536	-0.133	-0.205
-75.538	-68.552	0.059	-0.022
-74.524	62.761	-0.257	-0.253
-73.509	-18.876	0.170	-0.104
-72.494	24.843	0.042	0.034
-71.480	-200.000	-0.328	0.000
-70.465	800.000	-0.023	0.071
-69.451	-66.356	0.093	0.036
-68.436	-200.000	0.053	-0.353
-67.422	800.000	0.087	-0.239
-66.407	140.807	0.068	0.088
-65.392	-144.387	0.160	-0.015
-64.378	88.723	-0.094	0.103
-63.363	-200.000	0.012	0.628
-62.349	40.303	-0.120	0.106
-61.334	10.965	-1.408	-1.058
-60.319	53.021	0.758	0.714
-59.305	800.000	-0.293	-0.890
-58.290	800.000	0.390	1.241
-57.276	800.000	0.470	1.280
-56.261	-200.000	101.609	575.429
-55.246	477.839	1442.676	3210.585
-54.232	150.664	2630.572	3514.960
-53.217	108.677	2185.185	2567.001
-52.203	40.929	1709.612	1517.305
-51.188	33.495	1517.107	1295.803
-50.173	31.078	1490.357	1256.646
-49.159	51.442	1542.418	1440.620
-48.144	52.374	1560.110	1463.476
-47.130	33.851	1517.850	1298.673
-46.115	30.697	1503.010	1264.525
-45.100	30.475	1499.760	1260.237
-44.086	30.417	1497.839	1258.177
-43.071	30.473	1495.552	1256.587
-42.057	30.321	1493.671	1253.927
-41.042	30.365	1492.502	1253.195
-40.027	30.412	1490.706	1251.953
-39.013	30.386	1489.479	1250.697
-37.998	30.344	1487.977	1249.107
-36.984	30.314	1487.368	1248.345
-35.969	30.413	1485.403	1247.311
-34.954	30.345	1484.108	1245.716
-33.940	30.321	1482.931	1244.516
-32.925	30.362	1481.609	1243.637
-31.911	30.455	1479.836	1242.718
-30.896	30.373	1478.813	1241.261
-29.881	30.422	1477.679	1240.588
-28.867	30.393	1476.743	1239.557
-27.852	30.356	1475.108	1237.892
-26.838	30.448	1473.807	1237.365
-25.823	30.460	1472.161	1236.012
-24.809	30.431	1470.675	1234.525
-23.794	30.461	1468.873	1233.160
-22.779	30.432	1467.800	1232.021
-21.765	30.383	1466.874	1230.867
-20.750	30.367	1466.057	1230.030
-19.736	30.335	1465.148	1229.005
-18.721	30.364	1463.418	1227.695
-17.706	30.281	1462.664	1226.468
-16.692	30.410	1461.368	1226.182
-15.677	30.399	1460.179	1225.063
-14.663	30.423	1458.996	1224.183
-13.648	30.363	1458.144	1223.025
-12.633	30.437	1457.014	1222.513
-11.619	30.422	1456.284	1221.754
-10.604	30.304	1455.637	1220.383
-9.590	30.282	1455.412	1220.006
-8.575	30.403	1453.682	1219.297
-7.560	30.382	1452.946	1218.498
-6.546	30.432	1451.871	1217.874
-5.531	30.289	1451.437	1216.525
-4.517	30.224	1450.950	1215.645
-3.502	30.335	1449.304	1214.941
-2.487	30.344	1448.577	1214.346
-1.473	30.211	1447.521	1212.538
-0.458	30.248	1446.127	1211.564
0.556	28.705	1436.666	1201.499
1.571	26.003	1411.829	1163.223
2.586	22.625	1351.633	1092.631
3.600	20.961	1269.165	1016.186
4.615	19.641	1224.809	973.155
5.629	16.933	1168.844	914.028
6.644	8.588	1083.138	805.090
7.659	1.458	1042.333	740.062
8.673	0.426	1036.070	730.551
9.688	0.267	1033.441	727.868
10.702	0.101	1032.027	726.005
11.717	0.096	1030.270	724.682
12.731	2.858	1032.491	739.493
13.746	11.268	1043.927	788.442
14.761	17.202	1051.082	822.585
15.775	17.354	1050.296	822.633
16.790	16.526	1048.408	817.085
17.804	15.622	1045.717	810.557
18.819	14.567	1044.089	804.139
19.834	14.172	1042.882	801.238
20.848	13.905	1041.954	799.167
21.863	13.641	1041.423	797.421
22.877	13.411	1040.436	795.489
23.892	13.283	1039.784	794.304
24.907	13.083	1038.933	792.625
25.921	13.073	1038.013	791.802
26.936	13.286	1037.207	792.140
27.950	13.242	1036.987	791.692
28.965	13.249	1036.086	790.969
29.980	13.194	1035.464	790.158
30.994	13.379	1033.683	789.611
32.009	13.351	1033.609	789.353
33.023	13.353	1033.059	788.871
34.038	13.520	1031.663	788.530
35.053	13.381	1030.714	787.078
36.067	13.382	1030.028	786.487
37.082	13.330	1028.970	785.361
38.096	13.411	1028.245	785.125
39.111	13.475	1027.688	784.932
40.126	13.329	1026.813	783.504
41.140	13.386	1025.476	782.683
42.155	13.249	1024.868	781.505
43.169	13.092	1024.565	780.460
44.184	13.180	1023.038	779.644
45.199	13.107	1022.036	778.468
46.213	13.196	1021.076	778.087
47.228	13.278	1020.056	777.625
48.242	13.207	1019.182	776.556
49.257	13.213	1018.222	775.785
50.271	13.137	1017.814	775.047
51.286	13.246	1016.537	774.518
52.301	13.290	1015.415	773.802
53.315	13.359	1014.541	773.389
54.330	13.221	1013.960	772.233
55.344	13.203	1013.163	771.473
56.359	13.250	1011.978	770.723
57.374	13.221	1011.664	770.279
58.388	13.249	1010.457	769.425
59.403	13.186	1009.971	768.691
60.417	13.128	1009.257	767.809
61.432	13.211	1008.328	767.422
62.447	13.049	1007.622	766.063
63.461	13.102	1006.591	765.459
64.476	13.019	1005.845	764.441
65.490	13.030	1005.189	763.922
66.505	13.050	1004.350	763.310
67.520	13.056	1003.625	762.720
68.534	13.199	1002.806	762.689
69.549	13.155	1002.171	761.936
70.563	13.179	1001.613	761.558
71.578	13.059	1000.958	760.438
72.593	13.107	999.875	759.768
73.607	13.097	998.927	758.936
74.622	13.029	997.798	757.699
75.636	12.945	997.334	756.892
76.651	12.959	996.572	756.311
77.666	13.084	995.700	756.157
78.680	12.967	995.042	755.055
79.695	13.080	994.285	754.930
80.709	13.093	994.193	754.852
81.724	13.007	993.097	753.560
82.739	13.078	992.640	753.471
83.753	13.232	991.646	753.353
84.768	13.275	990.821	752.852
85.782	13.170	990.262	751.885
86.797	13.357	989.705	752.248
87.812	13.346	988.609	751.296
88.826	13.266	987.699	750.174
89.841	13.271	986.945	749.561
90.855	13.290	985.817	748.722
91.870	13.405	985.024	748.572
92.884	13.393	984.572	748.111
93.899	13.175	984.184	746.765
94.914	13.317	983.252	746.632
95.928	13.441	982.144	746.283
96.943	13.388	981.751	745.681
97.957	13.360	981.094	744.988
98.972	13.437	979.529	744.082
99.987	13.310	979.257	743.239
101.001	13.359	978.534	742.843
102.016	13.441	977.630	742.457
103.030	13.397	976.447	741.296
104.045	13.359	975.966	740.695
105.060	13.237	975.079	739.412
106.074	13.280	974.132	738.821
107.089	13.264	973.428	738.151
108.103	13.169	972.589	737.026
109.118	13.261	971.211	736.326
110.133	13.171	970.446	735.280
111.147	13.097	969.619	734.257
112.162	13.133	969.181	734.023
113.176	13.232	968.562	733.928
114.191	13.307	967.479	733.377
115.206	13.242	966.439	732.236
116.220	13.275	965.448	731.564
117.235	13.304	964.610	730.995
118.249	13.229	964.156	730.252
119.264	13.236	963.227	729.514
120.279	13.145	962.593	728.570
121.293	13.228	961.103	727.745
122.308	13.296	960.741	727.702
123.322	13.254	960.057	726.936
124.337	13.191	959.059	725.841
125.352	13.013	958.002	724.194
126.366	13.251	957.065	724.465
127.381	13.075	956.179	722.961
128.395	13.144	954.999	722.304
129.410	13.251	954.062	722.000
130.424	13.152	953.331	720.952
131.439	13.174	952.239	720.158
132.454	13.313	951.449	720.101
133.468	13.266	950.808	719.346
134.483	13.481	950.104	719.686
135.497	13.406	949.561	718.887
136.512	13.306	948.689	717.729
137.527	13.203	948.270	716.902
138.541	13.118	947.607	715.966
139.556	13.316	946.567	715.975
140.570	13.246	945.846	715.063
141.585	13.290	945.215	714.713
142.600	13.359	944.583	714.473
143.614	13.400	943.359	713.658
144.629	13.437	942.873	713.387
145.643	13.478	942.071	712.894
146.658	13.403	941.363	711.974
147.673	13.535	940.374	711.731
148.687	13.404	939.561	710.487
149.702	13.314	938.484	709.224
150.716	13.374	937.951	709.018
151.731	13.391	937.258	708.504
152.746	13.385	936.557	707.883
153.760	13.348	936.129	707.340
154.775	13.284	935.039	706.182
155.789	13.474	934.157	706.261
156.804	13.514	933.324	705.740
157.819	13.442	932.770	704.952
158.833	13.367	932.143	704.099
159.848	13.573	931.165	704.172
160.862	13.537	930.795	703.679
161.877	13.559	929.937	703.060
162.892	13.531	929.058	702.216
163.906	13.489	928.090	701.243
164.921	13.352	927.488	700.147
165.935	13.419	926.265	699.442
166.950	13.494	925.482	699.105
167.964	13.671	924.391	698.969
168.979	13.557	923.412	697.685
169.994	13.396	922.888	696.550
171.008	13.533	921.935	696.344
172.023	13.461	921.049	695.311
173.037	13.575	920.112	695.020
174.052	13.696	919.207	694.783
175.067	13.657	918.857	694.295
176.081	13.477	918.322	693.076
177.096	13.520	917.390	692.490
178.110	13.597	916.456	692.048
179.125	13.493	915.720	690.996
180.140	13.550	915.110	690.711
181.154	13.496	914.531	689.988
182.169	13.634	913.729	689.897
183.183	13.671	913.145	689.548
184.198	13.750	912.381	689.237
185.213	13.714	911.688	688.505
186.227	13.838	910.919	688.377
187.242	13.708	910.994	687.835
188.256	13.779	910.172	687.445
189.271	13.845	909.370	687.054
190.286	13.861	908.280	686.235
191.300	13.683	908.160	685.348
192.315	13.524	907.393	684.053
193.329	13.549	906.362	683.316
194.344	13.682	905.862	683.426
195.359	13.874	904.974	683.487
196.373	13.856	904.801	683.224
197.388	13.753	904.174	682.265
198.402	13.918	903.166	682.120
199.417	13.808	903.139	681.590
200.432	13.917	902.844	681.751
201.446	13.964	902.623	681.718
202.461	13.989	902.088	681.359
203.475	14.144	901.187	681.251
204.490	14.079	900.326	680.276
205.504	13.984	899.504	679.204
206.519	14.181	898.647	679.301
207.534	14.121	897.993	678.503
208.548	13.975	897.406	677.405
209.563	13.989	896.592	676.786
210.577	14.016	896.164	676.512
211.592	13.995	895.595	675.939
212.607	14.181	894.971	676.165
213.621	14.224	894.361	675.818
214.636	14.214	893.725	675.235
215.650	14.128	893.141	674.387
216.665	14.154	892.683	674.088
217.680	14.136	892.364	673.713
218.694	14.245	891.875	673.724
219.709	14.186	890.942	672.722
220.723	14.224	890.008	672.111
221.738	14.415	889.233	672.238
222.753	14.148	888.949	670.888
223.767	14.276	888.425	670.948
224.782	14.405	887.249	670.520
225.796	14.379	886.151	669.524
226.811	14.304	885.751	668.865
227.826	14.351	885.335	668.679
228.840	14.434	884.653	668.436
229.855	14.276	884.144	667.362
230.869	14.279	883.267	666.650
231.884	14.313	882.496	666.148
232.899	14.273	881.935	665.503
233.913	14.328	881.034	664.986
234.928	14.239	880.794	664.390
235.942	14.329	879.994	664.087
236.957	14.302	879.043	663.203
237.972	14.216	878.786	662.608
238.986	14.173	878.184	661.922
240.001	14.390	876.999	661.832
241.015	14.404	876.375	661.360
242.030	14.490	875.780	661.192
243.045	14.405	875.316	660.448
244.059	14.435	875.081	660.333
245.074	14.392	874.379	659.572
246.088	14.339	873.858	658.913
247.103	14.336	873.291	658.413
248.117	14.515	872.872	658.746
249.132	14.678	872.044	658.706
250.147	14.777	870.870	658.150
251.161	14.643	870.377	657.193
252.176	14.678	870.098	657.061
253.190	14.803	869.305	656.896
254.205	14.959	868.419	656.782
255.220	14.903	868.034	656.214
256.234	14.816	867.527	655.430
257.249	14.781	866.707	654.614
258.263	14.973	866.276	654.985
259.278	14.847	865.964	654.198
260.293	15.021	865.158	654.212
261.307	15.074	864.336	653.736
262.322	14.945	864.517	653.312
263.336	14.999	863.104	652.397
264.351	14.933	863.038	652.032
265.366	14.989	862.191	651.555
266.380	15.037	861.435	651.112
267.395	15.063	860.584	650.513
268.409	14.973	860.315	649.901
269.424	15.051	859.420	649.471
270.439	14.956	858.862	648.623
271.453	15.156	857.631	648.410
272.468	14.998	857.302	647.493
273.482	14.991	856.867	647.081
274.497	15.169	855.865	646.953
275.512	15.122	855.435	646.390
276.526	15.146	854.812	645.953
277.541	15.072	854.112	645.084
278.555	15.176	853.627	645.060
279.570	15.300	852.743	644.812
280.585	15.243	852.148	644.084
281.599	15.330	851.994	644.245
282.614	15.288	851.508	643.660
283.628	15.171	850.491	642.388
284.643	15.327	849.832	642.431
285.657	15.329	849.356	642.021
286.672	15.182	849.274	641.341
287.687	15.118	849.237	641.010
288.701	15.368	847.746	640.781
289.716	15.262	847.823	640.381
290.730	15.332	847.001	639.967
291.745	15.314	846.293	639.307
292.760	15.492	845.733	639.505
293.774	15.334	845.414	638.608
294.789	15.511	844.464	638.506
295.803	15.410	843.812	637.573
296.818	15.386	843.151	636.926
297.833	15.338	842.699	636.345
298.847	15.427	841.862	635.994
299.862	15.279	841.512	635.115
300.876	15.515	840.493	635.181
301.891	15.330	840.104	634.133
302.906	15.472	839.661	634.277
303.920	15.581	838.688	633.897
304.935	15.643	838.048	633.593
305.949	15.664	837.365	633.098
306.964	15.574	837.116	632.517
307.979	15.616	836.511	632.161
308.993	15.710	835.873	631.976
310.008	15.642	835.210	631.164
311.022	15.924	834.485	631.616
312.037	15.730	834.125	630.560
313.052	15.524	834.033	629.663
314.066	15.676	833.541	629.808
315.081	15.505	832.795	628.546
316.095	15.624	832.138	628.441
317.110	15.717	831.404	628.178
318.125	15.801	830.630	627.851
319.139	15.780	830.193	627.389
320.154	15.817	830.054	627.366
321.168	15.672	829.493	626.346
322.183	15.761	828.766	626.072
323.197	15.799	828.063	625.626
324.212	15.883	827.528	625.477
325.227	15.771	826.895	624.530
326.241	15.799	826.559	624.325
327.256	15.845	825.968	623.991
328.270	15.729	825.568	623.206
329.285	15.759	825.522	623.227
330.300	15.790	824.244	622.321
331.314	15.818	823.312	621.668
332.329	15.841	823.032	621.484
333.343	15.881	821.938	620.751
334.358	15.765	821.945	620.274
335.373	16.013	821.221	620.586
336.387	15.779	821.210	619.663
337.402	15.938	820.343	619.538
338.416	16.094	819.560	619.465
339.431	16.030	818.968	618.727
340.446	16.071	818.470	618.447
341.460	16.083	818.069	618.131
342.475	16.177	817.414	617.926
343.489	16.255	817.042	617.876
344.504	16.165	816.481	617.070
345.519	16.269	815.931	616.978
346.533	16.133	815.545	616.134
347.548	16.293	814.840	616.131
348.562	16.322	813.983	615.537
349.577	16.183	813.785	614.824
350.592	16.076	813.639	614.272
351.606	16.152	813.028	614.031
352.621	16.242	812.452	613.869
353.635	16.146	812.432	613.452
354.650	16.300	811.112	612.957
355.665	16.265	810.936	612.646
356.679	16.284	810.588	612.396
357.694	16.313	810.123	612.096
358.708	16.301	809.422	611.469
359.723	16.370	809.113	611.430
360.738	16.379	808.313	610.806
361.752	16.349	807.769	610.232
362.767	16.331	807.600	609.984
363.781	16.341	807.251	609.702
364.796	16.601	806.676	610.153
365.810	16.479	806.127	609.243
366.825	16.568	806.073	609.470
367.840	16.492	805.592	608.778
368.854	16.538	805.323	608.687
369.869	16.450	804.776	607.902
370.883	16.622	804.007	607.888
371.898	16.565	803.597	607.317
372.913	16.645	802.782	606.934
373.927	16.621	802.645	606.694
374.942	16.609	801.970	606.086
375.956	16.673	801.004	605.531
376.971	16.623	800.439	604.872
377.986	16.668	799.991	604.639
379.000	16.872	799.328	604.812
380.015	16.756	798.979	604.081
381.029	16.905	798.651	604.310
382.044	16.877	798.159	603.785
383.059	16.895	797.375	603.202
384.073	17.045	796.778	603.232
385.088	16.967	796.224	602.480
386.102	16.909	795.962	602.024
387.117	16.709	795.691	601.057
388.132	16.755	795.039	600.672
389.146	16.693	794.784	600.207
390.161	16.763	794.351	600.077
391.175	16.855	793.937	600.037
392.190	16.887	793.350	599.653
393.205	16.866	793.383	599.551
394.219	16.834	792.839	598.973
395.234	16.978	792.115	598.881
396.248	16.695	791.785	597.581
397.263	16.854	791.011	597.502
398.278	16.857	790.582	597.138
399.292	16.953	790.239	597.165
400.307	17.002	789.917	597.039
401.321	16.844	789.514	596.125
402.336	16.977	789.235	596.329
403.350	17.052	788.383	595.897
404.365	16.994	788.371	595.630
405.380	17.012	787.959	595.330
406.394	17.103	786.968	594.848
407.409	17.186	786.507	594.736
408.423	17.107	786.408	594.334
409.438	17.190	785.876	594.168
410.453	17.179	785.710	593.951
411.467	17.139	785.398	593.523
412.482	17.180	784.596	593.010
413.496	17.272	784.159	592.945
414.511	17.318	783.841	592.816
415.526	17.278	783.562	592.413
416.540	17.173	783.134	591.670
417.555	17.316	782.738	591.817
418.569	17.402	782.041	591.536
419.584	17.391	781.726	591.206
420.599	17.283	781.517	590.622
421.613	108.913	1288.671	1467.004
422.628	93.233	1362.539	1467.100
