DTS Sentinel unit serial number:	SN413079Multiplexer serial number:	ORYXHardware model number:	OX4-SRSoftware version number:	ORYX F/W v4.00 Oryx Data Collector v3.7.2.0data status	okinstallation	princeton_trtdifferential loss correction	single-endedforward channel	channel 3reverse channel	N/Adate	2019/09/19time	13:24:34forward acquisition time	60.00reverse acquisition time	0.00gamma	496.2192k internal	0.2326k external	0.2326temperature offset calibration	1.0000default loss term (dB/km)	0.3790temperature slope calibration	1.0000multiplexer offset coefficient	1.0000multiplexer slope coefficient	1.0000fibre end	0.00T internal ref (°C)	29.78T ext. ref 1 (°C)	0.97T ext. ref 2 (°C)	27.02length (m)	temperature (°C)	Stokes	anti-Stokes-747.200	160.835	-0.228	0.321
-746.185	105.124	0.211	0.251
-745.171	-200.000	0.058	0.298
-744.156	-82.989	-0.083	-0.027
-743.142	-126.286	-0.326	-0.049
-742.127	-200.000	-0.034	0.252
-741.112	61.248	0.105	-0.105
-740.098	-132.984	-0.290	-0.037
-739.083	-34.661	0.067	-0.037
-738.069	127.596	0.154	0.197
-737.054	800.000	-0.057	0.229
-736.039	106.075	-0.265	-0.316
-735.025	-116.729	0.146	-0.027
-734.010	-200.000	0.014	0.109
-732.996	800.000	-0.069	0.291
-731.981	122.741	-0.015	-0.018
-730.966	-200.000	-0.010	-0.046
-729.952	-156.453	-0.154	0.010
-728.937	-70.959	0.065	-0.025
-727.923	-26.715	-0.087	-0.051
-726.908	-110.732	-0.390	0.081
-725.894	-200.000	0.042	0.192
-724.879	-111.282	0.055	0.011
-723.864	-98.626	-0.287	-0.074
-722.850	-124.776	0.397	-0.062
-721.835	174.569	0.149	-0.217
-720.821	372.679	0.144	-0.295
-719.806	-200.000	0.031	0.182
-718.791	350.697	-0.215	-0.428
-717.777	348.527	-0.081	0.162
-716.762	-105.866	-0.436	0.099
-715.748	-71.345	-0.215	-0.081
-714.733	800.000	-0.136	-0.471
-713.718	-200.000	0.020	0.159
-712.704	229.901	0.128	0.210
-711.689	-135.890	-0.183	-0.022
-710.675	-85.970	0.128	-0.040
-709.660	-154.144	0.163	-0.011
-708.645	-78.671	-0.063	0.022
-707.631	-24.606	-0.175	0.105
-706.616	74.635	-0.042	0.044
-705.602	-200.000	-0.030	-0.205
-704.587	28.548	-0.294	-0.251
-703.572	-166.722	0.295	-0.012
-702.558	23.450	0.233	-0.193
-701.543	325.757	-0.049	-0.095
-700.529	-30.704	0.152	-0.087
-699.514	1.049	-0.198	-0.143
-698.499	800.000	-0.041	-0.120
-697.485	-25.256	-0.376	0.224
-696.470	-111.847	-0.225	-0.046
-695.456	75.794	-0.106	-0.113
-694.441	-110.128	-0.062	-0.013
-693.426	800.000	0.049	-0.216
-692.412	122.932	0.097	-0.122
-691.397	-127.596	0.083	0.012
-690.383	-45.892	-0.505	-0.251
-689.368	-94.244	-0.315	0.087
-688.354	-22.074	0.162	-0.099
-687.339	-200.000	0.001	-0.406
-686.324	230.831	0.115	-0.190
-685.310	13.224	-0.165	-0.129
-684.295	-7.958	0.198	0.134
-683.281	-156.711	-0.298	-0.019
-682.266	-101.838	-0.033	0.008
-681.251	-200.000	-0.023	-0.154
-680.237	-34.422	0.137	-0.075
-679.222	27.998	0.313	-0.266
-678.208	800.000	-0.011	-0.044
-677.193	800.000	0.100	0.298
-676.178	-200.000	0.007	-0.192
-675.164	-94.528	0.155	0.042
-674.149	-7.224	0.015	0.010
-673.135	198.272	-0.129	0.198
-672.120	-200.000	-0.001	0.012
-671.105	-85.407	-0.178	0.056
-670.091	127.085	0.098	-0.125
-669.076	471.079	0.093	0.211
-668.062	59.230	-0.063	0.062
-667.047	-135.737	-0.229	-0.027
-666.032	253.296	-0.082	0.140
-665.018	-66.078	-0.272	-0.109
-664.003	672.742	-0.059	0.153
-662.989	-32.608	-0.267	0.150
-661.974	21.289	0.150	-0.123
-660.959	-200.000	0.039	-0.321
-659.945	55.070	0.122	-0.118
-658.930	-67.696	0.075	-0.030
-657.916	-52.727	0.467	-0.216
-656.901	-200.000	-0.021	0.208
-655.886	800.000	0.053	-0.164
-654.872	-34.957	-0.205	0.112
-653.857	415.372	0.046	-0.099
-652.843	-9.239	-0.191	0.128
-651.828	315.492	-0.087	-0.166
-650.814	-200.000	0.030	0.240
-649.799	-27.004	0.289	-0.170
-648.784	-133.494	0.082	-0.010
-647.770	-200.000	0.022	-0.327
-646.755	45.424	0.122	-0.113
-645.741	800.000	-0.051	-0.195
-644.726	-124.602	-0.223	0.035
-643.711	-183.191	-0.322	0.006
-642.697	-200.000	0.003	-0.097
-641.682	120.908	-0.085	0.106
-640.668	105.342	-0.114	-0.135
-639.653	-104.827	-0.240	-0.055
-638.638	-142.287	0.463	-0.046
-637.624	121.886	-0.054	0.067
-636.609	91.851	-0.061	0.068
-635.595	249.191	0.060	-0.102
-634.580	-87.005	0.244	0.075
-633.565	-104.690	-0.072	-0.017
-632.551	167.746	-0.253	-0.361
-631.536	198.153	0.085	-0.131
-630.522	363.980	0.036	0.072
-629.507	-200.000	0.003	-0.342
-628.492	180.078	0.084	0.124
-627.478	115.027	0.143	-0.175
-626.463	-140.076	-0.226	-0.024
-625.449	-32.628	-0.094	-0.052
-624.434	-10.558	0.340	-0.226
-623.419	-97.733	0.303	0.079
-622.405	800.000	-0.102	0.305
-621.390	564.333	-0.112	0.273
-620.376	-25.804	-0.057	-0.034
-619.361	-200.000	-0.039	0.196
-618.346	300.996	0.114	0.212
-617.332	311.886	-0.112	-0.211
-616.317	171.676	0.104	-0.150
-615.303	-46.229	-0.216	-0.107
-614.288	80.090	0.172	0.185
-613.273	25.431	0.222	0.185
-612.259	-200.000	-0.027	-0.347
-611.244	-126.174	-0.164	-0.025
-610.230	-135.468	0.276	-0.033
-609.215	-179.029	-0.108	0.002
-608.201	-200.000	0.043	-0.246
-607.186	800.000	0.047	-0.139
-606.171	49.934	-0.121	0.114
-605.157	4.751	0.235	-0.173
-604.142	9.760	0.092	0.070
-603.128	168.310	0.143	-0.204
-602.113	-127.071	-0.192	-0.028
-601.098	-200.000	0.023	-0.193
-600.084	-177.969	-0.228	-0.005
-599.069	-55.685	0.023	-0.010
-598.055	-107.013	0.195	0.043
-597.040	-80.227	0.189	-0.063
-596.025	800.000	0.083	0.252
-595.011	-200.000	0.055	0.564
-593.996	800.000	0.024	-0.069
-592.982	-116.770	-0.114	-0.021
-591.967	800.000	-0.015	-0.052
-590.952	-200.000	-0.034	0.556
-589.938	-182.995	0.214	-0.004
-588.923	-109.109	0.080	0.017
-587.909	229.243	0.160	0.261
-586.894	-187.071	0.265	-0.004
-585.879	800.000	-0.114	0.399
-584.865	-83.934	0.310	-0.099
-583.850	-200.000	-0.033	0.152
-582.836	-190.272	-0.262	0.003
-581.821	188.784	-0.248	0.372
-580.806	6.977	0.330	-0.246
-579.792	265.531	-0.038	0.066
-578.777	-68.422	0.170	-0.066
-577.763	18.730	-0.225	-0.180
-576.748	-200.000	0.054	-0.309
-575.733	-77.727	-0.231	0.080
-574.719	664.203	-0.032	0.082
-573.704	-10.777	0.090	0.060
-572.690	-131.073	-0.222	0.030
-571.675	43.267	0.159	0.146
-570.661	-65.101	-0.285	-0.115
-569.646	175.540	-0.112	0.162
-568.631	-106.249	-0.252	-0.056
-567.617	-200.000	-0.040	0.281
-566.602	355.770	0.114	-0.227
-565.588	55.204	0.045	0.043
-564.573	-135.784	0.205	0.024
-563.558	-35.447	0.321	0.175
-562.544	202.747	-0.154	0.239
-561.529	274.884	-0.291	-0.516
-560.515	21.797	-0.263	0.214
-559.500	800.000	-0.078	-0.289
-558.485	457.492	-0.060	-0.134
-557.471	81.601	-0.166	-0.179
-556.456	-200.000	0.017	-0.132
-555.442	-12.583	0.209	-0.137
-554.427	171.098	-0.141	-0.202
-553.412	-166.006	-0.435	0.019
-552.398	87.666	-0.031	-0.035
-551.383	800.000	-0.048	0.195
-550.369	-200.000	-0.034	-0.265
-549.354	98.437	-0.070	0.080
-548.339	-200.000	0.085	-0.492
-547.325	45.303	-0.118	-0.109
-546.310	42.126	-0.130	-0.118
-545.296	782.540	-0.068	0.187
-544.281	65.265	0.180	-0.182
-543.266	-108.093	-0.118	-0.025
-542.252	23.872	0.032	-0.026
-541.237	574.879	-0.180	0.440
-540.223	800.000	0.046	0.162
-539.208	0.123	0.033	0.023
-538.193	-25.250	-0.293	-0.174
-537.179	4.930	0.281	-0.207
-536.164	42.689	-0.158	0.144
-535.150	27.299	-0.072	0.060
-534.135	360.404	-0.194	-0.389
-533.121	192.106	0.089	0.134
-532.106	-90.731	-0.174	0.050
-531.091	-97.973	0.265	-0.068
-530.077	123.242	0.106	-0.132
-529.062	-107.646	-0.378	0.083
-528.048	81.260	-0.173	0.187
-527.033	-44.226	0.238	0.119
-526.018	693.447	0.065	0.171
-525.004	-11.381	-0.091	0.060
-523.989	-200.000	0.019	0.252
-522.975	-155.035	-0.235	-0.015
-521.960	234.763	0.167	-0.275
-520.945	17.851	0.128	-0.102
-519.931	291.401	-0.105	-0.190
-518.916	13.294	0.302	-0.234
-517.902	-26.729	-0.089	0.052
-516.887	207.626	0.157	-0.245
-515.872	-194.828	-0.240	-0.002
-514.858	-101.752	0.443	0.107
-513.843	-92.604	0.094	-0.026
-512.829	-200.000	-0.027	0.345
-511.814	-87.119	-0.250	-0.076
-510.799	800.000	-0.007	-0.025
-509.785	135.160	0.128	0.167
-508.770	69.753	0.170	0.176
-507.756	-200.000	0.024	-0.155
-506.741	-119.022	-0.412	-0.072
-505.726	150.890	0.119	0.161
-504.712	-200.000	-0.062	0.511
-503.697	-65.641	-0.131	-0.052
-502.683	32.914	0.053	-0.046
-501.668	-130.375	0.055	-0.008
-500.653	-34.677	-0.140	0.076
-499.639	207.442	-0.052	0.081
-498.624	-200.000	-0.016	-0.088
-497.610	-21.423	0.068	-0.042
-496.595	-123.523	-0.213	0.034
-495.581	354.175	0.103	0.204
-494.566	-92.981	0.101	-0.028
-493.551	-200.000	-0.072	-0.527
-492.537	-200.000	-0.002	0.100
-491.522	-200.000	-0.011	0.272
-490.508	-22.485	0.101	0.061
-489.493	800.000	0.083	-0.274
-488.478	-200.000	0.028	-0.158
-487.464	-200.000	-0.033	0.168
-486.449	-200.000	0.008	-0.116
-485.435	67.917	-0.210	0.215
-484.420	-109.272	-0.335	-0.071
-483.405	-39.236	-0.081	-0.042
-482.391	447.478	-0.055	0.121
-481.376	-200.000	0.007	0.103
-480.362	31.601	-0.041	0.035
-479.347	-160.544	0.235	0.013
-478.332	-200.000	-0.022	0.242
-477.318	-116.209	-0.200	-0.037
-476.303	555.974	-0.035	-0.084
-475.289	-46.449	0.111	-0.055
-474.274	711.369	0.060	0.159
-473.259	-16.849	-0.421	-0.265
-472.245	800.000	0.086	-0.347
-471.230	800.000	0.081	0.271
-470.216	395.131	-0.041	-0.086
-469.201	148.378	0.042	-0.056
-468.186	286.419	0.065	-0.116
-467.172	-6.661	0.268	-0.182
-466.157	-200.000	0.013	-0.197
-465.143	-36.304	0.211	-0.114
-464.128	-123.485	0.143	-0.023
-463.113	-59.491	-0.279	-0.120
-462.099	-200.000	0.035	-0.231
-461.084	29.297	-0.087	0.073
-460.070	-200.000	-0.003	-0.023
-459.055	-200.000	0.010	0.136
-458.040	-54.515	0.287	-0.129
-457.026	-62.282	-0.179	0.075
-456.011	723.121	-0.089	-0.237
-454.997	-33.439	0.170	0.094
-453.982	-103.855	0.259	-0.060
-452.968	-200.000	0.021	-0.241
-451.953	-33.834	0.285	0.157
-450.938	-60.566	-0.261	-0.111
-449.924	-54.102	-0.284	0.129
-448.909	-193.799	0.096	0.001
-447.895	-200.000	0.009	-0.244
-446.880	-200.000	0.035	0.288
-445.865	-6.745	-0.053	0.036
-444.851	800.000	0.073	0.232
-443.836	-147.658	0.244	-0.020
-442.822	-33.164	-0.375	-0.207
-441.807	800.000	0.053	-0.149
-440.792	-109.097	0.355	-0.075
-439.778	800.000	0.085	0.240
-438.763	347.407	-0.083	0.163
-437.749	-200.000	-0.332	0.000
-436.734	-200.000	0.083	0.378
-435.719	713.506	0.074	0.196
-434.705	3.215	0.069	0.050
-433.690	-132.990	0.286	0.036
-432.676	-200.000	0.062	-0.343
-431.661	800.000	0.048	0.194
-430.646	217.901	-0.166	0.264
-429.632	-131.327	-0.196	0.026
-428.617	224.825	0.022	-0.036
-427.603	-15.236	-0.217	-0.138
-426.588	-58.003	-0.093	0.040
-425.573	-117.963	0.153	-0.027
-424.559	226.122	0.162	0.262
-423.544	417.244	-0.134	-0.285
-422.530	7.774	0.155	0.116
-421.515	800.000	0.021	-0.076
-420.500	62.945	0.130	0.129
-419.486	86.490	-0.327	-0.359
-418.471	-112.035	0.280	0.056
-417.457	-144.411	0.217	0.020
-416.442	-200.000	0.066	0.420
-415.428	426.186	0.043	-0.092
-414.413	-200.000	0.043	-0.252
-413.398	-192.898	0.508	-0.005
-412.384	60.379	0.039	0.038
-411.369	222.053	0.090	-0.143
-410.355	800.000	0.081	-0.257
-409.340	-72.570	-0.076	0.028
-408.325	29.715	0.124	-0.105
-407.311	57.033	0.204	-0.198
-406.296	-96.439	-0.227	-0.060
-405.282	-0.040	0.165	0.117
-404.267	135.945	0.078	-0.101
-403.252	209.575	-0.149	-0.233
-402.238	-69.291	0.227	-0.087
-401.223	-73.555	0.318	-0.115
-400.209	-200.000	0.021	-0.260
-399.194	800.000	0.096	-0.267
-398.179	19.855	-0.068	0.055
-397.165	711.958	0.112	0.295
-396.150	-14.980	0.158	0.101
-395.136	8.011	-0.228	-0.170
-394.121	463.163	0.070	-0.155
-393.106	461.280	-0.079	-0.176
-392.092	-164.213	-0.086	-0.004
-391.077	-96.123	-0.179	0.047
-390.063	216.100	-0.196	0.310
-389.048	160.466	-0.110	-0.153
-388.033	-8.438	-0.292	0.195
-387.019	-200.000	-0.010	0.065
-386.004	-72.231	0.269	0.099
-384.990	-52.575	-0.050	-0.023
-383.975	-131.617	0.081	0.011
-382.960	-10.764	-0.233	0.153
-381.946	-9.632	-0.201	0.133
-380.931	-147.822	0.214	-0.018
-379.917	-90.868	0.300	-0.086
-378.902	800.000	-0.091	0.340
-377.888	161.049	-0.208	0.289
-376.873	30.228	0.377	0.320
-375.858	100.429	0.182	0.210
-374.844	-38.270	-0.048	0.025
-373.829	89.530	-0.184	-0.204
-372.815	9.582	-0.258	0.194
-371.800	491.244	-0.063	0.142
-370.785	-200.000	0.004	-0.110
-369.771	-9.656	0.296	0.196
-368.756	-52.173	-0.187	-0.086
-367.742	-200.000	0.025	0.117
-366.727	-159.980	0.060	-0.003
-365.712	68.616	-0.260	0.265
-364.698	-102.561	-0.252	0.060
-363.683	800.000	-0.036	0.155
-362.669	800.000	0.059	-0.217
-361.654	-4.244	0.110	0.076
-360.639	-200.000	-0.025	-0.295
-359.625	387.434	0.088	0.181
-358.610	-56.184	0.123	-0.054
-357.596	-15.843	0.647	-0.409
-356.581	-200.000	-0.049	0.215
-355.566	66.454	0.033	0.034
-354.552	71.680	-0.338	0.349
-353.537	-65.212	-0.141	0.056
-352.523	-77.901	0.184	0.063
-351.508	272.533	0.117	-0.205
-350.493	-124.096	0.259	-0.040
-349.479	-200.000	0.003	-0.364
-348.464	486.912	-0.099	0.223
-347.450	800.000	-0.087	-0.292
-346.435	219.956	0.195	0.310
-345.420	-200.000	-0.001	-0.026
-344.406	1.122	0.120	-0.085
-343.391	-141.801	0.402	0.040
-342.377	800.000	0.091	0.271
-341.362	-130.458	-0.260	-0.035
-340.348	213.129	0.113	-0.177
-339.333	-200.000	0.007	0.257
-338.318	-145.151	-0.269	0.024
-337.304	-200.000	-0.024	0.216
-336.289	-182.008	-0.278	0.005
-335.275	-149.323	0.130	0.010
-334.260	800.000	-0.099	-0.377
-333.245	231.539	-0.120	-0.194
-332.231	-158.316	0.021	0.001
-331.216	800.000	-0.065	0.186
-330.202	800.000	-0.015	0.043
-329.187	-200.000	0.019	-0.159
-328.172	160.258	0.183	0.253
-327.158	37.883	-0.293	0.258
-326.143	69.210	-0.137	-0.139
-325.129	542.784	0.092	0.218
-324.114	-200.000	0.020	-0.367
-323.099	-132.261	0.034	0.004
-322.085	800.000	-0.042	0.135
-321.070	-39.652	-0.087	0.045
-320.056	-38.300	0.046	-0.024
-319.041	-200.000	-0.021	-0.163
-318.026	-200.000	-0.016	0.088
-317.012	63.261	0.419	-0.416
-315.997	6.214	0.022	0.016
-314.983	643.521	0.086	0.218
-313.968	-74.583	-0.258	-0.092
-312.953	421.705	-0.091	0.194
-311.939	800.000	-0.052	0.197
-310.924	-102.791	0.401	0.095
-309.910	30.116	0.087	0.074
-308.895	-5.520	-0.033	0.022
-307.880	-200.000	0.035	0.381
-306.866	73.922	0.176	0.183
-305.851	6.495	-0.269	0.198
-304.837	44.977	-0.137	0.125
-303.822	-159.883	-0.434	-0.024
-302.807	345.694	0.105	-0.205
-301.793	83.663	0.061	-0.065
-300.778	-134.360	-0.352	0.043
-299.764	800.000	0.063	0.246
-298.749	-200.000	-0.072	0.486
-297.735	125.420	-0.131	0.164
-296.720	18.541	0.168	0.133
-295.705	246.292	-0.023	0.038
-294.691	-114.939	0.326	-0.062
-293.676	-66.529	0.156	0.061
-292.662	-48.915	0.278	0.132
-291.647	-200.000	0.017	-0.089
-290.632	-200.000	0.018	0.146
-289.618	740.384	0.101	-0.269
-288.603	32.644	-0.129	0.110
-287.589	-115.446	0.404	-0.075
-286.574	-84.889	0.297	0.092
-285.559	-200.000	0.021	0.233
-284.545	78.099	0.147	-0.156
-283.530	-55.545	-0.134	0.060
-282.516	76.338	-0.132	0.139
-281.501	66.805	-0.159	-0.160
-280.486	-178.488	-0.339	0.008
-279.472	61.722	0.105	-0.104
-278.457	214.419	-0.250	-0.391
-277.443	2.021	0.138	0.098
-276.428	579.686	0.112	0.271
-275.413	800.000	-0.093	-0.313
-274.399	-126.325	-0.187	-0.028
-273.384	-200.000	0.028	0.164
-272.370	-112.283	-0.180	0.036
-271.355	-200.000	-0.028	0.196
-270.340	-7.975	-0.170	-0.114
-269.326	-200.000	-0.003	-0.141
-268.311	49.105	0.150	0.140
-267.297	104.112	-0.074	0.086
-266.282	611.579	-0.040	0.100
-265.267	-117.365	0.154	-0.028
-264.253	472.681	0.083	-0.186
-263.238	24.447	-0.175	0.143
-262.224	-200.000	0.021	0.255
-261.209	-35.987	0.131	-0.070
-260.195	-27.079	0.088	-0.051
-259.180	-144.264	0.172	-0.016
-258.165	-200.000	-0.039	-0.177
-257.151	-167.366	-0.141	-0.006
-256.136	-200.000	0.018	-0.098
-255.122	-2.256	-0.043	-0.030
-254.107	69.943	0.138	0.141
-253.092	-200.000	-0.004	0.162
-252.078	-102.584	0.327	-0.077
-251.063	94.609	-0.090	-0.101
-250.049	-65.820	-0.271	-0.107
-249.034	-40.268	-0.053	-0.027
-248.019	-200.000	-0.049	-0.394
-247.005	-3.446	-0.240	-0.165
-245.990	-6.242	-0.200	-0.135
-244.976	-190.068	0.150	0.002
-243.961	128.883	0.036	-0.045
-242.946	231.601	-0.118	0.191
-241.932	182.627	0.062	-0.091
-240.917	292.276	-0.169	-0.305
-239.903	-142.995	-0.398	-0.038
-238.888	-80.021	0.165	0.055
-237.873	298.235	-0.027	0.049
-236.859	-59.804	0.358	-0.151
-235.844	-46.358	-0.093	0.045
-234.830	244.803	-0.103	0.171
-233.815	-82.787	0.160	-0.051
-232.800	-61.461	0.056	-0.023
-231.786	134.771	0.128	0.164
-230.771	-89.183	0.347	-0.101
-229.757	-59.129	0.061	0.026
-228.742	-200.000	0.027	-0.559
-227.727	13.374	-0.208	-0.160
-226.713	110.446	0.115	0.137
-225.698	-91.194	-0.290	-0.082
-224.684	-137.157	0.133	-0.015
-223.669	-200.000	0.017	0.174
-222.655	76.068	-0.091	0.096
-221.640	-61.999	-0.168	0.070
-220.625	-49.584	-0.379	-0.178
-219.611	-97.087	-0.238	0.061
-218.596	46.425	-0.127	0.117
-217.582	800.000	0.050	0.139
-216.567	-188.759	-0.174	0.002
-215.552	292.565	0.135	0.244
-214.538	133.614	-0.250	-0.319
-213.523	352.952	-0.184	-0.361
-212.509	-200.000	-0.097	-0.485
-211.494	-97.773	-0.360	-0.092
-210.479	-200.000	-0.018	-0.257
-209.465	800.000	-0.080	-0.320
-208.450	-109.352	-0.359	-0.075
-207.436	303.232	0.046	0.084
-206.421	281.880	0.063	0.111
-205.406	102.269	0.244	0.282
-204.392	224.406	-0.102	-0.162
-203.377	95.270	0.152	-0.171
-202.363	84.481	-0.081	0.088
-201.348	163.726	-0.127	-0.176
-200.333	-170.153	0.060	0.002
-199.319	-78.789	-0.260	0.087
-198.304	-200.000	0.004	0.102
-197.290	800.000	-0.088	-0.355
-196.275	-83.072	0.075	-0.024
-195.260	800.000	-0.038	-0.133
-194.246	152.822	-0.141	-0.190
-193.231	196.987	0.239	0.360
-192.217	-149.749	0.199	-0.015
-191.202	-121.884	0.200	0.033
-190.187	-42.624	-0.163	0.082
-189.173	-200.000	-0.027	0.145
-188.158	-200.000	-0.044	-0.244
-187.144	-200.000	-0.017	0.114
-186.129	-115.370	0.171	0.032
-185.114	-15.098	0.064	0.041
-184.100	-200.000	0.062	-0.309
-183.085	-142.227	-0.242	0.024
-182.071	-15.833	-0.537	-0.338
-181.056	84.444	0.098	0.106
-180.042	-200.000	-0.033	0.375
-179.027	-200.000	0.012	0.098
-178.012	261.907	0.213	0.364
-176.998	571.642	0.052	-0.124
-175.983	68.193	-0.225	0.227
-174.969	-200.000	0.062	-0.341
-173.954	-24.053	0.279	-0.165
-172.939	-64.196	-0.340	0.137
-171.925	588.966	0.108	0.261
-170.910	232.190	0.068	-0.111
-169.896	-200.000	0.004	-0.108
-168.881	-81.467	-0.131	0.042
-167.866	-200.000	0.037	0.363
-166.852	127.884	-0.134	0.168
-165.837	-121.988	0.260	-0.042
-164.823	-200.000	-0.021	0.312
-163.808	189.328	0.162	-0.239
-162.793	800.000	-0.012	0.048
-161.779	43.816	0.310	0.280
-160.764	-200.000	0.001	0.087
-159.750	-26.992	-0.302	0.174
-158.735	291.748	0.084	-0.151
-157.720	-175.885	0.467	-0.012
-156.706	-200.000	0.004	0.167
-155.691	-116.227	-0.135	0.025
-154.677	-76.969	0.329	0.113
-153.662	-44.780	-0.295	-0.145
-152.647	-138.567	0.311	-0.034
-151.633	-113.366	0.098	-0.019
-150.618	800.000	0.041	-0.153
-149.604	-200.000	-0.031	0.193
-148.589	13.578	0.311	-0.238
-147.574	124.557	0.163	-0.202
-146.560	-166.744	-0.060	-0.002
-145.545	-16.032	0.222	-0.139
-144.531	83.938	0.057	0.062
-143.516	63.623	-0.232	-0.230
-142.502	-200.000	-0.011	-0.259
-141.487	23.376	-0.199	0.161
-140.472	-80.837	0.208	0.068
-139.458	787.908	0.157	0.423
-138.443	196.149	-0.065	-0.098
-137.429	94.315	-0.136	0.152
-136.414	179.498	0.111	0.159
-135.399	-3.024	-0.209	0.144
-134.385	52.142	0.053	0.049
-133.370	-4.560	0.262	0.178
-132.356	800.000	0.065	0.183
-131.341	7.570	-0.232	-0.171
-130.326	10.675	0.102	-0.076
-129.312	274.862	0.186	-0.324
-128.297	-200.000	-0.005	0.104
-127.283	-27.248	-0.196	0.113
-126.268	800.000	-0.065	0.190
-125.253	-49.147	-0.204	-0.096
-124.239	-109.728	0.147	0.030
-123.224	612.119	0.058	0.143
-122.210	-67.816	-0.199	0.076
-121.195	-200.000	0.138	-0.000
-120.180	800.000	0.083	-0.338
-119.166	800.000	-0.055	0.213
-118.151	-200.000	0.032	-0.247
-117.137	-141.153	0.362	0.036
-116.122	-102.281	0.240	-0.057
-115.107	123.728	0.187	-0.231
-114.093	39.499	0.049	0.043
-113.078	-1.510	0.144	-0.100
-112.064	-155.353	0.241	-0.015
-111.049	319.408	-0.177	0.330
-110.034	218.666	0.161	-0.253
-109.020	26.372	-0.131	-0.108
-108.005	-60.335	0.277	0.116
-106.991	-139.068	-0.216	-0.023
-105.976	-79.388	0.157	-0.052
-104.962	547.411	0.096	-0.225
-103.947	800.000	-0.025	-0.082
-102.932	-17.623	0.169	0.104
-101.918	-83.387	-0.075	0.024
-100.903	270.963	0.124	0.215
-99.889	-186.127	0.159	0.002
-98.874	-123.513	0.258	0.040
-97.859	-46.474	0.146	-0.070
-96.845	-200.000	0.002	0.079
-95.830	192.741	-0.069	-0.102
-94.816	436.035	0.115	0.247
-93.801	9.936	-0.335	-0.250
-92.786	60.963	0.143	0.139
-91.772	-54.267	0.310	0.138
-90.757	-28.732	-0.205	-0.116
-89.743	247.305	-0.177	0.293
-88.728	800.000	0.021	0.058
-87.713	-106.523	0.198	0.043
-86.699	297.617	0.089	0.160
-85.684	46.123	-0.420	0.382
-84.670	-200.000	0.054	0.431
-83.655	-200.000	0.077	0.348
-82.640	281.505	-0.063	-0.112
-81.626	-117.807	-0.136	0.024
-80.611	184.596	-0.034	-0.049
-79.597	45.969	0.191	0.174
-78.582	-103.618	-0.057	-0.013
-77.567	-145.206	0.664	-0.059
-76.553	-200.000	-0.030	-0.167
-75.538	-66.994	-0.377	-0.146
-74.524	-73.815	0.074	0.027
-73.509	-200.000	0.013	-0.211
-72.494	794.583	-0.033	-0.089
-71.480	-146.519	-0.179	0.015
-70.465	164.598	-0.171	0.237
-69.451	63.602	0.314	-0.310
-68.436	-200.000	0.020	-0.104
-67.422	9.847	-0.076	-0.056
-66.407	-200.000	0.032	0.303
-65.392	78.755	0.227	0.239
-64.378	-200.000	-0.012	0.412
-63.363	519.273	-0.088	-0.203
-62.349	-200.000	-0.014	0.262
-61.334	199.316	-0.754	-1.135
-60.319	-95.766	0.313	-0.082
-59.305	800.000	-0.257	-0.870
-58.290	266.361	0.690	1.183
-57.276	-200.000	0.377	1.638
-56.261	-200.000	102.122	572.884
-55.246	442.661	1471.906	3165.064
-54.232	143.498	2690.440	3516.714
-53.217	104.878	2222.437	2572.080
-52.203	40.484	1738.014	1536.193
-51.188	32.861	1544.735	1312.541
-50.173	30.582	1517.196	1273.497
-49.159	50.543	1569.978	1457.426
-48.144	51.137	1587.955	1478.202
-47.130	33.165	1545.086	1314.744
-46.115	30.087	1529.745	1280.404
-45.100	29.925	1526.557	1276.567
-44.086	29.896	1524.405	1274.523
-43.071	29.863	1522.346	1272.524
-42.057	29.724	1521.144	1270.511
-41.042	29.749	1519.580	1269.326
-40.027	29.739	1517.767	1267.696
-39.013	29.781	1516.196	1266.620
-37.998	29.761	1514.695	1265.178
-36.984	29.726	1513.716	1264.068
-35.969	29.823	1512.085	1263.322
-34.954	29.633	1511.018	1261.082
-33.940	29.706	1509.675	1260.410
-32.925	29.709	1508.337	1259.265
-31.911	29.822	1506.709	1258.619
-30.896	29.860	1505.536	1257.854
-29.881	29.921	1503.828	1256.788
-28.867	29.886	1502.801	1255.642
-27.852	29.718	1502.164	1253.925
-26.838	29.884	1500.225	1253.374
-25.823	29.928	1498.308	1252.024
-24.809	29.873	1496.664	1250.230
-23.794	29.773	1495.904	1248.867
-22.779	29.727	1494.780	1247.568
-21.765	29.832	1493.197	1246.904
-20.750	29.989	1491.833	1246.776
-19.736	29.857	1490.734	1244.920
-18.721	29.788	1489.734	1243.574
-17.706	29.715	1488.964	1242.389
-16.692	29.712	1487.723	1241.284
-15.677	29.793	1485.949	1240.300
-14.663	29.783	1485.551	1239.850
-13.648	29.802	1483.802	1238.468
-12.633	29.773	1483.539	1238.002
-11.619	29.747	1483.051	1237.376
-10.604	29.805	1481.548	1236.456
-9.590	29.771	1480.339	1235.176
-8.575	29.805	1480.204	1235.240
-7.560	29.730	1478.888	1233.589
-6.546	29.705	1478.055	1232.682
-5.531	29.657	1477.181	1231.582
-4.517	29.586	1476.879	1230.812
-3.502	29.713	1475.149	1230.163
-2.487	29.843	1473.516	1229.615
-1.473	29.721	1472.787	1228.147
-0.458	29.675	1471.891	1227.050
0.556	29.369	1462.351	1218.948
1.571	26.745	1437.102	1180.725
2.586	23.415	1373.120	1107.296
3.600	21.178	1287.936	1025.385
4.615	19.252	1240.953	976.986
5.629	16.252	1183.604	915.505
6.644	8.479	1097.996	809.959
7.659	2.218	1057.460	749.358
8.673	1.003	1052.710	739.996
9.688	0.993	1049.096	737.340
10.702	0.934	1047.647	735.966
11.717	0.940	1045.690	734.557
12.731	3.180	1047.633	746.735
13.746	10.634	1057.474	790.086
14.761	16.396	1064.373	823.325
15.775	17.469	1065.794	829.584
16.790	17.132	1064.250	826.667
17.804	16.091	1061.977	819.770
18.819	15.358	1060.260	814.816
19.834	14.817	1058.468	810.743
20.848	14.566	1057.487	808.702
21.863	14.282	1056.853	806.771
22.877	13.980	1056.280	804.797
23.892	13.950	1054.873	803.512
24.907	13.694	1054.295	801.758
25.921	13.734	1053.473	801.259
26.936	13.692	1053.135	800.727
27.950	13.730	1052.698	800.505
28.965	13.888	1051.483	800.274
29.980	13.807	1051.207	799.601
30.994	13.898	1049.691	798.815
32.009	13.906	1049.256	798.454
33.023	13.878	1048.518	797.685
34.038	13.863	1047.728	796.942
35.053	13.971	1046.302	796.308
36.067	13.733	1046.034	794.890
37.082	13.779	1045.164	794.378
38.096	13.934	1044.242	794.351
39.111	13.849	1043.232	793.106
40.126	13.880	1042.447	792.587
41.140	13.883	1041.365	791.707
42.155	13.796	1040.378	790.473
43.169	13.687	1039.783	789.434
44.184	13.675	1038.476	788.314
45.199	13.798	1037.412	788.018
46.213	13.659	1036.704	786.754
47.228	13.717	1035.611	786.128
48.242	13.768	1034.389	785.372
49.257	13.916	1033.000	784.949
50.271	13.888	1031.997	783.986
51.286	13.862	1031.257	783.232
52.301	13.772	1030.510	782.168
53.315	13.900	1029.563	781.982
54.330	14.024	1028.579	781.752
55.344	13.808	1027.862	780.121
56.359	13.698	1027.321	779.127
57.374	13.809	1025.795	778.418
58.388	13.783	1025.128	777.722
59.403	13.724	1024.514	776.911
60.417	13.725	1023.534	776.106
61.432	13.687	1022.840	775.333
62.447	13.714	1022.206	774.909
63.461	13.759	1021.153	774.253
64.476	13.699	1020.436	773.362
65.490	13.655	1019.621	772.470
66.505	13.661	1018.842	771.840
67.520	13.752	1018.183	771.693
68.534	13.677	1017.664	770.884
69.549	13.850	1016.246	770.546
70.563	13.846	1015.708	770.051
71.578	13.745	1015.229	769.152
72.593	13.817	1014.173	768.616
73.607	13.694	1013.109	767.174
74.622	13.762	1012.133	766.680
75.636	13.625	1011.711	765.660
76.651	13.588	1010.731	764.679
77.666	13.574	1010.358	764.265
78.680	13.593	1009.296	763.482
79.695	13.743	1008.386	763.415
80.709	13.688	1007.819	762.668
81.724	13.659	1007.106	761.928
82.739	13.710	1006.608	761.714
83.753	13.785	1005.729	761.328
84.768	13.885	1004.813	761.024
85.782	13.841	1004.149	760.251
86.797	13.767	1003.745	759.543
87.812	13.970	1002.369	759.362
88.826	13.731	1002.238	758.105
89.841	13.879	1000.441	757.351
90.855	13.844	999.828	756.662
91.870	13.937	999.037	756.418
92.884	13.894	998.338	755.626
93.899	13.936	997.870	755.394
94.914	13.913	997.075	754.622
95.928	13.939	996.390	754.154
96.943	13.987	995.476	753.617
97.957	14.037	994.927	753.360
98.972	13.802	994.372	751.810
99.987	13.968	993.432	751.781
101.001	13.831	992.925	750.710
102.016	13.916	991.892	750.251
103.030	13.913	991.036	749.521
104.045	13.969	989.752	748.737
105.060	13.837	989.345	747.770
106.074	13.944	988.237	747.346
107.089	13.806	987.535	746.131
108.103	13.718	986.995	745.260
109.118	13.738	985.637	744.258
110.133	13.821	984.910	744.016
111.147	13.779	984.152	743.190
112.162	13.886	983.210	742.889
113.176	13.691	982.781	741.630
114.191	13.900	981.303	741.381
115.206	13.847	980.518	740.483
116.220	13.820	979.719	739.695
117.235	13.878	978.843	739.227
118.249	13.832	978.159	738.442
119.264	13.734	977.307	737.298
120.279	13.817	975.908	736.543
121.293	13.832	975.309	736.092
122.308	13.745	974.855	735.299
123.322	13.764	973.819	734.540
124.337	13.870	972.622	734.038
125.352	13.860	971.663	733.206
126.366	13.762	970.415	731.768
127.381	13.896	969.188	731.369
128.395	13.850	968.321	730.446
129.410	13.896	967.029	729.609
130.424	13.836	966.394	728.801
131.439	13.908	965.710	728.537
132.454	13.861	964.859	727.624
133.468	13.936	963.974	727.222
134.483	13.996	963.028	726.706
135.497	14.013	962.380	726.228
136.512	13.912	961.800	725.282
137.527	13.802	961.059	724.180
138.541	13.858	960.433	723.888
139.556	13.847	959.890	723.369
140.570	13.841	958.647	722.343
141.585	13.842	958.038	721.825
142.600	13.900	957.744	721.791
143.614	14.023	956.777	721.529
144.629	13.933	955.865	720.388
145.643	13.889	954.977	719.466
146.658	13.967	953.687	718.766
147.673	14.048	953.123	718.628
148.687	14.010	952.138	717.657
149.702	13.979	951.397	716.903
150.716	13.927	950.419	715.880
151.731	13.931	949.703	715.292
152.746	13.813	949.171	714.321
153.760	14.019	948.445	714.599
154.775	14.187	947.211	714.328
155.789	13.943	946.748	712.865
156.804	14.110	945.998	712.954
157.819	14.021	945.119	711.850
158.833	14.099	944.597	711.725
159.848	14.060	943.905	710.973
160.862	14.171	943.250	710.892
161.877	14.155	942.432	710.144
162.892	14.050	941.989	709.300
163.906	13.977	941.077	708.237
164.921	13.982	940.394	707.684
165.935	14.092	939.151	707.154
166.950	14.170	938.099	706.632
167.964	14.054	937.550	705.663
168.979	14.141	936.401	705.103
169.994	14.241	934.923	704.351
171.008	14.077	934.693	703.423
172.023	14.105	934.000	702.955
173.037	14.221	933.057	702.674
174.052	14.233	932.352	702.132
175.067	14.183	931.679	701.351
176.081	14.241	930.633	700.745
177.096	14.213	929.725	699.885
178.110	14.152	929.257	699.214
179.125	14.214	928.571	698.896
180.140	14.241	927.751	698.329
181.154	14.198	927.236	697.703
182.169	14.158	926.950	697.255
183.183	14.346	926.017	697.279
184.198	14.437	925.419	697.148
185.213	14.300	924.852	696.088
186.227	14.325	924.074	695.543
187.242	14.228	923.769	694.846
188.256	14.429	922.975	695.028
189.271	14.379	921.978	694.005
190.286	14.479	921.321	693.865
191.300	14.325	920.856	692.815
192.315	14.291	919.914	691.903
193.329	14.342	919.296	691.591
194.344	14.318	918.415	690.766
195.359	14.302	917.681	690.087
196.373	14.390	917.271	690.081
197.388	14.507	916.920	690.239
198.402	14.389	916.220	689.165
199.417	14.329	916.148	688.800
200.432	14.592	915.181	689.100
201.446	14.435	915.202	688.404
202.461	14.634	914.163	688.384
203.475	14.824	913.699	688.759
204.490	14.717	913.123	687.823
205.504	14.667	912.235	686.885
206.519	14.576	911.640	686.001
207.534	14.584	911.093	685.563
208.548	14.667	910.135	685.122
209.563	14.773	909.343	684.899
210.577	14.671	908.602	683.865
211.592	14.590	908.265	683.219
212.607	14.750	907.299	683.087
213.621	14.710	907.118	682.727
214.636	14.808	906.156	682.342
215.650	14.889	905.264	681.937
216.665	14.795	905.047	681.333
217.680	14.785	904.278	680.653
218.694	14.832	904.139	680.680
219.709	14.838	903.437	680.112
220.723	14.859	902.907	679.742
221.738	14.936	901.546	678.970
222.753	14.823	901.211	678.196
223.767	14.788	900.271	677.287
224.782	14.773	899.828	676.833
225.796	14.967	898.766	676.761
226.811	14.906	898.673	676.384
227.826	14.837	897.657	675.282
228.840	14.859	896.914	674.752
229.855	15.019	895.982	674.635
230.869	14.811	896.038	673.778
231.884	14.899	895.417	673.605
232.899	14.896	894.690	672.987
233.913	14.983	893.577	672.439
234.928	14.914	893.077	671.730
235.942	14.843	892.678	671.084
236.957	14.879	892.106	670.740
237.972	14.979	891.007	670.253
238.986	14.976	890.249	669.611
240.001	14.962	889.645	669.043
241.015	14.861	889.111	668.179
242.030	14.936	888.574	668.013
243.045	14.963	887.703	667.410
244.059	15.130	887.031	667.510
245.074	15.028	886.399	666.568
246.088	15.040	886.097	666.330
247.103	15.077	885.524	665.987
248.117	15.266	884.442	665.868
249.132	15.407	883.674	665.789
250.147	15.359	883.026	665.053
251.161	15.284	882.534	664.323
252.176	15.337	881.817	663.936
253.190	15.282	881.268	663.247
254.205	15.385	880.616	663.105
255.220	15.374	880.469	662.892
256.234	15.444	879.120	662.094
257.249	15.326	878.795	661.324
258.263	15.472	878.166	661.366
259.278	15.488	877.308	660.726
260.293	15.454	877.247	660.489
261.307	15.436	876.850	660.060
262.322	15.598	875.949	659.960
263.336	15.523	875.306	659.122
264.351	15.635	874.459	658.868
265.366	15.650	873.731	658.319
266.380	15.741	873.317	658.305
267.395	15.708	872.164	657.246
268.409	15.707	871.629	656.782
269.424	15.587	871.226	655.950
270.439	15.477	870.747	655.103
271.453	15.583	869.728	654.690
272.468	15.573	868.755	653.864
273.482	15.630	868.580	653.896
274.497	15.615	867.655	653.081
275.512	15.777	867.018	653.176
276.526	15.575	866.325	651.810
277.541	15.651	865.735	651.603
278.555	15.885	865.144	652.006
279.570	15.736	864.792	651.108
280.585	15.788	864.226	650.825
281.599	15.871	863.533	650.568
282.614	15.763	863.002	649.694
283.628	15.781	862.384	649.240
284.643	15.897	861.696	649.110
285.657	15.934	861.267	648.873
286.672	15.756	860.874	647.833
287.687	15.895	860.222	647.819
288.701	15.895	859.718	647.383
289.716	15.989	859.146	647.258
290.730	15.979	858.351	646.562
291.745	15.976	858.043	646.262
292.760	16.051	857.178	645.842
293.774	16.003	856.423	645.030
294.789	15.968	856.456	644.863
295.803	15.983	855.697	644.292
296.818	15.983	855.178	643.846
297.833	15.969	854.158	642.968
298.847	16.039	853.583	642.746
299.862	16.090	852.707	642.222
300.876	16.037	852.057	641.472
301.891	16.094	851.340	641.093
302.906	16.044	850.781	640.428
303.920	16.144	850.142	640.268
304.935	16.367	849.138	640.300
305.949	16.226	848.939	639.559
306.964	16.315	848.619	639.600
307.979	16.256	847.821	638.719
308.993	16.329	847.203	638.473
310.008	16.371	846.361	637.941
311.022	16.338	846.233	637.663
312.037	16.227	845.837	636.889
313.052	16.285	845.733	636.971
314.066	16.353	844.714	636.406
315.081	16.188	844.087	635.255
316.095	16.316	843.451	635.200
317.110	16.505	842.537	635.167
318.125	16.579	842.237	635.162
319.139	16.265	841.697	633.522
320.154	16.338	841.281	633.427
321.168	16.435	840.950	633.486
322.183	16.425	840.467	633.026
323.197	16.424	839.600	632.313
324.212	16.402	839.578	632.161
325.227	16.403	838.723	631.461
326.241	16.424	837.951	630.906
327.256	16.425	837.592	630.580
328.270	16.501	836.942	630.322
329.285	16.501	836.158	629.673
330.300	16.593	835.378	629.373
331.314	16.558	835.101	628.980
332.329	16.453	834.498	628.078
333.343	16.612	833.715	628.025
334.358	16.684	833.371	627.976
335.373	16.476	833.310	627.102
336.387	16.395	832.498	626.136
337.402	16.687	831.911	626.719
338.416	16.731	831.078	626.200
339.431	16.662	830.921	625.772
340.446	16.663	830.142	625.134
341.460	16.802	829.461	625.079
342.475	16.693	829.035	624.300
343.489	16.831	828.324	624.219
344.504	16.849	827.906	623.914
345.519	16.707	827.398	622.952
346.533	16.773	827.305	623.069
347.548	16.889	826.295	622.681
348.562	16.854	825.612	621.985
349.577	16.856	824.865	621.374
350.592	16.832	824.638	621.060
351.606	16.853	824.428	620.921
352.621	16.955	823.655	620.657
353.635	16.803	823.548	619.968
354.650	16.978	823.047	620.173
355.665	16.857	822.648	619.376
356.679	17.100	821.957	619.690
357.694	16.873	821.625	618.556
358.708	16.868	821.132	618.112
359.723	17.030	820.480	618.157
360.738	17.089	819.799	617.802
361.752	17.001	819.323	617.069
362.767	17.030	819.163	617.000
363.781	17.089	818.555	616.701
364.796	17.233	817.771	616.579
365.810	17.155	817.638	616.141
366.825	17.152	817.292	615.815
367.840	17.161	817.086	615.640
368.854	17.176	816.424	615.139
369.869	17.114	815.749	614.351
370.883	17.293	815.342	614.639
371.898	17.176	814.688	613.668
372.913	17.268	814.153	613.544
373.927	17.259	813.281	612.801
374.942	17.223	813.258	612.597
375.956	17.324	812.304	612.188
376.971	17.279	811.828	611.614
377.986	17.394	811.231	611.522
379.000	17.373	810.989	611.213
380.015	17.394	810.331	610.736
381.029	17.377	810.153	610.488
382.044	17.358	809.177	609.632
383.059	17.484	808.678	609.652
384.073	17.604	808.390	609.810
385.088	17.522	807.272	608.620
386.102	17.523	806.896	608.285
387.117	17.475	806.548	607.798
388.132	17.538	806.029	607.577
389.146	17.495	805.667	607.096
390.161	17.459	805.527	606.809
391.175	17.413	805.204	606.350
392.190	17.574	804.640	606.443
393.205	17.641	803.939	606.099
394.219	17.593	803.704	605.698
395.234	17.562	803.437	605.333
396.248	17.537	802.622	604.580
397.263	17.568	802.062	604.212
398.278	17.474	801.639	603.509
399.292	17.384	801.605	603.111
400.307	17.604	800.949	603.340
401.321	17.693	800.475	603.248
402.336	17.483	799.998	602.092
403.350	17.665	799.551	602.344
404.365	17.716	799.032	602.081
405.380	17.722	798.768	601.850
406.394	17.785	798.218	601.605
407.409	17.772	797.650	601.075
408.423	17.773	797.066	600.587
409.438	17.842	796.561	600.395
410.453	17.880	796.064	600.101
411.467	17.877	795.959	599.958
412.482	17.944	795.600	599.871
413.496	17.779	795.088	598.852
414.511	17.879	794.776	598.915
415.526	17.919	794.614	598.880
416.540	17.875	793.751	598.024
417.555	17.996	793.343	598.085
418.569	17.972	793.082	597.753
419.584	17.982	792.228	597.092
420.599	18.113	792.115	597.411
421.613	110.775	1291.023	1468.782
422.628	95.220	1363.652	1468.882
