DTS Sentinel unit serial number:	SN413079Multiplexer serial number:	ORYXHardware model number:	OX4-SRSoftware version number:	ORYX F/W v4.00 Oryx Data Collector v3.7.2.0data status	okinstallation	princeton_trtdifferential loss correction	single-endedforward channel	channel 3reverse channel	N/Adate	2019/09/17time	20:28:34forward acquisition time	60.00reverse acquisition time	0.00gamma	496.2192k internal	0.2328k external	0.2328temperature offset calibration	0.9953default loss term (dB/km)	0.3790temperature slope calibration	1.0000multiplexer offset coefficient	1.0000multiplexer slope coefficient	1.0000fibre end	0.00T internal ref (°C)	30.78T ext. ref 1 (°C)	0.22T ext. ref 2 (°C)	21.37length (m)	temperature (°C)	Stokes	anti-Stokes-747.200	-200.000	0.080	0.448
-746.185	-200.000	0.055	0.377
-745.171	800.000	-0.132	0.433
-744.156	-142.182	-0.439	-0.044
-743.142	99.485	0.236	-0.275
-742.127	69.139	-0.104	0.107
-741.112	-200.000	-0.025	0.126
-740.098	143.737	-0.178	-0.240
-739.083	-102.901	0.347	-0.083
-738.069	-137.032	-0.273	0.032
-737.054	74.628	0.078	-0.083
-736.039	-118.416	-0.338	0.060
-735.025	442.900	0.079	0.174
-734.010	-200.000	-0.025	-0.135
-732.996	377.994	0.106	-0.219
-731.981	61.374	0.234	-0.235
-730.966	-200.000	-0.038	-0.258
-729.952	21.755	-0.040	-0.033
-728.937	168.211	-0.336	-0.482
-727.923	-2.309	0.059	-0.042
-726.908	-200.000	0.075	-0.357
-725.894	69.348	0.184	-0.191
-724.879	-200.000	0.006	-0.075
-723.864	-174.409	-0.213	-0.006
-722.850	366.048	-0.149	-0.303
-721.835	-85.669	0.254	0.080
-720.821	8.202	0.180	-0.136
-719.806	-150.625	-0.273	0.021
-718.791	-78.783	-0.364	0.125
-717.777	-79.010	0.154	-0.053
-716.762	500.444	-0.136	-0.316
-715.748	101.697	0.073	-0.086
-714.733	49.359	0.326	0.309
-713.718	-113.571	-0.336	-0.066
-712.704	-60.930	-0.297	-0.127
-711.689	-182.798	-0.371	0.007
-710.675	172.617	0.053	-0.077
-709.660	-112.615	0.391	0.078
-708.645	465.431	0.110	0.248
-707.631	6.131	-0.265	0.198
-706.616	800.000	0.073	0.211
-705.602	-86.257	-0.137	0.042
-704.587	31.359	0.224	0.193
-703.572	-139.067	-0.299	-0.033
-702.558	-12.656	-0.220	0.144
-701.543	395.584	0.026	-0.054
-700.529	75.686	0.092	0.098
-699.514	-56.714	-0.089	-0.040
-698.499	-129.238	-0.294	0.041
-697.485	93.319	-0.322	-0.366
-696.470	244.279	0.031	0.053
-695.456	54.700	0.114	-0.111
-694.441	-0.672	-0.078	-0.056
-693.426	-82.881	0.228	-0.074
-692.412	-96.844	-0.239	-0.063
-691.397	-200.000	0.393	0.000
-690.383	472.336	-0.091	-0.206
-689.368	-46.704	0.184	0.090
-688.354	22.130	-0.306	0.251
-687.339	-200.000	-0.019	-0.088
-686.324	101.744	0.148	-0.174
-685.310	-162.249	-0.344	0.017
-684.295	63.648	-0.119	0.120
-683.281	-20.438	0.131	0.081
-682.266	-200.000	0.017	0.151
-681.251	-200.000	0.052	0.291
-680.237	81.009	0.169	0.184
-679.222	-142.761	-0.385	0.038
-678.208	-105.036	0.014	-0.003
-677.193	136.284	0.061	0.081
-676.178	800.000	-0.028	0.101
-675.164	-200.000	-0.043	-0.266
-674.149	229.187	-0.055	0.090
-673.135	-200.000	0.006	0.234
-672.120	52.569	0.176	0.169
-671.105	-92.885	0.145	-0.041
-670.091	800.000	-0.069	0.273
-669.076	-89.456	0.328	-0.097
-668.062	-76.238	0.133	-0.047
-667.047	191.765	0.262	-0.397
-666.032	66.849	0.312	0.319
-665.018	19.767	-0.129	-0.104
-664.003	-99.872	-0.029	-0.007
-662.989	-200.000	0.000	0.302
-661.974	107.296	-0.158	0.188
-660.959	-200.000	-0.021	0.204
-659.945	-200.000	0.027	0.269
-658.930	-200.000	-0.034	-0.395
-657.916	-42.976	0.183	0.093
-656.901	-200.000	-0.011	0.186
-655.886	-16.950	0.068	-0.043
-654.872	458.910	-0.043	-0.096
-653.857	87.303	0.098	0.109
-652.843	81.285	-0.178	0.194
-651.828	-43.393	0.325	0.165
-650.814	124.595	-0.148	-0.187
-649.799	-200.000	-0.067	-0.400
-648.784	15.365	0.256	-0.201
-647.770	-52.467	-0.344	0.160
-646.755	-58.268	-0.147	0.064
-645.741	420.668	-0.064	0.138
-644.726	-200.000	-0.039	0.231
-643.711	451.716	-0.093	-0.207
-642.697	221.856	0.085	-0.137
-641.682	-200.000	0.036	0.160
-640.668	-160.679	-0.438	0.023
-639.653	-124.281	0.139	-0.022
-638.638	-200.000	0.001	-0.053
-637.624	-4.473	-0.210	0.145
-636.609	-200.000	0.025	0.340
-635.595	-139.292	-0.356	-0.038
-634.580	52.831	0.139	0.134
-633.565	-188.351	0.027	-0.000
-632.551	-55.079	0.028	-0.013
-631.536	381.023	-0.055	-0.114
-630.522	75.333	-0.255	0.270
-629.507	-120.478	0.070	0.012
-628.492	-43.667	0.058	-0.029
-627.478	-122.749	-0.214	-0.035
-626.463	800.000	0.043	-0.172
-625.449	-129.008	-0.424	0.060
-624.434	-103.039	0.302	0.072
-623.419	228.561	0.124	0.202
-622.405	526.465	0.090	-0.213
-621.390	-125.775	0.006	0.001
-620.376	-42.949	0.167	0.085
-619.361	-129.511	-0.017	-0.002
-618.346	-47.105	0.065	-0.032
-617.332	-70.729	-0.086	-0.033
-616.317	-41.949	0.436	0.224
-615.303	242.102	0.209	0.351
-614.288	-123.845	-0.137	0.022
-613.273	193.618	-0.047	0.071
-612.259	-200.000	0.069	0.477
-611.244	57.613	0.089	0.087
-610.230	105.980	0.232	-0.275
-609.215	-132.981	-0.362	-0.046
-608.201	-200.000	0.006	-0.278
-607.186	332.457	0.091	0.177
-606.171	-147.750	-0.077	0.006
-605.157	143.862	0.132	0.176
-604.142	-42.398	0.100	0.051
-603.128	-200.000	0.008	0.466
-602.113	-50.325	0.209	-0.099
-601.098	800.000	0.068	0.287
-600.084	800.000	0.033	-0.114
-599.069	-88.716	-0.249	-0.074
-598.055	119.060	-0.051	-0.063
-597.040	-121.006	-0.084	-0.014
-596.025	116.017	-0.170	0.209
-595.011	-200.000	-0.032	0.163
-593.996	-135.962	-0.300	0.035
-592.982	259.840	0.069	-0.120
-591.967	-149.332	0.248	0.020
-590.952	259.475	0.174	0.300
-589.938	-109.623	-0.282	-0.060
-588.923	-200.000	-0.033	0.147
-587.909	134.267	-0.163	0.212
-586.894	515.627	0.056	0.132
-585.879	128.167	-0.074	-0.095
-584.865	19.756	0.039	-0.031
-583.850	-4.376	0.217	-0.150
-582.836	-94.169	-0.271	-0.074
-581.821	114.705	-0.077	0.094
-580.806	50.234	0.307	-0.291
-579.792	-109.572	0.065	0.014
-578.777	538.823	0.111	0.264
-577.763	-95.559	-0.140	-0.037
-576.748	-21.414	-0.368	0.225
-575.733	36.351	0.109	0.096
-574.719	360.835	-0.154	0.308
-573.704	384.950	0.138	0.285
-572.690	800.000	-0.085	0.323
-571.675	180.703	0.107	0.158
-570.661	800.000	0.024	-0.084
-569.646	33.276	0.112	0.097
-568.631	800.000	0.038	-0.152
-567.617	-119.293	-0.253	-0.044
-566.602	800.000	-0.060	-0.177
-565.588	591.446	-0.166	0.411
-564.573	733.455	0.026	0.069
-563.558	-200.000	-0.007	-0.259
-562.544	-70.721	-0.309	-0.117
-561.529	394.541	0.156	-0.325
-560.515	-141.301	-0.218	0.022
-559.500	19.842	-0.118	-0.095
-558.485	78.325	0.153	-0.164
-557.471	55.854	0.149	0.145
-556.456	800.000	-0.047	0.169
-555.442	-23.784	-0.041	-0.025
-554.427	679.220	-0.168	-0.437
-553.412	800.000	0.114	0.349
-552.398	800.000	-0.068	0.203
-551.383	59.328	-0.139	0.136
-550.369	-3.332	-0.163	0.114
-549.354	-200.000	-0.017	-0.251
-548.339	-200.000	-0.031	-0.519
-547.325	-21.528	-0.077	0.047
-546.310	209.050	0.078	-0.123
-545.296	76.833	-0.201	0.214
-544.281	426.302	-0.170	0.366
-543.266	-63.175	-0.170	0.070
-542.252	-169.679	0.060	0.002
-541.237	-58.263	0.307	-0.134
-540.223	-82.991	-0.180	-0.058
-539.208	-83.253	-0.299	0.096
-538.193	656.594	0.051	-0.130
-537.179	-136.384	0.064	-0.007
-536.164	29.837	-0.163	0.139
-535.150	74.213	0.260	0.273
-534.135	551.244	0.041	0.097
-533.121	-26.211	0.293	-0.172
-532.106	800.000	0.109	0.378
-531.091	-200.000	0.077	-0.450
-530.077	245.080	0.099	-0.166
-529.062	-200.000	-0.011	-0.156
-528.048	94.251	-0.181	-0.206
-527.033	-76.576	0.084	0.030
-526.018	-159.465	0.304	-0.017
-525.004	-200.000	-0.017	0.139
-523.989	-200.000	0.015	0.089
-522.975	-55.773	-0.363	-0.162
-521.960	-200.000	-0.029	-0.151
-520.945	102.347	0.090	-0.105
-519.931	-87.270	0.098	-0.030
-518.916	-115.562	-0.071	0.013
-517.902	-200.000	-0.016	-0.143
-516.887	-98.098	0.161	-0.041
-515.872	800.000	-0.073	-0.266
-514.858	-79.410	0.314	0.106
-513.843	-65.398	-0.330	-0.133
-512.829	-200.000	-0.078	0.356
-511.814	-93.804	0.303	-0.083
-510.799	100.605	-0.227	-0.263
-509.785	-200.000	-0.026	-0.214
-508.770	-200.000	-0.042	0.199
-507.756	-38.565	-0.305	-0.161
-506.741	-132.058	0.079	-0.010
-505.726	-168.068	0.436	-0.017
-504.712	-200.000	-0.022	0.147
-503.697	-200.000	0.013	-0.396
-502.683	-74.247	-0.275	-0.099
-501.668	160.843	0.149	-0.208
-500.653	-57.441	0.111	0.049
-499.639	9.125	0.128	0.096
-498.624	779.638	0.032	0.086
-497.610	800.000	-0.071	-0.257
-496.595	-6.737	-0.176	0.119
-495.581	800.000	0.057	0.170
-494.566	-3.590	0.210	-0.146
-493.551	97.220	0.278	-0.318
-492.537	3.005	-0.335	-0.243
-491.522	420.866	-0.040	0.085
-490.508	661.123	-0.105	0.269
-489.493	-101.272	-0.452	0.110
-488.478	-44.023	0.192	0.096
-487.464	800.000	0.098	-0.362
-486.449	67.847	-0.090	0.092
-485.435	-158.397	-0.407	0.024
-484.420	14.600	0.217	-0.169
-483.405	-11.499	0.288	0.189
-482.391	-95.631	0.026	0.007
-481.376	-91.948	-0.051	-0.014
-480.362	49.424	-0.031	-0.029
-479.347	-13.196	0.237	0.153
-478.332	-135.774	-0.249	0.029
-477.318	-10.687	0.363	0.239
-476.303	94.081	-0.025	-0.028
-475.289	503.708	-0.221	-0.510
-474.274	-200.000	-0.002	-0.222
-473.259	800.000	-0.041	-0.147
-472.245	-200.000	-0.013	-0.182
-471.230	800.000	-0.152	0.495
-470.216	453.129	0.025	0.056
-469.201	98.772	0.152	0.175
-468.186	685.000	-0.092	0.240
-467.172	115.487	-0.015	0.019
-466.157	-200.000	-0.040	-0.302
-465.143	-111.357	-0.268	-0.054
-464.128	-182.077	-0.439	-0.008
-463.113	-53.806	-0.140	0.064
-462.099	800.000	0.031	0.092
-461.084	44.812	-0.195	-0.178
-460.070	800.000	0.067	-0.244
-459.055	-118.694	0.212	0.037
-458.040	-200.000	0.037	0.185
-457.026	674.756	0.078	0.203
-456.011	262.467	-0.245	0.424
-454.997	-161.850	0.357	0.018
-453.982	800.000	0.047	0.166
-452.968	-96.817	0.339	0.089
-451.953	-87.777	0.306	0.092
-450.938	-200.000	0.012	-0.304
-449.924	-158.253	-0.305	-0.018
-448.909	800.000	-0.104	-0.377
-447.895	800.000	0.089	-0.337
-446.880	-200.000	-0.004	0.230
-445.865	393.508	0.228	0.472
-444.851	42.782	0.206	-0.186
-443.836	-169.984	-0.173	0.006
-442.822	118.040	-0.231	0.284
-441.807	800.000	0.075	-0.214
-440.792	499.931	-0.086	0.197
-439.778	-95.417	0.061	-0.016
-438.763	-200.000	0.012	0.072
-437.749	55.227	0.048	-0.046
-436.734	-200.000	-0.005	0.050
-435.719	314.051	0.133	0.248
-434.705	-200.000	-0.038	0.182
-433.690	-200.000	-0.034	-0.178
-432.676	-101.331	0.223	0.054
-431.661	-200.000	-0.005	0.313
-430.646	461.094	-0.041	-0.092
-429.632	-200.000	-0.023	0.114
-428.617	-102.507	-0.059	-0.014
-427.603	-200.000	0.006	-0.101
-426.588	-149.132	-0.241	0.019
-425.573	-85.105	0.222	-0.069
-424.559	693.103	0.148	-0.386
-423.544	-200.000	-0.000	-0.074
-422.530	800.000	-0.076	0.326
-421.515	-200.000	0.011	-0.256
-420.500	282.627	-0.165	0.294
-419.486	283.187	0.069	0.123
-418.471	19.533	0.344	-0.276
-417.457	78.049	-0.012	0.013
-416.442	201.287	-0.072	0.111
-415.428	-200.000	0.018	-0.091
-414.413	-200.000	0.041	0.286
-413.398	-86.989	0.157	-0.048
-412.384	800.000	-0.053	-0.208
-411.369	237.624	-0.066	-0.110
-410.355	440.482	-0.056	-0.122
-409.340	106.266	-0.070	-0.083
-408.325	-200.000	-0.002	0.287
-407.311	-66.810	-0.281	-0.111
-406.296	-200.000	0.003	-0.209
-405.282	-200.000	-0.030	-0.342
-404.267	132.131	-0.096	-0.123
-403.252	-200.000	-0.004	-0.278
-402.238	403.657	-0.075	-0.157
-401.223	87.819	-0.091	-0.100
-400.209	-200.000	0.008	-0.138
-399.194	428.951	0.147	0.316
-398.179	-72.110	0.248	-0.091
-397.165	435.018	0.070	0.151
-396.150	144.176	-0.222	0.294
-395.136	574.683	0.066	0.161
-394.121	297.424	-0.104	-0.191
-393.106	-200.000	0.081	-0.740
-392.092	533.455	-0.078	-0.183
-391.077	-200.000	-0.037	-0.274
-390.063	-145.200	0.436	0.039
-389.048	136.911	0.213	-0.276
-388.033	-150.280	-0.222	0.017
-387.019	360.869	0.123	0.246
-386.004	-45.514	-0.159	0.078
-384.990	-200.000	-0.043	0.345
-383.975	201.957	-0.018	-0.028
-382.960	147.832	0.170	0.228
-381.946	156.946	-0.257	0.353
-380.931	-128.610	0.153	-0.021
-379.917	800.000	-0.030	-0.117
-378.902	-179.049	0.064	-0.001
-377.888	-77.938	0.107	-0.037
-376.873	128.333	-0.069	0.087
-375.858	160.510	-0.111	0.154
-374.844	268.384	0.045	-0.078
-373.829	190.296	0.201	-0.299
-372.815	66.102	-0.115	0.116
-371.800	130.560	-0.076	0.097
-370.785	113.817	-0.140	-0.169
-369.771	-200.000	-0.060	0.294
-368.756	397.100	-0.067	-0.139
-367.742	-146.863	0.372	0.032
-366.727	346.265	-0.176	0.344
-365.712	-37.842	-0.326	-0.172
-364.698	61.720	-0.215	-0.212
-363.683	21.137	0.203	-0.164
-362.669	-123.570	0.157	0.025
-361.654	-165.413	-0.482	-0.021
-360.639	-200.000	0.072	-0.341
-359.625	-78.880	-0.103	0.035
-358.610	-150.767	-0.225	0.017
-357.596	-193.519	0.265	-0.002
-356.581	65.028	0.162	0.163
-355.566	-200.000	0.023	0.303
-354.552	-200.000	0.005	0.062
-353.537	99.329	0.211	0.242
-352.523	-152.349	0.180	-0.013
-351.508	-124.053	0.166	-0.026
-350.493	370.646	-0.087	0.176
-349.479	-28.735	0.370	-0.211
-348.464	-200.000	0.010	0.050
-347.450	-147.529	0.310	0.026
-346.435	119.147	-0.043	-0.052
-345.420	649.060	0.058	-0.147
-344.406	-61.182	0.541	-0.226
-343.391	292.646	-0.027	-0.049
-342.377	-200.000	0.068	-0.310
-341.362	375.597	0.040	0.082
-340.348	-17.254	0.073	-0.046
-339.333	-165.112	-0.120	0.005
-338.318	-128.070	-0.263	0.037
-337.304	-54.529	0.213	-0.096
-336.289	307.861	-0.123	-0.228
-335.275	52.691	0.060	0.056
-334.260	-192.081	-0.100	0.001
-333.245	-200.000	-0.026	-0.145
-332.231	-200.000	0.012	-0.183
-331.216	731.727	-0.092	0.243
-330.202	-116.262	-0.284	0.052
-329.187	1.540	-0.102	-0.073
-328.172	140.114	-0.236	-0.308
-327.158	139.409	0.247	-0.322
-326.143	-200.000	0.087	-0.398
-325.129	-104.271	0.116	-0.027
-324.114	-80.100	-0.169	-0.056
-323.099	179.965	-0.171	-0.248
-322.085	-200.000	-0.014	0.241
-321.070	307.324	0.113	-0.208
-320.056	135.029	-0.115	0.147
-319.041	0.821	0.262	0.186
-318.026	-132.998	-0.310	-0.039
-317.012	40.579	-0.104	-0.093
-315.997	111.602	-0.279	-0.333
-314.983	-43.983	-0.218	0.108
-313.968	-200.000	-0.023	-0.196
-312.953	86.087	0.189	-0.206
-311.939	-62.121	-0.319	-0.132
-310.924	-200.000	-0.013	0.273
-309.910	-103.124	0.308	0.072
-308.895	-44.923	-0.202	0.100
-307.880	126.774	-0.103	0.129
-306.866	-200.000	0.023	0.278
-305.851	242.335	0.048	0.080
-304.837	-31.931	0.245	0.136
-303.822	-200.000	-0.008	0.034
-302.807	-37.301	-0.112	0.059
-301.793	272.364	0.151	0.263
-300.778	295.607	0.113	-0.205
-299.764	135.172	0.125	0.161
-298.749	132.208	0.221	0.282
-297.735	-200.000	0.022	-0.368
-296.720	-200.000	-0.038	-0.364
-295.705	-59.923	0.136	0.058
-294.691	-20.574	0.068	-0.042
-293.676	-108.140	-0.082	0.018
-292.662	128.175	0.016	-0.020
-291.647	-200.000	-0.024	-0.116
-290.632	-200.000	0.039	-0.322
-289.618	-117.851	0.182	0.032
-288.603	-6.014	0.129	0.088
-287.589	-147.190	-0.303	0.026
-286.574	35.169	-0.178	-0.154
-285.559	-200.000	0.017	0.134
-284.545	-55.267	0.381	0.169
-283.530	178.480	0.196	-0.283
-282.516	81.681	-0.200	0.214
-281.501	14.957	0.138	0.107
-280.486	115.794	-0.110	-0.133
-279.472	548.416	-0.106	-0.251
-278.457	-200.000	-0.008	-0.127
-277.443	-182.455	-0.509	-0.009
-276.428	-30.846	0.200	0.112
-275.413	800.000	-0.066	0.195
-274.399	137.626	0.051	-0.066
-273.384	800.000	0.111	0.447
-272.370	88.483	-0.277	-0.305
-271.355	-200.000	0.009	0.263
-270.340	-70.777	-0.291	-0.108
-269.326	-46.507	-0.315	0.153
-268.311	6.305	-0.207	-0.152
-267.297	259.914	-0.209	0.356
-266.282	-61.993	0.168	0.069
-265.267	440.819	-0.072	-0.156
-264.253	-65.264	0.071	-0.028
-263.238	-86.465	0.043	-0.013
-262.224	800.000	0.033	0.106
-261.209	800.000	0.191	-0.540
-260.195	800.000	0.042	-0.137
-259.180	-144.722	0.126	0.011
-258.165	-25.917	-0.109	0.064
-257.151	17.391	-0.136	-0.107
-256.136	446.772	-0.105	-0.227
-255.122	-146.099	-0.239	-0.021
-254.107	-9.273	0.149	0.099
-253.092	245.449	0.160	0.266
-252.078	-200.000	-0.032	-0.263
-251.063	800.000	0.059	0.196
-250.049	-200.000	0.007	0.034
-249.034	132.346	0.188	0.240
-248.019	-200.000	-0.016	0.267
-247.005	85.557	0.192	0.208
-245.990	104.182	0.189	-0.220
-244.976	-110.980	-0.282	0.057
-243.961	-50.336	0.256	-0.120
-242.946	-200.000	-0.075	-0.407
-241.932	85.023	0.080	0.087
-240.917	122.860	0.298	0.369
-239.903	401.346	0.034	0.071
-238.888	169.889	0.061	-0.086
-237.873	-76.463	0.185	-0.064
-236.859	-51.266	-0.178	-0.082
-235.844	19.135	-0.231	-0.183
-234.830	17.072	0.135	-0.106
-233.815	453.790	0.210	-0.459
-232.800	-200.000	0.021	-0.198
-231.786	242.331	-0.187	-0.309
-230.771	-60.175	0.186	0.078
-229.757	206.447	0.087	-0.134
-228.742	-15.400	0.111	-0.070
-227.727	-56.336	-0.061	0.027
-226.713	788.559	0.108	0.292
-225.698	34.899	0.139	0.120
-224.684	800.000	0.041	0.120
-223.669	712.209	0.058	0.152
-222.655	800.000	0.061	-0.196
-221.640	-119.827	-0.532	0.090
-220.625	800.000	0.036	-0.108
-219.611	48.655	0.139	0.129
-218.596	-69.538	-0.309	-0.117
-217.582	-200.000	0.025	0.138
-216.567	617.051	0.116	0.288
-215.552	-86.578	0.221	0.067
-214.538	-179.813	0.317	0.007
-213.523	-142.167	-0.284	0.028
-212.509	-38.174	-0.053	0.027
-211.494	160.268	0.098	0.135
-210.479	-147.713	0.279	-0.023
-209.465	-200.000	-0.056	0.413
-208.450	96.553	-0.191	-0.216
-207.436	-3.840	0.058	-0.039
-206.421	-200.000	-0.020	-0.091
-205.406	236.584	-0.114	-0.186
-204.392	58.180	-0.174	0.168
-203.377	-200.000	-0.007	0.162
-202.363	98.183	0.220	0.250
-201.348	-31.118	-0.295	0.164
-200.333	-31.946	0.132	0.073
-199.319	-200.000	0.014	-0.261
-198.304	505.353	0.034	0.077
-197.290	-128.626	0.092	0.013
-196.275	-200.000	-0.064	-0.367
-195.260	-123.293	0.118	0.019
-194.246	187.890	-0.227	-0.334
-193.231	126.325	0.175	-0.218
-192.217	-95.510	0.182	0.048
-191.202	-51.833	0.082	0.038
-190.187	-200.000	-0.006	0.171
-189.173	800.000	-0.054	-0.195
-188.158	-95.959	-0.464	0.122
-187.144	-58.985	-0.167	-0.071
-186.129	54.197	0.139	0.132
-185.114	28.801	0.009	-0.008
-184.100	-59.457	0.191	0.081
-183.085	-200.000	-0.035	0.319
-182.071	300.429	0.064	0.116
-181.056	-8.990	0.152	0.100
-180.042	179.576	0.145	0.209
-179.027	-200.000	-0.008	0.254
-178.012	421.026	-0.051	0.108
-176.998	227.080	-0.043	0.069
-175.983	44.364	0.187	-0.169
-174.969	-136.451	-0.240	-0.027
-173.954	790.027	-0.091	0.245
-172.939	-144.783	0.023	-0.002
-171.925	-53.343	0.265	-0.119
-170.910	207.820	0.179	-0.275
-169.896	129.580	-0.037	0.046
-168.881	189.282	0.171	0.252
-167.866	-177.065	-0.057	0.001
-166.852	231.922	0.086	0.138
-165.837	235.914	-0.247	-0.402
-164.823	294.632	0.121	0.217
-163.808	-75.762	0.016	-0.005
-162.793	109.098	-0.155	-0.182
-161.779	800.000	0.050	-0.169
-160.764	-61.875	0.080	-0.033
-159.750	-85.665	-0.162	0.050
-158.735	800.000	-0.020	-0.062
-157.720	-200.000	-0.022	0.114
-156.706	800.000	0.115	0.467
-155.691	-31.556	0.216	-0.120
-154.677	235.090	0.092	-0.149
-153.662	-131.602	-0.225	0.029
-152.647	-60.364	0.312	-0.131
-151.633	-200.000	0.016	-0.245
-150.618	75.402	-0.139	0.145
-149.604	-33.494	0.232	-0.126
-148.589	-82.403	0.197	0.063
-147.574	-120.380	-0.057	-0.010
-146.560	477.641	-0.058	0.130
-145.545	98.340	-0.210	-0.239
-144.531	-200.000	0.021	-0.101
-143.516	-200.000	0.010	-0.125
-142.502	-24.628	-0.060	-0.035
-141.487	-200.000	-0.010	0.372
-140.472	800.000	-0.008	0.025
-139.458	448.644	-0.117	0.254
-138.443	-59.475	-0.213	0.090
-137.429	136.877	0.061	0.079
-136.414	-200.000	-0.009	0.081
-135.399	-200.000	0.008	-0.040
-134.385	800.000	0.098	-0.280
-133.370	212.888	-0.102	0.158
-132.356	-21.525	0.347	-0.208
-131.341	25.985	-0.304	-0.249
-130.326	136.438	0.028	0.036
-129.312	26.077	-0.203	0.166
-128.297	13.484	-0.063	-0.048
-127.283	27.265	-0.164	0.135
-126.268	800.000	-0.059	0.172
-125.253	67.571	0.093	0.093
-124.239	225.473	-0.236	0.376
-123.224	-200.000	0.007	0.190
-122.210	-108.578	-0.279	-0.059
-121.195	-200.000	-0.013	-0.194
-120.180	-66.409	-0.271	-0.106
-119.166	511.794	-0.121	-0.277
-118.151	136.529	-0.065	-0.083
-117.137	344.636	-0.154	0.297
-116.122	223.534	0.045	0.071
-115.107	270.144	0.221	-0.383
-114.093	800.000	-0.080	0.266
-113.078	52.505	0.293	0.275
-112.064	-66.728	-0.135	-0.053
-111.049	-200.000	-0.017	0.153
-110.034	-200.000	0.088	-0.406
-109.020	123.439	0.034	-0.042
-108.005	496.408	0.067	-0.152
-106.991	182.800	-0.224	-0.324
-105.976	-150.710	0.473	0.035
-104.962	-200.000	0.017	0.141
-103.947	-200.000	0.018	-0.200
-102.932	800.000	-0.067	-0.192
-101.918	-131.384	0.087	-0.011
-100.903	-35.837	0.212	-0.113
-99.889	177.817	-0.057	-0.082
-98.874	-16.017	-0.186	-0.116
-97.859	-200.000	-0.035	0.170
-96.845	-200.000	-0.074	-0.371
-95.830	800.000	0.078	-0.330
-94.816	-139.165	0.265	-0.028
-93.801	-30.313	-0.056	-0.031
-92.786	14.539	0.143	-0.109
-91.772	79.164	-0.220	0.231
-90.757	100.344	-0.047	0.053
-89.743	-146.926	-0.152	0.013
-88.728	800.000	0.083	-0.254
-87.713	-112.323	0.220	-0.043
-86.699	-25.914	-0.282	0.163
-85.684	-67.560	0.169	0.065
-84.670	53.155	-0.181	0.170
-83.655	11.305	-0.047	0.035
-82.640	-133.725	-0.240	-0.029
-81.626	435.149	-0.140	-0.300
-80.611	339.651	-0.104	0.199
-79.597	-200.000	-0.047	0.385
-78.582	-67.007	0.077	-0.030
-77.567	88.398	-0.326	0.355
-76.553	-200.000	-0.020	-0.110
-75.538	-75.258	0.290	-0.101
-74.524	800.000	0.114	-0.329
-73.509	424.262	-0.082	0.173
-72.494	-66.699	0.340	0.132
-71.480	800.000	-0.078	0.260
-70.465	179.350	-0.120	0.172
-69.451	7.096	0.120	-0.088
-68.436	-138.315	-0.070	0.008
-67.422	800.000	0.089	-0.266
-66.407	-128.585	0.110	0.015
-65.392	800.000	0.105	0.318
-64.378	800.000	0.100	-0.320
-63.363	-79.765	0.160	0.053
-62.349	-200.000	-0.006	0.424
-61.334	96.866	-0.744	-0.837
-60.319	-17.925	0.582	0.358
-59.305	537.927	-0.454	-1.059
-58.290	116.283	0.792	0.952
-57.276	439.591	0.679	1.455
-56.261	-200.000	107.741	627.363
-55.246	474.215	1482.518	3280.042
-54.232	148.508	2654.999	3517.143
-53.217	109.491	2167.870	2546.985
-52.203	41.232	1702.931	1509.699
-51.188	33.915	1519.069	1296.932
-50.173	31.521	1492.974	1258.521
-49.159	54.524	1547.564	1462.503
-48.144	54.890	1564.701	1481.140
-47.130	34.153	1521.867	1300.747
-46.115	31.016	1506.728	1266.486
-45.100	30.836	1503.290	1262.324
-44.086	30.779	1500.835	1259.829
-43.071	30.699	1498.944	1257.654
-42.057	30.670	1497.244	1255.977
-41.042	30.674	1496.172	1255.054
-40.027	30.694	1494.620	1253.840
-39.013	30.769	1492.830	1252.793
-37.998	30.716	1491.688	1251.429
-36.984	30.692	1490.720	1250.405
-35.969	30.670	1489.305	1249.020
-34.954	30.730	1488.073	1248.341
-33.940	30.767	1486.346	1247.092
-32.925	30.877	1485.154	1246.776
-31.911	30.766	1483.563	1244.653
-30.896	30.822	1482.340	1243.947
-29.881	30.844	1481.460	1243.310
-28.867	30.877	1479.630	1241.940
-27.852	30.867	1477.882	1240.363
-26.838	30.826	1477.606	1239.802
-25.823	30.771	1475.786	1237.866
-24.809	30.848	1474.270	1237.057
-23.794	30.796	1473.042	1235.627
-22.779	30.807	1471.661	1234.498
-21.765	30.911	1470.388	1234.067
-20.750	30.775	1469.729	1232.564
-19.736	30.764	1468.426	1231.349
-18.721	30.770	1467.333	1230.427
-17.706	30.771	1466.103	1229.348
-16.692	30.753	1465.311	1228.522
-15.677	30.745	1464.072	1227.381
-14.663	30.849	1463.173	1227.259
-13.648	30.771	1462.056	1225.761
-12.633	30.804	1461.271	1225.271
-11.619	30.750	1460.723	1224.409
-10.604	30.686	1460.122	1223.434
-9.590	30.804	1458.872	1223.118
-8.575	30.806	1457.932	1222.291
-7.560	30.757	1456.940	1221.089
-6.546	30.807	1455.805	1220.418
-5.531	30.833	1455.028	1219.889
-4.517	30.724	1454.390	1218.590
-3.502	30.784	1452.918	1217.703
-2.487	30.909	1451.526	1217.303
-1.473	30.769	1451.163	1216.035
-0.458	30.727	1449.884	1214.645
0.556	28.614	1439.226	1199.450
1.571	24.279	1412.054	1148.832
2.586	19.297	1348.998	1066.684
3.600	16.842	1266.234	986.872
4.615	15.441	1221.492	944.047
5.629	13.453	1166.468	890.753
6.644	7.061	1084.630	796.112
7.659	1.294	1045.498	739.291
8.673	0.318	1040.386	730.881
9.688	0.169	1037.372	727.977
10.702	0.123	1036.154	726.837
11.717	0.250	1033.758	725.705
12.731	2.359	1035.164	736.793
13.746	9.259	1044.338	776.694
14.761	15.368	1052.547	812.399
15.775	16.923	1053.931	820.928
16.790	16.568	1051.973	817.618
17.804	15.516	1049.754	810.744
18.819	14.690	1048.125	805.432
19.834	14.230	1047.001	802.277
20.848	14.055	1044.970	799.808
21.863	13.773	1044.989	798.397
22.877	13.527	1043.973	796.368
23.892	13.276	1043.321	794.595
24.907	13.141	1042.464	793.221
25.921	13.146	1041.551	792.482
26.936	13.082	1041.453	792.028
27.950	13.223	1040.696	792.059
28.965	13.191	1039.801	791.155
29.980	13.194	1038.964	790.463
30.994	13.330	1038.162	790.431
32.009	13.518	1036.991	790.367
33.023	13.490	1036.506	789.792
34.038	13.420	1035.873	788.906
35.053	13.368	1035.042	787.959
36.067	13.278	1034.092	786.735
37.082	13.378	1032.929	786.257
38.096	13.250	1032.513	785.265
39.111	13.325	1031.998	785.158
40.126	13.353	1030.874	784.369
41.140	13.407	1029.578	783.565
42.155	13.163	1028.655	781.640
43.169	13.165	1028.047	781.118
44.184	13.232	1026.824	780.434
45.199	13.103	1025.722	778.921
46.213	13.055	1024.950	778.039
47.228	13.228	1023.632	777.783
48.242	13.310	1022.827	777.492
49.257	13.348	1021.545	776.625
50.271	13.333	1020.758	775.888
51.286	13.327	1019.734	775.012
52.301	13.278	1019.171	774.287
53.315	13.366	1018.305	773.971
54.330	13.396	1017.588	773.499
55.344	13.179	1016.954	771.933
56.359	13.288	1015.742	771.456
57.374	13.217	1015.256	770.688
58.388	13.303	1013.753	769.878
59.403	13.186	1013.740	769.257
60.417	13.151	1012.517	768.099
61.432	13.131	1012.262	767.744
62.447	13.121	1011.317	766.909
63.461	13.211	1010.294	766.483
64.476	13.187	1009.538	765.732
65.490	13.075	1008.441	764.312
66.505	13.087	1007.670	763.718
67.520	13.122	1007.171	763.432
68.534	13.305	1006.152	763.437
69.549	13.172	1005.449	762.223
70.563	13.194	1005.057	761.960
71.578	13.226	1004.047	761.276
72.593	13.179	1003.063	760.245
73.607	13.051	1002.495	759.157
74.622	13.169	1001.383	758.794
75.636	12.970	1000.800	757.368
76.651	13.042	1000.159	757.146
77.666	13.140	999.058	756.696
78.680	13.159	998.247	756.101
79.695	13.095	997.931	755.501
80.709	13.109	997.293	755.015
81.724	13.213	996.347	754.711
82.739	13.190	996.060	754.319
83.753	13.135	995.112	753.283
84.768	13.320	994.096	753.292
85.782	13.320	993.589	752.842
86.797	13.305	992.574	751.937
87.812	13.338	992.172	751.714
88.826	13.240	991.431	750.642
89.841	13.358	990.313	750.267
90.855	13.274	989.597	749.275
91.870	13.245	988.851	748.515
92.884	13.373	987.795	748.227
93.899	13.348	987.393	747.745
94.914	13.365	986.630	747.175
95.928	13.312	986.311	746.627
96.943	13.455	984.730	746.011
97.957	13.379	984.729	745.602
98.972	13.392	983.385	744.576
99.987	13.385	982.240	743.614
101.001	13.392	982.095	743.469
102.016	13.473	981.413	743.250
103.030	13.302	980.696	741.874
104.045	13.282	979.624	740.905
105.060	13.525	977.729	740.495
106.074	13.331	977.628	739.488
107.089	13.226	976.958	738.444
108.103	13.242	975.810	737.581
109.118	13.201	974.844	736.603
110.133	13.117	974.317	735.769
111.147	13.216	973.318	735.386
112.162	13.241	972.533	734.843
113.176	13.264	971.394	734.018
114.191	13.187	970.892	733.233
115.206	13.310	969.510	732.670
116.220	13.239	969.188	732.047
117.235	13.334	968.143	731.613
118.249	13.289	967.385	730.777
119.264	13.346	966.026	729.936
120.279	13.429	965.170	729.590
121.293	13.339	964.637	728.727
122.308	13.302	963.973	727.998
123.322	13.260	963.327	727.258
124.337	13.208	962.610	726.427
125.352	13.171	961.225	725.152
126.366	13.173	960.327	724.422
127.381	13.212	959.335	723.779
128.395	13.172	958.307	722.767
129.410	13.290	957.078	722.290
130.424	13.222	956.718	721.659
131.439	13.369	955.135	721.041
132.454	13.283	954.799	720.350
133.468	13.343	954.094	720.013
134.483	13.239	953.615	719.137
135.497	13.194	953.010	718.418
136.512	13.330	951.699	717.959
137.527	13.214	950.994	716.862
138.541	13.364	949.924	716.642
139.556	13.405	949.344	716.319
140.570	13.247	949.066	715.358
141.585	13.363	948.184	715.133
142.600	13.413	947.411	714.703
143.614	13.427	946.481	713.997
144.629	13.476	946.011	713.794
145.643	13.586	944.981	713.427
146.658	13.427	944.654	712.433
147.673	13.455	943.360	711.514
148.687	13.526	942.332	710.978
149.702	13.468	941.576	710.098
150.716	13.367	941.124	709.260
151.731	13.451	940.082	708.774
152.746	13.486	939.366	708.320
153.760	13.460	938.644	707.603
154.775	13.455	937.862	706.927
155.789	13.516	937.173	706.605
156.804	13.534	936.222	705.904
157.819	13.587	935.495	705.519
158.833	13.478	935.232	704.792
159.848	13.616	934.387	704.682
160.862	13.649	933.534	704.114
161.877	13.568	932.910	703.238
162.892	13.750	931.723	703.055
163.906	13.620	931.222	702.061
164.921	13.392	930.888	700.784
165.935	13.599	929.636	700.654
166.950	13.555	928.409	699.480
167.964	13.566	927.822	699.023
168.979	13.613	926.698	698.311
169.994	13.657	925.678	697.667
171.008	13.498	925.093	696.498
172.023	13.644	924.497	696.600
173.037	13.473	924.191	695.587
174.052	13.812	922.704	695.830
175.067	13.728	921.790	694.725
176.081	13.702	921.544	694.371
177.096	13.599	920.686	693.231
178.110	13.664	919.748	692.736
179.125	13.716	919.146	692.439
180.140	13.665	918.210	691.461
181.154	13.761	917.846	691.523
182.169	13.754	917.032	690.821
183.183	13.705	916.463	690.129
184.198	13.839	915.825	690.142
185.213	13.727	915.302	689.222
186.227	13.805	914.944	689.217
187.242	13.683	914.370	688.218
188.256	13.889	913.206	688.132
189.271	13.972	912.487	687.873
190.286	14.016	911.610	687.333
191.300	13.788	911.342	686.130
192.315	13.679	910.183	684.744
193.329	13.753	909.925	684.794
194.344	13.773	908.969	684.100
195.359	13.690	908.921	683.661
196.373	13.788	908.072	683.362
197.388	13.702	907.786	682.737
198.402	13.988	906.819	683.122
199.417	13.910	906.593	682.571
200.432	14.073	906.343	682.992
201.446	14.043	905.518	682.188
202.461	14.061	905.285	682.026
203.475	14.079	904.789	681.664
204.490	14.091	904.074	681.115
205.504	14.161	902.781	680.369
206.519	14.160	901.952	679.677
207.534	14.192	901.265	679.232
208.548	14.173	900.290	678.358
209.563	14.127	900.197	678.041
210.577	14.076	899.485	677.237
211.592	14.015	899.052	676.604
212.607	14.080	898.384	676.305
213.621	14.274	897.646	676.478
214.636	14.360	897.179	676.415
215.650	14.303	896.364	675.510
216.665	14.208	895.831	674.664
217.680	14.169	895.258	674.014
218.694	14.288	894.715	674.026
219.709	14.313	894.173	673.662
220.723	14.336	893.256	673.004
221.738	14.328	892.790	672.558
222.753	14.255	892.057	671.652
223.767	14.273	891.468	671.223
224.782	14.419	890.133	670.746
225.796	14.409	890.145	670.656
226.811	14.408	889.157	669.847
227.826	14.406	888.285	669.123
228.840	14.388	888.034	668.801
229.855	14.268	887.353	667.751
230.869	14.364	886.520	667.448
231.884	14.376	885.829	666.916
232.899	14.454	884.978	666.530
233.913	14.457	884.442	666.078
234.928	14.385	884.240	665.578
235.942	14.291	883.050	664.250
236.957	14.311	882.718	664.020
237.972	14.381	881.915	663.638
238.986	14.319	881.522	663.035
240.001	14.537	880.443	663.032
241.015	14.408	879.969	662.106
242.030	14.366	879.229	661.324
243.045	14.492	878.550	661.251
244.059	14.485	878.193	660.897
245.074	14.493	877.598	660.423
246.088	14.599	876.931	660.281
247.103	14.571	876.155	659.531
248.117	14.608	875.371	659.026
249.132	14.650	875.297	659.080
250.147	14.781	874.546	658.972
251.161	14.750	873.786	658.218
252.176	14.744	873.235	657.723
253.190	14.881	872.456	657.617
254.205	14.851	871.979	657.079
255.220	14.839	871.680	656.748
256.234	15.032	870.570	656.612
257.249	14.996	869.789	655.822
258.263	14.972	869.545	655.490
259.278	15.085	869.119	655.553
260.293	14.908	868.573	654.389
261.307	14.771	868.410	653.670
262.322	15.021	867.493	653.902
263.336	15.116	866.738	653.644
264.351	15.088	866.291	653.141
265.366	15.086	865.371	652.383
266.380	15.118	864.984	652.155
267.395	15.187	864.044	651.658
268.409	15.098	863.524	650.862
269.424	15.186	862.738	650.555
270.439	15.209	861.953	649.995
271.453	15.080	861.188	648.858
272.468	15.093	860.385	648.248
273.482	15.000	859.984	647.530
274.497	15.134	859.568	647.675
275.512	15.049	858.966	646.837
276.526	15.074	857.901	646.073
277.541	15.170	857.382	645.996
278.555	15.256	856.852	645.871
279.570	15.297	856.160	645.449
280.585	15.197	855.694	644.658
281.599	15.188	855.367	644.319
282.614	15.173	854.687	643.693
283.628	15.252	854.169	643.549
284.643	15.177	853.711	642.860
285.657	15.352	852.733	642.737
286.672	15.229	852.805	642.261
287.687	15.261	852.167	641.846
288.701	15.253	851.617	641.344
289.716	15.257	850.936	640.792
290.730	15.427	850.222	640.847
291.745	15.518	849.562	640.640
292.760	15.455	849.019	639.932
293.774	15.556	848.142	639.602
294.789	15.513	847.603	638.974
295.803	15.451	846.976	638.208
296.818	15.471	846.711	638.026
297.833	15.554	846.075	637.809
298.847	15.451	845.567	636.976
299.862	15.652	844.358	636.771
300.876	15.478	843.977	635.769
301.891	15.559	843.707	635.816
302.906	15.473	843.188	635.043
303.920	15.608	842.050	634.642
304.935	15.736	841.298	634.500
305.949	15.738	840.512	633.860
306.964	15.766	840.173	633.653
307.979	15.804	839.543	633.266
308.993	15.708	839.227	632.609
310.008	15.825	838.884	632.733
311.022	15.744	838.067	631.756
312.037	15.824	837.583	631.636
313.052	15.882	836.945	631.319
314.066	15.619	837.003	630.321
315.081	15.772	835.882	629.994
316.095	15.730	835.547	629.528
317.110	15.794	834.810	629.156
318.125	15.625	834.598	628.308
319.139	15.573	834.076	627.665
320.154	15.679	833.332	627.445
321.168	15.746	832.665	627.137
322.183	15.957	831.729	627.163
323.197	15.894	831.658	626.819
324.212	15.934	830.925	626.359
325.227	15.832	830.413	625.541
326.241	15.798	830.015	625.059
327.256	15.757	829.448	624.423
328.270	15.718	829.372	624.167
329.285	15.878	828.484	624.036
330.300	15.870	827.530	623.234
331.314	15.885	827.007	622.838
332.329	15.866	826.875	622.614
333.343	16.090	826.010	622.736
334.358	16.082	825.541	622.299
335.373	16.017	824.921	621.535
336.387	16.080	824.479	621.378
337.402	16.124	823.845	621.008
338.416	16.155	823.224	620.599
339.431	16.058	822.832	619.892
340.446	16.087	822.414	619.628
341.460	16.264	821.180	619.294
342.475	16.371	820.417	619.057
343.489	16.157	820.873	618.561
344.504	16.286	820.240	618.500
345.519	16.312	819.387	617.898
346.533	16.275	819.058	617.459
347.548	16.378	818.456	617.330
348.562	16.432	818.217	617.291
349.577	16.299	817.338	616.089
350.592	16.442	816.633	616.022
351.606	16.348	816.406	615.456
352.621	16.198	816.043	614.579
353.635	16.249	815.636	614.406
354.650	16.269	815.453	614.287
355.665	16.219	815.091	613.777
356.679	16.312	814.255	613.433
357.694	16.365	813.944	613.335
358.708	16.359	813.241	612.730
359.723	16.390	812.575	612.286
360.738	16.486	812.243	612.330
361.752	16.400	811.675	611.535
362.767	16.425	811.227	611.233
363.781	16.526	811.003	611.377
364.796	16.454	810.613	610.768
365.810	16.619	809.895	610.770
366.825	16.583	809.670	610.414
367.840	16.632	809.329	610.282
368.854	16.751	808.811	610.264
369.869	16.549	808.266	609.073
370.883	16.625	807.835	608.968
371.898	16.737	807.066	608.737
372.913	16.654	806.700	608.108
373.927	16.924	805.478	608.102
374.942	16.636	805.113	606.738
375.956	16.727	804.845	606.808
376.971	16.781	803.993	606.306
377.986	16.923	803.489	606.380
379.000	17.023	803.027	606.337
380.015	16.705	803.118	605.216
381.029	16.927	802.469	605.466
382.044	16.990	801.604	604.983
383.059	16.793	800.974	603.754
384.073	16.818	800.721	603.599
385.088	16.846	800.058	603.145
386.102	16.822	799.813	602.821
387.117	16.919	799.042	602.530
388.132	16.861	798.507	601.867
389.146	16.917	798.092	601.701
390.161	16.881	797.657	601.192
391.175	16.981	797.136	601.100
392.190	17.112	797.009	601.415
393.205	17.018	796.238	600.449
394.219	17.016	796.235	600.385
395.234	16.937	795.476	599.482
396.248	16.964	794.925	599.107
397.263	16.877	794.883	598.716
398.278	16.935	794.333	598.452
399.292	17.033	793.376	598.025
400.307	17.074	793.472	598.190
401.321	16.824	793.143	597.006
402.336	17.012	792.531	597.155
403.350	17.019	791.941	596.684
404.365	17.031	791.795	596.560
405.380	17.084	791.308	596.328
406.394	17.199	790.461	596.042
407.409	17.074	790.520	595.592
408.423	17.336	789.858	595.961
409.438	17.320	789.586	595.645
410.453	17.232	789.097	594.919
411.467	17.361	788.540	594.896
412.482	17.303	788.080	594.292
413.496	17.373	787.652	594.161
414.511	17.406	787.209	593.892
415.526	17.403	787.126	593.765
416.540	17.368	786.806	593.350
417.555	17.249	786.630	592.750
418.569	17.282	786.072	592.390
419.584	17.517	785.022	592.364
420.599	17.447	784.623	591.766
421.613	109.900	1290.109	1469.161
422.628	94.202	1363.743	1469.249
