DTS Sentinel unit serial number:	SN413079Multiplexer serial number:	ORYXHardware model number:	OX4-SRSoftware version number:	ORYX F/W v4.00 Oryx Data Collector v3.7.2.0data status	okinstallation	princeton_trtdifferential loss correction	single-endedforward channel	channel 3reverse channel	N/Adate	2019/09/16time	20:36:35forward acquisition time	60.00reverse acquisition time	0.00gamma	496.2192k internal	0.2323k external	0.2323temperature offset calibration	0.9940default loss term (dB/km)	0.3790temperature slope calibration	1.0000multiplexer offset coefficient	1.0000multiplexer slope coefficient	1.0000fibre end	0.00T internal ref (°C)	32.50T ext. ref 1 (°C)	0.05T ext. ref 2 (°C)	26.37length (m)	temperature (°C)	Stokes	anti-Stokes-747.200	-156.222	0.117	-0.007
-746.185	139.557	-0.153	0.203
-745.171	100.410	0.162	0.189
-744.156	-200.000	-0.050	0.258
-743.142	-200.000	0.009	0.174
-742.127	-125.732	-0.238	-0.036
-741.112	282.123	0.081	-0.147
-740.098	-114.464	-0.254	0.049
-739.083	-27.623	-0.208	0.122
-738.069	-77.917	-0.460	0.160
-737.054	378.598	0.161	0.332
-736.039	-11.408	-0.319	0.212
-735.025	800.000	0.029	-0.127
-734.010	27.797	-0.361	0.307
-732.996	237.308	-0.089	0.149
-731.981	239.150	0.147	-0.247
-730.966	335.415	-0.062	-0.122
-729.952	28.472	-0.409	-0.349
-728.937	38.378	-0.198	-0.178
-727.923	-20.153	-0.192	0.119
-726.908	-92.579	0.031	0.009
-725.894	-200.000	-0.029	-0.182
-724.879	-6.280	0.078	-0.053
-723.864	51.256	0.121	-0.116
-722.850	-96.277	-0.282	0.075
-721.835	189.964	-0.165	-0.249
-720.821	-97.883	-0.142	-0.037
-719.806	42.275	0.157	-0.144
-718.791	-200.000	0.070	-0.313
-717.777	44.425	-0.229	0.212
-716.762	308.589	0.118	0.222
-715.748	800.000	0.066	0.274
-714.733	-8.508	-0.277	0.187
-713.718	310.660	0.188	0.355
-712.704	2.031	0.182	0.133
-711.689	-159.655	-0.134	-0.007
-710.675	1.682	0.091	0.066
-709.660	-10.202	-0.355	-0.238
-708.645	-35.628	-0.172	-0.094
-707.631	-4.113	0.286	0.200
-706.616	-55.862	-0.175	0.079
-705.602	210.738	-0.115	0.182
-704.587	159.434	0.106	-0.149
-703.572	-13.541	0.332	-0.217
-702.558	56.908	-0.084	0.083
-701.543	-84.078	0.127	-0.041
-700.529	-200.000	-0.026	0.258
-699.514	-69.246	0.134	-0.052
-698.499	-141.403	-0.201	-0.021
-697.485	-111.187	0.188	-0.039
-696.470	38.707	-0.195	-0.176
-695.456	-75.610	-0.215	0.077
-694.441	100.557	-0.091	0.107
-693.426	533.759	0.108	0.259
-692.412	-78.976	-0.209	0.072
-691.397	605.519	-0.070	0.175
-690.383	-12.076	-0.135	0.089
-689.368	342.057	0.060	0.119
-688.354	-200.000	0.005	-0.033
-687.339	-110.706	0.179	-0.037
-686.324	-39.669	-0.089	0.047
-685.310	385.307	-0.050	0.105
-684.295	800.000	-0.059	0.260
-683.281	483.457	0.102	-0.233
-682.266	-200.000	0.006	-0.086
-681.251	461.746	0.128	0.286
-680.237	-200.000	-0.009	0.159
-679.222	420.799	-0.085	-0.183
-678.208	-49.223	-0.049	0.024
-677.193	-67.831	-0.083	-0.033
-676.178	-75.055	0.328	-0.118
-675.164	-155.628	-0.167	0.011
-674.149	-73.194	-0.212	-0.078
-673.135	800.000	-0.069	-0.221
-672.120	60.669	-0.073	0.073
-671.105	44.344	-0.077	0.072
-670.091	352.622	-0.150	0.299
-669.076	184.852	-0.229	-0.342
-668.062	-200.000	-0.014	-0.084
-667.047	-80.720	-0.290	0.097
-666.032	102.288	0.169	0.198
-665.018	800.000	0.076	-0.265
-664.003	-23.917	-0.159	-0.096
-662.989	460.003	-0.105	-0.235
-661.974	176.058	-0.145	0.212
-660.959	66.685	0.300	-0.307
-659.945	-131.993	0.149	0.020
-658.930	-56.909	0.151	0.067
-657.916	-200.000	0.017	0.193
-656.901	-9.765	-0.368	-0.246
-655.886	-53.185	0.253	-0.117
-654.872	330.166	-0.132	-0.255
-653.857	14.419	-0.408	-0.320
-652.843	-200.000	-0.013	-0.074
-651.828	206.002	-0.178	-0.279
-650.814	-200.000	-0.016	-0.144
-649.799	-78.532	0.239	0.082
-648.784	-122.000	-0.042	-0.007
-647.770	-104.778	0.105	-0.024
-646.755	-95.149	-0.213	0.058
-645.741	158.372	0.048	-0.066
-644.726	-110.287	-0.112	-0.023
-643.711	148.550	0.174	0.237
-642.697	-34.044	-0.094	0.052
-641.682	-135.900	-0.027	-0.003
-640.668	-97.355	0.076	-0.020
-639.653	-170.308	-0.250	0.009
-638.638	66.364	-0.063	-0.064
-637.624	-62.982	0.419	-0.174
-636.609	473.404	-0.161	-0.366
-635.595	-200.000	0.005	0.027
-634.580	-74.063	-0.130	-0.048
-633.565	-1.074	-0.212	-0.151
-632.551	95.530	-0.069	0.079
-631.536	-19.431	-0.032	0.020
-630.522	-200.000	0.004	0.361
-629.507	-24.346	-0.191	-0.114
-628.492	-33.837	0.274	0.152
-627.478	182.352	0.009	0.014
-626.463	-158.627	-0.119	-0.007
-625.449	-200.000	-0.017	-0.154
-624.434	-131.852	-0.105	-0.014
-623.419	-84.480	0.276	0.088
-622.405	800.000	-0.081	-0.271
-621.390	1.103	-0.216	0.156
-620.376	800.000	0.073	0.212
-619.361	800.000	0.042	-0.163
-618.346	138.047	0.132	-0.173
-617.332	800.000	0.025	0.091
-616.317	-90.303	-0.361	0.105
-615.303	293.456	0.115	-0.211
-614.288	800.000	-0.017	-0.053
-613.273	-121.727	0.095	0.016
-612.259	-200.000	-0.025	-0.154
-611.244	-200.000	0.036	-0.356
-610.230	-200.000	0.006	-0.072
-609.215	-94.866	-0.626	-0.170
-608.201	223.293	0.179	0.290
-607.186	411.530	0.136	0.291
-606.171	-41.414	-0.114	0.059
-605.157	15.315	0.154	0.121
-604.142	535.296	0.074	0.176
-603.128	9.515	0.230	-0.175
-602.113	-75.898	0.388	-0.138
-601.098	78.403	0.148	0.159
-600.084	-94.502	0.222	0.061
-599.069	20.480	0.052	-0.042
-598.055	800.000	-0.067	-0.283
-597.040	-200.000	-0.026	-0.158
-596.025	218.987	-0.241	-0.386
-595.011	-120.388	-0.061	0.010
-593.996	11.495	-0.118	-0.091
-592.982	14.768	0.144	0.113
-591.967	-106.781	0.098	0.022
-590.952	-46.588	0.156	-0.077
-589.938	-200.000	0.068	0.363
-588.923	30.530	0.073	0.062
-587.909	125.604	-0.148	-0.187
-586.894	638.455	0.147	-0.374
-585.879	800.000	0.100	0.286
-584.865	-53.107	-0.299	-0.138
-583.850	-200.000	-0.011	0.074
-582.836	32.366	-0.252	0.218
-581.821	-200.000	-0.018	-0.342
-580.806	-37.262	0.256	-0.137
-579.792	111.871	0.138	-0.168
-578.777	-58.459	0.311	-0.136
-577.763	-90.154	0.125	0.037
-576.748	97.410	-0.117	-0.134
-575.733	256.502	0.105	-0.181
-574.719	-139.417	0.181	-0.019
-573.704	-83.047	-0.069	-0.022
-572.690	-18.403	-0.114	0.071
-571.675	-165.117	0.082	0.004
-570.661	-59.384	0.066	-0.029
-569.646	-129.749	-0.276	0.038
-568.631	-200.000	0.031	-0.496
-567.617	-81.168	0.272	0.090
-566.602	-24.940	-0.101	-0.060
-565.588	-26.564	0.320	0.188
-564.573	85.160	-0.067	0.073
-563.558	82.197	-0.159	0.173
-562.544	-34.748	-0.063	0.034
-561.529	27.675	-0.060	0.051
-560.515	-35.853	-0.196	0.106
-559.500	-44.920	0.146	-0.073
-558.485	-55.225	-0.134	0.060
-557.471	-200.000	-0.055	0.330
-556.456	-150.893	0.183	0.014
-555.442	800.000	-0.046	0.134
-554.427	693.948	0.031	0.082
-553.412	117.546	0.240	0.296
-552.398	158.449	0.123	0.171
-551.383	-150.552	-0.146	-0.011
-550.369	150.287	-0.020	-0.027
-549.354	-200.000	-0.007	0.174
-548.339	166.999	-0.186	0.265
-547.325	-148.063	-0.503	0.042
-546.310	-71.324	0.154	-0.058
-545.296	161.655	-0.093	0.131
-544.281	-77.657	0.245	0.085
-543.266	662.561	-0.090	-0.233
-542.252	-50.539	-0.055	0.026
-541.237	800.000	-0.087	0.303
-540.223	-33.073	-0.185	-0.103
-539.208	116.624	-0.142	0.174
-538.193	-135.780	0.240	0.028
-537.179	-168.331	0.422	0.016
-536.164	145.474	-0.181	0.242
-535.150	-61.238	-0.095	-0.040
-534.135	-82.781	0.233	0.076
-533.121	800.000	-0.030	-0.110
-532.106	-19.901	0.261	0.161
-531.091	29.444	-0.158	0.134
-530.077	-115.694	-0.148	-0.028
-529.062	8.492	-0.035	0.026
-528.048	-188.341	0.149	0.002
-527.033	800.000	-0.061	0.179
-526.018	-90.775	0.256	0.074
-525.004	74.260	-0.144	-0.152
-523.989	10.969	-0.112	-0.086
-522.975	800.000	0.008	0.025
-521.960	-200.000	-0.001	0.026
-520.945	-200.000	0.021	-0.151
-519.931	23.980	0.283	0.233
-518.916	800.000	-0.104	0.325
-517.902	257.402	-0.297	0.511
-516.887	-200.000	-0.017	-0.365
-515.872	-200.000	-0.017	-0.154
-514.858	87.873	0.114	0.126
-513.843	-23.158	-0.040	-0.024
-512.829	-34.691	-0.215	0.118
-511.814	123.768	-0.223	-0.281
-510.799	-7.806	-0.186	-0.125
-509.785	-0.731	-0.283	-0.201
-508.770	-78.986	-0.069	-0.023
-507.756	230.298	-0.040	0.065
-506.741	-163.755	0.258	0.012
-505.726	119.376	0.067	0.083
-504.712	346.554	-0.165	0.325
-503.697	318.992	0.099	0.188
-502.683	-115.958	0.276	0.052
-501.668	-6.641	0.147	-0.100
-500.653	-151.455	0.472	-0.035
-499.639	450.376	0.025	-0.055
-498.624	128.596	-0.214	0.273
-497.610	-15.709	0.273	0.174
-496.595	312.918	-0.153	-0.288
-495.581	-85.208	-0.138	-0.043
-494.566	800.000	0.126	0.484
-493.551	-59.067	-0.246	0.106
-492.537	-200.000	-0.011	0.344
-491.522	-52.447	0.091	0.042
-490.508	-200.000	-0.013	0.355
-489.493	-44.774	0.094	-0.047
-488.478	-85.733	-0.201	0.062
-487.464	303.968	0.183	-0.339
-486.449	-103.288	0.087	0.021
-485.435	-60.862	-0.151	-0.064
-484.420	508.698	0.054	-0.125
-483.405	-56.625	0.077	-0.034
-482.391	0.903	0.029	0.021
-481.376	-106.971	0.235	0.052
-480.362	49.201	-0.129	-0.121
-479.347	345.553	0.068	0.134
-478.332	-59.333	-0.292	0.126
-477.318	-200.000	0.016	0.104
-476.303	-126.107	0.270	-0.041
-475.289	63.631	-0.090	0.090
-474.274	-200.000	-0.007	0.163
-473.259	-200.000	0.033	-0.167
-472.245	-155.226	0.422	-0.027
-471.230	-89.553	-0.269	0.079
-470.216	-200.000	-0.008	0.240
-469.201	-24.037	-0.091	-0.054
-468.186	-200.000	0.026	-0.157
-467.172	7.175	-0.212	0.158
-466.157	-73.169	-0.470	0.172
-465.143	248.611	-0.021	0.036
-464.128	-156.846	0.260	0.016
-463.113	-200.000	0.016	0.398
-462.099	800.000	0.082	0.264
-461.084	-95.595	-0.686	-0.183
-460.070	800.000	0.132	-0.375
-459.055	-200.000	0.014	0.180
-458.040	-200.000	0.053	-0.343
-457.026	256.247	0.206	-0.352
-456.011	141.314	0.120	-0.158
-454.997	-54.547	0.186	-0.084
-453.982	-108.059	0.042	0.009
-452.968	-33.051	-0.037	-0.021
-451.953	528.822	0.029	-0.068
-450.938	499.342	-0.075	0.173
-449.924	-0.985	0.253	-0.179
-448.909	-127.476	-0.390	0.057
-447.895	-88.570	-0.158	-0.047
-446.880	-194.069	0.222	-0.002
-445.865	-192.450	-0.085	-0.001
-444.851	-200.000	-0.020	-0.165
-443.836	-37.518	-0.139	-0.074
-442.822	-200.000	-0.013	-0.165
-441.807	-98.080	0.196	-0.050
-440.792	52.710	0.120	0.114
-439.778	-92.412	0.298	0.084
-438.763	-76.603	-0.581	-0.204
-437.749	-22.383	0.022	-0.013
-436.734	50.569	-0.088	-0.083
-435.719	448.525	-0.008	0.019
-434.705	-200.000	-0.076	0.511
-433.690	-11.157	0.047	0.031
-432.676	-200.000	-0.031	0.273
-431.661	-200.000	-0.024	0.110
-430.646	153.084	-0.244	0.333
-429.632	78.415	0.056	-0.059
-428.617	-200.000	-0.015	-0.156
-427.603	-200.000	-0.069	-0.307
-426.588	800.000	0.043	0.187
-425.573	-92.870	-0.192	-0.053
-424.559	800.000	-0.060	0.223
-423.544	800.000	0.071	-0.258
-422.530	577.530	-0.017	0.042
-421.515	800.000	0.061	-0.175
-420.500	-58.385	0.296	-0.128
-419.486	-86.588	-0.168	-0.051
-418.471	-50.341	-0.334	0.157
-417.457	-12.721	0.204	0.133
-416.442	1.757	0.078	-0.056
-415.428	800.000	-0.057	0.195
-414.413	-45.798	-0.197	-0.097
-413.398	54.706	0.077	0.074
-412.384	-159.821	0.232	0.013
-411.369	767.257	-0.096	-0.261
-410.355	-108.629	-0.506	-0.108
-409.340	-138.512	-0.136	0.015
-408.325	-54.205	-0.085	-0.038
-407.311	800.000	-0.129	-0.403
-406.296	-129.736	0.143	-0.020
-405.282	-71.701	-0.139	-0.052
-404.267	-143.672	-0.370	0.035
-403.252	-19.970	0.325	0.200
-402.238	800.000	0.053	-0.173
-401.223	64.995	0.258	0.260
-400.209	666.929	-0.129	0.333
-399.194	-91.821	-0.166	0.047
-398.179	800.000	0.068	0.242
-397.165	-12.974	-0.198	0.128
-396.150	-0.410	-0.236	-0.167
-395.136	80.068	-0.303	-0.325
-394.121	-78.315	-0.316	0.108
-393.106	-45.647	-0.070	0.034
-392.092	-15.538	0.117	0.075
-391.077	800.000	-0.049	0.159
-390.063	100.891	-0.106	-0.122
-389.048	-200.000	-0.024	0.111
-388.033	-200.000	-0.005	0.340
-387.019	23.661	0.102	-0.084
-386.004	-200.000	0.003	0.219
-384.990	-96.742	-0.219	-0.057
-383.975	-140.936	0.442	0.045
-382.960	58.242	0.126	-0.123
-381.946	-36.189	0.356	0.191
-380.931	-132.661	-0.699	-0.089
-379.917	-200.000	0.018	0.178
-378.902	-152.972	0.291	0.020
-377.888	-200.000	0.040	0.194
-376.873	-200.000	-0.010	-0.186
-375.858	-8.236	-0.359	-0.241
-374.844	-33.903	0.103	-0.057
-373.829	-24.977	0.177	-0.105
-372.815	-119.794	-0.148	0.025
-371.800	-77.211	0.255	0.088
-370.785	31.168	0.230	-0.196
-369.771	138.435	-0.067	-0.087
-368.756	-200.000	0.017	0.138
-367.742	-200.000	0.091	-0.422
-366.727	-43.868	-0.138	0.069
-365.712	-168.793	-0.120	-0.004
-364.698	-29.282	0.096	0.055
-363.683	371.923	-0.081	-0.163
-362.669	-200.000	0.016	-0.145
-361.654	-200.000	-0.039	0.196
-360.639	-200.000	0.048	0.226
-359.625	275.977	0.149	0.263
-358.610	295.051	-0.077	-0.139
-357.596	195.142	-0.058	0.087
-356.581	-111.161	-0.132	0.027
-355.566	-51.593	0.364	-0.169
-354.552	-70.224	0.155	-0.058
-353.537	800.000	0.034	0.114
-352.523	-55.697	-0.165	0.073
-351.508	-123.128	-0.182	-0.029
-350.493	-200.000	-0.023	0.294
-349.479	41.548	-0.074	0.067
-348.464	-200.000	-0.026	-0.291
-347.450	-79.289	0.108	-0.036
-346.435	-200.000	0.021	-0.269
-345.420	-32.318	-0.017	0.009
-344.406	201.081	0.060	0.091
-343.391	89.681	-0.188	-0.208
-342.377	-141.406	-0.131	0.013
-341.362	12.376	0.280	0.215
-340.348	44.422	-0.035	0.032
-339.333	609.446	0.207	-0.515
-338.318	75.326	0.044	-0.047
-337.304	-200.000	-0.008	0.166
-336.289	139.796	0.188	-0.246
-335.275	-63.917	-0.498	0.203
-334.260	160.727	0.124	-0.172
-333.245	94.016	-0.090	0.101
-332.231	153.167	0.195	0.265
-331.216	108.273	-0.173	-0.205
-330.202	76.840	0.253	0.266
-329.187	7.195	0.086	0.064
-328.172	228.667	0.214	-0.346
-327.158	-167.115	0.208	0.008
-326.143	-200.000	-0.022	0.152
-325.129	800.000	0.014	-0.059
-324.114	-41.642	0.078	-0.040
-323.099	716.113	0.083	0.220
-322.085	10.511	0.115	-0.087
-321.070	-71.000	0.211	0.079
-320.056	400.536	0.090	-0.188
-319.041	368.619	-0.140	-0.281
-318.026	81.040	-0.174	0.187
-317.012	166.198	0.104	-0.146
-315.997	80.831	0.099	-0.106
-314.983	203.520	0.163	0.251
-313.968	-200.000	-0.031	0.310
-312.953	800.000	0.011	-0.038
-311.939	-64.455	-0.059	0.024
-310.924	800.000	-0.047	-0.203
-309.910	-49.617	-0.070	0.033
-308.895	800.000	-0.098	-0.331
-307.880	-200.000	-0.003	-0.255
-306.866	123.402	0.072	-0.090
-305.851	138.486	0.225	-0.293
-304.837	297.153	-0.046	0.083
-303.822	419.995	-0.190	-0.404
-302.807	-76.696	-0.168	-0.058
-301.793	283.258	-0.065	0.115
-300.778	114.691	-0.111	-0.134
-299.764	-200.000	-0.029	-0.313
-298.749	-107.768	0.151	-0.033
-297.735	152.318	0.119	0.161
-296.720	-162.080	0.322	-0.016
-295.705	90.263	0.192	0.213
-294.691	128.186	-0.112	0.142
-293.676	-46.481	0.131	-0.064
-292.662	-200.000	0.026	0.182
-291.647	800.000	0.059	0.239
-290.632	-200.000	-0.014	-0.196
-289.618	192.855	-0.211	0.316
-288.603	-144.650	-0.342	0.031
-287.589	40.944	0.089	-0.079
-286.574	154.954	0.005	-0.007
-285.559	-64.440	0.056	-0.023
-284.545	-95.248	0.111	-0.030
-283.530	126.074	-0.077	0.097
-282.516	-63.447	0.135	-0.055
-281.501	-144.650	-0.063	0.006
-280.486	-143.864	0.016	-0.002
-279.472	106.572	-0.267	0.314
-278.457	-120.398	-0.172	-0.029
-277.443	-72.832	-0.064	0.023
-276.428	800.000	0.118	0.413
-275.413	-10.751	0.247	-0.162
-274.399	-200.000	0.008	-0.146
-273.384	-200.000	0.006	-0.074
-272.370	-200.000	-0.012	-0.334
-271.355	348.645	-0.080	-0.156
-270.340	46.315	0.142	-0.131
-269.326	-27.157	0.133	0.077
-268.311	-90.707	-0.301	-0.086
-267.297	177.791	0.085	-0.122
-266.282	-47.692	0.156	-0.075
-265.267	241.560	0.082	-0.136
-264.253	185.449	-0.246	-0.363
-263.238	146.036	-0.032	0.042
-262.224	-173.415	-0.226	0.007
-261.209	141.135	-0.127	0.167
-260.195	-64.709	0.404	0.162
-259.180	283.413	0.140	-0.249
-258.165	-51.339	-0.288	-0.134
-257.151	-200.000	-0.020	0.245
-256.136	112.627	0.245	0.294
-255.122	-60.259	-0.082	0.035
-254.107	-200.000	0.003	0.100
-253.092	800.000	0.027	-0.110
-252.078	16.937	0.190	-0.149
-251.063	163.184	-0.053	-0.073
-250.049	-200.000	-0.007	0.035
-249.034	-52.500	0.136	-0.062
-248.019	212.382	-0.226	-0.352
-247.005	585.441	-0.064	0.156
-245.990	117.612	-0.208	0.254
-244.976	53.798	-0.062	0.059
-243.961	-200.000	0.000	-0.228
-242.946	-200.000	0.005	-0.180
-241.932	239.138	0.055	0.090
-240.917	35.955	-0.202	0.176
-239.903	119.216	0.058	0.071
-238.888	-164.229	-0.112	-0.005
-237.873	-92.084	0.108	0.030
-236.859	238.251	-0.056	-0.092
-235.844	-146.173	0.173	-0.015
-234.830	-200.000	-0.045	0.209
-233.815	-200.000	-0.029	-0.138
-232.800	465.789	0.114	0.253
-231.786	444.215	-0.081	0.175
-230.771	318.412	0.085	-0.160
-229.757	282.784	-0.067	0.120
-228.742	15.657	0.095	0.074
-227.727	-107.268	0.153	-0.033
-226.713	94.251	-0.056	0.063
-225.698	-4.891	-0.415	-0.283
-224.684	310.490	0.071	-0.131
-223.669	-104.918	-0.110	0.025
-222.655	-195.002	-0.072	0.001
-221.640	-200.000	-0.052	0.372
-220.625	-33.097	-0.190	0.104
-219.611	-200.000	-0.036	0.210
-218.596	-200.000	-0.016	-0.137
-217.582	347.143	0.223	-0.435
-216.567	800.000	0.022	-0.090
-215.552	529.772	-0.071	0.165
-214.538	-11.400	0.130	0.085
-213.523	-46.834	-0.038	0.018
-212.509	-8.701	0.297	-0.197
-211.494	9.151	-0.052	-0.039
-210.479	88.839	0.249	0.274
-209.465	800.000	0.172	-0.516
-208.450	-35.022	0.190	0.103
-207.436	311.475	0.094	0.175
-206.421	-147.944	-0.235	-0.019
-205.406	-180.280	-0.170	0.004
-204.392	-200.000	0.024	-0.202
-203.377	35.437	-0.094	0.082
-202.363	-10.273	0.219	0.143
-201.348	348.377	-0.050	-0.098
-200.333	-64.868	0.282	0.113
-199.319	-59.339	0.022	-0.010
-198.304	800.000	0.025	-0.105
-197.290	36.077	-0.155	-0.135
-196.275	184.197	-0.055	0.080
-195.260	74.936	0.158	0.164
-194.246	-79.986	-0.228	-0.076
-193.231	-148.022	-0.299	0.025
-192.217	-76.669	-0.210	-0.073
-191.202	-200.000	-0.033	0.212
-190.187	-200.000	0.046	-0.238
-189.173	64.983	0.107	0.107
-188.158	-200.000	-0.010	-0.077
-187.144	-43.799	0.076	-0.038
-186.129	181.919	0.286	-0.417
-185.114	84.788	0.072	-0.078
-184.100	66.375	-0.100	0.101
-183.085	-200.000	-0.016	0.137
-182.071	24.689	-0.061	-0.050
-181.056	800.000	0.127	-0.350
-180.042	122.851	0.102	0.126
-179.027	-102.056	0.084	-0.020
-178.012	800.000	0.040	-0.159
-176.998	-104.467	0.449	-0.103
-175.983	172.931	0.169	-0.241
-174.969	-21.740	0.175	0.105
-173.954	127.264	0.102	-0.128
-172.939	-123.484	0.127	0.020
-171.925	-53.132	0.172	0.078
-170.910	30.590	-0.058	0.049
-169.896	250.898	0.201	-0.337
-168.881	800.000	-0.031	0.085
-167.866	35.625	-0.168	0.146
-166.852	165.599	0.095	0.133
-165.837	-152.199	-0.575	-0.041
-164.823	200.155	0.116	-0.176
-163.808	-200.000	0.011	0.051
-162.793	800.000	-0.062	-0.246
-161.779	302.373	0.094	0.171
-160.764	-92.337	0.089	-0.025
-159.750	24.148	-0.024	-0.019
-158.735	-10.245	-0.132	0.087
-157.720	-52.210	-0.225	-0.103
-156.706	366.569	0.128	-0.256
-155.691	-95.554	-0.351	-0.093
-154.677	602.002	-0.055	0.135
-153.662	319.442	0.099	0.185
-152.647	-66.593	0.044	0.017
-151.633	98.980	-0.150	0.170
-150.618	325.791	0.068	0.129
-149.604	800.000	0.055	-0.174
-148.589	375.316	0.030	0.061
-147.574	-81.634	0.246	-0.080
-146.560	51.881	-0.216	0.203
-145.545	-148.978	-0.169	0.013
-144.531	-98.654	-0.369	-0.093
-143.516	238.463	0.121	0.197
-142.502	800.000	0.051	0.182
-141.487	38.412	0.265	0.232
-140.472	184.361	0.055	-0.080
-139.458	-120.450	-0.153	-0.026
-138.443	-45.694	0.219	-0.107
-137.429	147.308	0.011	-0.014
-136.414	-150.185	-0.287	0.022
-135.399	-148.790	-0.264	-0.021
-134.385	800.000	-0.070	0.258
-133.370	800.000	-0.097	-0.278
-132.356	-173.651	-0.356	0.010
-131.341	-126.450	0.132	0.019
-130.326	-97.707	-0.223	0.057
-129.312	800.000	0.056	-0.233
-128.297	438.088	-0.122	0.262
-127.283	79.123	0.132	0.140
-126.268	30.953	-0.042	0.036
-125.253	105.874	0.120	0.140
-124.239	-14.232	-0.138	-0.088
-123.224	-200.000	-0.069	-0.452
-122.210	-76.760	0.264	-0.091
-121.195	676.068	-0.121	-0.310
-120.180	-200.000	-0.017	-0.237
-119.166	2.458	0.141	0.101
-118.151	32.020	0.244	-0.207
-117.137	85.117	0.170	-0.184
-116.122	208.256	-0.036	-0.055
-115.107	221.566	-0.144	-0.229
-114.093	-66.535	0.085	-0.033
-113.078	-25.680	0.292	-0.170
-112.064	-128.771	0.218	0.030
-111.049	-200.000	0.055	0.534
-110.034	-161.809	0.535	0.027
-109.020	26.829	0.295	0.243
-108.005	-200.000	0.023	0.197
-106.991	-42.087	-0.389	-0.196
-105.976	-200.000	0.076	-0.519
-104.962	-143.906	-0.380	0.035
-103.947	-90.466	0.389	0.111
-102.932	177.121	0.079	0.113
-101.918	97.012	-0.098	0.110
-100.903	30.146	0.072	-0.060
-99.889	213.134	-0.045	0.069
-98.874	800.000	-0.085	-0.270
-97.859	-27.343	0.095	0.054
-96.845	440.832	0.197	0.424
-95.830	561.352	0.067	-0.160
-94.816	-162.122	-0.134	0.007
-93.801	-73.769	-0.163	-0.058
-92.786	307.480	-0.031	-0.056
-91.772	471.777	0.133	-0.294
-90.757	56.657	0.093	-0.089
-89.743	155.748	-0.139	-0.189
-88.728	113.537	-0.147	-0.175
-87.713	-200.000	0.002	0.141
-86.699	-200.000	0.027	-0.185
-85.684	19.502	-0.122	-0.097
-84.670	-12.157	0.126	-0.081
-83.655	95.640	-0.131	-0.147
-82.640	-54.559	0.248	0.110
-81.626	-157.939	0.164	-0.010
-80.611	-120.014	-0.069	0.012
-79.597	-69.684	-0.243	-0.091
-78.582	-31.732	-0.247	0.137
-77.567	166.633	0.186	0.260
-76.553	0.332	0.046	0.033
-75.538	-27.788	0.204	0.116
-74.524	800.000	-0.013	-0.050
-73.509	800.000	-0.089	-0.273
-72.494	-38.909	-0.226	0.117
-71.480	-153.247	0.195	-0.013
-70.465	67.132	-0.128	-0.128
-69.451	800.000	-0.068	0.245
-68.436	-75.209	-0.339	0.119
-67.422	30.614	0.242	0.204
-66.407	-181.695	0.042	-0.001
-65.392	-100.377	0.065	-0.016
-64.378	-21.387	-0.259	0.156
-63.363	-66.223	0.373	0.146
-62.349	418.631	0.111	0.234
-61.334	70.956	-1.103	-1.123
-60.319	19.764	0.404	0.320
-59.305	118.825	-0.710	-0.863
-58.290	319.363	0.539	1.005
-57.276	800.000	0.615	1.790
-56.261	-200.000	94.116	574.141
-55.246	566.006	1363.633	3251.004
-54.232	164.988	2526.352	3505.435
-53.217	112.985	2155.314	2567.437
-52.203	43.121	1702.276	1526.564
-51.188	35.698	1514.731	1308.057
-50.173	33.344	1487.292	1268.563
-49.159	52.569	1534.520	1440.027
-48.144	54.390	1552.525	1469.264
-47.130	35.947	1513.303	1308.310
-46.115	32.769	1498.567	1274.089
-45.100	32.670	1495.110	1270.437
-44.086	32.561	1493.913	1268.634
-43.071	32.526	1491.893	1266.631
-42.057	32.574	1490.144	1265.423
-41.042	32.432	1489.102	1263.531
-40.027	32.463	1487.694	1262.496
-39.013	32.482	1485.620	1260.810
-37.998	32.536	1484.262	1259.970
-36.984	32.432	1483.515	1258.588
-35.969	32.619	1481.737	1258.281
-34.954	32.486	1480.602	1256.377
-33.940	32.454	1479.207	1254.935
-32.925	32.576	1477.551	1254.293
-31.911	32.536	1476.405	1253.004
-30.896	32.513	1475.953	1252.415
-29.881	32.562	1473.496	1250.604
-28.867	32.617	1472.480	1250.060
-27.852	32.557	1471.024	1248.378
-26.838	32.522	1470.159	1247.360
-25.823	32.493	1468.598	1245.793
-24.809	32.537	1466.817	1244.523
-23.794	32.523	1465.009	1242.850
-22.779	32.602	1463.675	1242.191
-21.765	32.651	1462.661	1241.605
-20.750	32.559	1462.023	1240.403
-19.736	32.512	1460.490	1238.745
-18.721	32.495	1459.373	1237.638
-17.706	32.488	1458.355	1236.682
-16.692	32.398	1457.838	1235.599
-15.677	32.501	1455.742	1234.453
-14.663	32.488	1454.980	1233.669
-13.648	32.417	1454.767	1232.976
-12.633	32.403	1453.491	1231.754
-11.619	32.488	1452.806	1231.679
-10.604	32.523	1451.883	1231.077
-9.590	32.381	1451.294	1229.600
-8.575	32.456	1450.431	1229.308
-7.560	32.483	1449.716	1228.834
-6.546	32.519	1448.370	1227.878
-5.531	32.437	1447.582	1226.624
-4.517	32.412	1446.563	1225.554
-3.502	32.514	1445.205	1225.015
-2.487	32.378	1444.939	1223.859
-1.473	32.554	1443.298	1223.560
-0.458	32.438	1442.159	1221.793
0.556	30.520	1432.081	1209.901
1.571	27.285	1407.204	1168.048
2.586	23.601	1346.512	1094.887
3.600	21.738	1264.928	1017.653
4.615	20.461	1219.350	973.746
5.629	17.647	1162.812	913.450
6.644	8.919	1077.176	802.589
7.659	1.468	1035.392	735.433
8.673	0.162	1029.931	725.199
9.688	0.094	1026.272	722.230
10.702	-0.105	1025.659	720.782
11.717	0.040	1023.162	719.659
12.731	2.736	1025.891	734.434
13.746	11.278	1037.534	783.926
14.761	17.519	1044.814	819.489
15.775	17.528	1043.816	818.677
16.790	16.453	1041.672	811.759
17.804	15.367	1039.333	804.660
18.819	14.346	1037.818	798.523
19.834	13.987	1036.238	795.520
20.848	13.753	1035.170	793.510
21.863	13.594	1034.347	792.051
22.877	13.329	1033.592	790.134
23.892	13.156	1032.571	788.457
24.907	12.999	1032.249	787.395
25.921	13.076	1031.167	786.864
26.936	13.058	1030.856	786.470
27.950	13.104	1029.542	785.619
28.965	13.142	1029.458	785.665
29.980	13.125	1028.397	784.707
30.994	13.297	1027.665	784.893
32.009	13.352	1026.636	784.300
33.023	13.265	1026.075	783.392
34.038	13.242	1024.978	782.375
35.053	13.219	1024.224	781.619
36.067	13.142	1024.032	781.041
37.082	13.266	1022.703	780.543
38.096	13.258	1021.693	779.667
39.111	13.297	1021.409	779.564
40.126	13.224	1020.546	778.495
41.140	13.143	1019.370	777.147
42.155	13.051	1018.454	775.946
43.169	13.134	1017.276	775.368
44.184	12.955	1016.540	773.900
45.199	13.067	1015.242	773.369
46.213	13.015	1014.197	772.260
47.228	13.106	1012.942	771.663
48.242	13.049	1012.612	771.077
49.257	13.077	1011.744	770.478
50.271	13.206	1010.354	769.954
51.286	13.131	1009.879	769.174
52.301	13.172	1009.140	768.732
53.315	13.141	1008.448	767.994
54.330	13.185	1007.322	767.271
55.344	13.181	1006.712	766.719
56.359	13.274	1005.355	766.050
57.374	13.136	1004.853	764.960
58.388	13.076	1004.191	764.112
59.403	12.985	1003.412	763.032
60.417	12.954	1002.817	762.366
61.432	13.031	1001.847	761.918
62.447	13.037	1001.502	761.615
63.461	13.064	1000.217	760.694
64.476	13.081	999.588	760.226
65.490	12.910	999.032	758.950
66.505	13.030	997.617	758.361
67.520	12.983	997.357	757.879
68.534	12.928	996.423	756.853
69.549	12.969	995.753	756.461
70.563	12.965	995.431	756.132
71.578	13.111	994.170	755.777
72.593	13.051	993.047	754.583
73.607	12.841	993.054	753.561
74.622	12.944	991.453	752.749
75.636	12.915	990.882	752.117
76.651	12.869	990.123	751.263
77.666	12.945	989.526	751.093
78.680	12.973	988.626	750.469
79.695	12.937	987.952	749.728
80.709	13.068	987.303	749.764
81.724	13.039	986.296	748.803
82.739	12.899	986.247	748.063
83.753	13.056	985.318	748.003
84.768	13.129	984.434	747.598
85.782	13.165	983.485	746.974
86.797	13.097	983.084	746.295
87.812	13.227	981.854	745.879
88.826	13.177	980.962	744.913
89.841	13.114	980.251	744.022
90.855	13.209	979.336	743.692
91.870	13.133	979.294	743.249
92.884	13.171	978.338	742.630
93.899	13.236	977.480	742.203
94.914	13.350	976.383	741.815
95.928	13.281	975.943	741.106
96.943	13.311	975.203	740.615
97.957	13.348	974.272	740.008
98.972	13.188	973.923	738.960
99.987	13.286	972.840	738.514
101.001	13.255	972.335	737.924
102.016	13.251	971.688	737.352
103.030	13.158	970.934	736.298
104.045	13.195	969.420	735.250
105.060	13.290	968.704	735.064
106.074	13.219	967.691	733.918
107.089	13.219	966.687	733.091
108.103	13.152	965.495	731.826
109.118	13.174	964.628	731.201
110.133	13.052	964.400	730.420
111.147	13.012	963.343	729.381
112.162	12.991	962.751	728.774
113.176	13.091	961.675	728.334
114.191	13.017	961.256	727.628
115.206	13.216	960.053	727.531
116.220	13.177	959.201	726.648
117.235	13.206	958.029	725.823
118.249	13.204	957.741	725.532
119.264	13.033	956.991	724.149
120.279	13.144	955.885	723.738
121.293	13.126	955.261	723.118
122.308	12.959	954.606	721.829
123.322	13.120	953.737	721.812
124.337	13.035	953.057	720.864
125.352	12.917	951.944	719.442
126.366	13.068	950.184	718.705
127.381	13.109	949.651	718.419
128.395	13.038	948.989	717.544
129.410	12.994	947.909	716.472
130.424	13.071	946.888	715.972
131.439	13.094	946.031	715.359
132.454	13.150	944.986	714.747
133.468	13.257	944.257	714.595
134.483	13.214	943.815	714.012
135.497	13.167	943.217	713.293
136.512	13.254	942.138	712.790
137.527	13.257	941.196	712.030
138.541	13.090	940.590	710.787
139.556	13.208	940.032	710.812
140.570	13.285	939.029	710.323
141.585	13.199	938.463	709.460
142.600	13.252	937.931	709.223
143.614	13.364	937.164	709.060
144.629	13.369	936.602	708.594
145.643	13.271	935.992	707.651
146.658	13.278	935.254	707.060
147.673	13.331	933.890	706.193
148.687	13.155	932.819	704.571
149.702	13.182	932.475	704.364
150.716	13.194	931.502	703.615
151.731	13.141	930.486	702.562
152.746	13.194	929.805	702.210
153.760	13.209	929.667	702.109
154.775	13.334	928.449	701.657
155.789	13.174	927.801	700.425
156.804	13.312	926.958	700.310
157.819	13.465	926.079	700.232
158.833	13.300	925.782	699.247
159.848	13.398	924.673	698.762
160.862	13.427	924.244	698.500
161.877	13.436	923.583	697.974
162.892	13.288	922.897	696.772
163.906	13.295	921.891	695.982
164.921	13.336	920.968	695.392
165.935	13.130	920.309	693.970
166.950	13.393	919.050	694.062
167.964	13.494	917.890	693.547
168.979	13.509	916.833	692.752
169.994	13.473	916.241	692.093
171.008	13.379	915.607	691.158
172.023	13.333	914.644	690.177
173.037	13.412	913.898	689.882
174.052	13.595	912.867	689.806
175.067	13.569	912.528	689.382
176.081	13.488	911.814	688.445
177.096	13.285	910.947	686.885
178.110	13.409	910.274	686.833
179.125	13.377	909.512	686.064
180.140	13.500	908.768	685.949
181.154	13.503	908.184	685.463
182.169	13.467	907.876	685.019
183.183	13.595	906.883	684.740
184.198	13.655	906.039	684.290
185.213	13.680	905.236	683.723
186.227	13.650	904.740	683.165
187.242	13.695	904.453	683.074
188.256	13.802	903.495	682.730
189.271	13.676	902.982	681.763
190.286	13.798	902.091	681.533
191.300	13.603	901.590	680.294
192.315	13.511	900.966	679.385
193.329	13.415	900.318	678.441
194.344	13.483	899.462	678.017
195.359	13.503	899.216	677.853
196.373	13.693	898.445	677.987
197.388	13.723	898.203	677.868
198.402	13.861	897.196	677.612
199.417	13.899	897.422	677.879
200.432	13.921	896.657	677.328
201.446	13.941	896.296	677.079
202.461	14.012	895.913	677.020
203.475	13.939	895.432	676.297
204.490	13.851	894.799	675.400
205.504	13.961	893.732	674.985
206.519	13.870	892.897	673.924
207.534	13.905	891.668	673.078
208.548	13.855	891.366	672.590
209.563	13.866	890.884	672.210
210.577	13.935	889.989	671.753
211.592	13.914	889.473	671.219
212.607	14.119	888.597	671.327
213.621	14.045	888.460	670.866
214.636	13.999	887.695	670.044
215.650	14.038	886.897	669.539
216.665	13.921	886.620	668.798
217.680	14.228	886.108	669.587
218.694	14.131	885.526	668.699
219.709	14.261	885.051	668.807
220.723	14.126	884.445	667.744
221.738	14.041	884.069	667.063
222.753	14.039	883.446	666.522
223.767	14.136	882.431	666.088
224.782	14.420	881.151	666.200
225.796	14.359	880.952	665.747
226.811	14.347	880.350	665.183
227.826	14.367	879.344	664.445
228.840	14.292	878.747	663.637
229.855	14.157	878.253	662.665
230.869	14.236	877.459	662.322
231.884	14.200	877.038	661.804
232.899	14.431	875.864	661.775
233.913	14.189	875.698	660.630
234.928	14.188	874.972	660.021
235.942	14.225	874.147	659.488
236.957	14.118	873.829	658.764
237.972	14.331	872.902	658.849
238.986	14.273	872.281	658.094
240.001	14.310	871.626	657.687
241.015	14.208	871.307	656.986
242.030	14.299	870.521	656.696
243.045	14.351	869.609	656.152
244.059	14.475	869.213	656.284
245.074	14.383	868.942	655.662
246.088	14.429	868.128	655.168
247.103	14.406	867.497	654.545
248.117	14.328	867.182	653.943
249.132	14.552	866.196	654.021
250.147	14.499	865.820	653.470
251.161	14.698	864.988	653.562
252.176	14.602	864.540	652.790
253.190	14.769	863.638	652.705
254.205	14.732	863.273	652.228
255.220	14.650	862.966	651.617
256.234	14.705	862.324	651.289
257.249	14.755	861.619	650.893
258.263	14.762	861.064	650.446
259.278	14.765	860.331	649.843
260.293	14.655	860.031	649.134
261.307	14.887	859.341	649.456
262.322	14.834	858.826	648.804
263.336	14.870	858.325	648.507
264.351	14.847	857.814	647.976
265.366	15.018	856.944	647.921
266.380	14.908	856.161	646.846
267.395	15.078	855.797	647.172
268.409	14.904	854.780	645.673
269.424	14.899	854.248	645.197
270.439	14.986	853.464	644.881
271.453	14.993	852.993	644.497
272.468	14.848	852.259	643.326
273.482	14.870	851.600	642.858
274.497	14.955	851.218	642.839
275.512	14.960	850.464	642.230
276.526	14.882	849.443	641.104
277.541	14.988	848.809	640.975
278.555	14.963	848.597	640.663
279.570	15.085	847.985	640.610
280.585	14.977	848.060	640.196
281.599	15.073	847.112	639.792
282.614	15.102	846.217	639.169
283.628	15.107	845.765	638.789
284.643	15.094	845.414	638.419
285.657	15.044	844.789	637.699
286.672	15.065	844.119	637.220
287.687	15.234	843.658	637.458
288.701	15.237	843.125	637.010
289.716	15.159	842.573	636.239
290.730	15.221	841.944	635.945
291.745	15.325	841.238	635.747
292.760	15.232	840.568	634.834
293.774	15.239	839.664	634.121
294.789	15.445	839.273	634.547
295.803	15.296	838.924	633.665
296.818	15.174	838.497	632.825
297.833	15.325	837.545	632.622
298.847	15.399	836.894	632.353
299.862	15.424	836.480	632.077
300.876	15.248	835.969	630.973
301.891	15.416	835.163	630.942
302.906	15.456	834.619	630.623
303.920	15.566	833.895	630.434
304.935	15.362	833.972	629.670
305.949	15.564	832.953	629.602
306.964	15.584	832.249	629.089
307.979	15.699	831.416	628.834
308.993	15.582	830.991	628.020
310.008	15.596	830.484	627.635
311.022	15.603	830.252	627.428
312.037	15.623	829.879	627.167
313.052	15.712	828.814	626.639
314.066	15.574	828.425	625.775
315.081	15.539	827.989	625.260
316.095	15.505	827.272	624.535
317.110	15.538	826.893	624.319
318.125	15.613	826.396	624.167
319.139	15.564	826.026	623.649
320.154	15.663	825.152	623.301
321.168	15.677	824.557	622.847
322.183	15.582	824.101	622.099
323.197	15.831	823.605	622.589
324.212	15.622	823.300	621.529
325.227	15.702	822.528	621.188
326.241	15.793	822.248	621.257
327.256	15.784	821.393	620.523
328.270	15.561	821.346	619.612
329.285	15.702	820.557	619.479
330.300	15.814	819.773	619.245
331.314	15.788	819.338	618.769
332.329	15.759	818.847	618.234
333.343	15.865	818.368	618.208
334.358	15.929	817.662	617.854
335.373	15.828	816.891	616.846
336.387	15.863	816.319	616.488
337.402	15.966	815.644	616.303
338.416	15.970	815.452	616.117
339.431	15.869	814.797	615.197
340.446	16.081	814.333	615.566
341.460	16.028	814.100	615.142
342.475	16.054	813.679	614.866
343.489	16.088	813.084	614.484
344.504	16.245	812.462	614.534
345.519	16.138	811.836	613.617
346.533	16.296	811.234	613.680
347.548	16.263	810.680	613.089
348.562	16.281	810.210	612.742
349.577	16.029	809.941	611.572
350.592	15.985	809.402	610.949
351.606	16.024	808.980	610.718
352.621	16.138	808.617	610.804
353.635	16.294	807.945	610.806
354.650	16.171	807.112	609.678
355.665	16.239	807.214	609.947
356.679	16.186	806.540	609.194
357.694	16.310	806.034	609.204
358.708	16.243	805.669	608.634
359.723	16.250	805.270	608.303
360.738	16.111	804.663	607.289
361.752	16.352	804.138	607.706
362.767	16.264	803.843	607.115
363.781	16.223	803.490	606.646
364.796	16.371	802.966	606.729
365.810	16.399	802.488	606.412
366.825	16.276	802.541	605.959
367.840	16.593	801.848	606.517
368.854	16.581	801.052	605.820
369.869	16.448	800.894	605.168
370.883	16.487	800.070	604.633
371.898	16.514	799.346	604.130
372.913	16.468	798.957	603.616
373.927	16.490	798.413	603.233
374.942	16.561	797.791	602.963
375.956	16.551	797.245	602.459
376.971	16.774	796.444	602.596
377.986	16.728	795.838	601.918
379.000	16.782	795.370	601.705
380.015	16.749	794.986	601.243
381.029	16.722	794.792	600.947
382.044	16.838	793.989	600.697
383.059	16.644	793.670	599.717
384.073	16.663	793.036	599.251
385.088	16.772	792.466	599.151
386.102	16.815	791.788	598.740
387.117	16.755	791.479	598.241
388.132	16.778	790.677	597.664
389.146	16.712	790.758	597.440
390.161	16.905	790.131	597.591
391.175	16.869	789.861	597.209
392.190	16.835	789.620	596.855
393.205	16.873	789.205	596.620
394.219	16.845	788.694	596.082
395.234	16.774	788.207	595.413
396.248	16.904	787.177	595.039
397.263	16.805	786.821	594.368
398.278	16.556	786.837	593.453
399.292	16.797	786.206	593.772
400.307	16.760	785.850	593.320
401.321	16.725	785.497	592.877
402.336	16.758	785.465	592.918
403.350	16.818	785.115	592.812
404.365	16.768	784.239	591.923
405.380	16.944	783.469	591.904
406.394	17.071	783.321	592.182
407.409	17.090	782.837	591.829
408.423	17.053	782.249	591.206
409.438	17.059	782.025	591.005
410.453	17.136	781.613	590.910
411.467	17.024	781.650	590.495
412.482	17.183	780.959	590.473
413.496	17.258	780.173	590.084
414.511	17.266	779.820	589.796
415.526	17.199	779.858	589.537
416.540	17.217	779.190	589.045
417.555	17.269	779.043	589.062
418.569	17.200	778.275	588.190
419.584	17.345	777.791	588.275
420.599	17.355	777.252	587.849
421.613	107.449	1286.284	1457.489
422.628	91.797	1360.455	1457.570
