DTS Sentinel unit serial number:	SN413079Multiplexer serial number:	ORYXHardware model number:	OX4-SRSoftware version number:	ORYX F/W v4.00 Oryx Data Collector v3.7.2.0data status	okinstallation	princeton_trtdifferential loss correction	single-endedforward channel	channel 3reverse channel	N/Adate	2019/09/16time	22:48:35forward acquisition time	60.00reverse acquisition time	0.00gamma	496.2192k internal	0.2325k external	0.2325temperature offset calibration	0.9944default loss term (dB/km)	0.3790temperature slope calibration	1.0000multiplexer offset coefficient	1.0000multiplexer slope coefficient	1.0000fibre end	0.00T internal ref (°C)	30.52T ext. ref 1 (°C)	0.07T ext. ref 2 (°C)	24.14length (m)	temperature (°C)	Stokes	anti-Stokes-747.200	78.572	0.159	-0.171
-746.185	333.519	0.052	0.101
-745.171	65.690	-0.106	0.108
-744.156	437.943	0.090	-0.199
-743.142	-2.755	-0.281	-0.198
-742.127	-50.171	-0.177	-0.084
-741.112	172.850	0.162	0.236
-740.098	125.972	0.080	0.102
-739.083	262.324	0.059	-0.103
-738.069	109.434	-0.166	0.201
-737.054	77.265	-0.130	-0.140
-736.039	246.538	-0.142	-0.241
-735.025	-13.804	0.136	0.088
-734.010	-127.084	-0.345	0.051
-732.996	-200.000	-0.006	0.197
-731.981	-6.525	-0.293	0.202
-730.966	415.743	-0.147	-0.317
-729.952	-148.832	-0.277	0.023
-728.937	-99.220	-0.209	-0.053
-727.923	197.939	0.052	0.080
-726.908	800.000	0.144	0.481
-725.894	86.141	-0.166	0.184
-724.879	169.225	-0.199	-0.286
-723.864	24.529	0.176	0.147
-722.850	-69.779	-0.392	0.151
-721.835	-19.056	-0.082	0.051
-720.821	-9.252	0.101	0.068
-719.806	66.842	0.156	-0.160
-718.791	-200.000	0.025	0.182
-717.777	-200.000	0.017	-0.198
-716.762	-200.000	0.003	-0.086
-715.748	-193.041	-0.074	-0.001
-714.733	12.213	0.207	0.160
-713.718	-120.268	-0.129	-0.022
-712.704	-200.000	0.031	0.136
-711.689	99.363	0.238	-0.278
-710.675	-97.050	0.298	-0.079
-709.660	362.441	0.059	-0.120
-708.645	53.261	0.055	0.053
-707.631	171.892	0.054	0.079
-706.616	-36.861	0.083	0.045
-705.602	-200.000	-0.039	-0.374
-704.587	-200.000	-0.019	0.089
-703.572	273.094	-0.159	-0.283
-702.558	123.223	-0.061	0.077
-701.543	-152.665	-0.545	0.039
-700.529	-49.687	-0.082	0.039
-699.514	-65.006	-0.103	-0.042
-698.499	-95.937	0.125	0.033
-697.485	279.832	-0.191	0.343
-696.470	-200.000	-0.004	0.083
-695.456	47.182	0.272	-0.255
-694.441	800.000	0.033	-0.107
-693.426	-13.249	-0.362	-0.237
-692.412	130.399	0.165	0.213
-691.397	40.864	-0.235	-0.214
-690.383	-164.687	0.290	-0.013
-689.368	800.000	0.038	-0.127
-688.354	-200.000	0.000	-0.245
-687.339	71.178	-0.283	-0.296
-686.324	800.000	-0.041	-0.152
-685.310	594.393	0.063	0.156
-684.295	94.999	-0.051	-0.058
-683.281	-80.039	-0.193	-0.065
-682.266	124.825	0.223	-0.283
-681.251	87.305	0.074	-0.083
-680.237	-200.000	-0.018	0.194
-679.222	267.885	-0.205	-0.362
-678.208	-200.000	0.030	-0.179
-677.193	-200.000	0.009	-0.153
-676.178	45.117	0.047	-0.043
-675.164	-72.864	-0.112	-0.041
-674.149	254.731	0.078	0.135
-673.135	18.814	-0.219	-0.177
-672.120	-180.458	-0.086	0.002
-671.105	157.338	0.161	-0.224
-670.091	-200.000	0.026	-0.215
-669.076	-107.768	0.234	-0.051
-668.062	-111.205	-0.351	0.072
-667.047	-200.000	0.000	0.171
-666.032	800.000	-0.046	-0.144
-665.018	-91.336	0.289	-0.083
-664.003	800.000	0.086	0.257
-662.989	-116.022	-0.256	0.048
-661.974	133.738	0.128	-0.167
-660.959	108.092	0.145	0.174
-659.945	-200.000	0.022	-0.411
-658.930	-200.000	-0.013	0.201
-657.916	138.539	0.123	-0.162
-656.901	-148.852	0.229	-0.019
-655.886	-108.485	-0.147	0.032
-654.872	226.885	0.106	0.173
-653.857	-136.179	-0.223	-0.026
-652.843	38.215	-0.155	0.139
-651.828	264.228	-0.203	0.355
-650.814	-145.905	0.262	0.023
-649.799	-107.662	-0.087	0.019
-648.784	-148.772	-0.179	0.015
-647.770	800.000	-0.095	-0.356
-646.755	-200.000	0.020	-0.220
-645.741	-41.493	0.218	0.113
-644.726	-120.309	0.334	0.057
-643.711	655.179	-0.096	0.247
-642.697	76.566	-0.023	-0.025
-641.682	122.189	-0.130	0.163
-640.668	-200.000	0.010	-0.092
-639.653	-3.558	0.120	-0.084
-638.638	16.070	-0.098	0.077
-637.624	126.205	-0.186	0.237
-636.609	-45.891	0.236	-0.117
-635.595	-19.106	-0.066	0.041
-634.580	179.891	-0.151	-0.222
-633.565	800.000	0.156	-0.434
-632.551	-65.825	-0.177	0.071
-631.536	-142.190	0.097	-0.010
-630.522	-4.210	0.060	0.042
-629.507	-154.689	-0.289	0.019
-628.492	43.479	0.180	0.166
-627.478	-142.372	-0.276	0.027
-626.463	-51.979	-0.247	-0.115
-625.449	800.000	0.039	-0.122
-624.434	-6.112	-0.050	-0.034
-623.419	-200.000	-0.017	0.479
-622.405	17.589	-0.155	-0.123
-621.390	-71.677	-0.183	-0.069
-620.376	98.166	-0.118	0.136
-619.361	-200.000	-0.013	-0.092
-618.346	44.986	-0.039	-0.036
-617.332	240.851	0.080	0.134
-616.317	-37.061	0.073	0.039
-615.303	490.181	0.082	0.189
-614.288	44.323	-0.250	-0.230
-613.273	72.833	0.314	-0.329
-612.259	-55.533	0.192	0.086
-611.244	700.429	0.084	-0.223
-610.230	-200.000	0.047	0.387
-609.215	218.511	-0.206	0.329
-608.201	46.770	0.055	-0.052
-607.186	-190.402	0.202	-0.002
-606.171	10.228	-0.108	0.083
-605.157	800.000	-0.039	0.163
-604.142	27.000	-0.089	-0.075
-603.128	-200.000	-0.008	-0.047
-602.113	-103.114	-0.159	-0.038
-601.098	668.089	-0.117	0.303
-600.084	-97.364	0.243	0.064
-599.069	153.319	0.126	0.173
-598.055	147.779	-0.363	0.491
-597.040	-1.308	-0.321	-0.227
-596.025	-103.138	-0.175	-0.041
-595.011	-200.000	0.004	-0.345
-593.996	-22.066	-0.145	0.088
-592.982	-139.098	0.187	-0.020
-591.967	-54.264	0.205	-0.093
-590.952	-36.462	0.174	-0.094
-589.938	-200.000	0.020	0.180
-588.923	36.954	-0.228	0.202
-587.909	-138.032	-0.205	-0.023
-586.894	-27.427	-0.075	0.044
-585.879	-84.651	-0.395	-0.125
-584.865	800.000	0.121	-0.368
-583.850	274.049	-0.206	-0.365
-582.836	-200.000	-0.007	-0.128
-581.821	93.443	0.182	0.207
-580.806	14.616	0.307	-0.240
-579.792	-73.354	-0.222	0.081
-578.777	-48.807	0.261	0.125
-577.763	-69.350	-0.136	0.052
-576.748	-23.978	-0.160	-0.096
-575.733	59.904	0.063	0.062
-574.719	-200.000	-0.027	-0.309
-573.704	-200.000	0.014	-0.235
-572.690	-98.408	-0.163	-0.042
-571.675	407.701	0.208	-0.442
-570.661	-159.305	0.196	0.011
-569.646	-21.311	0.174	-0.106
-568.631	800.000	0.071	-0.235
-567.617	113.892	0.092	-0.112
-566.602	-200.000	-0.032	-0.186
-565.588	327.103	0.167	0.321
-564.573	-10.995	0.088	0.058
-563.558	-60.056	0.018	-0.008
-562.544	-174.751	-0.272	-0.008
-561.529	488.287	0.167	0.381
-560.515	523.325	-0.129	-0.304
-559.500	-116.737	0.276	0.051
-558.485	710.279	-0.092	0.244
-557.471	-200.000	0.052	0.283
-556.456	-79.355	0.349	-0.118
-555.442	108.853	0.192	-0.229
-554.427	-175.972	-0.139	-0.004
-553.412	46.996	0.092	-0.085
-552.398	51.689	-0.097	0.093
-551.383	-200.000	-0.035	0.248
-550.369	800.000	-0.086	0.341
-549.354	-200.000	0.035	0.193
-548.339	-89.192	-0.047	-0.014
-547.325	-200.000	-0.009	0.154
-546.310	800.000	-0.108	-0.310
-545.296	173.736	0.116	0.167
-544.281	-200.000	0.042	-0.187
-543.266	-130.124	-0.337	0.046
-542.252	-200.000	-0.005	0.197
-541.237	-41.766	-0.085	0.044
-540.223	800.000	0.038	0.143
-539.208	171.206	0.123	0.176
-538.193	-140.303	0.102	0.011
-537.179	800.000	0.094	0.394
-536.164	175.019	0.088	0.128
-535.150	-200.000	-0.169	0.000
-534.135	-200.000	0.019	-0.180
-533.121	-200.000	0.005	0.051
-532.106	800.000	-0.138	-0.509
-531.091	158.585	0.149	-0.207
-530.077	496.683	-0.031	0.072
-529.062	174.500	-0.083	-0.120
-528.048	-119.990	-0.173	0.030
-527.033	-154.720	-0.035	-0.002
-526.018	-18.993	-0.201	-0.125
-525.004	-23.875	-0.326	0.195
-523.989	-0.859	-0.165	0.117
-522.975	800.000	-0.064	0.216
-521.960	22.460	0.247	0.202
-520.945	136.641	-0.122	0.159
-519.931	295.549	0.159	0.291
-518.916	-29.590	0.311	0.178
-517.902	-90.041	0.282	-0.082
-516.887	-62.919	-0.141	0.058
-515.872	46.440	0.185	-0.171
-514.858	-112.891	-0.266	0.053
-513.843	68.308	0.031	-0.032
-512.829	-106.872	0.187	0.041
-511.814	-64.468	-0.330	-0.134
-510.799	47.932	0.145	0.135
-509.785	-200.000	0.017	-0.474
-508.770	235.380	-0.032	-0.053
-507.756	0.925	-0.204	-0.147
-506.741	-59.461	-0.095	-0.041
-505.726	-48.022	-0.353	0.170
-504.712	39.458	0.073	0.065
-503.697	-200.000	0.003	0.425
-502.683	-55.532	-0.077	-0.035
-501.668	11.453	-0.117	0.090
-500.653	163.150	0.117	0.164
-499.639	-185.498	0.145	-0.002
-498.624	-6.092	0.230	-0.157
-497.610	-85.020	-0.244	0.076
-496.595	155.235	0.043	-0.060
-495.581	800.000	-0.063	-0.251
-494.566	653.981	0.103	-0.263
-493.551	800.000	0.029	-0.091
-492.537	-163.554	0.253	0.012
-491.522	22.662	-0.355	0.290
-490.508	236.082	-0.175	0.289
-489.493	-200.000	-0.027	-0.243
-488.478	-83.224	0.077	-0.025
-487.464	-200.000	-0.003	-0.042
-486.449	-144.299	-0.116	0.011
-485.435	101.151	-0.184	-0.214
-484.420	35.747	0.207	-0.182
-483.405	1.325	-0.071	0.051
-482.391	64.395	0.233	-0.235
-481.376	411.180	-0.187	0.397
-480.362	-46.261	0.378	0.186
-479.347	-150.622	-0.317	-0.024
-478.332	141.668	-0.166	0.219
-477.318	-102.505	0.148	0.035
-476.303	99.560	0.177	0.205
-475.289	53.846	-0.267	0.256
-474.274	-137.816	-0.187	0.021
-473.259	-126.692	0.199	0.029
-472.245	-63.933	-0.054	-0.022
-471.230	-32.236	0.153	-0.085
-470.216	105.412	-0.062	0.073
-469.201	736.610	0.106	0.282
-468.186	136.121	-0.040	-0.051
-467.172	-200.000	0.027	-0.204
-466.157	-109.807	-0.222	0.047
-465.143	-163.008	0.129	-0.006
-464.128	-200.000	-0.036	-0.231
-463.113	-136.401	0.159	0.018
-462.099	-66.100	-0.185	0.074
-461.084	267.990	-0.074	0.130
-460.070	355.954	0.091	0.180
-459.055	-10.949	0.255	-0.168
-458.040	745.158	0.064	-0.171
-457.026	-200.000	-0.035	-0.330
-456.011	9.574	0.176	0.133
-454.997	53.390	-0.158	0.151
-453.982	-200.000	-0.002	0.117
-452.968	-123.596	0.310	0.049
-451.953	23.119	-0.092	-0.075
-450.938	452.422	0.024	-0.053
-449.924	-200.000	-0.008	-0.212
-448.909	-167.364	-0.151	-0.006
-447.895	208.902	0.087	-0.136
-446.880	-131.561	-0.019	0.003
-445.865	-0.141	-0.295	-0.209
-444.851	-200.000	0.005	0.064
-443.836	159.423	0.054	-0.075
-442.822	702.510	0.062	0.164
-441.807	-148.640	-0.392	0.032
-440.792	-200.000	-0.029	-0.201
-439.778	19.839	-0.130	0.104
-438.763	-200.000	0.006	0.435
-437.749	800.000	0.055	-0.171
-436.734	800.000	0.019	-0.057
-435.719	-26.454	0.170	-0.099
-434.705	-107.462	0.157	-0.034
-433.690	-200.000	0.008	0.164
-432.676	800.000	-0.046	0.160
-431.661	-200.000	0.006	-0.090
-430.646	-142.393	-0.183	0.018
-429.632	97.975	-0.180	-0.206
-428.617	-200.000	-0.008	0.040
-427.603	510.953	0.073	-0.168
-426.588	-200.000	-0.042	-0.266
-425.573	-19.487	0.149	0.092
-424.559	-119.703	-0.230	0.040
-423.544	-200.000	0.039	-0.174
-422.530	15.932	-0.234	-0.183
-421.515	-131.701	-0.304	-0.040
-420.500	-140.659	0.292	0.030
-419.486	-75.839	-0.334	0.118
-418.471	191.013	0.209	0.313
-417.457	-90.213	0.022	0.006
-416.442	-106.620	0.136	0.030
-415.428	80.028	0.131	0.141
-414.413	-118.563	-0.363	0.064
-413.398	57.145	0.315	0.306
-412.384	256.828	0.051	-0.087
-411.369	-80.317	-0.095	0.032
-410.355	162.578	-0.184	0.257
-409.340	-200.000	-0.012	-0.075
-408.325	800.000	0.105	0.421
-407.311	-71.539	0.470	-0.175
-406.296	800.000	0.037	0.117
-405.282	182.860	-0.078	0.115
-404.267	-20.676	-0.226	0.138
-403.252	-121.723	-0.141	-0.023
-402.238	-30.974	0.047	0.026
-401.223	-14.234	0.119	-0.077
-400.209	-20.159	0.109	-0.067
-399.194	800.000	0.031	-0.112
-398.179	-198.595	-0.156	-0.001
-397.165	195.517	0.101	-0.153
-396.150	-200.000	-0.038	0.372
-395.136	-139.686	0.219	0.023
-394.121	-200.000	0.051	-0.310
-393.106	-50.233	-0.220	0.103
-392.092	-200.000	0.062	0.352
-391.077	-35.207	0.190	0.103
-390.063	15.725	-0.237	-0.185
-389.048	146.252	0.056	0.074
-388.033	12.581	-0.362	0.278
-387.019	-51.779	0.048	-0.022
-386.004	371.360	0.104	-0.210
-384.990	-200.000	-0.048	0.307
-383.975	41.454	0.096	0.087
-382.960	-97.263	0.134	0.035
-381.946	187.092	-0.149	-0.221
-380.931	456.494	0.110	0.243
-379.917	-200.000	-0.057	-0.360
-378.902	302.334	0.145	0.267
-377.888	46.536	-0.045	-0.042
-376.873	22.891	0.103	-0.084
-375.858	263.664	-0.126	0.218
-374.844	-118.021	0.177	0.032
-373.829	-136.591	0.424	-0.049
-372.815	-119.845	-0.260	0.044
-371.800	-200.000	0.014	-0.150
-370.785	800.000	0.054	0.236
-369.771	20.677	-0.063	-0.051
-368.756	-13.611	-0.164	-0.105
-367.742	-29.852	0.173	-0.098
-366.727	-143.222	0.318	-0.030
-365.712	-200.000	0.046	-0.252
-364.698	-200.000	-0.013	-0.287
-363.683	58.477	0.048	-0.047
-362.669	656.842	0.072	0.185
-361.654	-75.855	0.117	0.041
-360.639	723.173	-0.081	-0.213
-359.625	-200.000	0.001	0.358
-358.610	88.638	0.137	0.151
-357.596	-107.687	0.066	-0.014
-356.581	178.766	0.108	-0.157
-355.566	800.000	0.068	0.203
-354.552	-160.160	-0.161	0.009
-353.537	-34.534	0.010	-0.005
-352.523	-200.000	0.022	-0.107
-351.508	175.013	0.058	-0.083
-350.493	800.000	-0.032	0.105
-349.479	800.000	-0.045	0.141
-348.464	800.000	0.023	0.075
-347.450	-131.011	0.232	-0.031
-346.435	-200.000	-0.025	-0.132
-345.420	8.179	0.227	0.169
-344.406	-36.051	-0.297	0.160
-343.391	-200.000	-0.065	0.341
-342.377	-46.770	-0.136	0.066
-341.362	162.368	-0.100	0.139
-340.348	499.106	-0.062	0.142
-339.333	585.105	-0.117	-0.285
-338.318	-35.677	-0.294	-0.158
-337.304	-59.177	-0.184	-0.079
-336.289	800.000	0.098	-0.285
-335.275	261.470	-0.036	-0.062
-334.260	-111.975	0.106	0.021
-333.245	104.625	0.162	0.189
-332.231	-119.871	0.357	0.061
-331.216	233.611	-0.126	-0.205
-330.202	-200.000	0.000	0.035
-329.187	-200.000	-0.011	-0.374
-328.172	-43.043	-0.186	-0.094
-327.158	60.202	-0.149	-0.147
-326.143	-117.357	-0.446	0.080
-325.129	96.895	-0.225	0.256
-324.114	800.000	0.026	-0.099
-323.099	-98.984	0.095	0.024
-322.085	184.355	0.160	-0.235
-321.070	-200.000	-0.020	-0.102
-320.056	800.000	0.052	-0.148
-319.041	44.072	0.254	-0.231
-318.026	800.000	0.060	-0.177
-317.012	-76.499	0.134	0.047
-315.997	-85.489	-0.128	0.039
-314.983	179.776	0.131	-0.190
-313.968	77.874	-0.116	0.123
-312.953	791.306	-0.108	0.295
-311.939	204.609	-0.073	0.112
-310.924	-89.912	0.272	-0.079
-309.910	-105.881	0.244	0.055
-308.895	-140.317	-0.439	-0.046
-307.880	-3.613	0.035	-0.024
-306.866	-98.117	-0.193	0.049
-305.851	25.762	0.165	0.137
-304.837	-200.000	0.028	0.154
-303.822	800.000	-0.068	0.223
-302.807	-92.156	0.250	-0.070
-301.793	-16.751	0.194	-0.122
-300.778	-18.325	-0.102	-0.064
-299.764	115.985	0.091	-0.111
-298.749	-123.071	0.188	-0.030
-297.735	-20.088	-0.303	0.186
-296.720	800.000	0.061	-0.183
-295.705	-101.698	0.244	0.059
-294.691	44.513	0.085	0.077
-293.676	800.000	0.015	0.060
-292.662	170.431	-0.131	-0.185
-291.647	-200.000	0.039	-0.375
-290.632	-85.439	0.280	-0.086
-289.618	-174.159	-0.064	-0.002
-288.603	-200.000	0.039	0.329
-287.589	-110.324	-0.240	-0.050
-286.574	-80.393	-0.116	-0.038
-285.559	-200.000	-0.038	-0.180
-284.545	427.930	-0.074	0.158
-283.530	-200.000	0.019	0.248
-282.516	-146.602	0.202	0.017
-281.501	454.504	0.111	0.243
-280.486	-49.874	0.220	0.103
-279.472	-200.000	-0.003	0.335
-278.457	-111.670	-0.162	-0.033
-277.443	800.000	0.053	0.226
-276.428	-9.113	0.135	0.089
-275.413	-152.981	-0.220	-0.015
-274.399	-90.202	-0.383	0.110
-273.384	800.000	-0.054	-0.166
-272.370	-41.506	0.258	0.132
-271.355	-120.001	-0.580	-0.099
-270.340	35.355	-0.317	0.276
-269.326	-112.659	0.034	-0.007
-268.311	162.161	-0.070	-0.098
-267.297	-5.343	0.256	-0.174
-266.282	-200.000	-0.003	0.145
-265.267	333.179	0.066	0.126
-264.253	-153.690	-0.090	0.006
-263.238	-200.000	-0.001	-0.081
-262.224	800.000	0.076	-0.241
-261.209	800.000	-0.038	-0.107
-260.195	-42.983	-0.141	-0.071
-259.180	-122.408	0.328	-0.053
-258.165	67.882	0.167	-0.169
-257.151	800.000	-0.056	-0.226
-256.136	35.512	0.168	0.146
-255.122	141.942	-0.068	0.089
-254.107	124.563	-0.176	0.220
-253.092	145.956	0.088	0.117
-252.078	-24.714	0.083	0.049
-251.063	41.502	-0.132	-0.119
-250.049	-54.157	0.163	-0.073
-249.034	-55.618	0.114	-0.051
-248.019	10.624	-0.087	0.065
-247.005	-106.499	0.104	-0.023
-245.990	218.163	0.059	0.093
-244.976	-129.678	-0.126	-0.017
-243.961	-78.262	0.360	0.122
-242.946	-24.273	-0.354	-0.209
-241.932	131.129	-0.131	-0.166
-240.917	46.202	0.123	-0.113
-239.903	-200.000	-0.053	-0.271
-238.888	2.429	-0.138	-0.099
-237.873	-37.251	0.177	-0.094
-236.859	239.218	-0.038	-0.062
-235.844	13.726	-0.191	-0.147
-234.830	-62.515	-0.040	-0.017
-233.815	-96.723	0.332	-0.086
-232.800	800.000	0.060	-0.174
-231.786	81.572	-0.165	0.177
-230.771	-162.718	0.207	-0.010
-229.757	152.415	0.163	0.220
-228.742	66.775	0.108	0.109
-227.727	1.284	0.190	0.135
-226.713	481.950	0.067	0.151
-225.698	39.634	-0.165	0.147
-224.684	55.920	-0.057	-0.055
-223.669	-19.981	0.189	-0.115
-222.655	-32.193	-0.310	-0.172
-221.640	97.039	-0.038	0.043
-220.625	88.332	-0.418	-0.459
-219.611	7.467	-0.038	0.028
-218.596	359.344	0.101	-0.200
-217.582	-104.040	0.121	0.028
-216.567	15.689	0.280	0.218
-215.552	91.285	0.234	0.260
-214.538	49.196	-0.071	-0.066
-213.523	-113.981	-0.342	0.066
-212.509	800.000	-0.061	-0.189
-211.494	-166.206	0.184	-0.008
-210.479	-200.000	-0.073	0.349
-209.465	-28.177	0.324	0.185
-208.450	800.000	-0.098	-0.272
-207.436	-40.554	-0.017	0.009
-206.421	-200.000	0.003	-0.180
-205.406	-108.039	0.300	-0.064
-204.392	609.355	0.038	0.093
-203.377	21.290	0.062	0.050
-202.363	674.551	0.097	-0.250
-201.348	4.828	-0.291	0.212
-200.333	117.064	0.079	-0.096
-199.319	-200.000	0.010	-0.182
-198.304	592.200	0.091	-0.223
-197.290	-118.883	0.284	-0.049
-196.275	-56.787	-0.227	-0.099
-195.260	139.162	0.156	-0.203
-194.246	800.000	0.066	-0.189
-193.231	243.194	-0.181	0.299
-192.217	800.000	0.041	0.157
-191.202	-110.148	0.271	-0.056
-190.187	-200.000	0.047	0.260
-189.173	-153.087	0.193	0.013
-188.158	48.465	0.155	-0.143
-187.144	188.750	0.052	-0.076
-186.129	-200.000	0.036	0.179
-185.114	-26.230	0.090	0.052
-184.100	13.300	0.191	0.146
-183.085	800.000	-0.122	-0.378
-182.071	93.820	-0.144	0.161
-181.056	-38.995	0.307	-0.159
-180.042	706.545	0.213	0.554
-179.027	38.655	0.136	-0.119
-178.012	800.000	0.149	-0.506
-176.998	-63.602	0.405	0.164
-175.983	800.000	0.036	0.103
-174.969	236.317	-0.208	-0.339
-173.954	159.936	-0.071	0.097
-172.939	117.625	0.006	-0.007
-171.925	267.616	-0.015	-0.025
-170.910	16.985	-0.160	-0.125
-169.896	-200.000	-0.023	0.223
-168.881	-125.594	-0.125	0.019
-167.866	-200.000	-0.019	-0.443
-166.852	-93.095	-0.295	0.081
-165.837	-151.641	-0.297	-0.022
-164.823	57.694	0.255	0.246
-163.808	-200.000	0.019	-0.113
-162.793	-165.221	-0.310	-0.013
-161.779	-93.886	-0.276	0.075
-160.764	-13.017	-0.084	-0.054
-159.750	800.000	0.168	-0.485
-158.735	-200.000	-0.025	-0.480
-157.720	-87.147	0.197	0.059
-156.706	140.830	-0.083	-0.108
-155.691	-200.000	0.004	0.030
-154.677	800.000	-0.055	-0.157
-153.662	-200.000	-0.012	0.070
-152.647	-30.303	-0.313	0.175
-151.633	95.150	0.200	-0.225
-150.618	182.000	-0.178	0.258
-149.604	50.238	0.210	0.196
-148.589	128.772	0.145	-0.182
-147.574	-109.061	0.074	-0.016
-146.560	-200.000	-0.069	0.325
-145.545	-105.950	-0.458	0.102
-144.531	-128.260	0.275	0.039
-143.516	-16.108	0.206	0.129
-142.502	-114.714	0.258	-0.049
-141.487	161.201	0.167	0.229
-140.472	121.552	-0.186	0.229
-139.458	457.148	-0.130	0.284
-138.443	271.810	0.191	-0.331
-137.429	-200.000	0.059	-0.349
-136.414	-200.000	0.026	0.245
-135.399	-170.669	0.303	-0.010
-134.385	238.245	-0.056	-0.091
-133.370	-105.969	0.043	0.010
-132.356	-51.074	0.149	-0.069
-131.341	-200.000	0.015	-0.106
-130.326	-200.000	0.004	0.021
-129.312	4.952	-0.157	0.114
-128.297	-65.774	-0.311	0.123
-127.283	-200.000	0.208	0.001
-126.268	-200.000	-0.035	0.196
-125.253	45.952	0.297	-0.271
-124.239	-200.000	-0.018	0.125
-123.224	207.564	-0.058	-0.089
-122.210	84.605	-0.106	0.115
-121.195	2.691	-0.267	0.191
-120.180	-200.000	0.026	-0.151
-119.166	25.579	0.040	-0.033
-118.151	-94.807	-0.127	0.034
-117.137	-200.000	-0.067	0.348
-116.122	-60.440	-0.283	-0.118
-115.107	38.027	-0.218	0.191
-114.093	-200.000	0.039	0.288
-113.078	211.162	-0.112	0.174
-112.064	-19.845	0.037	0.022
-111.049	41.980	-0.050	-0.044
-110.034	321.665	-0.150	0.281
-109.020	-200.000	-0.055	-0.257
-108.005	-200.000	-0.046	0.214
-106.991	-200.000	-0.051	-0.245
-105.976	202.898	0.231	-0.351
-104.962	-200.000	-0.006	-0.205
-103.947	-104.839	0.142	0.032
-102.932	-66.975	-0.241	-0.094
-101.918	98.803	0.115	0.131
-100.903	728.949	-0.097	-0.254
-99.889	1.810	0.132	-0.094
-98.874	-200.000	-0.036	0.238
-97.859	-200.000	0.043	-0.214
-96.845	-200.000	-0.008	0.312
-95.830	42.990	0.245	-0.220
-94.816	-191.888	0.147	0.001
-93.801	11.883	-0.150	0.113
-92.786	331.952	-0.083	0.158
-91.772	-200.000	-0.027	0.398
-90.757	573.842	-0.063	0.151
-89.743	-113.489	0.134	-0.026
-88.728	119.637	0.088	0.107
-87.713	-200.000	0.022	0.203
-86.699	208.002	0.102	-0.156
-85.684	-96.855	0.346	0.089
-84.670	-200.000	0.007	0.300
-83.655	-200.000	-0.057	0.392
-82.640	133.343	-0.106	-0.135
-81.626	800.000	0.072	0.226
-80.611	-19.769	-0.146	0.089
-79.597	274.064	0.022	0.038
-78.582	-172.779	0.326	0.010
-77.567	3.612	-0.166	-0.119
-76.553	138.363	-0.096	0.124
-75.538	800.000	0.046	0.138
-74.524	-200.000	-0.004	-0.022
-73.509	-200.000	-0.046	-0.239
-72.494	-200.000	-0.037	0.262
-71.480	31.988	0.116	-0.099
-70.465	-124.749	-0.153	-0.023
-69.451	-200.000	-0.033	0.330
-68.436	-21.718	-0.175	-0.105
-67.422	-10.868	0.115	0.074
-66.407	800.000	0.054	0.199
-65.392	-170.025	0.251	0.009
-64.378	28.111	0.137	0.113
-63.363	-120.761	0.423	0.070
-62.349	-84.453	0.415	-0.129
-61.334	18.885	-0.953	-0.750
-60.319	-12.678	0.750	0.481
-59.305	170.949	-0.604	-0.850
-58.290	301.351	0.716	1.299
-57.276	609.610	0.586	1.437
-56.261	-200.000	104.075	587.725
-55.246	485.686	1440.582	3224.203
-54.232	153.013	2616.538	3514.803
-53.217	109.284	2165.285	2545.953
-52.203	41.106	1697.908	1506.531
-51.188	33.712	1509.720	1289.497
-50.173	31.232	1482.500	1249.624
-49.159	52.011	1535.911	1436.735
-48.144	52.629	1553.760	1457.588
-47.130	33.893	1510.585	1291.260
-46.115	30.871	1495.400	1257.857
-45.100	30.509	1492.527	1252.947
-44.086	30.471	1490.585	1251.017
-43.071	30.494	1488.312	1249.209
-42.057	30.436	1486.734	1247.451
-41.042	30.544	1485.326	1246.945
-40.027	30.440	1484.015	1245.097
-39.013	30.474	1482.237	1243.780
-37.998	30.474	1480.719	1242.455
-36.984	30.476	1479.777	1241.634
-35.969	30.552	1478.910	1241.359
-34.954	30.419	1477.984	1239.647
-33.940	30.526	1475.752	1238.438
-32.925	30.518	1474.742	1237.488
-31.911	30.498	1473.386	1236.170
-30.896	30.636	1471.442	1235.406
-29.881	30.515	1470.636	1233.879
-28.867	30.628	1469.040	1233.239
-27.852	30.530	1468.110	1231.759
-26.838	30.643	1466.423	1231.043
-25.823	30.552	1464.969	1229.174
-24.809	30.581	1463.188	1227.819
-23.794	30.619	1462.159	1227.158
-22.779	30.604	1461.096	1226.120
-21.765	30.576	1460.202	1225.139
-20.750	30.548	1458.897	1223.811
-19.736	30.597	1457.623	1223.016
-18.721	30.477	1456.475	1221.214
-17.706	30.511	1455.712	1220.751
-16.692	30.499	1454.903	1219.942
-15.677	30.485	1453.161	1218.343
-14.663	30.481	1452.660	1217.846
-13.648	30.523	1451.723	1217.291
-12.633	30.531	1450.824	1216.538
-11.619	30.503	1449.692	1215.357
-10.604	30.511	1448.984	1214.767
-9.590	30.506	1448.132	1213.971
-8.575	30.421	1447.664	1212.977
-7.560	30.531	1446.255	1212.467
-6.546	30.428	1445.143	1210.816
-5.531	30.397	1445.326	1210.720
-4.517	30.464	1443.609	1209.669
-3.502	30.524	1442.141	1208.782
-2.487	30.506	1441.182	1207.811
-1.473	30.420	1440.129	1206.320
-0.458	30.426	1439.481	1205.770
0.556	28.658	1429.484	1194.478
1.571	25.417	1404.371	1152.634
2.586	21.782	1345.080	1081.492
3.600	20.026	1263.731	1005.803
4.615	18.735	1218.956	962.850
5.629	16.175	1163.283	905.074
6.644	8.177	1078.322	798.974
7.659	1.439	1037.530	736.121
8.673	0.321	1032.303	726.956
9.688	0.090	1029.291	723.661
10.702	-0.031	1028.009	722.114
11.717	-0.099	1025.877	720.227
12.731	2.532	1028.279	734.478
13.746	10.810	1039.154	782.165
14.761	17.004	1046.501	817.560
15.775	17.440	1046.256	819.395
16.790	16.495	1043.949	812.976
17.804	15.438	1041.577	805.982
18.819	14.587	1039.962	800.583
19.834	14.211	1038.569	797.637
20.848	13.936	1037.535	795.453
21.863	13.632	1036.829	793.389
22.877	13.356	1036.318	791.608
23.892	13.149	1035.258	789.736
24.907	13.179	1034.382	789.143
25.921	13.032	1034.087	788.144
26.936	13.082	1033.335	787.742
27.950	13.135	1033.008	787.674
28.965	13.168	1031.653	786.729
29.980	13.209	1031.175	786.490
30.994	13.241	1029.878	785.584
32.009	13.371	1029.269	785.668
33.023	13.411	1028.282	785.036
34.038	13.448	1027.700	784.696
35.053	13.391	1026.446	783.400
36.067	13.257	1025.955	782.320
37.082	13.225	1025.040	781.403
38.096	13.185	1024.443	780.688
39.111	13.285	1023.600	780.447
40.126	13.352	1023.228	780.410
41.140	13.284	1021.982	779.074
42.155	13.094	1021.271	777.566
43.169	13.211	1019.738	776.883
44.184	13.070	1019.168	775.716
45.199	13.019	1018.233	774.696
46.213	13.128	1016.880	774.111
47.228	13.082	1016.144	773.263
48.242	13.184	1014.660	772.542
49.257	13.243	1013.997	772.246
50.271	13.281	1012.651	771.329
51.286	13.263	1012.046	770.716
52.301	13.388	1011.443	770.775
53.315	13.245	1010.780	769.533
54.330	13.221	1009.624	768.475
55.344	13.109	1009.183	767.551
56.359	13.156	1008.615	767.269
57.374	13.124	1007.487	766.195
58.388	13.083	1006.623	765.280
59.403	13.119	1005.858	764.795
60.417	13.165	1004.930	764.236
61.432	13.100	1004.391	763.458
62.447	13.071	1003.711	762.737
63.461	13.127	1002.692	762.156
64.476	13.080	1001.998	761.344
65.490	13.057	1001.007	760.417
66.505	13.011	1000.721	759.923
67.520	13.070	1000.009	759.585
68.534	13.113	999.105	759.030
69.549	13.095	998.481	758.403
70.563	13.056	997.547	757.450
71.578	13.018	996.774	756.620
72.593	13.113	995.680	756.160
73.607	13.035	994.589	754.906
74.622	12.838	994.259	753.689
75.636	13.121	992.951	753.921
76.651	12.995	992.691	753.085
77.666	13.090	991.332	752.421
78.680	13.000	991.469	752.045
79.695	12.963	990.889	751.373
80.709	13.000	990.292	751.020
81.724	13.090	989.131	750.483
82.739	13.114	988.372	749.949
83.753	13.159	987.660	749.547
84.768	13.181	987.025	749.099
85.782	13.313	986.158	748.969
86.797	13.337	985.219	748.300
87.812	13.349	984.230	747.537
88.826	13.201	983.874	746.534
89.841	13.203	983.092	745.881
90.855	13.267	982.425	745.600
91.870	13.379	981.605	745.417
92.884	13.245	981.346	744.551
93.899	13.327	980.339	744.087
94.914	13.516	979.177	743.988
95.928	13.420	978.699	743.128
96.943	13.471	977.823	742.627
97.957	13.372	977.389	741.788
98.972	13.346	976.374	740.837
99.987	13.442	975.207	740.314
101.001	13.308	975.541	739.902
102.016	13.315	974.118	738.788
103.030	13.356	973.233	738.234
104.045	13.249	972.776	737.344
105.060	13.332	971.639	736.788
106.074	13.206	971.220	735.844
107.089	13.202	969.717	734.624
108.103	13.084	969.443	733.826
109.118	13.152	968.030	732.993
110.133	13.161	967.211	732.347
111.147	13.205	966.123	731.655
112.162	13.145	965.556	730.896
113.176	13.011	964.849	729.703
114.191	13.198	963.858	729.716
115.206	13.205	963.001	729.035
116.220	13.315	961.892	728.613
117.235	13.160	961.543	727.603
118.249	13.228	960.490	727.040
119.264	13.138	960.041	726.238
120.279	13.186	959.096	725.671
121.293	13.234	957.966	724.964
122.308	13.246	957.386	724.513
123.322	13.072	957.035	723.418
124.337	13.103	955.880	722.617
125.352	13.175	954.582	721.889
126.366	13.123	953.712	720.938
127.381	13.112	952.659	720.032
128.395	13.163	951.656	719.433
129.410	13.015	950.661	717.974
130.424	13.094	949.662	717.496
131.439	13.222	948.765	717.311
132.454	13.220	947.937	716.615
133.468	13.316	947.185	716.396
134.483	13.159	947.358	715.786
135.497	13.279	946.495	715.588
136.512	13.194	945.255	714.223
137.527	13.250	944.835	714.082
138.541	13.324	943.579	713.389
139.556	13.274	943.156	712.792
140.570	13.482	942.212	712.909
141.585	13.234	941.580	711.303
142.600	13.344	941.218	711.437
143.614	13.414	940.147	710.866
144.629	13.379	939.404	710.092
145.643	13.469	938.775	709.937
146.658	13.339	938.188	708.876
147.673	13.417	936.856	708.138
148.687	13.285	936.456	707.211
149.702	13.359	935.090	706.433
150.716	13.293	934.875	705.925
151.731	13.185	933.860	704.635
152.746	13.262	933.344	704.514
153.760	13.401	932.162	704.150
154.775	13.466	931.345	703.746
155.789	13.503	930.608	703.286
156.804	13.372	930.188	702.349
157.819	13.534	928.873	701.980
158.833	13.523	928.639	701.695
159.848	13.358	928.185	700.589
160.862	13.484	927.371	700.449
161.877	13.509	926.687	699.973
162.892	13.526	925.638	699.191
163.906	13.323	925.110	697.874
164.921	13.452	924.203	697.672
165.935	13.245	923.172	695.962
166.950	13.407	921.860	695.592
167.964	13.440	921.294	695.241
168.979	13.428	919.903	694.080
169.994	13.424	919.278	693.531
171.008	13.477	918.165	692.852
172.023	13.444	918.016	692.539
173.037	13.683	916.957	692.677
174.052	13.642	915.921	691.663
175.067	13.635	915.605	691.333
176.081	13.541	915.065	690.474
177.096	13.451	914.226	689.403
178.110	13.496	913.667	689.111
179.125	13.540	912.335	688.227
180.140	13.512	911.730	687.595
181.154	13.635	910.938	687.444
182.169	13.560	910.911	687.052
183.183	13.554	910.131	686.377
184.198	13.818	909.207	686.714
185.213	13.735	908.685	685.913
186.227	13.653	908.341	685.256
187.242	13.692	907.647	684.834
188.256	13.848	907.057	684.972
189.271	13.820	906.045	684.029
190.286	13.800	905.244	683.281
191.300	13.799	904.635	682.761
192.315	13.547	904.169	681.309
193.329	13.534	903.156	680.435
194.344	13.436	902.951	679.818
195.359	13.580	901.873	679.534
196.373	13.552	901.870	679.356
197.388	13.786	901.074	679.656
198.402	13.897	900.202	679.393
199.417	13.786	900.071	678.780
200.432	13.920	899.855	679.106
201.446	13.917	899.323	678.631
202.461	14.074	898.817	678.830
203.475	14.097	898.217	678.413
204.490	13.872	897.662	677.016
205.504	14.020	896.564	676.730
206.519	13.863	895.637	675.332
207.534	13.974	895.005	675.247
208.548	14.032	894.346	674.924
209.563	13.840	894.039	673.855
210.577	14.087	892.998	674.012
211.592	14.104	892.088	673.334
212.607	14.118	891.721	673.053
213.621	14.108	891.606	672.866
214.636	14.129	890.666	672.181
215.650	14.096	889.876	671.395
216.665	14.117	889.327	671.005
217.680	14.199	888.927	670.974
218.694	14.172	888.658	670.605
219.709	14.314	887.889	670.536
220.723	14.225	887.024	669.465
221.738	14.167	886.620	668.868
222.753	14.320	885.704	668.730
223.767	14.312	884.917	668.044
224.782	14.182	884.439	667.104
225.796	14.388	883.772	667.366
226.811	14.359	882.922	666.551
227.826	14.345	881.982	665.728
228.840	14.318	881.563	665.245
229.855	14.305	881.101	664.785
230.869	14.402	880.383	664.568
231.884	14.350	879.744	663.823
232.899	14.411	878.996	663.441
233.913	14.245	878.489	662.340
234.928	14.279	877.801	661.899
235.942	14.140	877.316	660.923
236.957	14.204	876.362	660.400
237.972	14.292	875.676	660.169
238.986	14.368	874.705	659.680
240.001	14.371	874.573	659.538
241.015	14.381	873.562	658.754
242.030	14.295	873.499	658.311
243.045	14.400	872.821	658.154
244.059	14.225	872.170	656.915
245.074	14.443	871.190	656.977
246.088	14.426	870.663	656.457
247.103	14.405	869.844	655.698
248.117	14.544	869.499	655.924
249.132	14.668	868.826	655.847
250.147	14.498	868.436	654.829
251.161	14.738	867.468	654.981
252.176	14.677	867.366	654.608
253.190	14.652	866.557	653.839
254.205	14.882	865.651	653.997
255.220	14.742	865.882	653.566
256.234	14.830	864.806	653.042
257.249	14.947	863.974	652.812
258.263	14.847	863.717	652.169
259.278	14.826	863.273	651.695
260.293	14.874	862.750	651.431
261.307	14.916	861.785	650.805
262.322	14.784	861.702	650.171
263.336	15.021	860.615	650.217
264.351	14.962	860.272	649.669
265.366	15.183	859.108	649.592
266.380	15.099	858.587	648.813
267.395	15.004	858.100	648.022
268.409	14.953	857.562	647.361
269.424	14.976	856.786	646.806
270.439	15.061	856.138	646.587
271.453	14.972	855.715	645.866
272.468	15.028	854.928	645.430
273.482	15.053	854.369	645.049
274.497	14.976	853.826	644.284
275.512	15.006	853.001	643.722
276.526	15.045	851.856	642.949
277.541	15.091	851.746	642.988
278.555	15.186	851.119	642.819
279.570	14.981	850.989	641.880
280.585	15.125	850.121	641.721
281.599	15.173	849.775	641.584
282.614	15.235	848.876	641.086
283.628	15.280	848.470	640.894
284.643	15.183	847.487	639.725
285.657	15.185	847.371	639.592
286.672	15.294	846.594	639.364
287.687	15.209	846.295	638.756
288.701	15.245	846.051	638.653
289.716	15.230	845.187	637.886
290.730	15.363	844.232	637.616
291.745	15.364	843.957	637.354
292.760	15.408	842.812	636.600
293.774	15.364	842.274	635.972
294.789	15.433	841.942	635.927
295.803	15.511	841.209	635.611
296.818	15.474	840.488	634.871
297.833	15.208	840.502	633.817
298.847	15.311	839.755	633.587
299.862	15.331	838.610	632.743
300.876	15.480	838.160	632.910
301.891	15.432	837.889	632.468
302.906	15.612	837.006	632.424
303.920	15.537	836.629	631.802
304.935	15.469	836.252	631.206
305.949	15.589	835.741	631.215
306.964	15.614	834.527	630.335
307.979	15.576	833.874	629.642
308.993	15.663	833.443	629.589
310.008	15.573	832.892	628.781
311.022	15.575	832.618	628.524
312.037	15.767	831.899	628.643
313.052	15.785	831.460	628.323
314.066	15.709	830.793	627.482
315.081	15.648	830.272	626.805
316.095	15.550	829.939	626.131
317.110	15.644	829.262	625.916
318.125	15.557	828.709	625.120
319.139	15.687	828.101	625.088
320.154	15.723	827.429	624.661
321.168	15.683	827.300	624.358
322.183	15.669	826.742	623.830
323.197	15.644	826.470	623.476
324.212	15.768	825.665	623.274
325.227	15.624	825.325	622.430
326.241	15.746	824.290	622.044
327.256	15.902	823.458	621.937
328.270	15.808	823.074	621.244
329.285	15.651	823.181	620.691
330.300	15.738	822.280	620.280
331.314	15.812	821.434	619.857
332.329	15.840	821.065	619.626
333.343	15.776	820.316	618.772
334.358	15.864	819.717	618.589
335.373	15.857	819.407	618.275
336.387	15.962	818.533	617.945
337.402	16.018	817.714	617.476
338.416	16.127	817.264	617.482
339.431	16.006	816.848	616.671
340.446	16.177	816.243	616.783
341.460	16.082	815.954	616.164
342.475	16.155	815.492	616.027
343.489	16.171	815.293	615.881
344.504	16.272	814.413	615.530
345.519	16.149	814.099	614.789
346.533	16.290	813.277	614.628
347.548	16.149	813.308	614.084
348.562	16.193	812.550	613.618
349.577	16.204	811.823	613.056
350.592	16.196	811.135	612.451
351.606	16.180	810.922	612.179
352.621	16.136	810.537	611.673
353.635	16.168	809.997	611.330
354.650	16.301	809.582	611.441
355.665	16.369	809.123	611.289
356.679	16.347	808.285	610.521
357.694	16.180	808.093	609.718
358.708	16.369	807.378	609.807
359.723	16.368	806.933	609.414
360.738	16.331	806.402	608.824
361.752	16.344	805.837	608.392
362.767	16.299	805.748	608.109
363.781	16.447	805.188	608.165
364.796	16.438	805.015	607.948
365.810	16.456	804.553	607.612
366.825	16.539	803.843	607.319
367.840	16.559	803.548	607.114
368.854	16.516	803.346	606.751
369.869	16.517	802.826	606.310
370.883	16.383	802.411	605.462
371.898	16.534	801.614	605.348
372.913	16.600	800.799	604.916
373.927	16.605	800.269	604.480
374.942	16.726	799.492	604.271
375.956	16.596	799.139	603.488
376.971	16.628	798.673	603.194
377.986	16.614	798.083	602.647
379.000	16.894	797.436	603.103
380.015	16.755	797.472	602.579
381.029	16.775	796.536	601.893
382.044	16.777	796.171	601.569
383.059	16.879	795.414	601.306
384.073	16.713	794.835	600.226
385.088	16.771	794.495	600.122
386.102	16.810	794.215	599.997
387.117	16.755	793.573	599.262
388.132	16.755	792.892	598.696
389.146	16.882	792.550	598.835
390.161	16.923	792.013	598.520
391.175	16.649	791.835	597.363
392.190	16.844	791.395	597.666
393.205	16.900	790.851	597.399
394.219	16.974	790.329	597.213
395.234	16.937	790.098	596.856
396.248	16.708	790.027	595.945
397.263	16.696	789.021	595.089
398.278	17.062	788.570	595.984
399.292	16.693	788.629	594.679
400.307	16.732	787.920	594.228
401.321	16.885	787.448	594.357
402.336	16.921	787.054	594.134
403.350	16.934	786.455	593.675
404.365	17.014	786.075	593.613
405.380	17.014	785.713	593.289
406.394	17.076	785.803	593.521
407.409	16.996	785.250	592.772
408.423	17.160	784.602	592.803
409.438	17.129	784.092	592.254
410.453	17.347	783.462	592.487
411.467	17.203	783.357	591.855
412.482	17.185	782.998	591.468
413.496	17.299	781.985	591.045
414.511	17.350	781.353	590.694
415.526	17.318	781.771	590.844
416.540	17.243	781.289	590.170
417.555	17.316	780.852	590.039
418.569	17.389	780.228	589.770
419.584	17.352	779.794	589.261
420.599	17.339	779.195	588.712
421.613	108.809	1289.751	1466.843
422.628	93.050	1364.124	1466.941
