DTS Sentinel unit serial number:	SN413079Multiplexer serial number:	ORYXHardware model number:	OX4-SRSoftware version number:	ORYX F/W v4.00 Oryx Data Collector v3.7.2.0data status	okinstallation	princeton_trtdifferential loss correction	single-endedforward channel	channel 3reverse channel	N/Adate	2019/09/17time	00:56:35forward acquisition time	60.00reverse acquisition time	0.00gamma	496.2192k internal	0.2324k external	0.2324temperature offset calibration	0.9944default loss term (dB/km)	0.3790temperature slope calibration	1.0000multiplexer offset coefficient	1.0000multiplexer slope coefficient	1.0000fibre end	0.00T internal ref (°C)	29.44T ext. ref 1 (°C)	0.11T ext. ref 2 (°C)	24.10length (m)	temperature (°C)	Stokes	anti-Stokes-747.200	17.700	-0.229	0.184
-746.185	-200.000	0.053	0.256
-745.171	-12.698	-0.258	0.170
-744.156	181.706	0.190	0.282
-743.142	178.822	0.070	-0.104
-742.127	-119.558	-0.257	-0.045
-741.112	310.918	0.014	-0.027
-740.098	61.910	0.229	0.231
-739.083	184.129	-0.091	0.137
-738.069	-26.211	-0.400	0.237
-737.054	-200.000	0.007	-0.232
-736.039	-200.000	-0.016	-0.212
-735.025	-57.945	0.270	-0.119
-734.010	-102.099	-0.584	-0.142
-732.996	-200.000	0.028	-0.255
-731.981	800.000	-0.010	-0.033
-730.966	473.731	-0.039	-0.090
-729.952	800.000	0.029	-0.090
-728.937	-125.118	-0.425	0.066
-727.923	256.345	0.092	0.158
-726.908	238.714	-0.179	-0.300
-725.894	-167.642	-0.368	-0.015
-724.879	-147.037	0.324	0.028
-723.864	36.657	-0.194	0.173
-722.850	-200.000	0.030	0.148
-721.835	-71.255	0.072	0.027
-720.821	668.073	-0.031	0.082
-719.806	-89.175	-0.278	0.083
-718.791	-37.926	-0.263	-0.141
-717.777	-99.430	0.253	-0.064
-716.762	22.650	-0.056	0.046
-715.748	-200.000	0.105	-0.525
-714.733	21.504	0.135	-0.111
-713.718	800.000	0.034	-0.110
-712.704	110.100	0.128	-0.155
-711.689	800.000	0.103	-0.366
-710.675	800.000	-0.127	-0.454
-709.660	-169.316	0.279	0.010
-708.645	-186.539	0.200	0.003
-707.631	-33.212	0.102	-0.057
-706.616	-21.290	0.196	-0.120
-705.602	-104.482	0.118	0.027
-704.587	-200.000	-0.034	0.390
-703.572	-200.000	0.019	0.222
-702.558	81.861	0.297	0.324
-701.543	-61.951	0.343	-0.145
-700.529	-15.994	0.084	-0.054
-699.514	-11.132	-0.289	-0.192
-698.499	586.322	-0.143	-0.354
-697.485	-55.712	-0.195	-0.088
-696.470	-200.000	0.010	-0.097
-695.456	-200.000	-0.013	-0.349
-694.441	-12.328	-0.401	0.264
-693.426	-164.714	-0.173	0.008
-692.412	-23.666	0.215	-0.130
-691.397	-119.139	-0.038	-0.007
-690.383	800.000	0.058	0.218
-689.368	-15.849	-0.069	-0.044
-688.354	-62.844	-0.184	-0.077
-687.339	-65.382	-0.191	-0.077
-686.324	328.140	-0.036	-0.069
-685.310	-29.278	0.171	-0.098
-684.295	-167.860	0.197	-0.008
-683.281	800.000	0.053	-0.221
-682.266	-88.006	-0.296	-0.089
-681.251	-108.409	0.241	0.052
-680.237	647.102	0.109	0.280
-679.222	86.053	-0.180	0.199
-678.208	-153.573	-0.362	0.025
-677.193	390.774	-0.173	-0.361
-676.178	800.000	-0.069	-0.226
-675.164	-174.261	-0.174	-0.005
-674.149	-27.856	-0.099	0.058
-673.135	394.230	0.074	0.156
-672.120	-59.137	-0.290	0.126
-671.105	33.701	0.209	-0.183
-670.091	284.967	-0.203	-0.368
-669.076	800.000	0.026	0.112
-668.062	-0.576	0.037	-0.027
-667.047	-14.184	-0.201	-0.131
-666.032	389.124	-0.084	-0.176
-665.018	713.125	0.101	0.269
-664.003	-200.000	-0.007	0.112
-662.989	229.296	-0.054	-0.088
-661.974	715.444	-0.071	0.189
-660.959	-130.705	-0.136	-0.018
-659.945	-91.515	0.131	-0.038
-658.930	335.884	0.169	-0.330
-657.916	623.323	-0.091	0.230
-656.901	-200.000	-0.020	0.450
-655.886	-111.173	0.254	-0.052
-654.872	365.707	-0.080	-0.162
-653.857	-161.616	-0.128	0.007
-652.843	800.000	0.038	-0.132
-651.828	105.230	0.141	-0.168
-650.814	-200.000	0.060	-0.451
-649.799	-18.775	-0.250	-0.156
-648.784	-121.142	-0.148	-0.025
-647.770	-200.000	-0.023	0.216
-646.755	-27.672	-0.150	-0.087
-645.741	-33.661	-0.291	-0.162
-644.726	-96.571	0.144	0.038
-643.711	-200.000	0.027	0.269
-642.697	-200.000	-0.006	-0.093
-641.682	-200.000	0.021	-0.230
-640.668	-200.000	0.042	0.334
-639.653	-200.000	-0.002	-0.161
-638.638	800.000	0.104	-0.306
-637.624	81.214	0.041	0.045
-636.609	-105.914	0.256	-0.058
-635.595	-200.000	0.065	-0.366
-634.580	3.912	0.157	-0.115
-633.565	11.165	-0.252	-0.193
-632.551	-173.282	0.287	-0.009
-631.536	30.515	-0.093	0.080
-630.522	-42.128	0.120	0.061
-629.507	261.297	-0.027	0.047
-628.492	57.376	-0.202	-0.198
-627.478	-29.549	0.278	0.160
-626.463	346.816	0.046	-0.091
-625.449	-114.580	-0.411	0.079
-624.434	-137.639	-0.397	-0.045
-623.419	179.103	-0.173	0.254
-622.405	120.518	0.068	-0.085
-621.390	-104.150	0.116	0.027
-620.376	134.448	0.088	0.114
-619.361	163.762	0.102	0.144
-618.346	-200.000	0.014	0.153
-617.332	59.618	-0.218	-0.215
-616.317	-200.000	-0.005	0.115
-615.303	202.398	0.072	-0.112
-614.288	-41.377	0.286	-0.148
-613.273	53.209	0.249	-0.240
-612.259	58.114	0.027	-0.026
-611.244	-43.170	-0.259	-0.132
-610.230	-192.846	-0.290	0.003
-609.215	-150.284	0.042	-0.003
-608.201	-200.000	0.008	0.106
-607.186	-84.904	-0.145	-0.046
-606.171	800.000	0.079	0.229
-605.157	-177.437	0.195	0.005
-604.142	278.689	-0.086	-0.154
-603.128	-200.000	0.001	0.053
-602.113	-107.603	0.064	-0.014
-601.098	-200.000	0.018	-0.161
-600.084	-94.494	-0.115	-0.032
-599.069	-131.854	0.137	-0.018
-598.055	561.699	-0.081	0.197
-597.040	-100.299	0.309	0.077
-596.025	156.841	-0.125	0.174
-595.011	-122.448	-0.190	0.031
-593.996	306.054	-0.097	0.181
-592.982	-74.540	-0.161	-0.058
-591.967	-48.748	0.172	0.083
-590.952	-65.995	0.247	0.099
-589.938	-200.000	0.008	0.058
-588.923	-200.000	0.012	-0.174
-587.909	-91.597	0.104	0.030
-586.894	-200.000	-0.016	0.118
-585.879	800.000	0.086	0.279
-584.865	-62.458	-0.302	0.126
-583.850	267.951	0.156	-0.273
-582.836	-200.000	0.043	0.252
-581.821	121.340	-0.148	0.185
-580.806	0.299	-0.212	0.152
-579.792	-57.476	-0.197	0.087
-578.777	-110.455	-0.111	0.023
-577.763	-128.766	0.191	-0.027
-576.748	-98.763	-0.297	-0.076
-575.733	329.876	-0.085	-0.165
-574.719	60.620	-0.219	-0.218
-573.704	19.903	0.069	-0.056
-572.690	-152.247	-0.240	0.017
-571.675	-82.464	-0.014	-0.005
-570.661	-200.000	-0.012	-0.063
-569.646	-200.000	-0.012	-0.260
-568.631	-200.000	-0.004	0.073
-567.617	800.000	-0.068	0.221
-566.602	-200.000	-0.034	-0.222
-565.588	-133.370	-0.270	-0.034
-564.573	-47.286	-0.038	-0.018
-563.558	-154.411	-0.175	-0.012
-562.544	-200.000	0.012	-0.101
-561.529	-108.453	0.225	-0.049
-560.515	134.373	0.166	0.215
-559.500	60.456	-0.171	0.169
-558.485	-3.257	0.192	0.134
-557.471	114.913	-0.089	-0.109
-556.456	196.915	-0.119	0.182
-555.442	-29.881	0.089	0.051
-554.427	102.168	-0.127	0.149
-553.412	389.206	0.118	-0.245
-552.398	-36.508	-0.258	0.139
-551.383	-14.638	0.040	-0.026
-550.369	-71.489	-0.130	-0.049
-549.354	-36.813	0.269	0.145
-548.339	217.424	0.101	0.161
-547.325	-48.204	-0.127	0.061
-546.310	-97.591	-0.571	0.148
-545.296	-200.000	-0.004	-0.138
-544.281	-73.492	0.179	-0.065
-543.266	800.000	-0.180	-0.548
-542.252	492.651	0.168	-0.386
-541.237	83.908	-0.127	-0.138
-540.223	-82.024	-0.241	-0.079
-539.208	181.989	0.109	-0.160
-538.193	-2.742	-0.271	0.189
-537.179	-120.057	0.104	0.018
-536.164	5.494	0.463	-0.342
-535.150	224.807	0.127	0.206
-534.135	317.165	0.102	0.193
-533.121	-7.556	-0.263	0.178
-532.106	-162.566	0.332	0.016
-531.091	-51.935	-0.381	-0.178
-530.077	-74.260	0.082	-0.030
-529.062	-157.072	-0.233	0.014
-528.048	-126.500	-0.352	0.052
-527.033	800.000	0.053	0.230
-526.018	800.000	-0.047	-0.184
-525.004	736.084	0.089	0.240
-523.989	45.038	-0.246	-0.227
-522.975	-15.101	-0.135	-0.086
-521.960	-43.188	-0.379	0.192
-520.945	45.695	-0.063	0.058
-519.931	368.387	0.111	0.226
-518.916	-200.000	0.055	0.250
-517.902	-200.000	0.003	0.444
-516.887	-112.471	-0.126	-0.025
-515.872	-200.000	0.038	-0.603
-514.858	-115.451	-0.213	0.040
-513.843	-11.396	-0.112	-0.073
-512.829	189.173	0.037	0.055
-511.814	-79.003	-0.236	-0.080
-510.799	-37.115	-0.337	0.180
-509.785	629.942	0.072	0.181
-508.770	-141.932	0.214	0.021
-507.756	221.473	-0.110	-0.177
-506.741	525.115	-0.115	-0.272
-505.726	6.652	-0.270	-0.201
-504.712	-30.187	0.090	-0.051
-503.697	-114.346	-0.155	0.030
-502.683	-61.545	0.325	0.136
-501.668	-99.074	0.213	0.054
-500.653	53.770	-0.163	-0.156
-499.639	-65.258	-0.233	-0.094
-498.624	-84.535	0.135	0.043
-497.610	-114.266	0.166	-0.032
-496.595	-7.306	0.140	-0.095
-495.581	0.772	0.224	-0.160
-494.566	94.231	0.099	0.112
-493.551	800.000	0.058	0.186
-492.537	-58.954	-0.262	0.113
-491.522	-65.581	0.122	-0.049
-490.508	-58.294	-0.182	-0.079
-489.493	39.353	-0.172	-0.154
-488.478	326.438	-0.184	-0.352
-487.464	419.831	-0.089	0.190
-486.449	-200.000	-0.026	0.196
-485.435	18.473	-0.060	0.048
-484.420	-200.000	-0.042	0.248
-483.405	484.304	-0.077	-0.175
-482.391	-200.000	-0.004	-0.067
-481.376	203.989	0.162	0.250
-480.362	-200.000	0.008	-0.300
-479.347	-53.690	-0.179	0.082
-478.332	-136.303	-0.041	0.005
-477.318	-200.000	-0.060	0.268
-476.303	36.910	-0.044	-0.039
-475.289	-115.475	0.175	-0.033
-474.274	324.217	-0.166	0.316
-473.259	262.021	-0.093	0.160
-472.245	125.359	-0.114	0.143
-471.230	-27.592	-0.148	0.086
-470.216	125.003	-0.243	0.305
-469.201	172.913	0.142	-0.204
-468.186	-200.000	0.003	-0.040
-467.172	639.513	-0.049	-0.124
-466.157	-81.231	-0.219	-0.072
-465.143	-69.332	0.201	-0.077
-464.128	-161.781	0.034	0.002
-463.113	2.769	-0.266	0.193
-462.099	-200.000	-0.029	-0.357
-461.084	169.381	-0.058	-0.083
-460.070	800.000	-0.044	-0.167
-459.055	-123.720	0.224	-0.035
-458.040	287.697	0.148	-0.267
-457.026	-55.337	0.384	0.172
-456.011	19.167	0.087	-0.070
-454.997	9.142	0.130	-0.098
-453.982	-200.000	0.009	-0.199
-452.968	-112.288	0.124	0.025
-451.953	-200.000	0.008	-0.088
-450.938	492.046	-0.143	-0.326
-449.924	12.157	-0.331	-0.254
-448.909	800.000	-0.091	-0.326
-447.895	-130.722	0.216	0.029
-446.880	355.349	0.176	0.350
-445.865	-139.188	-0.117	0.013
-444.851	-0.629	0.200	0.142
-443.836	492.485	0.113	-0.257
-442.822	139.555	-0.130	0.171
-441.807	149.642	0.139	-0.188
-440.792	-128.499	0.175	0.025
-439.778	-200.000	-0.009	-0.298
-438.763	-106.397	-0.123	0.028
-437.749	-87.119	0.112	-0.034
-436.734	-200.000	0.023	0.143
-435.719	-200.000	0.053	0.268
-434.705	-200.000	0.063	-0.297
-433.690	-127.082	0.260	-0.038
-432.676	-161.079	-0.089	0.005
-431.661	-110.625	-0.096	-0.020
-430.646	-86.919	0.210	0.064
-429.632	-119.014	0.115	-0.020
-428.617	448.642	0.053	0.116
-427.603	154.393	0.042	-0.058
-426.588	-27.610	0.093	0.054
-425.573	552.497	0.048	-0.115
-424.559	-200.000	0.002	0.260
-423.544	17.719	-0.304	0.241
-422.530	517.546	0.066	-0.154
-421.515	-26.039	0.057	0.034
-420.500	12.749	0.040	0.031
-419.486	428.281	0.056	-0.122
-418.471	-139.959	-0.424	-0.045
-417.457	195.892	-0.023	0.035
-416.442	443.234	0.143	0.312
-415.428	-150.813	-0.186	0.014
-414.413	30.233	0.299	-0.255
-413.398	-28.246	0.108	0.062
-412.384	-67.492	0.183	0.072
-411.369	431.663	-0.098	-0.211
-410.355	482.068	-0.063	0.143
-409.340	800.000	-0.106	-0.373
-408.325	272.458	-0.116	0.203
-407.311	78.956	-0.059	-0.063
-406.296	39.650	0.241	0.215
-405.282	58.839	-0.054	-0.053
-404.267	-161.155	-0.379	-0.020
-403.252	-200.000	0.028	-0.165
-402.238	-200.000	0.010	0.168
-401.223	800.000	0.090	0.256
-400.209	41.947	0.083	-0.075
-399.194	-10.789	0.324	0.213
-398.179	-134.433	-0.165	-0.020
-397.165	89.174	0.189	0.209
-396.150	-200.000	-0.016	0.098
-395.136	192.884	-0.032	-0.048
-394.121	-200.000	0.059	-0.368
-393.106	326.376	0.062	-0.118
-392.092	-200.000	0.027	0.302
-391.077	-200.000	0.017	0.113
-390.063	800.000	-0.052	-0.165
-389.048	-140.179	0.226	0.024
-388.033	800.000	0.057	0.228
-387.019	-26.733	-0.231	0.135
-386.004	800.000	-0.063	0.220
-384.990	-200.000	-0.014	0.236
-383.975	425.076	0.153	0.329
-382.960	800.000	0.056	0.181
-381.946	-101.563	-0.229	0.055
-380.931	303.393	0.047	-0.086
-379.917	-200.000	0.010	-0.339
-378.902	593.825	0.097	-0.238
-377.888	241.274	0.206	-0.342
-376.873	-86.844	-0.124	0.038
-375.858	-126.690	0.129	0.019
-374.844	-46.525	-0.102	-0.050
-373.829	662.031	-0.046	0.118
-372.815	-94.377	-0.235	0.064
-371.800	-17.891	0.252	0.158
-370.785	800.000	-0.031	0.131
-369.771	237.306	0.110	0.182
-368.756	15.715	0.027	0.022
-367.742	8.570	-0.112	0.084
-366.727	-36.230	0.094	-0.050
-365.712	-144.997	0.407	-0.037
-364.698	340.585	0.135	0.263
-363.683	644.262	-0.053	-0.135
-362.669	800.000	-0.087	-0.334
-361.654	-200.000	0.005	-0.072
-360.639	27.092	-0.190	0.159
-359.625	695.837	0.225	-0.588
-358.610	-200.000	-0.044	0.355
-357.596	-200.000	0.002	0.173
-356.581	-200.000	0.060	-0.331
-355.566	322.568	-0.015	0.028
-354.552	85.222	0.239	-0.261
-353.537	15.804	-0.245	-0.192
-352.523	658.192	0.134	0.343
-351.508	219.937	0.140	-0.223
-350.493	26.645	-0.127	0.105
-349.479	18.019	-0.190	0.151
-348.464	-140.391	0.331	-0.034
-347.450	80.324	0.299	-0.319
-346.435	-81.855	0.309	0.101
-345.420	65.937	0.269	-0.271
-344.406	148.646	0.137	0.184
-343.391	527.453	0.095	0.223
-342.377	452.305	0.172	0.377
-341.362	-60.706	-0.247	-0.104
-340.348	469.274	0.044	-0.099
-339.333	130.275	-0.076	-0.097
-338.318	-49.978	-0.335	0.158
-337.304	92.815	0.159	0.179
-336.289	7.054	0.182	-0.135
-335.275	-4.665	-0.283	-0.194
-334.260	16.121	0.017	0.013
-333.245	-156.513	0.131	-0.008
-332.231	-59.920	0.280	-0.119
-331.216	-52.152	0.256	0.118
-330.202	-147.105	-0.480	-0.041
-329.187	120.036	0.097	0.120
-328.172	-40.137	0.161	0.083
-327.158	-137.329	-0.214	0.024
-326.143	0.622	0.106	-0.075
-325.129	-105.842	0.303	-0.068
-324.114	-49.249	-0.160	0.076
-323.099	-200.000	-0.021	0.174
-322.085	-65.937	-0.270	0.107
-321.070	76.114	0.164	-0.173
-320.056	757.868	0.096	-0.258
-319.041	110.732	0.063	-0.075
-318.026	51.152	-0.257	-0.242
-317.012	172.236	-0.012	0.017
-315.997	-200.000	0.002	0.182
-314.983	-200.000	-0.006	-0.205
-313.968	13.210	0.270	-0.207
-312.953	-28.551	0.040	0.023
-311.939	-99.248	-0.349	0.087
-310.924	-8.476	0.325	-0.217
-309.910	-166.556	0.504	-0.021
-308.895	800.000	0.021	0.070
-307.880	-108.163	0.070	-0.015
-306.866	57.961	-0.180	-0.175
-305.851	-78.802	-0.175	-0.059
-304.837	14.160	0.157	-0.121
-303.822	-141.484	-0.226	0.023
-302.807	-39.607	-0.111	-0.058
-301.793	-137.817	0.032	0.004
-300.778	800.000	0.128	0.477
-299.764	214.009	-0.110	-0.172
-298.749	-81.921	0.048	-0.016
-297.735	-109.434	0.276	0.058
-296.720	-114.328	0.393	-0.075
-295.705	-200.000	-0.021	-0.400
-294.691	800.000	-0.031	-0.128
-293.676	711.670	0.173	-0.455
-292.662	-69.257	-0.205	0.078
-291.647	-5.032	0.183	-0.125
-290.632	49.450	0.173	-0.162
-289.618	-200.000	0.504	-0.000
-288.603	-68.858	0.211	-0.081
-287.589	-200.000	0.028	-0.150
-286.574	-59.229	-0.148	-0.063
-285.559	-11.759	-0.216	0.141
-284.545	22.142	0.074	-0.060
-283.530	-200.000	-0.053	0.275
-282.516	101.431	-0.052	0.060
-281.501	345.341	-0.025	0.049
-280.486	-200.000	-0.010	-0.140
-279.472	-200.000	-0.018	0.145
-278.457	-97.479	0.324	0.084
-277.443	-134.867	0.129	-0.015
-276.428	-53.990	-0.210	0.095
-275.413	-121.839	-0.141	0.023
-274.399	-200.000	-0.002	0.252
-273.384	-25.484	-0.093	-0.055
-272.370	-170.378	-0.288	0.010
-271.355	131.600	0.195	0.248
-270.340	-200.000	0.077	0.431
-269.326	68.459	0.044	0.045
-268.311	374.512	-0.097	0.196
-267.297	-82.489	-0.246	0.079
-266.282	800.000	-0.072	0.230
-265.267	43.929	-0.093	-0.084
-264.253	-57.146	0.237	-0.103
-263.238	800.000	0.143	-0.439
-262.224	73.669	-0.216	0.224
-261.209	355.839	0.208	0.409
-260.195	-131.051	-0.181	-0.024
-259.180	699.501	-0.103	0.269
-258.165	562.787	0.118	-0.282
-257.151	488.450	-0.089	-0.201
-256.136	-103.572	0.317	-0.074
-255.122	800.000	0.057	-0.224
-254.107	-200.000	0.045	-0.272
-253.092	-200.000	-0.007	-0.220
-252.078	101.424	0.010	-0.011
-251.063	156.442	-0.080	0.110
-250.049	-200.000	0.003	0.222
-249.034	62.149	0.289	0.286
-248.019	-58.654	0.142	0.061
-247.005	-200.000	-0.003	0.328
-245.990	800.000	-0.114	-0.345
-244.976	688.212	-0.080	-0.207
-243.961	-200.000	-0.023	-0.125
-242.946	498.501	-0.115	-0.262
-241.932	800.000	0.063	-0.184
-240.917	196.840	0.154	-0.233
-239.903	69.424	-0.238	0.243
-238.888	15.411	0.059	0.046
-237.873	-53.803	0.094	-0.042
-236.859	153.978	-0.169	-0.230
-235.844	-78.246	-0.163	-0.056
-234.830	90.145	-0.109	0.121
-233.815	-200.000	0.031	0.211
-232.800	-24.280	0.322	0.190
-231.786	-101.018	0.161	-0.039
-230.771	-80.889	0.234	-0.077
-229.757	-60.176	0.453	0.191
-228.742	51.441	0.058	0.054
-227.727	-128.852	-0.226	-0.031
-226.713	-112.179	0.245	-0.049
-225.698	-31.313	-0.077	-0.043
-224.684	-125.548	0.254	0.038
-223.669	83.908	0.284	-0.306
-222.655	-95.925	0.049	-0.013
-221.640	304.363	0.123	-0.226
-220.625	2.154	-0.121	-0.086
-219.611	-200.000	0.044	0.411
-218.596	-153.717	0.286	0.019
-217.582	-88.560	-0.063	0.019
-216.567	193.636	-0.021	0.031
-215.552	59.216	-0.144	-0.140
-214.538	-2.330	0.200	-0.138
-213.523	94.737	0.327	0.368
-212.509	-87.499	-0.430	0.129
-211.494	265.568	-0.062	-0.107
-210.479	800.000	0.066	-0.235
-209.465	28.515	-0.158	0.132
-208.450	564.649	-0.152	0.365
-207.436	-161.968	-0.260	0.013
-206.421	133.179	-0.114	0.146
-205.406	-200.000	-0.033	0.376
-204.392	-200.000	-0.029	0.176
-203.377	-157.994	-0.303	-0.018
-202.363	53.067	-0.084	-0.080
-201.348	-200.000	0.024	-0.292
-200.333	-116.903	0.073	0.013
-199.319	104.710	-0.223	-0.259
-198.304	800.000	0.062	-0.173
-197.290	-130.518	-0.429	0.057
-196.275	-200.000	0.003	0.404
-195.260	-166.135	-0.171	0.007
-194.246	-60.469	-0.276	0.116
-193.231	800.000	0.035	0.131
-192.217	-200.000	-0.007	-0.213
-191.202	-172.045	0.180	-0.006
-190.187	-76.682	-0.202	0.070
-189.173	800.000	-0.054	0.194
-188.158	-89.116	-0.192	0.056
-187.144	-136.226	0.345	0.040
-186.129	800.000	-0.063	0.216
-185.114	-66.278	0.478	-0.188
-184.100	-119.100	-0.422	-0.073
-183.085	267.128	0.149	-0.257
-182.071	-200.000	0.045	-0.289
-181.056	-200.000	0.011	-0.158
-180.042	370.073	-0.085	0.171
-179.027	616.980	0.181	0.448
-178.012	284.810	0.090	-0.160
-176.998	-200.000	0.023	-0.139
-175.983	-38.007	0.255	-0.134
-174.969	800.000	0.068	0.206
-173.954	-72.866	0.292	-0.106
-172.939	6.779	-0.558	0.410
-171.925	800.000	0.031	-0.100
-170.910	683.618	0.150	-0.386
-169.896	168.092	-0.145	0.204
-168.881	162.997	0.006	-0.009
-167.866	-200.000	-0.024	-0.138
-166.852	359.812	0.136	-0.268
-165.837	134.470	0.140	0.179
-164.823	261.134	-0.072	0.123
-163.808	679.535	-0.090	-0.230
-162.793	681.201	0.070	0.181
-161.779	-142.455	-0.403	-0.039
-160.764	-200.000	0.040	-0.325
-159.750	366.928	0.287	0.571
-158.735	-48.048	-0.243	0.116
-157.720	-112.819	0.160	0.031
-156.706	433.594	-0.098	-0.211
-155.691	297.014	-0.080	0.144
-154.677	494.911	-0.076	0.172
-153.662	-200.000	0.011	0.224
-152.647	764.667	-0.044	-0.117
-151.633	800.000	-0.099	0.288
-150.618	-108.455	-0.241	0.051
-149.604	800.000	-0.035	0.115
-148.589	-200.000	-0.003	-0.065
-147.574	-49.548	-0.348	-0.164
-146.560	165.505	-0.044	0.062
-145.545	-42.450	0.119	0.060
-144.531	-200.000	-0.044	0.263
-143.516	29.944	0.177	0.149
-142.502	164.737	0.087	0.121
-141.487	-137.012	0.316	0.036
-140.472	-35.243	0.212	0.114
-139.458	-14.103	0.052	0.033
-138.443	-102.429	0.190	0.045
-137.429	223.209	0.152	-0.242
-136.414	-50.402	-0.412	0.192
-135.399	765.534	-0.020	-0.054
-134.385	116.701	0.137	0.166
-133.370	-200.000	0.033	0.249
-132.356	67.282	-0.151	-0.152
-131.341	-200.000	-0.017	-0.074
-130.326	15.956	-0.087	-0.067
-129.312	-200.000	0.023	-0.216
-128.297	-200.000	-0.010	-0.116
-127.283	800.000	0.069	0.262
-126.268	-67.265	-0.395	0.153
-125.253	210.824	-0.127	-0.197
-124.239	-34.534	-0.213	0.115
-123.224	-200.000	0.013	-0.289
-122.210	-40.884	0.121	-0.062
-121.195	764.912	-0.066	0.176
-120.180	244.472	-0.079	-0.130
-119.166	232.849	-0.126	0.204
-118.151	-25.115	0.096	-0.056
-117.137	496.751	-0.173	-0.393
-116.122	31.562	-0.129	0.109
-115.107	-131.649	0.435	-0.056
-114.093	-31.383	-0.149	0.082
-113.078	29.338	-0.384	0.321
-112.064	-145.111	0.077	0.007
-111.049	800.000	-0.028	-0.079
-110.034	-28.453	-0.081	-0.046
-109.020	800.000	0.077	-0.276
-108.005	-59.403	0.179	0.076
-106.991	-29.418	0.134	-0.076
-105.976	15.410	0.244	-0.188
-104.962	225.772	-0.084	0.134
-103.947	0.831	0.094	0.066
-102.932	800.000	-0.030	-0.105
-101.918	573.318	-0.008	0.018
-100.903	-47.113	0.085	-0.041
-99.889	5.426	0.107	-0.078
-98.874	-200.000	-0.005	-0.250
-97.859	-72.697	0.167	-0.061
-96.845	-200.000	0.027	0.177
-95.830	-21.393	0.322	-0.193
-94.816	15.749	-0.125	-0.096
-93.801	23.606	-0.102	0.083
-92.786	183.754	-0.063	-0.092
-91.772	17.127	-0.099	0.077
-90.757	-36.783	0.140	-0.074
-89.743	-110.236	-0.126	0.026
-88.728	-131.251	0.194	0.025
-87.713	-200.000	-0.017	-0.191
-86.699	632.367	-0.026	-0.066
-85.684	-200.000	0.042	-0.251
-84.670	-62.675	-0.346	-0.141
-83.655	-39.704	0.191	0.098
-82.640	-77.128	0.102	-0.035
-81.626	53.900	-0.089	0.085
-80.611	-92.573	-0.143	0.039
-79.597	-67.633	0.131	-0.050
-78.582	106.906	0.187	0.218
-77.567	-13.622	-0.296	-0.188
-76.553	271.623	-0.244	-0.423
-75.538	304.383	-0.061	0.110
-74.524	-200.000	-0.084	-0.384
-73.509	800.000	-0.080	-0.270
-72.494	-148.219	0.440	-0.036
-71.480	539.501	-0.121	0.283
-70.465	24.655	-0.283	0.230
-69.451	-1.073	0.178	0.124
-68.436	334.376	0.235	-0.447
-67.422	-121.693	-0.324	-0.053
-66.407	800.000	-0.002	-0.006
-65.392	800.000	0.084	-0.276
-64.378	25.291	0.117	0.095
-63.363	-177.205	-0.107	-0.003
-62.349	-200.000	-0.035	0.163
-61.334	93.427	-1.062	-1.181
-60.319	466.831	0.341	0.750
-59.305	-200.000	-0.130	-0.965
-58.290	206.337	0.656	1.003
-57.276	-200.000	0.262	1.429
-56.261	-200.000	109.687	595.082
-55.246	442.017	1489.325	3203.503
-54.232	146.035	2668.819	3516.962
-53.217	104.851	2176.491	2521.016
-52.203	39.499	1708.875	1504.325
-51.188	32.490	1524.117	1293.678
-50.173	30.231	1498.040	1256.212
-49.159	51.500	1554.294	1450.749
-48.144	51.418	1570.624	1465.372
-47.130	32.669	1527.002	1297.147
-46.115	29.616	1511.891	1263.423
-45.100	29.512	1508.077	1259.477
-44.086	29.521	1506.011	1257.760
-43.071	29.495	1503.727	1255.623
-42.057	29.426	1502.129	1253.772
-41.042	29.352	1501.432	1252.636
-40.027	29.443	1499.762	1251.813
-39.013	29.381	1498.473	1250.266
-37.998	29.398	1496.769	1248.909
-36.984	29.449	1495.656	1248.278
-35.969	29.341	1494.744	1246.734
-34.954	29.434	1493.289	1246.105
-33.940	29.395	1491.525	1244.316
-32.925	29.409	1490.098	1243.175
-31.911	29.449	1488.814	1242.324
-30.896	29.441	1487.923	1241.476
-29.881	29.546	1486.677	1241.091
-28.867	29.422	1485.391	1239.133
-27.852	29.488	1483.969	1238.342
-26.838	29.475	1482.546	1237.018
-25.823	29.509	1481.126	1236.016
-24.809	29.479	1479.324	1234.260
-23.794	29.497	1477.997	1233.224
-22.779	29.552	1477.024	1232.734
-21.765	29.529	1475.669	1231.394
-20.750	29.630	1474.662	1231.183
-19.736	29.564	1473.125	1229.410
-18.721	29.401	1472.520	1227.771
-17.706	29.496	1471.106	1227.177
-16.692	29.348	1470.345	1225.511
-15.677	29.458	1468.797	1224.900
-14.663	29.445	1467.911	1224.026
-13.648	29.496	1467.153	1223.680
-12.633	29.513	1465.984	1222.774
-11.619	29.369	1466.003	1221.786
-10.604	29.340	1464.801	1220.546
-9.590	29.310	1463.915	1219.555
-8.575	29.409	1463.040	1219.438
-7.560	29.335	1462.091	1218.110
-6.546	29.450	1461.425	1218.263
-5.531	29.341	1460.553	1216.767
-4.517	29.375	1458.959	1215.617
-3.502	29.357	1458.128	1214.756
-2.487	29.434	1456.955	1214.239
-1.473	29.465	1455.957	1213.566
-0.458	29.338	1455.049	1211.926
0.556	27.683	1445.120	1201.321
1.571	24.820	1420.677	1162.332
2.586	21.582	1360.723	1093.002
3.600	20.036	1278.497	1017.786
4.615	18.874	1232.861	974.783
5.629	16.347	1175.784	915.883
6.644	8.217	1090.106	808.042
7.659	1.253	1049.299	743.685
8.673	0.328	1043.971	735.327
9.688	0.084	1041.044	732.015
10.702	-0.028	1038.934	729.924
11.717	0.057	1037.153	729.018
12.731	2.669	1039.746	743.455
13.746	10.802	1051.188	791.313
14.761	17.024	1058.413	827.101
15.775	17.543	1057.690	828.992
16.790	16.419	1055.993	822.123
17.804	15.495	1053.467	815.596
18.819	14.629	1051.899	810.110
19.834	14.159	1050.284	806.513
20.848	13.926	1049.324	804.575
21.863	13.447	1049.138	802.044
22.877	13.358	1047.914	800.607
23.892	13.179	1047.301	799.202
24.907	13.045	1046.657	797.991
25.921	13.082	1045.385	797.129
26.936	13.152	1044.639	796.827
27.950	13.151	1044.335	796.521
28.965	13.175	1043.675	796.063
29.980	13.305	1042.160	795.461
30.994	13.338	1041.422	794.985
32.009	13.415	1040.734	794.759
33.023	13.418	1039.856	794.032
34.038	13.381	1039.571	793.567
35.053	13.372	1038.201	792.408
36.067	13.330	1037.470	791.581
37.082	13.245	1036.651	790.480
38.096	13.281	1036.176	790.219
39.111	13.371	1035.202	789.836
40.126	13.305	1034.672	789.046
41.140	13.332	1032.816	787.688
42.155	13.264	1032.157	786.793
43.169	13.051	1031.355	785.099
44.184	13.158	1030.141	784.613
45.199	13.080	1029.363	783.584
46.213	13.024	1028.741	782.774
47.228	13.172	1027.256	782.277
48.242	13.206	1026.393	781.709
49.257	13.064	1026.062	780.719
50.271	13.153	1024.498	779.878
51.286	13.367	1023.209	779.837
52.301	13.311	1022.852	779.232
53.315	13.261	1022.516	778.670
54.330	13.235	1021.177	777.462
55.344	13.083	1020.758	776.357
56.359	13.217	1019.394	775.882
57.374	13.148	1018.875	775.093
58.388	13.180	1017.807	774.365
59.403	13.069	1017.255	773.353
60.417	13.206	1016.512	773.364
61.432	13.089	1015.836	772.234
62.447	13.063	1015.206	771.565
63.461	13.051	1013.937	770.473
64.476	13.120	1013.137	770.121
65.490	12.958	1012.365	768.710
66.505	13.053	1011.622	768.521
67.520	13.092	1010.424	767.726
68.534	13.073	1009.967	767.221
69.549	13.100	1009.371	766.827
70.563	13.084	1008.441	765.977
71.578	13.049	1008.222	765.583
72.593	12.944	1007.499	764.478
73.607	12.999	1006.217	763.693
74.622	13.056	1005.044	762.995
75.636	13.015	1004.247	762.135
76.651	12.919	1003.542	761.092
77.666	12.968	1002.949	760.799
78.680	12.963	1002.202	760.142
79.695	12.978	1001.347	759.497
80.709	13.033	1000.691	759.183
81.724	13.234	999.664	759.259
82.739	13.208	998.820	758.433
83.753	13.148	998.787	758.068
84.768	13.149	997.863	757.302
85.782	13.304	997.115	757.378
86.797	13.266	996.438	756.624
87.812	13.330	995.426	756.078
88.826	13.384	994.806	755.789
89.841	13.249	993.795	754.338
90.855	13.326	993.128	754.117
91.870	13.295	992.614	753.517
92.884	13.460	991.668	753.485
93.899	13.254	991.239	752.155
94.914	13.434	990.275	752.174
95.928	13.375	989.676	751.383
96.943	13.385	988.855	750.739
97.957	13.401	988.007	750.101
98.972	13.393	987.098	749.307
99.987	13.279	986.978	748.635
101.001	13.316	985.693	747.761
102.016	13.301	984.985	747.089
103.030	13.328	983.895	746.318
104.045	13.269	983.142	745.417
105.060	13.290	982.386	744.871
106.074	13.364	981.391	744.387
107.089	13.250	980.451	743.094
108.103	13.207	979.472	742.092
109.118	13.224	978.498	741.365
110.133	13.137	978.215	740.696
111.147	13.197	977.096	740.049
112.162	13.083	976.492	739.019
113.176	13.195	975.280	738.538
114.191	13.143	974.495	737.644
115.206	13.205	973.908	737.413
116.220	13.309	972.867	737.022
117.235	13.187	972.292	735.979
118.249	13.211	971.507	735.425
119.264	13.255	970.373	734.695
120.279	13.074	969.762	733.365
121.293	13.112	968.843	732.774
122.308	13.259	967.843	732.604
123.322	13.204	967.175	731.790
124.337	13.173	966.125	730.793
125.352	13.151	964.987	729.773
126.366	13.172	963.912	728.987
127.381	13.189	962.707	728.086
128.395	13.124	961.939	727.153
129.410	13.093	960.944	726.200
130.424	13.051	960.297	725.465
131.439	13.248	958.975	725.266
132.454	13.283	958.235	724.793
133.468	13.351	957.641	724.581
134.483	13.273	956.976	723.670
135.497	13.232	956.326	722.935
136.512	13.173	955.724	722.160
137.527	13.249	954.585	721.566
138.541	13.192	954.406	721.116
139.556	13.139	953.831	720.390
140.570	13.233	952.646	719.838
141.585	13.283	951.970	719.482
142.600	13.365	951.684	719.559
143.614	13.453	950.277	718.813
144.629	13.352	949.977	718.082
145.643	13.482	948.809	717.701
146.658	13.516	947.897	717.098
147.673	13.520	947.083	716.433
148.687	13.417	946.084	715.169
149.702	13.376	945.494	714.485
150.716	13.285	944.716	713.440
151.731	13.280	943.649	712.548
152.746	13.382	943.209	712.594
153.760	13.308	942.379	711.585
154.775	13.338	941.601	711.061
155.789	13.445	940.568	710.680
156.804	13.470	939.990	710.287
157.819	13.551	938.889	709.738
158.833	13.504	938.613	709.266
159.848	13.478	938.130	708.730
160.862	13.537	937.419	708.379
161.877	13.493	936.654	707.554
162.892	13.547	935.214	706.631
163.906	13.409	934.907	705.750
164.921	13.366	934.032	704.841
165.935	13.329	933.187	703.983
166.950	13.388	931.690	703.044
167.964	13.402	931.475	702.878
168.979	13.435	929.953	701.808
169.994	13.510	929.114	701.431
171.008	13.555	928.528	701.118
172.023	13.522	927.749	700.329
173.037	13.494	927.037	699.609
174.052	13.567	926.563	699.500
175.067	13.578	925.512	698.687
176.081	13.578	924.997	698.239
177.096	13.466	924.046	696.989
178.110	13.454	923.397	696.386
179.125	13.540	922.465	695.985
180.140	13.547	921.714	695.384
181.154	13.512	921.155	694.754
182.169	13.537	920.420	694.244
183.183	13.609	920.248	694.355
184.198	13.681	919.186	693.794
185.213	13.610	918.776	693.124
186.227	13.604	917.936	692.402
187.242	13.655	917.586	692.291
188.256	13.832	916.678	692.284
189.271	13.761	916.027	691.434
190.286	13.950	915.251	691.573
191.300	13.701	914.657	690.027
192.315	13.689	913.595	689.116
193.329	13.704	912.450	688.253
194.344	13.639	912.480	687.948
195.359	13.769	911.733	687.860
196.373	13.644	911.358	686.998
197.388	13.747	910.860	686.990
198.402	13.806	910.490	686.892
199.417	13.885	910.144	686.898
200.432	13.917	909.397	686.407
201.446	14.130	909.086	686.992
202.461	13.953	908.995	686.131
203.475	14.142	907.978	686.082
204.490	14.013	907.616	685.215
205.504	14.109	906.142	684.435
206.519	13.967	905.704	683.462
207.534	14.052	904.802	683.072
208.548	13.904	904.043	681.828
209.563	13.982	903.727	681.852
210.577	13.924	903.180	681.141
211.592	13.956	902.507	680.705
212.607	14.131	901.653	680.716
213.621	14.220	901.028	680.548
214.636	14.207	900.299	679.881
215.650	14.256	899.434	679.369
216.665	14.150	899.179	678.686
217.680	14.214	898.888	678.665
218.694	14.264	898.050	678.177
219.709	14.278	897.810	677.991
220.723	14.218	896.834	676.953
221.738	14.264	896.058	676.494
222.753	14.042	895.630	675.207
223.767	14.329	894.476	675.443
224.782	14.289	894.147	674.971
225.796	14.222	893.339	674.032
226.811	14.226	892.867	673.632
227.826	14.308	891.906	673.177
228.840	14.344	891.462	672.931
229.855	14.306	890.522	672.006
230.869	14.321	889.962	671.586
231.884	14.385	889.322	671.299
232.899	14.263	888.898	670.431
233.913	14.199	888.211	669.593
234.928	14.383	887.499	669.740
235.942	14.254	886.663	668.530
236.957	14.334	885.781	668.129
237.972	14.228	885.518	667.443
238.986	14.262	884.762	666.951
240.001	14.174	884.510	666.351
241.015	14.303	883.671	666.177
242.030	14.341	883.065	665.812
243.045	14.430	882.476	665.666
244.059	14.351	881.630	664.650
245.074	14.502	880.704	664.498
246.088	14.426	880.141	663.713
247.103	14.486	879.567	663.457
248.117	14.511	879.183	663.211
249.132	14.475	878.728	662.664
250.147	14.530	878.005	662.277
251.161	14.720	877.382	662.502
252.176	14.723	876.426	661.736
253.190	14.720	876.355	661.609
254.205	14.745	875.384	660.920
255.220	14.894	874.764	660.982
256.234	14.877	874.092	660.348
257.249	14.737	873.619	659.380
258.263	14.860	872.887	659.253
259.278	14.936	872.436	659.152
260.293	14.889	871.860	658.477
261.307	14.943	871.225	658.149
262.322	14.870	870.780	657.468
263.336	14.990	870.495	657.668
264.351	14.938	869.445	656.613
265.366	14.976	868.838	656.246
266.380	15.006	868.190	655.813
267.395	15.165	867.490	655.848
268.409	15.129	866.629	655.001
269.424	14.948	866.282	653.973
270.439	15.087	865.416	653.802
271.453	14.971	864.529	652.623
272.468	15.041	863.339	651.938
273.482	14.947	863.251	651.448
274.497	14.970	862.824	651.157
275.512	15.009	862.264	650.832
276.526	15.149	861.149	650.476
277.541	15.001	860.772	649.559
278.555	15.095	860.040	649.313
279.570	15.134	859.503	648.999
280.585	15.089	858.954	648.354
281.599	15.254	858.474	648.575
282.614	15.227	857.824	647.923
283.628	15.207	857.019	647.178
284.643	15.166	856.804	646.801
285.657	15.264	856.185	646.655
286.672	15.156	855.842	645.921
287.687	15.249	854.925	645.532
288.701	15.192	854.853	645.201
289.716	15.243	853.939	644.647
290.730	15.312	853.223	644.317
291.745	15.235	853.004	643.799
292.760	15.342	851.886	643.307
293.774	15.348	851.341	642.861
294.789	15.492	850.660	642.844
295.803	15.450	850.256	642.317
296.818	15.184	850.081	641.112
297.833	15.455	848.829	641.148
298.847	15.249	848.547	640.089
299.862	15.401	847.680	639.960
300.876	15.417	847.021	639.465
301.891	15.390	846.581	638.975
302.906	15.517	845.842	638.842
303.920	15.556	844.958	638.269
304.935	15.543	844.507	637.821
305.949	15.683	844.180	638.048
306.964	15.615	843.308	637.076
307.979	15.557	843.057	636.609
308.993	15.603	842.184	636.068
310.008	15.663	841.977	636.082
311.022	15.682	841.477	635.721
312.037	15.752	840.537	635.219
313.052	15.541	840.434	634.288
314.066	15.642	839.366	633.806
315.081	15.717	838.867	633.655
316.095	15.575	838.307	632.645
317.110	15.613	837.986	632.487
318.125	15.644	837.160	631.925
319.139	15.593	836.882	631.465
320.154	15.575	836.810	631.289
321.168	15.678	835.922	630.951
322.183	15.615	834.988	629.955
323.197	15.867	834.186	630.236
324.212	15.757	833.984	629.615
325.227	15.706	833.493	628.998
326.241	15.716	832.847	628.495
327.256	15.654	832.761	628.141
328.270	15.737	831.821	627.688
329.285	15.612	831.603	626.999
330.300	15.861	830.550	627.079
331.314	15.764	830.146	626.357
332.329	15.780	829.647	625.985
333.343	15.781	829.136	625.546
334.358	15.863	828.334	625.189
335.373	15.837	827.870	624.689
336.387	15.879	827.433	624.458
337.402	16.039	826.951	624.636
338.416	15.921	826.292	623.644
339.431	16.047	825.650	623.570
340.446	16.042	824.909	622.937
341.460	16.107	824.750	623.002
342.475	16.042	824.087	622.204
343.489	16.124	823.192	621.778
344.504	16.237	822.873	621.899
345.519	16.311	822.239	621.635
346.533	16.153	822.370	621.097
347.548	16.186	821.613	620.594
348.562	16.141	820.963	619.883
349.577	16.214	820.267	619.571
350.592	16.074	819.750	618.612
351.606	16.204	819.482	618.828
352.621	16.151	818.925	618.162
353.635	16.210	818.692	618.148
354.650	16.133	818.235	617.466
355.665	16.203	817.652	617.226
356.679	16.193	817.205	616.797
357.694	16.092	816.879	616.129
358.708	16.445	816.117	616.788
359.723	16.406	815.469	616.100
360.738	16.207	814.916	614.905
361.752	16.299	814.540	614.901
362.767	16.313	814.011	614.496
363.781	16.420	813.597	614.518
364.796	16.361	813.219	613.967
365.810	16.487	812.616	613.913
366.825	16.462	812.413	613.614
367.840	16.611	811.750	613.601
368.854	16.441	811.587	612.806
369.869	16.453	811.315	612.589
370.883	16.401	810.589	611.801
371.898	16.565	810.113	611.981
372.913	16.504	809.602	611.317
373.927	16.434	809.099	610.632
374.942	16.647	808.132	610.617
375.956	16.689	807.417	610.173
376.971	16.805	806.750	610.034
377.986	16.577	806.619	609.060
379.000	16.699	805.938	608.930
380.015	16.786	805.396	608.779
381.029	16.833	804.954	608.559
382.044	16.930	804.208	608.290
383.059	16.798	803.871	607.508
384.073	16.617	803.538	606.554
385.088	16.804	802.862	606.661
386.102	16.691	802.282	605.763
387.117	16.586	801.779	604.954
388.132	16.662	801.369	604.863
389.146	16.776	800.954	604.903
390.161	16.693	800.619	604.302
391.175	16.845	800.083	604.386
392.190	16.810	799.741	603.949
393.205	16.914	799.139	603.811
394.219	16.729	799.287	603.211
395.234	16.847	798.162	602.726
396.248	16.694	797.816	601.871
397.263	16.688	797.279	601.388
398.278	16.828	796.397	601.168
399.292	16.865	796.252	601.136
400.307	16.763	796.012	600.541
401.321	16.762	795.862	600.369
402.336	16.945	795.258	600.511
403.350	16.826	794.856	599.731
404.365	16.983	794.263	599.788
405.380	16.837	794.084	599.081
406.394	16.950	793.738	599.166
407.409	16.979	793.116	598.747
408.423	17.024	793.005	598.771
409.438	17.179	792.469	598.860
410.453	17.164	791.630	598.119
411.467	17.141	791.261	597.707
412.482	17.319	790.497	597.702
413.496	17.431	789.772	597.494
414.511	17.280	789.809	596.938
415.526	17.178	789.920	596.610
416.540	17.212	789.537	596.388
417.555	17.317	788.787	596.138
418.569	17.380	788.383	596.000
419.584	17.374	787.814	595.496
420.599	17.404	787.323	595.179
421.613	108.971	1290.825	1469.116
422.628	93.407	1364.193	1469.194
