DTS Sentinel unit serial number:	SN413079Multiplexer serial number:	ORYXHardware model number:	OX4-SRSoftware version number:	ORYX F/W v4.00 Oryx Data Collector v3.7.2.0data status	okinstallation	princeton_trtdifferential loss correction	single-endedforward channel	channel 3reverse channel	N/Adate	2019/09/10time	20:34:10forward acquisition time	60.00reverse acquisition time	0.00gamma	496.2192k internal	0.2326k external	0.2326temperature offset calibration	0.9919default loss term (dB/km)	0.3790temperature slope calibration	1.0000multiplexer offset coefficient	1.0000multiplexer slope coefficient	1.0000fibre end	0.00T internal ref (°C)	31.95T ext. ref 1 (°C)	-0.32T ext. ref 2 (°C)	25.31length (m)	temperature (°C)	Stokes	anti-Stokes-747.200	356.325	0.198	-0.397
-746.185	-62.006	-0.182	-0.077
-745.171	-129.328	0.192	0.027
-744.156	-102.109	0.168	-0.041
-743.142	-106.465	-0.372	-0.084
-742.127	148.831	-0.272	0.371
-741.112	166.409	0.084	-0.120
-740.098	-34.271	-0.235	-0.130
-739.083	-177.909	0.128	0.003
-738.069	-80.722	0.265	0.089
-737.054	23.547	-0.142	-0.118
-736.039	15.330	-0.093	0.073
-735.025	-36.255	0.263	0.143
-734.010	-180.803	-0.171	0.004
-732.996	-80.327	-0.269	-0.091
-731.981	-4.548	-0.114	-0.080
-730.966	-200.000	0.033	0.157
-729.952	333.183	-0.176	-0.343
-728.937	-76.041	-0.618	-0.220
-727.923	498.309	-0.082	-0.189
-726.908	-65.536	0.526	0.213
-725.894	-200.000	0.041	0.291
-724.879	-66.603	-0.167	-0.067
-723.864	-11.660	-0.210	0.139
-722.850	284.908	0.125	-0.226
-721.835	17.677	0.113	0.091
-720.821	-48.211	-0.160	-0.078
-719.806	800.000	-0.081	-0.240
-718.791	402.064	0.141	-0.299
-717.777	-200.000	0.006	0.146
-716.762	212.144	-0.074	0.117
-715.748	82.393	-0.156	-0.170
-714.733	14.902	-0.192	0.152
-713.718	-33.172	-0.203	-0.113
-712.704	53.576	0.196	0.189
-711.689	-200.000	0.001	-0.096
-710.675	800.000	0.095	0.379
-709.660	85.989	-0.132	0.146
-708.645	64.123	-0.167	-0.169
-707.631	-124.832	0.231	-0.036
-706.616	155.592	-0.086	0.120
-705.602	205.579	0.099	0.155
-704.587	800.000	-0.049	-0.194
-703.572	-128.744	0.299	-0.042
-702.558	198.119	-0.043	-0.067
-701.543	-88.006	0.169	0.051
-700.529	442.859	0.150	0.330
-699.514	-45.790	-0.073	-0.036
-698.499	567.626	-0.055	-0.135
-697.485	800.000	0.079	-0.278
-696.470	800.000	-0.054	-0.181
-695.456	-114.685	-0.193	-0.037
-694.441	-200.000	0.017	0.108
-693.426	342.534	0.129	-0.254
-692.412	-107.366	-0.265	0.059
-691.397	156.267	-0.092	0.127
-690.383	283.239	-0.197	0.356
-689.368	138.833	-0.087	0.115
-688.354	212.223	-0.118	0.187
-687.339	-43.222	0.145	0.074
-686.324	-111.167	-0.270	-0.056
-685.310	135.381	-0.058	-0.076
-684.295	800.000	0.037	-0.151
-683.281	-161.513	-0.265	-0.014
-682.266	-69.536	0.401	-0.155
-681.251	24.422	0.404	-0.336
-680.237	-106.919	-0.233	0.052
-679.222	-200.000	-0.060	-0.318
-678.208	-62.728	0.319	-0.133
-677.193	-200.000	-0.055	-0.309
-676.178	61.572	0.153	0.153
-675.164	32.923	-0.067	-0.058
-674.149	800.000	0.023	-0.082
-673.135	-49.921	0.179	-0.085
-672.120	800.000	-0.042	0.148
-671.105	210.010	-0.098	0.155
-670.091	-30.835	0.219	0.125
-669.076	48.517	0.116	0.109
-668.062	108.604	0.102	0.122
-667.047	-200.000	0.013	0.199
-666.032	15.313	0.289	-0.228
-665.018	-103.793	0.282	0.066
-664.003	-132.742	0.214	0.028
-662.989	-200.000	0.016	-0.180
-661.974	-39.731	0.259	-0.136
-660.959	308.433	-0.151	-0.283
-659.945	-33.138	-0.162	-0.090
-658.930	243.750	-0.146	-0.247
-657.916	197.969	0.051	-0.078
-656.901	83.474	0.087	0.095
-655.886	800.000	0.027	-0.099
-654.872	130.326	0.153	-0.196
-653.857	494.525	-0.120	-0.276
-652.843	-49.716	0.268	-0.128
-651.828	286.182	0.128	-0.233
-650.814	383.914	0.136	0.280
-649.799	14.877	-0.147	-0.116
-648.784	-79.136	-0.085	0.029
-647.770	153.296	0.034	0.047
-646.755	-14.953	-0.160	0.103
-645.741	-45.254	0.031	-0.015
-644.726	724.540	0.128	0.344
-643.711	436.255	0.159	0.347
-642.697	177.365	-0.176	0.258
-641.682	-200.000	-0.056	-0.419
-640.668	309.633	0.171	-0.321
-639.653	800.000	-0.087	-0.260
-638.638	233.063	0.122	0.201
-637.624	148.916	0.086	-0.117
-636.609	251.660	-0.082	0.141
-635.595	-200.000	0.007	-0.122
-634.580	-200.000	0.059	-0.321
-633.565	800.000	0.049	0.191
-632.551	-130.747	-0.317	-0.043
-631.536	206.132	-0.171	-0.267
-630.522	369.107	-0.139	-0.282
-629.507	211.084	0.083	0.132
-628.492	149.456	0.427	0.581
-627.478	-30.325	0.301	0.172
-626.463	150.474	0.149	0.204
-625.449	-200.000	-0.013	0.132
-624.434	-60.567	-0.283	-0.120
-623.419	10.959	0.045	0.034
-622.405	-37.089	0.234	-0.126
-621.390	249.569	0.133	-0.226
-620.376	519.028	0.033	0.079
-619.361	-164.986	-0.223	-0.010
-618.346	105.485	0.234	0.278
-617.332	-31.414	0.176	0.100
-616.317	800.000	0.085	-0.288
-615.303	-200.000	-0.022	-0.146
-614.288	82.508	0.131	0.142
-613.273	-70.229	-0.062	-0.023
-612.259	382.617	-0.113	0.234
-611.244	-82.203	-0.174	-0.057
-610.230	-107.435	-0.272	-0.060
-609.215	-200.000	0.049	-0.476
-608.201	337.007	0.061	0.118
-607.186	218.184	-0.142	-0.227
-606.171	212.090	0.041	0.065
-605.157	16.284	-0.127	0.100
-604.142	-145.925	-0.232	-0.021
-603.128	31.081	0.161	-0.138
-602.113	-165.959	-0.261	-0.011
-601.098	-45.449	-0.145	0.072
-600.084	-200.000	0.007	-0.163
-599.069	-30.738	-0.310	-0.176
-598.055	71.786	-0.199	-0.207
-597.040	800.000	-0.077	0.261
-596.025	-127.782	-0.381	-0.055
-595.011	-200.000	0.044	-0.355
-593.996	69.987	0.153	-0.158
-592.982	-200.000	-0.037	0.284
-591.967	800.000	0.077	0.251
-590.952	-194.300	0.132	-0.001
-589.938	-31.433	-0.147	-0.083
-588.923	-107.515	-0.095	-0.021
-587.909	42.815	-0.137	-0.125
-586.894	7.065	-0.214	-0.160
-585.879	-200.000	-0.017	0.172
-584.865	800.000	0.034	0.117
-583.850	-81.825	0.319	-0.105
-582.836	74.884	-0.104	0.109
-581.821	-151.677	0.163	-0.012
-580.806	-200.000	-0.046	0.296
-579.792	-122.180	-0.211	-0.035
-578.777	87.107	0.068	-0.075
-577.763	800.000	0.064	0.191
-576.748	-3.587	0.223	0.155
-575.733	-200.000	-0.019	-0.093
-574.719	47.220	-0.078	0.073
-573.704	-158.752	-0.404	-0.023
-572.690	-200.000	-0.049	-0.245
-571.675	-96.343	-0.169	-0.045
-570.661	253.637	-0.061	-0.105
-569.646	-113.765	-0.153	0.030
-568.631	800.000	0.061	0.224
-567.617	309.576	-0.103	-0.193
-566.602	-94.226	0.028	0.008
-565.588	232.688	-0.089	-0.147
-564.573	800.000	-0.017	0.066
-563.558	800.000	0.076	0.267
-562.544	441.390	0.103	-0.225
-561.529	-124.750	-0.210	-0.033
-560.515	-200.000	-0.102	0.496
-559.500	-200.000	-0.035	0.162
-558.485	-108.809	0.088	-0.019
-557.471	184.866	0.083	0.123
-556.456	-65.456	-0.205	-0.082
-555.442	45.419	0.129	-0.120
-554.427	84.682	0.148	0.162
-553.412	-76.587	0.125	-0.044
-552.398	-200.000	0.031	0.244
-551.383	34.494	-0.110	0.096
-550.369	90.513	0.067	0.076
-549.354	3.977	0.261	0.191
-548.339	77.911	-0.086	0.091
-547.325	-200.000	-0.035	-0.538
-546.310	73.697	-0.212	0.222
-545.296	-200.000	0.020	0.261
-544.281	354.379	-0.097	0.192
-543.266	-58.151	-0.118	-0.051
-542.252	-107.672	0.094	0.021
-541.237	-29.649	0.223	-0.127
-540.223	-36.252	-0.213	-0.115
-539.208	-28.474	-0.504	0.291
-538.193	-16.519	0.334	0.212
-537.179	-6.633	0.155	0.106
-536.164	350.889	-0.178	-0.352
-535.150	-160.923	-0.064	0.003
-534.135	-123.681	0.168	-0.027
-533.121	1.625	-0.281	0.202
-532.106	-142.507	-0.194	0.019
-531.091	-70.058	-0.347	-0.132
-530.077	59.025	-0.298	0.293
-529.062	800.000	-0.093	0.291
-528.048	319.496	0.153	-0.291
-527.033	-200.000	-0.076	-0.581
-526.018	548.456	0.122	-0.293
-525.004	-200.000	0.049	-0.295
-523.989	-34.759	0.364	-0.199
-522.975	-0.469	-0.290	0.206
-521.960	364.575	-0.043	0.087
-520.945	-86.333	0.273	0.084
-519.931	122.469	0.332	0.415
-518.916	-200.000	-0.028	-0.133
-517.902	-200.000	0.043	-0.213
-516.887	285.169	0.110	0.198
-515.872	-128.155	-0.338	-0.048
-514.858	-200.000	-0.079	0.351
-513.843	-144.903	-0.194	0.018
-512.829	37.876	0.085	0.076
-511.814	1.529	0.191	-0.137
-510.799	220.485	0.345	-0.553
-509.785	554.187	0.135	0.324
-508.770	-200.000	-0.006	-0.096
-507.756	-200.000	-0.029	-0.144
-506.741	-119.102	0.103	-0.018
-505.726	-200.000	-0.024	0.185
-504.712	118.373	-0.038	-0.047
-503.697	-200.000	0.026	0.305
-502.683	516.864	0.097	-0.226
-501.668	-200.000	-0.028	0.228
-500.653	109.794	-0.159	0.191
-499.639	-200.000	-0.031	-0.181
-498.624	-200.000	0.266	-0.001
-497.610	38.115	0.042	0.037
-496.595	800.000	-0.093	-0.283
-495.581	89.992	0.237	-0.264
-494.566	-33.171	-0.103	0.057
-493.551	-46.524	-0.249	-0.122
-492.537	86.358	-0.066	-0.073
-491.522	92.119	-0.165	0.185
-490.508	800.000	0.068	0.196
-489.493	-147.383	0.276	-0.023
-488.478	-74.397	0.181	0.065
-487.464	-137.988	-0.224	0.025
-486.449	-145.220	0.237	0.021
-485.435	-92.454	0.090	-0.025
-484.420	350.079	-0.121	0.239
-483.405	221.067	0.139	-0.223
-482.391	96.753	0.039	0.045
-481.376	800.000	-0.014	0.048
-480.362	800.000	0.035	0.130
-479.347	-200.000	0.036	-0.307
-478.332	-87.139	0.194	0.059
-477.318	-20.885	0.168	0.103
-476.303	5.495	-0.278	0.205
-475.289	126.131	0.051	0.065
-474.274	-172.309	-0.175	0.006
-473.259	-81.200	0.182	0.060
-472.245	-37.926	-0.158	-0.084
-471.230	-98.015	0.224	0.058
-470.216	471.035	0.100	-0.225
-469.201	768.534	0.084	-0.228
-468.186	-69.465	0.170	-0.065
-467.172	33.544	-0.277	0.240
-466.157	800.000	-0.070	0.235
-465.143	4.905	-0.161	0.118
-464.128	44.226	0.079	0.072
-463.113	-132.971	0.084	0.011
-462.099	-115.123	0.257	-0.049
-461.084	339.653	-0.138	0.269
-460.070	-200.000	-0.030	0.209
-459.055	-35.176	-0.260	-0.141
-458.040	-200.000	0.011	0.055
-457.026	314.952	-0.044	0.082
-456.011	-122.022	-0.226	0.037
-454.997	45.244	0.247	0.227
-453.982	-75.184	-0.139	0.049
-452.968	234.277	-0.138	0.226
-451.953	-69.546	-0.512	-0.196
-450.938	221.166	-0.119	-0.190
-449.924	800.000	-0.107	-0.310
-448.909	112.425	-0.017	-0.020
-447.895	381.600	-0.112	-0.230
-446.880	800.000	0.088	-0.246
-445.865	-109.086	-0.109	-0.023
-444.851	34.383	0.187	-0.162
-443.836	-105.071	0.217	-0.049
-442.822	588.378	-0.166	-0.407
-441.807	800.000	0.077	-0.219
-440.792	800.000	0.062	0.181
-439.778	332.329	-0.106	0.203
-438.763	-27.920	0.091	-0.052
-437.749	-104.438	0.182	0.042
-436.734	-92.803	-0.281	-0.078
-435.719	-77.789	-0.681	-0.235
-434.705	183.335	0.210	-0.308
-433.690	-44.925	0.031	0.015
-432.676	2.763	-0.202	0.146
-431.661	63.572	-0.181	-0.181
-430.646	170.733	0.075	-0.107
-429.632	-75.031	0.265	0.095
-428.617	419.403	-0.178	-0.380
-427.603	141.222	-0.080	-0.106
-426.588	-127.548	0.267	-0.039
-425.573	800.000	-0.056	-0.214
-424.559	-16.996	0.083	0.052
-423.544	98.057	0.044	0.051
-422.530	4.311	-0.413	0.301
-421.515	-68.547	0.217	0.084
-420.500	800.000	-0.027	0.111
-419.486	-52.596	0.331	0.152
-418.471	-120.749	-0.369	0.062
-417.457	-57.492	0.203	0.089
-416.442	-200.000	-0.070	0.509
-415.428	22.004	0.189	0.153
-414.413	154.939	-0.078	0.107
-413.398	103.579	0.029	-0.034
-412.384	-46.397	-0.267	0.131
-411.369	-133.938	-0.153	0.019
-410.355	-73.034	-0.175	-0.064
-409.340	800.000	-0.080	-0.330
-408.325	136.870	-0.104	0.135
-407.311	-144.595	-0.240	0.022
-406.296	654.535	-0.105	-0.267
-405.282	-70.690	-0.175	-0.066
-404.267	245.245	0.076	0.127
-403.252	157.285	0.128	0.177
-402.238	-139.478	-0.179	0.019
-401.223	800.000	0.084	0.297
-400.209	-200.000	0.029	0.200
-399.194	-6.220	-0.237	0.161
-398.179	79.051	-0.151	0.161
-397.165	-137.934	0.177	0.020
-396.150	-85.760	-0.219	0.068
-395.136	800.000	-0.130	-0.413
-394.121	619.698	-0.116	-0.290
-393.106	308.831	-0.100	-0.185
-392.092	-28.158	-0.371	0.213
-391.077	198.981	-0.072	-0.109
-390.063	32.867	0.178	-0.153
-389.048	-187.628	-0.266	0.004
-388.033	-183.555	0.102	0.002
-387.019	-50.385	-0.115	0.054
-386.004	203.012	0.166	0.255
-384.990	-112.211	-0.175	0.035
-383.975	-200.000	0.015	-0.240
-382.960	264.650	0.103	-0.178
-381.946	-16.548	0.216	0.136
-380.931	20.801	0.087	-0.070
-379.917	74.417	0.230	0.241
-378.902	445.826	0.010	-0.021
-377.888	800.000	-0.164	-0.514
-376.873	-200.000	0.044	-0.196
-375.858	-71.795	0.145	-0.054
-374.844	-200.000	0.035	0.274
-373.829	25.564	0.025	-0.020
-372.815	1.115	-0.048	0.034
-371.800	800.000	-0.050	0.147
-370.785	473.514	0.100	0.224
-369.771	381.118	0.141	0.288
-368.756	-200.000	0.038	0.353
-367.742	163.891	0.116	0.162
-366.727	-75.344	0.322	0.114
-365.712	392.041	-0.091	-0.188
-364.698	-46.462	-0.301	-0.147
-363.683	-161.512	0.239	-0.012
-362.669	115.001	0.044	-0.054
-361.654	800.000	0.089	-0.368
-360.639	-200.000	0.044	-0.345
-359.625	-86.017	-0.308	0.095
-358.610	755.160	-0.097	0.261
-357.596	-4.258	0.276	-0.190
-356.581	4.609	0.134	0.098
-355.566	-200.000	0.006	0.063
-354.552	-200.000	-0.036	0.245
-353.537	-116.236	0.105	0.019
-352.523	-200.000	-0.027	-0.355
-351.508	-11.442	0.320	0.209
-350.493	-200.000	-0.031	-0.227
-349.479	88.917	-0.212	0.235
-348.464	163.962	0.035	0.049
-347.450	800.000	-0.055	0.225
-346.435	-200.000	-0.006	-0.207
-345.420	-50.982	0.523	-0.244
-344.406	-30.989	-0.171	-0.096
-343.391	178.239	-0.068	-0.099
-342.377	-58.719	0.152	-0.065
-341.362	-200.000	0.103	-0.471
-340.348	149.480	0.158	0.213
-339.333	-72.203	0.134	0.049
-338.318	-68.661	-0.069	-0.026
-337.304	800.000	0.055	-0.198
-336.289	127.478	-0.072	-0.091
-335.275	325.027	-0.131	-0.249
-334.260	188.454	0.191	-0.283
-333.245	-90.635	-0.384	0.110
-332.231	800.000	0.095	0.409
-331.216	-200.000	-0.017	0.157
-330.202	-26.464	-0.198	0.115
-329.187	-111.848	0.257	0.052
-328.172	-50.303	0.128	0.060
-327.158	-34.380	0.295	0.161
-326.143	-74.756	-0.230	0.082
-325.129	12.510	0.234	0.179
-324.114	800.000	-0.078	0.310
-323.099	40.527	-0.052	0.047
-322.085	149.552	-0.164	-0.221
-321.070	-24.510	0.311	-0.184
-320.056	241.826	0.216	-0.358
-319.041	122.362	0.087	-0.108
-318.026	167.181	-0.071	-0.100
-317.012	-91.161	-0.320	0.091
-315.997	132.607	-0.096	0.123
-314.983	-22.418	-0.344	0.207
-313.968	-115.348	0.134	-0.025
-312.953	136.981	-0.124	-0.160
-311.939	-200.000	-0.016	-0.312
-310.924	-200.000	-0.007	-0.249
-309.910	-143.354	-0.187	0.018
-308.895	311.409	-0.144	-0.268
-307.880	800.000	-0.085	0.277
-306.866	800.000	-0.091	-0.261
-305.851	361.357	0.150	0.298
-304.837	-73.106	-0.226	0.082
-303.822	-82.758	-0.254	0.082
-302.807	-200.000	0.058	-0.000
-301.793	-113.802	-0.085	0.016
-300.778	-145.905	-0.357	0.031
-299.764	-17.332	0.195	-0.122
-298.749	125.558	0.190	-0.238
-297.735	356.683	0.136	0.269
-296.720	35.063	-0.157	-0.136
-295.705	-15.018	0.350	-0.222
-294.691	800.000	0.067	0.266
-293.676	-200.000	0.048	0.254
-292.662	511.491	-0.033	0.075
-291.647	-48.165	0.216	-0.103
-290.632	5.059	-0.250	0.183
-289.618	225.334	0.056	0.090
-288.603	-79.043	-0.222	-0.075
-287.589	4.937	-0.102	-0.075
-286.574	-6.843	0.105	0.071
-285.559	-13.184	0.227	-0.146
-284.545	-108.458	-0.071	0.015
-283.530	159.329	0.134	-0.185
-282.516	632.485	-0.111	-0.278
-281.501	507.411	-0.030	0.069
-280.486	-59.056	0.137	0.059
-279.472	8.094	0.473	-0.352
-278.457	-166.541	-0.335	-0.014
-277.443	180.923	0.165	-0.240
-276.428	333.441	0.114	-0.219
-275.413	-156.117	-0.310	0.019
-274.399	-56.625	-0.163	0.071
-273.384	214.338	-0.153	-0.240
-272.370	-37.723	0.302	-0.159
-271.355	199.070	-0.221	0.335
-270.340	763.807	0.103	0.277
-269.326	270.533	-0.041	-0.071
-268.311	-30.437	0.222	-0.125
-267.297	-200.000	0.003	-0.124
-266.282	174.643	0.069	0.099
-265.267	66.437	0.140	-0.140
-264.253	142.927	-0.096	-0.127
-263.238	-200.000	-0.018	-0.553
-262.224	219.532	-0.087	-0.137
-261.209	77.383	0.294	0.310
-260.195	37.401	-0.245	0.215
-259.180	83.462	-0.030	-0.033
-258.165	-200.000	0.014	0.477
-257.151	-111.482	0.197	0.040
-256.136	32.439	0.196	0.168
-255.122	-128.135	0.376	-0.053
-254.107	-56.289	0.205	-0.090
-253.092	-79.947	0.176	-0.058
-252.078	200.275	0.112	0.170
-251.063	-200.000	0.001	-0.115
-250.049	-83.289	0.143	0.045
-249.034	126.806	0.084	0.105
-248.019	25.232	0.228	-0.188
-247.005	-58.288	-0.197	0.085
-245.990	71.641	0.211	-0.217
-244.976	2.375	0.125	-0.089
-243.961	-117.592	0.428	0.076
-242.946	-105.376	0.179	0.040
-241.932	51.491	0.138	0.130
-240.917	-156.214	0.192	0.012
-239.903	-87.079	0.189	0.057
-238.888	-123.155	-0.396	-0.063
-237.873	133.215	0.269	0.343
-236.859	650.815	0.052	0.132
-235.844	-57.407	0.359	0.156
-234.830	-200.000	-0.046	-0.233
-233.815	-180.127	-0.155	0.003
-232.800	1.571	-0.076	-0.054
-231.786	132.945	-0.119	-0.151
-230.771	172.339	0.064	0.090
-229.757	-16.617	-0.160	-0.100
-228.742	377.321	-0.066	-0.134
-227.727	-114.427	-0.132	0.025
-226.713	17.624	0.212	-0.166
-225.698	-168.069	-0.188	0.007
-224.684	-22.114	-0.204	0.122
-223.669	179.750	0.124	0.179
-222.655	-200.000	0.003	0.286
-221.640	-154.575	-0.327	-0.022
-220.625	683.242	0.069	0.178
-219.611	-93.374	0.237	0.065
-218.596	-96.144	0.311	-0.082
-217.582	-200.000	0.015	0.103
-216.567	-56.500	-0.155	0.068
-215.552	-141.811	-0.194	0.019
-214.538	157.361	0.179	0.245
-213.523	5.957	0.087	0.064
-212.509	95.522	0.111	-0.125
-211.494	-200.000	0.003	0.080
-210.479	-200.000	0.020	0.235
-209.465	-73.744	0.231	0.083
-208.450	-200.000	0.014	-0.066
-207.436	131.093	0.049	0.062
-206.421	118.740	-0.171	-0.208
-205.406	585.579	0.131	0.317
-204.392	800.000	-0.056	0.199
-203.377	-37.288	-0.380	0.200
-202.363	-77.452	0.181	-0.062
-201.348	-143.410	-0.351	-0.033
-200.333	-62.047	0.205	-0.085
-199.319	263.359	-0.246	-0.421
-198.304	-200.000	-0.034	-0.313
-197.290	28.396	0.110	-0.092
-196.275	153.840	-0.087	0.117
-195.260	-47.842	-0.202	0.097
-194.246	339.122	-0.122	0.234
-193.231	221.663	0.155	-0.246
-192.217	705.576	0.047	0.123
-191.202	-111.262	0.107	-0.022
-190.187	95.147	0.093	0.105
-189.173	105.163	0.163	-0.190
-188.158	800.000	-0.015	0.045
-187.144	-200.000	-0.011	-0.366
-186.129	349.491	-0.145	-0.283
-185.114	800.000	-0.042	0.149
-184.100	-46.322	-0.141	-0.068
-183.085	-12.966	-0.202	0.130
-182.071	72.333	0.174	0.179
-181.056	-200.000	0.010	0.205
-180.042	251.315	0.105	-0.176
-179.027	800.000	-0.082	-0.238
-178.012	21.411	-0.295	0.237
-176.998	-179.541	-0.063	-0.001
-175.983	12.177	0.241	-0.183
-174.969	-48.052	0.384	-0.183
-173.954	30.284	-0.103	0.087
-172.939	584.030	0.056	-0.136
-171.925	422.348	0.048	-0.102
-170.910	-41.388	-0.239	-0.121
-169.896	302.690	0.100	0.183
-168.881	115.066	0.180	0.216
-167.866	172.937	0.124	0.176
-166.852	-26.366	0.159	-0.092
-165.837	167.507	-0.188	0.263
-164.823	-16.812	0.123	0.077
-163.808	141.675	0.184	0.240
-162.793	-32.675	0.286	-0.157
-161.779	-6.806	-0.180	-0.121
-160.764	800.000	-0.051	-0.184
-159.750	-200.000	0.002	-0.101
-158.735	132.002	-0.197	0.250
-157.720	-200.000	-0.020	-0.152
-156.706	403.148	-0.054	-0.113
-155.691	-153.559	0.415	0.028
-154.677	800.000	-0.019	-0.079
-153.662	-22.523	-0.095	-0.057
-152.647	-21.790	0.162	-0.097
-151.633	-46.314	0.245	0.119
-150.618	-200.000	-0.003	0.181
-149.604	72.835	0.220	0.226
-148.589	54.518	-0.214	-0.204
-147.574	-59.203	-0.127	-0.054
-146.560	111.252	0.151	0.179
-145.545	-200.000	0.010	-0.183
-144.531	293.274	-0.098	-0.177
-143.516	-173.627	0.289	-0.009
-142.502	-165.381	-0.567	-0.025
-141.487	374.091	-0.116	0.232
-140.472	800.000	0.057	0.207
-139.458	317.057	-0.016	0.030
-138.443	-18.342	-0.159	0.098
-137.429	-25.796	0.164	0.095
-136.414	276.805	0.048	-0.084
-135.399	-96.504	0.287	0.075
-134.385	70.370	-0.214	0.218
-133.370	-94.184	-0.366	-0.099
-132.356	82.396	-0.129	0.138
-131.341	-200.000	-0.067	0.392
-130.326	-147.353	-0.300	-0.025
-129.312	800.000	0.062	0.233
-128.297	4.657	-0.150	-0.109
-127.283	603.185	-0.042	0.104
-126.268	66.766	0.175	-0.175
-125.253	800.000	-0.103	0.352
-124.239	-137.828	-0.171	0.019
-123.224	147.464	0.130	0.172
-122.210	5.381	-0.362	-0.263
-121.195	601.923	-0.039	0.095
-120.180	-109.830	0.183	0.038
-119.166	-200.000	0.055	-0.425
-118.151	22.813	0.306	0.247
-117.137	-97.787	0.307	0.078
-116.122	81.568	-0.138	-0.147
-115.107	723.546	0.053	-0.140
-114.093	800.000	-0.022	-0.082
-113.078	435.537	0.109	0.233
-112.064	-200.000	-0.049	0.314
-111.049	4.261	0.088	0.064
-110.034	199.787	-0.116	0.175
-109.020	101.682	-0.135	-0.155
-108.005	800.000	-0.098	0.284
-106.991	-113.677	0.308	0.059
-105.976	-157.923	-0.113	-0.007
-104.962	-117.670	0.124	0.022
-103.947	-89.933	-0.488	0.140
-102.932	36.999	0.359	0.312
-101.918	133.836	0.146	-0.185
-100.903	-200.000	-0.036	-0.194
-99.889	38.833	0.143	-0.126
-98.874	-200.000	0.033	-0.469
-97.859	340.020	-0.109	-0.209
-96.845	402.728	0.151	0.313
-95.830	-100.224	-0.285	0.070
-94.816	-18.016	0.133	0.082
-93.801	800.000	-0.033	-0.112
-92.786	247.350	-0.037	0.062
-91.772	-58.384	-0.175	-0.075
-90.757	-200.000	0.079	-0.445
-89.743	-144.713	0.153	-0.014
-88.728	242.099	0.147	0.242
-87.713	-200.000	0.009	-0.055
-86.699	-23.346	0.254	-0.150
-85.684	800.000	0.124	-0.408
-84.670	110.856	-0.033	-0.038
-83.655	-7.403	0.183	-0.122
-82.640	-200.000	0.039	0.297
-81.626	800.000	0.052	0.192
-80.611	-152.987	0.110	-0.008
-79.597	800.000	0.085	0.327
-78.582	-200.000	-0.009	0.185
-77.567	-92.295	-0.242	0.067
-76.553	-127.371	-0.239	0.034
-75.538	704.888	-0.027	-0.071
-74.524	-200.000	0.032	-0.211
-73.509	-51.258	0.355	0.163
-72.494	73.685	0.089	-0.092
-71.480	-141.161	-0.143	0.014
-70.465	800.000	-0.089	0.257
-69.451	-200.000	-0.041	-0.233
-68.436	800.000	0.073	0.277
-67.422	209.761	0.186	-0.286
-66.407	800.000	0.047	0.195
-65.392	-47.992	0.093	0.044
-64.378	-86.843	0.027	0.008
-63.363	7.219	0.150	0.110
-62.349	-63.131	-0.140	-0.057
-61.334	33.119	-1.056	-0.899
-60.319	552.254	0.151	0.355
-59.305	800.000	-0.321	-1.187
-58.290	51.930	0.898	0.839
-57.276	564.060	0.495	1.178
-56.261	-200.000	98.366	609.181
-55.246	616.743	1402.112	3453.513
-54.232	192.623	2591.233	3841.091
-53.217	117.367	2168.041	2617.188
-52.203	42.744	1707.103	1526.327
-51.188	35.210	1521.125	1308.784
-50.173	32.784	1494.972	1269.927
-49.159	51.893	1545.937	1444.546
-48.144	53.697	1562.570	1472.386
-47.130	35.341	1521.246	1309.577
-46.115	32.133	1506.531	1275.121
-45.100	31.998	1503.637	1271.709
-44.086	32.011	1501.963	1270.327
-43.071	32.000	1499.541	1268.155
-42.057	32.050	1497.388	1266.622
-41.042	31.908	1496.694	1265.029
-40.027	31.929	1495.268	1263.912
-39.013	31.882	1493.824	1262.323
-37.998	31.862	1492.499	1261.019
-36.984	31.874	1491.075	1259.851
-35.969	32.021	1489.556	1259.500
-34.954	32.001	1488.589	1258.502
-33.940	32.014	1486.751	1256.981
-32.925	31.981	1485.806	1255.916
-31.911	31.984	1483.978	1254.337
-30.896	31.989	1482.757	1253.291
-29.881	31.941	1481.941	1252.232
-28.867	32.042	1480.432	1251.576
-27.852	32.131	1478.065	1250.118
-26.838	32.018	1477.035	1248.451
-25.823	31.998	1475.755	1247.185
-24.809	31.931	1474.075	1245.266
-23.794	31.938	1472.915	1244.287
-22.779	32.025	1471.151	1243.325
-21.765	32.014	1470.341	1242.518
-20.750	31.962	1469.645	1241.536
-19.736	31.986	1468.462	1240.645
-18.721	31.997	1466.921	1239.369
-17.706	31.974	1465.454	1237.928
-16.692	31.993	1464.548	1237.240
-15.677	31.972	1463.872	1236.478
-14.663	31.973	1462.878	1235.594
-13.648	31.867	1461.980	1234.089
-12.633	31.968	1461.136	1233.996
-11.619	31.896	1460.552	1232.981
-10.604	31.926	1459.778	1232.475
-9.590	31.814	1459.337	1231.319
-8.575	31.927	1457.881	1230.784
-7.560	31.939	1456.687	1229.801
-6.546	31.802	1456.151	1228.402
-5.531	31.994	1455.324	1228.917
-4.517	31.885	1453.847	1226.908
-3.502	31.934	1452.883	1226.366
-2.487	31.892	1451.777	1225.105
-1.473	31.840	1451.053	1224.106
-0.458	31.879	1449.692	1223.168
0.556	29.668	1439.200	1211.622
1.571	26.512	1413.651	1169.646
2.586	22.939	1352.787	1097.041
3.600	21.257	1270.142	1020.117
4.615	20.168	1225.633	978.145
5.629	17.342	1169.531	918.052
6.644	8.402	1084.492	806.285
7.659	0.894	1043.586	739.233
8.673	-0.206	1038.148	729.970
9.688	-0.351	1034.630	726.727
10.702	-0.368	1033.074	725.490
11.717	-0.355	1031.217	724.181
12.731	2.675	1034.554	741.125
13.746	11.724	1047.139	794.184
14.761	18.193	1055.114	831.716
15.775	18.631	1055.373	833.979
16.790	18.699	1054.631	833.649
17.804	18.593	1053.155	831.896
18.819	18.417	1052.687	830.598
19.834	18.366	1052.007	829.738
20.848	18.565	1051.649	830.347
21.863	18.528	1051.049	829.623
22.877	18.424	1051.280	829.227
23.892	18.342	1050.309	827.992
24.907	18.364	1049.013	827.005
25.921	18.366	1048.680	826.675
26.936	18.476	1048.101	826.678
27.950	18.312	1046.811	824.796
28.965	18.478	1045.420	824.427
29.980	18.276	1044.054	822.307
30.994	18.275	1042.154	820.733
32.009	18.457	1041.707	821.179
33.023	18.534	1041.313	821.165
34.038	18.364	1039.156	818.578
35.053	18.365	1038.657	818.120
36.067	18.298	1038.551	817.644
37.082	18.472	1037.346	817.450
38.096	18.547	1036.272	816.889
39.111	18.698	1035.201	816.692
40.126	18.908	1034.189	816.818
41.140	18.673	1033.114	814.782
42.155	18.533	1031.576	812.833
43.169	18.199	1030.758	810.535
44.184	18.151	1029.594	809.321
45.199	18.201	1028.594	808.701
46.213	18.173	1027.600	807.715
47.228	18.023	1026.440	806.022
48.242	18.330	1025.182	806.410
49.257	18.233	1024.828	805.605
50.271	18.297	1023.774	805.006
51.286	18.553	1022.495	805.132
52.301	18.531	1021.453	804.137
53.315	18.490	1021.032	803.542
54.330	18.610	1019.994	803.215
55.344	18.381	1019.495	801.678
56.359	18.479	1018.617	801.377
57.374	18.446	1017.851	800.550
58.388	18.425	1016.430	799.260
59.403	18.212	1016.133	797.963
60.417	18.423	1015.165	798.117
61.432	18.223	1014.198	796.355
62.447	18.295	1013.050	795.719
63.461	18.414	1012.815	796.013
64.476	18.427	1011.641	795.083
65.490	18.330	1010.936	794.010
66.505	18.263	1009.834	792.763
67.520	18.398	1008.890	792.577
68.534	18.457	1008.060	792.127
69.549	18.338	1007.096	790.749
70.563	17.996	1006.214	788.409
71.578	18.014	1004.960	787.442
72.593	17.999	1004.566	786.991
73.607	17.981	1003.406	785.933
74.622	17.997	1001.953	784.798
75.636	18.146	1001.671	785.191
76.651	18.367	1001.094	785.683
77.666	18.116	1000.045	783.642
78.680	18.029	999.015	782.364
79.695	17.986	998.647	781.810
80.709	18.171	997.833	781.949
81.724	18.321	997.108	781.999
82.739	18.301	996.165	781.097
83.753	18.284	995.159	780.163
84.768	18.413	994.278	779.991
85.782	18.473	994.094	780.051
86.797	18.633	993.157	779.971
87.812	18.598	992.259	779.040
88.826	18.617	991.241	778.260
89.841	18.545	990.914	777.608
90.855	18.652	989.588	776.984
91.870	18.648	989.085	776.501
92.884	18.639	988.121	775.635
93.899	18.644	986.908	774.637
94.914	18.563	985.936	773.438
95.928	18.571	985.437	773.016
96.943	18.681	984.296	772.549
97.957	18.378	983.516	770.505
98.972	18.238	982.262	768.825
99.987	17.950	981.471	766.845
101.001	18.191	980.378	767.000
102.016	18.371	979.525	767.074
103.030	18.452	978.579	766.629
104.045	18.310	977.504	765.084
105.060	18.169	976.129	763.309
106.074	17.990	974.728	761.346
107.089	18.077	974.346	761.369
108.103	18.514	974.430	763.313
109.118	18.589	973.376	762.753
110.133	18.273	972.475	760.578
111.147	18.354	970.911	759.646
112.162	18.296	969.524	758.237
113.176	18.223	968.169	756.787
114.191	18.152	968.110	756.361
115.206	18.207	966.948	755.628
116.220	18.077	965.498	753.855
117.235	17.789	965.226	752.306
118.249	18.082	964.055	752.617
119.264	18.082	963.260	751.930
120.279	18.073	961.842	750.716
121.293	18.049	961.162	750.014
122.308	18.191	960.782	750.275
123.322	18.275	959.406	749.503
124.337	18.270	958.660	748.832
125.352	18.106	957.191	746.902
126.366	17.643	955.635	743.602
127.381	17.505	953.809	741.514
128.395	18.033	953.386	743.417
129.410	18.516	953.149	745.267
130.424	18.638	952.690	745.372
131.439	18.516	951.404	743.769
132.454	18.524	950.164	742.770
133.468	18.406	949.362	741.567
134.483	18.323	948.351	740.351
135.497	18.487	947.701	740.488
136.512	18.654	947.129	740.695
137.527	18.778	946.434	740.620
138.541	18.648	945.659	739.390
139.556	18.661	944.697	738.628
140.570	18.725	943.932	738.241
141.585	18.728	942.866	737.352
142.600	18.729	941.977	736.596
143.614	18.571	940.914	735.024
144.629	18.756	939.929	734.979
145.643	18.868	939.839	735.325
146.658	18.881	938.694	734.419
147.673	18.546	937.932	732.326
148.687	18.697	936.411	731.718
149.702	18.667	935.619	730.909
150.716	18.611	934.314	729.586
151.731	18.605	933.133	728.572
152.746	18.569	932.504	727.865
153.760	18.751	932.319	728.427
154.775	18.945	931.233	728.337
155.789	18.844	930.742	727.461
156.804	18.814	929.644	726.410
157.819	18.784	928.876	725.620
158.833	18.950	927.305	725.030
159.848	18.897	926.949	724.465
160.862	18.935	926.253	724.014
161.877	18.818	925.140	722.590
162.892	18.740	924.821	721.950
163.906	18.826	924.077	721.666
164.921	18.966	923.242	721.535
165.935	18.846	921.941	719.952
166.950	18.835	920.870	719.006
167.964	18.850	919.876	718.231
168.979	18.850	918.863	717.378
169.994	18.850	917.858	716.528
171.008	18.632	917.001	714.886
172.023	18.929	915.866	715.173
173.037	18.923	915.309	714.650
174.052	18.673	914.366	712.815
175.067	18.560	913.102	711.295
176.081	18.556	912.463	710.722
177.096	18.689	911.663	710.584
178.110	18.782	911.070	710.444
179.125	18.485	909.852	708.205
180.140	18.297	908.953	706.667
181.154	18.281	908.262	706.001
182.169	18.487	907.540	706.223
183.183	18.614	907.381	706.561
184.198	18.797	906.838	706.830
185.213	18.767	906.001	705.992
186.227	18.711	905.221	705.093
187.242	18.866	904.702	705.259
188.256	18.852	904.339	704.860
189.271	18.863	903.184	703.941
190.286	18.890	902.702	703.612
191.300	18.673	901.801	701.962
192.315	18.376	900.469	699.648
193.329	17.784	898.997	696.028
194.344	17.429	897.900	693.672
195.359	17.927	898.206	695.876
196.373	18.641	898.310	698.803
197.388	18.982	897.531	699.523
198.402	18.805	896.601	698.017
199.417	18.629	895.956	696.738
200.432	18.700	895.851	696.884
201.446	18.415	894.969	694.982
202.461	18.166	894.018	693.173
203.475	18.284	893.518	693.201
204.490	17.913	892.015	690.473
205.504	16.768	890.246	684.417
206.519	17.430	889.823	686.704
207.534	18.289	890.476	690.615
208.548	18.363	889.630	690.197
209.563	18.687	889.749	691.533
210.577	18.747	888.638	690.850
211.592	18.511	887.852	689.227
212.607	18.786	887.622	690.096
213.621	18.829	887.299	689.956
214.636	18.738	886.056	688.563
215.650	18.862	885.868	688.851
216.665	18.935	885.167	688.541
217.680	18.907	884.717	688.016
218.694	18.920	884.189	687.596
219.709	18.587	883.100	685.359
220.723	18.441	881.834	683.733
221.738	18.473	881.852	683.814
222.753	18.933	881.012	684.936
223.767	18.653	880.144	683.086
224.782	18.804	879.540	683.156
225.796	18.962	878.835	683.179
226.811	19.156	878.213	683.403
227.826	18.601	877.372	680.488
228.840	17.926	875.372	676.202
229.855	17.741	875.264	675.327
230.869	18.226	874.794	676.825
231.884	17.859	873.414	674.247
232.899	17.963	873.181	674.418
233.913	18.734	873.094	677.335
234.928	18.854	872.838	677.547
235.942	18.824	872.391	677.024
236.957	18.828	871.824	676.540
237.972	18.533	870.499	674.292
238.986	18.492	869.866	673.582
240.001	18.566	869.216	673.309
241.015	18.717	868.615	673.374
242.030	18.661	868.312	672.863
243.045	18.660	867.511	672.178
244.059	18.821	866.498	671.962
245.074	18.965	866.357	672.355
246.088	18.734	866.173	671.252
247.103	18.594	864.750	669.541
248.117	18.549	864.175	668.862
249.132	19.025	863.858	670.413
250.147	19.201	863.440	670.715
251.161	19.348	862.730	670.675
252.176	19.437	862.189	670.543
253.190	19.432	861.246	669.731
254.205	19.472	861.410	669.954
255.220	19.676	860.626	670.077
256.234	19.681	859.545	669.192
257.249	19.588	859.002	668.352
258.263	19.333	858.714	667.083
259.278	19.599	857.230	666.896
260.293	19.581	857.396	666.899
261.307	19.646	856.857	666.669
262.322	19.531	856.025	665.521
263.336	19.388	855.278	664.329
264.351	19.102	852.996	661.401
265.366	17.891	851.461	655.504
266.380	17.348	850.959	652.976
267.395	18.258	851.602	656.907
268.409	19.101	851.173	659.751
269.424	19.143	850.578	659.392
270.439	19.261	850.143	659.446
271.453	19.438	849.249	659.372
272.468	19.496	848.794	659.184
273.482	19.565	848.572	659.216
274.497	19.832	848.155	659.851
275.512	19.555	846.893	657.756
276.526	18.968	845.324	654.247
277.541	19.179	845.027	654.761
278.555	19.370	844.951	655.372
279.570	19.224	844.277	654.236
280.585	18.968	843.111	652.304
281.599	19.001	842.695	652.049
282.614	19.340	842.098	652.813
283.628	18.865	841.623	650.589
284.643	18.713	839.865	648.600
285.657	19.058	839.941	649.902
286.672	18.891	839.497	648.872
287.687	18.324	838.434	645.852
288.701	18.745	838.366	647.331
289.716	19.100	837.710	648.103
290.730	18.897	836.616	646.439
291.745	18.857	835.846	645.637
292.760	18.684	834.735	644.071
293.774	18.612	834.252	643.370
294.789	19.388	834.707	646.577
295.803	19.919	834.709	648.510
296.818	19.927	834.390	648.236
297.833	19.970	834.081	648.098
298.847	19.738	832.790	646.170
299.862	19.375	831.750	643.952
300.876	19.636	831.372	644.577
301.891	19.875	830.700	644.889
302.906	19.897	829.931	644.315
303.920	19.543	829.098	642.297
304.935	19.271	828.479	640.748
305.949	19.693	827.993	641.885
306.964	19.795	827.861	642.103
307.979	19.589	827.579	641.063
308.993	19.607	826.831	640.492
310.008	19.948	826.392	641.362
311.022	19.950	826.114	641.096
312.037	20.017	825.150	640.538
313.052	19.703	824.724	638.988
314.066	19.785	823.875	638.577
315.081	19.188	822.874	635.544
316.095	18.418	821.487	631.577
317.110	19.029	821.404	633.710
318.125	19.726	821.775	636.509
319.139	19.375	820.776	634.387
320.154	18.578	818.499	629.647
321.168	17.912	818.227	626.936
322.183	18.569	818.343	629.383
323.197	19.287	818.447	632.040
324.212	19.634	817.922	632.850
325.227	19.666	818.082	633.035
326.241	19.787	817.394	632.891
327.256	19.639	817.351	632.257
328.270	19.565	816.280	631.105
329.285	19.509	815.617	630.332
330.300	19.452	814.858	629.482
331.314	19.475	813.627	628.557
332.329	19.441	813.057	627.937
333.343	19.664	813.181	628.790
334.358	19.876	812.695	629.130
335.373	19.910	811.683	628.413
336.387	19.802	811.531	627.849
337.402	20.095	811.014	628.455
338.416	20.327	810.403	628.767
339.431	20.237	809.995	628.068
340.446	20.020	809.677	626.983
341.460	20.301	808.744	627.220
342.475	20.170	808.481	626.487
343.489	20.131	807.152	625.261
344.504	20.044	806.936	624.724
345.519	20.240	806.825	625.291
346.533	20.374	806.498	625.464
347.548	20.473	805.996	625.377
348.562	20.681	805.855	625.958
349.577	20.636	804.697	624.844
350.592	20.592	804.438	624.427
351.606	20.495	803.924	623.625
352.621	20.695	803.708	624.121
353.635	20.508	803.232	623.025
354.650	20.378	802.362	621.830
355.665	20.174	801.418	620.315
356.679	19.278	799.937	615.911
357.694	18.952	799.589	614.423
358.708	19.750	799.291	616.989
359.723	19.635	798.471	615.891
360.738	19.886	798.460	616.725
361.752	20.361	798.061	618.052
362.767	20.385	797.441	617.603
363.781	20.562	797.985	618.600
364.796	20.666	797.675	618.675
365.810	20.828	796.920	618.611
366.825	20.826	796.351	618.106
367.840	20.896	796.259	618.228
368.854	20.758	795.755	617.293
369.869	20.400	794.880	615.291
370.883	20.315	794.010	614.264
371.898	20.436	793.552	614.282
372.913	20.218	793.056	613.074
373.927	20.189	791.953	612.063
374.942	20.387	791.397	612.277
375.956	20.462	791.268	612.388
376.971	20.706	790.579	612.660
377.986	20.759	790.252	612.539
379.000	20.781	790.243	612.556
380.015	20.797	789.302	611.828
381.029	20.777	788.880	611.378
382.044	20.712	788.296	610.642
383.059	20.782	787.780	610.434
384.073	20.829	787.097	610.015
385.088	20.985	786.829	610.299
386.102	20.878	786.386	609.529
387.117	20.790	785.934	608.816
388.132	20.710	785.293	607.987
389.146	20.489	784.660	606.670
390.161	20.110	783.795	604.627
391.175	20.066	783.172	603.939
392.190	20.551	783.065	605.493
393.205	20.500	782.910	605.142
394.219	19.690	781.311	601.036
395.234	18.424	779.350	595.080
396.248	17.746	778.585	592.089
397.263	18.862	779.108	596.309
398.278	20.424	779.860	602.254
399.292	20.855	779.943	603.758
400.307	20.496	779.588	602.186
401.321	20.423	779.207	601.585
402.336	20.694	778.375	601.827
403.350	20.887	778.352	602.425
404.365	21.059	778.488	603.071
405.380	21.286	778.017	603.436
406.394	21.551	777.563	603.944
407.409	21.515	777.395	603.637
408.423	21.512	776.943	603.222
409.438	21.365	776.104	602.011
410.453	21.477	775.772	602.088
411.467	21.514	775.675	602.086
412.482	21.492	775.133	601.534
413.496	21.592	774.226	601.120
414.511	21.610	773.875	600.857
415.526	21.550	773.640	600.415
416.540	21.563	773.532	600.323
417.555	21.652	772.596	599.848
418.569	21.177	771.794	597.549
419.584	21.099	771.570	597.057
420.599	21.333	771.048	597.399
421.613	157.276	1360.129	1794.130
422.628	135.630	1445.965	1794.243
