DTS Sentinel unit serial number:	SN413079Multiplexer serial number:	ORYXHardware model number:	OX4-SRSoftware version number:	ORYX F/W v4.00 Oryx Data Collector v3.7.2.0data status	okinstallation	princeton_trtdifferential loss correction	single-endedforward channel	channel 3reverse channel	N/Adate	2019/09/13time	15:04:35forward acquisition time	60.00reverse acquisition time	0.00gamma	496.2192k internal	0.2300k external	0.2300temperature offset calibration	1.0141default loss term (dB/km)	0.3790temperature slope calibration	1.0000multiplexer offset coefficient	1.0000multiplexer slope coefficient	1.0000fibre end	0.00T internal ref (°C)	35.62T ext. ref 1 (°C)	4.72T ext. ref 2 (°C)	30.99length (m)	temperature (°C)	Stokes	anti-Stokes-747.200	800.000	0.016	0.045
-746.185	113.236	0.287	0.356
-745.171	-125.518	0.239	0.037
-744.156	800.000	0.103	0.349
-743.142	-111.842	-0.472	0.097
-742.127	225.216	0.047	0.077
-741.112	-92.549	0.399	0.114
-740.098	120.190	0.136	0.172
-739.083	-90.562	0.159	0.047
-738.069	800.000	-0.032	-0.104
-737.054	-171.090	0.088	-0.003
-736.039	-106.884	-0.385	0.087
-735.025	800.000	0.008	0.028
-734.010	-117.217	-0.376	0.070
-732.996	-82.396	-0.084	0.028
-731.981	4.941	0.277	-0.208
-730.966	19.655	-0.095	0.078
-729.952	24.596	-0.324	-0.274
-728.937	800.000	-0.048	-0.200
-727.923	-127.374	-0.273	-0.041
-726.908	-58.161	-0.050	-0.022
-725.894	-119.330	0.200	0.035
-724.879	90.791	0.096	0.109
-723.864	-120.333	0.385	0.067
-722.850	38.783	-0.124	0.113
-721.835	-200.000	-0.024	-0.269
-720.821	26.866	-0.232	-0.198
-719.806	-79.378	-0.358	0.124
-718.791	-174.188	-0.193	0.006
-717.777	53.492	-0.106	0.103
-716.762	-80.187	-0.404	0.138
-715.748	-97.403	0.257	0.068
-714.733	250.026	-0.100	0.173
-713.718	-63.774	-0.260	-0.109
-712.704	424.742	-0.090	-0.196
-711.689	750.907	-0.041	-0.112
-710.675	-29.702	0.227	-0.132
-709.660	-143.081	0.377	0.037
-708.645	-14.876	0.359	-0.234
-707.631	800.000	0.124	0.403
-706.616	459.833	-0.077	-0.174
-705.602	-39.930	0.347	0.184
-704.587	-106.095	-0.158	-0.036
-703.572	-133.835	-0.043	-0.005
-702.558	-200.000	0.011	-0.204
-701.543	118.133	-0.269	0.338
-700.529	386.362	0.209	0.439
-699.514	332.808	0.069	0.136
-698.499	419.592	0.047	-0.102
-697.485	-200.000	-0.016	0.341
-696.470	-200.000	0.007	-0.385
-695.456	-170.869	0.444	0.015
-694.441	-24.255	0.191	-0.116
-693.426	-200.000	0.057	-0.408
-692.412	-176.980	-0.293	0.008
-691.397	-200.000	-0.002	-0.146
-690.383	-71.073	-0.148	0.057
-689.368	433.784	0.051	0.113
-688.354	-63.650	0.099	0.041
-687.339	64.140	-0.339	0.347
-686.324	-46.700	-0.358	0.178
-685.310	593.685	0.105	-0.263
-684.295	-59.192	-0.138	-0.060
-683.281	-82.733	-0.337	-0.111
-682.266	161.523	-0.065	0.093
-681.251	237.811	-0.179	0.302
-680.237	198.139	0.196	-0.305
-679.222	-37.446	0.097	-0.052
-678.208	-85.938	-0.295	-0.093
-677.193	800.000	-0.151	-0.512
-676.178	-114.916	-0.109	0.021
-675.164	800.000	0.040	0.114
-674.149	-200.000	-0.010	0.051
-673.135	800.000	-0.013	-0.042
-672.120	-200.000	0.015	-0.229
-671.105	116.476	-0.088	-0.109
-670.091	-135.723	0.448	0.054
-669.076	6.685	-0.355	-0.269
-668.062	-52.473	0.139	0.065
-667.047	-200.000	0.023	0.202
-666.032	-148.386	-0.248	-0.021
-665.018	-33.488	-0.107	0.060
-664.003	-200.000	-0.030	-0.332
-662.989	272.855	0.097	0.175
-661.974	-111.929	-0.355	0.073
-660.959	-200.000	0.005	-0.349
-659.945	357.727	0.068	0.137
-658.930	-200.000	0.099	0.466
-657.916	27.611	0.147	-0.126
-656.901	-200.000	-0.046	0.208
-655.886	25.241	0.078	0.066
-654.872	-61.709	-0.151	-0.064
-653.857	-200.000	-0.020	0.439
-652.843	-200.000	-0.017	0.158
-651.828	364.799	-0.075	-0.154
-650.814	-200.000	-0.004	0.067
-649.799	-113.390	0.220	-0.044
-648.784	268.945	-0.259	-0.461
-647.770	225.083	0.025	0.041
-646.755	800.000	-0.046	0.154
-645.741	239.365	-0.152	-0.257
-644.726	-74.074	0.284	-0.105
-643.711	191.972	-0.088	0.135
-642.697	-114.465	-0.245	0.048
-641.682	52.818	-0.153	-0.149
-640.668	141.303	-0.094	0.126
-639.653	800.000	0.109	-0.397
-638.638	-115.704	-0.090	-0.017
-637.624	-200.000	-0.016	0.093
-636.609	339.357	-0.033	-0.064
-635.595	-120.283	-0.488	-0.085
-634.580	590.998	0.061	0.153
-633.565	-49.180	-0.088	-0.043
-632.551	-68.739	-0.096	-0.038
-631.536	107.284	-0.065	-0.079
-630.522	-64.300	-0.107	0.044
-629.507	-119.315	0.303	0.054
-628.492	-93.692	-0.185	0.052
-627.478	303.561	0.140	0.264
-626.463	-0.922	0.131	0.094
-625.449	107.671	0.132	0.160
-624.434	-200.000	0.028	-0.195
-623.419	64.186	-0.140	0.143
-622.405	-159.300	0.205	-0.012
-621.390	-200.000	-0.040	-0.207
-620.376	-66.675	0.223	0.090
-619.361	363.846	-0.078	0.158
-618.346	-142.798	-0.048	-0.005
-617.332	-51.358	-0.220	-0.105
-616.317	-91.004	-0.225	0.066
-615.303	-22.526	-0.312	0.191
-614.288	-49.567	0.387	0.187
-613.273	-179.912	0.188	0.004
-612.259	-2.743	0.181	0.129
-611.244	-161.065	-0.269	-0.014
-610.230	-15.610	-0.057	0.037
-609.215	-200.000	0.026	-0.285
-608.201	-200.000	0.032	0.164
-607.186	-200.000	-0.029	-0.192
-606.171	41.136	0.163	-0.149
-605.157	800.000	0.050	0.147
-604.142	256.058	0.204	0.355
-603.128	97.814	-0.170	0.198
-602.113	-200.000	-0.039	-0.214
-601.098	-200.000	-0.010	-0.297
-600.084	347.367	-0.210	0.419
-599.069	-200.000	-0.023	-0.116
-598.055	-13.218	0.127	0.084
-597.040	-14.639	0.193	-0.126
-596.025	-63.353	-0.156	-0.065
-595.011	472.956	-0.036	0.082
-593.996	-200.000	0.004	-0.148
-592.982	170.209	0.137	0.199
-591.967	-200.000	-0.018	0.395
-590.952	-34.742	0.021	0.012
-589.938	-122.460	-0.113	0.019
-588.923	55.545	0.235	0.230
-587.909	800.000	-0.042	-0.138
-586.894	-190.782	0.213	-0.002
-585.879	-88.361	-0.280	0.085
-584.865	800.000	-0.029	0.111
-583.850	71.593	0.172	-0.181
-582.836	553.010	-0.100	-0.244
-581.821	41.474	0.093	-0.085
-580.806	-111.574	0.247	0.051
-579.792	-200.000	-0.028	-0.372
-578.777	-150.537	-0.159	-0.012
-577.763	-165.761	-0.327	0.014
-576.748	800.000	0.053	-0.233
-575.733	55.658	-0.051	0.050
-574.719	-155.499	-0.436	-0.029
-573.704	-9.530	-0.216	-0.146
-572.690	-200.000	0.050	-0.271
-571.675	800.000	-0.063	-0.238
-570.661	-200.000	-0.023	-0.140
-569.646	533.393	-0.109	-0.262
-568.631	-200.000	0.025	-0.151
-567.617	86.172	-0.123	-0.138
-566.602	-142.855	-0.489	0.048
-565.588	322.208	-0.072	0.139
-564.573	100.554	-0.194	-0.228
-563.558	-34.913	0.106	0.058
-562.544	357.636	-0.074	0.150
-561.529	800.000	-0.057	-0.241
-560.515	60.676	-0.139	-0.139
-559.500	-82.081	0.198	0.065
-558.485	1.333	0.213	-0.155
-557.471	571.055	-0.016	-0.040
-556.456	245.613	-0.073	0.125
-555.442	19.827	0.119	-0.097
-554.427	151.211	-0.037	-0.052
-553.412	-78.275	-0.345	-0.120
-552.398	-86.905	-0.281	-0.087
-551.383	800.000	0.051	-0.205
-550.369	51.893	-0.085	-0.081
-549.354	27.929	-0.263	-0.224
-548.339	-200.000	-0.020	-0.088
-547.325	-200.000	-0.017	0.079
-546.310	-200.000	0.004	-0.225
-545.296	-67.515	0.279	0.111
-544.281	-29.195	-0.316	0.183
-543.266	-200.000	-0.042	0.201
-542.252	-200.000	0.019	0.228
-541.237	-153.588	-0.326	-0.023
-540.223	-33.001	-0.200	-0.112
-539.208	120.215	-0.383	-0.481
-538.193	-89.100	0.148	-0.044
-537.179	-145.643	0.244	-0.022
-536.164	-200.000	-0.004	0.266
-535.150	578.255	0.040	-0.098
-534.135	555.473	0.052	-0.126
-533.121	800.000	0.116	0.363
-532.106	-176.791	0.187	-0.005
-531.091	165.306	0.194	0.277
-530.077	-5.478	0.274	0.190
-529.062	-71.602	0.088	0.033
-528.048	-107.150	-0.417	-0.093
-527.033	51.003	0.085	-0.082
-526.018	-53.790	-0.114	-0.053
-525.004	800.000	0.050	0.167
-523.989	111.781	0.064	-0.078
-522.975	-128.335	0.045	-0.006
-521.960	-84.518	0.433	-0.138
-520.945	99.254	-0.120	-0.140
-519.931	-200.000	0.008	-0.111
-518.916	-200.000	-0.009	0.428
-517.902	-168.287	0.165	-0.006
-516.887	358.163	-0.050	0.100
-515.872	-95.113	0.211	-0.058
-514.858	800.000	0.047	-0.157
-513.843	800.000	-0.066	-0.235
-512.829	44.672	-0.185	0.172
-511.814	63.570	0.142	0.144
-510.799	89.124	0.154	0.173
-509.785	-54.218	-0.176	0.081
-508.770	-12.955	-0.283	-0.186
-507.756	85.831	-0.235	-0.261
-506.741	40.172	0.128	-0.116
-505.726	-59.978	-0.233	-0.100
-504.712	246.789	-0.188	-0.320
-503.697	285.680	0.155	0.282
-502.683	-55.467	-0.272	-0.123
-501.668	-48.064	0.075	-0.037
-500.653	100.259	0.105	-0.123
-499.639	18.067	-0.061	0.049
-498.624	-42.040	-0.195	-0.101
-497.610	-103.092	-0.435	0.104
-496.595	51.001	0.098	0.094
-495.581	2.986	-0.136	-0.100
-494.566	654.652	0.021	-0.055
-493.551	4.345	0.030	0.022
-492.537	-77.091	-0.111	0.039
-491.522	82.698	-0.246	-0.270
-490.508	-74.476	0.336	0.122
-489.493	681.045	0.055	0.145
-488.478	-53.752	-0.167	-0.077
-487.464	-172.310	0.255	0.008
-486.449	-112.129	-0.290	0.059
-485.435	-200.000	-0.042	0.387
-484.420	233.944	-0.109	-0.182
-483.405	-102.641	0.300	0.072
-482.391	478.186	-0.035	-0.080
-481.376	163.816	-0.258	0.366
-480.362	-200.000	-0.018	0.316
-479.347	-200.000	0.019	-0.109
-478.332	-28.305	0.206	-0.120
-477.318	100.550	0.232	0.271
-476.303	-200.000	0.046	-0.238
-475.289	-86.893	-0.239	0.074
-474.274	-114.835	0.349	0.067
-473.259	271.569	-0.155	-0.276
-472.245	-116.020	-0.062	-0.012
-471.230	137.026	-0.111	0.147
-470.216	800.000	-0.093	0.379
-469.201	-169.226	-0.141	-0.005
-468.186	-13.398	-0.258	-0.169
-467.172	178.574	0.252	-0.372
-466.157	209.230	0.125	-0.198
-465.143	-45.778	-0.017	-0.009
-464.128	129.823	-0.085	0.110
-463.113	179.902	-0.080	0.118
-462.099	-200.000	-0.025	0.215
-461.084	-90.081	-0.116	0.034
-460.070	65.488	0.099	0.101
-459.055	-86.235	-0.179	-0.056
-458.040	-200.000	-0.017	-0.170
-457.026	276.898	0.159	-0.285
-456.011	-88.256	0.137	-0.041
-454.997	800.000	0.071	0.224
-453.982	314.687	0.122	0.231
-452.968	266.884	-0.123	0.217
-451.953	800.000	-0.027	0.106
-450.938	-122.931	-0.143	0.023
-449.924	351.669	0.104	0.207
-448.909	-142.302	-0.294	0.029
-447.895	37.921	-0.151	-0.135
-446.880	-95.085	-0.200	-0.054
-445.865	-34.843	0.266	-0.146
-444.851	-200.000	-0.007	-0.128
-443.836	800.000	0.071	-0.225
-442.822	234.636	-0.143	0.237
-441.807	-200.000	0.035	0.326
-440.792	350.452	0.082	0.163
-439.778	707.774	-0.048	0.128
-438.763	-200.000	0.029	-0.281
-437.749	-23.912	0.141	-0.085
-436.734	-1.551	-0.221	0.157
-435.719	800.000	-0.016	-0.056
-434.705	148.364	0.163	-0.221
-433.690	-200.000	0.010	0.187
-432.676	-200.000	-0.003	-0.173
-431.661	-68.571	0.223	-0.087
-430.646	662.357	-0.087	0.227
-429.632	104.944	0.089	0.106
-428.617	0.923	0.063	-0.046
-427.603	-93.647	-0.197	-0.055
-426.588	161.040	0.005	0.007
-425.573	-93.869	0.132	0.037
-424.559	165.580	-0.123	0.174
-423.544	-200.000	0.015	-0.305
-422.530	800.000	-0.078	-0.266
-421.515	-123.593	0.437	0.070
-420.500	-200.000	-0.013	0.121
-419.486	-200.000	-0.335	-0.001
-418.471	265.290	-0.175	0.308
-417.457	-71.121	0.276	-0.105
-416.442	-105.687	0.173	0.040
-415.428	80.716	-0.193	-0.209
-414.413	509.172	-0.121	-0.284
-413.398	-154.789	0.135	-0.009
-412.384	800.000	0.026	-0.110
-411.369	-200.000	-0.029	0.191
-410.355	269.693	0.176	-0.311
-409.340	264.204	0.069	-0.121
-408.325	-200.000	-0.022	-0.168
-407.311	-46.152	-0.166	0.082
-406.296	203.400	0.089	-0.139
-405.282	-177.354	-0.153	-0.004
-404.267	800.000	-0.010	0.035
-403.252	368.740	0.180	-0.366
-402.238	-42.402	-0.303	-0.156
-401.223	-126.044	0.438	-0.066
-400.209	4.295	0.018	0.013
-399.194	122.655	0.225	0.283
-398.179	86.879	-0.199	-0.221
-397.165	800.000	0.101	-0.314
-396.150	103.434	0.117	0.139
-395.136	-120.847	0.118	-0.020
-394.121	-120.031	0.291	0.050
-393.106	65.555	0.345	0.351
-392.092	134.068	0.202	0.263
-391.077	359.639	0.057	0.114
-390.063	122.272	-0.090	-0.113
-389.048	50.955	-0.217	0.207
-388.033	531.353	-0.085	-0.201
-387.019	61.830	-0.143	0.143
-386.004	70.975	-0.241	-0.251
-384.990	-182.228	-0.089	0.002
-383.975	-200.000	-0.009	0.100
-382.960	-101.642	-0.221	0.054
-381.946	110.371	0.238	0.287
-380.931	-163.132	0.232	-0.011
-379.917	78.336	-0.119	-0.128
-378.902	-130.823	0.200	-0.027
-377.888	-177.178	-0.299	-0.007
-376.873	455.955	0.047	0.106
-375.858	800.000	0.009	0.030
-374.844	-200.000	0.021	0.197
-373.829	67.179	-0.056	0.057
-372.815	-159.656	-0.325	-0.018
-371.800	80.314	-0.175	0.189
-370.785	-15.184	0.249	0.161
-369.771	-200.000	0.017	-0.348
-368.756	-42.367	-0.414	-0.212
-367.742	-200.000	-0.011	-0.071
-366.727	206.624	-0.077	0.121
-365.712	8.901	0.263	0.199
-364.698	800.000	-0.104	0.413
-363.683	-144.118	-0.201	-0.019
-362.669	105.012	-0.107	-0.127
-361.654	-168.100	0.306	0.012
-360.639	126.653	0.041	-0.052
-359.625	-26.683	-0.289	-0.170
-358.610	-15.040	0.075	0.048
-357.596	-200.000	-0.001	0.095
-356.581	15.296	-0.267	-0.210
-355.566	1.853	-0.237	0.172
-354.552	97.176	-0.074	0.085
-353.537	-65.117	0.187	-0.076
-352.523	117.091	-0.091	-0.112
-351.508	-200.000	0.015	0.137
-350.493	-200.000	-0.012	-0.125
-349.479	-9.160	-0.083	0.056
-348.464	-200.000	-0.353	-0.002
-347.450	800.000	-0.047	-0.189
-346.435	143.946	0.031	-0.042
-345.420	-68.382	-0.163	0.064
-344.406	25.663	0.209	-0.175
-343.391	-168.596	0.126	0.005
-342.377	-24.477	-0.173	-0.103
-341.362	-200.000	0.012	0.091
-340.348	800.000	-0.044	0.171
-339.333	124.742	0.106	0.133
-338.318	-40.397	0.093	0.049
-337.304	-200.000	0.034	0.193
-336.289	-32.169	0.140	-0.078
-335.275	-100.944	-0.269	-0.066
-334.260	-46.836	0.144	0.071
-333.245	-40.027	0.146	-0.077
-332.231	-200.000	0.020	-0.283
-331.216	-121.148	-0.424	0.071
-330.202	-25.034	0.136	0.081
-329.187	-108.158	-0.070	0.015
-328.172	-80.556	0.284	0.095
-327.158	-99.009	0.046	0.012
-326.143	-25.537	-0.122	-0.072
-325.129	-105.136	0.263	-0.060
-324.114	-43.210	-0.206	0.104
-323.099	131.758	0.086	0.111
-322.085	226.134	-0.091	0.148
-321.070	-93.418	0.073	-0.020
-320.056	800.000	0.034	-0.135
-319.041	-61.745	-0.191	0.080
-318.026	-164.883	-0.133	0.006
-317.012	-200.000	0.035	-0.187
-315.997	-46.361	0.278	-0.137
-314.983	-54.395	-0.048	-0.022
-313.968	150.984	-0.090	-0.123
-312.953	198.896	-0.084	0.129
-311.939	-188.954	-0.028	0.000
-310.924	-200.000	-0.001	-0.462
-309.910	-200.000	-0.020	0.286
-308.895	-200.000	-0.053	-0.559
-307.880	-200.000	0.010	-0.410
-306.866	12.081	0.009	0.007
-305.851	229.643	-0.054	0.088
-304.837	-200.000	0.050	-0.345
-303.822	-200.000	-0.010	-0.184
-302.807	-81.905	0.189	-0.062
-301.793	145.512	-0.181	0.243
-300.778	395.372	0.214	0.448
-299.764	-200.000	0.024	-0.279
-298.749	800.000	0.021	-0.073
-297.735	325.477	-0.175	0.335
-296.720	240.128	0.115	0.192
-295.705	-60.143	0.196	0.084
-294.691	-35.036	0.495	0.270
-293.676	-58.802	-0.077	0.033
-292.662	-200.000	0.020	-0.193
-291.647	-93.940	0.184	0.051
-290.632	-188.402	-0.137	0.002
-289.618	354.401	-0.123	-0.244
-288.603	407.629	0.145	-0.306
-287.589	-200.000	0.006	-0.134
-286.574	214.705	0.046	0.072
-285.559	-151.954	-0.202	-0.015
-284.545	-0.562	-0.130	-0.092
-283.530	99.788	0.123	-0.142
-282.516	71.850	0.060	0.062
-281.501	42.100	0.220	-0.200
-280.486	-200.000	0.012	0.120
-279.472	350.986	0.065	-0.129
-278.457	-170.634	0.134	-0.005
-277.443	-33.527	-0.267	-0.148
-276.428	-200.000	0.006	-0.247
-275.413	543.372	0.101	-0.241
-274.399	45.769	0.417	0.386
-273.384	-20.685	-0.309	-0.190
-272.370	-34.358	0.391	-0.215
-271.355	82.446	0.262	0.284
-270.340	-78.785	0.197	-0.067
-269.326	-200.000	0.040	0.281
-268.311	-140.230	0.231	-0.024
-267.297	-200.000	0.012	0.346
-266.282	-141.635	0.513	-0.052
-265.267	651.931	0.107	0.274
-264.253	220.430	0.260	0.417
-263.238	-143.504	-0.276	-0.026
-262.224	89.600	0.086	-0.096
-261.209	-17.204	-0.359	0.226
-260.195	-116.751	0.298	0.055
-259.180	3.300	-0.402	-0.293
-258.165	-122.051	0.276	0.045
-257.151	71.921	0.109	0.113
-256.136	-200.000	-0.018	0.170
-255.122	306.585	-0.139	0.259
-254.107	210.702	0.185	-0.290
-253.092	800.000	0.072	-0.247
-252.078	299.541	-0.114	-0.210
-251.063	-136.459	-0.367	0.043
-250.049	-120.963	-0.105	0.018
-249.034	-141.345	0.194	-0.020
-248.019	800.000	0.041	0.115
-247.005	-54.892	0.210	-0.095
-245.990	26.171	0.035	-0.029
-244.976	5.358	-0.177	0.131
-243.961	-200.000	0.007	-0.076
-242.946	306.561	0.136	0.252
-241.932	13.166	0.136	-0.105
-240.917	-34.094	-0.110	-0.060
-239.903	-117.581	0.168	0.030
-238.888	-71.306	0.128	-0.048
-237.873	-83.138	0.115	0.037
-236.859	-18.547	0.226	0.141
-235.844	363.297	-0.189	0.380
-234.830	-149.369	-0.128	-0.010
-233.815	-2.621	-0.159	0.111
-232.800	256.559	0.177	0.303
-231.786	-72.074	0.265	-0.098
-230.771	60.371	0.299	-0.296
-229.757	175.680	-0.113	-0.164
-228.742	663.605	-0.117	-0.300
-227.727	-41.404	0.129	0.066
-226.713	-105.373	0.143	-0.032
-225.698	101.369	-0.164	0.191
-224.684	50.477	0.089	0.084
-223.669	-129.967	-0.145	0.020
-222.655	-200.000	-0.012	0.203
-221.640	-131.500	0.247	-0.033
-220.625	283.565	-0.106	-0.189
-219.611	-174.268	-0.372	0.011
-218.596	-33.858	0.248	0.136
-217.582	-200.000	-0.025	0.352
-216.567	79.935	0.075	-0.081
-215.552	48.261	0.171	0.160
-214.538	99.068	-0.162	0.187
-213.523	-166.885	0.106	-0.004
-212.509	-83.348	0.139	-0.045
-211.494	369.056	-0.128	-0.258
-210.479	-99.007	0.271	0.069
-209.465	304.473	0.208	0.385
-208.450	-200.000	0.005	-0.317
-207.436	55.012	-0.204	-0.197
-206.421	-200.000	-0.158	0.001
-205.406	-200.000	-0.008	0.130
-204.392	244.034	0.151	0.254
-203.377	68.308	-0.171	0.174
-202.363	52.561	-0.141	0.135
-201.348	-72.654	0.561	0.207
-200.333	-56.061	0.131	0.058
-199.319	557.925	-0.099	-0.238
-198.304	773.541	0.209	-0.569
-197.290	-44.522	-0.095	0.048
-196.275	445.558	0.087	-0.190
-195.260	73.203	0.161	-0.168
-194.246	55.623	-0.216	0.209
-193.231	-200.000	0.005	-0.130
-192.217	296.567	0.093	0.170
-191.202	-200.000	0.033	0.299
-190.187	487.272	-0.092	-0.210
-189.173	114.166	0.102	0.123
-188.158	-200.000	-0.019	-0.257
-187.144	412.145	0.078	0.166
-186.129	-200.000	0.023	0.164
-185.114	261.361	0.134	-0.231
-184.100	-0.733	0.127	-0.090
-183.085	-62.193	0.073	0.030
-182.071	-91.468	0.187	0.053
-181.056	-56.869	-0.121	-0.053
-180.042	-154.908	0.138	0.009
-179.027	800.000	-0.068	0.233
-178.012	-77.170	-0.120	0.042
-176.998	81.527	0.137	-0.147
-175.983	118.835	0.157	0.193
-174.969	-162.559	-0.077	0.004
-173.954	79.595	0.168	0.180
-172.939	296.397	0.180	0.329
-171.925	76.175	-0.207	0.218
-170.910	23.652	0.250	0.205
-169.896	-73.898	0.142	0.051
-168.881	443.665	-0.051	0.112
-167.866	31.991	-0.125	0.107
-166.852	141.269	0.166	-0.219
-165.837	800.000	0.061	0.184
-164.823	-3.362	-0.096	-0.067
-163.808	90.720	0.132	-0.148
-162.793	-200.000	0.049	0.247
-161.779	800.000	-0.043	-0.151
-160.764	-200.000	-0.025	-0.186
-159.750	-126.765	-0.246	-0.036
-158.735	-36.563	-0.070	0.037
-157.720	-200.000	-0.009	0.144
-156.706	-200.000	-0.017	0.294
-155.691	-170.932	-0.241	0.008
-154.677	610.980	-0.184	0.457
-153.662	366.569	0.070	-0.142
-152.647	-1.240	-0.121	0.085
-151.633	156.227	0.107	-0.147
-150.618	-118.525	0.229	-0.040
-149.604	-114.897	0.108	-0.020
-148.589	83.729	0.240	0.261
-147.574	6.257	0.335	0.248
-146.560	46.058	-0.011	0.010
-145.545	-50.711	0.091	-0.043
-144.531	-86.158	0.337	-0.103
-143.516	0.767	0.180	-0.128
-142.502	-41.324	0.198	0.101
-141.487	-62.639	0.093	-0.039
-140.472	-26.281	-0.050	-0.029
-139.458	-176.353	0.307	-0.008
-138.443	-200.000	0.046	-0.292
-137.429	123.945	0.298	-0.372
-136.414	-149.366	-0.121	0.010
-135.399	69.918	0.070	0.072
-134.385	800.000	-0.080	-0.348
-133.370	105.846	0.276	0.325
-132.356	-125.761	-0.072	0.011
-131.341	277.908	0.108	-0.192
-130.326	108.966	-0.114	-0.135
-129.312	-159.375	-0.161	0.009
-128.297	246.331	0.029	0.048
-127.283	17.591	-0.280	-0.222
-126.268	225.024	-0.058	-0.094
-125.253	-200.000	0.024	0.118
-124.239	-200.000	-0.063	0.396
-123.224	355.531	0.065	0.129
-122.210	-134.007	0.097	0.012
-121.195	-133.224	0.308	0.039
-120.180	363.406	0.139	0.278
-119.166	-200.000	-0.026	-0.202
-118.151	-200.000	0.054	-0.307
-117.137	-29.802	0.418	0.237
-116.122	230.484	0.047	0.077
-115.107	800.000	0.074	-0.233
-114.093	376.510	-0.167	0.340
-113.078	800.000	0.037	-0.123
-112.064	-6.621	-0.245	0.166
-111.049	-8.029	-0.312	0.209
-110.034	800.000	0.054	-0.184
-109.020	544.186	-0.120	-0.285
-108.005	-84.007	0.188	0.059
-106.991	404.375	0.152	0.318
-105.976	-67.679	0.258	-0.101
-104.962	-80.742	0.132	-0.044
-103.947	-109.478	-0.107	0.022
-102.932	137.277	-0.368	0.479
-101.918	-200.000	-0.023	0.152
-100.903	13.762	-0.173	-0.134
-99.889	-17.341	-0.434	-0.272
-98.874	605.757	-0.080	0.199
-97.859	430.864	-0.048	0.103
-96.845	800.000	0.041	-0.132
-95.830	-82.400	-0.392	-0.127
-94.816	627.256	0.102	0.256
-93.801	268.376	-0.023	-0.040
-92.786	-158.359	-0.051	-0.003
-91.772	800.000	-0.040	-0.133
-90.757	-200.000	0.024	-0.158
-89.743	-120.314	0.416	-0.071
-88.728	47.628	-0.054	0.050
-87.713	80.390	0.160	0.171
-86.699	-200.000	-0.051	0.547
-85.684	312.114	0.007	0.012
-84.670	76.374	0.140	0.147
-83.655	-200.000	0.006	0.234
-82.640	-22.090	0.171	-0.103
-81.626	234.790	0.074	0.122
-80.611	367.791	-0.127	-0.254
-79.597	-109.904	-0.081	-0.017
-78.582	-6.265	-0.247	0.167
-77.567	-17.528	0.048	0.030
-76.553	232.848	0.103	-0.169
-75.538	-48.083	0.185	0.089
-74.524	-200.000	-0.018	-0.117
-73.509	110.528	0.061	-0.073
-72.494	54.475	-0.101	0.097
-71.480	-46.598	0.248	0.121
-70.465	-147.689	-0.079	0.007
-69.451	-141.792	0.135	0.013
-68.436	-146.563	0.420	0.036
-67.422	-200.000	-0.010	0.217
-66.407	54.455	-0.059	0.057
-65.392	-163.857	0.241	0.011
-64.378	101.783	-0.161	-0.187
-63.363	171.841	0.101	-0.144
-62.349	-144.730	-0.064	-0.006
-61.334	205.601	-0.839	-1.295
-60.319	211.448	0.261	0.408
-59.305	-200.000	-0.016	-0.862
-58.290	106.375	0.764	0.899
-57.276	394.372	0.786	1.625
-56.261	-200.000	93.107	551.403
-55.246	608.839	1385.519	3433.520
-54.232	185.209	2602.170	3833.703
-53.217	120.885	2217.953	2738.203
-52.203	46.098	1748.562	1607.152
-51.188	38.645	1557.489	1379.264
-50.173	36.260	1529.106	1337.565
-49.159	54.497	1578.200	1509.351
-48.144	58.112	1597.264	1552.976
-47.130	39.138	1553.218	1378.724
-46.115	35.883	1537.832	1342.354
-45.100	35.679	1534.593	1338.057
-44.086	35.702	1532.989	1336.766
-43.071	35.712	1530.522	1334.630
-42.057	35.590	1529.146	1332.526
-41.042	35.491	1527.991	1330.787
-40.027	35.536	1526.587	1329.822
-39.013	35.720	1524.791	1329.476
-37.998	35.541	1523.352	1326.930
-36.984	35.544	1522.412	1326.082
-35.969	35.537	1521.495	1325.181
-34.954	35.635	1519.656	1324.198
-33.940	35.590	1518.418	1322.757
-32.925	35.578	1517.114	1321.489
-31.911	35.677	1515.336	1320.570
-30.896	35.693	1514.158	1319.600
-29.881	35.709	1512.981	1318.631
-28.867	35.651	1511.833	1317.178
-27.852	35.702	1510.279	1316.125
-26.838	35.720	1508.472	1314.620
-25.823	35.753	1506.941	1313.461
-24.809	35.673	1505.430	1311.542
-23.794	35.639	1504.249	1310.231
-22.779	35.568	1503.501	1309.045
-21.765	35.658	1501.792	1308.116
-20.750	35.691	1500.346	1307.027
-19.736	35.681	1499.173	1305.885
-18.721	35.728	1498.063	1305.189
-17.706	35.735	1497.265	1304.486
-16.692	35.583	1496.159	1302.444
-15.677	35.590	1495.684	1302.022
-14.663	35.639	1494.174	1300.990
-13.648	35.534	1493.451	1299.600
-12.633	35.526	1492.348	1298.536
-11.619	35.657	1491.363	1298.510
-10.604	35.496	1490.502	1296.622
-9.590	35.585	1489.728	1296.496
-8.575	35.592	1489.035	1295.888
-7.560	35.555	1488.248	1294.906
-6.546	35.672	1486.841	1294.414
-5.531	35.648	1486.057	1293.520
-4.517	35.517	1484.998	1291.667
-3.502	35.671	1484.023	1291.799
-2.487	35.580	1483.133	1290.364
-1.473	35.526	1482.109	1289.059
-0.458	35.640	1480.430	1288.310
0.556	37.645	1471.002	1277.394
1.571	34.182	1444.007	1231.486
2.586	29.880	1380.274	1150.351
3.600	27.628	1295.328	1066.305
4.615	25.151	1247.206	1012.636
5.629	21.135	1189.459	943.990
6.644	12.652	1103.581	833.004
7.659	5.945	1061.334	768.311
8.673	4.990	1055.481	759.357
9.688	4.717	1052.597	755.886
10.702	4.478	1050.579	753.211
11.717	4.686	1049.486	753.370
12.731	7.867	1053.279	771.463
13.746	16.265	1064.644	820.711
14.761	21.997	1071.502	853.892
15.775	22.081	1070.721	853.600
16.790	21.343	1068.757	848.379
17.804	20.372	1066.619	841.900
18.819	19.451	1064.970	836.066
19.834	18.915	1063.489	832.232
20.848	18.861	1062.568	831.177
21.863	18.703	1061.818	829.753
22.877	18.491	1061.152	828.139
23.892	18.366	1060.006	826.568
24.907	18.146	1059.544	825.070
25.921	18.230	1059.051	825.019
26.936	18.256	1058.278	824.470
27.950	18.161	1057.046	822.979
28.965	18.236	1055.893	822.371
29.980	18.337	1054.845	821.966
30.994	18.396	1053.992	821.511
32.009	18.508	1053.197	821.355
33.023	18.703	1052.160	821.408
34.038	18.564	1051.944	820.499
35.053	18.487	1050.694	819.084
36.067	18.394	1049.507	817.645
37.082	18.382	1048.704	816.889
38.096	18.422	1048.097	816.533
39.111	18.408	1047.574	815.988
40.126	18.502	1046.798	815.757
41.140	18.513	1044.884	814.249
42.155	18.224	1043.905	812.042
43.169	18.038	1043.204	810.540
44.184	17.932	1042.007	809.035
45.199	17.808	1041.269	807.807
46.213	17.811	1040.496	807.147
47.228	18.037	1039.085	807.050
48.242	18.276	1038.434	807.601
49.257	18.358	1037.483	807.176
50.271	18.237	1036.667	805.899
51.286	18.322	1035.393	805.239
52.301	18.426	1035.265	805.559
53.315	18.343	1034.600	804.577
54.330	18.262	1033.249	803.078
55.344	18.177	1032.284	801.858
56.359	18.029	1031.552	800.524
57.374	18.207	1030.029	800.103
58.388	18.185	1029.567	799.572
59.403	17.961	1028.656	797.745
60.417	18.039	1027.657	797.266
61.432	18.093	1027.210	797.101
62.447	17.965	1026.686	796.027
63.461	17.824	1025.694	794.531
64.476	17.864	1024.807	793.961
65.490	17.789	1023.618	792.617
66.505	17.699	1023.072	791.706
67.520	17.664	1022.299	790.879
68.534	17.845	1021.413	790.960
69.549	17.822	1020.456	790.042
70.563	17.964	1019.492	789.886
71.578	17.756	1018.989	788.464
72.593	17.741	1017.922	787.496
73.607	17.581	1016.987	785.968
74.622	17.509	1016.169	784.935
75.636	17.618	1015.263	784.668
76.651	17.642	1014.600	784.194
77.666	17.712	1013.493	783.592
78.680	17.791	1012.833	783.373
79.695	17.653	1012.749	782.606
80.709	17.695	1012.344	782.418
81.724	17.835	1011.119	782.042
82.739	18.052	1010.680	782.630
83.753	18.044	1009.316	781.468
84.768	18.147	1009.155	781.744
85.782	18.335	1008.606	782.110
86.797	18.671	1008.055	783.143
87.812	18.615	1007.197	782.156
88.826	18.428	1005.862	780.194
89.841	18.359	1005.395	779.450
90.855	18.496	1004.274	779.138
91.870	18.415	1004.077	778.548
92.884	18.647	1003.047	778.733
93.899	18.571	1002.185	777.650
94.914	18.591	1001.015	776.762
95.928	18.649	1000.651	776.676
96.943	18.622	999.979	775.961
97.957	18.507	999.371	774.900
98.972	18.477	998.319	773.883
99.987	18.495	997.407	773.188
101.001	18.528	996.883	772.860
102.016	18.484	995.785	771.745
103.030	18.430	995.166	770.954
104.045	18.491	994.029	770.280
105.060	18.522	992.798	769.394
106.074	18.385	992.210	768.255
107.089	18.201	990.859	766.321
108.103	17.872	990.175	764.248
109.118	17.858	989.064	763.262
110.133	17.903	987.976	762.556
111.147	17.819	987.167	761.488
112.162	17.903	986.159	761.020
113.176	17.932	985.626	760.670
114.191	17.921	984.876	759.973
115.206	18.166	983.476	759.914
116.220	18.037	983.300	759.139
117.235	17.974	982.350	758.058
118.249	17.952	981.620	757.330
119.264	17.863	980.737	756.188
120.279	17.906	979.643	755.469
121.293	17.914	978.764	754.760
122.308	17.806	978.037	753.654
123.322	17.662	977.509	752.543
124.337	17.675	975.899	751.297
125.352	17.600	974.891	750.122
126.366	17.595	973.969	749.326
127.381	17.550	972.826	748.183
128.395	17.631	971.915	747.772
129.410	17.735	970.719	747.239
130.424	17.663	970.466	746.665
131.439	17.755	969.399	746.180
132.454	17.834	969.063	746.202
133.468	17.968	967.986	745.891
134.483	18.025	967.372	745.600
135.497	18.045	966.974	745.312
136.512	18.031	966.190	744.582
137.527	17.989	965.377	743.709
138.541	18.049	964.396	743.148
139.556	18.126	963.658	742.848
140.570	18.065	963.315	742.254
141.585	18.128	962.653	741.951
142.600	18.269	962.114	742.079
143.614	18.427	961.172	741.972
144.629	18.481	960.621	741.716
145.643	18.528	959.893	741.288
146.658	18.544	958.802	740.451
147.673	18.401	957.880	739.056
148.687	18.047	957.201	736.941
149.702	18.026	955.956	735.828
150.716	17.964	954.660	734.497
151.731	17.980	954.096	734.066
152.746	18.032	953.343	733.645
153.760	18.035	952.502	732.950
154.775	18.212	951.707	733.027
155.789	18.334	950.720	732.726
156.804	18.217	950.484	731.979
157.819	18.273	949.426	731.339
158.833	18.369	948.493	730.964
159.848	18.446	948.561	731.281
160.862	18.568	947.749	731.112
161.877	18.470	946.872	729.951
162.892	18.150	945.761	727.671
163.906	18.204	944.641	726.973
164.921	18.083	943.833	725.774
165.935	18.026	943.211	724.989
166.950	18.120	941.997	724.392
167.964	18.210	940.886	723.855
168.979	18.198	940.192	723.205
169.994	18.133	938.891	721.863
171.008	18.142	937.991	721.147
172.023	18.098	937.473	720.498
173.037	18.279	937.029	720.855
174.052	18.491	935.867	720.792
175.067	18.447	935.393	720.178
176.081	18.208	934.120	718.131
177.096	18.208	933.353	717.479
178.110	18.118	932.436	716.333
179.125	17.985	932.060	715.420
180.140	18.208	930.896	715.397
181.154	18.056	930.508	714.402
182.169	18.205	930.039	714.602
183.183	18.365	929.537	714.820
184.198	18.516	928.992	714.968
185.213	18.453	928.401	714.187
186.227	18.468	927.581	713.554
187.242	18.577	926.732	713.291
188.256	18.660	926.408	713.324
189.271	18.675	925.612	712.709
190.286	18.781	925.232	712.794
191.300	18.674	923.907	711.269
192.315	18.138	923.090	708.355
193.329	17.949	922.561	707.106
194.344	17.915	921.444	706.044
195.359	18.054	921.134	706.320
196.373	18.116	920.660	706.150
197.388	18.345	919.673	706.273
198.402	18.504	919.441	706.690
199.417	18.845	919.095	707.768
200.432	18.838	919.208	707.763
201.446	18.866	918.813	707.512
202.461	18.940	918.186	707.269
203.475	18.908	917.906	706.858
204.490	18.923	917.330	706.416
205.504	18.850	916.007	705.034
206.519	18.837	914.634	703.863
207.534	18.673	914.283	702.858
208.548	18.676	913.172	701.955
209.563	18.682	913.177	701.920
210.577	18.616	912.190	700.830
211.592	18.731	911.675	700.843
212.607	18.798	911.740	701.104
213.621	18.914	910.861	700.840
214.636	18.984	909.910	700.330
215.650	18.786	909.601	699.223
216.665	18.708	909.294	698.608
217.680	19.017	908.493	699.188
218.694	19.061	908.109	699.010
219.709	19.021	907.894	698.619
220.723	19.103	906.980	698.187
221.738	19.071	906.156	697.360
222.753	18.838	905.535	695.877
223.767	19.132	904.419	696.148
224.782	18.954	903.747	694.851
225.796	19.075	903.432	695.036
226.811	19.304	902.647	695.292
227.826	19.082	901.826	693.702
228.840	19.121	900.826	693.032
229.855	19.001	900.281	692.067
230.869	18.909	899.449	690.995
231.884	18.948	898.719	690.530
232.899	18.899	897.997	689.718
233.913	18.924	897.378	689.283
234.928	18.902	896.794	688.686
235.942	18.698	896.287	687.420
236.957	18.604	895.402	686.303
237.972	18.696	894.680	686.055
238.986	18.709	894.173	685.658
240.001	18.699	893.344	684.920
241.015	18.773	892.769	684.714
242.030	18.725	892.073	683.929
243.045	18.868	891.491	683.990
244.059	19.045	891.355	684.533
245.074	18.933	890.577	683.430
246.088	19.017	889.744	683.062
247.103	19.087	889.337	682.968
248.117	19.349	888.902	683.612
249.132	19.299	888.266	682.863
250.147	19.456	887.938	683.172
251.161	19.541	888.012	683.507
252.176	19.851	886.963	683.863
253.190	19.841	886.492	683.399
254.205	19.834	885.870	682.833
255.220	19.993	885.420	683.054
256.234	19.924	884.656	682.132
257.249	19.877	883.972	681.358
258.263	19.875	883.394	680.844
259.278	19.796	882.705	679.941
260.293	19.819	882.040	679.462
261.307	19.800	881.722	679.083
262.322	19.965	880.954	679.078
263.336	20.029	880.478	678.899
264.351	19.880	880.193	678.037
265.366	20.144	879.043	678.125
266.380	20.027	878.557	677.231
267.395	19.916	878.140	676.418
268.409	19.883	877.188	675.494
269.424	19.879	876.253	674.701
270.439	19.799	875.570	673.804
271.453	19.792	874.901	673.199
272.468	19.865	873.778	672.560
273.482	19.740	873.526	671.823
274.497	19.634	873.000	670.945
275.512	19.787	872.052	670.751
276.526	19.689	871.348	669.770
277.541	19.807	870.774	669.726
278.555	19.800	870.422	669.372
279.570	19.832	869.965	669.082
280.585	20.196	869.191	669.835
281.599	20.217	868.735	669.506
282.614	19.929	868.346	668.035
283.628	20.070	867.366	667.764
284.643	19.875	866.860	666.564
285.657	19.960	866.319	666.417
286.672	19.790	865.923	665.399
287.687	19.910	865.308	665.331
288.701	19.878	864.817	664.772
289.716	20.120	863.833	664.884
290.730	19.895	863.488	663.698
291.745	19.904	863.291	663.520
292.760	20.021	862.377	663.206
293.774	19.873	861.937	662.243
294.789	20.098	861.249	662.519
295.803	20.247	860.623	662.546
296.818	20.033	859.940	661.146
297.833	19.934	859.321	660.232
298.847	19.951	858.357	659.499
299.862	20.080	857.804	659.506
300.876	19.998	857.334	658.776
301.891	20.245	856.515	659.025
302.906	20.237	856.157	658.662
303.920	20.344	855.778	658.719
304.935	20.477	855.343	658.827
305.949	20.582	854.733	658.699
306.964	20.664	853.859	658.276
307.979	20.356	853.165	656.518
308.993	20.414	852.500	656.170
310.008	20.444	852.444	656.181
311.022	20.517	851.714	655.837
312.037	20.564	851.138	655.511
313.052	20.302	850.595	654.049
314.066	20.387	849.493	653.462
315.081	20.059	849.096	651.868
316.095	20.038	848.729	651.447
317.110	20.167	847.774	651.140
318.125	20.180	847.235	650.719
319.139	20.119	846.924	650.195
320.154	20.203	846.455	650.091
321.168	20.077	846.154	649.332
322.183	20.373	845.381	649.787
323.197	20.286	844.835	648.984
324.212	20.218	844.786	648.637
325.227	20.309	843.494	647.926
326.241	20.170	843.589	647.422
327.256	20.242	842.420	646.735
328.270	20.224	842.157	646.410
329.285	20.015	841.932	645.401
330.300	20.278	840.961	645.580
331.314	20.238	840.362	644.915
332.329	20.306	839.948	644.791
333.343	20.392	839.579	644.770
334.358	20.484	839.036	644.639
335.373	20.465	838.421	644.038
336.387	20.585	837.680	643.855
337.402	20.628	837.549	643.857
338.416	20.599	836.974	643.250
339.431	20.778	836.173	643.241
340.446	20.854	835.940	643.286
341.460	21.025	835.265	643.340
342.475	21.016	834.825	642.910
343.489	20.919	834.363	642.140
344.504	21.010	834.019	642.154
345.519	21.059	833.716	642.042
346.533	21.185	832.821	641.762
347.548	20.936	832.875	640.829
348.562	20.937	832.180	640.244
349.577	20.719	831.042	638.509
350.592	20.656	830.588	637.874
351.606	20.520	829.928	636.812
352.621	20.577	829.507	636.643
353.635	20.616	829.171	636.471
354.650	20.754	828.406	636.330
355.665	20.629	827.978	635.488
356.679	20.899	827.729	636.230
357.694	20.882	827.281	635.765
358.708	20.880	826.793	635.326
359.723	20.947	825.939	634.860
360.738	20.877	825.489	634.200
361.752	20.807	824.921	633.456
362.767	20.944	824.992	633.952
363.781	21.035	824.678	633.985
364.796	21.000	824.310	633.517
365.810	21.252	823.728	633.932
366.825	21.377	823.086	633.833
367.840	21.363	823.339	633.922
368.854	21.397	822.677	633.478
369.869	21.230	822.283	632.514
370.883	21.139	821.568	631.580
371.898	21.263	820.921	631.473
372.913	21.308	820.419	631.195
373.927	21.260	819.594	630.332
374.942	21.343	819.203	630.275
375.956	21.357	818.400	629.651
376.971	21.449	817.788	629.454
377.986	21.596	816.972	629.299
379.000	21.624	816.902	629.289
380.015	21.517	816.676	628.676
381.029	21.650	815.817	628.436
382.044	21.484	815.232	627.335
383.059	21.491	814.582	626.806
384.073	21.462	814.725	626.755
385.088	21.437	813.723	625.838
386.102	21.405	812.846	624.997
387.117	21.292	812.368	624.167
388.132	21.150	812.057	623.368
389.146	21.199	811.545	623.095
390.161	21.191	811.412	622.908
391.175	21.443	810.805	623.287
392.190	21.445	810.455	622.969
393.205	21.562	809.654	622.713
394.219	21.438	809.410	622.029
395.234	21.255	808.879	620.918
396.248	21.247	808.430	620.490
397.263	21.254	807.463	619.715
398.278	21.014	807.305	618.688
399.292	21.050	806.700	618.299
400.307	21.137	806.183	618.156
401.321	21.019	806.044	617.576
402.336	21.013	805.292	616.923
403.350	21.319	805.328	617.981
404.365	21.403	804.899	617.894
405.380	21.439	804.632	617.761
406.394	21.445	804.321	617.486
407.409	21.734	803.851	618.092
408.423	21.770	803.386	617.807
409.438	21.749	802.757	617.194
410.453	21.903	802.505	617.487
411.467	22.051	802.161	617.690
412.482	21.992	801.369	616.816
413.496	22.023	801.284	616.806
414.511	22.032	800.771	616.388
415.526	22.064	800.161	615.978
416.540	21.937	799.918	615.290
417.555	21.957	799.514	614.993
418.569	21.942	798.969	614.468
419.584	21.997	798.465	614.220
420.599	21.978	797.917	613.678
421.613	157.642	1367.772	1786.130
422.628	136.724	1450.811	1786.246
