DTS Sentinel unit serial number:	SN413079Multiplexer serial number:	ORYXHardware model number:	OX4-SRSoftware version number:	ORYX F/W v4.00 Oryx Data Collector v3.7.2.0data status	okinstallation	princeton_trtdifferential loss correction	single-endedforward channel	channel 3reverse channel	N/Adate	2019/09/13time	09:48:34forward acquisition time	60.00reverse acquisition time	0.00gamma	496.2192k internal	0.2324k external	0.2324temperature offset calibration	1.0144default loss term (dB/km)	0.3790temperature slope calibration	1.0000multiplexer offset coefficient	1.0000multiplexer slope coefficient	1.0000fibre end	0.00T internal ref (°C)	29.87T ext. ref 1 (°C)	4.46T ext. ref 2 (°C)	26.69length (m)	temperature (°C)	Stokes	anti-Stokes-747.200	-200.000	0.037	-0.230
-746.185	-200.000	-0.004	0.148
-745.171	800.000	0.112	0.339
-744.156	209.418	-0.134	0.211
-743.142	-8.108	0.275	0.187
-742.127	631.153	-0.079	0.201
-741.112	67.105	0.076	0.078
-740.098	-69.780	0.151	0.058
-739.083	19.963	0.108	0.088
-738.069	3.525	0.060	0.044
-737.054	112.203	0.104	0.126
-736.039	-37.660	0.314	-0.169
-735.025	-5.021	0.075	-0.052
-734.010	478.025	0.144	-0.329
-732.996	-56.220	-0.259	-0.116
-731.981	-59.458	0.302	-0.131
-730.966	125.965	-0.176	-0.224
-729.952	-138.780	-0.421	0.046
-728.937	356.665	-0.074	0.149
-727.923	-29.188	-0.120	-0.070
-726.908	-200.000	0.019	0.123
-725.894	5.385	0.137	0.102
-724.879	-189.924	-0.236	-0.003
-723.864	-118.663	-0.215	-0.038
-722.850	56.910	-0.170	-0.167
-721.835	177.558	-0.017	-0.025
-720.821	-90.477	0.238	-0.069
-719.806	-154.472	0.080	-0.005
-718.791	18.753	-0.147	0.119
-717.777	-200.000	0.010	-0.587
-716.762	27.360	0.207	0.176
-715.748	113.356	-0.147	0.180
-714.733	88.684	-0.241	0.270
-713.718	-115.770	-0.164	-0.031
-712.704	-200.000	-0.014	-0.073
-711.689	-16.673	-0.287	-0.183
-710.675	3.800	-0.403	0.296
-709.660	477.629	-0.110	0.251
-708.645	-200.000	-0.053	0.400
-707.631	125.649	0.149	-0.190
-706.616	252.831	-0.095	-0.163
-705.602	47.990	0.210	-0.198
-704.587	-43.568	0.185	0.094
-703.572	399.657	-0.203	-0.428
-702.558	-143.308	-0.092	-0.009
-701.543	-20.242	-0.245	0.152
-700.529	-6.042	-0.266	0.183
-699.514	-200.000	-0.051	-0.276
-698.499	26.373	-0.114	-0.096
-697.485	-6.828	-0.138	-0.095
-696.470	-115.383	-0.271	0.051
-695.456	55.357	-0.198	0.193
-694.441	-200.000	0.014	0.275
-693.426	16.879	0.165	0.131
-692.412	254.065	-0.118	0.203
-691.397	135.714	-0.144	-0.189
-690.383	-38.383	-0.295	0.157
-689.368	49.131	-0.104	-0.098
-688.354	77.242	0.257	-0.275
-687.339	-56.572	-0.242	-0.108
-686.324	12.872	-0.109	0.085
-685.310	-101.614	0.059	-0.014
-684.295	-200.000	-0.019	-0.345
-683.281	64.919	-0.347	-0.353
-682.266	589.312	-0.095	-0.235
-681.251	114.779	0.302	-0.371
-680.237	-34.752	0.154	-0.085
-679.222	800.000	-0.056	-0.165
-678.208	-200.000	-0.012	0.195
-677.193	98.034	-0.114	0.132
-676.178	408.799	-0.140	-0.298
-675.164	-178.826	-0.074	0.002
-674.149	-51.892	-0.199	0.093
-673.135	-200.000	-0.010	0.147
-672.120	-9.652	-0.082	0.055
-671.105	-55.455	0.254	-0.115
-670.091	558.707	-0.016	-0.040
-669.076	220.368	-0.177	-0.285
-668.062	800.000	0.066	0.217
-667.047	-48.762	-0.184	-0.089
-666.032	-47.025	-0.180	0.089
-665.018	-42.279	0.335	-0.172
-664.003	87.205	-0.183	0.204
-662.989	198.177	-0.095	0.146
-661.974	-172.471	0.186	-0.006
-660.959	535.577	-0.030	-0.071
-659.945	-108.815	-0.210	-0.045
-658.930	-157.087	-0.176	-0.011
-657.916	-58.958	-0.137	-0.059
-656.901	-89.836	0.041	-0.012
-655.886	-130.096	-0.167	0.023
-654.872	-59.524	0.059	-0.025
-653.857	800.000	0.076	-0.266
-652.843	800.000	0.019	-0.079
-651.828	-200.000	-0.028	-0.402
-650.814	-200.000	0.008	0.445
-649.799	238.477	0.102	0.170
-648.784	800.000	0.136	-0.438
-647.770	-100.306	-0.339	-0.085
-646.755	53.565	-0.104	0.101
-645.741	240.321	-0.141	0.236
-644.726	-200.000	-0.030	-0.148
-643.711	426.396	0.100	-0.216
-642.697	-68.718	0.415	0.161
-641.682	-32.397	0.206	0.116
-640.668	128.190	-0.236	-0.302
-639.653	394.059	0.083	-0.174
-638.638	375.275	0.110	0.225
-637.624	66.673	-0.124	0.127
-636.609	135.380	-0.192	-0.251
-635.595	-134.314	0.076	0.009
-634.580	800.000	0.096	0.301
-633.565	-97.252	-0.290	-0.076
-632.551	100.073	-0.038	0.044
-631.536	-25.207	-0.271	-0.162
-630.522	-200.000	0.005	-0.071
-629.507	-200.000	-0.029	-0.153
-628.492	34.647	-0.015	0.014
-627.478	-67.194	0.187	-0.074
-626.463	-95.587	0.379	-0.102
-625.449	800.000	-0.060	-0.183
-624.434	24.546	-0.256	0.213
-623.419	800.000	0.011	0.032
-622.405	-70.491	-0.296	0.113
-621.390	254.045	0.137	0.235
-620.376	61.436	-0.097	0.097
-619.361	-144.095	0.165	0.016
-618.346	-59.255	-0.136	-0.059
-617.332	80.576	-0.069	0.074
-616.317	-200.000	0.052	-0.425
-615.303	-200.000	0.023	-0.218
-614.288	91.797	-0.199	0.225
-613.273	-181.704	-0.145	0.003
-612.259	-124.559	0.013	0.002
-611.244	16.464	0.311	-0.247
-610.230	-200.000	0.012	-0.200
-609.215	42.169	0.250	0.228
-608.201	555.345	0.121	-0.294
-607.186	52.598	-0.086	-0.082
-606.171	-58.350	0.206	-0.090
-605.157	4.045	0.100	0.074
-604.142	800.000	-0.089	0.272
-603.128	106.211	-0.097	-0.116
-602.113	-142.230	-0.095	0.009
-601.098	15.697	0.134	-0.106
-600.084	740.452	-0.068	-0.184
-599.069	91.786	0.097	-0.110
-598.055	86.361	-0.122	-0.135
-597.040	-144.710	-0.164	-0.015
-596.025	-200.000	-0.000	0.005
-595.011	-40.983	0.367	-0.190
-593.996	-25.049	0.380	0.226
-592.982	-200.000	-0.072	0.346
-591.967	-87.890	0.040	0.012
-590.952	-74.559	0.335	-0.121
-589.938	-160.495	-0.245	-0.013
-588.923	-25.199	0.279	-0.166
-587.909	-200.000	0.013	0.224
-586.894	-200.000	-0.017	-0.397
-585.879	-2.360	0.097	-0.068
-584.865	382.133	-0.061	0.126
-583.850	-172.749	0.338	0.011
-582.836	477.799	0.152	-0.346
-581.821	800.000	-0.031	-0.111
-580.806	16.947	-0.063	0.050
-579.792	88.905	0.112	0.125
-578.777	-98.831	0.403	-0.103
-577.763	-139.717	-0.181	0.019
-576.748	437.895	-0.107	-0.233
-575.733	44.800	-0.122	-0.112
-574.719	-48.798	-0.282	-0.136
-573.704	147.707	-0.143	-0.194
-572.690	-129.511	0.097	-0.014
-571.675	438.453	-0.105	-0.231
-570.661	-28.805	-0.015	-0.009
-569.646	-200.000	-0.014	0.103
-568.631	-94.406	0.071	-0.019
-567.617	154.241	0.108	0.149
-566.602	381.861	-0.108	0.223
-565.588	-200.000	0.002	-0.099
-564.573	800.000	0.051	0.175
-563.558	-117.661	0.345	0.062
-562.544	-200.000	0.010	-0.160
-561.529	358.743	0.320	-0.641
-560.515	-28.565	-0.211	0.122
-559.500	291.035	-0.032	-0.059
-558.485	800.000	-0.071	0.290
-557.471	-11.710	-0.380	0.250
-556.456	311.776	-0.050	0.094
-555.442	101.706	0.078	0.091
-554.427	-29.959	0.195	-0.111
-553.412	-200.000	-0.007	-0.143
-552.398	800.000	-0.014	-0.041
-551.383	7.830	-0.165	0.124
-550.369	800.000	-0.090	0.337
-549.354	67.680	-0.072	-0.074
-548.339	-200.000	-0.000	-0.351
-547.325	-200.000	0.021	-0.246
-546.310	-117.950	-0.267	0.048
-545.296	800.000	0.081	0.271
-544.281	800.000	0.070	-0.205
-543.266	-200.000	-0.022	-0.178
-542.252	107.771	-0.092	-0.109
-541.237	65.574	-0.100	-0.102
-540.223	-186.236	0.174	-0.003
-539.208	-161.209	-0.021	0.001
-538.193	-100.157	-0.151	-0.038
-537.179	98.287	0.112	0.129
-536.164	22.047	-0.085	-0.069
-535.150	-166.998	-0.158	-0.006
-534.135	-105.120	0.288	0.066
-533.121	800.000	-0.057	0.162
-532.106	43.974	0.061	-0.056
-531.091	-147.271	-0.074	0.006
-530.077	-200.000	-0.035	0.243
-529.062	-5.120	0.179	-0.123
-528.048	-5.768	0.148	-0.102
-527.033	193.084	0.103	0.155
-526.018	-4.452	0.261	0.181
-525.004	-109.076	-0.213	-0.045
-523.989	94.292	-0.134	0.152
-522.975	-18.638	0.143	-0.089
-521.960	529.051	-0.054	-0.128
-520.945	-37.641	0.027	0.014
-519.931	800.000	0.033	0.137
-518.916	159.128	0.174	0.242
-517.902	-139.000	0.071	0.008
-516.887	-161.774	0.257	0.013
-515.872	800.000	-0.071	0.201
-514.858	-157.715	-0.497	-0.030
-513.843	224.733	0.077	0.124
-512.829	1.256	-0.206	-0.148
-511.814	193.096	0.129	0.195
-510.799	-200.000	-0.003	-0.014
-509.785	56.276	-0.215	0.209
-508.770	198.830	-0.087	-0.133
-507.756	-129.621	0.188	0.026
-506.741	-200.000	-0.015	-0.350
-505.726	83.029	0.163	-0.178
-504.712	-200.000	-0.012	-0.090
-503.697	377.138	0.075	-0.153
-502.683	26.689	-0.277	-0.232
-501.668	71.184	-0.130	-0.134
-500.653	468.420	-0.051	-0.114
-499.639	9.477	0.100	0.076
-498.624	20.304	-0.256	-0.206
-497.610	-105.609	0.201	-0.046
-496.595	-109.852	-0.272	0.057
-495.581	54.244	0.151	0.145
-494.566	-200.000	0.001	-0.018
-493.551	-12.280	-0.219	-0.143
-492.537	-58.925	-0.176	0.076
-491.522	-149.926	-0.116	0.009
-490.508	-200.000	0.031	0.228
-489.493	-80.176	-0.199	-0.067
-488.478	165.580	0.082	0.116
-487.464	256.674	-0.041	-0.070
-486.449	231.631	0.099	0.162
-485.435	140.908	0.110	-0.145
-484.420	454.806	0.121	0.269
-483.405	376.946	-0.067	-0.137
-482.391	-200.000	-0.017	-0.129
-481.376	-120.506	-0.091	-0.015
-480.362	380.873	-0.134	0.275
-479.347	-172.602	-0.283	-0.009
-478.332	-106.885	0.313	-0.069
-477.318	-200.000	0.058	-0.348
-476.303	327.638	-0.049	0.094
-475.289	-23.189	0.119	-0.072
-474.274	74.665	0.261	0.274
-473.259	-200.000	-0.002	0.118
-472.245	90.414	-0.171	-0.191
-471.230	800.000	0.057	0.166
-470.216	-58.609	-0.385	0.167
-469.201	-59.817	0.170	-0.073
-468.186	6.151	-0.232	-0.172
-467.172	-2.538	-0.077	-0.054
-466.157	-41.759	-0.084	-0.043
-465.143	631.680	-0.117	0.296
-464.128	-96.516	0.299	-0.079
-463.113	-77.603	0.361	0.125
-462.099	-101.029	0.069	-0.017
-461.084	70.780	-0.062	0.064
-460.070	-30.213	-0.241	0.137
-459.055	567.316	0.035	-0.085
-458.040	52.674	-0.092	-0.087
-457.026	-200.000	-0.011	0.067
-456.011	715.495	0.076	0.202
-454.997	23.110	0.210	0.172
-453.982	-95.171	0.317	0.085
-452.968	-82.397	0.113	0.037
-451.953	178.629	-0.201	0.292
-450.938	800.000	-0.106	0.339
-449.924	-78.799	0.034	-0.012
-448.909	509.746	-0.106	0.247
-447.895	112.129	0.041	0.050
-446.880	800.000	0.033	0.100
-445.865	75.410	0.332	0.349
-444.851	-200.000	0.028	0.157
-443.836	66.957	0.197	-0.201
-442.822	469.073	0.028	-0.063
-441.807	97.488	-0.187	-0.215
-440.792	29.244	-0.021	-0.018
-439.778	64.054	0.201	-0.202
-438.763	800.000	0.049	0.196
-437.749	-200.000	-0.057	0.447
-436.734	35.865	0.127	0.112
-435.719	-53.448	-0.373	-0.170
-434.705	-11.216	-0.233	-0.153
-433.690	26.883	0.166	-0.139
-432.676	-24.037	0.102	0.061
-431.661	-83.900	-0.177	0.056
-430.646	800.000	-0.049	0.181
-429.632	198.154	0.220	0.336
-428.617	-200.000	-0.084	0.000
-427.603	-142.556	-0.512	-0.050
-426.588	-200.000	0.014	-0.117
-425.573	-200.000	-0.122	0.000
-424.559	-92.129	-0.121	-0.034
-423.544	-60.476	-0.108	-0.046
-422.530	241.976	-0.107	0.178
-421.515	-165.059	-0.337	-0.015
-420.500	132.908	0.090	-0.116
-419.486	-11.175	0.081	0.053
-418.471	-115.237	0.129	-0.024
-417.457	-28.330	0.115	-0.066
-416.442	749.118	0.089	-0.238
-415.428	152.331	-0.090	-0.123
-414.413	-63.892	0.210	-0.085
-413.398	-200.000	-0.044	0.368
-412.384	189.856	0.225	0.336
-411.369	-200.000	-0.092	0.449
-410.355	160.665	-0.279	-0.388
-409.340	340.867	0.151	-0.294
-408.325	-94.511	0.109	-0.030
-407.311	-200.000	-0.021	-0.192
-406.296	112.195	0.205	-0.247
-405.282	-148.170	0.278	0.023
-404.267	642.644	0.097	-0.247
-403.252	-80.392	0.499	-0.166
-402.238	-41.024	-0.167	0.086
-401.223	75.286	-0.206	0.217
-400.209	31.841	0.143	-0.123
-399.194	-56.940	-0.072	0.031
-398.179	-118.685	-0.104	-0.018
-397.165	307.283	0.206	0.383
-396.150	79.759	0.126	-0.134
-395.136	-32.335	0.133	0.074
-394.121	4.977	-0.284	0.208
-393.106	27.380	-0.171	0.143
-392.092	-200.000	-0.005	0.121
-391.077	32.628	-0.175	0.150
-390.063	-115.742	0.114	0.021
-389.048	41.390	-0.073	0.065
-388.033	-116.989	-0.151	0.027
-387.019	800.000	-0.069	0.233
-386.004	656.992	-0.101	0.259
-384.990	-200.000	0.014	0.359
-383.975	-52.122	-0.044	-0.020
-382.960	-200.000	0.019	0.159
-381.946	-39.158	-0.289	0.151
-380.931	54.956	0.203	-0.195
-379.917	11.319	-0.173	0.132
-378.902	19.530	0.142	-0.114
-377.888	-106.294	0.506	-0.113
-376.873	78.903	0.234	-0.249
-375.858	800.000	0.010	-0.039
-374.844	201.419	-0.114	-0.175
-373.829	104.478	0.146	-0.171
-372.815	-200.000	0.004	0.074
-371.800	139.012	0.130	0.171
-370.785	-64.819	-0.164	0.066
-369.771	-35.891	0.133	-0.072
-368.756	800.000	-0.118	-0.345
-367.742	-200.000	0.001	-0.082
-366.727	-101.299	-0.086	-0.021
-365.712	-144.072	0.089	0.008
-364.698	-200.000	0.050	-0.332
-363.683	-3.441	-0.131	-0.091
-362.669	-200.000	-0.010	-0.190
-361.654	214.956	-0.081	-0.128
-360.639	-60.086	0.181	-0.077
-359.625	-5.710	0.164	-0.112
-358.610	800.000	-0.075	-0.247
-357.596	-8.947	-0.260	-0.173
-356.581	197.811	0.250	-0.380
-355.566	227.903	0.008	-0.013
-354.552	62.360	0.189	-0.188
-353.537	-45.505	-0.125	-0.062
-352.523	86.000	-0.163	-0.178
-351.508	-130.763	0.406	0.054
-350.493	53.481	0.122	-0.116
-349.479	800.000	-0.064	-0.206
-348.464	513.082	0.072	-0.167
-347.450	324.046	0.022	-0.042
-346.435	92.766	0.222	0.249
-345.420	-61.336	0.228	-0.095
-344.406	-200.000	-0.016	0.087
-343.391	127.519	0.158	0.200
-342.377	305.685	0.038	0.071
-341.362	57.369	-0.144	0.140
-340.348	1.762	0.156	-0.112
-339.333	213.667	0.064	0.100
-338.318	520.359	-0.187	0.436
-337.304	-200.000	-0.029	-0.188
-336.289	-12.241	-0.348	0.226
-335.275	97.230	-0.118	0.134
-334.260	62.446	0.106	0.105
-333.245	117.971	-0.078	0.095
-332.231	204.938	-0.280	0.432
-331.216	-17.620	-0.027	-0.017
-330.202	-200.000	-0.021	0.139
-329.187	-200.000	-0.031	-0.153
-328.172	-180.194	0.267	-0.006
-327.158	-83.063	-0.202	0.065
-326.143	-200.000	0.002	0.248
-325.129	619.087	0.090	-0.224
-324.114	152.882	-0.120	0.163
-323.099	-200.000	0.002	-0.009
-322.085	115.118	-0.107	-0.129
-321.070	-127.730	0.151	0.022
-320.056	413.987	0.064	-0.135
-319.041	38.804	-0.207	-0.184
-318.026	-114.114	-0.206	0.040
-317.012	-61.163	-0.094	-0.039
-315.997	7.703	0.189	0.140
-314.983	-200.000	0.045	0.232
-313.968	-40.488	0.073	-0.038
-312.953	122.827	-0.301	0.374
-311.939	-69.616	-0.127	0.048
-310.924	-55.759	-0.326	-0.145
-309.910	303.796	-0.112	-0.206
-308.895	-200.000	-0.042	-0.232
-307.880	365.570	-0.198	-0.396
-306.866	82.079	-0.128	-0.138
-305.851	-20.236	0.087	-0.053
-304.837	-105.270	0.031	-0.007
-303.822	-67.606	-0.118	0.046
-302.807	5.288	-0.076	0.056
-301.793	-119.613	0.083	-0.014
-300.778	72.104	-0.060	-0.062
-299.764	-126.580	0.303	0.045
-298.749	46.218	0.138	-0.127
-297.735	39.186	-0.220	0.195
-296.720	95.672	0.177	-0.201
-295.705	-48.596	0.042	0.020
-294.691	-109.762	-0.253	0.053
-293.676	-81.941	-0.324	0.105
-292.662	42.761	0.266	-0.240
-291.647	-85.470	-0.313	0.097
-290.632	-200.000	0.034	-0.179
-289.618	-200.000	0.026	0.192
-288.603	-93.623	-0.283	-0.078
-287.589	119.911	0.125	-0.154
-286.574	800.000	0.114	0.352
-285.559	119.836	0.089	-0.110
-284.545	646.614	-0.085	0.215
-283.530	-200.000	0.021	0.301
-282.516	-5.435	0.329	0.224
-281.501	-174.251	0.250	0.007
-280.486	591.537	-0.073	0.179
-279.472	494.316	0.138	0.313
-278.457	-120.816	-0.437	-0.073
-277.443	178.321	0.130	0.188
-276.428	800.000	0.084	0.300
-275.413	92.807	0.125	0.140
-274.399	44.141	0.219	0.199
-273.384	359.589	0.144	-0.286
-272.370	89.962	-0.132	0.146
-271.355	268.332	-0.134	-0.233
-270.340	800.000	-0.064	0.243
-269.326	-155.682	0.244	-0.016
-268.311	-131.882	0.094	-0.012
-267.297	-4.469	0.174	-0.119
-266.282	2.588	-0.232	-0.167
-265.267	800.000	-0.008	-0.033
-264.253	735.835	-0.052	0.138
-263.238	194.769	0.102	-0.153
-262.224	308.050	-0.157	-0.290
-261.209	449.077	-0.077	-0.168
-260.195	-53.661	-0.199	0.090
-259.180	100.349	0.088	-0.101
-258.165	78.364	-0.065	-0.069
-257.151	-142.553	-0.088	0.009
-256.136	-200.000	-0.044	-0.288
-255.122	80.948	-0.137	-0.147
-254.107	144.959	-0.080	0.105
-253.092	-22.997	0.172	-0.102
-252.078	-160.565	0.185	0.010
-251.063	32.095	0.149	-0.128
-250.049	-99.035	-0.369	0.093
-249.034	499.243	0.074	-0.169
-248.019	-132.337	-0.219	0.028
-247.005	4.895	-0.149	-0.109
-245.990	-0.610	0.111	-0.078
-244.976	-200.000	0.092	-0.462
-243.961	-39.887	-0.134	-0.069
-242.946	186.991	-0.147	-0.217
-241.932	-200.000	0.043	0.351
-240.917	-200.000	-0.017	-0.192
-239.903	-46.492	0.078	-0.038
-238.888	-123.323	-0.171	0.027
-237.873	-200.000	-0.018	-0.149
-236.859	-103.892	0.206	-0.048
-235.844	-106.927	-0.187	0.041
-234.830	-200.000	0.021	-0.270
-233.815	-200.000	-0.011	0.129
-232.800	201.035	0.249	0.380
-231.786	-110.333	-0.249	-0.051
-230.771	-62.536	-0.148	0.061
-229.757	-200.000	-0.005	-0.038
-228.742	-163.520	0.084	-0.004
-227.727	19.602	-0.199	0.158
-226.713	-15.323	-0.085	0.054
-225.698	-112.067	-0.211	0.042
-224.684	55.550	-0.333	0.319
-223.669	-1.144	0.027	-0.019
-222.655	23.237	-0.059	0.048
-221.640	254.383	-0.019	0.032
-220.625	-132.699	0.216	-0.027
-219.611	-54.304	-0.168	-0.075
-218.596	-30.713	0.230	0.129
-217.582	714.390	-0.082	-0.216
-216.567	24.556	0.288	0.235
-215.552	-200.000	0.035	0.340
-214.538	87.137	0.120	0.132
-213.523	-200.000	-0.048	0.392
-212.509	-133.642	-0.102	0.013
-211.494	90.964	0.191	-0.211
-210.479	800.000	0.109	0.316
-209.465	197.337	-0.037	0.056
-208.450	121.754	-0.091	0.112
-207.436	-200.000	-0.017	0.132
-206.421	273.992	-0.028	0.048
-205.406	128.563	-0.117	-0.148
-204.392	-200.000	0.000	-0.359
-203.377	125.022	0.078	-0.098
-202.363	-125.668	-0.204	-0.030
-201.348	-13.095	-0.327	-0.210
-200.333	-27.268	0.204	-0.118
-199.319	138.462	-0.221	-0.287
-198.304	-142.638	-0.111	0.011
-197.290	-102.620	-0.445	-0.105
-196.275	-93.780	0.213	0.058
-195.260	-200.000	-0.044	-0.344
-194.246	-200.000	-0.021	0.235
-193.231	-125.259	-0.457	0.069
-192.217	-124.862	0.223	0.034
-191.202	97.213	0.144	0.163
-190.187	-187.776	0.236	-0.003
-189.173	800.000	-0.067	-0.232
-188.158	-200.000	-0.040	-0.358
-187.144	28.506	0.116	-0.097
-186.129	65.189	-0.253	0.253
-185.114	127.275	0.206	0.259
-184.100	758.435	-0.078	-0.208
-183.085	-155.583	-0.061	-0.004
-182.071	57.407	0.156	0.151
-181.056	-200.000	-0.069	0.316
-180.042	159.431	-0.102	0.140
-179.027	108.884	0.129	0.152
-178.012	-30.934	0.038	0.021
-176.998	7.641	0.121	0.090
-175.983	800.000	0.066	0.242
-174.969	-67.557	0.224	0.087
-173.954	165.131	-0.196	-0.273
-172.939	-150.175	0.417	-0.032
-171.925	92.168	-0.189	-0.210
-170.910	-200.000	-0.013	0.113
-169.896	272.936	-0.122	-0.212
-168.881	15.144	0.060	-0.046
-167.866	-24.291	-0.062	0.036
-166.852	-132.494	0.240	0.031
-165.837	6.182	0.209	-0.153
-164.823	-3.995	0.143	-0.098
-163.808	-142.855	0.265	-0.025
-162.793	800.000	0.087	0.245
-161.779	33.301	-0.083	-0.071
-160.764	-70.291	0.353	-0.132
-159.750	272.280	-0.162	0.282
-158.735	-200.000	-0.006	-0.331
-157.720	72.672	0.249	0.256
-156.706	-122.575	0.125	0.020
-155.691	-33.266	-0.344	0.188
-154.677	68.088	0.163	0.165
-153.662	-200.000	-0.019	-0.224
-152.647	-200.000	-0.001	0.266
-151.633	164.751	0.210	0.292
-150.618	-77.939	-0.100	0.034
-149.604	145.756	-0.097	-0.129
-148.589	-200.000	0.029	0.210
-147.574	39.138	0.077	0.068
-146.560	706.221	0.032	-0.084
-145.545	-200.000	-0.019	0.195
-144.531	35.190	0.190	0.165
-143.516	81.490	-0.189	-0.202
-142.502	114.837	0.288	-0.346
-141.487	-135.559	-0.265	-0.031
-140.472	-107.390	0.485	-0.105
-139.458	800.000	0.014	0.046
-138.443	-136.939	-0.466	-0.053
-137.429	-200.000	-0.038	-0.218
-136.414	-165.149	0.048	-0.002
-135.399	-75.710	0.155	-0.054
-134.385	-106.726	-0.193	-0.042
-133.370	-83.920	-0.139	-0.044
-132.356	202.186	0.118	-0.179
-131.341	-200.000	0.046	0.385
-130.326	800.000	0.061	-0.241
-129.312	21.262	0.162	0.130
-128.297	538.789	0.067	-0.158
-127.283	300.440	-0.120	-0.218
-126.268	800.000	-0.094	0.337
-125.253	-200.000	0.032	0.159
-124.239	-92.853	-0.134	0.037
-123.224	-159.995	0.073	0.004
-122.210	-200.000	0.043	-0.248
-121.195	263.248	0.055	-0.094
-120.180	800.000	0.047	-0.148
-119.166	-190.765	0.247	0.003
-118.151	387.215	-0.122	-0.248
-117.137	800.000	0.050	-0.142
-116.122	-200.000	0.001	-0.056
-115.107	-41.544	0.192	0.097
-114.093	-137.135	-0.134	0.015
-113.078	-200.000	-0.028	-0.140
-112.064	2.194	0.238	-0.169
-111.049	-200.000	-0.012	0.081
-110.034	113.738	-0.116	-0.138
-109.020	-23.271	0.049	0.029
-108.005	287.949	0.059	-0.106
-106.991	-113.947	0.076	0.015
-105.976	-200.000	0.013	0.090
-104.962	88.420	-0.197	-0.216
-103.947	-95.599	-0.132	-0.035
-102.932	-66.602	0.175	0.068
-101.918	-200.000	-0.019	0.364
-100.903	-200.000	-0.010	-0.160
-99.889	-52.223	-0.278	-0.127
-98.874	-19.127	-0.069	0.042
-97.859	-15.021	-0.166	-0.105
-96.845	800.000	-0.091	-0.271
-95.830	112.896	0.043	-0.051
-94.816	-81.484	-0.387	-0.125
-93.801	550.596	0.102	-0.240
-92.786	136.995	0.193	-0.248
-91.772	60.854	-0.092	0.090
-90.757	-47.664	-0.152	0.073
-89.743	62.339	0.230	0.226
-88.728	24.502	-0.086	-0.070
-87.713	800.000	0.035	0.100
-86.699	2.500	0.326	0.232
-85.684	-131.234	-0.140	0.018
-84.670	-71.820	-0.135	-0.049
-83.655	-200.000	0.014	-0.228
-82.640	-27.685	-0.208	-0.119
-81.626	-74.427	-0.376	0.134
-80.611	-200.000	-0.015	-0.291
-79.597	-200.000	-0.041	0.313
-78.582	-107.998	-0.142	0.030
-77.567	183.753	0.049	0.071
-76.553	-47.598	0.139	0.066
-75.538	33.987	0.069	0.059
-74.524	-200.000	0.007	0.230
-73.509	20.769	0.102	-0.081
-72.494	800.000	0.080	-0.286
-71.480	99.001	-0.265	0.301
-70.465	-200.000	0.021	0.132
-69.451	-113.635	0.251	0.048
-68.436	-102.215	-0.208	-0.049
-67.422	-182.933	-0.370	0.007
-66.407	-200.000	-0.042	0.336
-65.392	30.805	-0.148	-0.124
-64.378	-200.000	-0.038	-0.250
-63.363	-53.084	0.244	0.110
-62.349	-200.000	-0.057	0.288
-61.334	12.013	-1.278	-0.966
-60.319	-21.339	0.839	0.504
-59.305	583.521	-0.361	-0.871
-58.290	329.570	0.492	0.929
-57.276	418.720	0.762	1.602
-56.261	-200.000	103.889	578.567
-55.246	511.175	1466.828	3354.756
-54.232	179.748	2669.477	3842.552
-53.217	112.641	2190.669	2606.053
-52.203	40.465	1711.047	1513.887
-51.188	32.956	1519.648	1293.301
-50.173	30.606	1492.766	1254.537
-49.159	50.855	1546.931	1439.744
-48.144	51.537	1563.911	1460.179
-47.130	33.205	1521.008	1295.962
-46.115	30.211	1505.854	1262.648
-45.100	29.973	1502.155	1257.880
-44.086	29.994	1500.229	1256.357
-43.071	29.957	1497.994	1254.188
-42.057	29.771	1496.537	1251.662
-41.042	29.813	1495.082	1250.678
-40.027	29.860	1493.666	1249.760
-39.013	29.887	1491.942	1248.452
-37.998	29.797	1490.920	1246.940
-36.984	29.800	1489.799	1245.972
-35.969	29.855	1488.325	1245.063
-34.954	29.878	1486.392	1243.546
-33.940	29.813	1485.618	1242.414
-32.925	29.950	1483.327	1241.367
-31.911	29.908	1482.238	1240.126
-30.896	30.009	1481.389	1240.045
-29.881	30.012	1480.064	1238.907
-28.867	30.013	1478.780	1237.785
-27.852	29.855	1477.763	1235.835
-26.838	29.917	1475.829	1234.581
-25.823	29.915	1474.555	1233.449
-24.809	30.056	1472.457	1232.584
-23.794	29.948	1471.292	1230.840
-22.779	29.886	1470.715	1229.899
-21.765	30.017	1469.117	1229.385
-20.750	29.820	1468.746	1227.721
-19.736	29.940	1466.985	1226.992
-18.721	29.920	1465.828	1225.842
-17.706	29.870	1464.811	1224.613
-16.692	29.913	1463.515	1223.768
-15.677	29.838	1463.151	1222.914
-14.663	29.873	1461.945	1222.094
-13.648	29.877	1460.706	1221.031
-12.633	29.921	1460.331	1220.964
-11.619	29.861	1459.198	1219.571
-10.604	29.776	1458.154	1218.088
-9.590	29.813	1457.352	1217.614
-8.575	29.736	1456.311	1216.193
-7.560	29.784	1455.898	1216.113
-6.546	29.827	1454.821	1215.451
-5.531	29.704	1454.041	1213.939
-4.517	29.809	1452.832	1213.569
-3.502	29.883	1451.941	1213.264
-2.487	29.796	1450.769	1211.669
-1.473	29.738	1450.019	1210.613
-0.458	29.729	1448.376	1209.134
0.556	31.923	1439.088	1200.172
1.571	29.100	1413.436	1160.904
2.586	25.693	1352.695	1090.319
3.600	23.928	1271.271	1014.540
4.615	22.270	1225.681	968.946
5.629	19.123	1169.368	907.779
6.644	11.592	1085.941	805.926
7.659	5.444	1047.995	748.352
8.673	4.741	1041.855	740.561
9.688	4.471	1038.752	737.006
10.702	4.300	1037.641	735.342
11.717	4.319	1035.756	734.033
12.731	7.247	1037.913	749.358
13.746	15.064	1048.846	794.418
14.761	20.978	1056.271	828.150
15.775	22.208	1056.680	834.236
16.790	21.734	1055.083	830.657
17.804	20.692	1052.994	824.005
18.819	19.848	1051.414	818.703
19.834	19.580	1049.819	816.124
20.848	19.214	1049.848	814.341
21.863	19.361	1049.116	814.395
22.877	19.034	1048.496	812.301
23.892	18.923	1047.536	810.960
24.907	18.729	1047.271	809.771
25.921	18.786	1045.803	808.830
26.936	18.840	1045.169	808.522
27.950	18.807	1044.044	807.428
28.965	18.712	1043.189	806.247
29.980	18.753	1042.074	805.508
30.994	18.981	1040.829	805.542
32.009	19.155	1040.286	805.865
33.023	19.216	1039.771	805.679
34.038	19.133	1038.635	804.339
35.053	18.953	1037.995	802.934
36.067	18.995	1036.638	802.009
37.082	18.807	1035.931	800.513
38.096	18.951	1035.216	800.560
39.111	19.029	1034.603	800.377
40.126	19.092	1033.839	800.011
41.140	18.935	1032.750	798.369
42.155	18.729	1031.207	796.150
43.169	18.541	1029.933	794.222
44.184	18.372	1029.684	793.181
45.199	18.406	1028.007	791.977
46.213	18.489	1026.895	791.430
47.228	18.477	1026.428	790.948
48.242	18.688	1025.999	791.518
49.257	18.934	1025.053	791.852
50.271	18.894	1023.611	790.482
51.286	18.818	1023.161	789.717
52.301	19.079	1022.192	790.099
53.315	18.985	1021.640	789.170
54.330	18.936	1020.469	787.972
55.344	18.687	1019.823	786.264
56.359	18.524	1018.981	784.795
57.374	18.691	1017.590	784.418
58.388	18.587	1017.259	783.619
59.403	18.494	1016.817	782.784
60.417	18.416	1015.497	781.346
61.432	18.292	1015.185	780.468
62.447	18.346	1014.521	780.136
63.461	18.258	1013.356	778.769
64.476	18.209	1012.178	777.576
65.490	18.282	1011.554	777.357
66.505	18.327	1010.244	776.488
67.520	18.183	1009.889	775.491
68.534	18.330	1009.387	775.702
69.549	18.434	1007.946	774.997
70.563	18.291	1007.797	774.168
71.578	18.314	1006.925	773.533
72.593	18.065	1005.919	771.567
73.607	18.034	1004.959	770.624
74.622	18.022	1003.905	769.695
75.636	18.122	1002.829	769.250
76.651	18.108	1002.569	768.918
77.666	18.002	1001.731	767.731
78.680	18.126	1001.139	767.770
79.695	18.189	1000.792	767.715
80.709	18.247	1000.067	767.353
81.724	18.356	999.331	767.210
82.739	18.436	998.572	766.918
83.753	18.441	997.909	766.361
84.768	18.829	997.271	767.538
85.782	19.022	996.827	767.988
86.797	19.208	996.075	768.174
87.812	19.188	995.498	767.569
88.826	19.003	994.390	765.825
89.841	18.985	993.655	765.111
90.855	19.024	992.864	764.607
91.870	19.127	991.660	764.071
92.884	19.161	991.645	764.142
93.899	19.234	990.447	763.474
94.914	19.123	989.803	762.416
95.928	19.178	989.061	762.023
96.943	19.375	988.252	762.200
97.957	19.184	987.526	760.730
98.972	19.001	986.966	759.423
99.987	19.016	985.953	758.643
101.001	18.975	985.353	757.935
102.016	19.090	984.583	757.781
103.030	19.011	983.485	756.523
104.045	19.064	982.490	755.921
105.060	19.062	981.950	755.432
106.074	18.982	980.582	753.961
107.089	18.801	979.449	752.233
108.103	18.457	978.378	749.836
109.118	18.324	977.667	748.645
110.133	18.437	976.312	748.033
111.147	18.377	975.444	747.041
112.162	18.259	975.113	746.206
113.176	18.322	974.201	745.719
114.191	18.507	973.459	745.891
115.206	18.454	972.745	745.045
116.220	18.431	971.844	744.189
117.235	18.508	971.199	743.965
118.249	18.505	970.105	743.046
119.264	18.414	969.276	741.951
120.279	18.294	968.302	740.624
121.293	18.247	967.479	739.725
122.308	18.233	966.709	739.007
123.322	18.138	965.925	737.934
124.337	18.119	964.525	736.719
125.352	18.073	963.611	735.755
126.366	18.088	962.766	735.113
127.381	18.031	961.705	733.992
128.395	17.960	961.087	733.148
129.410	18.111	960.105	732.983
130.424	18.282	959.442	733.146
131.439	18.107	958.636	731.714
132.454	18.398	957.643	732.136
133.468	18.376	957.678	732.002
134.483	18.367	956.755	731.193
135.497	18.530	955.768	731.071
136.512	18.586	954.894	730.578
137.527	18.454	954.419	729.587
138.541	18.470	953.486	728.875
139.556	18.465	953.032	728.445
140.570	18.555	952.089	728.039
141.585	18.625	951.206	727.599
142.600	18.881	950.719	728.245
143.614	18.770	950.641	727.651
144.629	18.946	949.821	727.703
145.643	18.942	949.167	727.122
146.658	18.969	947.953	726.243
147.673	18.830	947.127	724.959
148.687	18.685	945.968	723.397
149.702	18.621	944.854	722.212
150.716	18.490	944.456	721.292
151.731	18.396	943.387	720.014
152.746	18.489	942.680	719.804
153.760	18.705	941.784	719.964
154.775	18.637	941.575	719.453
155.789	18.789	940.459	719.172
156.804	18.705	939.812	718.262
157.819	18.786	939.162	718.043
158.833	18.852	938.358	717.638
159.848	18.895	937.818	717.342
160.862	19.073	937.480	717.763
161.877	19.135	936.044	716.858
162.892	18.777	935.344	714.767
163.906	18.569	934.257	713.011
164.921	18.442	933.790	712.061
165.935	18.576	932.376	711.476
166.950	18.715	931.277	711.153
167.964	18.854	930.502	711.073
168.979	18.658	929.890	709.732
169.994	18.672	928.834	708.921
171.008	18.581	927.852	707.731
172.023	18.731	926.973	707.618
173.037	18.896	926.704	708.030
174.052	19.062	926.198	708.265
175.067	18.914	925.759	707.257
176.081	18.710	924.184	705.154
177.096	18.481	923.469	703.605
178.110	18.652	921.856	703.013
179.125	18.563	921.923	702.640
180.140	18.580	921.194	702.091
181.154	18.743	920.394	702.086
182.169	18.816	920.022	702.037
183.183	18.929	919.626	702.133
184.198	19.086	918.739	702.035
185.213	19.020	918.368	701.420
186.227	19.011	917.646	700.772
187.242	19.039	917.426	700.655
188.256	19.148	916.664	700.455
189.271	19.203	915.933	700.057
190.286	19.229	915.481	699.756
191.300	19.085	914.368	698.261
192.315	18.838	912.617	695.858
193.329	18.429	912.031	693.696
194.344	18.417	911.608	693.262
195.359	18.646	911.016	693.679
196.373	18.702	910.727	693.621
197.388	18.890	910.198	693.918
198.402	19.096	909.764	694.356
199.417	19.217	910.085	695.029
200.432	19.378	909.193	694.935
201.446	19.496	908.787	695.039
202.461	19.612	908.485	695.214
203.475	19.624	908.000	694.826
204.490	19.467	907.562	693.800
205.504	19.263	906.569	692.162
206.519	19.138	905.366	690.678
207.534	19.049	904.605	689.682
208.548	19.200	903.251	689.191
209.563	19.195	902.451	688.502
210.577	19.166	902.208	688.137
211.592	19.159	901.527	687.529
212.607	19.464	901.419	688.605
213.621	19.522	900.728	688.248
214.636	19.491	899.793	687.349
215.650	19.454	899.211	686.694
216.665	19.351	898.914	685.998
217.680	19.504	898.396	686.149
218.694	19.585	898.153	686.226
219.709	19.606	897.340	685.626
220.723	19.500	897.047	684.922
221.738	19.388	896.511	684.007
222.753	19.579	895.366	683.830
223.767	19.459	895.050	683.056
224.782	19.600	894.162	682.874
225.796	19.797	893.123	682.796
226.811	19.795	892.869	682.535
227.826	19.788	891.982	681.769
228.840	19.416	891.322	679.740
229.855	19.420	890.677	679.203
230.869	19.536	890.011	679.091
231.884	19.508	889.110	678.234
232.899	19.372	888.473	677.152
233.913	19.369	887.746	676.528
234.928	19.191	887.548	675.620
235.942	19.101	886.420	674.345
236.957	19.131	885.729	673.879
237.972	19.028	885.297	673.086
238.986	19.112	884.890	673.045
240.001	19.288	883.622	672.711
241.015	19.142	883.433	671.937
242.030	19.187	882.762	671.544
243.045	19.329	882.275	671.667
244.059	19.366	881.619	671.251
245.074	19.542	880.724	671.196
246.088	19.484	880.643	670.847
247.103	19.571	880.030	670.662
248.117	19.632	879.714	670.597
249.132	19.784	878.945	670.540
250.147	20.002	879.073	671.423
251.161	20.368	878.291	672.186
252.176	20.346	877.827	671.684
253.190	20.498	877.139	671.686
254.205	20.623	876.364	671.518
255.220	20.412	876.002	670.365
256.234	20.523	874.822	669.829
257.249	20.435	874.372	669.088
258.263	20.486	874.027	668.959
259.278	20.333	873.601	667.987
260.293	20.488	872.677	667.815
261.307	20.536	872.409	667.739
262.322	20.582	871.658	667.280
263.336	20.617	871.214	667.015
264.351	20.443	871.080	666.188
265.366	20.673	870.107	666.263
266.380	20.623	869.207	665.325
267.395	20.675	868.401	664.850
268.409	20.485	867.728	663.548
269.424	20.376	867.549	662.937
270.439	20.395	866.787	662.369
271.453	20.380	865.541	661.302
272.468	20.360	864.588	660.439
273.482	20.270	864.367	659.867
274.497	20.160	863.596	658.805
275.512	20.191	863.568	658.841
276.526	20.195	862.539	658.014
277.541	20.250	861.531	657.395
278.555	20.456	861.292	657.933
279.570	20.553	860.961	657.992
280.585	20.606	860.728	657.956
281.599	20.690	859.972	657.636
282.614	20.457	859.209	656.115
283.628	20.448	858.225	655.270
284.643	20.354	857.454	654.268
285.657	20.383	857.679	654.491
286.672	20.405	856.867	653.900
287.687	20.499	856.332	653.785
288.701	20.466	856.138	653.457
289.716	20.482	855.207	652.746
290.730	20.483	855.135	652.638
291.745	20.522	853.906	651.788
292.760	20.433	853.436	651.038
293.774	20.597	852.961	651.233
294.789	20.714	852.574	651.319
295.803	20.809	851.918	651.115
296.818	20.509	851.878	649.905
297.833	20.579	850.481	649.042
298.847	20.467	849.777	648.029
299.862	20.540	849.632	648.135
300.876	20.685	848.346	647.636
301.891	20.577	848.143	647.021
302.906	20.915	847.270	647.555
303.920	20.932	846.986	647.344
304.935	21.103	846.463	647.520
305.949	21.116	846.294	647.383
306.964	20.993	845.704	646.419
307.979	20.807	844.774	644.962
308.993	20.712	844.241	644.146
310.008	20.899	843.584	644.280
311.022	20.981	842.922	644.019
312.037	20.919	842.712	643.573
313.052	20.835	841.961	642.631
314.066	20.689	841.226	641.478
315.081	20.517	840.604	640.313
316.095	20.512	839.920	639.716
317.110	20.592	839.382	639.544
318.125	20.590	838.828	639.057
319.139	20.500	838.381	638.330
320.154	20.461	838.212	638.002
321.168	20.494	837.349	637.411
322.183	20.650	836.756	637.475
323.197	20.768	836.362	637.551
324.212	20.704	835.942	636.936
325.227	20.692	835.489	636.492
326.241	20.752	835.004	636.286
327.256	20.536	834.451	635.019
328.270	20.698	833.492	634.823
329.285	20.686	832.921	634.289
330.300	20.755	832.439	634.119
331.314	20.694	831.837	633.379
332.329	20.575	831.423	632.576
333.343	20.819	830.910	633.017
334.358	21.018	830.340	633.249
335.373	20.959	830.056	632.764
336.387	21.054	829.567	632.680
337.402	20.939	828.876	631.679
338.416	21.151	828.383	632.015
339.431	21.203	827.917	631.791
340.446	21.414	827.483	632.170
341.460	21.468	827.215	632.101
342.475	21.511	826.445	631.613
343.489	21.481	826.148	631.222
344.504	21.591	825.296	630.911
345.519	21.536	825.063	630.478
346.533	21.857	824.512	631.159
347.548	21.559	824.193	629.786
348.562	21.414	823.436	628.630
349.577	21.281	822.944	627.723
350.592	21.080	822.251	626.414
351.606	21.130	821.446	625.927
352.621	21.052	820.864	625.147
353.635	20.997	820.755	624.813
354.650	21.015	820.395	624.549
355.665	21.144	819.933	624.601
356.679	21.404	819.347	625.029
357.694	21.245	819.134	624.244
358.708	21.449	818.484	624.423
359.723	21.348	817.909	623.569
360.738	21.350	817.296	623.053
361.752	21.178	816.681	621.915
362.767	21.435	815.841	622.137
363.781	21.577	816.018	622.723
364.796	21.637	815.801	622.713
365.810	21.844	815.156	622.900
366.825	21.883	815.201	623.019
367.840	22.034	814.793	623.190
368.854	21.951	814.251	622.425
369.869	21.703	813.875	621.202
370.883	21.697	813.171	620.589
371.898	21.796	812.126	620.087
372.913	21.775	811.947	619.820
373.927	21.722	811.468	619.213
374.942	21.874	810.614	619.043
375.956	21.674	810.177	617.949
376.971	21.870	809.597	618.143
377.986	22.021	808.953	618.127
379.000	22.097	808.823	618.240
380.015	22.194	808.403	618.206
381.029	22.161	807.580	617.405
382.044	22.007	807.217	616.534
383.059	21.944	806.728	615.885
384.073	22.141	806.119	616.056
385.088	22.039	805.511	615.179
386.102	21.840	804.822	613.903
387.117	21.680	804.047	612.699
388.132	21.602	803.560	611.999
389.146	21.677	803.093	611.850
390.161	21.794	802.586	611.819
391.175	22.045	802.360	612.470
392.190	22.048	802.064	612.198
393.205	21.906	801.659	611.339
394.219	21.774	801.235	610.505
395.234	21.811	800.712	610.181
396.248	21.653	800.467	609.388
397.263	21.799	799.513	609.116
398.278	21.616	799.053	608.076
399.292	21.482	798.340	607.017
400.307	21.492	798.039	606.768
401.321	21.702	797.345	606.916
402.336	21.571	797.625	606.620
403.350	21.720	797.218	606.773
404.365	21.698	796.996	606.475
405.380	21.904	796.675	606.888
406.394	22.082	796.046	606.971
407.409	22.266	795.602	607.214
408.423	22.359	794.767	606.842
409.438	22.292	794.604	606.435
410.453	22.411	794.351	606.596
411.467	22.367	794.198	606.276
412.482	22.393	793.502	605.780
413.496	22.536	793.061	605.882
414.511	22.622	792.744	605.882
415.526	22.687	792.418	605.801
416.540	22.579	791.912	604.989
417.555	22.389	791.322	603.836
418.569	22.223	791.246	603.155
419.584	22.392	790.449	603.072
420.599	22.488	790.065	603.054
421.613	163.472	1368.298	1795.607
422.628	141.707	1452.559	1795.688
