DTS Sentinel unit serial number:	SN413079Multiplexer serial number:	ORYXHardware model number:	OX4-SRSoftware version number:	ORYX F/W v4.00 Oryx Data Collector v3.7.2.0data status	okinstallation	princeton_trtdifferential loss correction	single-endedforward channel	channel 3reverse channel	N/Adate	2019/09/13time	20:00:35forward acquisition time	60.00reverse acquisition time	0.00gamma	496.2192k internal	0.2329k external	0.2329temperature offset calibration	1.0068default loss term (dB/km)	0.3790temperature slope calibration	1.0000multiplexer offset coefficient	1.0000multiplexer slope coefficient	1.0000fibre end	0.00T internal ref (°C)	29.80T ext. ref 1 (°C)	3.36T ext. ref 2 (°C)	24.09length (m)	temperature (°C)	Stokes	anti-Stokes-747.200	109.288	0.236	-0.284
-746.185	-125.992	0.148	0.022
-745.171	106.071	-0.474	-0.566
-744.156	800.000	0.044	0.155
-743.142	-143.642	0.099	0.009
-742.127	-200.000	0.014	0.154
-741.112	-30.616	0.066	-0.038
-740.098	800.000	-0.033	-0.098
-739.083	453.445	-0.058	-0.130
-738.069	-125.371	-0.147	0.023
-737.054	227.020	-0.107	0.175
-736.039	-99.915	-0.276	-0.069
-735.025	800.000	0.056	-0.228
-734.010	94.593	0.141	-0.162
-732.996	-82.008	0.333	-0.110
-731.981	800.000	-0.047	0.203
-730.966	130.273	-0.069	0.089
-729.952	-200.000	-0.118	-0.524
-728.937	-49.946	-0.388	-0.185
-727.923	-14.760	-0.115	-0.074
-726.908	-200.000	0.017	0.077
-725.894	-33.906	0.200	0.111
-724.879	-91.543	-0.320	0.092
-723.864	-5.471	-0.230	-0.159
-722.850	48.635	-0.286	-0.270
-721.835	-200.000	-0.038	0.416
-720.821	74.281	-0.106	-0.112
-719.806	296.147	0.112	-0.207
-718.791	122.656	0.110	-0.138
-717.777	489.671	-0.040	0.091
-716.762	-144.045	0.296	-0.028
-715.748	-85.896	-0.063	0.020
-714.733	800.000	-0.024	-0.079
-713.718	459.404	0.162	-0.363
-712.704	-200.000	0.011	-0.059
-711.689	-26.721	0.306	0.180
-710.675	-119.845	-0.301	-0.052
-709.660	229.714	-0.051	0.084
-708.645	322.724	-0.087	0.167
-707.631	-200.000	0.029	0.155
-706.616	-200.000	-0.004	-0.246
-705.602	8.088	0.141	-0.106
-704.587	-200.000	0.025	0.138
-703.572	38.139	-0.218	-0.195
-702.558	-50.289	-0.183	-0.087
-701.543	-156.547	-0.190	-0.012
-700.529	-38.163	-0.199	-0.106
-699.514	43.389	-0.197	-0.181
-698.499	285.631	0.056	-0.102
-697.485	212.846	0.120	0.191
-696.470	-114.699	-0.246	-0.047
-695.456	50.745	-0.271	-0.258
-694.441	21.124	-0.031	0.025
-693.426	98.645	0.184	-0.213
-692.412	-3.374	-0.177	0.124
-691.397	-77.160	-0.239	-0.084
-690.383	-112.270	0.280	-0.056
-689.368	117.794	-0.030	-0.038
-688.354	156.898	0.143	0.199
-687.339	551.978	-0.048	-0.115
-686.324	383.679	0.035	-0.072
-685.310	-200.000	0.007	0.166
-684.295	-106.831	0.092	0.020
-683.281	177.025	0.181	-0.264
-682.266	800.000	0.063	0.196
-681.251	800.000	-0.031	0.118
-680.237	-109.362	-0.006	-0.001
-679.222	-47.316	0.205	-0.100
-678.208	108.746	0.130	0.156
-677.193	152.564	0.176	-0.242
-676.178	-200.000	0.018	0.229
-675.164	-110.076	-0.274	0.058
-674.149	-200.000	-0.020	-0.091
-673.135	-24.655	0.170	-0.102
-672.120	-92.715	0.335	-0.094
-671.105	101.289	0.116	0.135
-670.091	-200.000	0.005	-0.034
-669.076	0.132	0.239	0.171
-668.062	800.000	-0.053	0.219
-667.047	79.434	-0.192	-0.207
-666.032	407.397	-0.166	-0.353
-665.018	-137.190	-0.310	-0.035
-664.003	729.479	-0.097	-0.261
-662.989	800.000	-0.037	0.123
-661.974	-131.973	-0.143	0.019
-660.959	-27.669	0.203	-0.119
-659.945	-30.017	0.020	0.011
-658.930	267.686	0.045	-0.078
-657.916	14.334	-0.439	-0.344
-656.901	73.091	0.082	0.086
-655.886	350.670	-0.031	0.061
-654.872	76.469	-0.038	0.041
-653.857	-147.845	0.258	0.022
-652.843	-146.282	-0.077	0.007
-651.828	362.829	-0.107	0.215
-650.814	-135.467	-0.311	-0.037
-649.799	-200.000	0.143	0.633
-648.784	-153.196	-0.179	0.013
-647.770	160.171	-0.135	-0.188
-646.755	-127.852	-0.324	0.047
-645.741	57.793	-0.154	0.152
-644.726	-113.236	-0.155	0.031
-643.711	-16.217	0.124	0.079
-642.697	-200.000	-0.041	0.216
-641.682	-172.515	-0.498	0.016
-640.668	387.598	-0.149	-0.309
-639.653	-126.547	-0.131	-0.020
-638.638	-98.958	-0.174	-0.044
-637.624	456.070	-0.058	-0.129
-636.609	88.860	0.168	0.187
-635.595	39.434	-0.133	-0.120
-634.580	800.000	0.039	0.143
-633.565	-200.000	0.004	-0.211
-632.551	122.450	0.371	-0.466
-631.536	-99.067	0.200	-0.051
-630.522	372.050	0.074	-0.151
-629.507	-36.114	-0.356	-0.193
-628.492	-149.451	0.261	-0.021
-627.478	800.000	0.025	-0.078
-626.463	270.087	-0.145	0.256
-625.449	-107.043	0.113	-0.025
-624.434	293.582	-0.129	0.236
-623.419	436.299	0.093	0.203
-622.405	-160.189	0.238	-0.013
-621.390	-200.000	-0.012	0.446
-620.376	203.306	0.081	-0.126
-619.361	381.591	0.125	-0.258
-618.346	63.632	0.181	-0.182
-617.332	84.242	-0.153	-0.168
-616.317	140.567	-0.069	-0.092
-615.303	-8.887	-0.243	-0.163
-614.288	126.446	0.047	0.060
-613.273	329.206	-0.022	0.043
-612.259	-62.088	0.269	0.113
-611.244	-51.078	-0.454	-0.213
-610.230	-200.000	-0.004	0.251
-609.215	-61.259	0.027	-0.011
-608.201	-200.000	-0.056	0.258
-607.186	-73.738	0.188	0.068
-606.171	620.405	-0.143	0.361
-605.157	-135.353	-0.123	0.015
-604.142	510.416	0.134	-0.313
-603.128	-56.414	-0.285	0.127
-602.113	-200.000	0.010	-0.211
-601.098	344.232	-0.009	-0.018
-600.084	-79.798	0.212	-0.072
-599.069	-72.288	0.105	-0.039
-598.055	-94.578	-0.144	-0.039
-597.040	-200.000	-0.011	0.187
-596.025	-200.000	-0.011	-0.166
-595.011	16.214	-0.192	-0.152
-593.996	-78.773	0.126	-0.043
-592.982	353.944	0.088	0.174
-591.967	-159.895	0.060	-0.003
-590.952	800.000	0.112	0.361
-589.938	-61.475	0.177	-0.074
-588.923	-5.478	0.274	-0.188
-587.909	145.794	0.271	-0.364
-586.894	13.748	0.090	0.070
-585.879	111.950	0.103	-0.125
-584.865	-200.000	-0.002	-0.036
-583.850	-24.649	0.261	0.156
-582.836	-123.465	-0.053	0.008
-581.821	-35.290	-0.089	0.048
-580.806	-94.673	-0.063	0.017
-579.792	170.547	0.142	-0.204
-578.777	-145.218	-0.320	0.029
-577.763	-13.897	-0.176	0.114
-576.748	153.410	0.183	0.250
-575.733	-200.000	-0.035	-0.392
-574.719	-149.156	0.212	0.017
-573.704	236.389	-0.111	-0.184
-572.690	-75.686	0.299	-0.106
-571.675	59.452	-0.097	-0.096
-570.661	800.000	-0.039	-0.160
-569.646	-35.151	-0.238	0.130
-568.631	-200.000	-0.013	-0.202
-567.617	-200.000	-0.032	0.163
-566.602	-23.743	-0.247	0.148
-565.588	57.076	0.154	0.151
-564.573	155.349	-0.055	0.076
-563.558	-200.000	0.018	0.139
-562.544	-200.000	0.019	-0.110
-561.529	-33.694	-0.071	0.039
-560.515	171.883	-0.108	0.156
-559.500	800.000	0.069	-0.205
-558.485	-200.000	0.026	-0.166
-557.471	-11.706	-0.227	0.149
-556.456	99.628	-0.139	-0.161
-555.442	-33.219	0.186	-0.103
-554.427	-128.481	0.159	0.023
-553.412	-151.214	0.088	-0.007
-552.398	-200.000	0.039	0.181
-551.383	371.182	-0.193	0.391
-550.369	2.238	-0.111	0.080
-549.354	800.000	0.072	-0.301
-548.339	-21.413	-0.130	-0.079
-547.325	-200.000	-0.025	-0.192
-546.310	43.185	0.209	0.191
-545.296	-63.828	-0.037	0.015
-544.281	-68.951	0.191	0.074
-543.266	-119.130	0.182	-0.032
-542.252	77.860	-0.129	-0.138
-541.237	-39.445	-0.106	-0.056
-540.223	800.000	-0.036	-0.105
-539.208	569.758	0.107	0.260
-538.193	40.380	-0.132	-0.118
-537.179	188.227	-0.151	-0.226
-536.164	26.194	-0.163	-0.136
-535.150	-21.219	-0.164	-0.100
-534.135	100.179	-0.036	-0.042
-533.121	800.000	0.029	-0.098
-532.106	-146.903	-0.122	0.010
-531.091	126.641	-0.044	-0.056
-530.077	-7.957	0.178	0.120
-529.062	-185.565	-0.341	0.005
-528.048	20.752	-0.143	-0.116
-527.033	800.000	-0.051	-0.200
-526.018	-119.702	-0.092	0.016
-525.004	-156.960	-0.031	0.002
-523.989	-200.000	-0.008	0.235
-522.975	315.473	0.073	0.137
-521.960	800.000	-0.087	-0.248
-520.945	49.285	-0.234	0.220
-519.931	-200.000	0.047	0.339
-518.916	95.098	-0.185	-0.211
-517.902	41.164	-0.226	0.204
-516.887	189.915	-0.233	0.350
-515.872	800.000	-0.049	-0.189
-514.858	-200.000	-0.012	-0.268
-513.843	800.000	0.007	-0.020
-512.829	31.342	-0.077	-0.066
-511.814	104.814	0.150	0.176
-510.799	-26.540	0.173	0.101
-509.785	74.143	0.147	-0.154
-508.770	-2.872	0.259	0.181
-507.756	-200.000	-0.028	0.137
-506.741	-145.117	0.221	0.020
-505.726	293.423	0.020	0.036
-504.712	134.055	0.116	0.150
-503.697	800.000	-0.095	-0.354
-502.683	-58.685	0.231	-0.100
-501.668	129.725	0.102	0.130
-500.653	-200.000	0.036	-0.623
-499.639	-200.000	-0.004	0.224
-498.624	148.433	0.163	0.219
-497.610	-200.000	-0.004	-0.061
-496.595	-200.000	-0.056	-0.256
-495.581	18.256	-0.068	-0.054
-494.566	203.802	-0.091	-0.141
-493.551	48.148	0.101	-0.094
-492.537	-200.000	-0.052	-0.326
-491.522	-24.105	0.162	0.097
-490.508	-200.000	0.002	-0.027
-489.493	800.000	-0.126	-0.531
-488.478	90.623	0.293	-0.327
-487.464	-200.000	0.006	-0.092
-486.449	74.753	0.094	0.098
-485.435	-200.000	-0.009	0.305
-484.420	-115.438	0.173	0.032
-483.405	107.857	0.146	-0.173
-482.391	-9.553	-0.339	0.226
-481.376	-49.789	0.096	-0.046
-480.362	-180.553	-0.554	0.011
-479.347	800.000	-0.030	0.104
-478.332	800.000	-0.050	0.211
-477.318	-31.963	0.253	-0.141
-476.303	-200.000	0.006	-0.057
-475.289	-200.000	-0.005	0.320
-474.274	-66.134	0.046	-0.018
-473.259	334.577	0.198	-0.383
-472.245	800.000	0.026	0.080
-471.230	-76.560	0.130	0.045
-470.216	-11.051	-0.248	0.163
-469.201	275.599	0.089	-0.157
-468.186	134.193	-0.162	0.209
-467.172	53.956	-0.232	0.222
-466.157	535.836	0.090	0.212
-465.143	-138.596	-0.264	0.029
-464.128	-54.854	0.037	-0.017
-463.113	-12.672	0.144	0.093
-462.099	322.769	-0.119	-0.225
-461.084	-109.787	-0.341	0.071
-460.070	116.828	-0.030	0.036
-459.055	8.565	0.206	0.154
-458.040	-98.062	-0.148	0.038
-457.026	-173.865	-0.103	-0.003
-456.011	-49.189	-0.447	0.213
-454.997	31.796	0.099	0.085
-453.982	407.589	0.050	0.106
-452.968	-200.000	0.004	0.111
-451.953	262.204	-0.108	-0.187
-450.938	18.041	0.087	-0.069
-449.924	601.593	0.166	-0.410
-448.909	92.576	-0.115	0.129
-447.895	-144.646	-0.455	-0.042
-446.880	53.005	0.115	0.109
-445.865	-118.067	-0.260	-0.046
-444.851	-200.000	-0.006	-0.155
-443.836	41.117	0.210	-0.189
-442.822	5.244	-0.280	0.206
-441.807	-63.139	-0.221	0.091
-440.792	356.912	-0.131	0.259
-439.778	-200.000	-0.057	-0.372
-438.763	-115.357	0.297	-0.056
-437.749	-27.460	-0.153	-0.088
-436.734	-120.816	0.187	-0.031
-435.719	-52.353	-0.143	0.066
-434.705	12.367	0.023	0.018
-433.690	-200.000	-0.006	0.070
-432.676	64.157	0.041	0.041
-431.661	-174.201	0.201	-0.006
-430.646	-46.339	0.236	-0.115
-429.632	-169.088	0.073	-0.003
-428.617	-200.000	-0.021	-0.105
-427.603	-91.503	-0.295	0.084
-426.588	-200.000	-0.011	0.067
-425.573	84.513	-0.265	-0.288
-424.559	200.020	-0.100	0.153
-423.544	-51.512	0.055	-0.025
-422.530	218.190	0.009	0.014
-421.515	506.958	0.065	0.149
-420.500	103.648	0.147	-0.172
-419.486	800.000	-0.039	0.132
-418.471	15.683	-0.106	-0.083
-417.457	-200.000	0.026	0.467
-416.442	-169.095	0.174	-0.006
-415.428	418.741	0.199	-0.424
-414.413	-200.000	0.041	-0.214
-413.398	442.824	-0.098	-0.213
-412.384	571.278	-0.172	-0.417
-411.369	-11.338	0.158	0.104
-410.355	-64.382	0.095	-0.038
-409.340	-141.601	0.187	-0.019
-408.325	-35.890	-0.165	0.089
-407.311	-91.145	0.091	-0.026
-406.296	800.000	-0.040	0.111
-405.282	508.266	0.181	0.418
-404.267	126.211	0.097	0.121
-403.252	-200.000	-0.011	-0.073
-402.238	87.100	0.097	-0.107
-401.223	-96.934	0.205	0.054
-400.209	7.708	0.394	-0.293
-399.194	-200.000	0.050	0.222
-398.179	-69.634	0.107	0.041
-397.165	-200.000	0.058	-0.591
-396.150	-200.000	0.001	0.042
-395.136	97.102	-0.147	0.168
-394.121	-200.000	0.056	-0.291
-393.106	-131.168	0.115	-0.015
-392.092	72.815	0.113	0.117
-391.077	-53.262	0.164	0.075
-390.063	-160.954	-0.112	0.006
-389.048	800.000	-0.093	0.376
-388.033	93.459	0.114	-0.128
-387.019	401.592	-0.156	-0.326
-386.004	-148.069	-0.286	0.024
-384.990	302.924	-0.103	-0.189
-383.975	132.442	-0.187	0.239
-382.960	480.356	0.061	-0.136
-381.946	38.491	0.452	-0.400
-380.931	47.549	-0.344	0.318
-379.917	800.000	0.082	0.250
-378.902	-137.963	-0.247	0.027
-377.888	-162.149	0.389	0.019
-376.873	-77.064	0.187	-0.065
-375.858	-200.000	0.008	-0.079
-374.844	-41.143	0.360	0.184
-373.829	-132.062	0.036	0.005
-372.815	520.877	-0.042	0.099
-371.800	751.757	-0.040	-0.108
-370.785	-66.730	0.246	0.097
-369.771	400.725	0.085	0.177
-368.756	-134.680	0.167	-0.020
-367.742	-114.389	-0.129	-0.025
-366.727	-103.416	-0.340	-0.080
-365.712	36.715	-0.216	-0.189
-364.698	389.597	0.034	-0.070
-363.683	-68.375	-0.078	-0.030
-362.669	-87.542	0.097	-0.029
-361.654	473.176	-0.083	0.185
-360.639	22.771	-0.140	-0.114
-359.625	687.931	0.058	0.150
-358.610	-200.000	0.021	-0.136
-357.596	-22.781	0.122	-0.073
-356.581	46.873	0.092	-0.085
-355.566	227.527	0.174	-0.281
-354.552	-60.383	0.173	0.073
-353.537	800.000	-0.135	-0.422
-352.523	800.000	0.060	-0.211
-351.508	-86.625	-0.306	0.093
-350.493	-128.284	-0.026	0.004
-349.479	-200.000	0.043	-0.222
-348.464	-181.320	0.290	-0.006
-347.450	-163.589	0.232	-0.011
-346.435	-200.000	-0.013	0.360
-345.420	-54.987	0.059	-0.026
-344.406	121.704	0.207	-0.256
-343.391	-200.000	-0.012	0.394
-342.377	800.000	-0.076	-0.231
-341.362	-200.000	-0.002	-0.200
-340.348	-27.854	0.261	0.150
-339.333	-200.000	0.038	0.497
-338.318	-62.261	-0.510	0.210
-337.304	800.000	-0.063	-0.265
-336.289	81.515	-0.085	0.091
-335.275	-200.000	-0.017	0.218
-334.260	89.277	-0.191	-0.211
-333.245	-176.516	0.427	0.011
-332.231	-74.233	0.045	0.016
-331.216	-8.884	-0.135	0.090
-330.202	724.150	-0.044	0.117
-329.187	99.597	0.195	0.224
-328.172	124.437	-0.099	0.123
-327.158	-200.000	0.004	0.193
-326.143	18.416	-0.073	-0.058
-325.129	48.102	-0.029	-0.027
-324.114	237.529	-0.095	0.156
-323.099	308.084	-0.118	-0.217
-322.085	-200.000	-0.003	0.074
-321.070	9.312	-0.207	-0.155
-320.056	319.293	0.182	0.342
-319.041	-119.506	-0.197	0.034
-318.026	37.568	0.141	0.124
-317.012	-12.675	0.021	-0.014
-315.997	-80.001	-0.155	-0.051
-314.983	99.748	-0.215	-0.246
-313.968	543.562	0.053	0.125
-312.953	-200.000	-0.073	0.429
-311.939	214.454	0.161	-0.253
-310.924	470.103	-0.083	0.186
-309.910	-47.821	0.150	0.072
-308.895	-139.234	0.202	0.022
-307.880	-22.508	-0.173	0.104
-306.866	-130.813	0.063	-0.008
-305.851	-200.000	0.051	-0.355
-304.837	-14.932	0.318	0.202
-303.822	103.258	-0.071	0.082
-302.807	-200.000	0.013	-0.423
-301.793	273.467	0.043	-0.075
-300.778	67.890	0.125	0.127
-299.764	165.682	0.040	-0.055
-298.749	49.569	-0.116	0.108
-297.735	471.699	0.068	-0.153
-296.720	-96.681	0.262	-0.068
-295.705	-200.000	-0.033	-0.284
-294.691	84.054	0.142	0.153
-293.676	800.000	-0.066	0.257
-292.662	-200.000	0.019	-0.181
-291.647	-25.850	0.196	0.114
-290.632	52.105	0.191	-0.180
-289.618	-25.499	-0.121	0.071
-288.603	78.458	-0.176	-0.186
-287.589	-177.452	-0.372	0.009
-286.574	-86.164	-0.027	-0.008
-285.559	-11.980	0.126	0.082
-284.545	-200.000	-0.048	0.383
-283.530	42.482	-0.168	-0.151
-282.516	800.000	-0.055	-0.158
-281.501	528.989	0.131	0.305
-280.486	-129.542	0.315	0.043
-279.472	-79.590	0.222	-0.074
-278.457	800.000	-0.080	-0.219
-277.443	-101.306	0.210	-0.051
-276.428	617.892	0.081	0.201
-275.413	-63.745	-0.179	-0.073
-274.399	342.135	-0.050	0.096
-273.384	-186.265	0.195	0.003
-272.370	-62.497	-0.073	-0.030
-271.355	88.758	0.196	-0.216
-270.340	-200.000	0.016	-0.202
-269.326	800.000	-0.050	-0.177
-268.311	-3.612	0.056	0.038
-267.297	-200.000	-0.017	0.403
-266.282	-200.000	0.002	0.097
-265.267	800.000	-0.050	0.201
-264.253	-200.000	-0.008	0.119
-263.238	213.971	-0.132	-0.206
-262.224	-66.036	-0.066	-0.026
-261.209	92.311	0.239	0.266
-260.195	682.826	-0.040	0.102
-259.180	1.909	0.183	0.131
-258.165	-76.228	-0.212	0.074
-257.151	-76.802	-0.316	0.109
-256.136	358.413	-0.124	-0.244
-255.122	-123.246	-0.251	0.040
-254.107	-156.176	-0.259	-0.016
-253.092	410.705	0.052	0.110
-252.078	-200.000	-0.028	-0.354
-251.063	473.850	0.118	0.264
-250.049	-200.000	0.004	0.122
-249.034	-149.236	0.045	0.004
-248.019	-89.961	-0.038	-0.011
-247.005	47.207	0.223	0.205
-245.990	215.338	-0.043	-0.067
-244.976	-117.516	-0.229	0.041
-243.961	162.913	-0.176	0.244
-242.946	-200.000	-0.005	-0.141
-241.932	800.000	-0.039	0.152
-240.917	-200.000	-0.001	-0.053
-239.903	-153.662	0.285	0.019
-238.888	8.461	-0.199	-0.147
-237.873	-105.019	-0.087	-0.020
-236.859	-200.000	-0.007	-0.259
-235.844	-80.417	0.390	-0.129
-234.830	-200.000	0.016	0.075
-233.815	7.708	-0.136	-0.100
-232.800	-200.000	0.032	0.195
-231.786	-61.265	0.221	0.092
-230.771	-200.000	-0.026	0.209
-229.757	-145.362	-0.156	-0.014
-228.742	-42.422	0.367	0.185
-227.727	-112.641	0.234	-0.046
-226.713	-200.000	0.005	0.077
-225.698	790.136	0.047	0.128
-224.684	-55.300	-0.384	0.170
-223.669	103.849	0.211	-0.244
-222.655	-24.880	0.078	-0.045
-221.640	-96.756	0.093	0.024
-220.625	-139.040	0.231	0.025
-219.611	-200.000	-0.042	-0.243
-218.596	-34.969	-0.256	-0.138
-217.582	6.961	-0.318	-0.234
-216.567	-2.608	0.116	0.080
-215.552	-200.000	-0.072	-0.451
-214.538	-200.000	-0.018	0.086
-213.523	95.476	0.177	0.200
-212.509	-48.155	0.298	-0.142
-211.494	-82.515	-0.150	-0.048
-210.479	228.140	-0.107	0.171
-209.465	92.123	-0.227	0.252
-208.450	-115.915	0.214	-0.039
-207.436	153.455	0.179	-0.242
-206.421	79.716	-0.274	-0.290
-205.406	-200.000	0.006	-0.109
-204.392	-200.000	0.023	0.263
-203.377	-200.000	-0.007	-0.272
-202.363	-167.703	0.238	0.009
-201.348	-166.254	-0.105	-0.004
-200.333	60.341	0.053	0.052
-199.319	-148.090	0.128	0.010
-198.304	-200.000	-0.025	0.122
-197.290	-200.000	0.045	0.249
-196.275	6.317	-0.061	0.044
-195.260	-124.652	0.268	-0.041
-194.246	219.016	0.134	-0.211
-193.231	0.521	-0.201	0.142
-192.217	-41.867	-0.142	0.072
-191.202	23.135	0.075	0.061
-190.187	-47.616	-0.143	0.069
-189.173	-91.196	-0.341	0.096
-188.158	-33.350	0.247	0.135
-187.144	-147.656	0.180	0.015
-186.129	-22.761	-0.452	-0.269
-185.114	23.097	0.094	-0.076
-184.100	-114.619	0.228	0.043
-183.085	-200.000	-0.059	0.330
-182.071	-29.585	-0.124	-0.070
-181.056	211.553	-0.049	-0.076
-180.042	-189.724	-0.161	-0.002
-179.027	-148.071	-0.362	-0.030
-178.012	-200.000	0.016	-0.263
-176.998	-107.312	0.194	0.042
-175.983	-146.274	0.125	0.011
-174.969	60.168	0.282	-0.275
-173.954	-200.000	0.042	-0.268
-172.939	-200.000	-0.025	0.163
-171.925	308.952	-0.077	0.141
-170.910	-70.928	0.120	0.045
-169.896	800.000	0.014	-0.055
-168.881	35.621	0.155	-0.134
-167.866	-51.833	-0.311	0.143
-166.852	35.437	0.017	0.015
-165.837	-42.251	0.119	-0.060
-164.823	16.640	-0.225	0.175
-163.808	-47.101	-0.102	-0.049
-162.793	-29.160	-0.103	-0.058
-161.779	123.207	0.141	0.173
-160.764	407.524	-0.132	0.275
-159.750	25.216	0.246	0.201
-158.735	-80.841	-0.272	-0.089
-157.720	49.539	0.236	0.219
-156.706	206.281	0.138	0.212
-155.691	-22.738	0.138	0.082
-154.677	-200.000	0.007	-0.087
-153.662	-37.021	-0.136	-0.072
-152.647	604.865	-0.169	0.414
-151.633	-19.643	0.203	-0.124
-150.618	-30.611	0.353	0.197
-149.604	120.998	0.087	0.107
-148.589	-200.000	-0.041	-0.205
-147.574	-200.000	-0.037	-0.219
-146.560	-136.323	0.131	0.015
-145.545	-59.197	-0.237	-0.100
-144.531	-24.564	0.440	-0.258
-143.516	254.433	-0.062	0.105
-142.502	-38.214	0.297	-0.155
-141.487	692.718	-0.108	-0.279
-140.472	-127.937	0.099	-0.014
-139.458	-54.699	-0.214	0.095
-138.443	-124.293	0.378	0.058
-137.429	-63.989	0.140	0.056
-136.414	-200.000	-0.005	0.348
-135.399	-98.035	-0.104	-0.026
-134.385	357.449	0.100	-0.196
-133.370	-44.856	-0.030	-0.015
-132.356	-200.000	-0.004	0.164
-131.341	-200.000	-0.011	-0.177
-130.326	138.190	0.161	0.208
-129.312	-65.377	0.241	0.095
-128.297	-50.836	-0.098	-0.045
-127.283	76.560	-0.181	-0.189
-126.268	-117.604	0.354	-0.063
-125.253	-200.000	-0.035	-0.329
-124.239	93.311	0.227	0.252
-123.224	-23.963	0.196	0.116
-122.210	324.307	0.170	-0.319
-121.195	-49.380	-0.236	0.110
-120.180	644.298	0.190	-0.476
-119.166	-67.574	-0.240	-0.092
-118.151	-61.762	0.068	-0.028
-117.137	-200.000	-0.012	-0.080
-116.122	-84.070	0.223	0.069
-115.107	5.611	-0.201	0.146
-114.093	139.877	-0.105	-0.137
-113.078	-75.613	0.334	-0.117
-112.064	-200.000	0.015	-0.115
-111.049	269.297	0.101	-0.175
-110.034	349.008	0.056	0.108
-109.020	347.245	-0.095	0.184
-108.005	-200.000	0.048	-0.306
-106.991	351.052	0.159	0.310
-105.976	800.000	0.117	0.418
-104.962	475.188	0.085	0.188
-103.947	45.659	-0.159	-0.145
-102.932	800.000	0.033	0.101
-101.918	-118.144	0.113	0.020
-100.903	-200.000	-0.017	-0.184
-99.889	-67.057	-0.179	-0.069
-98.874	800.000	-0.037	0.140
-97.859	-94.168	-0.513	-0.138
-96.845	-58.310	-0.137	-0.058
-95.830	-104.769	0.366	-0.083
-94.816	-129.818	0.373	-0.050
-93.801	-76.356	-0.241	0.083
-92.786	315.154	0.051	-0.094
-91.772	52.146	-0.315	0.294
-90.757	614.760	-0.134	-0.330
-89.743	-110.944	-0.169	-0.034
-88.728	131.670	0.063	0.079
-87.713	-29.130	0.021	-0.012
-86.699	-14.637	0.367	-0.231
-85.684	-33.557	-0.111	-0.060
-84.670	15.670	-0.175	-0.135
-83.655	-48.832	-0.078	-0.037
-82.640	88.254	-0.122	-0.133
-81.626	239.182	-0.207	-0.339
-80.611	-200.000	-0.031	-0.149
-79.597	800.000	0.090	0.310
-78.582	657.618	0.096	0.243
-77.567	-200.000	-0.004	-0.222
-76.553	142.408	-0.138	-0.180
-75.538	348.010	-0.023	0.044
-74.524	800.000	-0.023	-0.065
-73.509	-200.000	0.025	-0.200
-72.494	-35.848	0.365	0.194
-71.480	-84.545	-0.274	0.085
-70.465	-200.000	-0.020	-0.306
-69.451	-81.795	0.218	0.070
-68.436	-9.373	0.347	0.227
-67.422	-76.032	-0.351	0.122
-66.407	-172.293	-0.325	0.010
-65.392	-52.778	-0.367	0.166
-64.378	398.750	0.047	-0.097
-63.363	402.762	0.101	0.207
-62.349	-25.113	0.203	0.118
-61.334	67.952	-0.850	-0.853
-60.319	424.360	0.492	1.038
-59.305	239.080	-0.531	-0.867
-58.290	733.659	0.449	1.179
-57.276	-200.000	0.341	1.587
-56.261	-200.000	109.329	618.596
-55.246	520.087	1495.851	3437.420
-54.232	179.498	2678.325	3843.876
-53.217	111.705	2170.681	2568.145
-52.203	40.156	1703.631	1501.425
-51.188	32.946	1519.658	1290.191
-50.173	30.563	1493.156	1251.619
-49.159	51.583	1550.198	1444.332
-48.144	51.610	1566.856	1459.983
-47.130	33.083	1521.822	1292.764
-46.115	30.083	1506.906	1259.682
-45.100	29.924	1503.472	1255.685
-44.086	29.798	1501.557	1253.184
-43.071	29.834	1499.315	1251.505
-42.057	29.745	1497.589	1249.412
-41.042	29.749	1496.607	1248.569
-40.027	29.794	1494.980	1247.471
-39.013	29.699	1493.779	1245.773
-37.998	29.667	1492.206	1244.200
-36.984	29.732	1490.928	1243.521
-35.969	29.804	1489.367	1242.651
-34.954	29.736	1488.554	1241.473
-33.940	29.770	1486.875	1240.248
-32.925	29.813	1485.725	1239.531
-31.911	29.830	1484.330	1238.432
-30.896	29.876	1482.945	1237.531
-29.881	29.889	1481.781	1236.598
-28.867	29.810	1480.871	1235.264
-27.852	29.914	1478.818	1234.195
-26.838	29.825	1477.704	1232.624
-25.823	29.849	1476.557	1231.779
-24.809	29.877	1475.101	1230.700
-23.794	29.781	1473.401	1228.595
-22.779	29.874	1472.038	1228.028
-21.765	29.849	1471.174	1227.091
-20.750	29.785	1470.048	1225.680
-19.736	29.827	1468.839	1224.897
-18.721	29.830	1467.608	1223.847
-17.706	29.796	1466.355	1222.525
-16.692	29.856	1465.299	1221.997
-15.677	29.801	1464.518	1220.930
-14.663	29.810	1463.177	1219.821
-13.648	29.845	1462.605	1219.529
-12.633	29.789	1461.288	1218.013
-11.619	29.781	1460.944	1217.626
-10.604	29.826	1460.026	1217.111
-9.590	29.796	1459.071	1216.064
-8.575	29.790	1458.211	1215.263
-7.560	29.808	1457.093	1214.404
-6.546	29.698	1456.608	1213.228
-5.531	29.688	1455.952	1212.569
-4.517	29.759	1454.071	1211.420
-3.502	29.784	1453.554	1211.104
-2.487	29.846	1452.220	1210.351
-1.473	29.787	1451.670	1209.454
-0.458	29.699	1450.428	1207.800
0.556	30.254	1439.990	1196.351
1.571	26.720	1413.495	1151.817
2.586	22.690	1350.740	1076.054
3.600	20.815	1267.475	998.887
4.615	19.399	1222.718	955.692
5.629	16.746	1166.626	897.722
6.644	9.663	1084.890	799.725
7.659	4.225	1046.877	745.541
8.673	3.383	1041.853	737.867
9.688	3.329	1038.498	735.170
10.702	3.266	1036.739	733.558
11.717	3.443	1035.029	733.123
12.731	5.446	1036.183	743.406
13.746	12.145	1046.392	782.726
14.761	18.744	1054.384	820.262
15.775	20.338	1055.454	828.635
16.790	19.641	1053.735	823.892
17.804	18.794	1051.476	818.021
18.819	17.955	1049.596	812.496
19.834	17.413	1048.376	808.900
20.848	17.182	1048.173	807.576
21.863	17.182	1047.344	806.863
22.877	16.886	1046.338	804.613
23.892	16.853	1045.436	803.693
24.907	16.689	1045.038	802.539
25.921	16.610	1044.110	801.381
26.936	16.560	1043.514	800.617
27.950	16.669	1042.211	800.061
28.965	16.733	1041.351	799.633
29.980	16.825	1039.977	798.940
30.994	16.939	1039.290	798.879
32.009	17.138	1038.017	798.767
33.023	17.119	1037.398	798.130
34.038	17.014	1036.912	797.191
35.053	17.076	1035.683	796.469
36.067	16.825	1035.189	794.837
37.082	16.695	1034.162	793.372
38.096	16.769	1033.832	793.394
39.111	17.006	1032.451	793.373
40.126	17.054	1031.740	792.980
41.140	16.800	1030.861	791.048
42.155	16.719	1029.263	789.374
43.169	16.456	1028.613	787.583
44.184	16.336	1027.333	785.974
45.199	16.443	1025.963	785.352
46.213	16.407	1025.529	784.783
47.228	16.583	1024.659	784.867
48.242	16.795	1023.697	785.041
49.257	16.781	1022.912	784.305
50.271	16.771	1021.797	783.334
51.286	16.854	1020.659	782.778
52.301	16.786	1020.460	782.241
53.315	16.862	1019.959	782.135
54.330	16.670	1018.981	780.434
55.344	16.616	1017.996	779.363
56.359	16.631	1017.094	778.671
57.374	16.598	1016.258	777.809
58.388	16.496	1015.328	776.563
59.403	16.518	1014.270	775.786
60.417	16.458	1013.483	774.839
61.432	16.441	1012.690	774.088
62.447	16.507	1011.642	773.517
63.461	16.328	1011.267	772.342
64.476	16.324	1010.670	771.800
65.490	16.269	1009.420	770.529
66.505	16.336	1008.214	769.847
67.520	16.365	1008.065	769.797
68.534	16.381	1007.061	769.033
69.549	16.339	1006.284	768.179
70.563	16.267	1005.315	767.044
71.578	16.310	1004.431	766.499
72.593	16.362	1003.264	765.776
73.607	16.112	1002.900	764.296
74.622	16.209	1001.752	763.795
75.636	16.082	1001.061	762.627
76.651	16.063	1000.796	762.271
77.666	16.184	999.540	761.794
78.680	16.282	998.604	761.454
79.695	16.319	998.210	761.252
80.709	16.306	997.883	760.876
81.724	16.449	996.929	760.728
82.739	16.505	996.443	760.541
83.753	16.507	995.601	759.838
84.768	16.736	994.734	760.136
85.782	17.035	994.014	760.861
86.797	17.110	993.303	760.587
87.812	17.023	992.815	759.756
88.826	16.960	991.721	758.570
89.841	16.828	991.140	757.468
90.855	16.920	990.217	757.105
91.870	16.962	989.802	756.911
92.884	17.128	988.667	756.714
93.899	17.040	987.944	755.702
94.914	16.977	987.911	755.328
95.928	17.120	986.878	755.107
96.943	17.220	986.002	754.816
97.957	16.955	985.086	752.873
98.972	16.979	984.355	752.355
99.987	16.978	983.646	751.740
101.001	16.953	983.427	751.395
102.016	17.111	981.953	750.903
103.030	16.949	980.817	749.251
104.045	16.863	980.252	748.372
105.060	16.934	979.657	748.168
106.074	16.733	978.568	746.384
107.089	16.717	977.334	745.306
108.103	16.425	976.600	743.394
109.118	16.455	975.393	742.541
110.133	16.264	974.493	740.953
111.147	16.403	973.286	740.581
112.162	16.392	972.549	739.904
113.176	16.375	971.989	739.340
114.191	16.487	971.249	739.200
115.206	16.500	970.431	738.568
116.220	16.702	969.285	738.511
117.235	16.469	968.950	737.173
118.249	16.577	968.060	736.902
119.264	16.407	967.280	735.505
120.279	16.369	966.457	734.647
121.293	16.324	965.527	733.680
122.308	16.225	965.207	732.945
123.322	16.228	964.077	732.033
124.337	16.178	962.519	730.568
125.352	16.141	961.838	729.826
126.366	16.251	960.695	729.371
127.381	16.127	959.649	727.977
128.395	16.212	958.501	727.409
129.410	16.204	957.863	726.828
130.424	16.228	957.121	726.302
131.439	16.326	956.378	726.096
132.454	16.496	955.453	726.057
133.468	16.445	954.971	725.410
134.483	16.569	953.933	725.090
135.497	16.580	953.791	724.964
136.512	16.550	952.637	723.894
137.527	16.522	951.989	723.218
138.541	16.522	951.245	722.588
139.556	16.461	950.878	721.987
140.570	16.553	949.755	721.460
141.585	16.641	949.260	721.394
142.600	16.808	948.329	721.335
143.614	16.873	947.816	721.159
144.629	16.841	947.004	720.341
145.643	17.021	946.306	720.509
146.658	17.068	945.453	719.995
147.673	16.788	944.608	718.103
148.687	16.732	943.625	717.056
149.702	16.618	942.864	715.930
150.716	16.593	941.571	714.782
151.731	16.537	940.913	713.979
152.746	16.637	940.294	713.869
153.760	16.632	939.691	713.326
154.775	16.595	938.609	712.288
155.789	16.749	938.325	712.657
156.804	16.693	937.212	711.513
157.819	16.827	936.644	711.582
158.833	16.938	935.614	711.202
159.848	16.927	935.317	710.868
160.862	17.044	934.748	710.863
161.877	17.004	933.844	709.944
162.892	16.826	932.974	708.476
163.906	16.670	932.004	707.026
164.921	16.505	931.404	705.819
165.935	16.617	930.247	705.345
166.950	16.573	929.301	704.381
167.964	16.739	928.473	704.383
168.979	16.764	927.316	703.549
169.994	16.639	926.432	702.295
171.008	16.522	925.464	701.015
172.023	16.723	924.580	701.117
173.037	16.903	923.919	701.297
174.052	16.996	923.611	701.388
175.067	16.901	922.892	700.384
176.081	16.755	921.501	698.664
177.096	16.658	920.849	697.708
178.110	16.529	920.021	696.491
179.125	16.693	919.370	696.608
180.140	16.588	918.608	695.539
181.154	16.845	917.830	695.943
182.169	16.870	917.437	695.685
183.183	16.964	917.036	695.707
184.198	17.065	916.385	695.567
185.213	16.915	915.749	694.406
186.227	17.057	914.909	694.291
187.242	17.150	914.127	694.015
188.256	17.186	913.785	693.841
189.271	17.200	913.303	693.472
190.286	17.351	912.296	693.261
191.300	17.081	911.576	691.552
192.315	16.714	910.396	689.100
193.329	16.459	910.118	687.792
194.344	16.589	908.804	687.269
195.359	16.577	908.732	687.102
196.373	16.867	908.152	687.783
197.388	16.818	908.019	687.422
198.402	17.167	907.303	688.230
199.417	17.301	906.957	688.451
200.432	17.457	906.512	688.685
201.446	17.440	906.070	688.218
202.461	17.422	905.931	687.978
203.475	17.608	905.071	688.017
204.490	17.506	904.845	687.372
205.504	17.369	903.431	685.686
206.519	17.229	902.672	684.485
207.534	17.110	902.135	683.538
208.548	17.237	901.336	683.384
209.563	17.300	900.632	683.040
210.577	17.212	900.094	682.218
211.592	17.106	899.800	681.512
212.607	17.474	898.939	682.276
213.621	17.465	898.522	681.860
214.636	17.387	898.026	681.112
215.650	17.413	897.161	680.500
216.665	17.433	897.000	680.396
217.680	17.508	896.449	680.220
218.694	17.577	896.083	680.157
219.709	17.620	895.310	679.679
220.723	17.591	894.730	679.064
221.738	17.656	893.725	678.501
222.753	17.549	892.885	677.378
223.767	17.604	892.147	676.976
224.782	17.616	891.822	676.716
225.796	17.656	891.095	676.265
226.811	17.885	890.443	676.617
227.826	17.800	889.430	675.452
228.840	17.594	888.913	674.186
229.855	17.512	888.528	673.506
230.869	17.503	887.728	672.805
231.884	17.502	887.206	672.346
232.899	17.419	886.544	671.460
233.913	17.377	885.804	670.672
234.928	17.429	884.803	670.062
235.942	17.323	884.140	669.081
236.957	17.318	883.392	668.439
237.972	17.444	882.696	668.348
238.986	17.433	882.360	667.989
240.001	17.240	881.768	666.724
241.015	17.345	881.190	666.640
242.030	17.542	880.724	667.000
243.045	17.480	880.071	666.205
244.059	17.530	879.314	665.766
245.074	17.539	878.667	665.255
246.088	17.709	878.050	665.393
247.103	17.473	878.038	664.403
248.117	17.709	877.247	664.665
249.132	17.980	876.868	665.376
250.147	18.061	876.220	665.140
251.161	18.178	875.879	665.278
252.176	18.303	874.976	665.020
253.190	18.406	874.401	664.924
254.205	18.441	874.050	664.734
255.220	18.457	873.448	664.278
256.234	18.293	872.929	663.188
257.249	18.311	872.135	662.595
258.263	18.459	871.395	662.548
259.278	18.414	871.230	662.191
260.293	18.416	870.448	661.546
261.307	18.346	870.129	660.976
262.322	18.456	869.226	660.654
263.336	18.547	868.649	660.508
264.351	18.378	868.184	659.444
265.366	18.562	867.676	659.711
266.380	18.548	866.839	658.958
267.395	18.623	865.997	658.549
268.409	18.571	865.135	657.637
269.424	18.299	864.782	656.266
270.439	18.447	863.579	655.863
271.453	18.391	863.049	655.187
272.468	18.224	862.631	654.174
273.482	18.174	861.994	653.444
274.497	18.303	860.758	652.941
275.512	18.235	860.907	652.737
276.526	18.360	859.765	652.289
277.541	18.319	859.009	651.501
278.555	18.175	859.196	651.038
279.570	18.546	858.536	651.888
280.585	18.594	857.993	651.601
281.599	18.719	857.089	651.334
282.614	18.615	856.579	650.491
283.628	18.474	855.756	649.276
284.643	18.451	855.373	648.839
285.657	18.517	854.708	648.531
286.672	18.433	854.449	647.957
287.687	18.610	853.432	647.796
288.701	18.469	853.598	647.335
289.716	18.334	853.046	646.348
290.730	18.485	852.408	646.378
291.745	18.703	851.347	646.334
292.760	18.654	850.938	645.783
293.774	18.661	850.672	645.550
294.789	18.694	850.248	645.297
295.803	18.744	849.608	644.940
296.818	18.475	848.934	643.362
297.833	18.559	848.017	642.926
298.847	18.563	847.301	642.341
299.862	18.653	846.625	642.108
300.876	18.649	845.931	641.509
301.891	18.711	845.560	641.404
302.906	18.738	845.199	641.172
303.920	18.928	844.249	641.104
304.935	19.037	843.837	641.144
305.949	19.068	843.569	640.997
306.964	19.127	842.465	640.320
307.979	18.835	842.175	638.958
308.993	18.969	841.409	638.819
310.008	18.876	841.053	638.148
311.022	18.918	840.894	638.125
312.037	19.023	840.083	637.844
313.052	18.917	839.398	636.874
314.066	18.829	838.758	636.006
315.081	18.725	837.865	634.887
316.095	18.671	837.715	634.519
317.110	18.726	836.940	634.078
318.125	18.794	836.394	633.858
319.139	18.604	836.026	632.825
320.154	18.711	835.714	632.925
321.168	18.719	834.781	632.192
322.183	18.814	834.276	632.104
323.197	18.926	833.995	632.246
324.212	18.933	833.668	631.969
325.227	18.912	832.807	631.182
326.241	18.753	832.783	630.524
327.256	18.821	831.454	629.711
328.270	18.878	830.770	629.349
329.285	18.870	830.734	629.237
330.300	18.822	830.017	628.461
331.314	18.728	829.406	627.599
332.329	18.897	828.779	627.687
333.343	19.007	828.354	627.709
334.358	19.140	828.056	627.915
335.373	19.087	827.314	627.103
336.387	19.201	826.846	627.109
337.402	19.079	826.566	626.396
338.416	19.181	826.042	626.316
339.431	19.275	825.637	626.293
340.446	19.473	824.873	626.376
341.460	19.455	824.367	625.871
342.475	19.614	823.718	625.900
343.489	19.513	823.183	625.073
344.504	19.377	823.122	624.480
345.519	19.619	822.407	624.755
346.533	19.643	821.896	624.400
347.548	19.575	821.644	623.907
348.562	19.476	820.871	622.909
349.577	19.459	820.003	622.135
350.592	19.267	819.519	621.017
351.606	19.124	818.966	620.031
352.621	19.349	818.379	620.341
353.635	19.388	817.837	620.015
354.650	19.268	817.659	619.393
355.665	19.293	817.370	619.208
356.679	19.493	816.727	619.385
357.694	19.452	816.343	618.891
358.708	19.468	815.644	618.364
359.723	19.350	815.373	617.684
360.738	19.496	814.765	617.690
361.752	19.606	814.125	617.541
362.767	19.555	813.604	616.910
363.781	19.601	813.335	616.816
364.796	19.721	813.279	617.148
365.810	19.809	812.963	617.168
366.825	19.896	812.741	617.255
367.840	20.044	811.910	617.095
368.854	19.959	811.524	616.447
369.869	19.801	811.301	615.660
370.883	19.723	810.324	614.586
371.898	19.857	809.631	614.483
372.913	19.924	809.251	614.379
373.927	19.748	809.267	613.710
374.942	20.034	807.981	613.693
375.956	19.689	807.842	612.313
376.971	19.872	807.021	612.283
377.986	20.041	806.130	612.151
379.000	20.055	805.922	611.988
380.015	20.046	805.793	611.804
381.029	20.127	804.604	611.133
382.044	20.072	804.478	610.789
383.059	20.161	803.637	610.408
384.073	20.023	803.527	609.785
385.088	20.145	802.614	609.469
386.102	19.842	802.349	608.149
387.117	19.877	801.373	607.477
388.132	19.741	800.916	606.599
389.146	19.765	800.627	606.411
390.161	19.786	800.238	606.138
391.175	20.120	799.881	606.984
392.190	20.234	799.398	606.963
393.205	20.075	799.205	606.206
394.219	19.955	798.719	605.362
395.234	19.931	798.308	604.913
396.248	19.866	797.458	603.990
397.263	19.779	797.132	603.388
398.278	19.788	796.476	602.867
399.292	19.818	795.645	602.290
400.307	19.759	795.644	602.030
401.321	19.775	795.394	601.844
402.336	19.816	794.737	601.437
403.350	19.850	794.712	601.480
404.365	20.061	794.150	601.736
405.380	20.009	793.698	601.160
406.394	20.111	793.645	601.421
407.409	20.222	792.929	601.207
408.423	20.279	792.860	601.300
409.438	20.433	791.966	601.103
410.453	20.509	791.501	600.960
411.467	20.421	791.403	600.529
412.482	20.598	790.566	600.453
413.496	20.613	790.040	600.050
414.511	20.709	790.083	600.362
415.526	20.660	790.000	600.074
416.540	20.495	789.664	599.197
417.555	20.450	788.821	598.351
418.569	20.581	788.453	598.468
419.584	20.539	787.808	597.784
420.599	20.659	787.131	597.626
421.613	161.358	1370.125	1797.290
422.628	139.666	1455.052	1797.362
