DTS Sentinel unit serial number:	SN413079Multiplexer serial number:	ORYXHardware model number:	OX4-SRSoftware version number:	ORYX F/W v4.00 Oryx Data Collector v3.7.2.0data status	okinstallation	princeton_trtdifferential loss correction	single-endedforward channel	channel 3reverse channel	N/Adate	2019/09/16time	15:24:35forward acquisition time	60.00reverse acquisition time	0.00gamma	496.2192k internal	0.2292k external	0.2292temperature offset calibration	0.9944default loss term (dB/km)	0.3790temperature slope calibration	1.0000multiplexer offset coefficient	1.0000multiplexer slope coefficient	1.0000fibre end	0.00T internal ref (°C)	41.06T ext. ref 1 (°C)	14.64T ext. ref 2 (°C)	37.56length (m)	temperature (°C)	Stokes	anti-Stokes-747.200	25.047	-0.243	0.207
-746.185	8.946	-0.140	0.108
-745.171	800.000	0.070	-0.280
-744.156	54.233	-0.204	-0.201
-743.142	80.498	-0.020	-0.022
-742.127	800.000	0.146	0.496
-741.112	800.000	-0.043	0.159
-740.098	199.456	-0.226	0.354
-739.083	137.054	0.162	0.217
-738.069	-200.000	-0.032	0.392
-737.054	11.931	-0.191	-0.150
-736.039	-89.626	0.616	-0.185
-735.025	32.731	0.134	0.118
-734.010	-200.000	-0.006	-0.366
-732.996	800.000	0.065	-0.257
-731.981	148.702	0.058	0.081
-730.966	-200.000	-0.011	-0.053
-729.952	-29.429	0.156	0.092
-728.937	149.032	-0.126	-0.175
-727.923	-130.071	0.103	0.014
-726.908	287.317	0.164	-0.303
-725.894	520.875	-0.163	-0.392
-724.879	35.567	-0.170	-0.152
-723.864	800.000	0.041	0.137
-722.850	-86.905	-0.093	-0.029
-721.835	-112.526	0.270	0.055
-720.821	510.068	-0.046	-0.110
-719.806	-12.805	0.102	-0.068
-718.791	-120.477	-0.191	-0.033
-717.777	-108.176	-0.184	-0.041
-716.762	-148.784	0.126	0.010
-715.748	-11.238	-0.114	0.077
-714.733	155.371	0.138	-0.194
-713.718	-99.973	-0.113	0.029
-712.704	800.000	-0.111	-0.337
-711.689	781.777	0.094	-0.263
-710.675	12.668	-0.228	-0.180
-709.660	215.433	-0.249	-0.404
-708.645	-200.000	0.010	0.383
-707.631	-200.000	-0.035	0.333
-706.616	-159.646	0.235	-0.013
-705.602	-59.260	0.435	-0.191
-704.587	141.855	0.327	-0.443
-703.572	800.000	-0.007	-0.027
-702.558	131.761	0.198	-0.260
-701.543	-86.537	0.212	0.067
-700.529	-200.000	-0.057	-0.254
-699.514	128.140	0.061	-0.079
-698.499	-97.495	0.242	0.064
-697.485	-133.857	0.378	0.048
-696.470	54.118	0.253	0.249
-695.456	-70.759	0.142	-0.055
-694.441	-111.513	-0.367	-0.076
-693.426	-46.410	-0.292	0.147
-692.412	-102.887	0.229	-0.056
-691.397	-148.292	0.159	0.013
-690.383	-48.079	-0.077	-0.038
-689.368	-83.634	-0.273	-0.089
-688.354	-148.023	-0.222	-0.019
-687.339	147.847	0.124	-0.170
-686.324	800.000	-0.059	0.249
-685.310	-200.000	0.040	-0.260
-684.295	800.000	0.080	0.230
-683.281	123.419	0.208	0.267
-682.266	-137.755	0.152	-0.017
-681.251	-47.600	0.302	-0.150
-680.237	-54.589	0.322	0.149
-679.222	-200.000	0.000	-0.204
-678.208	-200.000	0.004	0.120
-677.193	-28.169	-0.126	0.075
-676.178	-93.847	-0.329	0.092
-675.164	267.673	0.045	-0.080
-674.149	380.192	-0.106	-0.222
-673.135	16.525	0.203	0.164
-672.120	28.288	0.102	0.088
-671.105	82.057	-0.100	0.111
-670.091	-31.139	0.275	-0.158
-669.076	81.443	0.138	-0.153
-668.062	342.146	-0.179	-0.358
-667.047	472.862	-0.146	-0.336
-666.032	-113.249	0.153	-0.031
-665.018	800.000	-0.031	0.089
-664.003	176.128	-0.108	0.161
-662.989	-200.000	0.018	0.189
-661.974	-71.280	0.130	0.050
-660.959	-79.615	-0.326	0.112
-659.945	-153.519	-0.240	0.017
-658.930	800.000	-0.063	0.229
-657.916	-200.000	-0.002	-0.202
-656.901	-27.503	0.326	0.193
-655.886	-121.584	-0.288	0.049
-654.872	-200.000	-0.080	-0.500
-653.857	238.026	0.044	-0.074
-652.843	165.439	-0.088	-0.127
-651.828	-85.768	-0.219	0.069
-650.814	-200.000	-0.003	-0.049
-649.799	279.037	-0.209	0.381
-648.784	-171.314	0.096	0.003
-647.770	-91.826	0.201	-0.058
-646.755	-200.000	-0.050	0.402
-645.741	-121.208	-0.209	0.036
-644.726	-200.000	0.005	-0.219
-643.711	-33.518	0.117	-0.066
-642.697	420.808	-0.115	0.252
-641.682	-110.279	0.236	0.050
-640.668	68.765	-0.056	0.059
-639.653	-200.000	-0.030	0.221
-638.638	14.440	-0.246	-0.196
-637.624	-157.249	0.170	-0.010
-636.609	-12.254	-0.103	-0.069
-635.595	409.689	-0.135	0.292
-634.580	-200.000	-0.024	0.158
-633.565	-72.012	0.227	0.086
-632.551	-200.000	-0.012	-0.238
-631.536	246.116	-0.148	-0.254
-630.522	574.774	0.043	-0.107
-629.507	-116.507	-0.184	0.035
-628.492	-138.749	-0.137	-0.015
-627.478	26.043	-0.085	0.072
-626.463	-50.942	0.285	0.136
-625.449	34.538	0.090	-0.080
-624.434	334.757	0.200	-0.395
-623.419	-38.668	-0.219	0.118
-622.405	47.357	0.158	0.150
-621.390	-73.204	0.159	0.059
-620.376	-200.000	-0.035	0.336
-619.361	61.005	0.129	0.131
-618.346	-29.423	-0.291	-0.170
-617.332	693.614	0.102	-0.273
-616.317	-69.315	-0.111	-0.043
-615.303	-159.453	0.163	0.009
-614.288	-79.585	-0.298	-0.102
-613.273	255.528	0.028	0.049
-612.259	5.934	-0.303	0.228
-611.244	75.125	0.098	0.105
-610.230	-82.399	-0.194	-0.064
-609.215	-131.679	0.230	-0.031
-608.201	-200.000	-0.008	0.186
-607.186	-152.598	0.369	-0.027
-606.171	228.171	0.037	-0.061
-605.157	-39.877	-0.114	0.060
-604.142	800.000	0.065	-0.191
-603.128	556.685	0.118	-0.290
-602.113	29.506	0.163	0.141
-601.098	-200.000	-0.004	-0.204
-600.084	-144.427	0.173	-0.016
-599.069	249.141	0.126	0.217
-598.055	93.718	-0.038	0.044
-597.040	-59.721	-0.126	0.055
-596.025	-200.000	-0.003	0.260
-595.011	-67.277	0.100	-0.040
-593.996	87.315	0.087	-0.098
-592.982	-200.000	0.027	-0.172
-591.967	1.050	0.375	0.274
-590.952	-33.193	0.202	-0.114
-589.938	3.736	0.088	0.065
-588.923	800.000	0.062	-0.267
-587.909	800.000	0.067	-0.235
-586.894	158.229	-0.071	0.100
-585.879	-200.000	-0.001	-0.185
-584.865	-92.694	-0.244	0.069
-583.850	-60.257	0.327	-0.142
-582.836	-200.000	-0.019	-0.093
-581.821	-8.514	-0.246	-0.168
-580.806	459.564	-0.030	-0.068
-579.792	-3.810	-0.102	-0.072
-578.777	232.537	-0.125	0.208
-577.763	0.278	0.141	0.102
-576.748	3.297	-0.240	0.177
-575.733	800.000	0.034	0.121
-574.719	-121.804	-0.504	-0.085
-573.704	-26.358	-0.242	-0.145
-572.690	89.060	-0.202	-0.228
-571.675	107.768	-0.095	0.115
-570.661	-53.455	0.196	-0.091
-569.646	5.910	-0.183	-0.138
-568.631	-146.649	-0.249	-0.022
-567.617	-200.000	0.052	-0.378
-566.602	779.952	0.038	-0.106
-565.588	-200.000	0.006	-0.233
-564.573	64.687	0.103	0.106
-563.558	-117.686	-0.212	-0.039
-562.544	620.724	-0.043	-0.110
-561.529	-120.246	0.032	0.005
-560.515	-61.903	0.118	0.050
-559.500	-101.397	-0.089	-0.022
-558.485	-200.000	-0.012	0.197
-557.471	-36.085	-0.123	-0.068
-556.456	-200.000	0.031	0.270
-555.442	-70.299	-0.070	-0.027
-554.427	-137.891	0.152	0.017
-553.412	800.000	0.071	-0.281
-552.398	61.275	-0.072	-0.072
-551.383	292.899	-0.135	0.249
-550.369	-200.000	0.008	-0.192
-549.354	51.013	-0.138	-0.133
-548.339	-68.852	-0.398	0.156
-547.325	-121.905	0.242	-0.040
-546.310	-200.000	-0.062	-0.324
-545.296	800.000	-0.059	0.178
-544.281	-200.000	-0.006	0.209
-543.266	224.002	0.199	-0.327
-542.252	-83.498	-0.096	-0.031
-541.237	800.000	-0.025	-0.072
-540.223	-200.000	-0.062	0.449
-539.208	-200.000	-0.004	-0.204
-538.193	800.000	0.050	-0.153
-537.179	-87.661	-0.406	-0.124
-536.164	652.483	-0.013	-0.035
-535.150	209.425	-0.150	0.239
-534.135	158.996	-0.077	-0.109
-533.121	512.079	0.028	-0.065
-532.106	13.650	-0.331	-0.261
-531.091	-200.000	-0.024	0.205
-530.077	-200.000	0.020	-0.144
-529.062	800.000	-0.063	0.186
-528.048	-118.809	0.403	-0.072
-527.033	90.919	-0.031	-0.035
-526.018	800.000	-0.083	-0.332
-525.004	1.501	0.109	-0.080
-523.989	-122.724	-0.226	0.037
-522.975	-92.832	0.342	0.097
-521.960	-200.000	0.019	0.159
-520.945	-99.810	0.107	-0.027
-519.931	-161.197	0.383	0.020
-518.916	-200.000	0.054	-0.258
-517.902	800.000	-0.049	-0.165
-516.887	126.883	0.192	-0.247
-515.872	114.238	0.046	0.057
-514.858	292.237	0.068	-0.126
-513.843	157.127	-0.263	0.369
-512.829	-200.000	0.026	-0.179
-511.814	419.052	0.060	-0.131
-510.799	-200.000	-0.008	0.202
-509.785	-200.000	0.052	0.367
-508.770	-71.284	0.067	-0.025
-507.756	-33.257	0.148	-0.083
-506.741	-33.570	0.181	0.101
-505.726	299.301	-0.114	-0.212
-504.712	-200.000	-0.012	-0.086
-503.697	-0.979	-0.195	0.140
-502.683	800.000	-0.048	-0.176
-501.668	800.000	0.020	-0.075
-500.653	-58.771	-0.196	-0.086
-499.639	177.180	-0.065	0.095
-498.624	-3.350	0.102	-0.072
-497.610	800.000	0.097	-0.342
-496.595	-182.260	0.219	-0.004
-495.581	-108.427	-0.149	-0.033
-494.566	314.658	0.054	0.103
-493.551	-143.262	-0.195	-0.019
-492.537	-200.000	0.001	0.144
-491.522	-74.750	0.142	-0.052
-490.508	133.917	0.351	0.461
-489.493	-130.982	0.200	-0.027
-488.478	438.858	-0.086	0.191
-487.464	-200.000	0.004	0.218
-486.449	-137.884	-0.199	-0.023
-485.435	640.894	-0.112	-0.289
-484.420	-125.075	-0.215	0.033
-483.405	-200.000	-0.002	0.337
-482.391	-200.000	-0.045	-0.261
-481.376	-200.000	-0.003	-0.212
-480.362	800.000	0.121	-0.452
-479.347	-60.036	0.222	0.096
-478.332	165.265	-0.161	-0.230
-477.318	637.326	-0.138	-0.355
-476.303	-159.916	-0.425	0.024
-475.289	-200.000	0.010	-0.108
-474.274	-55.284	-0.197	-0.090
-473.259	-161.550	-0.178	0.009
-472.245	-200.000	0.013	-0.235
-471.230	35.528	0.179	0.159
-470.216	28.632	0.101	0.087
-469.201	103.321	-0.004	-0.004
-468.186	-25.871	0.167	0.100
-467.172	-81.044	0.357	0.120
-466.157	-114.354	-0.355	-0.069
-465.143	88.763	0.089	-0.101
-464.128	-35.288	-0.058	-0.032
-463.113	-200.000	-0.040	-0.643
-462.099	-132.584	0.236	-0.031
-461.084	800.000	-0.009	-0.036
-460.070	-200.000	-0.014	0.179
-459.055	-55.105	-0.066	0.030
-458.040	-61.256	-0.222	-0.095
-457.026	-200.000	0.022	0.172
-456.011	770.723	-0.103	-0.283
-454.997	-200.000	-0.009	0.306
-453.982	800.000	0.057	-0.210
-452.968	104.779	0.054	-0.064
-451.953	-200.000	-0.015	0.107
-450.938	528.533	-0.106	0.254
-449.924	350.673	-0.142	0.284
-448.909	-57.908	0.073	-0.032
-447.895	-138.888	-0.059	-0.007
-446.880	611.017	-0.114	0.289
-445.865	-200.000	-0.039	0.526
-444.851	-59.483	0.136	0.059
-443.836	299.438	0.048	0.089
-442.822	27.623	-0.188	0.160
-441.807	-34.971	-0.364	-0.201
-440.792	173.135	-0.188	-0.274
-439.778	-91.786	-0.199	-0.057
-438.763	-41.366	-0.168	0.087
-437.749	-43.541	-0.260	0.133
-436.734	587.115	0.090	-0.224
-435.719	-68.300	-0.312	0.123
-434.705	-200.000	-0.069	-0.315
-433.690	-77.854	-0.321	-0.112
-432.676	-30.287	-0.182	0.105
-431.661	146.663	-0.098	-0.133
-430.646	218.330	-0.066	-0.106
-429.632	-200.000	-0.005	-0.282
-428.617	-79.785	-0.203	0.069
-427.603	127.034	-0.069	-0.089
-426.588	-200.000	0.019	-0.210
-425.573	-200.000	-0.013	-0.073
-424.559	0.395	-0.122	0.088
-423.544	44.535	-0.343	0.318
-422.530	-103.439	0.177	0.042
-421.515	9.499	0.142	-0.109
-420.500	-111.200	-0.232	0.048
-419.486	647.291	0.110	-0.283
-418.471	-67.290	0.070	-0.028
-417.457	158.046	-0.292	-0.409
-416.442	56.524	0.052	-0.051
-415.428	-8.352	0.064	-0.044
-414.413	229.055	-0.161	0.266
-413.398	-101.684	-0.055	0.014
-412.384	-16.688	-0.091	-0.058
-411.369	-22.091	-0.235	-0.144
-410.355	277.333	-0.073	-0.131
-409.340	-108.304	0.313	0.068
-408.325	3.766	0.219	-0.161
-407.311	163.507	-0.152	-0.216
-406.296	-68.243	-0.282	-0.111
-405.282	315.855	-0.066	0.126
-404.267	-43.341	-0.120	0.061
-403.252	800.000	-0.043	0.132
-402.238	-65.418	0.237	0.096
-401.223	175.588	-0.057	0.084
-400.209	-2.729	0.329	-0.233
-399.194	68.801	0.281	0.291
-398.179	-95.683	0.129	-0.035
-397.165	-200.000	0.064	0.300
-396.150	71.874	0.169	-0.177
-395.136	646.910	0.127	-0.327
-394.121	-87.174	0.385	-0.118
-393.106	-200.000	-0.015	-0.082
-392.092	-113.783	-0.228	-0.045
-391.077	-132.420	0.187	0.024
-390.063	21.548	-0.042	-0.034
-389.048	98.937	-0.163	-0.190
-388.033	-200.000	-0.021	-0.305
-387.019	-200.000	0.006	-0.100
-386.004	-145.622	-0.254	-0.023
-384.990	-167.979	0.345	-0.014
-383.975	-200.000	-0.026	-0.225
-382.960	155.861	-0.084	0.117
-381.946	534.170	0.144	0.345
-380.931	206.719	-0.099	0.156
-379.917	-162.385	-0.540	0.027
-378.902	-93.527	0.411	-0.115
-377.888	622.841	0.119	-0.302
-376.873	-30.510	0.100	0.057
-375.858	-200.000	-0.021	0.265
-374.844	-121.379	0.250	-0.042
-373.829	133.794	0.036	-0.047
-372.815	-25.811	-0.303	-0.180
-371.800	-55.345	-0.232	0.105
-370.785	178.259	-0.108	0.159
-369.771	-144.890	0.443	-0.041
-368.756	179.300	0.097	-0.143
-367.742	-14.304	0.303	-0.197
-366.727	-146.340	-0.390	-0.034
-365.712	2.924	0.190	-0.139
-364.698	-128.772	0.392	-0.056
-363.683	23.132	0.162	-0.134
-362.669	800.000	-0.057	0.208
-361.654	-119.397	-0.449	0.079
-360.639	800.000	-0.014	0.046
-359.625	-136.816	-0.122	0.014
-358.610	611.114	0.104	0.262
-357.596	168.339	-0.118	0.169
-356.581	800.000	0.083	-0.249
-355.566	-200.000	0.001	0.223
-354.552	-106.929	0.322	0.072
-353.537	36.402	0.132	0.117
-352.523	-200.000	-0.016	0.357
-351.508	727.177	0.119	0.321
-350.493	-148.016	0.188	0.016
-349.479	-200.000	-0.009	-0.071
-348.464	-43.726	0.196	0.100
-347.450	62.064	0.228	0.230
-346.435	-148.541	-0.306	0.025
-345.420	-126.059	0.359	0.054
-344.406	-25.472	0.122	-0.072
-343.391	-200.000	0.004	-0.191
-342.377	329.360	-0.057	0.110
-341.362	-60.511	0.297	0.127
-340.348	-126.008	0.178	-0.027
-339.333	-120.323	-0.219	0.038
-338.318	73.344	-0.054	0.057
-337.304	-181.958	0.393	-0.008
-336.289	-200.000	0.049	0.339
-335.275	109.293	-0.087	0.105
-334.260	147.148	0.085	-0.116
-333.245	-2.505	0.151	-0.107
-332.231	-18.633	0.249	-0.156
-331.216	178.994	0.067	-0.099
-330.202	46.984	-0.246	0.231
-329.187	109.803	-0.082	0.099
-328.172	-200.000	0.034	0.229
-327.158	-54.542	-0.245	0.112
-326.143	-112.447	0.191	0.038
-325.129	-111.570	0.469	0.096
-324.114	-48.643	0.162	0.079
-323.099	-133.451	0.106	0.013
-322.085	176.766	0.160	-0.235
-321.070	800.000	-0.087	-0.259
-320.056	-105.500	0.195	0.045
-319.041	48.217	0.159	0.150
-318.026	-82.286	0.203	0.066
-317.012	191.102	0.179	-0.272
-315.997	-91.696	0.120	0.034
-314.983	102.074	-0.163	0.192
-313.968	-74.173	0.177	-0.064
-312.953	-161.314	0.132	0.007
-311.939	125.682	-0.376	0.477
-310.924	773.771	-0.066	0.181
-309.910	-200.000	-0.002	-0.022
-308.895	-200.000	0.025	-0.445
-307.880	-137.093	-0.200	-0.023
-306.866	-200.000	0.025	-0.225
-305.851	-124.054	-0.166	-0.026
-304.837	123.527	0.041	0.052
-303.822	-95.314	0.105	0.028
-302.807	113.503	0.108	-0.132
-301.793	542.566	-0.103	0.247
-300.778	542.966	-0.116	-0.279
-299.764	-200.000	-0.002	-0.011
-298.749	212.910	-0.149	0.236
-297.735	800.000	-0.160	0.475
-296.720	800.000	0.104	0.347
-295.705	218.459	-0.150	0.241
-294.691	-200.000	-0.019	-0.233
-293.676	-53.212	0.242	-0.112
-292.662	-110.295	-0.214	0.045
-291.647	58.567	0.294	-0.291
-290.632	-158.946	0.439	0.025
-289.618	738.711	0.093	-0.251
-288.603	376.056	-0.112	0.230
-287.589	40.429	0.115	-0.104
-286.574	-200.000	-0.006	-0.226
-285.559	-200.000	0.026	-0.463
-284.545	120.962	-0.333	0.417
-283.530	-141.712	0.057	0.006
-282.516	-156.489	0.214	0.013
-281.501	-200.000	0.020	0.350
-280.486	800.000	-0.089	0.255
-279.472	23.860	0.072	0.060
-278.457	603.725	0.062	0.154
-277.443	101.959	-0.172	0.202
-276.428	35.987	0.137	0.121
-275.413	-200.000	0.005	-0.199
-274.399	-99.462	-0.239	0.061
-273.384	110.105	-0.068	0.082
-272.370	800.000	0.106	0.345
-271.355	45.209	0.096	0.089
-270.340	-92.929	0.374	-0.105
-269.326	-97.147	0.261	-0.069
-268.311	-200.000	0.001	-0.121
-267.297	139.169	0.123	-0.162
-266.282	408.348	0.073	0.155
-265.267	800.000	0.062	0.173
-264.253	-9.506	-0.111	-0.075
-263.238	-25.083	-0.146	-0.087
-262.224	64.974	-0.094	0.095
-261.209	800.000	-0.084	0.286
-260.195	210.366	-0.197	0.310
-259.180	26.181	0.290	-0.243
-258.165	-200.000	0.007	0.272
-257.151	800.000	-0.059	0.222
-256.136	-103.549	0.018	0.004
-255.122	-86.872	0.177	-0.054
-254.107	142.442	0.183	-0.243
-253.092	-200.000	-0.020	0.208
-252.078	-120.818	0.193	-0.033
-251.063	800.000	0.026	0.080
-250.049	-200.000	-0.020	-0.122
-249.034	213.682	-0.149	-0.237
-248.019	-59.406	-0.404	0.174
-247.005	32.721	-0.069	-0.060
-245.990	-50.916	-0.062	-0.029
-244.976	-53.877	-0.289	-0.132
-243.961	800.000	0.055	0.226
-242.946	160.843	0.170	0.238
-241.932	-104.443	-0.333	0.077
-240.917	-78.924	0.210	-0.072
-239.903	27.305	-0.067	0.057
-238.888	-134.743	0.156	-0.019
-237.873	47.524	0.086	0.081
-236.859	-66.894	0.126	0.050
-235.844	800.000	-0.049	-0.151
-234.830	198.379	0.110	0.169
-233.815	-200.000	0.001	-0.026
-232.800	-42.987	0.168	-0.086
-231.786	-200.000	-0.040	-0.296
-230.771	-107.741	-0.207	-0.045
-229.757	737.453	-0.050	-0.135
-228.742	-50.863	-0.225	-0.106
-227.727	-154.983	0.107	-0.007
-226.713	-200.000	0.036	0.263
-225.698	243.271	0.050	0.085
-224.684	-118.276	0.180	0.032
-223.669	29.542	-0.167	-0.142
-222.655	-35.197	-0.184	-0.101
-221.640	45.499	0.156	-0.145
-220.625	-200.000	0.022	0.152
-219.611	103.096	0.056	0.066
-218.596	-22.729	-0.044	-0.027
-217.582	-94.648	-0.305	-0.083
-216.567	-152.626	-0.155	-0.011
-215.552	-135.676	-0.134	-0.016
-214.538	-200.000	0.030	-0.178
-213.523	-200.000	-0.000	-0.141
-212.509	-149.687	-0.291	0.023
-211.494	-50.194	-0.121	-0.057
-210.479	5.770	0.208	-0.155
-209.465	170.853	0.027	0.038
-208.450	-71.958	-0.052	0.019
-207.436	689.824	0.046	0.121
-206.421	-62.261	0.198	-0.082
-205.406	46.857	-0.387	0.360
-204.392	-177.262	0.316	-0.008
-203.377	-200.000	-0.007	-0.035
-202.363	-42.289	-0.067	0.034
-201.348	644.487	-0.062	0.159
-200.333	-200.000	-0.026	0.146
-199.319	-41.495	-0.203	0.105
-198.304	217.648	-0.192	-0.306
-197.290	-160.337	0.112	-0.006
-196.275	-84.785	-0.063	0.020
-195.260	661.916	-0.019	-0.050
-194.246	-154.520	-0.175	0.012
-193.231	-200.000	-0.019	-0.103
-192.217	-20.821	0.202	-0.124
-191.202	363.214	0.093	0.187
-190.187	585.610	0.053	-0.129
-189.173	13.928	0.143	0.112
-188.158	-69.986	-0.040	-0.015
-187.144	800.000	-0.038	0.157
-186.129	-184.370	-0.108	-0.002
-185.114	800.000	0.043	-0.164
-184.100	711.820	0.082	0.218
-183.085	800.000	-0.037	-0.110
-182.071	-200.000	0.006	0.427
-181.056	-90.108	-0.085	-0.025
-180.042	0.792	0.160	0.114
-179.027	-147.455	0.088	0.007
-178.012	-129.577	-0.238	0.033
-176.998	-200.000	0.015	-0.120
-175.983	-200.000	0.057	-0.297
-174.969	9.286	-0.142	-0.107
-173.954	-60.456	-0.328	-0.139
-172.939	422.997	0.136	-0.291
-171.925	-73.279	0.234	0.086
-170.910	49.085	-0.118	-0.111
-169.896	21.621	-0.203	0.166
-168.881	13.966	0.248	0.193
-167.866	123.688	0.180	0.226
-166.852	-200.000	0.047	0.235
-165.837	-127.520	0.051	0.007
-164.823	155.361	0.071	-0.098
-163.808	-200.000	-0.005	0.072
-162.793	-8.175	-0.251	0.169
-161.779	-130.441	-0.549	0.074
-160.764	-50.497	0.101	0.048
-159.750	43.632	0.076	0.070
-158.735	-40.965	-0.213	-0.110
-157.720	456.886	0.080	-0.179
-156.706	137.021	0.120	0.157
-155.691	-73.147	0.309	-0.113
-154.677	-117.374	0.088	0.016
-153.662	-200.000	0.060	0.280
-152.647	800.000	0.147	-0.409
-151.633	-27.975	0.345	0.200
-150.618	-200.000	0.032	-0.467
-149.604	-157.166	0.425	-0.026
-148.589	21.178	0.214	-0.173
-147.574	745.068	-0.145	-0.391
-146.560	76.095	-0.310	-0.329
-145.545	-15.175	-0.156	0.100
-144.531	26.422	0.109	-0.091
-143.516	-200.000	0.006	-0.160
-142.502	-75.258	-0.177	-0.063
-141.487	350.760	-0.164	-0.323
-140.472	314.674	-0.067	0.127
-139.458	-200.000	-0.006	-0.105
-138.443	289.854	-0.029	-0.053
-137.429	255.247	-0.100	0.172
-136.414	129.904	-0.177	-0.226
-135.399	581.364	0.041	0.100
-134.385	-200.000	0.027	-0.389
-133.370	253.444	0.107	-0.183
-132.356	-92.516	0.219	-0.061
-131.341	-200.000	-0.001	0.182
-130.326	299.683	0.065	-0.120
-129.312	-200.000	-0.005	0.095
-128.297	269.051	-0.165	0.290
-127.283	165.182	0.205	0.289
-126.268	-8.215	0.051	0.034
-125.253	-93.754	0.402	-0.111
-124.239	-35.563	0.188	-0.102
-123.224	-56.672	-0.265	-0.117
-122.210	800.000	-0.021	0.089
-121.195	91.926	0.121	0.136
-120.180	-50.282	0.217	-0.103
-119.166	-200.000	0.019	0.083
-118.151	75.372	-0.095	-0.100
-117.137	19.060	-0.175	0.140
-116.122	31.644	0.196	-0.168
-115.107	-136.069	-0.027	0.003
-114.093	-40.338	-0.217	-0.113
-113.078	-99.801	-0.177	0.044
-112.064	-85.036	0.142	-0.044
-111.049	-82.198	0.097	-0.032
-110.034	223.620	-0.080	-0.129
-109.020	800.000	-0.043	-0.165
-108.005	-161.131	0.620	-0.032
-106.991	13.328	-0.141	-0.109
-105.976	247.812	0.070	-0.118
-104.962	26.075	0.061	-0.051
-103.947	-2.828	0.253	-0.177
-102.932	98.356	0.114	0.131
-101.918	-75.503	0.251	0.089
-100.903	800.000	-0.045	0.168
-99.889	-200.000	0.028	-0.259
-98.874	-200.000	-0.020	0.210
-97.859	450.729	0.139	0.305
-96.845	-25.906	0.164	0.096
-95.830	-200.000	-0.068	-0.370
-94.816	69.199	-0.179	-0.183
-93.801	306.752	0.042	-0.077
-92.786	800.000	-0.083	0.254
-91.772	68.011	-0.271	0.277
-90.757	-200.000	-0.020	-0.189
-89.743	305.446	-0.067	-0.124
-88.728	-16.404	-0.271	0.171
-87.713	-200.000	0.028	0.125
-86.699	85.268	-0.114	-0.124
-85.684	-85.072	-0.205	-0.064
-84.670	-200.000	0.001	-0.011
-83.655	64.575	0.159	-0.160
-82.640	489.236	0.133	0.304
-81.626	-65.257	0.264	0.106
-80.611	800.000	-0.063	-0.202
-79.597	49.425	-0.281	0.264
-78.582	92.386	0.201	0.226
-77.567	-86.913	0.198	-0.060
-76.553	-86.459	-0.190	0.058
-75.538	194.427	0.058	0.087
-74.524	12.170	-0.173	-0.133
-73.509	-200.000	0.040	0.272
-72.494	800.000	0.087	0.255
-71.480	800.000	0.023	-0.078
-70.465	406.814	0.053	0.113
-69.451	-75.336	0.149	0.053
-68.436	798.369	0.042	0.114
-67.422	-37.325	-0.087	-0.046
-66.407	800.000	-0.133	0.379
-65.392	-200.000	0.014	0.095
-64.378	-20.592	-0.076	-0.047
-63.363	800.000	-0.087	-0.273
-62.349	-200.000	-0.039	0.227
-61.334	94.931	-0.667	-0.756
-60.319	800.000	-0.118	0.428
-59.305	270.508	-0.445	-0.779
-58.290	316.333	0.310	0.584
-57.276	353.125	0.863	1.706
-56.261	-200.000	75.926	518.640
-55.246	537.209	1312.432	3105.698
-54.232	148.546	2540.301	3418.571
-53.217	118.024	2243.424	2754.085
-52.203	51.903	1766.324	1675.148
-51.188	44.481	1563.680	1430.940
-50.173	41.713	1533.754	1384.355
-49.159	57.948	1570.315	1531.166
-48.144	63.656	1590.401	1590.581
-47.130	45.097	1553.232	1425.457
-46.115	41.462	1539.132	1387.248
-45.100	41.187	1535.937	1382.405
-44.086	41.215	1533.538	1380.384
-43.071	41.182	1531.265	1378.050
-42.057	41.032	1529.655	1375.513
-41.042	40.969	1528.653	1374.121
-40.027	41.063	1526.911	1373.149
-39.013	41.072	1524.978	1371.421
-37.998	40.963	1523.952	1369.692
-36.984	41.065	1522.429	1368.970
-35.969	41.163	1520.786	1368.113
-34.954	41.121	1519.733	1366.821
-33.940	41.076	1518.482	1365.336
-32.925	41.144	1516.751	1364.188
-31.911	41.062	1515.437	1362.393
-30.896	41.072	1514.200	1361.297
-29.881	41.125	1512.757	1360.302
-28.867	41.149	1511.470	1359.260
-27.852	41.048	1510.703	1357.826
-26.838	41.078	1508.896	1356.349
-25.823	41.074	1507.301	1354.836
-24.809	41.049	1505.596	1353.080
-23.794	41.050	1504.395	1351.956
-22.779	41.130	1502.963	1351.155
-21.765	41.190	1501.693	1350.369
-20.750	41.120	1501.029	1349.243
-19.736	41.137	1499.909	1348.299
-18.721	41.157	1498.706	1347.298
-17.706	41.151	1497.594	1346.204
-16.692	41.031	1496.251	1344.132
-15.677	41.125	1495.338	1343.892
-14.663	41.037	1494.422	1342.421
-13.648	40.979	1493.356	1341.024
-12.633	40.975	1492.692	1340.348
-11.619	40.987	1491.919	1339.678
-10.604	41.031	1490.681	1338.810
-9.590	40.981	1489.859	1337.683
-8.575	40.994	1488.750	1336.719
-7.560	41.078	1487.687	1336.279
-6.546	41.014	1487.064	1335.233
-5.531	40.936	1486.409	1334.073
-4.517	41.026	1485.258	1333.589
-3.502	40.979	1484.255	1332.317
-2.487	41.047	1483.283	1331.853
-1.473	41.032	1482.385	1330.889
-0.458	41.056	1480.400	1329.213
0.556	39.396	1471.609	1319.606
1.571	36.714	1445.065	1278.001
2.586	32.692	1381.662	1196.360
3.600	30.367	1297.462	1109.479
4.615	28.181	1248.426	1054.866
5.629	25.656	1194.045	994.888
6.644	20.317	1111.757	898.674
7.659	15.687	1070.562	842.159
8.673	14.814	1065.258	833.561
9.688	14.646	1062.232	830.287
10.702	14.551	1060.810	828.626
11.717	14.529	1059.207	827.195
12.731	16.760	1060.599	839.276
13.746	21.033	1066.424	865.050
14.761	21.523	1065.272	866.465
15.775	18.573	1060.434	847.893
16.790	17.035	1057.275	837.705
17.804	15.890	1055.115	830.277
18.819	14.906	1053.495	824.082
19.834	14.503	1051.681	820.608
20.848	13.958	1050.650	817.047
21.863	13.761	1050.358	815.783
22.877	13.534	1049.251	813.736
23.892	13.427	1048.147	812.282
24.907	13.246	1047.939	811.162
25.921	13.164	1046.917	809.896
26.936	13.228	1046.392	809.728
27.950	13.365	1044.849	809.134
28.965	13.382	1043.519	808.115
29.980	13.350	1042.681	807.239
30.994	13.390	1041.774	806.661
32.009	13.497	1040.203	805.897
33.023	13.542	1039.243	805.298
34.038	13.422	1039.097	804.531
35.053	13.402	1037.910	803.444
36.067	13.406	1036.869	802.586
37.082	13.286	1036.172	801.392
38.096	13.368	1035.803	801.432
39.111	13.336	1035.107	800.668
40.126	13.357	1033.818	799.706
41.140	13.423	1032.200	798.698
42.155	13.310	1031.442	797.496
43.169	13.256	1030.553	796.481
44.184	13.252	1029.411	795.507
45.199	13.189	1029.035	794.846
46.213	13.208	1027.225	793.465
47.228	13.164	1026.814	792.870
48.242	13.115	1025.843	791.814
49.257	13.327	1024.573	791.776
50.271	13.278	1023.670	790.773
51.286	13.255	1023.090	790.147
52.301	13.367	1022.074	789.830
53.315	13.378	1021.064	789.029
54.330	13.327	1020.449	788.241
55.344	13.249	1019.487	787.055
56.359	13.277	1018.146	786.087
57.374	13.318	1017.479	785.695
58.388	13.325	1016.801	785.135
59.403	13.206	1015.818	783.744
60.417	13.058	1015.273	782.553
61.432	13.094	1014.982	782.429
62.447	13.190	1013.492	781.667
63.461	13.221	1012.568	781.031
64.476	13.078	1011.720	779.633
65.490	13.069	1010.896	778.884
66.505	13.126	1010.211	778.556
67.520	13.102	1009.569	777.882
68.534	13.150	1008.751	777.405
69.549	13.168	1007.881	776.753
70.563	13.054	1007.236	775.653
71.578	13.045	1006.932	775.305
72.593	13.048	1005.853	774.422
73.607	13.048	1004.650	773.426
74.622	13.092	1003.637	772.784
75.636	13.071	1002.937	772.076
76.651	13.107	1002.045	771.492
77.666	13.194	1001.107	771.106
78.680	13.166	1000.455	770.404
79.695	12.992	1000.385	769.473
80.709	13.132	999.248	769.181
81.724	13.135	998.941	768.889
82.739	13.263	997.663	768.436
83.753	13.213	997.216	767.788
84.768	13.214	996.334	767.047
85.782	13.257	995.700	766.692
86.797	13.357	995.260	766.749
87.812	13.332	994.320	765.841
88.826	13.343	993.193	764.957
89.841	13.190	992.663	763.773
90.855	13.470	991.191	763.866
91.870	13.442	990.668	763.263
92.884	13.393	990.277	762.671
93.899	13.407	989.453	762.034
94.914	13.409	988.354	761.129
95.928	13.421	987.729	760.636
96.943	13.488	987.482	760.685
97.957	13.420	986.667	759.678
98.972	13.393	985.433	758.534
99.987	13.447	985.061	758.431
101.001	13.528	983.868	757.814
102.016	13.391	983.747	757.027
103.030	13.350	982.355	755.701
104.045	13.408	981.441	755.196
105.060	13.396	980.335	754.227
106.074	13.489	978.949	753.516
107.089	13.369	978.545	752.594
108.103	13.291	977.335	751.239
109.118	13.212	976.815	750.417
110.133	13.198	975.914	749.593
111.147	13.337	974.902	749.381
112.162	13.221	974.366	748.373
113.176	13.111	973.779	747.363
114.191	13.298	972.205	746.934
115.206	13.330	971.577	746.526
116.220	13.402	970.548	745.996
117.235	13.296	969.988	745.020
118.249	13.299	969.207	744.370
119.264	13.216	968.309	743.241
120.279	13.317	967.398	742.927
121.293	13.296	966.662	742.203
122.308	13.220	966.038	741.320
123.322	13.322	964.789	740.752
124.337	13.156	964.207	739.494
125.352	13.182	963.228	738.794
126.366	13.159	962.171	737.815
127.381	13.161	961.066	736.913
128.395	13.156	960.126	736.106
129.410	13.170	959.190	735.384
130.424	13.185	958.745	735.044
131.439	13.386	957.182	734.672
132.454	13.438	956.681	734.454
133.468	13.443	955.732	733.683
134.483	13.333	955.444	732.913
135.497	13.488	954.423	732.751
136.512	13.360	954.112	731.879
137.527	13.293	953.224	730.835
138.541	13.401	952.414	730.628
139.556	13.340	951.779	729.808
140.570	13.292	951.169	729.062
141.585	13.390	949.812	728.390
142.600	13.522	949.448	728.626
143.614	13.453	948.707	727.690
144.629	13.525	948.133	727.501
145.643	13.526	947.474	726.937
146.658	13.507	946.582	726.106
147.673	13.470	945.275	724.878
148.687	13.385	944.473	723.823
149.702	13.339	943.688	722.960
150.716	13.330	942.861	722.220
151.731	13.395	941.862	721.678
152.746	13.391	941.041	720.968
153.760	13.439	940.348	720.579
154.775	13.379	939.588	719.673
155.789	13.454	938.770	719.306
156.804	13.494	938.131	718.929
157.819	13.480	937.034	717.965
158.833	13.463	936.766	717.620
159.848	13.441	935.897	716.798
160.862	13.560	935.275	716.772
161.877	13.447	934.731	715.803
162.892	13.483	933.577	715.011
163.906	13.465	932.955	714.394
164.921	13.292	932.370	713.137
165.935	13.329	931.301	712.416
166.950	13.368	930.339	711.784
167.964	13.515	929.256	711.523
168.979	13.392	928.362	710.249
169.994	13.428	927.608	709.763
171.008	13.509	926.332	709.070
172.023	13.671	925.528	709.088
173.037	13.417	925.253	707.727
174.052	13.485	924.325	707.243
175.067	13.684	923.212	707.180
176.081	13.651	922.754	706.627
177.096	13.502	921.914	705.285
178.110	13.570	920.961	704.782
179.125	13.674	920.170	704.559
180.140	13.472	919.729	703.297
181.154	13.599	918.639	702.942
182.169	13.552	918.491	702.569
183.183	13.765	917.699	702.801
184.198	13.692	916.887	701.810
185.213	13.835	916.137	701.775
186.227	13.753	915.791	701.103
187.242	13.751	915.129	700.526
188.256	13.808	914.478	700.205
189.271	13.854	913.750	699.783
190.286	13.868	912.520	698.836
191.300	13.742	912.553	698.269
192.315	13.554	911.297	696.456
193.329	13.549	910.462	695.734
194.344	13.524	909.756	695.028
195.359	13.656	909.627	695.422
196.373	13.660	909.395	695.200
197.388	13.752	908.378	694.747
198.402	13.917	907.763	694.907
199.417	13.949	907.706	694.933
200.432	13.976	907.077	694.502
201.446	14.122	906.505	694.615
202.461	14.042	906.135	693.937
203.475	14.032	905.927	693.675
204.490	14.124	904.985	693.274
205.504	13.922	904.109	691.702
206.519	14.007	903.145	691.254
207.534	14.024	902.194	690.539
208.548	13.955	902.054	690.082
209.563	13.929	901.569	689.542
210.577	14.118	900.584	689.513
211.592	14.166	899.765	689.022
212.607	14.027	899.716	688.346
213.621	14.013	899.488	688.056
214.636	14.035	898.527	687.350
215.650	14.065	897.610	686.712
216.665	14.085	897.055	686.310
217.680	14.223	896.931	686.722
218.694	14.201	895.954	685.824
219.709	14.264	895.359	685.567
220.723	14.119	895.204	684.789
221.738	14.080	894.230	683.824
222.753	14.174	893.129	683.306
223.767	14.313	892.370	683.236
224.782	14.206	892.129	682.553
225.796	14.356	891.132	682.344
226.811	14.210	890.586	681.267
227.826	14.187	890.025	680.684
228.840	14.246	889.399	680.386
229.855	14.296	888.577	679.902
230.869	14.323	887.740	679.310
231.884	14.213	887.318	678.480
232.899	14.290	886.530	678.132
233.913	14.283	885.909	677.566
234.928	14.201	885.152	676.596
235.942	14.160	884.895	676.172
236.957	14.141	883.957	675.320
237.972	14.273	883.039	675.093
238.986	14.199	882.929	674.647
240.001	14.350	882.130	674.592
241.015	14.290	881.540	673.836
242.030	14.235	880.733	672.938
243.045	14.479	879.805	673.153
244.059	14.583	879.052	672.940
245.074	14.484	878.566	672.110
246.088	14.560	877.853	671.809
247.103	14.554	877.498	671.455
248.117	14.540	876.800	670.804
249.132	14.512	876.513	670.412
250.147	14.664	875.989	670.562
251.161	14.723	875.522	670.382
252.176	14.775	874.349	669.633
253.190	14.869	873.533	669.325
254.205	14.655	873.300	668.230
255.220	14.800	872.694	668.288
256.234	14.927	872.112	668.290
257.249	14.885	871.535	667.624
258.263	14.916	870.672	667.026
259.278	14.906	870.334	666.671
260.293	14.854	869.878	666.053
261.307	14.944	869.184	665.823
262.322	15.028	868.696	665.722
263.336	14.995	868.263	665.199
264.351	14.919	867.817	664.498
265.366	15.083	866.646	664.192
266.380	14.941	866.225	663.249
267.395	15.096	865.391	663.165
268.409	14.936	865.167	662.302
269.424	15.027	864.129	661.807
270.439	14.985	863.738	661.284
271.453	14.996	862.831	660.576
272.468	15.085	862.123	660.326
273.482	15.022	861.709	659.701
274.497	14.971	861.292	659.121
275.512	14.910	860.445	658.175
276.526	15.111	859.338	658.062
277.541	15.034	858.586	657.126
278.555	15.066	858.135	656.847
279.570	15.164	857.530	656.711
280.585	15.313	856.949	656.789
281.599	15.259	856.713	656.340
282.614	15.171	855.836	655.266
283.628	15.168	855.082	654.618
284.643	15.242	854.559	654.448
285.657	15.332	853.935	654.263
286.672	15.261	853.530	653.620
287.687	15.318	852.904	653.304
288.701	15.298	852.598	652.936
289.716	15.264	852.295	652.512
290.730	15.219	851.620	651.763
291.745	15.362	850.674	651.537
292.760	15.287	850.108	650.755
293.774	15.470	849.687	651.083
294.789	15.332	849.029	649.989
295.803	15.393	848.491	649.756
296.818	15.377	848.071	649.313
297.833	15.364	847.241	648.569
298.847	15.322	846.549	647.820
299.862	15.431	845.983	647.751
300.876	15.458	845.677	647.563
301.891	15.402	845.108	646.855
302.906	15.446	844.022	646.138
303.920	15.551	843.441	646.038
304.935	15.544	843.098	645.689
305.949	15.617	842.228	645.247
306.964	15.638	841.409	644.645
307.979	15.724	840.873	644.507
308.993	15.645	840.580	643.923
310.008	15.660	839.818	643.337
311.022	15.677	839.429	643.048
312.037	15.845	838.897	643.227
313.052	15.588	838.674	642.015
314.066	15.689	837.643	641.555
315.081	15.519	837.189	640.504
316.095	15.684	836.666	640.674
317.110	15.562	836.043	639.676
318.125	15.546	835.987	639.517
319.139	15.746	835.042	639.497
320.154	15.540	835.026	638.646
321.168	15.687	834.180	638.499
322.183	15.728	833.585	638.144
323.197	15.686	832.973	637.459
324.212	15.717	832.649	637.271
325.227	15.782	831.949	636.926
326.241	15.858	831.089	636.498
327.256	15.690	830.722	635.527
328.270	15.719	830.331	635.282
329.285	15.741	829.911	634.987
330.300	15.703	829.126	634.185
331.314	15.751	828.288	633.669
332.329	15.835	827.832	633.580
333.343	15.706	827.635	632.888
334.358	15.833	826.709	632.602
335.373	15.871	826.297	632.374
336.387	15.994	825.721	632.338
337.402	15.872	825.223	631.445
338.416	15.910	824.989	631.351
339.431	16.056	824.047	631.123
340.446	16.147	823.474	630.966
341.460	16.120	822.943	630.405
342.475	16.131	822.763	630.250
343.489	16.075	822.046	629.438
344.504	16.287	821.564	629.804
345.519	16.191	821.114	629.044
346.533	16.191	820.698	628.670
347.548	16.187	820.011	628.073
348.562	16.227	819.649	627.889
349.577	16.161	818.944	627.047
350.592	16.201	818.312	626.659
351.606	16.256	818.042	626.600
352.621	16.300	817.357	626.184
353.635	16.150	817.247	625.487
354.650	16.119	816.838	625.004
355.665	16.201	816.322	624.857
356.679	16.147	816.012	624.364
357.694	16.277	815.195	624.166
358.708	16.242	815.260	624.029
359.723	16.330	814.049	623.373
360.738	16.257	813.794	622.851
361.752	16.310	813.078	622.445
362.767	16.165	813.097	621.872
363.781	16.375	812.209	621.908
364.796	16.341	812.200	621.722
365.810	16.464	811.543	621.615
366.825	16.632	811.158	621.883
367.840	16.626	810.552	621.342
368.854	16.583	810.358	620.979
369.869	16.538	809.802	620.334
370.883	16.592	809.405	620.174
371.898	16.559	808.586	619.369
372.913	16.786	807.714	619.477
373.927	16.617	807.816	618.883
374.942	16.582	807.299	618.303
375.956	16.668	806.296	617.795
376.971	16.585	805.711	616.991
377.986	16.643	805.296	616.827
379.000	16.778	804.837	616.914
380.015	16.698	804.782	616.524
381.029	16.789	803.877	616.110
382.044	16.799	803.158	615.540
383.059	16.777	802.879	615.191
384.073	16.927	801.978	614.993
385.088	16.815	801.657	614.286
386.102	16.768	800.926	613.499
387.117	16.706	800.726	613.068
388.132	16.805	800.054	612.858
389.146	16.614	800.104	612.152
390.161	16.739	799.335	611.959
391.175	16.707	799.198	611.686
392.190	16.938	798.489	611.922
393.205	16.911	798.576	611.839
394.219	16.834	797.787	610.899
395.234	16.907	796.990	610.501
396.248	16.791	796.821	609.897
397.263	16.725	796.680	609.500
398.278	16.792	795.780	608.997
399.292	16.761	795.183	608.374
400.307	16.812	794.810	608.221
401.321	16.839	794.646	608.137
402.336	16.875	794.267	607.922
403.350	16.928	793.989	607.845
404.365	17.130	792.950	607.721
405.380	17.043	792.878	607.300
406.394	17.064	792.581	607.091
407.409	17.018	792.304	606.663
408.423	17.147	791.353	606.342
409.438	17.159	790.857	605.949
410.453	17.295	790.577	606.167
411.467	17.337	790.436	606.154
412.482	17.306	789.713	605.437
413.496	17.220	789.386	604.826
414.511	17.342	789.108	604.994
415.526	17.353	788.629	604.613
416.540	17.183	788.471	603.832
417.555	17.205	787.888	603.412
418.569	17.317	787.247	603.265
419.584	17.220	787.055	602.721
420.599	17.393	786.355	602.745
421.613	91.864	1262.034	1370.491
422.628	78.094	1331.368	1370.627
