DTS Sentinel unit serial number:	SN413079Multiplexer serial number:	ORYXHardware model number:	OX4-SRSoftware version number:	ORYX F/W v4.00 Oryx Data Collector v3.7.2.0data status	okinstallation	princeton_trtdifferential loss correction	single-endedforward channel	channel 3reverse channel	N/Adate	2019/09/18time	19:28:35forward acquisition time	60.00reverse acquisition time	0.00gamma	496.2192k internal	0.2322k external	0.2322temperature offset calibration	1.0009default loss term (dB/km)	0.3790temperature slope calibration	1.0000multiplexer offset coefficient	1.0000multiplexer slope coefficient	1.0000fibre end	0.00T internal ref (°C)	33.06T ext. ref 1 (°C)	1.12T ext. ref 2 (°C)	22.76length (m)	temperature (°C)	Stokes	anti-Stokes-747.200	-160.110	0.213	0.012
-746.185	800.000	-0.132	0.436
-745.171	800.000	0.092	0.256
-744.156	-200.000	-0.061	0.371
-743.142	125.194	-0.116	0.147
-742.127	56.607	0.208	0.205
-741.112	248.667	-0.171	-0.293
-740.098	-200.000	-0.011	-0.090
-739.083	-200.000	-0.015	-0.165
-738.069	800.000	-0.053	0.177
-737.054	-37.010	-0.235	0.127
-736.039	-22.837	-0.259	0.158
-735.025	-125.314	0.045	-0.007
-734.010	346.699	-0.039	-0.077
-732.996	-95.347	-0.047	0.013
-731.981	-200.000	-0.008	-0.285
-730.966	-7.818	0.277	0.189
-729.952	-89.411	-0.089	0.026
-728.937	-3.237	0.197	0.139
-727.923	558.455	0.036	0.088
-726.908	99.738	0.048	-0.056
-725.894	-83.426	-0.177	-0.057
-724.879	-200.000	0.008	-0.214
-723.864	-91.928	-0.234	-0.067
-722.850	-29.303	0.282	0.163
-721.835	-96.152	-0.381	-0.102
-720.821	800.000	-0.098	-0.333
-719.806	800.000	-0.041	0.172
-718.791	1.149	0.029	-0.021
-717.777	293.927	-0.119	0.220
-716.762	267.757	-0.166	0.294
-715.748	-200.000	-0.023	0.129
-714.733	-62.425	0.294	-0.123
-713.718	-174.561	0.264	0.008
-712.704	119.326	-0.099	-0.124
-711.689	-124.855	0.288	0.045
-710.675	800.000	-0.053	0.175
-709.660	-152.946	-0.363	0.026
-708.645	800.000	-0.070	0.246
-707.631	-106.829	-0.273	-0.061
-706.616	242.389	0.110	0.186
-705.602	-67.566	0.148	0.058
-704.587	-64.487	-0.218	-0.089
-703.572	23.386	0.095	-0.079
-702.558	-119.593	0.536	-0.094
-701.543	-43.348	0.053	-0.027
-700.529	199.247	0.145	-0.225
-699.514	-124.560	0.173	0.027
-698.499	-158.960	-0.382	-0.022
-697.485	-81.896	0.118	-0.039
-696.470	-200.000	0.015	-0.098
-695.456	67.035	0.059	0.061
-694.441	198.462	0.068	-0.105
-693.426	-9.359	0.101	-0.068
-692.412	-200.000	-0.197	-0.001
-691.397	-33.370	0.049	0.027
-690.383	-83.602	-0.301	0.097
-689.368	-3.307	-0.348	-0.245
-688.354	-86.204	0.193	-0.060
-687.339	421.985	-0.107	0.231
-686.324	199.336	0.089	-0.138
-685.310	6.857	0.054	0.040
-684.295	800.000	-0.036	-0.127
-683.281	256.913	0.176	-0.305
-682.266	97.610	-0.146	-0.170
-681.251	-56.838	-0.109	0.048
-680.237	800.000	-0.044	0.158
-679.222	359.432	-0.056	-0.112
-678.208	-10.572	0.239	0.160
-677.193	-148.733	-0.101	-0.008
-676.178	-48.292	0.261	-0.127
-675.164	117.411	0.088	0.108
-674.149	10.827	-0.127	0.098
-673.135	800.000	0.075	-0.253
-672.120	384.582	0.023	0.047
-671.105	-200.000	-0.018	0.093
-670.091	76.248	-0.181	0.193
-669.076	-2.933	-0.170	0.120
-668.062	-76.031	-0.292	-0.104
-667.047	800.000	0.037	0.131
-666.032	-64.802	0.126	-0.051
-665.018	-151.383	-0.207	0.015
-664.003	-92.674	-0.032	0.009
-662.989	164.159	0.035	-0.050
-661.974	94.337	0.131	-0.150
-660.959	40.418	-0.240	0.218
-659.945	-169.458	0.332	-0.012
-658.930	-200.000	-0.085	-0.483
-657.916	-19.607	0.350	0.218
-656.901	-123.067	-0.248	0.040
-655.886	22.339	-0.140	0.115
-654.872	36.837	0.146	0.130
-653.857	-22.471	0.195	0.119
-652.843	422.225	-0.154	0.332
-651.828	290.640	-0.040	-0.074
-650.814	102.575	0.072	0.085
-649.799	-200.000	-0.028	-0.207
-648.784	52.245	0.089	0.085
-647.770	-54.624	0.095	0.043
-646.755	-50.635	0.321	-0.152
-645.741	32.450	0.210	-0.183
-644.726	105.362	0.163	-0.194
-643.711	800.000	0.036	-0.156
-642.697	-77.045	0.185	0.065
-641.682	-27.506	-0.025	-0.014
-640.668	388.917	-0.055	0.115
-639.653	800.000	-0.052	-0.221
-638.638	66.080	0.031	-0.032
-637.624	105.010	-0.073	0.086
-636.609	-28.071	-0.210	-0.122
-635.595	-200.000	0.043	-0.284
-634.580	-44.834	0.303	0.152
-633.565	434.507	0.026	0.057
-632.551	800.000	0.038	-0.106
-631.536	800.000	0.025	0.108
-630.522	59.509	0.115	-0.114
-629.507	67.929	-0.140	-0.144
-628.492	-200.000	0.039	0.297
-627.478	389.390	0.034	-0.072
-626.463	188.324	-0.062	0.093
-625.449	-18.562	0.277	-0.174
-624.434	29.747	-0.115	0.098
-623.419	-200.000	-0.026	0.448
-622.405	-200.000	0.167	-0.001
-621.390	0.480	0.150	0.108
-620.376	-87.071	-0.319	0.098
-619.361	-200.000	0.043	0.363
-618.346	123.382	0.151	-0.190
-617.332	194.872	-0.322	-0.491
-616.317	-15.616	0.308	0.198
-615.303	131.421	-0.122	0.158
-614.288	-200.000	0.004	0.051
-613.273	-35.745	0.214	-0.116
-612.259	-177.371	-0.229	0.006
-611.244	-29.543	0.228	0.131
-610.230	701.367	-0.130	0.344
-609.215	-6.640	-0.202	-0.138
-608.201	-147.496	0.209	0.018
-607.186	-133.168	-0.267	-0.034
-606.171	800.000	0.032	0.094
-605.157	339.288	0.076	-0.150
-604.142	622.934	-0.100	-0.253
-603.128	-180.280	0.355	-0.007
-602.113	-200.000	-0.075	-0.334
-601.098	-108.426	-0.096	-0.021
-600.084	601.553	0.077	-0.193
-599.069	120.580	0.202	0.252
-598.055	-200.000	-0.001	-0.203
-597.040	229.772	-0.056	0.092
-596.025	140.516	-0.108	-0.144
-595.011	800.000	-0.008	0.031
-593.996	51.296	0.379	0.361
-592.982	523.716	-0.007	-0.016
-591.967	-145.475	0.371	0.033
-590.952	-140.853	0.368	-0.038
-589.938	210.447	0.231	-0.364
-588.923	607.141	-0.068	-0.171
-587.909	-200.000	-0.002	-0.118
-586.894	-50.966	-0.075	-0.035
-585.879	-71.040	0.282	0.107
-584.865	-65.737	0.118	0.048
-583.850	84.241	-0.044	0.048
-582.836	12.254	0.203	0.157
-581.821	54.049	0.265	0.256
-580.806	217.910	-0.107	0.171
-579.792	-7.083	-0.101	0.069
-578.777	-115.630	-0.042	0.008
-577.763	-48.384	-0.081	0.039
-576.748	-200.000	-0.023	0.208
-575.733	-126.986	-0.106	0.016
-574.719	800.000	0.026	0.095
-573.704	-200.000	-0.019	-0.427
-572.690	-28.885	0.399	0.230
-571.675	83.431	-0.156	-0.171
-570.661	149.600	-0.132	0.179
-569.646	-37.514	-0.135	0.072
-568.631	-35.037	-0.109	0.059
-567.617	85.667	0.178	0.196
-566.602	-124.756	-0.233	0.036
-565.588	-200.000	-0.031	0.251
-564.573	184.535	0.146	-0.216
-563.558	51.859	-0.124	-0.118
-562.544	-200.000	0.079	0.376
-561.529	-65.635	0.061	0.024
-560.515	14.233	0.395	-0.309
-559.500	-200.000	0.001	0.472
-558.485	-200.000	0.004	-0.105
-557.471	158.449	-0.007	0.010
-556.456	-61.336	-0.445	-0.188
-555.442	689.869	0.130	-0.341
-554.427	-35.075	-0.128	-0.070
-553.412	134.210	0.141	-0.183
-552.398	-200.000	0.007	0.073
-551.383	69.479	-0.305	-0.315
-550.369	-29.119	-0.227	-0.131
-549.354	17.185	-0.199	-0.158
-548.339	-152.213	-0.231	0.017
-547.325	18.695	-0.103	-0.082
-546.310	-82.863	0.070	0.023
-545.296	16.224	0.148	0.117
-544.281	-200.000	-0.012	-0.236
-543.266	41.992	0.110	0.100
-542.252	-200.000	-0.005	-0.116
-541.237	496.467	0.151	-0.349
-540.223	-139.557	0.240	0.026
-539.208	-74.820	-0.106	-0.038
-538.193	-1.366	-0.241	0.171
-537.179	-11.543	0.088	0.058
-536.164	-58.914	-0.146	-0.063
-535.150	170.945	0.083	0.120
-534.135	-165.030	0.328	-0.015
-533.121	-61.013	0.223	0.094
-532.106	-69.745	0.124	0.047
-531.091	417.404	0.100	-0.214
-530.077	0.521	-0.348	0.249
-529.062	-200.000	0.000	-0.173
-528.048	141.449	-0.142	0.188
-527.033	-200.000	-0.011	-0.173
-526.018	-200.000	0.016	-0.163
-525.004	-192.838	-0.232	0.002
-523.989	133.868	0.084	0.109
-522.975	-89.293	0.482	-0.142
-521.960	-96.408	0.190	-0.050
-520.945	-107.252	-0.274	-0.060
-519.931	-0.364	-0.098	0.070
-518.916	151.442	-0.168	-0.229
-517.902	800.000	-0.098	-0.278
-516.887	491.537	0.132	-0.302
-515.872	-120.249	-0.302	0.052
-514.858	437.987	-0.125	-0.272
-513.843	-148.332	0.205	0.017
-512.829	-121.989	0.107	0.018
-511.814	289.292	0.100	-0.182
-510.799	-200.000	0.022	-0.187
-509.785	90.314	-0.063	0.071
-508.770	800.000	0.081	0.271
-507.756	-62.842	0.050	0.021
-506.741	-44.144	0.233	-0.117
-505.726	-15.281	-0.121	-0.077
-504.712	-128.134	-0.540	0.077
-503.697	269.425	0.151	0.265
-502.683	-150.242	-0.084	-0.006
-501.668	-200.000	-0.085	-0.429
-500.653	46.829	-0.164	0.152
-499.639	-200.000	-0.008	-0.085
-498.624	18.832	-0.081	-0.065
-497.610	-200.000	-0.014	0.077
-496.595	800.000	0.017	0.062
-495.581	148.305	0.154	-0.208
-494.566	149.118	-0.098	-0.133
-493.551	491.264	0.100	0.229
-492.537	-75.158	0.104	-0.037
-491.522	-200.000	0.059	0.271
-490.508	-200.000	-0.006	-0.242
-489.493	196.104	0.033	0.050
-488.478	800.000	-0.038	0.130
-487.464	45.372	0.191	-0.176
-486.449	544.122	-0.056	-0.133
-485.435	-69.724	0.112	-0.043
-484.420	312.502	-0.117	-0.220
-483.405	125.931	-0.179	-0.226
-482.391	-123.448	-0.386	-0.061
-481.376	71.819	0.042	0.043
-480.362	-200.000	0.012	0.117
-479.347	-123.730	0.218	0.035
-478.332	-200.000	0.009	0.047
-477.318	66.319	-0.153	-0.155
-476.303	-152.482	0.235	0.017
-475.289	236.150	-0.115	-0.189
-474.274	87.382	-0.056	0.062
-473.259	-36.700	0.105	-0.056
-472.245	-184.691	-0.100	-0.002
-471.230	-95.538	0.219	-0.059
-470.216	-78.234	-0.211	-0.072
-469.201	-15.395	-0.240	-0.153
-468.186	-66.611	0.137	0.054
-467.172	800.000	-0.017	-0.059
-466.157	-119.480	-0.111	0.019
-465.143	-200.000	0.003	-0.016
-464.128	348.552	0.172	-0.340
-463.113	-200.000	-0.028	-0.143
-462.099	-155.194	0.068	-0.004
-461.084	246.473	0.076	-0.128
-460.070	104.351	0.095	0.111
-459.055	-0.480	0.293	0.208
-458.040	-200.000	0.016	0.069
-457.026	-31.292	0.049	-0.028
-456.011	-65.883	0.094	-0.038
-454.997	304.718	0.134	0.248
-453.982	688.536	-0.069	-0.179
-452.968	55.067	-0.178	-0.172
-451.953	729.436	0.067	-0.178
-450.938	-130.766	0.238	0.032
-449.924	-200.000	0.003	-0.537
-448.909	-51.512	-0.232	0.108
-447.895	-200.000	-0.002	0.178
-446.880	800.000	-0.066	-0.252
-445.865	-46.277	-0.256	-0.125
-444.851	263.947	-0.030	-0.052
-443.836	-38.433	0.248	-0.131
-442.822	-114.122	-0.203	0.039
-441.807	800.000	-0.093	0.293
-440.792	70.309	-0.118	-0.122
-439.778	-75.782	-0.298	0.105
-438.763	303.363	-0.051	0.094
-437.749	20.883	-0.199	-0.161
-436.734	800.000	0.055	0.154
-435.719	28.573	0.181	-0.153
-434.705	-119.649	0.019	0.003
-433.690	-185.002	0.367	-0.006
-432.676	16.653	-0.098	-0.077
-431.661	-70.253	0.112	0.043
-430.646	800.000	-0.022	0.086
-429.632	132.155	-0.158	-0.204
-428.617	-200.000	-0.014	0.183
-427.603	344.800	0.093	-0.182
-426.588	800.000	0.081	0.226
-425.573	-200.000	0.013	0.093
-424.559	-200.000	-0.009	0.169
-423.544	117.692	-0.104	-0.128
-422.530	156.262	0.144	0.198
-421.515	-17.957	-0.296	0.185
-420.500	-51.449	-0.346	0.161
-419.486	-119.218	-0.200	-0.035
-418.471	415.723	-0.264	-0.561
-417.457	-108.217	-0.390	-0.084
-416.442	176.924	0.077	0.112
-415.428	-15.927	0.350	-0.222
-414.413	82.608	-0.143	0.155
-413.398	800.000	0.131	0.413
-412.384	-137.945	0.145	-0.016
-411.369	-200.000	-0.018	0.154
-410.355	84.617	0.081	0.089
-409.340	-51.764	0.285	-0.133
-408.325	82.893	-0.087	0.094
-407.311	-22.726	-0.122	-0.073
-406.296	160.875	0.182	-0.253
-405.282	-97.304	0.138	0.036
-404.267	-200.000	-0.022	-0.409
-403.252	-26.329	-0.077	-0.045
-402.238	-72.104	0.108	-0.040
-401.223	16.971	-0.069	0.054
-400.209	800.000	0.048	-0.184
-399.194	77.995	-0.101	0.107
-398.179	201.546	-0.072	-0.111
-397.165	-108.558	-0.148	0.032
-396.150	800.000	0.061	0.214
-395.136	544.744	0.114	0.272
-394.121	182.790	0.148	0.218
-393.106	-34.013	-0.273	-0.150
-392.092	-28.112	-0.374	0.216
-391.077	-200.000	0.041	0.275
-390.063	-105.309	-0.187	-0.043
-389.048	-39.733	-0.106	0.055
-388.033	583.302	-0.083	0.203
-387.019	800.000	-0.040	0.142
-386.004	800.000	-0.031	0.106
-384.990	186.052	-0.045	0.066
-383.975	-69.073	0.173	-0.066
-382.960	-9.923	0.048	0.032
-381.946	800.000	0.089	0.357
-380.931	-117.138	-0.558	0.101
-379.917	135.555	-0.080	-0.104
-378.902	-139.728	-0.321	-0.034
-377.888	214.039	0.131	0.207
-376.873	800.000	-0.053	0.213
-375.858	201.974	-0.213	-0.328
-374.844	-54.873	0.256	0.115
-373.829	9.006	0.215	-0.162
-372.815	217.249	0.072	-0.114
-371.800	-200.000	0.013	-0.231
-370.785	-200.000	-0.006	-0.137
-369.771	-30.860	-0.479	0.269
-368.756	800.000	-0.072	-0.214
-367.742	-93.976	-0.303	0.083
-366.727	-52.017	0.363	-0.168
-365.712	-84.267	-0.302	0.095
-364.698	-200.000	0.006	-0.151
-363.683	-162.534	-0.208	0.010
-362.669	-200.000	-0.014	0.180
-361.654	-130.309	0.394	-0.053
-360.639	-6.256	0.070	0.048
-359.625	-51.381	0.126	-0.059
-358.610	5.511	-0.196	-0.144
-357.596	727.922	0.104	-0.276
-356.581	222.672	0.182	0.292
-355.566	698.296	-0.072	-0.187
-354.552	32.369	0.110	-0.095
-353.537	174.359	-0.077	0.111
-352.523	-146.532	0.271	-0.023
-351.508	800.000	0.067	-0.261
-350.493	-149.762	-0.279	-0.022
-349.479	188.839	-0.078	-0.116
-348.464	800.000	-0.068	0.260
-347.450	425.327	-0.076	0.163
-346.435	-51.505	-0.205	0.095
-345.420	-26.257	-0.296	0.173
-344.406	800.000	0.036	0.149
-343.391	236.615	0.105	-0.172
-342.377	-135.742	0.138	-0.016
-341.362	69.508	-0.167	-0.171
-340.348	-97.871	0.248	-0.064
-339.333	800.000	0.133	0.378
-338.318	44.650	0.080	0.073
-337.304	96.621	-0.191	0.218
-336.289	81.140	0.089	0.095
-335.275	152.296	0.164	0.223
-334.260	185.517	0.134	-0.198
-333.245	472.982	0.066	-0.149
-332.231	122.177	0.098	0.122
-331.216	134.760	0.287	-0.371
-330.202	-80.671	-0.181	0.060
-329.187	-26.589	0.189	-0.110
-328.172	-6.774	-0.157	0.106
-327.158	161.554	-0.068	-0.094
-326.143	111.272	-0.104	0.125
-325.129	800.000	-0.030	0.107
-324.114	-15.289	-0.025	0.016
-323.099	-6.358	-0.289	0.196
-322.085	97.172	-0.159	-0.182
-321.070	58.735	-0.193	-0.189
-320.056	-132.540	-0.085	0.011
-319.041	-23.650	0.120	0.072
-318.026	800.000	-0.101	0.434
-317.012	-200.000	0.006	-0.181
-315.997	42.653	0.092	0.083
-314.983	-160.475	0.501	0.027
-313.968	800.000	0.087	0.243
-312.953	111.049	-0.065	0.078
-311.939	83.690	-0.213	0.231
-310.924	-117.135	-0.353	-0.064
-309.910	-200.000	0.008	0.399
-308.895	-200.000	-0.001	0.125
-307.880	-106.734	0.190	0.042
-306.866	78.016	0.166	-0.175
-305.851	-53.542	0.340	-0.155
-304.837	-58.689	0.156	0.067
-303.822	-189.225	-0.066	0.001
-302.807	35.922	-0.055	-0.048
-301.793	381.098	-0.040	0.081
-300.778	83.355	0.189	-0.205
-299.764	134.977	0.068	0.087
-298.749	-132.381	-0.065	0.008
-297.735	800.000	-0.050	-0.139
-296.720	-38.387	-0.243	0.128
-295.705	800.000	0.040	0.166
-294.691	447.444	0.138	-0.302
-293.676	-69.077	0.115	0.044
-292.662	800.000	0.047	0.174
-291.647	77.574	-0.141	0.149
-290.632	154.464	0.190	-0.259
-289.618	800.000	-0.067	0.237
-288.603	67.407	-0.072	0.073
-287.589	800.000	-0.047	0.172
-286.574	-200.000	0.015	0.220
-285.559	559.290	0.068	-0.162
-284.545	69.726	-0.184	-0.188
-283.530	103.800	-0.152	0.177
-282.516	-108.135	0.148	-0.032
-281.501	419.562	0.022	0.047
-280.486	38.654	-0.051	-0.045
-279.472	-161.128	-0.332	-0.017
-278.457	-76.915	-0.247	0.086
-277.443	-200.000	0.051	0.265
-276.428	285.843	0.014	0.026
-275.413	153.466	0.173	0.235
-274.399	363.435	0.114	0.227
-273.384	-144.630	-0.217	-0.020
-272.370	147.057	-0.085	0.113
-271.355	-30.487	0.109	-0.061
-270.340	800.000	-0.021	0.057
-269.326	264.860	-0.128	-0.222
-268.311	170.871	-0.254	0.361
-267.297	152.188	0.098	-0.133
-266.282	-200.000	0.051	-0.349
-265.267	10.832	-0.283	0.214
-264.253	-165.156	0.483	0.021
-263.238	-121.028	-0.110	0.018
-262.224	800.000	0.042	0.158
-261.209	343.623	0.104	-0.201
-260.195	-93.854	-0.073	-0.020
-259.180	-158.989	-0.121	-0.007
-258.165	-200.000	-0.021	0.127
-257.151	-67.235	-0.222	0.086
-256.136	800.000	-0.106	0.419
-255.122	-24.292	-0.236	-0.140
-254.107	-51.687	0.123	0.057
-253.092	27.149	0.172	-0.143
-252.078	137.316	-0.093	0.120
-251.063	-200.000	0.066	0.315
-250.049	-103.871	-0.349	0.081
-249.034	199.931	-0.078	-0.118
-248.019	67.543	-0.088	-0.089
-247.005	-177.777	-0.166	-0.004
-245.990	-62.683	0.291	-0.120
-244.976	85.667	0.139	0.151
-243.961	-79.397	0.204	-0.069
-242.946	-200.000	0.038	0.394
-241.932	256.346	-0.180	-0.306
-240.917	-143.802	0.484	0.045
-239.903	743.020	0.084	0.223
-238.888	138.244	-0.212	-0.275
-237.873	314.671	0.032	0.061
-236.859	800.000	-0.082	0.228
-235.844	610.597	0.045	0.111
-234.830	0.937	-0.217	-0.154
-233.815	47.943	0.115	-0.107
-232.800	-36.442	-0.252	0.135
-231.786	-161.959	0.192	0.010
-230.771	-126.734	-0.077	-0.011
-229.757	800.000	0.020	-0.071
-228.742	-118.363	0.516	-0.091
-227.727	278.852	-0.198	-0.350
-226.713	-58.644	-0.156	0.067
-225.698	-73.668	-0.426	0.154
-224.684	80.793	0.271	0.289
-223.669	800.000	-0.088	0.328
-222.655	-41.602	0.215	0.109
-221.640	-17.443	-0.149	-0.093
-220.625	-200.000	-0.189	0.001
-219.611	361.904	-0.055	-0.110
-218.596	51.562	0.247	-0.232
-217.582	166.403	0.163	0.229
-216.567	-127.557	-0.056	-0.008
-215.552	-168.052	0.194	-0.007
-214.538	-200.000	-0.038	-0.174
-213.523	402.424	-0.085	0.177
-212.509	-106.711	0.302	-0.066
-211.494	-23.821	-0.204	0.121
-210.479	193.942	-0.053	-0.080
-209.465	474.101	0.099	0.220
-208.450	-63.299	-0.190	0.077
-207.436	800.000	0.055	0.186
-206.421	87.424	-0.180	0.197
-205.406	-200.000	0.009	-0.284
-204.392	776.687	-0.039	-0.106
-203.377	-200.000	-0.042	0.363
-202.363	-200.000	0.027	-0.131
-201.348	283.479	-0.141	0.250
-200.333	-145.304	0.252	-0.023
-199.319	-50.945	0.240	-0.111
-198.304	-18.217	0.107	0.066
-197.290	-104.774	0.286	-0.065
-196.275	-57.958	0.236	0.102
-195.260	-38.141	-0.128	-0.067
-194.246	34.066	0.125	-0.108
-193.231	-121.362	0.177	0.029
-192.217	142.916	-0.269	0.353
-191.202	335.050	-0.147	-0.281
-190.187	-200.000	-0.003	0.144
-189.173	-200.000	-0.025	0.116
-188.158	800.000	0.056	0.226
-187.144	410.591	0.145	0.304
-186.129	-14.879	0.142	-0.090
-185.114	-200.000	0.001	0.051
-184.100	800.000	0.135	-0.373
-183.085	800.000	0.021	0.060
-182.071	169.484	0.163	0.230
-181.056	320.158	0.167	0.313
-180.042	-69.328	-0.291	0.111
-179.027	175.487	-0.116	0.167
-178.012	-145.298	0.176	-0.016
-176.998	207.504	-0.142	0.219
-175.983	-76.542	-0.088	0.030
-174.969	756.749	-0.081	-0.215
-173.954	23.897	-0.075	-0.061
-172.939	-11.483	0.023	-0.015
-171.925	-77.775	0.128	-0.044
-170.910	800.000	0.050	0.157
-169.896	-85.867	-0.388	0.119
-168.881	20.258	-0.116	0.092
-167.866	354.017	0.077	-0.152
-166.852	-200.000	0.044	-0.310
-165.837	-143.469	-0.044	0.004
-164.823	-127.838	0.179	0.025
-163.808	-27.616	0.191	-0.110
-162.793	-200.000	-0.098	-0.471
-161.779	-6.259	-0.200	0.135
-160.764	-110.593	-0.316	-0.065
-159.750	-128.849	-0.332	-0.046
-158.735	-116.002	0.348	0.064
-157.720	-200.000	0.017	-0.334
-156.706	-200.000	-0.069	-0.378
-155.691	42.258	0.077	-0.069
-154.677	-200.000	0.012	-0.453
-153.662	91.275	0.109	-0.121
-152.647	-145.703	0.185	0.016
-151.633	-200.000	-0.031	-0.297
-150.618	-76.708	-0.267	-0.092
-149.604	-200.000	0.040	0.188
-148.589	54.944	-0.117	-0.112
-147.574	735.849	0.055	-0.145
-146.560	-83.484	0.061	0.019
-145.545	246.574	-0.142	0.236
-144.531	231.257	-0.076	0.124
-143.516	-81.191	0.085	0.028
-142.502	800.000	0.060	-0.177
-141.487	800.000	0.098	-0.287
-140.472	107.976	-0.138	-0.163
-139.458	-32.674	0.138	0.076
-138.443	-200.000	-0.031	-0.219
-137.429	54.866	-0.274	0.261
-136.414	-109.212	0.109	0.023
-135.399	74.452	-0.142	-0.147
-134.385	369.676	-0.134	-0.268
-133.370	10.746	0.172	0.129
-132.356	800.000	0.083	-0.300
-131.341	-40.786	0.202	-0.103
-130.326	-31.132	0.073	0.040
-129.312	-129.268	0.218	0.030
-128.297	301.586	-0.149	0.271
-127.283	-11.510	-0.132	0.085
-126.268	800.000	-0.076	0.299
-125.253	-178.099	0.192	0.004
-124.239	-200.000	-0.063	-0.348
-123.224	-200.000	0.018	0.285
-122.210	-176.405	0.184	0.005
-121.195	-35.419	0.202	-0.108
-120.180	-200.000	-0.039	-0.329
-119.166	-55.253	-0.147	0.065
-118.151	301.975	-0.158	-0.288
-117.137	110.849	-0.024	0.029
-116.122	-28.036	-0.283	-0.161
-115.107	116.903	0.413	-0.500
-114.093	382.962	-0.103	0.209
-113.078	90.417	0.073	-0.080
-112.064	-200.000	0.032	-0.208
-111.049	-200.000	-0.015	-0.194
-110.034	33.934	0.274	-0.235
-109.020	13.685	-0.123	-0.094
-108.005	-132.857	-0.375	0.047
-106.991	96.792	0.136	0.153
-105.976	-189.895	0.169	0.002
-104.962	-200.000	-0.049	0.508
-103.947	800.000	0.122	0.372
-102.932	-200.000	-0.008	-0.301
-101.918	-122.059	0.228	0.037
-100.903	-182.166	-0.082	0.002
-99.889	-31.399	0.183	-0.101
-98.874	32.536	0.161	0.137
-97.859	495.048	-0.041	0.093
-96.845	560.916	-0.054	0.129
-95.830	84.879	0.094	0.102
-94.816	28.248	0.098	0.082
-93.801	800.000	-0.090	0.328
-92.786	-200.000	0.010	0.101
-91.772	54.590	-0.058	0.055
-90.757	29.673	-0.161	0.135
-89.743	228.863	-0.132	0.212
-88.728	-166.305	-0.262	0.011
-87.713	-33.726	0.099	-0.054
-86.699	105.142	-0.096	-0.112
-85.684	-99.764	0.117	0.029
-84.670	30.521	0.195	-0.164
-83.655	-51.003	-0.330	-0.153
-82.640	-50.378	0.104	0.048
-81.626	-116.528	-0.198	-0.036
-80.611	-75.449	-0.280	0.098
-79.597	800.000	0.031	-0.113
-78.582	223.542	0.167	0.265
-77.567	-35.324	-0.374	-0.200
-76.553	140.455	0.183	0.238
-75.538	-112.842	-0.108	-0.021
-74.524	-200.000	0.007	0.169
-73.509	800.000	0.127	-0.397
-72.494	-61.234	-0.145	-0.060
-71.480	-12.327	-0.029	0.019
-70.465	-200.000	0.014	-0.090
-69.451	210.280	0.131	-0.202
-68.436	-131.598	-0.198	-0.026
-67.422	-115.872	-0.047	-0.009
-66.407	-200.000	0.013	-0.204
-65.392	86.471	0.058	-0.063
-64.378	-105.828	0.110	-0.024
-63.363	26.254	0.255	0.209
-62.349	483.099	-0.099	0.221
-61.334	65.295	-0.887	-0.882
-60.319	-12.464	0.584	0.375
-59.305	-200.000	-0.187	-0.882
-58.290	588.350	0.448	1.085
-57.276	559.379	0.710	1.685
-56.261	-200.000	95.807	586.494
-55.246	530.185	1385.854	3219.284
-54.232	160.395	2558.918	3509.679
-53.217	111.990	2167.411	2574.309
-52.203	43.555	1713.690	1540.724
-51.188	36.237	1525.147	1321.267
-50.173	33.785	1498.200	1281.350
-49.159	53.229	1546.352	1456.190
-48.144	55.030	1564.051	1485.138
-47.130	36.413	1524.386	1321.603
-46.115	33.331	1509.953	1288.106
-45.100	33.093	1506.399	1283.410
-44.086	33.053	1504.256	1281.261
-43.071	33.010	1502.748	1279.636
-42.057	33.117	1500.845	1278.686
-41.042	33.016	1499.765	1277.037
-40.027	33.050	1497.683	1275.444
-39.013	33.036	1496.147	1273.989
-37.998	32.981	1494.942	1272.541
-36.984	33.010	1493.965	1271.852
-35.969	33.151	1492.310	1271.343
-34.954	33.188	1490.675	1270.147
-33.940	32.995	1489.894	1268.139
-32.925	33.041	1488.728	1267.403
-31.911	33.142	1487.019	1266.576
-30.896	33.113	1485.845	1265.327
-29.881	33.206	1483.633	1264.019
-28.867	33.034	1483.002	1262.282
-27.852	33.133	1481.611	1261.708
-26.838	33.073	1480.623	1260.416
-25.823	33.072	1478.943	1258.926
-24.809	33.140	1477.022	1257.698
-23.794	33.101	1475.359	1255.969
-22.779	32.982	1474.522	1254.420
-21.765	33.149	1473.386	1254.512
-20.750	33.143	1472.556	1253.717
-19.736	33.010	1471.535	1251.910
-18.721	33.074	1470.414	1251.335
-17.706	33.114	1469.240	1250.547
-16.692	33.027	1467.799	1248.699
-15.677	33.084	1467.469	1248.746
-14.663	33.110	1466.256	1247.837
-13.648	33.043	1465.414	1246.628
-12.633	33.019	1464.409	1245.567
-11.619	33.058	1463.169	1244.716
-10.604	33.013	1462.842	1244.094
-9.590	33.012	1461.588	1242.973
-8.575	33.111	1460.516	1242.660
-7.560	32.985	1459.954	1241.305
-6.546	32.966	1459.302	1240.575
-5.531	33.043	1458.036	1239.956
-4.517	32.928	1457.173	1238.418
-3.502	33.027	1455.538	1237.631
-2.487	33.071	1454.753	1237.199
-1.473	33.043	1453.714	1236.082
-0.458	33.045	1452.265	1234.817
0.556	31.875	1441.508	1218.782
1.571	27.026	1413.703	1164.167
2.586	21.587	1348.337	1076.883
3.600	18.740	1264.733	993.570
4.615	17.291	1219.364	949.757
5.629	15.259	1164.214	895.868
6.644	8.342	1081.527	797.718
7.659	2.238	1041.158	738.452
8.673	1.287	1035.427	729.751
9.688	1.030	1032.670	726.511
10.702	1.094	1031.733	726.096
11.717	1.069	1029.556	724.377
12.731	3.333	1031.516	736.526
13.746	10.347	1040.554	776.644
14.761	16.408	1048.200	811.479
15.775	17.786	1049.189	818.788
16.790	17.522	1047.357	816.022
17.804	16.434	1045.564	809.347
18.819	15.502	1043.871	803.504
19.834	15.144	1042.030	800.306
20.848	14.737	1040.976	797.481
21.863	14.530	1040.508	796.065
22.877	14.329	1039.393	794.184
23.892	14.026	1038.513	791.996
24.907	13.985	1038.304	791.573
25.921	13.996	1037.274	790.772
26.936	14.068	1036.726	790.625
27.950	14.084	1036.154	790.193
28.965	14.014	1035.505	789.299
29.980	14.120	1034.592	789.035
30.994	14.307	1033.307	788.869
32.009	14.228	1032.396	787.730
33.023	14.208	1032.191	787.411
34.038	14.226	1031.126	786.616
35.053	14.239	1030.112	785.832
36.067	14.267	1029.483	785.415
37.082	14.119	1028.343	783.780
38.096	14.162	1028.000	783.652
39.111	14.052	1027.319	782.542
40.126	14.181	1026.332	782.327
41.140	14.155	1024.919	781.061
42.155	14.066	1024.304	780.108
43.169	14.078	1023.313	779.338
44.184	14.036	1022.497	778.450
45.199	14.055	1020.649	777.063
46.213	13.996	1020.514	776.619
47.228	14.004	1019.654	775.930
48.242	14.060	1017.751	774.677
49.257	14.078	1017.239	774.303
50.271	14.175	1016.460	774.092
51.286	14.233	1015.321	773.426
52.301	14.232	1014.659	772.847
53.315	14.009	1014.144	771.353
54.330	14.119	1013.364	771.199
55.344	14.038	1012.509	770.106
56.359	14.113	1011.327	769.486
57.374	14.233	1010.365	769.240
58.388	14.041	1009.729	767.799
59.403	13.998	1009.154	767.097
60.417	13.987	1008.300	766.328
61.432	14.019	1007.785	766.016
62.447	14.010	1007.130	765.411
63.461	14.084	1005.747	764.632
64.476	14.074	1004.435	763.523
65.490	13.929	1004.077	762.517
66.505	13.916	1003.544	761.985
67.520	14.023	1002.635	761.715
68.534	14.013	1001.422	760.682
69.549	14.175	1001.044	761.067
70.563	14.207	1000.019	760.368
71.578	13.978	999.862	759.135
72.593	13.876	999.092	758.019
73.607	13.945	997.862	757.334
74.622	13.972	996.809	756.590
75.636	14.078	995.408	755.942
76.651	13.956	994.991	755.003
77.666	13.957	994.516	754.582
78.680	13.911	993.873	753.817
79.695	13.982	993.604	753.868
80.709	14.040	992.319	753.090
81.724	13.968	991.908	752.386
82.739	14.053	991.038	752.044
83.753	13.973	990.661	751.327
84.768	14.084	989.440	750.840
85.782	14.102	988.980	750.502
86.797	14.243	987.945	750.289
87.812	14.278	986.759	749.478
88.826	14.016	986.795	748.260
89.841	14.201	984.944	747.620
90.855	14.151	984.581	747.056
91.870	14.149	984.149	746.650
92.884	14.069	983.795	745.957
93.899	14.328	982.513	746.082
94.914	14.197	981.658	744.779
95.928	14.293	981.138	744.750
96.943	14.407	980.087	744.393
97.957	14.148	979.859	742.999
98.972	14.233	978.869	742.559
99.987	14.319	978.251	742.410
101.001	14.336	977.654	741.967
102.016	14.219	976.968	740.861
103.030	14.227	975.956	740.061
104.045	14.224	974.697	739.028
105.060	14.277	973.799	738.515
106.074	14.237	972.676	737.422
107.089	14.053	971.954	735.998
108.103	14.222	971.441	736.289
109.118	14.063	970.153	734.548
110.133	14.167	969.383	734.356
111.147	14.063	968.488	733.156
112.162	14.159	967.729	732.940
113.176	14.064	966.949	731.867
114.191	14.189	965.875	731.537
115.206	14.200	965.068	730.910
116.220	14.141	964.565	730.207
117.235	14.162	963.908	729.737
118.249	14.139	962.885	728.797
119.264	14.157	961.727	727.931
120.279	14.112	961.106	727.201
121.293	14.183	960.383	726.903
122.308	14.203	959.488	726.249
123.322	14.164	958.558	725.309
124.337	14.204	957.790	724.839
125.352	14.138	956.931	723.836
126.366	14.103	955.692	722.682
127.381	14.093	954.853	721.941
128.395	14.152	953.395	721.029
129.410	14.156	952.609	720.390
130.424	14.175	952.295	720.170
131.439	14.134	951.567	719.380
132.454	14.277	950.154	718.863
133.468	14.215	949.438	717.992
134.483	14.185	949.455	717.810
135.497	14.272	948.099	717.096
136.512	14.348	947.373	716.814
137.527	14.173	946.886	715.628
138.541	14.190	946.008	714.976
139.556	14.175	945.772	714.666
140.570	14.277	944.484	714.068
141.585	14.163	944.217	713.313
142.600	14.338	942.801	712.929
143.614	14.171	942.390	711.842
144.629	14.311	941.304	711.559
145.643	14.319	940.991	711.290
146.658	14.178	940.264	710.078
147.673	14.450	938.817	710.080
148.687	14.135	938.597	708.512
149.702	14.256	937.528	708.155
150.716	14.284	936.995	707.810
151.731	14.243	935.987	706.812
152.746	14.319	934.912	706.260
153.760	14.220	934.425	705.410
154.775	14.080	934.004	704.434
155.789	14.328	932.923	704.608
156.804	14.472	932.050	704.492
157.819	14.453	931.187	703.700
158.833	14.527	930.638	703.535
159.848	14.568	930.059	703.207
160.862	14.406	929.254	701.855
161.877	14.467	928.913	701.793
162.892	14.399	927.936	700.706
163.906	14.384	926.903	699.799
164.921	14.541	926.043	699.748
165.935	14.384	925.389	698.535
166.950	14.309	924.600	697.561
167.964	14.474	923.687	697.501
168.979	14.404	922.450	696.214
169.994	14.432	921.329	695.423
171.008	14.546	920.637	695.316
172.023	14.564	919.819	694.710
173.037	14.415	919.773	693.994
174.052	14.595	918.540	693.751
175.067	14.552	917.844	692.985
176.081	14.551	917.066	692.330
177.096	14.567	916.077	691.589
178.110	14.370	915.684	690.414
179.125	14.725	914.387	690.848
180.140	14.584	913.689	689.674
181.154	14.521	913.589	689.276
182.169	14.684	912.670	689.195
183.183	14.613	912.186	688.477
184.198	14.594	911.398	687.742
185.213	14.601	910.774	687.238
186.227	14.818	909.829	687.359
187.242	14.790	909.699	687.082
188.256	14.839	908.532	686.343
189.271	14.853	907.884	685.849
190.286	14.805	907.290	685.142
191.300	14.656	906.299	683.724
192.315	14.703	905.641	683.361
193.329	14.589	905.346	682.611
194.344	14.589	904.436	681.863
195.359	14.649	904.123	681.813
196.373	14.597	903.675	681.203
197.388	14.702	902.880	680.973
198.402	14.741	902.224	680.574
199.417	14.833	901.667	680.469
200.432	14.920	901.406	680.569
201.446	14.908	900.886	680.064
202.461	14.986	900.621	680.122
203.475	14.989	899.952	679.566
204.490	15.112	899.347	679.550
205.504	14.891	898.436	677.905
206.519	14.837	898.248	677.485
207.534	15.021	896.945	677.189
208.548	15.001	896.441	676.665
209.563	14.915	895.597	675.623
210.577	14.938	894.945	675.162
211.592	15.070	894.426	675.244
212.607	15.126	893.971	675.067
213.621	15.200	893.342	674.830
214.636	15.036	892.638	673.579
215.650	15.130	892.004	673.420
216.665	15.003	891.723	672.638
217.680	15.179	890.723	672.529
218.694	15.202	890.598	672.468
219.709	15.280	890.115	672.358
220.723	15.319	889.050	671.648
221.738	15.089	888.754	670.446
222.753	15.134	887.748	669.805
223.767	15.435	887.002	670.385
224.782	15.333	886.331	669.414
225.796	15.321	885.579	668.740
226.811	15.286	884.942	668.060
227.826	15.287	884.436	667.620
228.840	15.205	883.679	666.665
229.855	15.310	883.248	666.697
230.869	15.212	882.517	665.698
231.884	15.314	881.765	665.479
232.899	15.319	880.899	664.783
233.913	15.366	880.040	664.265
234.928	15.373	879.462	663.797
235.942	15.153	879.191	662.664
236.957	15.260	878.111	662.211
237.972	15.366	877.611	662.193
238.986	15.269	876.928	661.240
240.001	15.375	876.143	661.005
241.015	15.394	875.574	660.595
242.030	15.506	874.538	660.193
243.045	15.406	874.133	659.435
244.059	15.427	873.866	659.260
245.074	15.450	873.198	658.788
246.088	15.517	872.132	658.186
247.103	15.547	871.740	657.951
248.117	15.489	871.463	657.457
249.132	15.605	870.738	657.306
250.147	15.611	870.086	656.779
251.161	15.710	869.411	656.595
252.176	15.605	869.184	655.958
253.190	15.716	868.313	655.675
254.205	15.702	868.052	655.365
255.220	15.692	867.157	654.592
256.234	15.921	865.836	654.427
257.249	15.675	865.858	653.430
258.263	15.809	865.341	653.504
259.278	15.898	864.642	653.262
260.293	15.809	864.326	652.621
261.307	15.831	863.823	652.267
262.322	15.930	863.265	652.173
263.336	16.034	862.270	651.764
264.351	15.946	861.663	650.910
265.366	16.110	860.805	650.835
266.380	16.013	860.401	650.099
267.395	15.978	859.684	649.364
268.409	16.048	858.641	648.789
269.424	15.952	858.477	648.237
270.439	15.940	857.418	647.335
271.453	15.885	856.914	646.685
272.468	15.896	856.209	646.141
273.482	15.997	855.645	646.042
274.497	15.869	855.377	645.295
275.512	16.071	854.197	645.119
276.526	16.011	853.660	644.426
277.541	16.026	852.942	643.887
278.555	16.163	852.277	643.850
279.570	16.135	851.967	643.450
280.585	16.213	851.220	643.126
281.599	16.285	850.548	642.837
282.614	16.257	850.169	642.388
283.628	16.222	849.703	641.845
284.643	16.199	849.326	641.415
285.657	16.207	848.701	640.916
286.672	16.281	847.998	640.610
287.687	16.312	847.662	640.418
288.701	16.129	847.000	639.166
289.716	16.145	846.237	638.595
290.730	16.401	845.641	639.056
291.745	16.280	845.289	638.277
292.760	16.470	844.338	638.220
293.774	16.339	843.727	637.207
294.789	16.447	843.223	637.178
295.803	16.363	843.130	636.735
296.818	16.367	842.204	635.995
297.833	16.353	841.713	635.514
298.847	16.444	840.472	634.862
299.862	16.579	840.034	634.983
300.876	16.563	839.364	634.361
301.891	16.487	838.884	633.655
302.906	16.557	838.451	633.535
303.920	16.542	837.562	632.752
304.935	16.665	836.746	632.538
305.949	16.707	836.079	632.136
306.964	16.683	835.573	631.607
307.979	16.630	835.201	631.072
308.993	16.556	835.009	630.598
310.008	16.732	833.833	630.307
311.022	16.860	833.262	630.297
312.037	16.816	832.840	629.759
313.052	16.734	832.879	629.427
314.066	16.488	832.326	628.040
315.081	16.626	831.394	627.792
316.095	16.671	830.615	627.314
317.110	16.677	830.168	626.946
318.125	16.630	829.999	626.587
319.139	16.768	829.151	626.402
320.154	16.730	828.870	625.995
321.168	16.739	828.251	625.505
322.183	16.743	827.697	625.044
323.197	16.731	827.521	624.814
324.212	16.778	827.013	624.547
325.227	16.695	826.039	623.452
326.241	16.759	825.824	623.469
327.256	16.749	824.982	622.741
328.270	16.782	824.335	622.321
329.285	16.800	824.160	622.200
330.300	16.854	823.620	621.934
331.314	16.788	822.844	621.050
332.329	16.797	822.165	620.515
333.343	16.867	821.589	620.282
334.358	16.981	821.315	620.439
335.373	17.027	820.388	619.851
336.387	16.916	819.752	618.911
337.402	17.055	819.593	619.243
338.416	17.122	818.713	618.766
339.431	17.032	818.414	618.159
340.446	17.160	817.477	617.862
341.460	17.096	817.282	617.429
342.475	17.151	816.470	616.957
343.489	17.365	815.656	617.065
344.504	17.329	815.335	616.637
345.519	17.237	815.187	616.138
346.533	17.193	814.817	615.643
347.548	17.223	814.573	615.513
348.562	17.199	813.543	614.596
349.577	17.179	813.163	614.181
350.592	17.233	812.467	613.795
351.606	17.231	812.026	613.399
352.621	17.331	811.461	613.279
353.635	17.147	811.253	612.406
354.650	17.304	811.145	612.836
355.665	17.394	810.512	612.626
356.679	17.156	810.341	611.589
357.694	17.165	809.476	610.913
358.708	17.369	808.798	611.080
359.723	17.404	808.090	610.618
360.738	17.452	807.485	610.277
361.752	17.447	807.132	609.940
362.767	17.516	806.522	609.671
363.781	17.474	806.159	609.193
364.796	17.294	806.429	608.698
365.810	17.573	805.240	608.744
366.825	17.598	805.199	608.750
367.840	17.409	805.201	608.021
368.854	17.654	804.412	608.247
369.869	17.592	803.993	607.654
370.883	17.686	803.443	607.521
371.898	17.585	802.720	606.557
372.913	17.575	802.289	606.144
373.927	17.687	801.504	605.896
374.942	17.719	801.035	605.601
375.956	17.605	800.386	604.654
376.971	17.712	799.961	604.658
377.986	17.738	799.190	604.114
379.000	17.845	798.878	604.201
380.015	17.888	798.186	603.779
381.029	17.846	797.816	603.297
382.044	17.865	797.329	602.943
383.059	17.754	797.103	602.326
384.073	17.847	796.276	601.975
385.088	17.832	795.348	601.167
386.102	17.854	795.249	601.116
387.117	17.726	794.799	600.273
388.132	17.738	794.483	600.022
389.146	17.984	793.702	600.245
390.161	17.714	793.991	599.461
391.175	17.916	793.310	599.602
392.190	17.793	792.760	598.705
393.205	17.942	792.300	598.825
394.219	18.026	791.837	598.718
395.234	17.844	791.477	597.754
396.248	17.878	791.199	597.611
397.263	17.828	790.516	596.866
398.278	17.909	789.566	596.379
399.292	17.988	789.263	596.373
400.307	17.909	789.115	595.933
401.321	17.871	788.682	595.420
402.336	18.044	788.098	595.532
403.350	18.003	787.821	595.127
404.365	17.995	787.709	594.959
405.380	18.022	787.155	594.585
406.394	18.096	786.473	594.272
407.409	18.060	785.894	593.659
408.423	18.162	785.771	593.867
409.438	18.204	785.101	593.453
410.453	18.180	784.433	592.811
411.467	18.040	784.544	592.360
412.482	18.153	783.910	592.220
413.496	18.323	783.368	592.344
414.511	18.377	783.016	592.214
415.526	18.313	782.494	591.545
416.540	18.416	781.774	591.304
417.555	18.318	782.150	591.198
418.569	18.439	781.298	590.918
419.584	18.428	780.528	590.246
420.599	18.276	780.527	589.670
421.613	109.964	1287.344	1461.682
422.628	94.195	1361.161	1461.784
