DTS Sentinel unit serial number:	SN413079Multiplexer serial number:	ORYXHardware model number:	OX4-SRSoftware version number:	ORYX F/W v4.00 Oryx Data Collector v3.7.2.0data status	okinstallation	princeton_trtdifferential loss correction	single-endedforward channel	channel 3reverse channel	N/Adate	2019/09/12time	19:31:04forward acquisition time	15.00reverse acquisition time	0.00gamma	496.2192k internal	0.2322k external	0.2322temperature offset calibration	1.0107default loss term (dB/km)	0.3790temperature slope calibration	1.0000multiplexer offset coefficient	1.0000multiplexer slope coefficient	1.0000fibre end	0.00T internal ref (°C)	32.25T ext. ref 1 (°C)	3.24T ext. ref 2 (°C)	26.74length (m)	temperature (°C)	Stokes	anti-Stokes-747.200	-200.000	-0.011	-0.155
-746.185	687.700	0.282	0.744
-745.171	-110.882	0.793	0.165
-744.156	-43.105	0.512	0.262
-743.142	-38.826	-0.580	-0.309
-742.127	-130.270	-0.290	-0.040
-741.112	-74.441	0.372	0.135
-740.098	12.079	-0.175	0.136
-739.083	-200.000	-0.074	-0.428
-738.069	-49.975	-0.543	0.260
-737.054	214.263	0.679	1.085
-736.039	-183.694	-0.184	0.003
-735.025	166.324	0.136	0.194
-734.010	-200.000	0.005	0.051
-732.996	29.830	0.250	0.215
-731.981	39.342	-0.166	0.150
-730.966	-17.778	0.592	-0.375
-729.952	404.494	0.432	-0.919
-728.937	800.000	-0.169	-0.543
-727.923	800.000	0.041	0.157
-726.908	-67.824	-0.299	-0.118
-725.894	-59.924	-0.214	0.093
-724.879	429.951	-0.422	0.922
-723.864	783.341	-0.244	-0.675
-722.850	800.000	-0.045	-0.164
-721.835	-200.000	0.024	0.152
-720.821	-127.908	0.924	0.134
-719.806	344.727	-0.399	-0.790
-718.791	-64.516	-0.738	-0.303
-717.777	501.355	-0.009	0.021
-716.762	105.719	-0.420	0.501
-715.748	426.912	0.026	-0.056
-714.733	-200.000	0.157	0.916
-713.718	-200.000	0.074	0.401
-712.704	222.361	0.264	0.428
-711.689	39.304	-0.395	-0.357
-710.675	-200.000	-0.012	-0.144
-709.660	415.595	-0.210	0.451
-708.645	-136.188	0.596	0.070
-707.631	-46.688	0.279	-0.138
-706.616	260.351	-0.476	-0.830
-705.602	-61.135	0.527	-0.224
-704.587	22.771	0.032	0.026
-703.572	-200.000	-0.122	0.677
-702.558	-36.626	-0.641	-0.347
-701.543	-56.327	0.483	0.217
-700.529	568.513	-0.292	0.715
-699.514	144.827	0.345	-0.466
-698.499	218.180	-0.148	-0.238
-697.485	-67.282	0.298	0.118
-696.470	-200.000	0.139	-0.672
-695.456	214.742	-0.028	-0.046
-694.441	-101.623	-0.653	0.160
-693.426	155.653	-0.184	-0.256
-692.412	-200.000	0.129	-1.017
-691.397	277.449	0.295	-0.530
-690.383	-73.581	0.546	-0.201
-689.368	-69.132	-0.255	-0.099
-688.354	-83.638	0.885	0.285
-687.339	57.642	-0.154	0.152
-686.324	-44.102	1.277	-0.647
-685.310	-99.066	0.617	-0.158
-684.295	79.084	0.520	-0.561
-683.281	-200.000	-0.042	-0.875
-682.266	-105.748	0.369	0.084
-681.251	281.472	0.127	-0.230
-680.237	161.442	0.488	-0.687
-679.222	-200.000	0.198	-0.895
-678.208	-200.000	-0.017	0.956
-677.193	96.998	0.332	0.384
-676.178	-114.597	-0.705	0.136
-675.164	500.358	0.022	-0.050
-674.149	-153.412	0.606	-0.042
-673.135	368.724	-0.273	-0.556
-672.120	30.795	0.738	-0.637
-671.105	-44.391	-0.754	-0.380
-670.091	-123.496	-0.157	0.025
-669.076	-23.279	0.557	-0.338
-668.062	-59.718	0.331	0.143
-667.047	70.903	0.600	-0.626
-666.032	238.193	0.162	-0.271
-665.018	-200.000	-0.044	0.256
-664.003	-7.950	0.065	-0.044
-662.989	-200.000	-0.222	-1.525
-661.974	-51.089	-0.361	0.170
-660.959	55.458	-0.685	-0.668
-659.945	180.805	0.195	-0.288
-658.930	315.841	0.070	0.132
-657.916	-72.016	0.094	0.035
-656.901	-122.684	-0.359	0.059
-655.886	-17.006	0.365	-0.232
-654.872	-116.781	0.618	-0.114
-653.857	-158.146	-0.700	-0.041
-652.843	660.539	-0.352	-0.913
-651.828	250.477	0.089	0.152
-650.814	-200.000	0.016	0.114
-649.799	48.788	0.458	0.433
-648.784	126.311	0.409	-0.521
-647.770	-127.907	-0.828	-0.120
-646.755	-40.007	0.252	0.132
-645.741	-108.256	-0.965	0.210
-644.726	741.388	-0.194	-0.523
-643.711	178.573	0.473	0.695
-642.697	141.207	0.333	-0.444
-641.682	-52.440	-0.446	-0.207
-640.668	-97.248	-0.475	0.125
-639.653	-45.088	-0.447	0.224
-638.638	-67.448	0.355	-0.140
-637.624	-200.000	0.014	-0.495
-636.609	-125.189	0.321	0.049
-635.595	-100.289	-0.228	0.057
-634.580	0.559	0.642	0.461
-633.565	-200.000	-0.115	-0.660
-632.551	800.000	0.060	-0.241
-631.536	800.000	-0.164	0.518
-630.522	-200.000	-0.044	-0.687
-629.507	-42.480	0.480	0.246
-628.492	102.395	0.317	-0.373
-627.478	262.539	0.188	-0.328
-626.463	-200.000	0.000	0.407
-625.449	52.457	0.226	-0.217
-624.434	-200.000	-0.036	-0.624
-623.419	144.091	0.115	-0.154
-622.405	-200.000	-0.148	1.015
-621.390	800.000	0.107	0.311
-620.376	301.533	-0.053	-0.099
-619.361	-38.053	-0.095	0.051
-618.346	-126.432	0.504	0.075
-617.332	140.710	-0.503	-0.668
-616.317	159.220	0.204	0.286
-615.303	-144.293	-0.286	-0.027
-614.288	-157.334	0.699	-0.042
-613.273	-56.804	-0.769	-0.342
-612.259	-149.093	0.443	-0.036
-611.244	-154.062	0.143	-0.010
-610.230	-116.989	0.633	-0.116
-609.215	-109.700	-0.248	-0.052
-608.201	-79.922	-0.404	-0.136
-607.186	-89.605	-0.698	0.206
-606.171	-17.886	-0.241	-0.152
-605.157	-63.799	0.126	-0.052
-604.142	-143.306	0.409	-0.039
-603.128	79.023	-0.251	0.270
-602.113	-76.230	-0.264	-0.094
-601.098	-85.569	0.602	0.188
-600.084	454.877	-0.071	0.157
-599.069	251.256	-0.434	-0.742
-598.055	292.762	-0.192	-0.352
-597.040	34.508	0.233	-0.204
-596.025	169.954	0.446	0.641
-595.011	-146.841	0.726	0.063
-593.996	-200.000	-0.141	0.720
-592.982	91.877	-0.430	-0.486
-591.967	200.962	-0.514	-0.795
-590.952	-69.416	-0.706	0.272
-589.938	800.000	-0.045	-0.138
-588.923	577.876	0.279	-0.685
-587.909	686.476	0.303	-0.796
-586.894	60.578	-0.463	-0.461
-585.879	-200.000	-0.002	0.181
-584.865	289.352	-0.400	-0.728
-583.850	210.108	-0.337	0.531
-582.836	147.485	-0.288	0.389
-581.821	-3.798	0.662	-0.462
-580.806	135.312	-0.395	0.516
-579.792	-200.000	0.047	0.795
-578.777	160.912	-0.283	-0.397
-577.763	-200.000	0.106	-0.691
-576.748	370.837	0.122	-0.249
-575.733	-61.188	0.284	0.120
-574.719	250.705	0.171	0.291
-573.704	174.116	-0.357	0.518
-572.690	126.072	-0.273	-0.347
-571.675	-141.864	-1.039	-0.104
-570.661	174.385	-0.029	-0.042
-569.646	-13.983	0.367	-0.238
-568.631	675.542	-0.290	0.756
-567.617	-69.541	0.120	0.046
-566.602	-200.000	0.071	-0.408
-565.588	187.023	-0.281	-0.421
-564.573	722.131	0.282	0.753
-563.558	-66.818	0.528	-0.210
-562.544	-200.000	0.017	0.651
-561.529	-124.322	0.097	0.015
-560.515	-200.000	-0.081	1.018
-559.500	-200.000	-0.033	-0.639
-558.485	-127.838	0.393	0.057
-557.471	220.707	0.207	-0.333
-556.456	-153.968	0.216	-0.015
-555.442	458.892	0.115	-0.257
-554.427	800.000	-0.140	-0.465
-553.412	6.533	0.416	0.310
-552.398	-2.551	0.415	-0.291
-551.383	-1.175	-0.227	-0.161
-550.369	-200.000	-0.078	0.699
-549.354	263.887	-0.277	-0.482
-548.339	-18.385	-0.783	-0.490
-547.325	-200.000	-0.029	0.311
-546.310	289.774	-0.266	0.484
-545.296	-200.000	0.049	-0.462
-544.281	800.000	0.085	0.338
-543.266	-75.842	-0.371	0.132
-542.252	-27.065	-0.195	0.114
-541.237	-195.407	-0.155	-0.001
-540.223	-91.969	-0.276	-0.078
-539.208	119.321	-0.671	0.832
-538.193	800.000	0.225	-0.663
-537.179	302.149	0.245	-0.454
-536.164	-31.311	0.491	0.277
-535.150	50.131	0.205	-0.194
-534.135	-121.509	0.251	-0.042
-533.121	-54.964	-0.263	0.119
-532.106	-200.000	-0.016	-0.275
-531.091	800.000	0.067	-0.281
-530.077	-158.803	-0.336	-0.019
-529.062	112.890	-0.322	-0.391
-528.048	-64.084	0.803	-0.328
-527.033	135.109	-0.232	0.302
-526.018	-92.648	-0.749	0.210
-525.004	16.587	-0.361	0.286
-523.989	-17.843	0.802	-0.504
-522.975	-44.622	-1.062	0.531
-521.960	171.655	0.058	-0.084
-520.945	358.893	0.326	-0.653
-519.931	-200.000	-0.048	-0.301
-518.916	-200.000	0.016	0.834
-517.902	513.722	-0.207	-0.483
-516.887	207.148	-0.573	0.894
-515.872	-65.074	-0.210	-0.085
-514.858	-200.000	-0.111	-0.760
-513.843	52.702	-0.641	0.614
-512.829	362.723	0.188	0.377
-511.814	-66.999	0.484	0.191
-510.799	-200.000	0.009	0.048
-509.785	94.988	-0.746	0.851
-508.770	507.067	-0.448	-1.039
-507.756	-200.000	-0.034	0.283
-506.741	-34.680	-0.031	0.017
-505.726	-200.000	0.020	-0.687
-504.712	517.470	-0.251	-0.588
-503.697	-45.895	-0.352	0.174
-502.683	-137.569	-1.171	0.132
-501.668	-200.000	-0.005	0.455
-500.653	-101.113	0.329	0.081
-499.639	-155.119	0.087	-0.006
-498.624	-120.875	0.337	-0.057
-497.610	-22.294	0.530	0.322
-496.595	249.588	0.264	0.448
-495.581	-89.777	-0.315	0.092
-494.566	-64.394	-0.739	0.301
-493.551	-119.131	0.861	0.150
-492.537	-182.419	0.368	-0.007
-491.522	-200.000	-0.122	0.554
-490.508	544.963	0.298	-0.712
-489.493	51.358	-0.411	0.391
-488.478	107.702	-0.207	0.247
-487.464	-32.957	0.122	0.068
-486.449	7.858	-0.186	-0.139
-485.435	296.048	-0.381	-0.698
-484.420	-69.915	-0.571	-0.218
-483.405	-30.280	-0.380	0.216
-482.391	-200.000	0.044	-0.746
-481.376	-70.094	-0.257	-0.098
-480.362	-64.950	-0.238	-0.096
-479.347	-200.000	-0.006	0.602
-478.332	185.844	-0.206	-0.307
-477.318	-200.000	0.074	0.623
-476.303	-200.000	-0.182	1.217
-475.289	-200.000	-0.132	0.713
-474.274	-200.000	-0.001	0.109
-473.259	28.313	0.273	-0.231
-472.245	-38.431	0.359	-0.190
-471.230	86.618	-0.252	0.278
-470.216	-8.747	-0.247	0.166
-469.201	-73.056	-0.341	0.125
-468.186	-71.214	0.149	0.056
-467.172	127.738	-0.180	0.229
-466.157	53.922	0.313	0.300
-465.143	-83.819	-0.547	0.174
-464.128	-47.243	0.439	-0.214
-463.113	-200.000	-0.064	0.825
-462.099	-200.000	0.005	-0.633
-461.084	217.853	0.098	-0.157
-460.070	180.822	-0.623	0.913
-459.055	15.620	0.528	-0.415
-458.040	-30.421	0.838	0.475
-457.026	-200.000	-0.104	0.523
-456.011	17.162	0.458	-0.363
-454.997	510.717	-0.104	0.241
-453.982	-33.155	0.319	-0.177
-452.968	-120.396	0.551	0.094
-451.953	771.455	0.240	-0.654
-450.938	185.150	-0.590	-0.875
-449.924	-100.003	0.378	-0.094
-448.909	135.055	0.069	0.090
-447.895	-91.220	-0.462	-0.132
-446.880	-200.000	-0.074	-0.580
-445.865	-200.000	0.627	0.001
-444.851	128.882	-0.212	-0.269
-443.836	-38.864	-0.974	-0.512
-442.822	-4.421	0.452	0.312
-441.807	234.105	0.153	0.252
-440.792	-145.093	-0.669	0.061
-439.778	-17.981	-0.506	-0.316
-438.763	-200.000	-0.044	-0.475
-437.749	-43.947	-0.574	-0.288
-436.734	-69.360	0.581	-0.222
-435.719	-200.000	-0.053	-0.525
-434.705	-92.198	0.490	0.138
-433.690	-200.000	-0.003	0.468
-432.676	127.381	-0.421	-0.533
-431.661	800.000	0.146	-0.596
-430.646	-200.000	0.090	-0.830
-429.632	1.381	0.460	-0.330
-428.617	-102.453	-0.683	-0.163
-427.603	206.112	-0.244	0.378
-426.588	-74.997	-0.571	0.204
-425.573	-200.000	-0.066	0.703
-424.559	-200.000	0.025	-0.477
-423.544	800.000	-0.199	-0.593
-422.530	1.617	0.649	0.466
-421.515	415.515	0.199	-0.423
-420.500	0.513	-0.071	0.051
-419.486	-200.000	-0.078	-0.526
-418.471	-71.591	0.367	0.137
-417.457	0.966	0.677	-0.484
-416.442	217.042	-0.154	0.244
-415.428	-200.000	-0.206	0.914
-414.413	128.187	-0.409	-0.519
-413.398	-200.000	-0.010	0.519
-412.384	-186.380	0.644	-0.009
-411.369	140.339	-0.352	0.463
-410.355	3.971	0.879	-0.641
-409.340	-177.471	0.715	0.017
-408.325	597.026	0.358	0.884
-407.311	10.208	0.497	0.377
-406.296	-17.492	-0.769	-0.483
-405.282	97.826	0.763	0.875
-404.267	-20.446	-0.194	0.119
-403.252	-200.000	-0.022	-0.192
-402.238	-128.936	0.441	-0.062
-401.223	800.000	0.251	-0.757
-400.209	-0.969	-0.213	-0.150
-399.194	229.199	0.313	-0.509
-398.179	2.391	-0.976	-0.704
-397.165	142.915	0.421	-0.558
-396.150	-200.000	-0.011	-0.237
-395.136	141.233	0.154	-0.203
-394.121	24.658	-0.161	-0.133
-393.106	214.335	0.436	0.688
-392.092	30.365	0.713	-0.607
-391.077	-55.137	0.595	0.267
-390.063	-175.659	-0.263	0.007
-389.048	425.486	-0.116	-0.249
-388.033	211.696	0.293	-0.459
-387.019	188.351	0.391	-0.582
-386.004	-200.000	-0.030	0.754
-384.990	-144.508	0.847	0.078
-383.975	20.972	0.766	-0.619
-382.960	58.222	-0.419	-0.409
-381.946	1.694	0.279	0.200
-380.931	-89.250	0.433	0.127
-379.917	-25.571	0.250	-0.147
-378.902	800.000	0.190	0.769
-377.888	-32.583	0.249	0.138
-376.873	85.869	-0.260	-0.285
-375.858	-200.000	0.038	-0.593
-374.844	800.000	-0.088	-0.295
-373.829	-172.701	-0.084	0.003
-372.815	-75.422	-0.244	0.087
-371.800	-72.689	0.695	-0.255
-370.785	-147.347	-1.515	-0.128
-369.771	-43.864	-0.490	0.246
-368.756	-11.465	0.488	0.320
-367.742	800.000	0.067	0.205
-366.727	-98.596	-0.588	0.149
-365.712	321.177	-0.241	0.457
-364.698	-136.737	-0.729	-0.084
-363.683	318.086	0.046	-0.087
-362.669	-189.455	-0.178	0.002
-361.654	-34.266	0.793	0.433
-360.639	230.062	-0.101	-0.164
-359.625	81.355	-0.103	0.110
-358.610	-200.000	-0.061	0.271
-357.596	30.426	0.239	-0.203
-356.581	-200.000	-0.070	-0.312
-355.566	229.049	0.250	0.405
-354.552	-200.000	-0.069	0.673
-353.537	15.218	0.190	-0.148
-352.523	-200.000	-0.107	-0.617
-351.508	94.429	-0.124	0.141
-350.493	680.984	-0.052	0.136
-349.479	11.762	0.466	0.356
-348.464	-200.000	-0.071	0.403
-347.450	-75.566	-0.439	-0.155
-346.435	-78.636	-0.766	0.261
-345.420	-200.000	-0.013	-0.093
-344.406	-111.361	0.518	-0.105
-343.391	-156.676	-0.150	-0.009
-342.377	276.505	-0.094	-0.166
-341.362	26.044	1.057	-0.877
-340.348	467.523	-0.286	0.638
-339.333	-152.588	0.405	0.029
-338.318	161.526	0.128	-0.178
-337.304	-16.068	1.134	0.717
-336.289	800.000	-0.230	-0.698
-335.275	98.428	-0.252	-0.289
-334.260	-200.000	0.022	-0.465
-333.245	-67.387	-0.622	0.243
-332.231	237.781	-0.574	0.947
-331.216	-200.000	-0.025	0.568
-330.202	549.773	0.182	-0.434
-329.187	-200.000	0.118	-0.562
-328.172	800.000	-0.226	0.909
-327.158	-0.765	0.518	0.365
-326.143	679.044	-0.033	-0.086
-325.129	194.968	0.464	0.701
-324.114	-85.006	0.766	0.238
-323.099	-115.365	1.166	-0.219
-322.085	-200.000	0.060	-0.643
-321.070	-200.000	0.087	-0.656
-320.056	-93.946	-0.294	-0.080
-319.041	615.392	0.129	-0.322
-318.026	-102.785	-0.550	-0.130
-317.012	-57.655	-0.438	0.191
-315.997	-13.703	-0.439	-0.282
-314.983	-116.859	-0.203	0.037
-313.968	691.833	-0.096	-0.249
-312.953	227.924	-0.255	0.412
-311.939	-61.370	-0.867	0.362
-310.924	87.658	0.110	-0.121
-309.910	-157.395	-0.401	-0.024
-308.895	-123.407	0.540	0.085
-307.880	22.234	0.540	-0.438
-306.866	-200.000	-0.044	-0.588
-305.851	293.356	-0.531	-0.962
-304.837	16.954	-0.977	-0.768
-303.822	19.713	0.538	0.430
-302.807	125.782	0.640	0.803
-301.793	-115.392	0.145	0.027
-300.778	98.325	-0.486	0.556
-299.764	-105.976	0.727	-0.162
-298.749	-15.113	0.314	-0.199
-297.735	6.071	-0.397	0.292
-296.720	-200.000	0.070	0.412
-295.705	35.625	0.354	0.309
-294.691	52.169	0.384	-0.363
-293.676	-116.579	-0.498	0.091
-292.662	-200.000	0.050	-0.281
-291.647	680.864	0.292	0.754
-290.632	-200.000	-0.005	0.138
-289.618	800.000	0.012	-0.050
-288.603	204.082	-0.095	0.147
-287.589	-23.461	-0.459	0.274
-286.574	-166.271	0.234	-0.010
-285.559	-200.000	-0.003	-0.818
-284.545	253.987	0.534	0.905
-283.530	461.752	-0.274	0.606
-282.516	8.972	-0.494	0.370
-281.501	-14.001	0.093	0.060
-280.486	103.772	-0.188	-0.219
-279.472	74.183	0.259	-0.269
-278.457	-29.093	0.381	0.217
-277.443	450.435	0.178	-0.390
-276.428	112.529	0.309	0.371
-275.413	184.885	0.433	0.637
-274.399	800.000	0.088	-0.349
-273.384	-18.395	-0.078	-0.048
-272.370	89.296	-0.445	-0.492
-271.355	-93.895	-0.094	-0.026
-270.340	45.935	-0.246	0.226
-269.326	800.000	0.149	-0.512
-268.311	226.160	-0.033	-0.053
-267.297	-200.000	0.075	0.414
-266.282	12.102	-0.275	-0.210
-265.267	682.708	-0.281	0.728
-264.253	62.308	0.355	-0.351
-263.238	213.165	-0.372	0.583
-262.224	-75.150	0.654	-0.232
-261.209	110.240	-0.278	0.331
-260.195	-130.401	0.701	-0.094
-259.180	53.002	-0.354	0.336
-258.165	-106.409	0.818	0.181
-257.151	45.180	0.339	-0.310
-256.136	-200.000	-0.008	0.134
-255.122	-200.000	-0.064	0.464
-254.107	-30.246	0.267	-0.150
-253.092	-55.101	-0.273	-0.122
-252.078	-200.000	-0.009	-0.233
-251.063	-46.625	-0.869	0.422
-250.049	-114.609	-0.505	0.096
-249.034	-116.982	0.706	-0.128
-248.019	800.000	-0.082	-0.255
-247.005	-200.000	0.014	0.109
-245.990	-165.964	0.203	0.009
-244.976	223.277	0.326	0.521
-243.961	-101.701	0.597	0.143
-242.946	49.041	-0.210	-0.195
-241.932	-77.738	-0.226	0.077
-240.917	24.308	-0.326	-0.267
-239.903	800.000	-0.217	-0.714
-238.888	-28.157	-0.635	-0.364
-237.873	-200.000	-0.036	-0.594
-236.859	642.793	0.094	-0.239
-235.844	-200.000	0.023	0.201
-234.830	61.500	0.330	0.325
-233.815	-10.227	0.416	-0.274
-232.800	-200.000	-0.013	0.487
-231.786	-148.922	0.496	0.040
-230.771	800.000	0.155	0.459
-229.757	19.605	-0.319	-0.254
-228.742	40.281	0.496	-0.442
-227.727	42.463	-0.245	0.221
-226.713	-200.000	0.007	0.267
-225.698	745.506	0.374	0.995
-224.684	-12.329	-0.431	-0.279
-223.669	40.532	-0.757	-0.675
-222.655	106.427	0.388	0.455
-221.640	-156.993	-0.803	-0.049
-220.625	-71.254	-0.342	0.127
-219.611	-72.532	0.503	-0.184
-218.596	-31.923	0.180	-0.100
-217.582	-157.992	-0.515	0.030
-216.567	224.277	-0.205	0.328
-215.552	527.210	-0.203	0.474
-214.538	-73.767	-0.284	0.102
-213.523	-200.000	0.148	0.661
-212.509	-152.864	0.260	-0.018
-211.494	107.165	0.322	0.379
-210.479	96.616	0.134	0.152
-209.465	142.456	0.481	0.632
-208.450	-200.000	-0.051	0.356
-207.436	800.000	-0.179	-0.734
-206.421	-90.073	0.494	0.142
-205.406	103.951	0.221	-0.257
-204.392	83.909	-0.273	0.295
-203.377	-200.000	-0.094	-0.949
-202.363	62.144	0.247	-0.243
-201.348	-200.000	-0.011	-0.354
-200.333	-168.288	0.490	0.019
-199.319	459.639	0.108	-0.237
-198.304	-114.730	0.283	-0.053
-197.290	-71.371	-0.336	0.124
-196.275	-168.324	0.564	0.021
-195.260	282.985	0.318	-0.565
-194.246	444.528	0.361	-0.784
-193.231	778.427	0.293	-0.792
-192.217	-24.937	0.671	-0.393
-191.202	-200.000	-0.052	-0.340
-190.187	739.669	0.320	-0.851
-189.173	-52.617	-0.403	-0.184
-188.158	-47.706	0.256	0.123
-187.144	194.006	0.251	0.376
-186.129	707.589	0.222	-0.580
-185.114	-39.772	0.909	-0.470
-184.100	794.996	0.167	0.454
-183.085	-154.065	-0.568	0.038
-182.071	690.690	-0.283	-0.731
-181.056	-169.564	-0.315	-0.011
-180.042	800.000	-0.281	0.812
-179.027	-25.494	-0.057	-0.034
-178.012	-101.754	-0.970	0.232
-176.998	158.547	0.243	0.334
-175.983	102.563	-0.775	0.896
-174.969	-68.538	-0.512	0.196
-173.954	45.768	0.409	0.374
-172.939	800.000	0.027	-0.087
-171.925	-188.063	-0.416	0.005
-170.910	8.982	-0.321	-0.239
-169.896	800.000	-0.017	0.069
-168.881	271.964	-0.284	0.495
-167.866	800.000	0.206	0.639
-166.852	511.999	-0.062	0.142
-165.837	297.996	-0.312	-0.567
-164.823	-200.000	-0.063	0.713
-163.808	-36.076	0.789	-0.421
-162.793	-80.539	-0.250	0.082
-161.779	40.585	-0.516	0.459
-160.764	-112.232	0.246	-0.049
-159.750	47.523	0.121	0.111
-158.735	2.803	-0.537	0.385
-157.720	-32.812	0.277	0.152
-156.706	218.403	0.080	0.125
-155.691	-200.000	-0.153	0.933
-154.677	304.916	-0.251	0.460
-153.662	-147.040	0.242	-0.020
-152.647	-200.000	-0.109	0.689
-151.633	-100.141	-0.086	-0.021
-150.618	-11.848	-0.285	-0.185
-149.604	-24.974	-0.233	0.137
-148.589	158.509	-0.278	-0.381
-147.574	138.247	-0.530	0.686
-146.560	-200.000	0.005	-0.199
-145.545	-4.639	-0.801	-0.546
-144.531	-83.492	1.071	0.339
-143.516	129.059	-0.429	-0.541
-142.502	800.000	-0.125	0.433
-141.487	-200.000	0.052	-0.455
-140.472	1.547	0.204	0.145
-139.458	-29.122	-0.543	0.307
-138.443	392.911	0.237	-0.487
-137.429	-94.922	0.720	-0.192
-136.414	800.000	-0.213	-0.782
-135.399	-186.688	0.643	0.009
-134.385	800.000	0.290	0.935
-133.370	800.000	-0.290	0.804
-132.356	-79.032	-1.048	0.351
-131.341	-187.001	-0.420	0.006
-130.326	800.000	0.262	-0.901
-129.312	-145.560	-0.308	0.027
-128.297	-200.000	0.052	0.425
-127.283	133.037	-0.175	-0.223
-126.268	-20.468	-0.428	0.260
-125.253	70.538	0.348	-0.355
-124.239	-21.748	-0.193	-0.116
-123.224	-77.497	0.160	0.055
-122.210	172.292	0.328	0.465
-121.195	-22.666	-0.993	-0.592
-120.180	-72.726	-0.552	0.201
-119.166	-200.000	-0.012	-0.911
-118.151	-27.604	-0.219	-0.126
-117.137	22.898	0.582	0.470
-116.122	-106.988	0.598	0.130
-115.107	53.381	0.595	0.563
-114.093	16.576	-0.269	0.210
-113.078	-18.611	0.217	-0.133
-112.064	-169.254	0.264	0.010
-111.049	-200.000	-0.009	0.166
-110.034	-200.000	0.117	0.727
-109.020	-23.466	-0.501	0.296
-108.005	-58.187	-0.327	0.140
-106.991	-12.309	-0.389	-0.250
-105.976	-101.571	0.613	-0.147
-104.962	-145.289	0.578	-0.051
-103.947	-195.353	0.337	-0.002
-102.932	-78.876	0.679	0.228
-101.918	160.243	-0.259	-0.356
-100.903	90.485	-0.120	-0.133
-99.889	-90.073	0.389	-0.112
-98.874	83.744	-0.282	0.303
-97.859	48.530	-0.191	0.177
-96.845	88.741	-0.411	0.450
-95.830	404.187	-0.075	0.155
-94.816	-147.666	-0.506	0.042
-93.801	3.152	-0.332	0.238
-92.786	-129.192	0.476	-0.065
-91.772	-53.639	0.568	0.256
-90.757	-109.537	-0.170	0.035
-89.743	65.454	0.308	0.307
-88.728	121.086	0.350	-0.429
-87.713	-200.000	-0.050	0.382
-86.699	235.264	-0.508	-0.827
-85.684	41.814	-0.183	0.163
-84.670	69.871	-0.452	-0.459
-83.655	67.693	0.473	0.476
-82.640	141.926	-0.226	0.294
-81.626	166.545	-0.206	0.287
-80.611	-14.554	-0.139	-0.088
-79.597	41.049	0.414	-0.368
-78.582	548.947	-0.283	-0.667
-77.567	407.694	0.159	-0.331
-76.553	358.719	-0.268	-0.528
-75.538	-200.000	-0.051	0.425
-74.524	257.053	-0.015	0.025
-73.509	-194.050	0.331	-0.003
-72.494	-136.215	0.805	0.093
-71.480	-119.287	0.560	-0.096
-70.465	800.000	0.087	-0.294
-69.451	-113.021	-0.448	-0.087
-68.436	74.257	0.207	0.214
-67.422	-178.843	0.319	-0.007
-66.407	53.284	-0.651	-0.614
-65.392	800.000	0.087	-0.355
-64.378	55.749	0.430	0.410
-63.363	-200.000	0.335	0.001
-62.349	-31.217	-0.516	0.286
-61.334	800.000	-0.306	-0.992
-60.319	-200.000	-0.089	0.963
-59.305	-200.000	0.042	-0.770
-58.290	-200.000	0.178	1.854
-57.276	154.970	0.889	1.202
-56.261	-200.000	96.054	594.396
-55.246	672.059	1354.197	3451.900
-54.232	204.342	2519.128	3839.540
-53.217	118.471	2138.188	2594.744
-52.203	42.868	1691.176	1515.555
-51.188	35.386	1507.001	1299.991
-50.173	33.099	1479.728	1261.180
-49.159	52.922	1531.816	1440.668
-48.144	53.720	1549.115	1462.305
-47.130	35.704	1507.685	1302.532
-46.115	32.360	1493.158	1267.446
-45.100	32.182	1490.716	1264.121
-44.086	32.149	1488.311	1261.812
-43.071	32.309	1486.303	1261.130
-42.057	32.202	1484.138	1258.531
-41.042	32.366	1482.637	1258.304
-40.027	32.127	1482.358	1256.416
-39.013	32.334	1479.792	1255.575
-37.998	32.203	1478.487	1253.548
-36.984	32.222	1476.812	1252.200
-35.969	32.426	1475.575	1252.463
-34.954	32.486	1474.780	1252.139
-33.940	32.171	1474.771	1249.981
-32.925	32.315	1471.953	1248.502
-31.911	32.227	1470.753	1246.850
-30.896	32.193	1469.096	1245.172
-29.881	32.346	1468.637	1245.745
-28.867	32.327	1467.555	1244.651
-27.852	32.296	1466.120	1243.178
-26.838	32.164	1464.587	1240.961
-25.823	32.381	1463.339	1241.284
-24.809	32.275	1461.552	1239.024
-23.794	32.239	1458.776	1236.383
-22.779	32.415	1458.160	1236.969
-21.765	32.251	1457.577	1235.347
-20.750	32.266	1455.886	1233.964
-19.736	32.195	1455.493	1233.113
-18.721	32.189	1454.532	1232.211
-17.706	32.367	1452.683	1231.764
-16.692	32.202	1451.238	1229.411
-15.677	31.972	1450.661	1227.370
-14.663	32.383	1449.140	1228.714
-13.648	32.387	1448.010	1227.735
-12.633	32.192	1448.084	1226.476
-11.619	32.314	1446.743	1226.091
-10.604	32.475	1445.444	1225.988
-9.590	32.131	1445.365	1223.634
-8.575	32.002	1445.355	1222.732
-7.560	32.001	1443.329	1220.965
-6.546	32.142	1443.389	1221.881
-5.531	32.252	1441.121	1220.634
-4.517	32.115	1440.144	1218.866
-3.502	32.191	1438.252	1217.709
-2.487	32.326	1439.053	1219.216
-1.473	32.224	1437.910	1217.535
-0.458	32.583	1434.705	1217.097
0.556	33.489	1425.922	1204.411
1.571	30.227	1402.381	1163.992
2.586	26.590	1342.253	1092.097
3.600	24.888	1262.503	1017.453
4.615	23.672	1216.636	973.740
5.629	20.076	1161.537	910.694
6.644	11.286	1076.196	800.720
7.659	4.558	1036.236	739.016
8.673	3.364	1031.065	729.609
9.688	3.272	1026.552	725.918
10.702	3.081	1025.452	724.179
11.717	3.243	1023.674	723.622
12.731	6.167	1026.981	739.665
13.746	15.272	1039.175	791.551
14.761	22.655	1047.977	833.205
15.775	24.497	1049.182	842.794
16.790	24.338	1049.131	841.927
17.804	23.633	1048.742	838.212
18.819	23.618	1046.952	836.638
19.834	23.047	1046.425	833.454
20.848	23.735	1045.140	835.591
21.863	23.570	1045.888	835.342
22.877	23.387	1045.128	833.799
23.892	23.287	1043.839	832.225
24.907	23.443	1042.920	832.151
25.921	23.415	1042.059	831.262
26.936	22.918	1042.490	829.196
27.950	22.896	1041.546	828.269
28.965	23.138	1039.620	827.796
29.980	23.494	1037.959	828.067
30.994	23.117	1038.449	826.623
32.009	23.554	1036.164	826.767
33.023	23.215	1036.088	825.053
34.038	23.149	1035.197	823.962
35.053	23.234	1034.443	823.688
36.067	23.263	1032.308	822.048
37.082	23.095	1032.382	821.253
38.096	22.927	1031.099	819.383
39.111	23.322	1031.152	821.182
40.126	23.606	1030.232	821.692
41.140	23.254	1029.054	819.050
42.155	23.192	1027.313	817.307
43.169	22.716	1026.755	814.594
44.184	22.581	1025.755	813.104
45.199	22.456	1025.888	812.564
46.213	22.764	1023.015	811.632
47.228	22.536	1021.928	809.650
48.242	23.285	1022.463	813.444
49.257	23.379	1021.948	813.396
50.271	23.408	1021.355	812.984
51.286	23.408	1020.829	812.491
52.301	23.784	1019.869	813.380
53.315	23.532	1019.891	812.169
54.330	23.109	1018.835	809.321
55.344	23.125	1017.266	808.078
56.359	23.237	1016.262	807.720
57.374	23.225	1015.515	806.998
58.388	23.066	1014.695	805.551
59.403	22.846	1014.760	804.529
60.417	22.677	1013.451	802.651
61.432	22.736	1012.504	802.098
62.447	22.754	1012.314	801.959
63.461	22.229	1013.344	800.318
64.476	22.640	1011.196	800.416
65.490	22.456	1010.153	798.681
66.505	22.384	1009.263	797.582
67.520	22.571	1006.940	796.522
68.534	22.627	1007.565	797.198
69.549	22.587	1006.877	796.404
70.563	22.527	1005.741	795.163
71.578	22.325	1005.151	793.717
72.593	21.936	1003.618	790.684
73.607	22.074	1001.950	789.919
74.622	21.935	1001.323	788.731
75.636	22.328	999.247	788.787
76.651	22.523	998.899	789.316
77.666	22.261	998.661	787.887
78.680	22.073	999.264	787.450
79.695	22.244	998.198	787.304
80.709	22.022	998.186	786.231
81.724	22.366	996.687	786.517
82.739	22.412	996.718	786.677
83.753	22.432	995.377	785.640
84.768	22.952	995.649	788.105
85.782	23.467	994.870	789.712
86.797	23.757	995.201	791.199
87.812	24.054	993.634	791.201
88.826	23.589	992.528	788.187
89.841	23.606	991.815	787.629
90.855	23.576	991.371	787.074
91.870	23.823	989.977	786.988
92.884	23.685	989.783	786.156
93.899	23.676	989.122	785.521
94.914	23.589	987.509	783.787
95.928	23.825	986.600	784.036
96.943	23.550	986.509	782.680
97.957	23.407	986.210	781.746
98.972	23.550	984.245	780.745
99.987	23.187	984.062	778.936
101.001	23.421	983.521	779.468
102.016	23.421	982.735	778.777
103.030	23.206	981.750	776.981
104.045	23.501	980.500	777.217
105.060	23.405	979.408	775.861
106.074	23.508	979.305	776.163
107.089	23.564	977.768	775.119
108.103	23.241	977.646	773.544
109.118	23.212	976.178	772.189
110.133	22.879	975.003	769.737
111.147	22.521	973.058	766.578
112.162	22.519	972.157	765.792
113.176	22.350	972.193	765.016
114.191	22.630	971.492	765.613
115.206	22.730	970.823	765.452
116.220	22.655	968.970	763.599
117.235	22.323	968.652	761.843
118.249	22.410	967.477	761.229
119.264	22.432	966.549	760.526
120.279	22.385	965.396	759.348
121.293	22.367	965.860	759.568
122.308	22.214	964.372	757.670
123.322	22.170	962.926	756.281
124.337	22.128	961.921	755.244
125.352	21.832	961.100	753.261
126.366	22.103	960.282	753.716
127.381	21.907	959.890	752.502
128.395	22.145	959.489	753.141
129.410	22.329	958.105	752.775
130.424	22.449	957.994	753.134
131.439	22.645	956.737	752.916
132.454	22.759	955.865	752.651
133.468	22.893	955.063	752.522
134.483	22.578	954.966	751.037
135.497	22.766	953.571	750.676
136.512	22.858	953.105	750.633
137.527	23.000	952.344	750.569
138.541	22.784	951.465	748.892
139.556	22.738	950.431	747.818
140.570	23.081	949.127	748.176
141.585	22.972	950.220	748.512
142.600	23.668	949.561	750.869
143.614	23.583	948.010	749.217
144.629	23.770	946.807	748.991
145.643	24.000	946.780	749.871
146.658	23.916	945.923	748.774
147.673	23.468	945.172	746.226
148.687	23.556	943.804	745.451
149.702	23.240	942.999	743.423
150.716	23.019	942.341	741.911
151.731	23.131	940.082	740.534
152.746	22.935	940.395	739.896
153.760	23.457	940.157	741.830
154.775	23.574	938.607	741.029
155.789	23.249	938.395	739.438
156.804	23.373	937.283	739.013
157.819	23.357	936.381	738.171
158.833	23.651	935.325	738.495
159.848	23.601	935.454	738.324
160.862	24.004	934.870	739.473
161.877	23.865	933.340	737.621
162.892	23.475	932.722	735.449
163.906	23.275	931.509	733.601
164.921	22.946	930.843	731.646
165.935	22.848	929.968	730.490
166.950	22.803	929.042	729.514
167.964	22.869	928.959	729.656
168.979	23.348	927.892	730.729
169.994	23.280	926.459	729.255
171.008	23.146	925.116	727.584
172.023	22.830	924.801	725.972
173.037	23.299	923.612	726.900
174.052	23.913	923.451	729.229
175.067	23.678	921.961	727.025
176.081	23.124	921.301	724.172
177.096	22.881	919.973	722.070
178.110	22.746	919.143	720.802
179.125	22.585	918.326	719.443
180.140	22.749	917.392	719.316
181.154	22.624	917.125	718.535
182.169	23.246	916.882	720.812
183.183	23.262	917.242	721.097
184.198	23.378	916.570	720.978
185.213	23.233	916.054	719.917
186.227	23.259	914.997	719.129
187.242	23.122	914.957	718.479
188.256	23.486	914.323	719.395
189.271	23.506	913.420	718.700
190.286	23.574	912.890	718.492
191.300	23.608	911.263	717.288
192.315	22.765	910.645	713.332
193.329	22.669	909.353	711.868
194.344	22.373	908.023	709.572
195.359	22.827	908.513	711.720
196.373	22.775	908.246	711.241
197.388	23.322	908.344	713.456
198.402	23.605	907.380	713.777
199.417	23.659	908.046	714.454
200.432	23.915	906.688	714.351
201.446	23.607	907.035	713.323
202.461	23.859	906.279	713.676
203.475	24.097	906.466	714.717
204.490	23.679	905.395	712.134
205.504	23.493	902.457	709.014
206.519	23.289	902.705	708.334
207.534	23.469	900.997	707.647
208.548	23.476	901.384	707.916
209.563	23.372	900.940	707.090
210.577	23.922	899.292	707.924
211.592	23.098	899.452	704.705
212.607	23.556	899.745	706.697
213.621	23.984	898.715	707.528
214.636	23.590	898.525	705.749
215.650	23.634	897.169	704.798
216.665	23.464	897.801	704.558
217.680	23.396	896.361	703.095
218.694	23.897	895.046	703.985
219.709	23.645	895.345	703.159
220.723	23.552	893.971	701.650
221.738	23.642	892.718	700.959
222.753	23.477	892.333	699.945
223.767	23.445	891.960	699.465
224.782	23.524	891.588	699.420
225.796	23.872	890.474	699.856
226.811	23.883	890.482	699.842
227.826	23.564	890.666	698.671
228.840	23.069	888.816	695.212
229.855	23.073	887.955	694.493
230.869	23.575	886.986	695.643
231.884	23.685	885.842	695.114
232.899	23.016	887.111	693.423
233.913	23.321	886.391	693.995
234.928	23.110	885.140	692.129
235.942	22.755	884.103	689.868
236.957	23.364	882.741	691.120
237.972	23.013	881.761	688.927
238.986	22.585	882.744	687.961
240.001	22.929	881.941	688.616
241.015	22.843	881.254	687.685
242.030	22.604	880.527	686.125
243.045	23.348	879.419	688.095
244.059	22.992	880.031	687.127
245.074	23.258	879.295	687.527
246.088	23.342	878.990	687.552
247.103	23.804	877.913	688.438
248.117	23.512	877.759	687.126
249.132	24.077	877.404	688.974
250.147	24.107	878.338	689.764
251.161	24.521	877.117	690.343
252.176	24.804	876.361	690.780
253.190	24.765	876.714	690.847
254.205	24.502	876.380	689.509
255.220	24.600	875.590	689.203
256.234	24.811	874.066	688.754
257.249	24.519	872.781	686.558
258.263	24.441	873.864	687.048
259.278	24.258	873.064	685.656
260.293	24.216	871.593	684.278
261.307	24.274	870.696	683.736
262.322	24.514	870.439	684.396
263.336	24.886	869.571	685.076
264.351	24.709	870.149	684.791
265.366	24.474	868.827	682.791
266.380	24.330	868.003	681.534
267.395	24.575	867.280	681.840
268.409	24.665	866.925	681.844
269.424	24.353	866.251	680.065
270.439	24.821	864.412	680.344
271.453	24.568	864.023	679.014
272.468	24.432	864.718	678.983
273.482	24.246	863.971	677.629
274.497	24.216	863.101	676.773
275.512	24.577	861.611	676.915
276.526	24.203	861.683	675.491
277.541	24.328	860.855	675.255
278.555	24.456	860.660	675.529
279.570	24.356	860.918	675.291
280.585	24.388	861.103	675.499
281.599	24.756	858.933	675.125
282.614	24.326	858.734	673.286
283.628	24.204	857.636	671.906
284.643	23.958	857.430	670.758
285.657	23.946	856.818	670.174
286.672	24.193	856.078	670.466
287.687	24.160	855.863	670.114
288.701	24.474	855.373	670.851
289.716	24.396	854.894	670.122
290.730	24.182	854.559	668.998
291.745	24.176	853.366	667.981
292.760	24.577	852.257	668.557
293.774	24.174	852.534	667.205
294.789	24.699	852.379	668.990
295.803	24.677	852.283	668.775
296.818	24.580	851.168	667.478
297.833	24.475	849.207	665.490
298.847	24.197	849.153	664.353
299.862	24.140	848.642	663.681
300.876	24.675	847.589	664.787
301.891	24.521	847.763	664.294
302.906	24.721	847.814	665.017
303.920	24.944	846.903	665.075
304.935	25.072	846.704	665.334
305.949	25.229	846.080	665.365
306.964	25.380	845.624	665.508
307.979	25.060	843.856	662.877
308.993	24.451	843.957	660.644
310.008	24.565	844.030	661.064
311.022	24.861	843.253	661.489
312.037	24.806	842.338	660.510
313.052	24.769	841.279	659.484
314.066	24.433	840.738	657.765
315.081	23.537	840.584	654.283
316.095	23.883	839.708	654.818
317.110	23.673	839.711	653.991
318.125	24.541	838.452	656.139
319.139	23.930	837.747	653.289
320.154	24.227	837.220	653.909
321.168	23.897	836.944	652.424
322.183	23.750	835.959	651.062
323.197	24.186	835.658	652.366
324.212	24.212	835.798	652.514
325.227	23.955	835.481	651.267
326.241	24.127	833.533	650.317
327.256	23.904	834.326	650.066
328.270	23.611	833.544	648.327
329.285	24.022	832.070	648.624
330.300	23.866	831.255	647.360
331.314	23.561	831.994	646.766
332.329	23.697	831.219	646.604
333.343	24.346	830.143	648.068
334.358	24.811	829.935	649.535
335.373	24.551	828.782	647.633
336.387	24.520	829.200	647.790
337.402	24.329	828.922	646.825
338.416	24.907	827.562	647.798
339.431	24.903	827.933	648.017
340.446	25.194	827.388	648.584
341.460	25.299	826.696	648.364
342.475	25.227	826.354	647.780
343.489	25.266	826.296	647.815
344.504	25.411	825.607	647.742
345.519	25.264	825.807	647.311
346.533	25.476	825.381	647.684
347.548	25.357	824.488	646.496
348.562	25.088	822.715	644.084
349.577	25.177	822.088	643.857
350.592	25.019	822.415	643.486
351.606	24.872	821.148	641.913
352.621	24.450	820.746	640.029
353.635	24.454	820.257	639.604
354.650	24.749	820.418	640.732
355.665	25.021	818.493	640.142
356.679	24.692	818.501	638.916
357.694	24.566	819.202	638.956
358.708	24.817	818.294	639.087
359.723	24.865	816.618	637.892
360.738	24.603	816.548	636.847
361.752	24.543	816.524	636.558
362.767	24.621	816.705	636.924
363.781	25.267	816.039	638.648
364.796	25.413	815.504	638.690
365.810	25.649	814.955	639.041
366.825	25.506	815.439	638.858
367.840	25.336	814.700	637.617
368.854	25.452	814.499	637.818
369.869	25.253	813.155	636.003
370.883	25.089	812.734	635.036
371.898	25.291	811.625	634.827
372.913	25.064	812.207	634.421
373.927	25.793	810.730	635.786
374.942	25.244	810.477	633.593
375.956	25.201	809.348	632.506
376.971	25.003	809.775	632.084
377.986	25.414	808.493	632.475
379.000	25.762	808.228	633.437
380.015	25.480	807.935	632.160
381.029	25.765	807.501	632.766
382.044	25.277	806.949	630.562
383.059	25.883	805.800	631.732
384.073	26.130	805.014	631.928
385.088	25.878	804.625	630.682
386.102	25.125	804.223	627.678
387.117	24.902	803.833	626.539
388.132	24.951	802.743	625.803
389.146	24.983	802.674	625.806
390.161	25.009	802.155	625.437
391.175	24.989	801.951	625.151
392.190	25.455	802.866	627.437
393.205	25.325	802.602	626.722
394.219	25.152	800.491	624.417
395.234	24.683	799.169	621.700
396.248	24.581	798.301	620.615
397.263	24.918	798.517	621.899
398.278	24.678	798.836	621.256
399.292	24.574	798.519	620.595
400.307	24.401	796.824	618.623
401.321	24.301	796.100	617.661
402.336	24.440	795.700	617.777
403.350	24.792	795.803	619.020
404.365	24.991	796.062	619.856
405.380	25.376	795.558	620.738
406.394	25.743	796.923	623.019
407.409	25.907	795.975	622.790
408.423	26.113	794.786	622.513
409.438	25.875	794.543	621.448
410.453	25.957	794.400	621.564
411.467	26.184	793.642	621.698
412.482	25.821	792.868	619.787
413.496	25.923	791.882	619.313
414.511	26.336	791.051	620.024
415.526	25.954	790.895	618.537
416.540	26.119	790.874	619.034
417.555	25.851	790.768	617.975
418.569	25.542	790.781	616.873
419.584	25.697	790.035	616.765
420.599	26.162	788.686	617.248
421.613	160.792	1369.817	1792.916
422.628	139.206	1454.490	1792.968
