DTS Sentinel unit serial number:	SN413079Multiplexer serial number:	ORYXHardware model number:	OX4-SRSoftware version number:	ORYX F/W v4.00 Oryx Data Collector v3.7.2.0data status	okinstallation	princeton_trtdifferential loss correction	single-endedforward channel	channel 3reverse channel	N/Adate	2019/09/19time	10:20:34forward acquisition time	60.00reverse acquisition time	0.00gamma	496.2192k internal	0.2342k external	0.2342temperature offset calibration	0.9982default loss term (dB/km)	0.3790temperature slope calibration	1.0000multiplexer offset coefficient	1.0000multiplexer slope coefficient	1.0000fibre end	0.00T internal ref (°C)	24.19T ext. ref 1 (°C)	0.70T ext. ref 2 (°C)	19.77length (m)	temperature (°C)	Stokes	anti-Stokes-747.200	659.637	-0.033	0.086
-746.185	61.757	-0.400	0.399
-745.171	-200.000	-0.012	0.078
-744.156	358.713	-0.199	0.398
-743.142	75.073	0.279	-0.295
-742.127	147.182	-0.040	0.053
-741.112	15.719	-0.121	-0.095
-740.098	-150.490	0.136	0.010
-739.083	-92.354	0.216	0.061
-738.069	-200.000	0.032	0.278
-737.054	300.658	-0.260	-0.481
-736.039	-57.423	-0.266	-0.117
-735.025	-200.000	-0.001	-0.244
-734.010	43.567	-0.143	-0.131
-732.996	111.159	-0.135	-0.163
-731.981	15.069	-0.234	-0.183
-730.966	-15.313	-0.147	0.094
-729.952	-200.000	0.011	-0.050
-728.937	-27.401	0.157	-0.091
-727.923	324.265	0.111	-0.212
-726.908	110.639	0.116	0.140
-725.894	345.551	-0.082	0.162
-724.879	-200.000	0.002	-0.167
-723.864	-99.058	-0.167	0.042
-722.850	2.805	-0.087	0.063
-721.835	800.000	0.033	0.106
-720.821	428.432	-0.162	-0.351
-719.806	-78.202	-0.520	-0.179
-718.791	-68.171	-0.413	-0.161
-717.777	-155.871	0.351	0.022
-716.762	-6.803	-0.033	0.023
-715.748	-97.323	-0.135	0.035
-714.733	-13.102	-0.374	0.243
-713.718	-64.378	-0.069	0.028
-712.704	-50.677	-0.338	-0.159
-711.689	-200.000	0.003	-0.392
-710.675	800.000	-0.028	0.080
-709.660	-25.300	-0.254	0.150
-708.645	275.722	0.060	0.107
-707.631	-50.398	-0.123	-0.058
-706.616	800.000	-0.024	0.069
-705.602	34.607	-0.047	0.041
-704.587	800.000	0.095	0.402
-703.572	-63.601	-0.274	0.113
-702.558	169.914	-0.119	0.170
-701.543	-73.484	0.101	-0.037
-700.529	800.000	-0.012	-0.033
-699.514	72.326	-0.391	0.407
-698.499	-128.727	0.168	0.024
-697.485	-151.688	0.190	-0.014
-696.470	40.033	-0.018	0.016
-695.456	-200.000	-0.004	-0.060
-694.441	17.694	0.102	-0.081
-693.426	299.265	-0.239	-0.440
-692.412	-38.491	0.109	0.058
-691.397	207.711	-0.127	-0.198
-690.383	562.777	0.173	-0.418
-689.368	800.000	-0.127	-0.421
-688.354	631.996	0.022	0.057
-687.339	800.000	-0.062	-0.226
-686.324	-126.942	-0.104	-0.015
-685.310	157.663	0.068	-0.094
-684.295	-121.601	-0.390	-0.065
-683.281	566.431	-0.058	-0.142
-682.266	-43.395	0.035	-0.017
-681.251	-41.635	-0.095	-0.049
-680.237	159.596	0.206	-0.286
-679.222	75.617	0.126	-0.133
-678.208	-138.203	0.284	-0.031
-677.193	361.115	0.079	0.158
-676.178	-200.000	0.013	-0.373
-675.164	800.000	0.127	0.349
-674.149	-31.854	0.214	-0.120
-673.135	91.279	-0.337	0.378
-672.120	-200.000	0.012	-0.072
-671.105	66.196	-0.411	-0.417
-670.091	-61.922	0.293	-0.122
-669.076	119.879	0.082	-0.102
-668.062	94.108	-0.166	0.188
-667.047	204.018	0.144	-0.223
-666.032	164.160	0.142	0.200
-665.018	-31.603	-0.177	0.099
-664.003	800.000	-0.033	0.126
-662.989	800.000	0.040	0.172
-661.974	-69.853	-0.144	0.055
-660.959	262.350	-0.148	-0.256
-659.945	470.309	0.111	-0.250
-658.930	321.683	0.093	-0.177
-657.916	-148.964	-0.426	-0.034
-656.901	-185.672	-0.131	-0.002
-655.886	-200.000	-0.081	-0.434
-654.872	-92.018	-0.079	-0.022
-653.857	326.832	-0.160	-0.306
-652.843	-109.902	0.253	0.053
-651.828	-200.000	-0.020	0.098
-650.814	453.658	-0.122	-0.270
-649.799	-45.989	0.038	0.019
-648.784	-200.000	-0.013	-0.193
-647.770	-200.000	-0.075	-0.398
-646.755	-125.304	0.108	-0.017
-645.741	43.953	-0.096	0.088
-644.726	-150.372	-0.175	0.013
-643.711	254.368	-0.087	0.149
-642.697	-84.840	0.309	0.097
-641.682	-31.526	0.293	0.164
-640.668	-114.562	0.316	0.060
-639.653	-29.262	-0.199	-0.113
-638.638	-141.850	-0.231	0.023
-637.624	73.310	0.179	-0.187
-636.609	-200.000	-0.002	0.202
-635.595	587.445	0.110	0.270
-634.580	-67.932	-0.261	-0.101
-633.565	-31.743	0.276	-0.155
-632.551	-105.414	-0.244	0.055
-631.536	-35.092	-0.274	0.149
-630.522	-23.842	0.074	-0.044
-629.507	-200.000	0.044	-0.357
-628.492	258.689	0.067	0.115
-627.478	96.848	0.163	0.186
-626.463	26.010	-0.076	0.063
-625.449	-72.882	-0.343	-0.126
-624.434	-200.000	-0.085	0.389
-623.419	191.795	-0.091	-0.137
-622.405	-20.529	-0.126	-0.077
-621.390	800.000	0.090	-0.387
-620.376	356.855	-0.179	-0.355
-619.361	-70.006	-0.361	-0.137
-618.346	800.000	-0.052	-0.187
-617.332	-65.345	-0.276	-0.111
-616.317	-200.000	0.027	0.336
-615.303	546.374	0.058	0.139
-614.288	-200.000	-0.027	-0.175
-613.273	104.584	0.064	-0.076
-612.259	254.381	-0.080	-0.136
-611.244	753.421	-0.084	-0.226
-610.230	-81.853	-0.337	0.110
-609.215	800.000	0.060	-0.166
-608.201	-0.481	0.111	0.078
-607.186	-21.987	0.216	0.131
-606.171	289.097	0.046	0.083
-605.157	-116.471	-0.212	-0.039
-604.142	-97.334	-0.104	-0.027
-603.128	-200.000	-0.002	0.169
-602.113	-112.798	0.089	0.018
-601.098	-200.000	0.022	0.162
-600.084	-200.000	0.002	0.239
-599.069	-116.595	-0.054	-0.010
-598.055	108.878	-0.123	0.146
-597.040	92.031	0.135	-0.152
-596.025	-200.000	0.004	-0.111
-595.011	289.394	0.107	0.193
-593.996	151.044	0.300	-0.406
-592.982	-59.526	0.122	-0.052
-591.967	126.320	0.147	-0.186
-590.952	247.911	-0.139	-0.234
-589.938	-60.544	0.094	-0.040
-588.923	4.222	-0.253	-0.185
-587.909	-8.444	-0.172	-0.115
-586.894	-200.000	-0.005	0.033
-585.879	22.493	-0.237	0.193
-584.865	163.830	-0.115	-0.161
-583.850	-58.395	0.367	-0.159
-582.836	782.230	-0.081	0.220
-581.821	-106.442	0.072	-0.016
-580.806	-140.818	-0.039	0.004
-579.792	800.000	0.028	0.081
-578.777	-149.524	-0.277	-0.022
-577.763	-200.000	-0.007	-0.125
-576.748	-113.217	-0.067	-0.013
-575.733	406.655	0.099	-0.208
-574.719	-0.477	0.100	0.071
-573.704	-200.000	0.040	0.343
-572.690	282.899	0.122	-0.218
-571.675	-145.112	0.272	0.025
-570.661	-16.159	0.039	-0.025
-569.646	644.323	-0.149	0.379
-568.631	-200.000	-0.007	0.321
-567.617	606.388	-0.062	-0.154
-566.602	-15.120	0.268	-0.171
-565.588	-74.569	-0.236	0.084
-564.573	-124.008	0.095	-0.015
-563.558	-121.149	-0.263	0.044
-562.544	-23.275	-0.150	-0.090
-561.529	-200.000	0.042	0.205
-560.515	34.497	-0.227	0.197
-559.500	-200.000	-0.006	0.184
-558.485	-8.777	0.212	0.141
-557.471	27.450	0.183	-0.153
-556.456	391.927	-0.074	0.153
-555.442	-102.869	-0.234	-0.055
-554.427	-200.000	0.016	-0.124
-553.412	800.000	0.031	-0.088
-552.398	800.000	0.134	0.441
-551.383	-34.650	-0.152	0.083
-550.369	-140.019	0.130	0.014
-549.354	344.918	-0.066	0.128
-548.339	800.000	0.128	0.370
-547.325	-106.334	-0.268	-0.060
-546.310	-69.990	0.266	-0.101
-545.296	290.063	-0.262	-0.473
-544.281	-22.311	0.185	-0.111
-543.266	-143.524	-0.067	0.006
-542.252	-136.546	-0.080	0.009
-541.237	58.753	-0.200	0.195
-540.223	56.004	0.237	0.228
-539.208	800.000	0.071	0.237
-538.193	223.605	-0.154	0.247
-537.179	-76.830	0.124	0.043
-536.164	-26.656	0.340	0.197
-535.150	-15.883	-0.340	-0.215
-534.135	-200.000	0.101	-0.708
-533.121	-5.601	-0.118	-0.081
-532.106	-200.000	0.009	0.094
-531.091	-200.000	-0.004	0.059
-530.077	496.957	0.094	0.215
-529.062	-22.045	-0.052	0.031
-528.048	-163.137	-0.111	-0.005
-527.033	19.025	-0.173	-0.138
-526.018	67.009	0.085	0.086
-525.004	-7.650	0.238	-0.160
-523.989	800.000	-0.083	0.238
-522.975	800.000	-0.049	0.160
-521.960	-32.062	0.226	-0.126
-520.945	-127.574	0.303	0.044
-519.931	-72.534	-0.129	0.047
-518.916	800.000	0.094	-0.260
-517.902	-12.282	-0.183	0.119
-516.887	-89.664	-0.135	-0.039
-515.872	-200.000	-0.003	0.114
-514.858	79.275	-0.095	0.101
-513.843	-35.713	-0.232	0.125
-512.829	28.996	0.179	0.150
-511.814	-200.000	-0.021	-0.207
-510.799	-95.297	-0.204	0.055
-509.785	416.079	0.097	0.205
-508.770	181.315	-0.125	0.182
-507.756	228.967	0.102	0.165
-506.741	-76.965	-0.128	-0.044
-505.726	800.000	0.033	-0.107
-504.712	-115.039	-0.154	-0.029
-503.697	49.388	-0.238	-0.222
-502.683	-83.145	0.423	0.135
-501.668	800.000	-0.085	0.289
-500.653	-70.697	0.180	0.067
-499.639	-60.860	-0.253	0.106
-498.624	133.741	-0.123	0.158
-497.610	-200.000	-0.008	-0.164
-496.595	-23.839	-0.103	-0.061
-495.581	-200.000	0.356	-0.000
-494.566	-113.895	0.170	-0.033
-493.551	-26.214	-0.090	0.053
-492.537	-47.472	-0.132	-0.064
-491.522	610.559	0.101	0.252
-490.508	450.770	-0.113	0.248
-489.493	-200.000	0.063	0.558
-488.478	-77.909	0.189	0.065
-487.464	488.277	0.034	-0.076
-486.449	296.118	0.023	-0.042
-485.435	-109.695	-0.236	0.049
-484.420	313.346	-0.144	-0.268
-483.405	-61.362	0.289	-0.121
-482.391	-169.732	-0.342	0.012
-481.376	-200.000	0.030	0.258
-480.362	-24.502	0.060	-0.035
-479.347	-200.000	0.039	0.396
-478.332	-41.529	0.387	0.197
-477.318	23.800	0.081	-0.066
-476.303	209.938	0.087	0.135
-475.289	-140.499	-0.231	-0.024
-474.274	67.709	-0.140	0.142
-473.259	-148.674	-0.100	0.008
-472.245	14.230	-0.114	-0.088
-471.230	342.922	0.094	-0.183
-470.216	198.567	-0.328	0.497
-469.201	54.499	-0.150	-0.143
-468.186	249.975	-0.120	-0.202
-467.172	-200.000	0.030	-0.193
-466.157	656.994	-0.063	-0.161
-465.143	-124.633	0.229	0.035
-464.128	-168.544	0.358	-0.014
-463.113	-177.371	0.098	0.002
-462.099	800.000	0.099	-0.407
-461.084	86.066	-0.025	-0.027
-460.070	-18.466	0.100	-0.062
-459.055	92.282	-0.204	0.227
-458.040	800.000	0.012	-0.046
-457.026	49.096	0.155	-0.144
-456.011	657.635	0.038	0.096
-454.997	-34.191	-0.118	0.064
-453.982	-29.962	0.101	0.057
-452.968	800.000	-0.060	-0.202
-451.953	-25.936	0.199	0.116
-450.938	-122.577	-0.374	0.060
-449.924	-39.362	-0.136	0.071
-448.909	-43.620	-0.038	0.019
-447.895	800.000	-0.058	0.194
-446.880	280.608	0.092	-0.162
-445.865	-200.000	0.048	-0.306
-444.851	-200.000	-0.004	-0.097
-443.836	588.048	-0.124	-0.303
-442.822	-55.540	0.192	0.085
-441.807	53.744	-0.108	0.102
-440.792	-65.992	0.294	0.116
-439.778	406.273	-0.157	-0.327
-438.763	-135.986	-0.075	-0.009
-437.749	800.000	0.031	-0.117
-436.734	131.501	0.259	0.330
-435.719	193.498	-0.058	-0.087
-434.705	800.000	0.045	-0.141
-433.690	7.037	-0.212	0.156
-432.676	120.795	-0.022	0.027
-431.661	20.545	0.099	0.079
-430.646	800.000	0.051	-0.177
-429.632	-200.000	0.078	0.374
-428.617	-59.968	-0.286	-0.121
-427.603	104.555	-0.216	0.251
-426.588	-93.106	-0.220	0.061
-425.573	-3.246	0.129	-0.089
-424.559	36.254	0.157	-0.137
-423.544	800.000	0.138	-0.380
-422.530	-181.071	-0.066	-0.001
-421.515	15.586	0.063	-0.049
-420.500	663.957	0.076	-0.193
-419.486	-200.000	0.005	0.127
-418.471	-55.483	0.106	0.047
-417.457	-150.219	-0.479	-0.037
-416.442	-44.109	-0.371	-0.184
-415.428	328.340	-0.080	0.152
-414.413	122.427	0.087	-0.108
-413.398	-200.000	-0.025	0.125
-412.384	205.982	0.100	0.154
-411.369	58.502	0.073	0.071
-410.355	-28.027	0.203	-0.116
-409.340	-200.000	0.010	-0.259
-408.325	-200.000	-0.014	-0.131
-407.311	-200.000	0.023	0.277
-406.296	-105.014	-0.556	-0.126
-405.282	-200.000	0.005	-0.101
-404.267	261.319	-0.217	0.372
-403.252	-43.583	0.202	-0.101
-402.238	-200.000	-0.018	-0.116
-401.223	800.000	0.091	0.306
-400.209	0.565	0.183	-0.129
-399.194	119.209	-0.106	-0.129
-398.179	75.624	0.107	-0.112
-397.165	27.291	0.068	-0.057
-396.150	63.343	0.148	0.147
-395.136	112.762	0.111	-0.133
-394.121	286.581	0.235	-0.420
-393.106	-152.748	0.263	-0.018
-392.092	-200.000	0.026	0.180
-391.077	7.619	0.194	0.143
-390.063	-111.529	0.237	-0.048
-389.048	36.092	-0.216	-0.187
-388.033	13.517	0.237	0.182
-387.019	5.997	-0.381	-0.279
-386.004	-53.360	-0.185	0.084
-384.990	25.861	0.138	0.114
-383.975	800.000	-0.070	-0.223
-382.960	-11.460	0.049	-0.032
-381.946	139.361	0.063	0.082
-380.931	-81.248	-0.125	0.041
-379.917	681.795	-0.087	-0.223
-378.902	-83.245	0.212	-0.067
-377.888	-170.187	-0.343	-0.012
-376.873	-0.700	-0.184	-0.128
-375.858	539.794	-0.059	0.137
-374.844	-57.229	0.434	-0.189
-373.829	-63.190	0.467	-0.190
-372.815	28.108	-0.087	0.072
-371.800	800.000	0.016	-0.069
-370.785	405.718	-0.107	0.223
-369.771	303.910	0.186	0.340
-368.756	-200.000	0.021	0.092
-367.742	205.443	-0.114	0.175
-366.727	36.681	0.118	0.102
-365.712	-75.298	-0.231	0.081
-364.698	-16.218	0.070	-0.044
-363.683	8.249	0.251	-0.186
-362.669	297.493	0.179	-0.325
-361.654	-124.351	-0.195	0.030
-360.639	-45.722	0.217	-0.106
-359.625	-61.784	0.118	-0.049
-358.610	800.000	0.171	-0.590
-357.596	159.623	-0.110	0.151
-356.581	800.000	0.049	0.208
-355.566	-68.334	0.075	-0.029
-354.552	-200.000	0.032	-0.332
-353.537	-200.000	0.022	0.206
-352.523	-200.000	-0.012	0.134
-351.508	-43.633	-0.322	0.160
-350.493	637.576	0.095	-0.237
-349.479	-200.000	-0.017	0.191
-348.464	169.497	-0.131	-0.184
-347.450	-178.006	-0.100	-0.002
-346.435	-200.000	-0.045	0.309
-345.420	-200.000	0.000	0.395
-344.406	-194.152	-0.104	0.001
-343.391	85.515	-0.175	-0.190
-342.377	-200.000	-0.029	-0.160
-341.362	579.253	-0.129	-0.311
-340.348	-47.773	0.170	-0.081
-339.333	705.487	-0.109	0.283
-338.318	800.000	-0.154	-0.456
-337.304	-144.234	0.215	0.020
-336.289	-200.000	0.047	0.344
-335.275	-200.000	0.011	0.259
-334.260	-64.059	-0.296	0.119
-333.245	-127.826	-0.171	-0.024
-332.231	-167.249	-0.025	0.001
-331.216	424.411	-0.174	-0.368
-330.202	-129.394	-0.232	0.032
-329.187	24.254	0.068	0.055
-328.172	175.673	0.018	-0.026
-327.158	-95.940	-0.243	0.064
-326.143	23.514	-0.312	-0.253
-325.129	-152.330	-0.344	-0.024
-324.114	-35.663	0.063	-0.034
-323.099	-169.679	-0.246	0.009
-322.085	177.738	-0.071	0.103
-321.070	-200.000	0.005	-0.054
-320.056	-113.530	-0.148	0.029
-319.041	-7.963	0.092	-0.061
-318.026	-42.066	-0.073	-0.037
-317.012	193.022	0.165	-0.246
-315.997	800.000	0.062	-0.206
-314.983	-200.000	0.025	-0.169
-313.968	-79.233	0.213	0.071
-312.953	-9.250	0.423	-0.278
-311.939	-200.000	0.025	-0.150
-310.924	-7.484	0.044	-0.029
-309.910	346.888	0.070	0.135
-308.895	800.000	-0.028	-0.103
-307.880	111.945	-0.156	-0.185
-306.866	785.987	-0.079	0.212
-305.851	-23.104	0.339	0.201
-304.837	-30.186	0.026	0.015
-303.822	-102.342	-0.135	-0.032
-302.807	-200.000	0.017	-0.212
-301.793	115.997	0.211	0.255
-300.778	271.048	-0.071	0.123
-299.764	-163.154	0.280	-0.013
-298.749	126.724	0.147	-0.184
-297.735	-171.023	-0.371	0.012
-296.720	-200.000	-0.002	-0.163
-295.705	-200.000	-0.031	-0.420
-294.691	800.000	-0.083	0.243
-293.676	-184.388	0.098	0.002
-292.662	-30.459	-0.243	-0.136
-291.647	517.671	0.137	0.315
-290.632	-119.086	-0.169	0.029
-289.618	294.991	0.069	0.124
-288.603	100.743	0.076	0.087
-287.589	-151.920	-0.230	-0.017
-286.574	-133.222	-0.098	-0.012
-285.559	800.000	-0.088	-0.261
-284.545	-57.823	0.218	0.094
-283.530	33.460	0.151	-0.129
-282.516	70.704	-0.161	0.164
-281.501	-67.809	-0.178	-0.068
-280.486	-44.360	0.282	0.139
-279.472	-129.449	-0.570	-0.078
-278.457	-111.738	0.151	-0.030
-277.443	359.977	-0.072	0.142
-276.428	800.000	-0.022	0.078
-275.413	153.777	0.230	0.310
-274.399	800.000	-0.103	0.314
-273.384	249.558	0.083	0.138
-272.370	69.928	-0.075	-0.076
-271.355	-83.113	-0.078	-0.025
-270.340	729.431	-0.019	0.050
-269.326	-52.978	0.215	0.097
-268.311	-200.000	0.004	0.167
-267.297	81.651	0.177	-0.188
-266.282	-162.775	0.124	0.006
-265.267	257.012	-0.164	0.277
-264.253	-200.000	0.018	0.250
-263.238	-200.000	-0.058	0.313
-262.224	800.000	-0.087	-0.313
-261.209	-121.956	-0.257	0.042
-260.195	33.587	0.065	0.056
-259.180	-129.046	0.093	-0.013
-258.165	219.564	-0.233	0.366
-257.151	66.917	0.186	-0.186
-256.136	393.209	0.177	0.362
-255.122	-24.680	0.079	0.046
-254.107	-85.253	0.163	0.050
-253.092	243.774	-0.106	0.175
-252.078	-164.213	0.249	0.011
-251.063	729.774	-0.130	0.342
-250.049	35.380	-0.222	0.191
-249.034	-60.238	-0.232	0.097
-248.019	611.574	0.094	-0.231
-247.005	-200.000	0.002	0.177
-245.990	-200.000	-0.021	0.167
-244.976	800.000	-0.078	0.239
-243.961	548.013	-0.135	0.317
-242.946	-99.495	-0.226	0.056
-241.932	-97.805	-0.112	0.028
-240.917	-117.570	0.317	0.056
-239.903	765.941	-0.139	-0.371
-238.888	-140.682	0.212	-0.022
-237.873	82.856	0.218	-0.233
-236.859	67.252	0.101	-0.101
-235.844	598.095	-0.060	-0.146
-234.830	-158.975	0.286	-0.016
-233.815	-125.999	0.337	0.050
-232.800	-52.637	0.087	-0.039
-231.786	393.223	0.028	-0.057
-230.771	572.955	-0.049	-0.117
-229.757	-89.498	-0.029	-0.008
-228.742	-200.000	-0.014	0.151
-227.727	-9.406	0.214	-0.140
-226.713	-19.320	-0.187	-0.114
-225.698	-19.351	-0.215	0.131
-224.684	-80.045	0.185	-0.061
-223.669	7.737	0.056	0.041
-222.655	286.003	0.090	0.159
-221.640	-47.665	0.376	0.179
-220.625	-20.418	0.354	-0.214
-219.611	-83.860	0.380	-0.119
-218.596	95.674	0.041	0.046
-217.582	92.808	-0.165	-0.183
-216.567	800.000	0.072	0.222
-215.552	243.354	0.091	-0.150
-214.538	-200.000	0.022	-0.285
-213.523	-2.017	0.115	-0.079
-212.509	-36.126	-0.435	0.231
-211.494	-100.845	0.422	-0.102
-210.479	-2.742	-0.171	-0.117
-209.465	-177.586	-0.249	0.006
-208.450	81.525	0.054	0.058
-207.436	-152.451	0.447	0.031
-206.421	-25.127	0.155	0.090
-205.406	-96.809	-0.212	-0.055
-204.392	480.010	0.107	-0.239
-203.377	-17.105	-0.376	-0.232
-202.363	-113.568	0.315	0.060
-201.348	218.498	0.162	-0.253
-200.333	-27.234	-0.239	-0.136
-199.319	-10.109	-0.022	0.014
-198.304	-200.000	0.043	0.189
-197.290	-135.907	-0.353	-0.041
-196.275	107.773	0.184	-0.215
-195.260	-35.954	-0.299	0.158
-194.246	-200.000	0.024	-0.157
-193.231	-200.000	-0.039	0.229
-192.217	-133.542	0.237	-0.029
-191.202	575.061	0.068	-0.164
-190.187	-169.811	-0.153	-0.005
-189.173	800.000	0.062	-0.251
-188.158	-15.008	-0.287	0.181
-187.144	-75.954	0.270	-0.094
-186.129	379.967	0.010	-0.020
-185.114	57.274	-0.046	0.044
-184.100	95.425	-0.024	0.027
-183.085	21.429	-0.196	0.156
-182.071	-200.000	0.012	0.257
-181.056	800.000	0.085	0.292
-180.042	-196.839	-0.223	0.001
-179.027	409.483	-0.027	-0.056
-178.012	-67.938	-0.047	-0.018
-176.998	375.718	0.130	-0.259
-175.983	33.102	0.119	-0.101
-174.969	-109.665	-0.131	-0.027
-173.954	800.000	0.011	0.045
-172.939	800.000	0.036	-0.122
-171.925	133.577	0.161	-0.204
-170.910	86.219	-0.142	0.154
-169.896	-85.832	-0.100	-0.030
-168.881	59.113	0.194	-0.187
-167.866	-120.138	0.248	0.041
-166.852	-160.963	-0.047	0.002
-165.837	429.352	0.081	-0.171
-164.823	800.000	0.013	0.055
-163.808	-39.890	0.285	0.146
-162.793	-126.690	-0.140	-0.020
-161.779	-130.156	0.334	-0.045
-160.764	568.936	-0.058	-0.138
-159.750	-123.552	0.185	-0.029
-158.735	-200.000	-0.024	-0.226
-157.720	-200.000	-0.016	-0.287
-156.706	737.999	0.033	-0.087
-155.691	-177.538	0.283	0.007
-154.677	-64.320	-0.374	-0.149
-153.662	-200.000	-0.006	0.057
-152.647	-88.414	0.144	-0.042
-151.633	453.101	0.084	0.183
-150.618	-9.337	0.168	0.110
-149.604	800.000	-0.134	-0.380
-148.589	-3.328	-0.376	-0.256
-147.574	-200.000	-0.016	0.183
-146.560	-142.740	-0.107	-0.010
-145.545	-62.889	-0.394	-0.159
-144.531	-99.946	0.038	0.009
-143.516	-14.423	-0.134	-0.085
-142.502	-200.000	-0.052	-0.264
-141.487	800.000	-0.054	-0.189
-140.472	369.925	0.132	0.261
-139.458	-44.800	0.255	-0.124
-138.443	738.948	-0.079	0.206
-137.429	-200.000	0.071	0.482
-136.414	91.512	-0.066	-0.073
-135.399	232.479	0.062	-0.099
-134.385	15.634	-0.184	-0.142
-133.370	345.960	-0.087	0.168
-132.356	152.072	-0.087	0.116
-131.341	616.288	-0.176	-0.431
-130.326	-200.000	-0.008	-0.085
-129.312	-173.526	-0.175	0.005
-128.297	-76.235	-0.247	0.085
-127.283	-101.957	-0.476	-0.112
-126.268	457.274	-0.079	0.172
-125.253	141.445	-0.157	0.204
-124.239	800.000	-0.036	-0.098
-123.224	-5.514	-0.095	0.063
-122.210	-86.213	-0.279	0.084
-121.195	99.269	-0.081	0.092
-120.180	800.000	-0.029	0.088
-119.166	149.629	0.258	-0.342
-118.151	-170.000	0.165	-0.006
-117.137	-146.104	-0.063	0.005
-116.122	-134.366	-0.276	-0.033
-115.107	144.032	-0.347	-0.452
-114.093	18.446	0.144	0.112
-113.078	800.000	-0.118	-0.386
-112.064	-48.571	-0.104	0.049
-111.049	-183.877	0.183	-0.003
-110.034	-200.000	-0.043	0.279
-109.020	17.026	0.076	0.059
-108.005	111.079	-0.144	-0.169
-106.991	-200.000	0.035	-0.192
-105.976	285.062	-0.152	0.267
-104.962	170.829	0.136	-0.191
-103.947	123.457	0.211	0.258
-102.932	309.260	-0.086	0.156
-101.918	133.645	0.183	0.232
-100.903	-200.000	0.019	-0.124
-99.889	5.620	-0.147	-0.106
-98.874	-30.478	-0.265	-0.147
-97.859	-5.509	-0.248	0.166
-96.845	800.000	0.074	0.300
-95.830	-91.838	-0.243	0.067
-94.816	127.480	-0.060	0.074
-93.801	-200.000	0.053	0.229
-92.786	33.176	0.187	-0.158
-91.772	13.986	-0.184	0.140
-90.757	116.436	0.101	-0.121
-89.743	-164.557	-0.495	-0.022
-88.728	-200.000	0.005	-0.197
-87.713	-121.833	-0.276	0.045
-86.699	-20.252	0.234	0.141
-85.684	-111.243	0.114	0.023
-84.670	-200.000	0.017	-0.081
-83.655	-28.140	-0.204	0.115
-82.640	-200.000	0.013	0.099
-81.626	35.197	-0.176	0.150
-80.611	26.990	0.008	-0.007
-79.597	-200.000	-0.076	-0.388
-78.582	-200.000	-0.081	0.422
-77.567	208.098	-0.168	-0.256
-76.553	-58.528	0.296	-0.126
-75.538	63.912	-0.197	0.193
-74.524	-200.000	-0.032	0.201
-73.509	-58.044	-0.269	0.114
-72.494	4.302	-0.089	-0.064
-71.480	-59.580	0.194	0.081
-70.465	0.430	0.162	-0.113
-69.451	320.588	-0.182	0.337
-68.436	-34.671	0.319	-0.170
-67.422	-200.000	0.033	0.249
-66.407	247.747	-0.196	-0.323
-65.392	800.000	0.014	-0.046
-64.378	1.782	0.240	-0.169
-63.363	800.000	0.096	-0.275
-62.349	-37.889	0.278	-0.144
-61.334	150.532	-0.826	-1.094
-60.319	49.852	0.780	0.717
-59.305	475.308	-0.548	-1.207
-58.290	127.159	0.846	1.046
-57.276	648.980	0.693	1.729
-56.261	-200.000	121.588	612.056
-55.246	380.173	1572.050	3142.083
-54.232	140.343	2746.461	3533.338
-53.217	93.275	2207.693	2434.366
-52.203	34.619	1719.894	1465.019
-51.188	27.314	1534.924	1257.152
-50.173	25.213	1511.590	1223.679
-49.159	47.251	1580.478	1434.452
-48.144	45.417	1594.056	1433.873
-47.130	27.216	1543.702	1263.457
-46.115	24.498	1527.288	1231.263
-45.100	24.249	1524.301	1227.089
-44.086	24.170	1522.372	1224.948
-43.071	24.184	1519.809	1222.932
-42.057	24.021	1519.012	1221.122
-41.042	24.196	1516.893	1220.571
-40.027	24.174	1515.685	1219.400
-39.013	24.096	1513.988	1217.452
-37.998	24.109	1513.086	1216.769
-36.984	24.137	1511.704	1215.800
-35.969	24.168	1510.113	1214.680
-34.954	24.035	1508.873	1212.728
-33.940	24.124	1507.239	1211.976
-32.925	24.137	1505.921	1210.956
-31.911	24.209	1504.695	1210.411
-30.896	24.245	1503.295	1209.478
-29.881	24.248	1502.548	1208.854
-28.867	24.304	1500.748	1207.736
-27.852	24.330	1499.037	1206.486
-26.838	24.253	1498.206	1205.247
-25.823	24.255	1496.143	1203.554
-24.809	24.207	1494.889	1202.174
-23.794	24.167	1493.765	1200.952
-22.779	24.216	1492.658	1200.347
-21.765	24.248	1491.124	1199.278
-20.750	24.303	1490.105	1198.780
-19.736	24.171	1489.630	1197.465
-18.721	24.219	1487.601	1196.106
-17.706	24.170	1486.753	1195.048
-16.692	24.220	1486.116	1194.827
-15.677	24.205	1485.081	1193.846
-14.663	24.165	1483.966	1192.633
-13.648	24.175	1483.165	1192.009
-12.633	24.271	1481.821	1191.524
-11.619	24.198	1481.388	1190.643
-10.604	24.169	1480.426	1189.631
-9.590	24.153	1479.696	1188.883
-8.575	24.192	1478.552	1188.178
-7.560	24.132	1477.882	1187.193
-6.546	24.173	1476.529	1186.331
-5.531	24.191	1475.476	1185.559
-4.517	24.202	1474.848	1185.080
-3.502	24.094	1474.289	1183.867
-2.487	24.138	1473.145	1183.192
-1.473	24.134	1472.398	1182.518
-0.458	24.202	1470.736	1181.593
0.556	23.211	1460.667	1170.859
1.571	20.374	1436.051	1132.549
2.586	17.074	1373.277	1062.329
3.600	15.532	1287.824	987.075
4.615	14.429	1243.656	946.875
5.629	12.736	1187.564	894.898
6.644	6.652	1104.031	801.068
7.659	1.495	1067.158	748.886
8.673	0.784	1062.046	741.745
9.688	0.689	1058.818	738.960
10.702	0.617	1057.550	737.660
11.717	0.700	1055.245	736.393
12.731	2.765	1055.997	746.913
13.746	9.235	1064.655	784.641
14.761	15.037	1072.109	818.519
15.775	17.070	1074.140	829.948
16.790	16.957	1073.021	828.455
17.804	15.836	1071.247	821.546
18.819	15.088	1069.516	816.497
19.834	14.603	1068.074	812.963
20.848	14.364	1067.147	811.023
21.863	13.972	1066.290	808.393
22.877	13.861	1065.425	807.127
23.892	13.748	1064.384	805.716
24.907	13.566	1063.653	804.208
25.921	13.683	1062.604	803.913
26.936	13.707	1061.744	803.307
27.950	13.629	1061.756	802.864
28.965	13.671	1061.186	802.568
29.980	13.800	1059.716	802.005
30.994	13.793	1058.656	801.100
32.009	13.815	1057.795	800.485
33.023	13.756	1057.561	799.951
34.038	13.788	1056.601	799.310
35.053	13.716	1055.831	798.310
36.067	13.808	1054.776	797.884
37.082	13.710	1053.616	796.465
38.096	13.707	1053.063	795.961
39.111	13.784	1052.574	795.892
40.126	13.804	1051.115	794.812
41.140	13.723	1050.391	793.809
42.155	13.623	1049.112	792.293
43.169	13.558	1048.576	791.510
44.184	13.590	1047.262	790.600
45.199	13.573	1046.287	789.714
46.213	13.626	1045.116	789.011
47.228	13.648	1044.241	788.382
48.242	13.609	1043.456	787.538
49.257	13.580	1042.311	786.467
50.271	13.790	1040.744	786.209
51.286	13.728	1040.471	785.638
52.301	13.780	1039.283	784.917
53.315	13.702	1038.744	784.074
54.330	13.737	1038.076	783.666
55.344	13.696	1037.313	782.827
56.359	13.617	1036.105	781.474
57.374	13.771	1035.173	781.428
58.388	13.659	1034.295	780.167
59.403	13.600	1033.414	779.156
60.417	13.527	1032.680	778.188
61.432	13.604	1032.046	778.005
62.447	13.594	1030.618	776.813
63.461	13.536	1030.164	776.129
64.476	13.488	1029.254	775.151
65.490	13.581	1028.446	774.912
66.505	13.583	1027.879	774.423
67.520	13.673	1027.013	774.121
68.534	13.649	1026.281	773.392
69.549	13.723	1025.457	773.047
70.563	13.570	1025.113	772.004
71.578	13.643	1024.283	771.654
72.593	13.564	1023.471	770.603
73.607	13.574	1022.124	769.568
74.622	13.539	1021.363	768.763
75.636	13.470	1020.597	767.802
76.651	13.536	1019.856	767.482
77.666	13.511	1019.072	766.707
78.680	13.532	1017.964	765.903
79.695	13.567	1017.758	765.840
80.709	13.548	1017.243	765.300
81.724	13.559	1016.075	764.404
82.739	13.588	1015.120	763.752
83.753	13.581	1015.124	763.654
84.768	13.643	1013.762	762.845
85.782	13.755	1012.948	762.681
86.797	13.743	1012.300	762.070
87.812	13.733	1011.471	761.336
88.826	13.642	1010.702	760.270
89.841	13.697	1009.715	759.711
90.855	13.749	1008.657	759.085
91.870	13.811	1008.205	758.963
92.884	13.797	1007.448	758.265
93.899	13.846	1006.601	757.782
94.914	13.888	1006.040	757.483
95.928	13.842	1005.402	756.727
96.943	13.875	1004.318	755.994
97.957	13.810	1003.596	755.087
98.972	13.777	1002.814	754.282
99.987	13.834	1002.363	754.137
101.001	13.862	1001.090	753.239
102.016	13.789	1000.796	752.618
103.030	13.794	999.489	751.594
104.045	13.841	998.690	751.140
105.060	13.835	997.760	750.344
106.074	13.765	996.768	749.215
107.089	13.757	996.447	748.873
108.103	13.666	995.564	747.735
109.118	13.791	994.173	747.185
110.133	13.638	993.934	746.251
111.147	13.702	992.727	745.567
112.162	13.654	991.820	744.601
113.176	13.733	990.996	744.272
114.191	13.708	990.297	743.571
115.206	13.726	989.276	742.816
116.220	13.878	988.283	742.686
117.235	13.832	987.464	741.802
118.249	13.760	986.809	740.921
119.264	13.767	985.726	740.075
120.279	13.801	984.769	739.440
121.293	13.636	984.435	738.392
122.308	13.671	983.539	737.808
123.322	13.765	982.388	737.297
124.337	13.755	981.603	736.600
125.352	13.798	980.150	735.635
126.366	13.641	979.176	734.144
127.381	13.715	977.709	733.304
128.395	13.675	977.173	732.663
129.410	13.737	976.171	732.118
130.424	13.690	975.553	731.384
131.439	13.724	974.256	730.494
132.454	13.731	973.532	729.920
133.468	13.823	972.627	729.580
134.483	13.768	972.066	728.855
135.497	13.768	971.557	728.409
136.512	13.711	970.762	727.497
137.527	13.753	969.983	727.031
138.541	13.714	969.270	726.262
139.556	13.835	968.224	725.946
140.570	13.814	967.217	725.033
141.585	13.805	966.850	724.656
142.600	13.873	965.627	723.971
143.614	13.828	965.603	723.692
144.629	13.919	964.609	723.282
145.643	13.954	964.208	723.068
146.658	13.842	963.033	721.634
147.673	13.950	961.900	721.192
148.687	13.848	961.260	720.206
149.702	13.849	960.176	719.332
150.716	13.795	959.587	718.595
151.731	13.896	958.594	718.223
152.746	13.900	957.994	717.731
153.760	13.791	957.430	716.774
154.775	13.912	956.312	716.393
155.789	13.962	955.863	716.212
156.804	13.883	955.155	715.274
157.819	13.960	953.928	714.625
158.833	13.945	953.441	714.130
159.848	13.949	953.073	713.812
160.862	13.962	952.171	713.129
161.877	14.047	951.723	713.094
162.892	14.081	950.495	712.255
163.906	14.017	950.044	711.582
164.921	13.977	949.052	710.602
165.935	13.889	948.534	709.776
166.950	14.054	947.053	709.308
167.964	14.214	945.837	709.020
168.979	14.058	944.996	707.663
169.994	14.004	944.027	706.643
171.008	14.097	943.294	706.427
172.023	14.099	942.710	705.936
173.037	14.135	941.917	705.431
174.052	14.107	941.301	704.789
175.067	14.045	940.846	704.123
176.081	14.106	940.095	703.757
177.096	14.141	938.580	702.711
178.110	14.052	938.549	702.247
179.125	14.125	937.581	701.770
180.140	14.209	936.286	701.092
181.154	14.126	935.963	700.441
182.169	14.226	935.110	700.159
183.183	14.139	934.902	699.576
184.198	14.271	933.881	699.304
185.213	14.213	933.260	698.533
186.227	14.363	932.474	698.514
187.242	14.257	932.491	698.019
188.256	14.292	931.331	697.236
189.271	14.396	930.394	696.909
190.286	14.412	929.917	696.558
191.300	14.346	928.946	695.490
192.315	14.313	928.122	694.676
193.329	14.293	927.491	694.059
194.344	14.250	927.015	693.462
195.359	14.270	926.755	693.289
196.373	14.378	925.730	692.909
197.388	14.450	925.180	692.737
198.402	14.504	924.925	692.706
199.417	14.459	924.550	692.179
200.432	14.540	923.770	691.868
201.446	14.532	923.512	691.582
202.461	14.404	923.687	691.122
203.475	14.519	922.831	690.894
204.490	14.626	921.937	690.609
205.504	14.546	920.779	689.348
206.519	14.559	920.044	688.793
207.534	14.617	919.547	688.598
208.548	14.487	918.860	687.487
209.563	14.523	918.198	687.079
210.577	14.606	917.378	686.745
211.592	14.593	916.794	686.195
212.607	14.670	916.329	686.101
213.621	14.718	915.824	685.862
214.636	14.677	914.662	684.763
215.650	14.695	914.281	684.488
216.665	14.754	913.439	684.042
217.680	14.753	913.167	683.771
218.694	14.777	912.765	683.511
219.709	14.725	912.094	682.733
220.723	14.729	911.051	681.908
221.738	14.788	910.422	681.619
222.753	14.770	910.416	681.481
223.767	14.697	909.673	680.568
224.782	14.840	908.434	680.163
225.796	14.806	907.940	679.594
226.811	14.900	906.993	679.204
227.826	14.975	905.949	678.666
228.840	14.895	905.835	678.199
229.855	14.841	905.217	677.456
230.869	14.942	904.164	677.018
231.884	14.963	903.771	676.746
232.899	14.936	902.962	675.974
233.913	14.791	902.232	674.782
234.928	14.894	901.608	674.672
235.942	14.808	901.170	673.938
236.957	14.935	900.388	673.802
237.972	15.102	899.355	673.641
238.986	15.030	898.925	672.971
240.001	14.952	898.284	672.117
241.015	15.091	897.167	671.781
242.030	15.044	896.822	671.273
243.045	14.932	896.458	670.494
244.059	15.043	896.013	670.548
245.074	15.162	894.951	670.169
246.088	15.117	894.345	669.477
247.103	15.188	893.820	669.309
248.117	15.166	893.018	668.560
249.132	15.086	892.834	668.043
250.147	15.055	892.228	667.407
251.161	15.159	891.025	666.862
252.176	15.149	890.690	666.513
253.190	15.234	889.939	666.232
254.205	15.306	889.381	666.040
255.220	15.491	888.486	666.043
256.234	15.331	888.106	665.065
257.249	15.500	887.366	665.121
258.263	15.354	887.170	664.340
259.278	15.412	886.233	663.809
260.293	15.507	885.461	663.544
261.307	15.485	885.141	663.162
262.322	15.611	884.201	662.892
263.336	15.527	883.905	662.283
264.351	15.594	883.458	662.154
265.366	15.658	882.440	661.585
266.380	15.645	881.643	660.876
267.395	15.654	881.005	660.377
268.409	15.569	880.761	659.799
269.424	15.610	879.841	659.213
270.439	15.712	879.303	659.150
271.453	15.614	878.812	658.340
272.468	15.591	878.039	657.615
273.482	15.639	877.002	656.968
274.497	15.687	876.548	656.756
275.512	15.825	875.732	656.626
276.526	15.554	875.619	655.426
277.541	15.655	874.864	655.196
278.555	15.663	874.233	654.697
279.570	15.764	873.399	654.408
280.585	15.743	872.787	653.807
281.599	15.769	872.504	653.640
282.614	15.763	871.864	653.079
283.628	15.810	870.890	652.475
284.643	15.745	870.813	652.107
285.657	15.828	869.995	651.759
286.672	15.807	869.336	651.125
287.687	15.886	868.807	650.976
288.701	15.845	868.408	650.463
289.716	15.973	867.703	650.372
290.730	15.924	866.854	649.489
291.745	15.892	866.414	648.976
292.760	15.938	866.095	648.858
293.774	15.896	865.251	648.008
294.789	16.032	864.544	647.944
295.803	16.035	863.958	647.459
296.818	16.153	863.074	647.191
297.833	15.933	862.795	646.082
298.847	16.045	861.811	645.714
299.862	15.982	861.526	645.203
300.876	16.008	860.825	644.722
301.891	16.069	859.981	644.264
302.906	16.256	859.381	644.474
303.920	16.063	859.054	643.433
304.935	16.206	858.225	643.299
305.949	16.161	857.618	642.616
306.964	16.389	856.418	642.530
307.979	16.278	856.260	641.930
308.993	16.262	855.796	641.467
310.008	16.356	854.949	641.130
311.022	16.372	854.521	640.816
312.037	16.358	854.278	640.520
313.052	16.181	853.521	639.228
314.066	16.265	853.282	639.311
315.081	16.375	852.205	638.864
316.095	16.331	851.590	638.177
317.110	16.338	851.522	638.096
318.125	16.234	851.121	637.349
319.139	16.272	850.439	636.925
320.154	16.377	849.590	636.629
321.168	16.490	849.301	636.782
322.183	16.374	848.506	635.690
323.197	16.411	847.962	635.367
324.212	16.522	847.341	635.260
325.227	16.389	846.986	634.439
326.241	16.526	846.058	634.203
327.256	16.587	845.677	634.089
328.270	16.414	845.660	633.374
329.285	16.249	845.031	632.228
330.300	16.469	844.182	632.359
331.314	16.349	843.584	631.407
332.329	16.527	843.036	631.605
333.343	16.536	842.165	630.930
334.358	16.539	841.635	630.491
335.373	16.504	841.425	630.146
336.387	16.634	840.845	630.139
337.402	16.699	840.063	629.741
338.416	16.642	839.373	628.956
339.431	16.626	839.374	628.839
340.446	16.721	838.265	628.307
341.460	16.714	837.707	627.806
342.475	16.683	837.358	627.375
343.489	16.773	836.704	627.164
344.504	16.745	836.228	626.649
345.519	16.827	836.100	626.797
346.533	16.788	835.464	626.121
347.548	16.926	834.583	625.916
348.562	17.002	833.850	625.590
349.577	16.910	833.641	625.041
350.592	16.846	832.969	624.247
351.606	16.726	832.772	623.602
352.621	16.781	832.421	623.487
353.635	16.853	831.902	623.305
354.650	16.821	831.517	622.845
355.665	16.818	831.004	622.393
356.679	16.791	830.666	621.987
357.694	16.852	829.972	621.635
358.708	16.925	829.341	621.376
359.723	16.929	828.867	620.982
360.738	17.095	828.033	620.907
361.752	16.984	827.926	620.367
362.767	16.971	827.684	620.083
363.781	17.078	826.729	619.703
364.796	16.975	826.563	619.147
365.810	17.082	825.794	618.908
366.825	17.023	825.851	618.682
367.840	17.015	825.761	618.529
368.854	17.293	824.737	618.720
369.869	17.310	824.532	618.572
370.883	17.111	823.950	617.357
371.898	17.315	822.854	617.221
372.913	17.289	822.537	616.835
373.927	17.309	822.024	616.470
374.942	17.313	821.063	615.709
375.956	17.340	820.316	615.192
376.971	17.425	819.811	615.067
377.986	17.368	819.431	614.519
379.000	17.231	818.974	613.628
380.015	17.535	818.177	614.073
381.029	17.471	818.407	613.961
382.044	17.352	817.314	612.657
383.059	17.438	816.936	612.628
384.073	17.499	816.404	612.398
385.088	17.617	815.504	612.089
386.102	17.575	814.951	611.471
387.117	17.321	815.029	610.562
388.132	17.373	814.626	610.395
389.146	17.491	814.071	610.349
390.161	17.553	813.275	609.918
391.175	17.431	813.299	609.444
392.190	17.646	812.828	609.806
393.205	17.552	812.445	609.130
394.219	17.549	812.035	608.759
395.234	17.489	811.727	608.259
396.248	17.358	810.670	606.945
397.263	17.529	810.578	607.434
398.278	17.594	809.550	606.841
399.292	17.584	809.469	606.690
400.307	17.682	808.937	606.588
401.321	17.682	808.641	606.311
402.336	17.448	808.411	605.255
403.350	17.559	807.899	605.211
404.365	17.665	807.129	604.957
405.380	17.579	807.136	604.602
406.394	17.704	806.517	604.528
407.409	17.802	805.919	604.375
408.423	17.779	805.597	603.999
409.438	17.817	805.176	603.764
410.453	17.778	804.470	603.045
411.467	17.891	804.145	603.146
412.482	17.899	803.622	602.726
413.496	17.872	803.571	602.541
414.511	18.007	802.948	602.495
415.526	17.913	802.486	601.765
416.540	17.964	802.187	601.668
417.555	18.041	801.443	601.325
418.569	17.978	801.120	600.808
419.584	18.153	800.406	600.838
420.599	18.133	799.897	600.331
421.613	114.414	1297.364	1486.541
422.628	98.671	1369.810	1486.603
