DTS Sentinel unit serial number:	SN413079Multiplexer serial number:	ORYXHardware model number:	OX4-SRSoftware version number:	ORYX F/W v4.00 Oryx Data Collector v3.7.2.0data status	okinstallation	princeton_trtdifferential loss correction	single-endedforward channel	channel 3reverse channel	N/Adate	2019/09/12time	13:50:11forward acquisition time	60.00reverse acquisition time	0.00gamma	496.2192k internal	0.2291k external	0.2291temperature offset calibration	1.0044default loss term (dB/km)	0.3790temperature slope calibration	1.0000multiplexer offset coefficient	1.0000multiplexer slope coefficient	1.0000fibre end	0.00T internal ref (°C)	40.89T ext. ref 1 (°C)	2.19T ext. ref 2 (°C)	35.12length (m)	temperature (°C)	Stokes	anti-Stokes-747.200	-74.189	-0.014	-0.005
-746.185	63.555	-0.340	0.350
-745.171	-92.092	0.272	-0.079
-744.156	-200.000	-0.070	0.381
-743.142	135.176	0.177	0.236
-742.127	92.207	-0.184	0.212
-741.112	32.080	0.123	0.108
-740.098	-47.625	-0.181	-0.090
-739.083	65.943	-0.309	-0.320
-738.069	-87.739	-0.232	-0.072
-737.054	-112.798	-0.104	0.021
-736.039	151.060	-0.222	0.309
-735.025	28.968	0.185	0.161
-734.010	289.987	-0.066	0.123
-732.996	-61.482	-0.203	0.087
-731.981	-139.097	-0.200	0.022
-730.966	-127.292	-0.097	-0.014
-729.952	312.926	0.155	0.298
-728.937	800.000	-0.038	0.110
-727.923	-160.129	-0.220	0.012
-726.908	-200.000	0.000	0.224
-725.894	-200.000	0.018	0.337
-724.879	-200.000	-0.011	-0.146
-723.864	143.913	0.087	0.119
-722.850	-143.310	-0.069	-0.007
-721.835	-73.538	-0.474	-0.177
-720.821	-19.657	-0.026	-0.017
-719.806	-123.426	0.083	-0.014
-718.791	-200.000	-0.004	0.043
-717.777	15.977	-0.214	0.172
-716.762	-37.958	-0.159	-0.086
-715.748	-27.509	-0.120	-0.071
-714.733	-21.467	0.105	-0.065
-713.718	47.006	-0.253	0.241
-712.704	426.646	-0.052	0.115
-711.689	-121.443	0.074	0.013
-710.675	-119.910	-0.244	-0.043
-709.660	356.026	-0.107	-0.217
-708.645	-200.000	-0.041	-0.511
-707.631	190.886	-0.199	-0.305
-706.616	-74.770	-0.053	-0.020
-705.602	-148.955	0.159	-0.013
-704.587	-78.972	-0.377	-0.131
-703.572	379.767	-0.173	0.363
-702.558	26.148	0.290	0.248
-701.543	57.655	0.099	-0.099
-700.529	-159.547	0.184	-0.010
-699.514	-75.565	-0.318	0.115
-698.499	-125.749	0.223	-0.034
-697.485	-69.476	-0.042	-0.017
-696.470	56.210	0.085	0.084
-695.456	-135.183	-0.212	0.026
-694.441	-26.107	-0.184	0.110
-693.426	-75.108	-0.060	-0.022
-692.412	-83.365	-0.113	0.037
-691.397	-127.275	0.248	0.037
-690.383	111.132	-0.253	-0.312
-689.368	800.000	0.116	0.488
-688.354	-200.000	-0.013	0.083
-687.339	-143.413	-0.204	0.020
-686.324	-95.036	0.380	-0.105
-685.310	-73.193	0.173	-0.065
-684.295	-200.000	-0.022	-0.101
-683.281	-200.000	-0.106	-0.515
-682.266	302.491	-0.160	-0.303
-681.251	194.010	0.176	0.272
-680.237	-22.219	0.257	0.159
-679.222	-110.253	0.079	0.017
-678.208	-91.920	-0.075	-0.022
-677.193	800.000	0.070	0.295
-676.178	-61.658	0.077	0.033
-675.164	12.393	-0.122	0.096
-674.149	229.140	-0.094	-0.156
-673.135	-126.071	-0.399	0.061
-672.120	-200.000	0.015	0.187
-671.105	146.113	0.211	0.289
-670.091	-200.000	-0.027	-0.140
-669.076	800.000	-0.070	-0.264
-668.062	41.650	-0.106	0.098
-667.047	767.294	0.075	-0.207
-666.032	-200.000	-0.054	-0.307
-665.018	-68.042	-0.113	0.045
-664.003	425.014	-0.103	0.227
-662.989	37.866	0.202	-0.183
-661.974	347.273	0.047	-0.095
-660.959	800.000	-0.069	-0.268
-659.945	-2.393	-0.178	-0.127
-658.930	800.000	-0.095	0.273
-657.916	-200.000	0.055	-0.290
-656.901	-200.000	-0.067	0.316
-655.886	-43.122	-0.081	0.042
-654.872	589.200	-0.084	0.211
-653.857	-10.334	0.175	-0.118
-652.843	-82.576	0.055	0.018
-651.828	68.565	-0.257	0.269
-650.814	-142.047	-0.356	-0.036
-649.799	-60.618	-0.026	-0.011
-648.784	-49.662	-0.433	0.210
-647.770	148.879	0.134	-0.184
-646.755	-28.611	0.278	-0.164
-645.741	-65.239	-0.103	0.042
-644.726	800.000	-0.019	0.057
-643.711	326.528	0.137	-0.267
-642.697	-200.000	0.011	-0.293
-641.682	-200.000	0.031	-0.180
-640.668	231.257	0.055	-0.092
-639.653	548.549	0.035	0.084
-638.638	-58.787	0.105	-0.046
-637.624	-9.533	0.394	0.268
-636.609	-125.225	-0.196	0.031
-635.595	124.432	-0.144	-0.184
-634.580	-29.888	0.182	0.106
-633.565	75.435	-0.153	-0.165
-632.551	-59.002	0.065	0.029
-631.536	-84.039	0.091	0.029
-630.522	63.365	0.102	0.105
-629.507	-98.344	-0.110	0.029
-628.492	537.713	0.061	0.148
-627.478	-200.000	-0.043	-0.357
-626.463	-5.094	0.232	-0.163
-625.449	-73.853	0.277	0.102
-624.434	-174.497	0.297	0.009
-623.419	-200.000	0.038	-0.435
-622.405	160.762	-0.165	0.235
-621.390	-144.423	0.245	0.023
-620.376	800.000	-0.073	0.322
-619.361	-15.768	0.143	0.093
-618.346	34.150	-0.227	0.202
-617.332	-39.492	-0.147	-0.078
-616.317	10.879	-0.225	-0.175
-615.303	-20.642	-0.169	0.106
-614.288	82.795	-0.181	0.200
-613.273	800.000	0.012	-0.048
-612.259	-200.000	0.025	-0.254
-611.244	127.063	-0.060	-0.077
-610.230	0.775	0.187	-0.136
-609.215	327.099	-0.180	-0.352
-608.201	74.917	0.069	-0.073
-607.186	-1.620	-0.107	-0.077
-606.171	-200.000	-0.011	-0.211
-605.157	372.119	0.077	-0.158
-604.142	-41.842	0.104	-0.054
-603.128	-53.742	-0.181	-0.084
-602.113	-30.155	-0.032	0.018
-601.098	-17.769	-0.104	0.067
-600.084	16.816	-0.152	0.122
-599.069	345.607	-0.016	-0.031
-598.055	10.533	-0.375	0.291
-597.040	-80.827	-0.227	0.077
-596.025	-110.533	0.524	-0.111
-595.011	517.439	0.143	-0.340
-593.996	357.293	-0.127	0.258
-592.982	-200.000	0.044	0.225
-591.967	66.803	0.154	0.159
-590.952	-102.418	0.093	-0.023
-589.938	87.835	-0.135	-0.153
-588.923	-200.000	-0.012	-0.260
-587.909	81.340	0.102	0.112
-586.894	302.998	-0.101	-0.191
-585.879	418.585	0.087	-0.190
-584.865	124.372	-0.117	-0.150
-583.850	149.320	0.184	-0.253
-582.836	800.000	0.018	-0.055
-581.821	-57.226	-0.109	0.049
-580.806	-147.973	-0.339	-0.029
-579.792	-149.287	-0.461	0.037
-578.777	51.900	-0.182	0.176
-577.763	-86.032	0.079	-0.025
-576.748	800.000	0.024	0.091
-575.733	-27.705	0.073	-0.043
-574.719	255.015	-0.193	-0.336
-573.704	-141.983	0.213	0.022
-572.690	-68.432	-0.197	0.078
-571.675	-42.088	0.193	0.100
-570.661	-177.929	0.138	-0.003
-569.646	800.000	0.042	0.162
-568.631	151.262	-0.075	0.103
-567.617	-74.329	-0.184	-0.067
-566.602	-200.000	0.014	-0.204
-565.588	239.283	0.019	-0.031
-564.573	-200.000	0.031	0.342
-563.558	-200.000	-0.041	-0.353
-562.544	382.452	0.103	0.214
-561.529	-83.196	0.240	0.079
-560.515	165.684	-0.085	0.123
-559.500	-30.003	0.041	-0.024
-558.485	-20.305	-0.209	-0.131
-557.471	-200.000	0.002	-0.208
-556.456	-200.000	-0.007	0.132
-555.442	66.469	0.226	0.233
-554.427	-200.000	0.024	0.285
-553.412	-9.688	-0.147	-0.100
-552.398	613.874	-0.099	-0.252
-551.383	-179.130	-0.330	-0.008
-550.369	12.429	-0.170	0.133
-549.354	113.474	0.092	-0.114
-548.339	-200.000	0.006	-0.040
-547.325	450.072	-0.255	-0.572
-546.310	162.800	-0.099	0.142
-545.296	343.889	0.046	-0.092
-544.281	25.134	-0.056	0.047
-543.266	-41.658	-0.255	0.133
-542.252	-13.951	0.356	-0.234
-541.237	162.483	-0.129	-0.184
-540.223	-121.622	0.133	0.022
-539.208	-154.786	-0.069	0.005
-538.193	11.598	0.119	-0.093
-537.179	-200.000	0.026	0.195
-536.164	-93.174	-0.166	-0.047
-535.150	-200.000	0.014	0.120
-534.135	455.352	0.028	0.062
-533.121	100.211	0.220	-0.259
-532.106	54.950	-0.256	0.251
-531.091	73.612	0.103	0.110
-530.077	-34.015	0.035	-0.019
-529.062	167.298	-0.127	0.184
-528.048	480.455	0.036	-0.084
-527.033	-200.000	0.030	0.492
-526.018	-116.616	-0.177	-0.033
-525.004	-36.028	-0.279	-0.153
-523.989	134.798	-0.098	0.129
-522.975	89.214	0.142	0.161
-521.960	-76.486	0.101	0.036
-520.945	136.839	0.246	0.326
-519.931	760.592	0.087	0.239
-518.916	-200.000	-0.003	-0.014
-517.902	94.806	-0.118	0.137
-516.887	24.226	0.237	0.199
-515.872	418.740	-0.239	0.518
-514.858	-36.476	0.262	0.143
-513.843	86.301	0.120	0.135
-512.829	104.162	0.047	-0.056
-511.814	-200.000	0.057	0.262
-510.799	-45.779	0.238	-0.119
-509.785	133.730	-0.110	-0.144
-508.770	-91.158	-0.289	-0.084
-507.756	-101.210	-0.280	-0.069
-506.741	-20.554	0.342	0.213
-505.726	800.000	-0.049	0.209
-504.712	102.556	0.101	-0.119
-503.697	230.269	0.002	0.004
-502.683	90.989	0.157	0.178
-501.668	-200.000	0.030	-0.228
-500.653	-21.567	0.277	-0.171
-499.639	-103.876	-0.255	-0.060
-498.624	-77.455	-0.414	-0.146
-497.610	-131.245	-0.254	0.034
-496.595	-137.078	-0.245	-0.028
-495.581	-98.409	0.398	-0.103
-494.566	-150.180	0.111	-0.009
-493.551	800.000	-0.101	0.295
-492.537	-159.517	-0.120	-0.007
-491.522	-76.060	-0.330	0.118
-490.508	-200.000	0.000	0.077
-489.493	77.582	-0.079	-0.086
-488.478	-200.000	-0.027	0.170
-487.464	555.330	-0.061	-0.148
-486.449	630.715	0.059	-0.152
-485.435	-200.000	0.002	0.222
-484.420	-200.000	0.040	-0.186
-483.405	-36.221	0.232	-0.127
-482.391	-3.283	0.140	-0.099
-481.376	-200.000	0.006	-0.242
-480.362	695.700	-0.066	-0.176
-479.347	-83.469	0.204	0.066
-478.332	121.539	-0.084	0.107
-477.318	-139.579	0.115	-0.012
-476.303	13.515	0.203	0.160
-475.289	-200.000	0.006	0.217
-474.274	33.582	0.244	-0.215
-473.259	8.756	0.052	-0.040
-472.245	800.000	-0.059	-0.201
-471.230	-94.623	-0.109	-0.030
-470.216	-200.000	-0.016	-0.389
-469.201	-64.267	0.112	-0.046
-468.186	-84.258	0.272	0.087
-467.172	-56.156	0.380	0.171
-466.157	5.623	0.218	-0.163
-465.143	800.000	-0.066	0.189
-464.128	167.323	0.074	0.106
-463.113	-68.716	0.120	-0.047
-462.099	-200.000	-0.003	0.102
-461.084	-200.000	-0.034	0.177
-460.070	-79.910	-0.487	0.166
-459.055	79.358	0.180	0.195
-458.040	107.823	-0.198	0.238
-457.026	-155.219	0.323	-0.021
-456.011	6.829	-0.353	0.266
-454.997	-142.759	0.103	0.010
-453.982	203.558	-0.074	0.116
-452.968	-200.000	-0.019	0.124
-451.953	-93.593	-0.453	-0.127
-450.938	136.719	-0.169	-0.224
-449.924	142.830	-0.030	-0.040
-448.909	-176.030	-0.290	0.008
-447.895	-200.000	0.000	-0.153
-446.880	-154.160	0.378	0.026
-445.865	-9.304	-0.117	0.079
-444.851	102.337	-0.134	-0.159
-443.836	-158.946	-0.177	-0.010
-442.822	-200.000	0.024	-0.305
-441.807	-136.627	-0.116	-0.014
-440.792	-42.508	-0.189	-0.098
-439.778	366.096	0.035	-0.072
-438.763	-106.003	-0.221	-0.050
-437.749	-200.000	-0.002	-0.098
-436.734	800.000	-0.056	-0.168
-435.719	-70.774	-0.022	-0.009
-434.705	609.676	-0.067	-0.169
-433.690	-102.858	0.451	-0.108
-432.676	-179.379	0.023	0.001
-431.661	-200.000	0.001	-0.184
-430.646	-200.000	-0.032	0.188
-429.632	62.806	0.194	0.197
-428.617	5.825	-0.419	-0.314
-427.603	97.210	-0.093	-0.108
-426.588	-200.000	0.018	-0.392
-425.573	73.054	0.077	-0.082
-424.559	214.944	0.029	-0.046
-423.544	-82.069	0.336	-0.111
-422.530	385.398	0.137	0.287
-421.515	431.705	-0.078	-0.172
-420.500	392.304	-0.064	-0.135
-419.486	800.000	-0.039	-0.170
-418.471	12.445	-0.211	0.164
-417.457	-114.363	-0.158	-0.031
-416.442	-76.431	-0.117	-0.042
-415.428	-135.514	-0.263	0.032
-414.413	40.524	-0.068	0.061
-413.398	-200.000	-0.165	0.001
-412.384	-49.907	-0.404	-0.194
-411.369	-94.018	-0.102	0.028
-410.355	-200.000	0.006	0.099
-409.340	-156.956	-0.154	0.010
-408.325	46.918	-0.193	-0.181
-407.311	754.166	0.080	0.218
-406.296	-200.000	-0.028	0.286
-405.282	-200.000	0.001	-0.105
-404.267	-39.887	0.033	-0.018
-403.252	120.823	-0.066	0.083
-402.238	-200.000	-0.018	0.175
-401.223	-110.465	-0.208	-0.044
-400.209	280.268	0.091	-0.165
-399.194	-200.000	0.040	0.233
-398.179	170.517	-0.107	0.155
-397.165	127.549	0.193	0.247
-396.150	-60.481	-0.236	0.101
-395.136	-200.000	0.018	0.140
-394.121	-93.552	0.176	-0.049
-393.106	-23.241	0.117	-0.071
-392.092	-143.611	-0.262	-0.025
-391.077	-44.560	0.390	-0.197
-390.063	-65.859	0.203	-0.082
-389.048	753.307	-0.113	-0.308
-388.033	800.000	0.023	0.103
-387.019	113.092	-0.254	0.311
-386.004	-198.701	0.406	0.002
-384.990	-200.000	0.042	-0.278
-383.975	800.000	-0.055	0.206
-382.960	-101.809	0.109	-0.027
-381.946	-200.000	-0.076	-0.362
-380.931	408.725	0.083	-0.178
-379.917	195.116	0.102	-0.156
-378.902	-118.770	0.274	-0.049
-377.888	-27.740	-0.361	-0.211
-376.873	180.373	-0.237	0.350
-375.858	-119.650	0.421	-0.073
-374.844	800.000	-0.136	-0.385
-373.829	-121.464	0.141	-0.024
-372.815	475.250	0.094	-0.214
-371.800	-87.780	-0.032	0.010
-370.785	800.000	-0.042	-0.127
-369.771	0.618	0.160	0.115
-368.756	800.000	0.018	0.072
-367.742	-132.440	0.225	-0.029
-366.727	154.200	-0.094	-0.130
-365.712	46.456	-0.159	0.149
-364.698	167.935	-0.109	0.157
-363.683	310.821	0.086	0.162
-362.669	-65.874	-0.162	-0.065
-361.654	38.221	-0.549	-0.493
-360.639	-95.627	0.297	0.080
-359.625	-51.304	0.068	0.032
-358.610	-200.000	-0.077	-0.339
-357.596	-140.371	0.075	-0.008
-356.581	-70.556	0.203	-0.077
-355.566	-200.000	0.020	0.264
-354.552	269.971	0.084	0.150
-353.537	446.974	0.128	-0.284
-352.523	322.386	0.220	-0.423
-351.508	800.000	-0.061	0.214
-350.493	220.715	0.170	0.274
-349.479	54.699	-0.095	-0.092
-348.464	-147.360	-0.202	-0.017
-347.450	-49.188	-0.025	-0.012
-346.435	183.858	-0.097	-0.145
-345.420	-119.076	0.423	-0.075
-344.406	433.982	-0.160	-0.351
-343.391	800.000	0.073	0.224
-342.377	-37.087	-0.123	0.066
-341.362	-200.000	0.003	-0.168
-340.348	-200.000	-0.055	0.459
-339.333	467.101	-0.032	0.072
-338.318	182.365	0.130	0.193
-337.304	-77.599	0.342	-0.119
-336.289	-48.199	0.094	0.046
-335.275	-200.000	0.010	0.168
-334.260	138.593	-0.096	0.127
-333.245	9.293	0.178	-0.136
-332.231	-107.867	-0.209	-0.046
-331.216	-200.000	-0.040	0.268
-330.202	-2.980	0.082	-0.057
-329.187	-31.901	-0.090	-0.051
-328.172	253.120	-0.120	0.205
-327.158	617.963	-0.040	0.101
-326.143	-189.748	0.240	-0.003
-325.129	-53.867	-0.175	-0.080
-324.114	-9.829	-0.072	0.048
-323.099	2.126	0.302	0.220
-322.085	-40.946	0.040	-0.021
-321.070	95.230	-0.129	-0.148
-320.056	-102.499	-0.091	-0.022
-319.041	-28.040	0.304	-0.177
-318.026	28.138	-0.106	0.090
-317.012	-174.398	-0.090	-0.003
-315.997	81.709	-0.215	-0.234
-314.983	800.000	0.074	0.244
-313.968	-8.496	-0.355	0.240
-312.953	12.578	0.035	0.028
-311.939	-193.365	0.243	0.002
-310.924	-200.000	0.020	0.177
-309.910	0.843	-0.092	0.066
-308.895	-174.418	-0.264	-0.008
-307.880	10.100	0.082	-0.063
-306.866	-23.126	-0.108	-0.066
-305.851	-200.000	-0.019	0.137
-304.837	-200.000	-0.095	0.513
-303.822	-33.648	0.249	-0.138
-302.807	459.576	0.074	0.165
-301.793	214.821	-0.172	0.275
-300.778	-69.148	0.148	-0.057
-299.764	22.429	-0.132	-0.108
-298.749	175.954	-0.042	-0.062
-297.735	194.133	-0.113	0.172
-296.720	68.891	0.120	-0.124
-295.705	-143.284	-0.297	0.029
-294.691	-200.000	0.014	0.085
-293.676	-64.672	0.166	-0.068
-292.662	43.856	0.104	-0.096
-291.647	702.755	-0.105	0.277
-290.632	-171.099	-0.316	-0.011
-289.618	-6.662	0.178	-0.122
-288.603	207.937	-0.072	0.114
-287.589	800.000	0.063	-0.254
-286.574	144.390	-0.169	-0.226
-285.559	221.590	-0.224	0.362
-284.545	319.614	-0.048	-0.092
-283.530	-200.000	0.012	0.411
-282.516	-76.580	0.388	0.137
-281.501	-200.000	-0.020	-0.160
-280.486	-131.325	0.219	-0.029
-279.472	135.607	-0.144	0.188
-278.457	255.668	0.062	-0.106
-277.443	163.743	-0.165	0.233
-276.428	800.000	-0.041	-0.159
-275.413	85.169	0.291	0.321
-274.399	-200.000	-0.019	-0.116
-273.384	-200.000	-0.026	-0.301
-272.370	64.927	-0.052	0.053
-271.355	-94.071	0.064	0.018
-270.340	107.277	0.146	0.174
-269.326	44.621	-0.303	-0.279
-268.311	-200.000	-0.023	0.215
-267.297	5.960	0.144	-0.107
-266.282	154.742	0.054	0.074
-265.267	63.737	0.228	0.230
-264.253	-46.080	0.311	0.154
-263.238	99.536	-0.134	0.155
-262.224	61.204	0.309	-0.308
-261.209	-129.219	0.091	-0.013
-260.195	248.663	-0.203	0.346
-259.180	-41.447	0.127	-0.065
-258.165	-41.266	-0.248	-0.129
-257.151	202.859	0.097	0.150
-256.136	-200.000	0.001	0.217
-255.122	-47.046	-0.059	-0.029
-254.107	33.103	-0.120	0.105
-253.092	-51.909	-0.015	-0.007
-252.078	245.466	0.165	0.278
-251.063	57.068	-0.123	-0.121
-250.049	-46.606	0.044	-0.022
-249.034	800.000	-0.061	-0.213
-248.019	59.129	0.054	0.053
-247.005	-62.024	0.064	0.027
-245.990	-86.627	-0.130	-0.040
-244.976	-200.000	0.033	-0.269
-243.961	314.234	-0.214	0.405
-242.946	-133.598	0.032	0.004
-241.932	-9.526	-0.218	-0.146
-240.917	-10.032	0.240	-0.160
-239.903	146.429	0.239	-0.323
-238.888	-95.542	-0.038	0.010
-237.873	-4.630	0.337	0.233
-236.859	128.676	0.265	0.339
-235.844	129.891	0.147	-0.189
-234.830	-113.665	0.115	0.023
-233.815	51.816	0.304	0.291
-232.800	800.000	-0.145	0.481
-231.786	-200.000	-0.041	-0.188
-230.771	800.000	-0.047	0.161
-229.757	-200.000	-0.056	0.277
-228.742	20.370	-0.122	-0.099
-227.727	113.991	0.106	0.129
-226.713	-144.471	-0.156	-0.014
-225.698	-26.332	0.159	-0.094
-224.684	800.000	-0.024	-0.080
-223.669	-200.000	0.011	0.121
-222.655	96.819	0.173	0.199
-221.640	250.708	0.171	-0.292
-220.625	-11.828	-0.421	-0.277
-219.611	-200.000	0.000	-0.009
-218.596	191.692	-0.133	0.201
-217.582	216.860	-0.070	0.112
-216.567	179.502	0.169	0.248
-215.552	-200.000	-0.004	0.105
-214.538	-200.000	-0.020	0.164
-213.523	127.211	0.300	-0.381
-212.509	-200.000	-0.018	-0.160
-211.494	55.850	0.327	0.318
-210.479	277.764	-0.116	-0.207
-209.465	-82.643	0.187	0.061
-208.450	145.757	0.166	0.223
-207.436	-117.891	0.141	-0.025
-206.421	402.265	0.107	0.226
-205.406	147.906	0.174	-0.235
-204.392	69.271	0.259	-0.267
-203.377	360.753	0.097	-0.196
-202.363	-39.924	0.285	-0.149
-201.348	800.000	0.059	-0.246
-200.333	-6.553	0.100	-0.068
-199.319	800.000	-0.026	-0.089
-198.304	800.000	-0.096	-0.405
-197.290	-72.259	-0.282	0.105
-196.275	211.355	0.298	-0.469
-195.260	-200.000	-0.008	0.136
-194.246	-9.099	0.113	-0.076
-193.231	-28.047	0.089	-0.051
-192.217	79.421	0.114	-0.123
-191.202	171.244	-0.144	0.207
-190.187	123.258	0.143	-0.179
-189.173	50.853	0.033	-0.031
-188.158	-200.000	0.058	0.254
-187.144	-200.000	0.021	-0.135
-186.129	-200.000	-0.003	-0.188
-185.114	-99.534	0.287	0.072
-184.100	117.201	-0.136	0.168
-183.085	-200.000	0.056	0.360
-182.071	-103.851	0.113	0.026
-181.056	209.435	-0.058	0.091
-180.042	398.536	-0.050	0.105
-179.027	-200.000	-0.002	-0.192
-178.012	8.599	0.040	0.030
-176.998	390.916	0.114	-0.237
-175.983	148.590	-0.081	0.109
-174.969	218.365	0.098	0.156
-173.954	-56.019	-0.192	0.086
-172.939	-200.000	-0.041	-0.461
-171.925	89.489	0.246	0.275
-170.910	-200.000	-0.040	-0.180
-169.896	120.985	-0.292	-0.364
-168.881	-109.574	-0.116	-0.024
-167.866	-111.157	0.196	0.040
-166.852	-200.000	-0.002	0.091
-165.837	8.844	-0.139	0.105
-164.823	-200.000	0.007	-0.511
-163.808	-136.992	0.059	0.007
-162.793	122.360	-0.243	0.304
-161.779	10.803	-0.366	-0.279
-160.764	108.403	-0.033	0.039
-159.750	-100.560	0.342	-0.085
-158.735	66.991	-0.101	0.103
-157.720	186.223	-0.194	0.288
-156.706	800.000	0.022	0.086
-155.691	-200.000	-0.068	0.324
-154.677	-42.526	-0.194	0.099
-153.662	-200.000	0.031	-0.202
-152.647	12.046	-0.372	0.286
-151.633	-10.673	-0.194	-0.128
-150.618	237.758	0.064	0.106
-149.604	246.187	-0.137	0.230
-148.589	-62.824	0.165	-0.068
-147.574	800.000	-0.059	0.196
-146.560	183.661	0.261	0.386
-145.545	-102.842	-0.147	0.035
-144.531	406.252	0.092	-0.195
-143.516	223.869	0.127	-0.205
-142.502	164.903	-0.341	-0.482
-141.487	303.068	0.139	0.257
-140.472	-200.000	0.022	0.246
-139.458	800.000	-0.079	0.293
-138.443	-200.000	0.013	0.107
-137.429	800.000	-0.065	0.274
-136.414	-15.183	0.449	0.288
-135.399	-39.897	0.173	-0.090
-134.385	-200.000	-0.032	0.151
-133.370	-21.787	0.060	-0.036
-132.356	260.436	-0.143	-0.248
-131.341	-58.154	-0.047	-0.020
-130.326	-125.474	-0.146	-0.022
-129.312	73.140	-0.087	0.091
-128.297	-117.348	0.099	-0.018
-127.283	179.727	-0.096	0.141
-126.268	-20.211	-0.309	0.190
-125.253	-200.000	-0.055	0.357
-124.239	-19.932	0.159	0.098
-123.224	-59.375	-0.190	-0.082
-122.210	-59.465	0.258	0.111
-121.195	-200.000	0.012	0.476
-120.180	-135.791	-0.150	0.018
-119.166	23.196	-0.245	0.201
-118.151	-125.230	-0.132	-0.020
-117.137	132.283	0.130	-0.168
-116.122	800.000	0.075	0.229
-115.107	149.789	0.086	0.116
-114.093	32.983	-0.293	-0.253
-113.078	800.000	-0.067	-0.246
-112.064	247.671	-0.061	0.103
-111.049	550.018	-0.105	-0.251
-110.034	-200.000	-0.010	-0.332
-109.020	532.337	-0.070	-0.166
-108.005	3.256	-0.275	-0.200
-106.991	-200.000	-0.058	0.279
-105.976	143.066	0.205	0.272
-104.962	-123.089	0.354	-0.057
-103.947	-200.000	-0.016	0.084
-102.932	-29.629	-0.317	0.181
-101.918	-89.563	-0.161	-0.047
-100.903	-200.000	0.046	-0.233
-99.889	-200.000	-0.024	-0.243
-98.874	61.816	0.091	-0.091
-97.859	-200.000	-0.048	0.368
-96.845	-79.491	-0.623	0.210
-95.830	94.416	0.119	-0.135
-94.816	-114.940	0.249	0.047
-93.801	-200.000	-0.005	-0.065
-92.786	-200.000	0.025	0.208
-91.772	-200.000	0.022	0.134
-90.757	-17.043	0.116	0.073
-89.743	232.194	0.041	-0.068
-88.728	472.175	0.133	0.299
-87.713	304.946	0.067	0.124
-86.699	-62.653	-0.082	-0.034
-85.684	-82.210	-0.142	-0.046
-84.670	-200.000	0.011	0.139
-83.655	-200.000	0.013	0.338
-82.640	-157.706	-0.139	-0.008
-81.626	800.000	-0.053	0.148
-80.611	-200.000	0.002	0.083
-79.597	82.669	0.246	-0.267
-78.582	-108.684	-0.196	0.042
-77.567	125.661	0.170	0.214
-76.553	238.962	0.098	0.162
-75.538	-64.610	-0.304	0.123
-74.524	-200.000	0.046	-0.442
-73.509	-92.590	-0.233	-0.065
-72.494	-90.404	-0.366	0.106
-71.480	-38.893	0.024	0.013
-70.465	-78.053	-0.049	-0.017
-69.451	379.318	0.063	0.129
-68.436	10.248	-0.350	0.265
-67.422	-200.000	0.009	0.143
-66.407	96.647	-0.123	0.140
-65.392	-200.000	-0.003	-0.199
-64.378	-87.270	-0.136	0.041
-63.363	-200.000	0.012	-0.071
-62.349	-127.882	0.231	0.033
-61.334	43.548	-0.652	-0.594
-60.319	800.000	0.130	0.550
-59.305	800.000	-0.170	-0.580
-58.290	212.641	0.422	0.664
-57.276	800.000	0.470	1.582
-56.261	-200.000	76.430	510.953
-55.246	514.614	1327.668	3087.959
-54.232	146.915	2555.487	3424.334
-53.217	115.784	2244.913	2736.659
-52.203	51.331	1769.975	1674.594
-51.188	44.158	1569.817	1434.696
-50.173	41.495	1539.799	1388.705
-49.159	57.673	1576.212	1535.455
-48.144	63.466	1596.189	1595.512
-47.130	44.719	1559.653	1429.121
-46.115	41.151	1545.174	1390.926
-45.100	40.973	1541.887	1386.676
-44.086	40.948	1540.028	1384.773
-43.071	40.831	1538.014	1382.092
-42.057	40.794	1536.195	1380.148
-41.042	40.894	1534.081	1378.888
-40.027	40.886	1532.980	1377.789
-39.013	40.903	1530.954	1376.027
-37.998	40.852	1530.138	1374.886
-36.984	40.863	1528.928	1373.822
-35.969	40.835	1527.443	1372.237
-34.954	40.932	1525.983	1371.543
-33.940	40.845	1524.288	1369.365
-32.925	40.928	1523.138	1368.853
-31.911	41.018	1521.706	1368.126
-30.896	40.973	1519.937	1366.175
-29.881	40.936	1519.151	1365.160
-28.867	41.069	1517.561	1364.589
-27.852	40.912	1516.697	1362.679
-26.838	41.007	1514.339	1361.159
-25.823	40.982	1512.834	1359.582
-24.809	40.995	1510.796	1357.786
-23.794	40.900	1509.938	1356.312
-22.779	40.878	1508.783	1355.067
-21.765	40.907	1507.614	1354.165
-20.750	41.010	1506.310	1353.637
-19.736	40.962	1505.303	1352.357
-18.721	40.929	1504.372	1351.236
-17.706	40.949	1503.343	1350.396
-16.692	40.945	1501.880	1349.002
-15.677	40.838	1501.043	1347.474
-14.663	40.818	1500.059	1346.399
-13.648	40.764	1499.204	1345.211
-12.633	40.899	1497.523	1344.566
-11.619	40.743	1497.473	1343.413
-10.604	40.825	1496.592	1343.122
-9.590	40.906	1495.052	1342.233
-8.575	40.886	1494.430	1341.488
-7.560	40.749	1493.949	1340.080
-6.546	40.791	1492.933	1339.394
-5.531	40.781	1492.392	1338.790
-4.517	40.789	1490.926	1337.476
-3.502	40.816	1490.199	1336.951
-2.487	40.944	1488.670	1336.389
-1.473	40.776	1488.274	1334.848
-0.458	40.848	1486.712	1333.882
0.556	41.028	1476.628	1322.221
1.571	37.642	1448.482	1274.776
2.586	33.395	1384.467	1191.674
3.600	31.215	1300.390	1106.307
4.615	29.409	1252.270	1054.958
5.629	25.022	1193.611	981.477
6.644	13.389	1101.534	846.516
7.659	3.835	1054.792	763.525
8.673	2.474	1048.168	751.980
9.688	2.231	1045.445	748.772
10.702	2.051	1043.753	746.615
11.717	2.005	1042.498	745.426
12.731	5.483	1046.175	765.017
13.746	16.260	1062.099	829.842
14.761	24.280	1072.434	877.483
15.775	25.597	1073.052	884.392
16.790	25.540	1072.381	883.481
17.804	25.357	1071.795	882.025
18.819	25.225	1071.071	880.701
19.834	25.420	1069.933	880.641
20.848	25.412	1070.014	880.594
21.863	25.667	1068.963	880.899
22.877	25.624	1068.867	880.529
23.892	25.534	1068.258	879.510
24.907	25.469	1067.244	878.282
25.921	25.504	1066.744	877.962
26.936	25.480	1066.148	877.277
27.950	25.412	1065.069	875.981
28.965	25.355	1063.768	874.555
29.980	25.237	1062.498	872.859
30.994	25.242	1061.173	871.719
32.009	25.427	1060.595	872.064
33.023	25.526	1059.823	871.834
34.038	25.434	1059.036	870.664
35.053	25.405	1057.969	869.569
36.067	25.465	1057.687	869.552
37.082	25.524	1056.241	868.569
38.096	25.550	1055.579	868.075
39.111	25.726	1055.336	868.646
40.126	25.770	1054.207	867.851
41.140	25.688	1053.236	866.581
42.155	25.395	1051.980	864.061
43.169	25.034	1050.569	861.093
44.184	24.861	1049.696	859.467
45.199	25.056	1048.489	859.341
46.213	25.010	1047.024	857.845
47.228	24.972	1046.454	857.117
48.242	25.140	1045.803	857.310
49.257	25.346	1045.079	857.626
50.271	25.345	1044.609	857.162
51.286	25.439	1044.059	857.085
52.301	25.448	1042.925	856.119
53.315	25.521	1042.574	856.100
54.330	25.459	1041.492	854.842
55.344	25.524	1040.588	854.335
56.359	25.405	1039.820	853.064
57.374	25.466	1038.937	852.551
58.388	25.182	1038.466	850.745
59.403	25.071	1037.910	849.688
60.417	25.238	1036.779	849.477
61.432	24.977	1035.888	847.436
62.447	25.031	1035.372	847.194
63.461	25.120	1034.396	846.742
64.476	25.360	1033.619	847.165
65.490	25.117	1032.949	845.392
66.505	25.010	1032.220	844.219
67.520	25.074	1031.486	843.843
68.534	25.131	1030.618	843.328
69.549	25.084	1029.914	842.455
70.563	24.716	1028.799	839.741
71.578	24.670	1028.014	838.809
72.593	24.778	1026.740	838.203
73.607	24.600	1025.824	836.549
74.622	24.513	1024.776	835.212
75.636	24.855	1024.293	836.343
76.651	24.952	1023.445	836.029
77.666	24.854	1022.707	834.895
78.680	24.827	1021.728	833.899
79.695	24.768	1021.211	833.126
80.709	24.824	1020.506	832.737
81.724	25.048	1019.618	832.979
82.739	25.026	1018.827	832.159
83.753	24.970	1018.176	831.296
84.768	25.204	1017.857	832.043
85.782	25.554	1017.185	833.042
86.797	25.966	1016.229	834.092
87.812	25.816	1015.311	832.573
88.826	25.583	1014.488	830.748
89.841	25.520	1013.794	829.816
90.855	25.637	1013.636	830.152
91.870	25.789	1012.359	829.735
92.884	25.779	1011.376	828.809
93.899	25.468	1010.700	826.753
94.914	25.491	1009.241	825.591
95.928	25.542	1008.933	825.499
96.943	25.775	1007.756	825.530
97.957	25.391	1007.054	823.122
98.972	25.082	1005.559	820.416
99.987	24.917	1004.793	818.963
101.001	25.033	1004.366	819.073
102.016	25.333	1003.925	820.013
103.030	25.477	1002.699	819.594
104.045	25.392	1001.622	818.257
105.060	25.161	1000.981	816.604
106.074	25.131	999.600	815.270
107.089	24.937	998.927	813.770
108.103	25.373	998.670	815.468
109.118	25.588	997.509	815.423
110.133	25.218	996.765	813.064
111.147	25.161	995.741	811.900
112.162	25.062	994.391	810.281
113.176	24.840	993.386	808.387
114.191	24.956	992.825	808.384
115.206	24.991	992.284	808.029
116.220	24.874	990.955	806.346
117.235	24.593	989.927	804.175
118.249	24.734	989.471	804.366
119.264	24.881	988.439	804.117
120.279	24.717	987.812	802.801
121.293	24.795	986.676	802.155
122.308	24.855	986.324	802.069
123.322	24.791	985.909	801.370
124.337	24.758	984.706	800.174
125.352	24.640	983.288	798.427
126.366	24.237	981.694	795.262
127.381	23.897	980.630	792.814
128.395	24.481	980.304	795.086
129.410	25.139	979.899	797.613
130.424	25.201	979.038	797.116
131.439	25.254	978.477	796.824
132.454	25.308	977.729	796.385
133.468	25.351	976.356	795.387
134.483	25.375	976.001	795.135
135.497	25.248	975.337	793.962
136.512	25.462	974.761	794.366
137.527	25.644	974.037	794.509
138.541	25.633	973.289	793.783
139.556	25.602	972.243	792.722
140.570	25.564	971.906	792.208
141.585	25.558	971.104	791.458
142.600	25.769	970.046	791.454
143.614	25.682	969.121	790.248
144.629	25.710	968.627	789.899
145.643	25.874	968.146	790.155
146.658	25.738	967.269	788.773
147.673	25.634	965.990	787.204
148.687	25.554	964.455	785.534
149.702	25.443	963.398	784.119
150.716	25.403	962.458	783.113
151.731	25.310	961.663	781.992
152.746	25.406	960.987	781.788
153.760	25.488	960.529	781.704
154.775	25.552	960.039	781.514
155.789	25.730	958.958	781.339
156.804	25.594	957.973	779.877
157.819	25.655	956.991	779.273
158.833	25.718	956.370	778.969
159.848	25.715	955.579	778.243
160.862	25.885	954.609	778.121
161.877	25.813	953.225	776.614
162.892	25.540	953.197	775.345
163.906	25.693	951.783	774.785
164.921	25.629	951.157	773.933
165.935	25.541	949.952	772.505
166.950	25.551	949.528	772.134
167.964	25.573	948.672	771.464
168.979	25.580	947.712	770.645
169.994	25.619	946.122	769.448
171.008	25.476	945.509	768.273
172.023	25.626	944.772	768.247
173.037	25.723	944.162	768.096
174.052	25.526	943.248	766.446
175.067	25.415	941.839	764.758
176.081	25.361	940.776	763.598
177.096	25.434	940.612	763.708
178.110	25.392	939.540	762.590
179.125	25.225	938.740	761.168
180.140	25.076	937.317	759.315
181.154	25.067	936.805	758.793
182.169	25.208	936.296	758.910
183.183	25.393	936.352	759.674
184.198	25.681	935.631	760.239
185.213	25.645	935.080	759.572
186.227	25.519	934.186	758.246
187.242	25.575	934.453	758.632
188.256	25.598	933.502	757.889
189.271	25.574	932.769	757.124
190.286	25.727	931.868	756.971
191.300	25.679	930.786	755.822
192.315	25.046	929.740	752.253
193.329	24.321	928.105	747.822
194.344	23.855	926.893	744.828
195.359	24.492	927.289	747.749
196.373	25.256	927.501	751.051
197.388	25.456	927.476	751.804
198.402	25.503	926.609	751.229
199.417	25.476	926.147	750.677
200.432	25.515	925.832	750.518
201.446	25.471	924.829	749.456
202.461	25.098	924.040	747.193
203.475	25.215	923.756	747.386
204.490	24.794	922.659	744.679
205.504	23.690	920.484	738.271
206.519	24.033	919.971	739.219
207.534	24.888	920.732	743.317
208.548	25.143	919.781	743.542
209.563	25.530	919.862	745.145
210.577	25.480	919.726	744.762
211.592	25.322	918.325	742.910
212.607	25.585	918.240	743.860
213.621	25.829	917.544	744.240
214.636	25.691	916.845	743.039
215.650	25.842	916.323	743.171
216.665	25.650	915.631	741.755
217.680	25.751	915.547	742.036
218.694	25.829	915.152	741.973
219.709	25.453	914.394	739.743
220.723	25.109	912.875	737.037
221.738	25.305	912.402	737.394
222.753	25.692	911.755	738.392
223.767	25.557	911.358	737.454
224.782	25.583	910.887	737.113
225.796	25.708	910.530	737.273
226.811	25.971	909.805	737.695
227.826	25.513	908.418	734.636
228.840	24.897	906.665	730.640
229.855	24.586	906.122	728.868
230.869	24.911	905.706	729.793
231.884	24.467	904.973	727.330
232.899	24.527	904.476	727.110
233.913	25.331	904.720	730.515
234.928	25.616	904.147	731.146
235.942	25.516	903.202	729.912
236.957	25.489	902.697	729.329
237.972	25.093	901.705	726.859
238.986	24.954	901.280	725.888
240.001	25.220	900.565	726.325
241.015	25.109	900.177	725.498
242.030	25.339	898.922	725.351
243.045	25.390	898.982	725.540
244.059	25.368	898.655	725.124
245.074	25.613	897.782	725.344
246.088	25.573	897.188	724.638
247.103	25.245	896.443	722.652
248.117	25.147	896.231	722.021
249.132	25.829	895.914	724.446
250.147	26.252	895.400	725.669
251.161	26.224	894.904	725.088
252.176	26.486	894.562	725.799
253.190	26.395	894.045	724.951
254.205	26.433	893.394	724.511
255.220	26.546	893.183	724.728
256.234	26.432	892.683	723.800
257.249	26.484	891.922	723.329
258.263	26.321	891.176	722.009
259.278	26.289	890.636	721.380
260.293	26.350	890.187	721.195
261.307	26.479	889.346	720.965
262.322	26.509	888.779	720.560
263.336	26.366	888.065	719.349
264.351	25.839	886.796	716.164
265.366	24.789	884.935	710.429
266.380	24.190	884.208	707.404
267.395	25.111	884.520	711.249
268.409	26.046	884.404	714.798
269.424	25.919	883.182	713.244
270.439	26.034	883.239	713.683
271.453	26.306	882.391	714.011
272.468	26.256	881.881	713.337
273.482	26.324	881.700	713.393
274.497	26.421	881.873	713.855
275.512	26.303	880.303	712.057
276.526	25.761	878.756	708.610
277.541	25.793	878.884	708.775
278.555	26.163	878.771	710.075
279.570	26.098	877.914	709.065
280.585	25.883	877.164	707.554
281.599	25.990	876.695	707.532
282.614	25.918	876.707	707.199
283.628	25.660	875.170	704.884
284.643	25.324	874.188	702.717
285.657	25.751	874.315	704.427
286.672	25.758	872.863	703.222
287.687	25.261	871.869	700.421
288.701	25.490	871.971	701.334
289.716	25.953	872.189	703.255
290.730	25.579	871.193	700.930
291.745	25.402	870.555	699.668
292.760	25.121	869.539	697.694
293.774	25.114	868.856	697.057
294.789	26.137	869.289	701.321
295.803	26.730	869.532	703.756
296.818	26.772	869.074	703.489
297.833	26.749	868.582	702.937
298.847	26.638	867.259	701.375
299.862	26.129	866.503	698.731
300.876	26.414	865.871	699.264
301.891	26.664	866.034	700.297
302.906	26.729	865.807	700.303
303.920	26.349	864.376	697.618
304.935	26.237	863.730	696.602
305.949	26.783	862.938	698.006
306.964	26.930	862.561	698.206
307.979	26.558	862.306	696.505
308.993	26.469	861.698	695.612
310.008	26.720	861.579	696.417
311.022	26.934	860.799	696.549
312.037	26.719	860.427	695.360
313.052	26.558	859.465	693.906
314.066	26.306	859.082	692.569
315.081	25.797	857.125	688.983
316.095	24.825	856.217	684.476
317.110	25.471	856.040	686.743
318.125	26.391	856.472	690.544
319.139	25.992	855.493	688.170
320.154	24.801	853.881	682.274
321.168	24.387	852.921	679.869
322.183	25.014	852.941	682.213
323.197	25.726	853.827	685.576
324.212	26.120	853.462	686.719
325.227	26.397	852.594	687.014
326.241	26.513	852.291	687.150
327.256	26.412	851.754	686.271
328.270	26.257	850.999	685.016
329.285	26.225	850.508	684.438
330.300	26.032	849.822	683.094
331.314	25.819	848.814	681.419
332.329	25.731	848.693	680.927
333.343	26.300	848.280	682.687
334.358	26.515	848.166	683.347
335.373	26.511	847.632	682.840
336.387	26.577	846.737	682.308
337.402	26.897	846.143	682.975
338.416	26.952	846.005	683.010
339.431	26.997	845.583	682.777
340.446	26.962	845.033	682.144
341.460	27.278	844.466	682.811
342.475	27.326	843.591	682.223
343.489	27.160	842.895	680.976
344.504	26.969	842.749	680.085
345.519	27.149	842.443	680.451
346.533	27.408	842.093	681.076
347.548	27.445	841.639	680.786
348.562	27.551	841.087	680.678
349.577	27.415	840.341	679.504
350.592	27.475	839.671	679.127
351.606	27.224	839.630	678.097
352.621	27.258	838.982	677.642
353.635	27.240	838.443	677.080
354.650	27.085	837.885	675.991
355.665	26.927	836.734	674.416
356.679	25.639	835.444	668.534
357.694	25.622	834.708	667.824
358.708	26.320	834.956	670.554
359.723	26.308	834.040	669.712
360.738	26.505	834.114	670.443
361.752	26.907	833.879	671.685
362.767	26.961	833.505	671.522
363.781	27.267	833.541	672.626
364.796	27.566	832.976	673.212
365.810	27.640	832.716	673.218
366.825	27.695	832.495	673.182
367.840	27.746	832.148	673.029
368.854	27.579	831.456	671.796
369.869	27.162	830.466	669.401
370.883	27.048	829.713	668.315
371.898	27.208	829.030	668.294
372.913	27.136	828.163	667.270
373.927	27.150	827.830	666.995
374.942	27.228	827.421	666.892
375.956	27.324	826.771	666.662
376.971	27.517	826.288	666.922
377.986	27.608	825.805	666.805
379.000	27.612	825.805	666.758
380.015	27.836	825.178	667.011
381.029	27.657	824.018	665.362
382.044	27.373	823.636	663.959
383.059	27.771	823.116	664.933
384.073	27.672	822.691	664.169
385.088	27.593	822.286	663.495
386.102	27.677	821.704	663.275
387.117	27.634	821.031	662.514
388.132	27.473	820.056	661.086
389.146	27.256	819.808	660.038
390.161	26.652	818.720	656.915
391.175	26.753	818.432	656.993
392.190	27.324	818.760	659.269
393.205	27.275	818.188	658.572
394.219	26.273	816.244	653.327
395.234	24.859	813.951	646.333
396.248	23.901	812.740	641.856
397.263	24.949	813.657	646.308
398.278	26.789	814.947	653.921
399.292	27.430	814.904	656.139
400.307	26.951	814.430	653.975
401.321	26.956	814.092	653.660
402.336	27.099	813.351	653.522
403.350	27.348	813.299	654.319
404.365	27.717	813.635	655.859
405.380	28.099	813.415	656.995
406.394	28.261	813.271	657.403
407.409	28.503	812.872	657.890
408.423	28.390	812.145	656.839
409.438	28.302	811.481	655.930
410.453	28.380	811.087	655.832
411.467	28.537	810.578	655.923
412.482	28.491	810.133	655.343
413.496	28.340	809.520	654.248
414.511	28.472	809.328	654.504
415.526	28.456	808.659	653.851
416.540	28.522	808.507	653.904
417.555	28.470	807.735	653.037
418.569	28.248	807.060	651.643
419.584	28.096	806.691	650.746
420.599	28.195	805.893	650.398
421.613	95.314	1263.466	1376.245
422.628	81.804	1330.172	1376.391
