DTS Sentinel unit serial number:	SN413079Multiplexer serial number:	ORYXHardware model number:	OX4-SRSoftware version number:	ORYX F/W v4.00 Oryx Data Collector v3.7.2.0data status	okinstallation	princeton_trtdifferential loss correction	single-endedforward channel	channel 3reverse channel	N/Adate	2019/09/13time	22:48:34forward acquisition time	60.00reverse acquisition time	0.00gamma	496.2192k internal	0.2337k external	0.2337temperature offset calibration	1.0061default loss term (dB/km)	0.3790temperature slope calibration	1.0000multiplexer offset coefficient	1.0000multiplexer slope coefficient	1.0000fibre end	0.00T internal ref (°C)	27.53T ext. ref 1 (°C)	3.21T ext. ref 2 (°C)	21.59length (m)	temperature (°C)	Stokes	anti-Stokes-747.200	406.581	-0.033	0.069
-746.185	202.826	0.145	0.225
-745.171	414.585	0.009	-0.019
-744.156	-17.983	0.098	0.062
-743.142	-125.218	0.024	0.004
-742.127	-15.260	-0.223	0.143
-741.112	-168.005	0.155	0.006
-740.098	-4.565	0.487	0.338
-739.083	406.236	-0.037	-0.078
-738.069	-111.478	-0.281	0.057
-737.054	-55.132	0.315	0.142
-736.039	-200.000	-0.009	-0.059
-735.025	656.357	0.049	0.125
-734.010	-122.059	0.108	-0.018
-732.996	800.000	0.083	-0.308
-731.981	67.166	0.100	0.102
-730.966	-64.099	0.094	0.038
-729.952	64.394	0.144	0.146
-728.937	-9.667	-0.358	0.239
-727.923	5.630	-0.250	0.185
-726.908	-23.874	-0.455	0.273
-725.894	94.832	0.144	0.165
-724.879	230.153	0.102	0.167
-723.864	59.866	-0.212	0.210
-722.850	-153.161	0.152	0.011
-721.835	654.785	0.049	-0.127
-720.821	46.450	0.086	-0.080
-719.806	-88.202	0.365	-0.110
-718.791	-35.922	-0.263	0.143
-717.777	341.822	-0.036	-0.071
-716.762	290.259	0.083	-0.151
-715.748	800.000	0.132	0.391
-714.733	800.000	-0.023	-0.079
-713.718	-137.845	0.279	-0.031
-712.704	800.000	-0.074	-0.267
-711.689	329.802	-0.112	0.216
-710.675	800.000	0.015	0.045
-709.660	316.363	0.059	-0.112
-708.645	-136.174	0.278	0.033
-707.631	-93.449	0.284	0.079
-706.616	-20.717	0.235	-0.144
-705.602	-200.000	-0.017	-0.151
-704.587	-89.629	-0.183	-0.054
-703.572	37.480	0.224	0.199
-702.558	10.442	-0.302	-0.230
-701.543	-200.000	0.056	-0.438
-700.529	-157.236	-0.125	-0.008
-699.514	-200.000	0.035	-0.264
-698.499	-148.733	-0.230	0.019
-697.485	800.000	0.034	0.149
-696.470	-103.067	-0.219	-0.052
-695.456	54.147	-0.150	0.145
-694.441	163.391	0.078	-0.110
-693.426	-147.368	-0.186	-0.016
-692.412	-61.667	-0.182	-0.076
-691.397	125.111	0.130	0.164
-690.383	86.225	0.385	0.425
-689.368	-108.591	-0.303	-0.065
-688.354	-121.798	-0.099	0.016
-687.339	-200.000	0.026	-0.267
-686.324	38.483	0.225	-0.201
-685.310	-200.000	-0.027	-0.171
-684.295	433.295	0.062	0.134
-683.281	800.000	-0.061	-0.245
-682.266	800.000	-0.051	-0.205
-681.251	800.000	0.007	-0.027
-680.237	-36.851	-0.213	-0.114
-679.222	184.923	-0.147	-0.218
-678.208	-74.461	0.151	-0.055
-677.193	-109.018	0.279	-0.060
-676.178	672.424	-0.148	-0.384
-675.164	-198.095	0.338	-0.002
-674.149	-87.548	0.230	0.070
-673.135	270.552	0.075	-0.133
-672.120	34.072	0.213	0.186
-671.105	273.377	-0.189	-0.335
-670.091	-89.480	0.126	-0.037
-669.076	800.000	-0.072	0.215
-668.062	5.600	-0.191	-0.141
-667.047	-12.456	0.236	-0.154
-666.032	-200.000	-0.009	0.200
-665.018	-200.000	0.025	-0.180
-664.003	-46.635	0.134	-0.066
-662.989	-88.309	-0.093	0.028
-661.974	-106.910	-0.277	0.061
-660.959	241.443	-0.143	0.239
-659.945	122.375	0.205	-0.257
-658.930	67.848	-0.182	-0.186
-657.916	-57.949	0.097	-0.042
-656.901	25.619	-0.338	-0.281
-655.886	-99.680	0.197	-0.050
-654.872	-200.000	0.016	0.161
-653.857	-200.000	0.019	0.255
-652.843	94.125	0.291	-0.331
-651.828	44.573	-0.145	0.133
-650.814	26.004	-0.074	0.062
-649.799	575.730	-0.125	0.306
-648.784	193.660	0.063	-0.096
-647.770	586.858	0.167	-0.411
-646.755	183.827	-0.138	-0.204
-645.741	443.472	-0.127	-0.280
-644.726	70.849	-0.023	0.024
-643.711	-102.405	0.347	-0.083
-642.697	7.512	-0.054	-0.041
-641.682	416.045	-0.092	0.197
-640.668	332.328	-0.097	-0.188
-639.653	2.106	-0.141	-0.102
-638.638	-117.222	-0.239	-0.043
-637.624	697.311	-0.106	-0.278
-636.609	-200.000	-0.011	0.217
-635.595	800.000	-0.128	0.387
-634.580	800.000	-0.086	0.316
-633.565	-82.794	-0.138	-0.045
-632.551	352.660	-0.170	-0.336
-631.536	-17.600	-0.096	-0.060
-630.522	680.637	-0.070	-0.181
-629.507	800.000	-0.072	0.268
-628.492	-200.000	0.024	-0.255
-627.478	-66.542	0.072	-0.028
-626.463	395.800	0.096	-0.200
-625.449	-200.000	0.034	-0.160
-624.434	64.346	0.265	0.267
-623.419	252.414	0.098	0.167
-622.405	29.166	-0.263	0.223
-621.390	15.141	0.187	0.147
-620.376	800.000	-0.120	-0.355
-619.361	-53.241	-0.285	-0.131
-618.346	188.637	-0.099	-0.149
-617.332	437.716	0.148	0.322
-616.317	-117.131	-0.216	-0.039
-615.303	-114.509	0.247	0.047
-614.288	-7.382	0.212	-0.143
-613.273	100.563	-0.227	-0.264
-612.259	-92.528	0.193	0.054
-611.244	-105.716	-0.345	0.078
-610.230	-131.708	0.121	0.016
-609.215	159.795	-0.165	0.229
-608.201	-200.000	0.002	-0.079
-607.186	-184.032	0.195	0.003
-606.171	173.552	-0.071	0.103
-605.157	-93.301	-0.238	-0.066
-604.142	-133.319	-0.253	0.032
-603.128	-200.000	0.021	-0.321
-602.113	-69.440	-0.267	0.102
-601.098	-41.211	0.136	0.070
-600.084	74.845	-0.202	0.212
-599.069	-200.000	-0.008	0.097
-598.055	85.903	-0.028	0.031
-597.040	151.789	-0.085	0.116
-596.025	-117.040	-0.437	0.080
-595.011	59.810	0.237	0.233
-593.996	-200.000	-0.038	0.243
-592.982	73.316	-0.065	-0.068
-591.967	-56.040	0.177	0.079
-590.952	-125.573	-0.237	0.036
-589.938	95.846	0.115	0.131
-588.923	112.447	-0.229	-0.277
-587.909	-96.596	0.376	-0.099
-586.894	-200.000	-0.053	0.286
-585.879	-43.914	0.084	0.042
-584.865	74.539	0.252	0.265
-583.850	-200.000	-0.026	0.173
-582.836	800.000	0.057	-0.181
-581.821	-112.648	0.265	-0.053
-580.806	-127.874	0.233	0.034
-579.792	604.109	0.116	-0.289
-578.777	-128.341	-0.130	0.019
-577.763	118.533	0.075	0.092
-576.748	218.491	-0.131	-0.209
-575.733	-94.185	-0.175	-0.048
-574.719	-102.396	0.396	0.095
-573.704	726.933	-0.079	-0.210
-572.690	-53.424	-0.306	0.140
-571.675	800.000	0.018	0.063
-570.661	283.170	0.116	0.208
-569.646	54.921	0.536	0.516
-568.631	-122.979	0.257	0.041
-567.617	-21.953	-0.148	0.090
-566.602	487.722	-0.063	-0.144
-565.588	-43.474	-0.149	0.075
-564.573	67.356	0.066	0.067
-563.558	-200.000	-0.031	-0.546
-562.544	-83.174	-0.458	-0.147
-561.529	-200.000	0.031	0.166
-560.515	800.000	-0.024	0.071
-559.500	-106.228	0.093	0.021
-558.485	-41.641	0.292	0.149
-557.471	-200.000	0.065	0.414
-556.456	-28.436	-0.079	0.046
-555.442	30.951	-0.207	-0.177
-554.427	280.186	-0.081	0.144
-553.412	-141.774	-0.140	-0.014
-552.398	-47.246	0.159	-0.077
-551.383	547.795	0.109	0.261
-550.369	-160.847	-0.282	-0.015
-549.354	-175.661	0.185	0.005
-548.339	-119.070	0.216	-0.038
-547.325	-200.000	0.013	-0.058
-546.310	22.403	-0.240	0.196
-545.296	514.381	0.087	0.202
-544.281	41.938	0.119	0.108
-543.266	-153.820	0.147	0.010
-542.252	-166.737	-0.054	0.002
-541.237	128.892	0.055	0.070
-540.223	800.000	-0.091	-0.290
-539.208	-30.188	-0.187	0.106
-538.193	420.995	0.095	0.202
-537.179	800.000	0.024	-0.094
-536.164	-133.767	-0.286	0.035
-535.150	645.264	-0.096	0.243
-534.135	-8.542	0.079	-0.053
-533.121	102.038	0.050	-0.058
-532.106	-91.463	0.129	-0.037
-531.091	-44.017	-0.227	-0.114
-530.077	188.070	0.250	-0.371
-529.062	-200.000	-0.041	-0.460
-528.048	-7.184	-0.184	-0.124
-527.033	14.443	-0.178	0.139
-526.018	-114.700	-0.155	-0.030
-525.004	-185.795	0.104	-0.002
-523.989	786.085	-0.063	0.173
-522.975	-200.000	-0.069	0.341
-521.960	-200.000	-0.043	-0.319
-520.945	227.954	0.244	0.395
-519.931	-1.914	0.063	-0.044
-518.916	97.965	-0.274	-0.314
-517.902	209.555	-0.161	0.251
-516.887	-200.000	-0.012	-0.235
-515.872	-147.585	-0.216	-0.018
-514.858	110.025	-0.092	0.110
-513.843	358.017	0.145	-0.288
-512.829	3.867	-0.158	-0.115
-511.814	102.623	-0.068	-0.079
-510.799	-95.031	0.146	0.039
-509.785	-162.880	-0.141	0.007
-508.770	89.723	-0.093	0.104
-507.756	-125.454	-0.207	-0.031
-506.741	569.745	0.136	0.328
-505.726	476.767	-0.033	-0.075
-504.712	-200.000	0.001	-0.072
-503.697	98.210	0.207	0.237
-502.683	-153.089	-0.237	-0.017
-501.668	70.612	-0.197	0.202
-500.653	-173.813	0.390	0.012
-499.639	800.000	-0.071	0.300
-498.624	800.000	0.072	0.200
-497.610	103.203	0.163	-0.190
-496.595	479.579	-0.249	-0.562
-495.581	543.455	0.171	-0.405
-494.566	-8.152	0.167	-0.112
-493.551	-200.000	-0.029	-0.174
-492.537	57.909	-0.371	0.361
-491.522	122.752	0.254	0.316
-490.508	201.507	0.121	0.186
-489.493	20.824	-0.142	-0.114
-488.478	-135.894	0.184	-0.022
-487.464	-126.636	-0.273	0.040
-486.449	15.510	0.087	0.068
-485.435	-200.000	-0.051	-0.309
-484.420	-13.579	-0.210	0.135
-483.405	103.806	0.196	-0.228
-482.391	58.113	-0.093	-0.090
-481.376	303.060	-0.203	-0.373
-480.362	-2.816	-0.077	0.054
-479.347	53.595	0.074	0.071
-478.332	122.408	0.049	0.061
-477.318	-200.000	-0.004	-0.168
-476.303	-84.154	0.083	-0.026
-475.289	12.425	0.221	0.169
-474.274	258.993	0.078	-0.133
-473.259	800.000	0.071	-0.202
-472.245	-66.408	0.363	-0.143
-471.230	-198.522	-0.156	0.001
-470.216	27.751	-0.104	-0.087
-469.201	-128.835	-0.125	-0.018
-468.186	8.178	0.056	-0.042
-467.172	-84.159	-0.202	0.064
-466.157	59.133	0.253	-0.248
-465.143	800.000	0.059	-0.202
-464.128	800.000	0.055	-0.153
-463.113	-9.192	-0.152	-0.101
-462.099	118.167	0.041	-0.050
-461.084	-200.000	-0.001	0.009
-460.070	74.486	-0.259	0.270
-459.055	-200.000	0.076	0.377
-458.040	-31.359	-0.201	0.112
-457.026	276.514	0.199	0.352
-456.011	-30.146	-0.048	-0.027
-454.997	92.446	-0.116	0.130
-453.982	-78.162	-0.058	-0.020
-452.968	-200.000	-0.003	-0.092
-451.953	119.849	-0.186	-0.228
-450.938	-200.000	0.031	-0.169
-449.924	-7.584	-0.015	-0.010
-448.909	-86.667	-0.093	-0.028
-447.895	-200.000	0.000	-0.219
-446.880	800.000	-0.011	-0.048
-445.865	76.855	-0.218	-0.230
-444.851	800.000	-0.086	-0.246
-443.836	342.326	-0.095	-0.185
-442.822	-124.310	0.222	0.034
-441.807	341.692	0.068	-0.131
-440.792	78.371	0.084	-0.089
-439.778	131.555	0.090	-0.114
-438.763	800.000	-0.057	-0.183
-437.749	-153.241	-0.476	0.033
-436.734	63.116	-0.136	0.136
-435.719	14.672	-0.182	0.141
-434.705	38.068	-0.130	0.114
-433.690	-105.783	-0.209	0.047
-432.676	89.462	-0.219	-0.242
-431.661	-200.000	-0.023	-0.136
-430.646	-1.204	-0.426	-0.298
-429.632	171.471	-0.078	0.111
-428.617	-75.620	-0.190	0.067
-427.603	-103.636	0.202	0.047
-426.588	-10.306	-0.168	-0.110
-425.573	-200.000	0.007	0.499
-424.559	-145.066	-0.250	0.023
-423.544	-200.000	-0.020	0.391
-422.530	800.000	-0.110	0.362
-421.515	-15.975	-0.110	-0.069
-420.500	-187.451	0.213	-0.003
-419.486	800.000	0.021	0.078
-418.471	-200.000	-0.016	-0.206
-417.457	192.020	0.043	-0.065
-416.442	800.000	-0.088	-0.360
-415.428	217.810	0.211	0.333
-414.413	-102.358	-0.218	-0.052
-413.398	341.949	0.063	0.123
-412.384	-51.228	-0.270	-0.125
-411.369	21.015	0.232	-0.186
-410.355	-200.000	-0.035	-0.301
-409.340	645.148	-0.112	0.282
-408.325	800.000	0.049	-0.141
-407.311	163.082	-0.284	-0.395
-406.296	315.618	0.080	-0.149
-405.282	800.000	0.160	-0.453
-404.267	800.000	-0.025	0.107
-403.252	560.909	-0.096	0.230
-402.238	-93.666	0.309	0.085
-401.223	513.904	0.060	-0.139
-400.209	-140.646	-0.320	-0.033
-399.194	130.657	-0.157	-0.199
-398.179	-138.100	0.304	0.034
-397.165	800.000	0.046	0.168
-396.150	72.216	-0.265	0.273
-395.136	-200.000	-0.009	0.311
-394.121	800.000	0.078	0.237
-393.106	187.697	0.072	-0.107
-392.092	413.876	0.119	0.252
-391.077	85.034	0.200	-0.217
-390.063	-145.612	0.229	-0.020
-389.048	800.000	0.060	0.225
-388.033	28.395	-0.232	0.195
-387.019	40.129	-0.131	0.117
-386.004	45.428	0.068	0.062
-384.990	-200.000	0.023	0.179
-383.975	-25.091	0.320	-0.188
-382.960	-110.670	0.118	-0.024
-381.946	-114.132	0.116	0.022
-380.931	519.204	0.031	0.073
-379.917	686.327	-0.092	0.238
-378.902	-45.429	-0.112	-0.055
-377.888	-128.072	0.277	0.039
-376.873	363.422	-0.073	-0.146
-375.858	-200.000	-0.018	-0.278
-374.844	-59.385	-0.027	-0.011
-373.829	-105.900	-0.075	-0.017
-372.815	-9.636	0.401	-0.264
-371.800	-200.000	-0.041	-0.600
-370.785	-176.318	-0.342	-0.009
-369.771	77.510	-0.219	-0.231
-368.756	800.000	-0.060	-0.192
-367.742	141.818	-0.154	0.201
-366.727	9.794	-0.161	-0.121
-365.712	-118.723	-0.214	-0.037
-364.698	287.320	-0.075	-0.133
-363.683	-36.744	0.217	0.115
-362.669	-7.459	0.235	0.157
-361.654	145.671	0.056	-0.074
-360.639	-64.291	-0.240	-0.097
-359.625	-109.997	0.282	0.058
-358.610	-25.396	-0.245	-0.143
-357.596	339.827	0.072	-0.138
-356.581	155.140	0.024	-0.033
-355.566	-46.111	-0.255	-0.124
-354.552	-150.158	-0.310	-0.024
-353.537	601.397	0.144	-0.353
-352.523	167.624	-0.118	-0.165
-351.508	104.586	-0.124	0.144
-350.493	140.884	-0.054	0.071
-349.479	27.194	0.122	0.101
-348.464	-106.997	0.258	0.056
-347.450	-87.198	0.360	-0.108
-346.435	-44.046	0.046	-0.023
-345.420	119.852	0.050	-0.061
-344.406	-198.220	0.194	0.001
-343.391	-28.241	-0.065	-0.037
-342.377	-78.072	0.337	-0.115
-341.362	-74.590	0.314	0.112
-340.348	56.580	-0.163	0.157
-339.333	-28.590	-0.225	0.128
-338.318	91.178	0.122	-0.135
-337.304	-8.579	-0.090	0.060
-336.289	216.878	0.173	0.273
-335.275	-200.000	0.043	-0.188
-334.260	-200.000	-0.002	-0.235
-333.245	9.372	0.208	0.155
-332.231	142.470	0.143	0.188
-331.216	192.444	-0.151	0.225
-330.202	-27.768	0.214	-0.123
-329.187	-200.000	-0.030	0.151
-328.172	-63.571	-0.208	0.084
-327.158	-88.690	0.227	0.067
-326.143	800.000	0.080	0.260
-325.129	-74.534	0.756	0.269
-324.114	-117.066	0.119	-0.021
-323.099	-4.785	0.411	-0.280
-322.085	800.000	-0.068	0.242
-321.070	-101.224	0.187	0.045
-320.056	800.000	0.003	0.011
-319.041	-108.960	-0.491	-0.103
-318.026	-21.176	-0.302	-0.182
-317.012	800.000	0.069	0.280
-315.997	800.000	-0.075	0.283
-314.983	319.570	-0.084	0.158
-313.968	17.609	0.385	0.302
-312.953	800.000	-0.079	0.298
-311.939	24.835	0.257	-0.211
-310.924	800.000	0.007	0.029
-309.910	74.267	-0.099	-0.102
-308.895	-111.327	0.228	0.046
-307.880	-41.261	0.058	-0.029
-306.866	-200.000	0.032	0.330
-305.851	-155.927	0.006	-0.000
-304.837	602.192	-0.021	-0.052
-303.822	87.070	0.173	-0.188
-302.807	507.087	-0.020	-0.045
-301.793	501.970	0.058	0.133
-300.778	562.559	-0.028	0.067
-299.764	-200.000	0.038	-0.372
-298.749	-200.000	0.018	0.123
-297.735	7.303	-0.233	0.172
-296.720	-181.030	-0.023	-0.000
-295.705	-108.451	-0.233	0.049
-294.691	-200.000	-0.029	0.144
-293.676	-200.000	0.013	-0.183
-292.662	-23.687	0.173	-0.102
-291.647	-157.201	-0.090	-0.005
-290.632	-200.000	0.002	0.409
-289.618	217.654	-0.175	0.276
-288.603	21.044	0.169	-0.135
-287.589	-37.909	-0.131	-0.069
-286.574	537.632	-0.102	-0.240
-285.559	800.000	0.071	-0.224
-284.545	24.469	-0.081	-0.066
-283.530	-98.023	-0.089	-0.023
-282.516	-69.928	0.135	0.051
-281.501	800.000	0.116	-0.406
-280.486	-37.557	0.212	0.112
-279.472	72.747	-0.197	0.203
-278.457	-158.293	0.271	-0.016
-277.443	800.000	0.087	0.317
-276.428	-71.283	0.152	-0.056
-275.413	130.686	0.127	0.161
-274.399	-128.229	-0.150	0.021
-273.384	-200.000	-0.006	-0.051
-272.370	68.097	-0.222	0.223
-271.355	643.887	-0.172	0.434
-270.340	566.438	0.078	0.187
-269.326	-31.645	0.175	0.097
-268.311	800.000	-0.021	-0.078
-267.297	-94.482	0.361	0.097
-266.282	86.130	0.141	-0.153
-265.267	-200.000	-0.011	-0.246
-264.253	-135.197	-0.281	-0.033
-263.238	-20.270	0.034	0.021
-262.224	22.984	-0.072	-0.058
-261.209	800.000	-0.053	-0.198
-260.195	-88.495	-0.306	-0.090
-259.180	-200.000	0.021	-0.122
-258.165	-95.960	-0.198	0.052
-257.151	169.565	0.148	-0.208
-256.136	-162.050	-0.176	0.009
-255.122	-168.109	-0.145	0.006
-254.107	118.206	0.052	-0.064
-253.092	254.164	0.027	0.046
-252.078	249.785	-0.192	-0.320
-251.063	32.569	-0.046	-0.040
-250.049	-8.735	0.118	-0.078
-249.034	-91.690	-0.064	-0.018
-248.019	2.730	-0.138	0.098
-247.005	76.300	-0.047	-0.049
-245.990	286.512	0.033	0.059
-244.976	-129.148	0.183	0.025
-243.961	308.681	0.257	0.472
-242.946	800.000	0.097	0.298
-241.932	-99.655	0.297	-0.073
-240.917	200.904	-0.129	-0.195
-239.903	780.216	-0.086	-0.232
-238.888	-200.000	0.010	0.050
-237.873	-66.626	-0.202	0.079
-236.859	-75.297	-0.176	0.062
-235.844	-200.000	0.003	0.223
-234.830	-200.000	0.035	-0.158
-233.815	-69.513	-0.084	-0.032
-232.800	411.349	0.121	-0.253
-231.786	129.333	-0.126	-0.159
-230.771	800.000	-0.015	-0.051
-229.757	27.698	-0.123	0.102
-228.742	-94.109	0.262	-0.071
-227.727	59.716	0.088	0.086
-226.713	264.197	0.117	0.201
-225.698	99.891	0.077	0.088
-224.684	-142.326	0.202	0.020
-223.669	800.000	0.032	-0.099
-222.655	-200.000	-0.008	0.083
-221.640	54.975	0.283	0.269
-220.625	-95.582	0.243	-0.064
-219.611	641.999	-0.045	-0.113
-218.596	-64.312	-0.160	-0.064
-217.582	261.051	0.138	0.235
-216.567	75.944	0.257	0.267
-215.552	346.194	0.042	-0.080
-214.538	-200.000	-0.003	-0.209
-213.523	-7.268	0.291	0.194
-212.509	-200.000	-0.011	-0.154
-211.494	69.828	0.158	-0.160
-210.479	140.782	0.121	-0.157
-209.465	-200.000	0.033	-0.455
-208.450	400.834	0.072	0.148
-207.436	-47.280	0.224	-0.107
-206.421	-135.932	0.074	0.009
-205.406	-200.000	0.039	-0.280
-204.392	-82.730	0.222	-0.071
-203.377	-200.000	0.015	0.087
-202.363	333.063	0.145	0.276
-201.348	290.558	0.054	0.097
-200.333	-71.495	0.241	-0.089
-199.319	309.818	0.109	0.200
-198.304	-180.609	0.158	0.003
-197.290	800.000	0.023	0.074
-196.275	168.619	-0.196	-0.274
-195.260	-100.246	0.200	0.049
-194.246	-109.503	0.396	0.082
-193.231	800.000	0.041	0.139
-192.217	-137.833	-0.312	0.034
-191.202	-112.710	0.197	-0.038
-190.187	52.071	-0.163	0.153
-189.173	55.439	-0.283	0.269
-188.158	-113.625	-0.358	0.069
-187.144	-59.243	0.137	-0.058
-186.129	-56.704	0.394	0.171
-185.114	2.747	-0.104	0.074
-184.100	-200.000	-0.002	0.260
-183.085	147.075	-0.138	-0.183
-182.071	-100.273	0.182	0.044
-181.056	-7.714	-0.042	0.028
-180.042	7.430	-0.309	-0.227
-179.027	-23.703	-0.182	-0.107
-178.012	-139.456	0.177	0.019
-176.998	-102.282	0.087	0.021
-175.983	-62.153	0.123	0.050
-174.969	800.000	-0.084	0.330
-173.954	224.875	0.062	0.099
-172.939	-200.000	0.004	0.118
-171.925	-200.000	0.009	-0.065
-170.910	779.855	0.047	0.125
-169.896	-158.391	-0.191	-0.011
-168.881	51.688	-0.314	-0.293
-167.866	-91.231	-0.185	-0.052
-166.852	-101.824	0.168	0.040
-165.837	215.580	0.240	-0.374
-164.823	784.822	-0.021	0.057
-163.808	267.465	-0.204	-0.350
-162.793	800.000	0.025	-0.105
-161.779	-200.000	-0.029	-0.146
-160.764	78.651	0.237	-0.249
-159.750	300.124	0.063	0.113
-158.735	134.470	-0.155	-0.197
-157.720	32.499	0.220	0.186
-156.706	-74.485	0.026	0.009
-155.691	93.153	-0.135	0.150
-154.677	563.045	0.118	0.279
-153.662	110.074	-0.076	0.089
-152.647	-24.637	0.193	-0.113
-151.633	-77.206	-0.208	0.071
-150.618	-200.000	0.007	0.151
-149.604	61.714	0.023	-0.022
-148.589	23.580	-0.074	0.059
-147.574	35.751	-0.208	-0.180
-146.560	800.000	0.094	0.266
-145.545	198.265	0.071	-0.107
-144.531	4.482	-0.163	0.117
-143.516	-23.075	-0.336	-0.198
-142.502	-32.302	0.332	-0.182
-141.487	-134.553	0.287	-0.034
-140.472	47.415	0.080	-0.073
-139.458	-129.472	0.253	0.034
-138.443	512.584	0.096	0.218
-137.429	-10.959	-0.116	0.075
-136.414	-51.048	0.173	0.080
-135.399	-176.661	0.364	0.009
-134.385	-0.130	0.222	-0.155
-133.370	186.057	-0.072	0.105
-132.356	-89.581	-0.293	-0.084
-131.341	-200.000	0.008	-0.135
-130.326	-200.000	-0.060	-0.305
-129.312	13.654	0.143	0.108
-128.297	-118.344	-0.299	0.052
-127.283	-178.067	-0.373	-0.009
-126.268	45.628	-0.399	0.362
-125.253	546.502	0.128	-0.301
-124.239	262.377	-0.069	0.117
-123.224	-30.051	0.176	0.098
-122.210	-188.359	0.252	0.003
-121.195	484.692	0.061	0.136
-120.180	-26.339	0.062	-0.036
-119.166	104.886	-0.123	0.142
-118.151	-181.478	-0.078	-0.001
-117.137	-200.000	-0.003	0.433
-116.122	3.922	0.351	0.251
-115.107	-154.418	0.265	0.017
-114.093	66.626	0.095	0.095
-113.078	-108.444	0.236	-0.050
-112.064	-200.000	-0.005	0.112
-111.049	800.000	-0.018	0.067
-110.034	421.052	-0.057	-0.121
-109.020	10.165	-0.283	-0.210
-108.005	-64.773	0.255	-0.101
-106.991	-187.331	-0.353	-0.005
-105.976	-57.412	-0.221	-0.095
-104.962	136.317	0.135	0.172
-103.947	-43.484	0.110	-0.054
-102.932	47.051	0.207	-0.189
-101.918	94.906	-0.085	-0.095
-100.903	-52.656	-0.267	0.121
-99.889	14.252	-0.283	-0.216
-98.874	103.628	0.184	-0.212
-97.859	-138.193	-0.033	-0.004
-96.845	-8.425	0.366	0.241
-95.830	223.976	-0.057	0.090
-94.816	-200.000	0.029	-0.177
-93.801	-200.000	0.059	-0.340
-92.786	123.874	-0.214	-0.263
-91.772	356.564	0.094	0.183
-90.757	170.123	-0.055	0.077
-89.743	2.541	-0.172	-0.122
-88.728	800.000	-0.060	0.236
-87.713	-100.727	-0.176	0.043
-86.699	-88.506	0.171	0.050
-85.684	203.210	0.158	-0.239
-84.670	-117.381	-0.199	-0.035
-83.655	-45.648	0.165	0.080
-82.640	-91.820	0.336	0.093
-81.626	-117.425	-0.137	-0.024
-80.611	0.211	-0.037	-0.026
-79.597	386.373	0.092	0.186
-78.582	21.271	-0.096	-0.076
-77.567	20.433	-0.140	0.111
-76.553	800.000	-0.044	0.184
-75.538	168.789	0.191	0.266
-74.524	16.964	0.120	0.093
-73.509	-129.650	0.185	-0.025
-72.494	-200.000	-0.041	0.314
-71.480	800.000	-0.064	0.176
-70.465	800.000	0.057	0.232
-69.451	-68.402	0.214	-0.081
-68.436	93.185	0.090	-0.100
-67.422	-5.412	0.108	0.072
-66.407	141.214	0.191	-0.247
-65.392	315.364	0.134	0.248
-64.378	264.531	0.211	0.359
-63.363	-123.632	-0.283	0.044
-62.349	35.761	0.329	0.283
-61.334	-28.106	-0.968	-0.548
-60.319	266.691	0.253	0.432
-59.305	353.717	-0.546	-1.059
-58.290	434.319	0.624	1.325
-57.276	800.000	0.455	1.707
-56.261	-200.000	114.946	671.078
-55.246	551.322	1519.031	3563.225
-54.232	179.694	2684.306	3842.238
-53.217	109.760	2169.118	2541.565
-52.203	38.258	1695.111	1474.934
-51.188	30.638	1513.642	1265.384
-50.173	28.377	1488.932	1229.527
-49.159	52.920	1547.305	1446.165
-48.144	51.303	1563.314	1450.030
-47.130	30.856	1518.780	1270.965
-46.115	27.786	1503.591	1237.427
-45.100	27.604	1500.400	1233.521
-44.086	27.540	1498.554	1231.519
-43.071	27.496	1496.750	1229.693
-42.057	27.398	1495.252	1227.755
-41.042	27.416	1493.924	1226.736
-40.027	27.610	1491.522	1226.022
-39.013	27.468	1490.494	1224.174
-37.998	27.502	1489.426	1223.477
-36.984	27.482	1488.499	1222.530
-35.969	27.570	1486.721	1221.610
-34.954	27.510	1485.154	1219.876
-33.940	27.490	1483.864	1218.630
-32.925	27.529	1482.642	1217.843
-31.911	27.567	1481.230	1216.887
-30.896	27.653	1479.958	1216.369
-29.881	27.646	1478.608	1215.159
-28.867	27.600	1477.678	1214.046
-27.852	27.529	1476.518	1212.572
-26.838	27.569	1475.138	1211.654
-25.823	27.526	1473.659	1210.103
-24.809	27.541	1471.492	1208.375
-23.794	27.553	1470.729	1207.780
-22.779	27.534	1469.725	1206.782
-21.765	27.594	1468.488	1206.121
-20.750	27.570	1467.235	1204.879
-19.736	27.564	1466.237	1203.975
-18.721	27.568	1465.292	1203.176
-17.706	27.530	1464.224	1202.002
-16.692	27.528	1463.304	1201.184
-15.677	27.508	1462.297	1200.182
-14.663	27.523	1461.445	1199.533
-13.648	27.474	1460.657	1198.516
-12.633	27.630	1459.107	1198.222
-11.619	27.524	1458.670	1197.116
-10.604	27.483	1457.770	1196.062
-9.590	27.486	1457.041	1195.434
-8.575	27.482	1455.978	1194.490
-7.560	27.549	1455.197	1194.243
-6.546	27.521	1454.400	1193.354
-5.531	27.490	1453.610	1192.457
-4.517	27.521	1452.660	1191.832
-3.502	27.597	1451.467	1191.308
-2.487	27.505	1450.855	1190.156
-1.473	27.446	1449.583	1188.677
-0.458	27.503	1448.088	1187.779
0.556	27.895	1437.801	1176.447
1.571	24.459	1412.763	1134.072
2.586	20.783	1350.466	1061.600
3.600	19.030	1267.856	986.529
4.615	17.860	1223.305	945.301
5.629	15.348	1167.833	889.058
6.644	8.819	1087.051	795.177
7.659	3.976	1050.036	744.774
8.673	3.310	1044.487	737.584
9.688	3.211	1041.549	734.970
10.702	3.155	1039.878	733.459
11.717	3.163	1038.167	732.227
12.731	5.131	1039.035	742.138
13.746	11.693	1048.048	779.900
14.761	18.160	1056.565	817.167
15.775	19.829	1058.333	826.441
16.790	19.518	1056.690	823.600
17.804	18.500	1054.492	816.967
18.819	17.433	1053.194	810.806
19.834	17.100	1051.713	808.013
20.848	16.975	1050.350	806.299
21.863	16.883	1050.330	805.772
22.877	16.711	1048.993	803.860
23.892	16.441	1048.420	802.070
24.907	16.346	1047.534	800.870
25.921	16.435	1047.382	801.103
26.936	16.508	1045.516	799.950
27.950	16.456	1045.374	799.526
28.965	16.349	1044.191	798.045
29.980	16.542	1042.518	797.605
30.994	16.700	1041.622	797.593
32.009	16.791	1041.141	797.582
33.023	16.822	1040.378	797.073
34.038	16.754	1039.709	796.170
35.053	16.680	1038.795	795.056
36.067	16.574	1037.778	793.710
37.082	16.500	1036.925	792.640
38.096	16.530	1036.534	792.412
39.111	16.666	1035.526	792.205
40.126	16.785	1034.537	791.933
41.140	16.636	1033.491	790.368
42.155	16.446	1031.954	788.238
43.169	16.256	1031.367	786.833
44.184	16.187	1030.327	785.652
45.199	16.144	1028.885	784.282
46.213	16.184	1028.248	783.913
47.228	16.345	1027.171	783.769
48.242	16.461	1026.091	783.413
49.257	16.644	1025.424	783.684
50.271	16.471	1024.664	782.229
51.286	16.627	1023.801	782.223
52.301	16.603	1023.054	781.476
53.315	16.678	1022.197	781.095
54.330	16.515	1021.389	779.657
55.344	16.251	1020.640	777.801
56.359	16.363	1019.418	777.314
57.374	16.450	1018.177	776.701
58.388	16.374	1017.855	776.038
59.403	16.278	1016.937	774.828
60.417	16.219	1016.251	773.966
61.432	16.223	1015.329	773.215
62.447	16.235	1014.704	772.725
63.461	16.182	1014.021	771.895
64.476	16.055	1013.277	770.677
65.490	16.042	1012.620	770.053
66.505	15.951	1011.786	768.934
67.520	15.966	1011.054	768.378
68.534	16.077	1010.090	768.083
69.549	16.191	1008.849	767.588
70.563	16.084	1008.782	766.984
71.578	16.125	1007.692	766.272
72.593	16.013	1006.813	765.027
73.607	15.963	1005.578	763.795
74.622	15.952	1004.618	762.950
75.636	15.959	1003.986	762.435
76.651	15.978	1003.111	761.790
77.666	16.148	1002.354	761.915
78.680	16.024	1001.686	760.779
79.695	16.069	1001.151	760.507
80.709	16.071	1000.792	760.176
81.724	16.188	999.828	759.904
82.739	16.287	999.107	759.733
83.753	16.363	998.512	759.555
84.768	16.495	997.930	759.640
85.782	16.686	997.084	759.785
86.797	16.944	996.061	760.096
87.812	16.925	995.403	759.443
88.826	16.687	994.420	757.558
89.841	16.623	994.050	756.926
90.855	16.719	992.950	756.448
91.870	16.688	992.876	756.185
92.884	16.736	992.277	755.878
93.899	16.795	991.107	755.183
94.914	16.699	990.595	754.299
95.928	16.869	989.288	753.993
96.943	16.887	988.937	753.738
97.957	16.748	988.141	752.448
98.972	16.653	987.329	751.341
99.987	16.661	986.783	750.893
101.001	16.791	985.811	750.663
102.016	16.656	985.390	749.680
103.030	16.583	984.408	748.544
104.045	16.632	983.538	748.033
105.060	16.874	982.049	747.899
106.074	16.607	981.031	745.883
107.089	16.362	980.257	744.149
108.103	16.196	978.982	742.383
109.118	16.081	978.527	741.468
110.133	16.184	977.123	740.792
111.147	16.248	976.410	740.465
112.162	16.108	975.952	739.440
113.176	16.234	975.051	739.245
114.191	16.249	974.080	738.509
115.206	16.292	973.597	738.263
116.220	16.442	972.162	737.766
117.235	16.340	971.500	736.753
118.249	16.264	970.756	735.794
119.264	16.323	969.862	735.306
120.279	16.368	968.881	734.694
121.293	16.166	968.368	733.360
122.308	16.053	968.002	732.528
123.322	16.001	966.697	731.250
124.337	15.914	965.649	730.016
125.352	15.935	964.311	729.032
126.366	15.964	963.470	728.453
127.381	16.054	962.381	727.955
128.395	15.922	961.356	726.547
129.410	15.955	960.067	725.652
130.424	16.003	959.696	725.511
131.439	16.058	958.928	725.106
132.454	16.204	957.951	724.931
133.468	16.291	957.495	724.893
134.483	16.289	957.268	724.648
135.497	16.346	956.358	724.141
136.512	16.110	956.086	722.858
137.527	16.343	954.980	722.954
138.541	16.274	954.235	722.032
139.556	16.271	953.241	721.205
140.570	16.255	952.904	720.817
141.585	16.334	952.309	720.641
142.600	16.764	950.905	721.346
143.614	16.776	950.377	720.930
144.629	16.781	950.051	720.645
145.643	16.872	948.978	720.153
146.658	16.746	948.250	718.999
147.673	16.552	947.533	717.569
148.687	16.486	946.047	716.102
149.702	16.425	945.491	715.359
150.716	16.390	944.221	714.186
151.731	16.372	943.220	713.290
152.746	16.330	943.074	712.941
153.760	16.339	942.176	712.235
154.775	16.484	941.393	712.191
155.789	16.630	940.341	711.946
156.804	16.605	939.808	711.378
157.819	16.732	938.936	711.186
158.833	16.686	938.563	710.647
159.848	16.721	938.131	710.404
160.862	16.804	937.593	710.281
161.877	16.773	936.613	709.346
162.892	16.581	935.768	707.841
163.906	16.537	934.271	706.464
164.921	16.468	933.859	705.802
165.935	16.292	933.129	704.451
166.950	16.457	931.944	704.181
167.964	16.598	931.233	704.169
168.979	16.582	930.064	703.157
169.994	16.554	929.029	702.196
171.008	16.579	927.948	701.421
172.023	16.523	927.953	701.128
173.037	16.570	926.898	700.467
174.052	16.746	926.497	700.829
175.067	16.823	925.287	700.169
176.081	16.696	924.047	698.645
177.096	16.418	923.648	697.136
178.110	16.509	922.840	696.841
179.125	16.539	922.252	696.457
180.140	16.606	921.082	695.790
181.154	16.559	920.643	695.202
182.169	16.669	920.194	695.254
183.183	16.813	919.793	695.478
184.198	16.944	919.035	695.380
185.213	16.957	918.452	694.930
186.227	16.910	917.795	694.181
187.242	16.866	917.413	693.653
188.256	16.954	916.876	693.544
189.271	16.934	916.407	693.045
190.286	17.105	915.228	692.788
191.300	16.952	914.377	691.459
192.315	16.751	913.246	689.727
193.329	16.424	912.298	687.617
194.344	16.341	912.000	686.996
195.359	16.397	911.764	686.983
196.373	16.724	911.424	687.995
197.388	16.827	910.539	687.687
198.402	17.017	910.087	688.055
199.417	17.168	909.759	688.357
200.432	17.159	909.343	687.945
201.446	17.192	909.222	687.927
202.461	17.412	908.291	688.049
203.475	17.245	908.532	687.496
204.490	17.303	907.739	687.070
205.504	17.192	906.361	685.519
206.519	17.088	905.346	684.270
207.534	17.037	904.953	683.708
208.548	16.912	904.416	682.739
209.563	16.952	903.694	682.294
210.577	17.028	902.685	681.777
211.592	17.054	901.985	681.291
212.607	17.163	901.765	681.505
213.621	17.297	901.198	681.550
214.636	17.343	900.144	680.877
215.650	17.247	899.538	679.976
216.665	17.223	899.267	679.613
217.680	17.369	898.739	679.737
218.694	17.384	898.633	679.660
219.709	17.349	897.800	678.829
220.723	17.505	896.889	678.703
221.738	17.393	896.573	677.955
222.753	17.332	895.934	677.170
223.767	17.367	894.950	676.504
224.782	17.296	894.293	675.669
225.796	17.471	893.661	675.823
226.811	17.530	893.039	675.530
227.826	17.598	892.059	674.996
228.840	17.267	891.843	673.465
229.855	17.116	891.590	672.616
230.869	17.316	890.243	672.329
231.884	17.339	889.532	671.824
232.899	17.266	888.864	670.973
233.913	17.171	888.374	670.168
234.928	17.291	887.239	669.724
235.942	17.206	886.903	669.077
236.957	17.255	885.904	668.459
237.972	17.186	885.491	667.816
238.986	17.203	885.065	667.503
240.001	17.257	883.917	666.789
241.015	17.243	883.084	666.046
242.030	17.237	882.800	665.748
243.045	17.551	881.643	666.049
244.059	17.453	881.836	665.751
245.074	17.456	881.339	665.326
246.088	17.471	880.811	664.929
247.103	17.549	880.287	664.779
248.117	17.576	879.513	664.241
249.132	17.758	878.987	664.494
250.147	17.920	878.741	664.881
251.161	18.177	878.272	665.465
252.176	18.137	877.749	664.855
253.190	18.200	876.947	664.433
254.205	18.188	876.425	663.932
255.220	18.135	876.318	663.590
256.234	18.248	875.148	663.081
257.249	18.129	874.542	662.101
258.263	18.172	874.053	661.841
259.278	18.175	873.360	661.269
260.293	18.092	872.941	660.572
261.307	18.227	872.427	660.647
262.322	18.332	871.692	660.434
263.336	18.303	871.089	659.810
264.351	18.309	870.763	659.527
265.366	18.415	869.896	659.220
266.380	18.356	869.469	658.609
267.395	18.471	868.863	658.536
268.409	18.316	867.846	657.111
269.424	18.179	867.240	656.070
270.439	18.230	866.609	655.729
271.453	18.108	865.979	654.726
272.468	18.026	864.959	653.585
273.482	18.143	864.186	653.391
274.497	18.106	863.991	653.044
275.512	17.914	863.458	651.850
276.526	18.026	862.782	651.709
277.541	18.176	861.612	651.340
278.555	18.206	861.227	651.102
279.570	18.356	861.066	651.495
280.585	18.469	860.268	651.263
281.599	18.387	859.824	650.557
282.614	18.283	859.047	649.518
283.628	18.355	858.430	649.267
284.643	18.200	857.858	648.191
285.657	18.388	857.241	648.376
286.672	18.340	857.044	647.988
287.687	18.308	856.506	647.403
288.701	18.330	855.773	646.877
289.716	18.289	855.630	646.556
290.730	18.367	854.671	646.068
291.745	18.346	854.110	645.508
292.760	18.387	853.347	645.027
293.774	18.368	852.856	644.530
294.789	18.535	852.729	645.004
295.803	18.595	851.701	644.395
296.818	18.424	851.151	643.281
297.833	18.391	850.208	642.387
298.847	18.345	849.999	641.998
299.862	18.414	849.146	641.557
300.876	18.501	848.217	641.125
301.891	18.660	847.637	641.221
302.906	18.599	847.332	640.706
303.920	18.645	846.969	640.548
304.935	18.792	846.178	640.440
305.949	18.927	845.756	640.568
306.964	18.820	844.954	639.505
307.979	18.790	844.099	638.692
308.993	18.621	844.041	637.963
310.008	18.770	843.567	638.101
311.022	18.785	842.741	637.475
312.037	18.961	842.114	637.598
313.052	18.761	841.938	636.667
314.066	18.690	840.947	635.598
315.081	18.393	840.488	634.093
316.095	18.488	840.065	634.071
317.110	18.467	839.492	633.504
318.125	18.452	838.998	633.021
319.139	18.476	838.398	632.600
320.154	18.455	837.810	632.023
321.168	18.553	837.297	631.944
322.183	18.827	836.446	632.253
323.197	18.669	836.263	631.475
324.212	18.810	835.674	631.494
325.227	18.849	834.829	630.943
326.241	18.658	834.722	630.105
327.256	18.647	834.069	629.518
328.270	18.671	833.583	629.181
329.285	18.549	832.958	628.208
330.300	18.612	832.393	627.955
331.314	18.555	831.799	627.244
332.329	18.614	831.262	627.000
333.343	18.948	830.369	627.490
334.358	18.943	830.189	627.278
335.373	18.814	829.816	626.473
336.387	19.066	828.927	626.664
337.402	18.954	828.694	626.024
338.416	19.006	827.928	625.577
339.431	19.160	827.788	625.979
340.446	19.322	826.660	625.655
341.460	19.413	826.376	625.718
342.475	19.296	825.991	624.946
343.489	19.336	825.689	624.806
344.504	19.386	825.125	624.505
345.519	19.404	824.575	624.100
346.533	19.387	824.119	623.638
347.548	19.460	823.549	623.415
348.562	19.315	823.093	622.492
349.577	19.193	822.377	621.454
350.592	19.159	821.771	620.818
351.606	19.140	821.002	620.113
352.621	18.747	820.729	618.439
353.635	18.880	820.589	618.756
354.650	19.136	819.751	618.991
355.665	19.136	819.595	618.820
356.679	19.156	819.150	618.499
357.694	19.354	818.433	618.615
358.708	19.280	817.962	617.937
359.723	19.159	817.618	617.190
360.738	19.303	816.837	617.059
361.752	19.214	816.262	616.253
362.767	19.411	815.971	616.682
363.781	19.444	815.747	616.576
364.796	19.489	815.434	616.448
365.810	19.503	814.947	616.073
366.825	19.708	814.683	616.553
367.840	19.705	814.118	616.060
368.854	19.885	813.608	616.259
369.869	19.606	813.510	615.138
370.883	19.676	812.482	614.555
371.898	19.539	812.120	613.738
372.913	19.785	811.258	613.908
373.927	19.806	810.584	613.418
374.942	19.669	810.235	612.611
375.956	19.708	809.518	612.156
376.971	19.852	808.937	612.173
377.986	19.875	808.562	611.913
379.000	19.887	808.299	611.702
380.015	19.934	807.662	611.332
381.029	19.996	806.991	610.988
382.044	19.848	806.381	609.952
383.059	19.842	806.102	609.665
384.073	19.990	805.379	609.585
385.088	19.846	805.150	608.851
386.102	19.742	804.596	608.014
387.117	19.792	803.768	607.508
388.132	19.577	803.478	606.481
389.146	19.587	802.728	605.898
390.161	19.756	802.296	606.109
391.175	19.844	802.097	606.215
392.190	19.798	801.788	605.766
393.205	19.968	801.225	605.883
394.219	19.703	800.983	604.720
395.234	19.720	800.055	604.022
396.248	19.824	799.471	603.891
397.263	19.546	799.038	602.541
398.278	19.372	798.900	601.777
399.292	19.529	798.261	601.791
400.307	19.422	797.878	601.076
401.321	19.539	797.520	601.160
402.336	19.631	796.831	600.907
403.350	19.687	796.552	600.839
404.365	19.843	796.251	601.101
405.380	19.893	795.604	600.732
406.394	20.089	795.555	601.323
407.409	20.124	795.000	600.972
408.423	20.177	794.594	600.794
409.438	20.105	794.121	600.134
410.453	20.259	793.464	600.117
411.467	20.198	793.418	599.818
412.482	20.429	793.022	600.264
413.496	20.407	792.357	599.631
414.511	20.468	792.271	599.725
415.526	20.426	791.634	599.046
416.540	20.438	791.610	599.015
417.555	20.370	790.933	598.215
418.569	20.397	789.985	597.537
419.584	20.360	789.840	597.247
420.599	20.362	789.593	597.015
421.613	161.838	1370.757	1796.001
422.628	140.168	1455.437	1796.078
