DTS Sentinel unit serial number:	SN413079Multiplexer serial number:	ORYXHardware model number:	OX4-SRSoftware version number:	ORYX F/W v4.00 Oryx Data Collector v3.7.2.0data status	okinstallation	princeton_trtdifferential loss correction	single-endedforward channel	channel 3reverse channel	N/Adate	2019/09/13time	15:48:34forward acquisition time	60.00reverse acquisition time	0.00gamma	496.2192k internal	0.2307k external	0.2307temperature offset calibration	1.0142default loss term (dB/km)	0.3790temperature slope calibration	1.0000multiplexer offset coefficient	1.0000multiplexer slope coefficient	1.0000fibre end	0.00T internal ref (°C)	34.69T ext. ref 1 (°C)	4.78T ext. ref 2 (°C)	29.67length (m)	temperature (°C)	Stokes	anti-Stokes-747.200	-200.000	0.063	-0.370
-746.185	182.944	-0.222	-0.333
-745.171	-111.521	-0.120	-0.025
-744.156	-32.265	-0.096	0.055
-743.142	-200.000	0.055	0.320
-742.127	760.541	0.052	-0.142
-741.112	800.000	0.054	0.160
-740.098	800.000	-0.078	0.344
-739.083	131.168	-0.204	0.267
-738.069	-35.371	-0.193	0.106
-737.054	378.669	0.102	-0.213
-736.039	80.773	-0.212	-0.233
-735.025	-126.049	0.517	-0.079
-734.010	0.981	0.105	-0.076
-732.996	-200.000	0.030	-0.201
-731.981	-29.336	-0.100	0.058
-730.966	114.635	-0.310	0.384
-729.952	-200.000	0.012	-0.326
-728.937	-57.663	0.103	0.046
-727.923	150.871	-0.148	-0.204
-726.908	-78.476	-0.220	-0.077
-725.894	-173.133	0.094	0.003
-724.879	-85.339	-0.109	0.034
-723.864	65.659	0.145	-0.149
-722.850	-97.855	-0.049	0.013
-721.835	-165.197	-0.153	-0.007
-720.821	108.549	0.214	-0.259
-719.806	34.168	0.137	-0.121
-718.791	-57.531	0.105	0.047
-717.777	204.006	0.180	0.284
-716.762	117.013	-0.094	0.117
-715.748	89.208	-0.141	-0.159
-714.733	287.334	0.031	-0.057
-713.718	4.161	0.305	0.227
-712.704	19.860	0.023	0.019
-711.689	-98.484	-0.268	-0.070
-710.675	-62.503	-0.163	-0.069
-709.660	18.881	0.172	-0.140
-708.645	-130.787	-0.279	0.038
-707.631	8.362	0.226	-0.173
-706.616	468.460	-0.062	0.141
-705.602	800.000	0.028	0.117
-704.587	172.884	0.043	-0.063
-703.572	-200.000	0.020	-0.338
-702.558	-111.135	-0.071	0.015
-701.543	-61.459	-0.124	-0.053
-700.529	82.671	-0.194	-0.214
-699.514	800.000	-0.118	-0.445
-698.499	-86.337	-0.268	0.084
-697.485	23.839	0.230	-0.192
-696.470	-148.001	-0.027	0.002
-695.456	-90.313	-0.235	0.069
-694.441	19.176	0.121	0.099
-693.426	800.000	-0.025	-0.069
-692.412	-200.000	-0.016	-0.192
-691.397	-73.628	0.220	0.082
-690.383	800.000	0.124	-0.442
-689.368	-75.687	0.179	0.064
-688.354	-94.322	-0.088	0.024
-687.339	800.000	0.069	-0.244
-686.324	-200.000	0.032	0.141
-685.310	372.250	0.112	-0.232
-684.295	-123.969	-0.220	-0.035
-683.281	212.263	0.117	-0.187
-682.266	92.997	-0.128	-0.147
-681.251	-200.000	0.012	0.151
-680.237	-200.000	-0.008	-0.448
-679.222	-41.728	0.050	-0.026
-678.208	-128.007	0.281	-0.041
-677.193	43.893	-0.446	-0.415
-676.178	304.237	-0.016	0.030
-675.164	-64.598	0.268	0.110
-674.149	-200.000	0.017	0.151
-673.135	-200.000	-0.016	0.094
-672.120	109.939	-0.170	0.207
-671.105	43.373	-0.050	0.046
-670.091	-69.797	-0.395	-0.153
-669.076	-200.000	-0.011	-0.123
-668.062	-111.357	0.157	0.032
-667.047	-113.610	0.185	0.037
-666.032	800.000	-0.153	-0.494
-665.018	62.465	-0.096	0.098
-664.003	359.654	0.045	0.092
-662.989	-62.261	-0.445	0.188
-661.974	-96.572	0.316	-0.085
-660.959	194.296	0.085	-0.131
-659.945	63.481	-0.057	-0.057
-658.930	800.000	-0.033	0.095
-657.916	-36.937	-0.116	-0.063
-656.901	3.097	-0.162	0.119
-655.886	-54.156	-0.332	-0.153
-654.872	506.118	0.041	0.097
-653.857	135.583	0.072	-0.095
-652.843	-200.000	0.007	-0.259
-651.828	-88.467	-0.065	0.020
-650.814	-37.374	0.144	0.078
-649.799	-200.000	-0.012	-0.567
-648.784	-159.051	0.244	-0.014
-647.770	719.062	-0.011	0.031
-646.755	186.117	0.193	-0.290
-645.741	800.000	-0.033	-0.144
-644.726	245.060	-0.047	0.079
-643.711	-75.482	-0.175	0.063
-642.697	65.400	0.058	-0.059
-641.682	19.520	0.050	0.041
-640.668	-154.892	0.221	0.015
-639.653	-89.277	0.202	0.060
-638.638	-129.901	-0.213	-0.030
-637.624	-52.044	0.424	0.199
-636.609	-98.275	0.256	0.067
-635.595	-200.000	-0.014	-0.196
-634.580	-200.000	0.007	0.079
-633.565	-194.035	-0.114	0.001
-632.551	-27.645	0.181	-0.107
-631.536	-28.014	-0.091	0.053
-630.522	150.214	-0.032	-0.043
-629.507	-17.801	-0.130	-0.083
-628.492	-42.622	0.086	-0.045
-627.478	-200.000	0.005	0.189
-626.463	-103.199	-0.240	-0.057
-625.449	-30.409	-0.189	-0.108
-624.434	139.941	-0.076	0.101
-623.419	58.676	0.191	0.190
-622.405	246.320	0.142	0.242
-621.390	800.000	0.083	-0.267
-620.376	254.538	-0.115	-0.200
-619.361	505.234	-0.041	0.096
-618.346	-14.722	0.054	-0.035
-617.332	11.719	0.095	-0.073
-616.317	51.407	-0.045	0.043
-615.303	325.674	0.052	-0.100
-614.288	800.000	-0.052	0.161
-613.273	69.384	0.103	-0.107
-612.259	-200.000	0.030	-0.249
-611.244	-200.000	0.040	-0.220
-610.230	776.606	-0.043	-0.119
-609.215	151.896	-0.043	0.060
-608.201	321.318	0.079	-0.153
-607.186	42.964	0.068	-0.062
-606.171	108.864	-0.071	0.086
-605.157	68.010	0.155	0.160
-604.142	59.541	-0.203	0.203
-603.128	-200.000	-0.015	-0.142
-602.113	102.197	0.079	0.094
-601.098	-135.909	-0.289	0.034
-600.084	68.988	0.073	0.076
-599.069	-200.000	0.001	-0.076
-598.055	444.073	-0.097	-0.215
-597.040	81.241	-0.190	-0.208
-596.025	-67.247	-0.046	0.018
-595.011	-76.565	0.120	0.042
-593.996	377.275	0.050	-0.103
-592.982	189.023	0.075	0.113
-591.967	207.439	0.080	0.126
-590.952	-166.583	0.287	-0.012
-589.938	-19.378	0.174	0.109
-588.923	-120.280	0.046	0.008
-587.909	111.533	-0.224	-0.274
-586.894	142.367	0.153	-0.205
-585.879	-99.340	-0.073	-0.019
-584.865	227.435	0.169	0.278
-583.850	-200.000	0.066	0.350
-582.836	-51.236	-0.317	0.150
-581.821	-200.000	0.025	-0.296
-580.806	-200.000	-0.018	0.270
-579.792	56.214	-0.361	-0.354
-578.777	-76.928	0.044	-0.016
-577.763	267.909	0.131	0.233
-576.748	-176.933	0.056	-0.001
-575.733	42.806	-0.106	0.097
-574.719	107.002	0.056	-0.067
-573.704	-200.000	-0.030	0.276
-572.690	-54.450	0.055	0.025
-571.675	-188.240	0.159	0.002
-570.661	90.806	0.397	-0.449
-569.646	256.944	-0.101	0.175
-568.631	-156.891	0.233	0.014
-567.617	160.672	-0.004	-0.006
-566.602	253.810	0.121	0.209
-565.588	686.275	-0.089	0.235
-564.573	169.138	-0.185	0.267
-563.558	-42.146	0.180	0.093
-562.544	626.554	-0.070	-0.177
-561.529	-68.313	-0.276	0.108
-560.515	-2.352	0.124	-0.088
-559.500	-164.913	-0.172	-0.008
-558.485	355.071	0.123	-0.247
-557.471	-85.639	-0.087	-0.027
-556.456	-200.000	-0.032	0.293
-555.442	-28.354	-0.161	-0.094
-554.427	-200.000	0.005	-0.437
-553.412	-94.761	0.236	-0.065
-552.398	19.331	-0.083	0.067
-551.383	117.213	-0.245	-0.303
-550.369	-200.000	-0.015	-0.224
-549.354	-82.312	0.168	-0.055
-548.339	258.097	-0.122	0.213
-547.325	25.489	-0.123	-0.103
-546.310	-154.960	-0.131	0.009
-545.296	295.592	-0.033	0.062
-544.281	223.002	-0.121	0.197
-543.266	800.000	0.116	-0.323
-542.252	-200.000	0.001	0.153
-541.237	-200.000	-0.008	0.310
-540.223	382.317	0.124	-0.258
-539.208	-173.336	0.110	0.003
-538.193	-17.752	0.230	0.145
-537.179	247.077	-0.012	-0.020
-536.164	264.727	0.220	-0.386
-535.150	422.234	-0.174	-0.378
-534.135	143.983	0.205	-0.275
-533.121	147.909	-0.154	-0.209
-532.106	101.188	-0.189	-0.222
-531.091	80.871	-0.184	-0.200
-530.077	-200.000	0.012	-0.157
-529.062	-160.186	-0.123	-0.007
-528.048	45.087	-0.171	-0.159
-527.033	176.617	0.048	-0.071
-526.018	83.727	-0.048	-0.053
-525.004	31.398	-0.228	0.197
-523.989	-70.335	0.229	0.087
-522.975	-37.914	0.082	0.044
-521.960	-103.777	0.209	0.049
-520.945	-200.000	-0.086	-0.391
-519.931	75.320	-0.211	-0.225
-518.916	-10.865	-0.131	0.087
-517.902	-200.000	-0.023	-0.116
-516.887	-127.110	-0.302	-0.045
-515.872	52.203	-0.394	0.378
-514.858	-110.582	0.278	0.058
-513.843	-39.812	-0.059	-0.031
-512.829	-200.000	-0.019	-0.200
-511.814	-150.769	-0.222	-0.017
-510.799	14.803	-0.085	0.067
-509.785	-110.755	0.270	0.056
-508.770	-61.845	-0.263	-0.111
-507.756	272.131	0.089	0.158
-506.741	-30.952	-0.220	-0.125
-505.726	-200.000	-0.011	0.250
-504.712	-62.512	-0.145	0.061
-503.697	-14.121	0.155	-0.101
-502.683	-200.000	-0.006	0.238
-501.668	-143.942	0.056	-0.005
-500.653	32.800	-0.100	-0.087
-499.639	800.000	0.106	0.396
-498.624	228.250	-0.114	0.186
-497.610	-109.349	0.065	0.014
-496.595	-157.679	0.199	0.012
-495.581	-83.553	-0.086	-0.028
-494.566	800.000	0.012	0.048
-493.551	-158.353	-0.168	0.010
-492.537	-116.419	-0.143	-0.027
-491.522	-102.607	-0.139	-0.033
-490.508	563.396	0.044	0.106
-489.493	-200.000	-0.038	0.292
-488.478	-91.360	0.179	0.051
-487.464	-64.436	0.354	0.145
-486.449	124.075	-0.255	0.323
-485.435	-112.654	0.183	0.037
-484.420	-200.000	-0.024	0.193
-483.405	800.000	0.011	0.049
-482.391	-167.739	-0.073	0.003
-481.376	-155.432	-0.183	0.012
-480.362	-137.475	-0.129	-0.015
-479.347	46.461	0.187	0.174
-478.332	-109.159	0.113	0.024
-477.318	800.000	-0.052	0.175
-476.303	4.193	-0.068	-0.050
-475.289	184.126	-0.123	-0.184
-474.274	-2.382	-0.144	0.102
-473.259	-93.322	-0.327	-0.091
-472.245	-32.629	-0.228	0.128
-471.230	133.095	0.041	-0.054
-470.216	-200.000	0.086	-0.395
-469.201	-200.000	-0.031	0.192
-468.186	-113.995	-0.205	-0.040
-467.172	108.971	0.175	-0.211
-466.157	232.364	-0.170	-0.280
-465.143	-113.222	0.182	-0.036
-464.128	-200.000	0.026	0.327
-463.113	117.170	0.099	0.122
-462.099	-64.405	-0.202	0.083
-461.084	-200.000	0.011	0.066
-460.070	-200.000	0.013	0.189
-459.055	395.523	-0.100	0.210
-458.040	167.588	-0.069	-0.099
-457.026	-176.704	0.124	0.003
-456.011	46.184	0.212	0.197
-454.997	-50.716	0.100	-0.047
-453.982	137.894	-0.055	0.072
-452.968	130.645	-0.228	-0.294
-451.953	286.934	-0.163	-0.296
-450.938	-47.912	-0.217	0.106
-449.924	800.000	-0.111	0.445
-448.909	-112.435	0.123	-0.025
-447.895	-87.505	-0.155	-0.047
-446.880	612.543	-0.085	0.215
-445.865	-25.340	-0.347	0.206
-444.851	-52.756	0.430	-0.200
-443.836	86.069	0.224	-0.248
-442.822	112.980	-0.072	-0.088
-441.807	800.000	-0.082	0.286
-440.792	383.619	-0.076	0.158
-439.778	44.437	0.085	-0.079
-438.763	-120.144	-0.143	-0.025
-437.749	40.798	-0.208	-0.188
-436.734	-200.000	0.008	-0.139
-435.719	-108.485	0.126	0.027
-434.705	195.040	0.193	-0.294
-433.690	-200.000	-0.054	0.284
-432.676	-200.000	-0.022	0.141
-431.661	-91.740	-0.398	0.114
-430.646	-55.372	0.276	0.125
-429.632	245.791	0.085	0.144
-428.617	-200.000	-0.011	0.183
-427.603	800.000	-0.098	-0.273
-426.588	-69.431	-0.282	-0.108
-425.573	-99.404	-0.103	0.026
-424.559	15.425	-0.254	-0.200
-423.544	-124.631	-0.217	-0.034
-422.530	-85.620	0.168	-0.053
-421.515	-200.000	-0.008	0.308
-420.500	107.765	-0.347	-0.415
-419.486	66.065	0.045	-0.046
-418.471	134.740	-0.094	0.123
-417.457	476.741	0.126	-0.286
-416.442	800.000	0.069	0.214
-415.428	56.262	-0.113	0.110
-414.413	800.000	-0.128	-0.543
-413.398	44.247	0.342	0.315
-412.384	9.874	-0.211	0.161
-411.369	-1.097	-0.135	-0.096
-410.355	210.544	-0.070	-0.110
-409.340	-78.772	0.246	-0.084
-408.325	222.898	0.124	0.200
-407.311	-19.755	-0.060	0.037
-406.296	442.556	-0.053	-0.116
-405.282	201.465	0.060	-0.092
-404.267	800.000	-0.034	-0.117
-403.252	-200.000	-0.079	-0.645
-402.238	-65.618	-0.241	0.097
-401.223	-133.929	0.331	0.041
-400.209	13.706	-0.236	-0.184
-399.194	-131.830	0.240	0.032
-398.179	351.231	0.087	-0.173
-397.165	-115.612	0.129	-0.024
-396.150	12.443	-0.194	-0.150
-395.136	-65.519	-0.282	0.113
-394.121	-200.000	0.037	-0.239
-393.106	17.594	0.168	0.134
-392.092	-91.746	-0.103	0.029
-391.077	-122.986	0.210	-0.034
-390.063	174.530	0.073	-0.106
-389.048	-4.705	0.069	-0.048
-388.033	164.376	0.192	0.271
-387.019	296.799	-0.241	0.443
-386.004	85.420	-0.037	-0.041
-384.990	315.956	-0.095	0.181
-383.975	-200.000	0.001	-0.087
-382.960	-91.159	0.257	0.074
-381.946	800.000	-0.014	0.038
-380.931	-200.000	-0.103	-0.500
-379.917	22.523	-0.178	0.146
-378.902	-148.362	0.153	0.013
-377.888	-79.831	-0.272	-0.092
-376.873	-108.027	0.087	-0.019
-375.858	800.000	0.029	-0.099
-374.844	800.000	-0.060	0.204
-373.829	-139.164	-0.454	0.049
-372.815	-65.517	0.170	-0.069
-371.800	412.237	0.068	0.146
-370.785	77.999	0.133	-0.142
-369.771	81.561	-0.080	0.087
-368.756	-181.699	-0.271	-0.005
-367.742	-200.000	-0.000	0.210
-366.727	45.773	0.016	0.015
-365.712	351.665	-0.101	0.201
-364.698	800.000	0.012	0.036
-363.683	-200.000	-0.008	0.365
-362.669	218.026	0.313	-0.500
-361.654	-93.337	-0.271	-0.075
-360.639	257.578	-0.078	-0.135
-359.625	177.583	-0.150	0.219
-358.610	-200.000	-0.002	-0.199
-357.596	-105.009	-0.225	-0.052
-356.581	127.450	-0.194	-0.246
-355.566	-99.521	-0.272	0.068
-354.552	-10.722	-0.316	-0.210
-353.537	-108.955	0.372	-0.079
-352.523	-173.912	0.064	0.002
-351.508	-136.214	0.226	0.026
-350.493	-85.034	0.377	-0.118
-349.479	-14.162	-0.223	0.144
-348.464	275.731	-0.131	-0.232
-347.450	-109.773	-0.283	-0.060
-346.435	800.000	-0.056	-0.187
-345.420	-13.426	0.016	0.010
-344.406	-29.696	-0.541	0.309
-343.391	-83.625	-0.136	0.043
-342.377	22.877	0.115	-0.095
-341.362	-99.178	-0.396	0.100
-340.348	4.497	-0.124	0.091
-339.333	107.787	0.078	0.093
-338.318	121.430	-0.183	0.228
-337.304	787.211	0.121	0.332
-336.289	-77.772	0.347	0.120
-335.275	-200.000	0.038	0.232
-334.260	-105.450	-0.193	-0.044
-333.245	800.000	0.022	-0.080
-332.231	-200.000	0.010	-0.147
-331.216	529.966	-0.067	-0.158
-330.202	-200.000	-0.049	0.522
-329.187	-200.000	0.012	-0.146
-328.172	-85.688	0.188	0.059
-327.158	-52.765	0.201	-0.093
-326.143	-48.966	0.161	-0.077
-325.129	-73.117	-0.020	0.007
-324.114	-26.807	-0.165	0.097
-323.099	-133.496	0.309	-0.039
-322.085	-200.000	0.014	0.105
-321.070	471.075	0.064	0.145
-320.056	69.013	0.209	0.214
-319.041	-200.000	-0.013	-0.066
-318.026	105.503	0.088	0.104
-317.012	-37.637	0.284	0.151
-315.997	-72.502	0.256	-0.095
-314.983	-128.661	0.381	0.054
-313.968	800.000	-0.060	0.227
-312.953	169.197	0.192	0.274
-311.939	-200.000	-0.022	0.266
-310.924	800.000	-0.121	-0.364
-309.910	-96.540	0.068	0.018
-308.895	225.982	-0.186	-0.302
-307.880	39.722	0.223	-0.200
-306.866	-57.997	0.254	-0.111
-305.851	237.264	0.061	-0.101
-304.837	-24.794	0.220	0.131
-303.822	-36.555	-0.096	0.052
-302.807	2.786	0.497	0.360
-301.793	21.762	0.472	-0.384
-300.778	-64.502	0.142	-0.058
-299.764	-127.244	-0.372	-0.054
-298.749	-0.818	0.390	-0.276
-297.735	-172.512	-0.391	-0.012
-296.720	-165.707	0.091	0.004
-295.705	36.955	0.191	0.169
-294.691	-200.000	0.035	0.250
-293.676	-200.000	0.026	0.120
-292.662	-200.000	-0.018	-0.172
-291.647	50.863	-0.117	-0.111
-290.632	-22.529	-0.402	-0.243
-289.618	-200.000	0.024	0.234
-288.603	166.665	0.054	-0.076
-287.589	-120.421	-0.086	-0.015
-286.574	-106.920	-0.081	0.018
-285.559	-53.795	-0.189	0.086
-284.545	-131.144	0.266	0.035
-283.530	-0.261	0.073	-0.052
-282.516	800.000	-0.102	-0.302
-281.501	-23.970	0.184	-0.110
-280.486	-104.241	0.361	-0.084
-279.472	-63.616	0.237	-0.097
-278.457	61.675	0.185	-0.184
-277.443	-200.000	-0.038	-0.185
-276.428	53.758	-0.046	0.044
-275.413	44.307	-0.103	0.094
-274.399	156.685	-0.107	0.147
-273.384	470.061	-0.036	0.082
-272.370	-30.871	-0.442	-0.250
-271.355	-10.411	0.074	-0.049
-270.340	-200.000	-0.015	0.101
-269.326	246.405	0.170	0.285
-268.311	216.559	-0.111	-0.177
-267.297	352.497	0.101	0.200
-266.282	13.518	0.118	-0.091
-265.267	14.381	0.304	-0.236
-264.253	28.154	0.024	0.020
-263.238	-81.026	0.303	-0.100
-262.224	-131.197	0.172	0.023
-261.209	245.739	0.096	-0.162
-260.195	77.785	-0.177	-0.188
-259.180	-200.000	-0.005	-0.103
-258.165	-16.504	-0.128	0.081
-257.151	-97.824	-0.152	0.039
-256.136	-157.966	0.246	0.014
-255.122	-200.000	0.017	0.236
-254.107	90.073	0.068	0.075
-253.092	149.840	-0.295	0.399
-252.078	418.762	-0.069	-0.148
-251.063	-66.792	0.154	0.061
-250.049	-200.000	0.008	0.106
-249.034	82.778	0.141	-0.152
-248.019	39.714	0.065	-0.059
-247.005	544.046	0.132	-0.314
-245.990	-122.236	-0.249	-0.041
-244.976	-200.000	-0.039	-0.239
-243.961	-101.668	0.319	0.077
-242.946	151.903	-0.145	0.197
-241.932	-200.000	0.006	0.173
-240.917	401.131	0.042	-0.087
-239.903	-200.000	0.038	0.186
-238.888	88.486	0.185	0.204
-237.873	-200.000	-0.001	-0.037
-236.859	-52.887	0.408	-0.187
-235.844	0.549	0.065	0.046
-234.830	-40.163	0.196	0.102
-233.815	800.000	0.025	0.095
-232.800	58.273	0.241	0.235
-231.786	-200.000	0.006	0.029
-230.771	-200.000	0.059	0.259
-229.757	140.415	-0.172	-0.226
-228.742	-43.170	0.275	0.139
-227.727	-109.114	0.286	0.061
-226.713	-11.298	0.260	0.171
-225.698	-73.858	0.118	-0.043
-224.684	-108.229	0.031	0.007
-223.669	-92.305	-0.470	0.132
-222.655	-200.000	-0.006	0.257
-221.640	-135.978	0.132	0.015
-220.625	188.755	-0.173	-0.258
-219.611	800.000	0.049	-0.172
-218.596	-200.000	0.066	-0.382
-217.582	55.613	-0.202	0.194
-216.567	27.796	0.293	0.246
-215.552	800.000	0.041	0.145
-214.538	-160.621	0.343	0.018
-213.523	-57.472	0.273	-0.119
-212.509	-200.000	0.066	-0.419
-211.494	-114.971	-0.203	-0.038
-210.479	800.000	0.050	0.184
-209.465	512.878	-0.016	0.038
-208.450	800.000	0.022	-0.069
-207.436	-114.231	-0.104	-0.020
-206.421	286.943	0.015	0.027
-205.406	-200.000	-0.006	-0.168
-204.392	1.096	-0.222	0.158
-203.377	-15.145	-0.307	0.196
-202.363	-51.617	0.330	0.153
-201.348	6.479	-0.180	-0.133
-200.333	-74.889	0.218	0.078
-199.319	-57.072	0.163	0.071
-198.304	216.225	0.216	0.341
-197.290	-138.022	-0.216	0.024
-196.275	800.000	0.068	-0.226
-195.260	-72.762	-0.412	0.151
-194.246	-136.316	0.393	-0.046
-193.231	-70.897	-0.138	-0.052
-192.217	4.267	0.125	-0.091
-191.202	19.323	0.269	-0.215
-190.187	224.002	0.165	0.265
-189.173	751.038	0.083	0.224
-188.158	-200.000	-0.035	-0.228
-187.144	39.352	0.235	0.209
-186.129	26.652	0.174	-0.145
-185.114	110.580	-0.082	0.098
-184.100	169.904	-0.286	-0.406
-183.085	-64.097	0.338	-0.137
-182.071	800.000	-0.053	-0.201
-181.056	800.000	-0.078	0.316
-180.042	290.806	-0.074	-0.134
-179.027	167.004	-0.124	0.175
-178.012	180.771	-0.041	0.060
-176.998	234.142	-0.113	0.185
-175.983	37.050	-0.068	-0.060
-174.969	-13.523	-0.241	0.155
-173.954	353.792	-0.062	-0.123
-172.939	-120.144	0.210	-0.036
-171.925	31.317	-0.374	0.320
-170.910	71.339	0.142	-0.147
-169.896	-65.958	0.193	-0.077
-168.881	182.832	0.082	0.120
-167.866	-8.008	0.351	0.236
-166.852	-131.016	-0.217	0.029
-165.837	-138.558	-0.391	0.043
-164.823	96.170	-0.139	0.158
-163.808	-7.086	-0.159	-0.107
-162.793	-79.016	0.102	-0.034
-161.779	13.834	-0.124	-0.096
-160.764	-53.871	-0.249	0.113
-159.750	-75.806	-0.204	0.072
-158.735	229.647	0.065	-0.106
-157.720	-94.351	-0.120	0.033
-156.706	-121.996	-0.111	-0.018
-155.691	165.417	0.036	0.051
-154.677	270.848	0.055	-0.095
-153.662	474.950	-0.145	-0.326
-152.647	121.139	-0.109	0.135
-151.633	8.466	-0.235	0.176
-150.618	-102.416	-0.122	0.029
-149.604	50.783	0.159	-0.150
-148.589	289.130	-0.161	0.290
-147.574	267.581	-0.197	-0.343
-146.560	456.555	-0.129	-0.284
-145.545	44.603	-0.022	0.020
-144.531	800.000	-0.049	-0.197
-143.516	2.474	0.172	0.124
-142.502	-200.000	0.028	0.313
-141.487	-51.519	0.070	0.032
-140.472	498.993	-0.097	-0.223
-139.458	-133.985	-0.290	-0.036
-138.443	-185.917	-0.276	0.004
-137.429	-60.841	0.128	0.054
-136.414	225.846	-0.094	0.151
-135.399	-200.000	-0.002	0.202
-134.385	-35.923	0.209	-0.112
-133.370	240.537	0.174	0.289
-132.356	67.179	-0.066	-0.067
-131.341	-200.000	-0.019	0.101
-130.326	-102.482	-0.165	0.039
-129.312	161.402	0.205	0.284
-128.297	-114.557	0.123	0.023
-127.283	500.788	0.043	-0.099
-126.268	377.724	-0.194	-0.394
-125.253	-98.457	-0.181	0.046
-124.239	-200.000	-0.070	0.306
-123.224	800.000	0.064	0.230
-122.210	159.628	0.044	-0.060
-121.195	-110.645	0.396	-0.081
-120.180	-130.165	0.187	-0.025
-119.166	-3.010	0.231	0.160
-118.151	-200.000	-0.008	-0.061
-117.137	685.112	0.104	0.270
-116.122	8.730	-0.536	0.401
-115.107	306.319	-0.128	0.236
-114.093	21.143	0.253	0.203
-113.078	75.354	-0.174	-0.182
-112.064	-200.000	-0.021	-0.124
-111.049	278.050	-0.028	0.050
-110.034	800.000	-0.013	0.040
-109.020	-200.000	0.005	-0.146
-108.005	21.665	0.259	-0.209
-106.991	127.363	0.281	0.354
-105.976	-69.189	0.249	-0.095
-104.962	119.011	-0.127	0.155
-103.947	503.671	0.014	0.033
-102.932	-200.000	-0.035	0.235
-101.918	-200.000	0.020	-0.164
-100.903	8.524	0.200	-0.149
-99.889	774.457	0.065	0.177
-98.874	-133.540	-0.450	0.056
-97.859	-200.000	0.074	-0.380
-96.845	-102.315	0.220	0.052
-95.830	800.000	0.030	0.095
-94.816	542.536	-0.028	-0.067
-93.801	-97.924	0.081	0.021
-92.786	174.972	-0.057	-0.082
-91.772	-42.003	-0.066	0.034
-90.757	19.843	0.083	-0.066
-89.743	800.000	-0.086	-0.297
-88.728	-200.000	-0.054	0.303
-87.713	-200.000	-0.060	0.285
-86.699	34.025	0.455	0.393
-85.684	30.049	0.140	0.119
-84.670	800.000	-0.058	-0.180
-83.655	411.303	-0.067	0.140
-82.640	800.000	0.113	-0.458
-81.626	194.146	0.257	-0.386
-80.611	79.382	-0.071	-0.075
-79.597	19.997	-0.085	0.068
-78.582	52.520	0.068	0.065
-77.567	603.442	-0.030	-0.073
-76.553	766.050	-0.098	-0.264
-75.538	480.271	-0.049	-0.110
-74.524	800.000	0.086	0.327
-73.509	401.811	0.195	-0.406
-72.494	258.682	-0.149	-0.254
-71.480	-61.920	-0.143	-0.059
-70.465	800.000	-0.013	0.040
-69.451	-157.857	0.181	-0.011
-68.436	27.968	-0.427	-0.356
-67.422	-111.858	0.260	0.052
-66.407	746.825	-0.029	0.078
-65.392	-200.000	0.021	0.202
-64.378	-65.587	0.083	0.033
-63.363	412.854	-0.180	-0.379
-62.349	800.000	-0.059	0.176
-61.334	-8.098	-1.051	-0.701
-60.319	-146.432	0.276	0.024
-59.305	-200.000	-0.198	-0.871
-58.290	539.851	0.394	0.928
-57.276	800.000	0.583	1.808
-56.261	-200.000	98.097	579.868
-55.246	640.847	1396.935	3520.872
-54.232	186.030	2607.538	3838.343
-53.217	121.489	2200.397	2714.196
-52.203	45.227	1733.335	1581.980
-51.188	37.861	1543.526	1357.638
-50.173	35.421	1516.452	1317.048
-49.159	54.491	1567.290	1494.701
-48.144	58.189	1586.267	1538.529
-47.130	38.139	1541.538	1357.609
-46.115	34.896	1525.516	1321.084
-45.100	34.693	1522.444	1316.972
-44.086	34.736	1520.442	1315.483
-43.071	34.608	1518.806	1313.137
-42.057	34.556	1517.023	1311.186
-41.042	34.641	1515.638	1310.520
-40.027	34.650	1514.560	1309.595
-39.013	34.738	1512.566	1308.427
-37.998	34.722	1511.441	1307.291
-36.984	34.679	1510.633	1306.248
-35.969	34.696	1509.032	1304.925
-34.954	34.646	1507.809	1303.476
-33.940	34.762	1505.790	1302.469
-32.925	34.682	1504.706	1300.935
-31.911	34.729	1503.646	1300.283
-30.896	34.741	1502.194	1299.062
-29.881	34.775	1500.971	1298.182
-28.867	34.745	1499.437	1296.601
-27.852	34.796	1497.768	1295.448
-26.838	34.765	1496.799	1294.349
-25.823	34.774	1495.168	1292.951
-24.809	34.727	1493.613	1291.234
-23.794	34.738	1492.072	1289.926
-22.779	34.735	1491.228	1289.126
-21.765	34.750	1489.488	1287.674
-20.750	34.785	1488.761	1287.229
-19.736	34.685	1487.910	1285.767
-18.721	34.805	1486.527	1285.326
-17.706	34.683	1485.581	1283.643
-16.692	34.648	1484.605	1282.510
-15.677	34.688	1483.590	1281.849
-14.663	34.636	1482.957	1280.904
-13.648	34.625	1481.762	1279.747
-12.633	34.568	1480.997	1278.652
-11.619	34.569	1479.876	1277.640
-10.604	34.622	1479.021	1277.207
-9.590	34.603	1478.291	1276.402
-8.575	34.634	1477.017	1275.455
-7.560	34.587	1476.571	1274.709
-6.546	34.670	1475.376	1274.178
-5.531	34.596	1474.735	1273.080
-4.517	34.579	1473.871	1272.174
-3.502	34.597	1472.787	1271.307
-2.487	34.624	1471.589	1270.400
-1.473	34.674	1470.348	1269.611
-0.458	34.659	1469.212	1268.483
0.556	36.591	1459.601	1256.928
1.571	33.235	1432.362	1211.905
2.586	29.057	1369.124	1132.652
3.600	26.655	1285.980	1049.870
4.615	24.490	1237.934	998.461
5.629	20.707	1181.369	932.525
6.644	12.613	1096.151	824.775
7.659	6.071	1054.743	761.910
8.673	4.999	1049.215	752.677
9.688	4.741	1045.996	749.058
10.702	4.531	1044.571	746.961
11.717	4.840	1043.180	747.385
12.731	7.972	1046.700	764.904
13.746	16.119	1058.327	812.746
14.761	21.801	1064.867	845.168
15.775	22.099	1064.035	845.868
16.790	21.299	1061.898	840.249
17.804	20.361	1059.715	833.948
18.819	19.339	1058.543	828.045
19.834	18.956	1057.195	825.080
20.848	18.810	1056.065	823.422
21.863	18.644	1055.376	822.018
22.877	18.484	1054.782	820.719
23.892	18.288	1054.121	819.192
24.907	18.202	1053.343	818.104
25.921	18.240	1052.457	817.527
26.936	18.086	1051.590	816.043
27.950	18.240	1050.430	815.806
28.965	18.198	1049.703	814.967
29.980	18.357	1048.666	814.851
30.994	18.392	1047.346	813.918
32.009	18.501	1047.011	814.102
33.023	18.571	1046.292	813.803
34.038	18.527	1045.616	812.997
35.053	18.514	1044.212	811.771
36.067	18.233	1043.150	809.544
37.082	18.297	1042.240	809.072
38.096	18.343	1041.686	808.788
39.111	18.597	1040.705	809.152
40.126	18.600	1039.907	808.471
41.140	18.351	1039.104	806.606
42.155	18.179	1037.282	804.311
43.169	17.925	1036.920	802.766
44.184	17.896	1035.300	801.301
45.199	17.799	1034.562	800.205
46.213	17.842	1033.677	799.654
47.228	17.924	1032.621	799.148
48.242	18.295	1031.746	800.136
49.257	18.361	1030.912	799.726
50.271	18.351	1029.712	798.677
51.286	18.295	1029.140	797.901
52.301	18.404	1028.355	797.731
53.315	18.275	1027.804	796.632
54.330	18.363	1026.616	796.051
55.344	18.168	1025.667	794.335
56.359	18.053	1024.424	792.773
57.374	18.168	1023.333	792.391
58.388	18.168	1022.811	791.917
59.403	18.028	1021.725	790.359
60.417	17.956	1020.978	789.376
61.432	17.793	1020.928	788.514
62.447	17.852	1019.757	787.813
63.461	17.871	1019.307	787.481
64.476	17.841	1017.892	786.183
65.490	17.682	1017.001	784.692
66.505	17.667	1016.288	784.006
67.520	17.711	1015.365	783.425
68.534	17.791	1014.660	783.179
69.549	17.935	1013.615	782.961
70.563	17.808	1013.014	781.848
71.578	17.913	1012.155	781.596
72.593	17.743	1011.196	780.010
73.607	17.613	1010.503	778.813
74.622	17.533	1009.965	777.960
75.636	17.698	1008.549	777.556
76.651	17.654	1007.738	776.659
77.666	17.724	1006.926	776.286
78.680	17.639	1006.498	775.500
79.695	17.829	1005.570	775.581
80.709	17.735	1005.281	774.862
81.724	17.784	1004.994	774.794
82.739	18.000	1003.864	774.836
83.753	17.948	1003.585	774.313
84.768	18.239	1002.512	774.737
85.782	18.401	1002.182	775.146
86.797	18.514	1001.464	775.032
87.812	18.731	1000.299	775.043
88.826	18.409	999.644	773.010
89.841	18.427	999.075	772.583
90.855	18.359	998.357	771.655
91.870	18.459	997.594	771.446
92.884	18.574	996.811	771.290
93.899	18.535	996.363	770.701
94.914	18.596	995.141	769.960
95.928	18.683	994.589	769.856
96.943	18.619	993.911	768.977
97.957	18.457	993.118	767.571
98.972	18.483	991.817	766.612
99.987	18.401	990.990	765.541
101.001	18.471	991.048	765.827
102.016	18.482	990.027	765.021
103.030	18.444	988.791	763.830
104.045	18.435	988.109	763.196
105.060	18.479	987.385	762.763
106.074	18.389	986.255	761.424
107.089	18.227	984.685	759.425
108.103	17.900	984.297	757.606
109.118	17.767	983.186	756.095
110.133	17.829	982.205	755.550
111.147	17.909	981.231	755.087
112.162	17.853	980.114	753.914
113.176	17.780	979.713	753.215
114.191	17.830	978.734	752.615
115.206	18.054	978.037	752.999
116.220	17.983	977.303	752.058
117.235	17.989	976.456	751.365
118.249	17.833	975.972	750.241
119.264	17.920	974.934	749.758
120.279	17.816	973.912	748.449
121.293	17.786	973.696	748.085
122.308	17.767	972.827	747.268
123.322	17.677	971.782	746.004
124.337	17.692	970.631	745.123
125.352	17.613	969.600	743.921
126.366	17.602	968.465	742.937
127.381	17.645	967.376	742.221
128.395	17.652	966.328	741.382
129.410	17.487	965.924	740.289
130.424	17.736	964.770	740.420
131.439	17.857	963.781	740.119
132.454	17.940	963.206	739.973
133.468	17.968	962.757	739.683
134.483	18.112	961.775	739.485
135.497	18.033	961.375	738.771
136.512	18.049	960.704	738.259
137.527	17.874	960.431	737.229
138.541	18.072	959.105	737.001
139.556	18.084	958.746	736.711
140.570	18.117	957.576	735.887
141.585	18.192	956.970	735.680
142.600	18.383	956.077	735.750
143.614	18.304	956.024	735.303
144.629	18.433	955.018	735.021
145.643	18.553	954.354	734.959
146.658	18.485	953.198	733.712
147.673	18.366	952.007	732.220
148.687	18.216	951.420	731.064
149.702	18.088	950.736	729.929
150.716	18.156	949.394	729.121
151.731	18.163	947.847	727.900
152.746	18.124	947.579	727.464
153.760	18.051	947.122	726.739
154.775	18.071	946.494	726.274
155.789	18.286	945.524	726.379
156.804	18.242	945.110	725.810
157.819	18.381	944.006	725.487
158.833	18.231	943.971	724.760
159.848	18.438	943.399	725.136
160.862	18.571	942.439	724.895
161.877	18.498	941.723	723.971
162.892	18.200	941.253	722.289
163.906	18.138	939.600	720.695
164.921	18.165	938.471	719.876
165.935	18.026	937.587	718.551
166.950	18.109	936.857	718.278
167.964	18.216	936.136	718.109
168.979	18.433	934.544	717.734
169.994	18.196	933.891	716.178
171.008	18.057	933.246	715.039
172.023	18.148	932.656	714.903
173.037	18.433	931.984	715.514
174.052	18.475	931.313	715.112
175.067	18.420	930.761	714.397
176.081	18.127	929.570	712.200
177.096	18.034	928.615	711.017
178.110	17.988	927.764	710.109
179.125	18.199	926.866	710.237
180.140	18.155	926.484	709.700
181.154	18.135	926.290	709.404
182.169	18.337	925.074	709.248
183.183	18.367	925.188	709.395
184.198	18.565	924.104	709.321
185.213	18.578	923.554	708.890
186.227	18.471	922.740	707.760
187.242	18.468	922.659	707.625
188.256	18.583	921.922	707.469
189.271	18.755	921.077	707.469
190.286	18.750	920.292	706.781
191.300	18.563	919.342	705.220
192.315	18.143	918.192	702.551
193.329	17.857	917.511	700.793
194.344	18.065	916.753	701.005
195.359	18.004	916.714	700.664
196.373	18.269	916.127	701.238
197.388	18.463	915.523	701.510
198.402	18.496	915.341	701.441
199.417	18.808	914.814	702.250
200.432	18.828	914.657	702.151
201.446	18.954	914.141	702.208
202.461	18.993	913.816	702.056
203.475	19.048	913.325	701.838
204.490	19.053	912.489	701.154
205.504	18.907	911.125	699.451
206.519	18.729	910.428	698.132
207.534	18.611	909.756	697.075
208.548	18.674	908.853	696.575
209.563	18.656	908.249	695.978
210.577	18.700	907.428	695.467
211.592	18.812	906.656	695.265
212.607	18.919	906.764	695.720
213.621	18.970	906.417	695.598
214.636	18.983	905.253	694.695
215.650	18.844	904.973	693.860
216.665	19.002	904.423	694.014
217.680	19.065	903.700	693.650
218.694	19.028	903.548	693.326
219.709	19.064	902.815	692.844
220.723	19.259	901.976	692.924
221.738	19.053	901.385	691.580
222.753	18.989	900.760	690.782
223.767	18.938	900.263	690.138
224.782	19.028	899.398	689.774
225.796	19.303	898.846	690.392
226.811	19.254	898.355	689.758
227.826	19.306	897.548	689.282
228.840	19.049	896.890	687.690
229.855	19.077	895.908	686.990
230.869	18.970	895.167	685.935
231.884	19.004	894.572	685.550
232.899	18.917	894.250	684.896
233.913	18.947	893.056	684.041
234.928	18.765	892.398	682.753
235.942	18.720	891.720	681.996
236.957	18.783	891.352	681.904
237.972	18.651	890.627	680.764
238.986	18.710	889.924	680.403
240.001	18.790	889.420	680.272
241.015	18.682	888.378	678.990
242.030	18.933	887.691	679.394
243.045	19.022	887.323	679.404
244.059	18.951	887.355	679.090
245.074	19.111	885.962	678.593
246.088	19.037	885.923	678.212
247.103	19.143	885.181	678.002
248.117	19.187	884.743	677.779
249.132	19.351	884.457	678.144
250.147	19.621	883.778	678.626
251.161	19.702	883.625	678.765
252.176	19.906	882.933	678.977
253.190	19.942	882.119	678.428
254.205	19.851	881.849	677.807
255.220	20.049	881.103	677.946
256.234	19.874	880.231	676.531
257.249	19.921	879.606	676.175
258.263	19.892	879.604	676.000
259.278	20.054	878.661	675.850
260.293	19.797	878.075	674.336
261.307	19.938	877.975	674.751
262.322	19.967	877.323	674.302
263.336	20.192	876.155	674.217
264.351	20.145	875.655	673.590
265.366	20.152	875.264	673.260
266.380	20.142	874.810	672.810
267.395	20.133	873.754	671.904
268.409	19.949	873.091	670.624
269.424	19.894	872.424	669.838
270.439	19.889	872.031	669.457
271.453	19.811	871.039	668.336
272.468	19.838	870.478	667.952
273.482	19.759	869.581	666.899
274.497	19.802	869.198	666.713
275.512	19.828	868.249	666.026
276.526	19.826	867.234	665.177
277.541	19.826	867.164	665.065
278.555	19.736	866.856	664.426
279.570	20.024	866.217	664.984
280.585	20.096	865.729	664.826
281.599	20.141	865.377	664.668
282.614	20.042	864.404	663.483
283.628	20.053	863.333	662.647
284.643	19.953	862.911	661.880
285.657	20.010	862.621	661.817
286.672	19.957	862.213	661.244
287.687	19.894	861.793	660.622
288.701	19.905	861.068	660.050
289.716	19.853	860.628	659.457
290.730	20.033	860.097	659.675
291.745	20.206	859.174	659.568
292.760	20.155	858.661	658.922
293.774	20.274	857.759	658.623
294.789	20.224	857.821	658.421
295.803	20.324	857.090	658.183
296.818	20.061	856.607	656.758
297.833	19.972	855.649	655.626
298.847	20.073	854.913	655.388
299.862	20.048	854.181	654.673
300.876	20.114	853.716	654.508
301.891	20.138	853.090	654.063
302.906	20.296	852.599	654.222
303.920	20.489	851.898	654.354
304.935	20.488	851.712	654.150
305.949	20.641	850.980	654.103
306.964	20.538	850.241	653.093
307.979	20.517	849.447	652.345
308.993	20.243	849.119	651.007
310.008	20.367	848.763	651.142
311.022	20.494	848.446	651.319
312.037	20.511	847.465	650.571
313.052	20.352	847.137	649.665
314.066	20.257	846.261	648.582
315.081	20.093	845.379	647.234
316.095	20.226	844.816	647.245
317.110	20.282	844.465	647.127
318.125	20.247	843.838	646.460
319.139	20.140	843.402	645.668
320.154	20.217	842.781	645.423
321.168	20.139	842.594	644.932
322.183	20.344	841.656	644.917
323.197	20.360	841.629	644.902
324.212	20.281	841.045	644.101
325.227	20.319	840.369	643.669
326.241	20.305	839.848	643.162
327.256	20.239	839.109	642.293
328.270	20.259	838.542	641.878
329.285	20.150	838.024	641.022
330.300	20.267	837.214	640.776
331.314	20.151	836.717	639.910
332.329	20.250	836.052	639.711
333.343	20.538	835.491	640.287
334.358	20.434	835.424	639.794
335.373	20.613	834.623	639.785
336.387	20.550	834.461	639.372
337.402	20.542	833.719	638.715
338.416	20.693	832.992	638.656
339.431	20.673	832.999	638.532
340.446	20.848	832.213	638.514
341.460	20.965	831.737	638.523
342.475	21.077	831.280	638.525
343.489	21.007	830.726	637.788
344.504	21.012	830.259	637.389
345.519	21.178	829.359	637.248
346.533	21.139	829.693	637.308
347.548	21.209	828.783	636.805
348.562	20.939	828.367	635.445
349.577	20.720	827.595	633.999
350.592	20.772	826.561	633.340
351.606	20.634	826.180	632.492
352.621	20.608	825.701	631.976
353.635	20.589	825.550	631.734
354.650	20.702	825.185	631.810
355.665	20.711	824.506	631.266
356.679	20.828	824.053	631.286
357.694	20.871	823.651	631.079
358.708	20.959	823.153	630.958
359.723	20.787	822.941	630.118
360.738	20.776	822.141	629.411
361.752	20.754	821.840	629.046
362.767	21.048	821.295	629.634
363.781	20.971	820.849	628.957
364.796	21.151	820.527	629.306
365.810	21.308	820.402	629.720
366.825	21.428	819.944	629.743
367.840	21.385	819.766	629.399
368.854	21.445	818.575	628.642
369.869	21.200	818.708	627.808
370.883	21.364	817.728	627.590
371.898	21.323	817.024	626.846
372.913	21.278	816.769	626.434
373.927	21.515	815.758	626.453
374.942	21.426	815.246	625.686
375.956	21.301	814.730	624.788
376.971	21.380	814.092	624.524
377.986	21.417	813.777	624.359
379.000	21.667	813.611	625.070
380.015	21.590	812.882	624.181
381.029	21.570	812.060	623.423
382.044	21.547	811.345	622.736
383.059	21.555	810.935	622.394
384.073	21.498	810.695	621.953
385.088	21.512	809.851	621.301
386.102	21.470	809.066	620.495
387.117	21.336	808.329	619.400
388.132	21.361	808.208	619.341
389.146	21.228	807.898	618.577
390.161	21.489	807.334	619.015
391.175	21.475	806.860	618.548
392.190	21.504	806.844	618.582
393.205	21.542	806.198	618.167
394.219	21.342	805.955	617.219
395.234	21.276	805.272	616.407
396.248	21.314	804.421	615.836
397.263	21.197	803.849	614.931
398.278	21.171	803.498	614.519
399.292	21.078	802.844	613.637
400.307	21.072	802.980	613.662
401.321	21.073	802.225	613.037
402.336	21.258	801.851	613.346
403.350	21.264	801.519	613.059
404.365	21.295	801.185	612.860
405.380	21.644	800.676	613.636
406.394	21.596	800.282	613.114
407.409	21.610	799.812	612.749
408.423	21.753	799.509	612.962
409.438	22.041	798.768	613.347
410.453	21.985	798.763	613.092
411.467	21.906	798.338	612.434
412.482	22.052	797.675	612.383
413.496	22.128	797.276	612.285
414.511	21.999	797.198	611.723
415.526	22.236	796.477	611.941
416.540	22.077	796.413	611.284
417.555	21.931	795.840	610.282
418.569	21.874	795.303	609.618
419.584	22.098	794.662	609.850
420.599	22.100	794.143	609.404
421.613	159.461	1368.736	1790.798
422.628	138.218	1452.478	1790.909
