DTS Sentinel unit serial number:	SN413079Multiplexer serial number:	ORYXHardware model number:	OX4-SRSoftware version number:	ORYX F/W v4.00 Oryx Data Collector v3.7.2.0data status	okinstallation	princeton_trtdifferential loss correction	single-endedforward channel	channel 3reverse channel	N/Adate	2019/09/14time	08:44:34forward acquisition time	60.00reverse acquisition time	0.00gamma	496.2192k internal	0.2326k external	0.2326temperature offset calibration	1.0054default loss term (dB/km)	0.3790temperature slope calibration	1.0000multiplexer offset coefficient	1.0000multiplexer slope coefficient	1.0000fibre end	0.00T internal ref (°C)	29.06T ext. ref 1 (°C)	3.67T ext. ref 2 (°C)	26.65length (m)	temperature (°C)	Stokes	anti-Stokes-747.200	337.241	0.145	-0.285
-746.185	-105.914	0.180	0.041
-745.171	-141.934	-0.287	-0.029
-744.156	-200.000	0.024	-0.317
-743.142	-88.605	0.261	-0.078
-742.127	537.718	0.152	0.364
-741.112	302.820	-0.076	-0.142
-740.098	-130.382	-0.312	0.043
-739.083	313.292	-0.128	0.242
-738.069	-150.659	-0.178	0.014
-737.054	655.339	0.140	-0.363
-736.039	-88.856	-0.152	0.045
-735.025	-200.000	-0.037	0.276
-734.010	419.969	0.083	-0.179
-732.996	42.590	-0.082	-0.075
-731.981	-47.588	0.075	-0.037
-730.966	-19.293	-0.221	0.138
-729.952	-161.030	-0.021	0.001
-728.937	-200.000	0.036	0.197
-727.923	-177.977	-0.361	-0.009
-726.908	304.384	-0.075	-0.140
-725.894	118.275	0.308	-0.383
-724.879	-164.016	-0.194	0.009
-723.864	-3.437	0.218	0.153
-722.850	-200.000	0.052	-0.260
-721.835	800.000	-0.118	0.331
-720.821	-59.538	-0.224	0.097
-719.806	-112.405	-0.193	0.039
-718.791	-200.000	-0.023	0.138
-717.777	151.627	-0.024	-0.033
-716.762	298.854	0.294	-0.545
-715.748	-61.244	0.225	-0.095
-714.733	-150.785	-0.232	-0.018
-713.718	-26.782	-0.186	-0.110
-712.704	-84.603	-0.198	0.063
-711.689	-15.822	0.063	0.041
-710.675	203.909	-0.070	0.110
-709.660	-174.850	-0.149	-0.004
-708.645	-37.713	-0.276	-0.148
-707.631	1.604	-0.072	-0.052
-706.616	-31.574	0.132	-0.075
-705.602	-15.650	0.216	-0.139
-704.587	66.431	-0.243	-0.249
-703.572	-142.867	-0.292	-0.029
-702.558	-196.574	-0.073	0.000
-701.543	68.732	-0.049	-0.051
-700.529	156.665	0.202	0.281
-699.514	-11.367	-0.149	0.099
-698.499	104.825	-0.125	-0.148
-697.485	-200.000	0.027	-0.163
-696.470	800.000	0.054	-0.236
-695.456	-80.258	-0.172	0.058
-694.441	-66.764	-0.107	-0.043
-693.426	-153.410	-0.135	0.009
-692.412	-0.025	-0.294	0.211
-691.397	-109.490	-0.157	-0.033
-690.383	-48.629	0.113	-0.055
-689.368	-56.030	0.053	0.024
-688.354	24.570	-0.256	0.213
-687.339	104.408	0.107	-0.126
-686.324	-92.245	0.340	0.097
-685.310	-100.050	-0.117	-0.029
-684.295	-52.122	-0.130	-0.061
-683.281	72.647	0.035	-0.037
-682.266	-200.000	0.036	-0.303
-681.251	60.581	-0.135	0.134
-680.237	55.135	-0.154	0.150
-679.222	-200.000	0.037	-0.261
-678.208	289.063	-0.048	0.087
-677.193	-200.000	0.005	0.206
-676.178	150.534	-0.099	-0.135
-675.164	800.000	-0.040	-0.160
-674.149	-175.112	0.129	0.004
-673.135	-200.000	-0.007	0.242
-672.120	45.666	0.184	-0.171
-671.105	-86.395	-0.307	0.095
-670.091	-194.259	-0.175	-0.001
-669.076	95.246	-0.274	0.314
-668.062	-37.728	-0.173	0.093
-667.047	-200.000	0.018	-0.172
-666.032	-200.000	-0.000	0.057
-665.018	310.939	0.086	-0.161
-664.003	800.000	0.049	0.144
-662.989	-200.000	0.024	-0.271
-661.974	-200.000	-0.040	-0.186
-660.959	-200.000	0.017	-0.167
-659.945	451.093	0.024	0.054
-658.930	-88.879	0.079	-0.024
-657.916	-76.718	-0.261	-0.092
-656.901	176.047	-0.092	0.134
-655.886	118.392	-0.085	0.106
-654.872	263.254	-0.046	-0.080
-653.857	-64.899	0.242	-0.099
-652.843	-157.685	0.301	-0.018
-651.828	800.000	0.031	-0.111
-650.814	-167.815	0.133	-0.005
-649.799	113.152	-0.015	-0.019
-648.784	45.345	-0.134	-0.124
-647.770	76.674	-0.266	0.284
-646.755	-67.075	-0.347	0.138
-645.741	-19.041	-0.146	-0.091
-644.726	517.882	-0.135	-0.317
-643.711	-18.465	-0.107	0.067
-642.697	-129.739	0.165	-0.023
-641.682	161.287	-0.105	0.147
-640.668	-72.925	-0.077	-0.029
-639.653	-51.383	-0.151	-0.071
-638.638	-100.409	0.096	0.024
-637.624	800.000	-0.063	-0.207
-636.609	-200.000	0.002	-0.212
-635.595	23.930	0.056	-0.046
-634.580	-157.631	-0.268	0.016
-633.565	-11.439	-0.203	0.134
-632.551	53.970	-0.034	0.033
-631.536	-200.000	0.220	-0.000
-630.522	551.426	-0.065	-0.156
-629.507	-27.940	0.219	0.127
-628.492	-200.000	-0.035	0.171
-627.478	-196.639	0.162	0.001
-626.463	44.739	-0.190	-0.176
-625.449	-117.866	-0.196	-0.035
-624.434	-115.247	-0.398	0.076
-623.419	101.274	0.057	0.067
-622.405	-151.952	-0.219	0.016
-621.390	-148.839	0.271	-0.022
-620.376	76.602	-0.269	0.286
-619.361	-37.435	0.201	-0.108
-618.346	76.561	-0.194	-0.207
-617.332	-90.779	0.125	0.036
-616.317	800.000	-0.010	-0.045
-615.303	-200.000	-0.015	0.150
-614.288	-200.000	0.044	0.241
-613.273	-141.461	0.078	0.008
-612.259	-95.070	0.105	-0.028
-611.244	-200.000	-0.027	-0.212
-610.230	-120.614	-0.281	0.048
-609.215	-124.924	-0.051	0.008
-608.201	512.099	-0.012	0.029
-607.186	21.337	-0.302	-0.246
-606.171	-95.859	-0.262	0.070
-605.157	385.310	-0.070	0.144
-604.142	800.000	0.023	-0.068
-603.128	48.643	0.058	-0.055
-602.113	165.336	-0.131	0.186
-601.098	-12.842	-0.118	0.077
-600.084	136.865	0.254	-0.332
-599.069	-27.946	0.229	-0.133
-598.055	146.128	0.068	-0.091
-597.040	800.000	0.124	0.517
-596.025	-116.169	0.367	0.068
-595.011	119.766	0.078	0.097
-593.996	800.000	-0.058	-0.209
-592.982	-55.227	-0.269	-0.121
-591.967	356.434	0.119	-0.238
-590.952	143.857	0.054	-0.072
-589.938	-200.000	0.038	0.231
-588.923	-200.000	-0.024	-0.302
-587.909	46.191	0.123	-0.114
-586.894	42.267	-0.282	-0.257
-585.879	360.307	0.090	-0.181
-584.865	-88.354	0.148	0.044
-583.850	-146.420	-0.082	-0.007
-582.836	97.199	0.075	-0.086
-581.821	108.148	-0.068	0.082
-580.806	242.232	-0.031	-0.052
-579.792	24.149	-0.231	-0.191
-578.777	263.761	-0.179	-0.312
-577.763	-59.887	0.109	0.047
-576.748	-200.000	0.008	-0.054
-575.733	-88.708	-0.180	-0.054
-574.719	70.915	0.188	0.195
-573.704	-100.941	0.331	0.081
-572.690	-200.000	-0.042	0.187
-571.675	-200.000	0.008	-0.182
-570.661	800.000	0.086	0.241
-569.646	-9.977	0.177	-0.118
-568.631	800.000	0.038	0.127
-567.617	-200.000	0.063	-0.467
-566.602	-51.450	0.153	-0.072
-565.588	-200.000	-0.006	0.389
-564.573	-200.000	0.005	0.091
-563.558	67.502	0.025	0.026
-562.544	800.000	-0.072	0.286
-561.529	123.652	-0.028	0.036
-560.515	15.372	-0.108	-0.085
-559.500	-200.000	-0.041	0.298
-558.485	-99.507	0.143	0.036
-557.471	-49.241	0.181	-0.086
-556.456	800.000	-0.027	0.080
-555.442	-200.000	-0.010	0.280
-554.427	519.995	0.049	-0.115
-553.412	-97.322	0.127	-0.033
-552.398	-137.552	0.098	0.011
-551.383	479.102	-0.020	0.045
-550.369	413.579	-0.062	0.133
-549.354	-182.583	-0.231	-0.004
-548.339	72.054	0.135	0.141
-547.325	229.305	0.183	0.299
-546.310	76.225	-0.084	-0.089
-545.296	391.490	0.130	-0.271
-544.281	800.000	-0.053	-0.213
-543.266	598.742	-0.045	-0.111
-542.252	-146.098	-0.058	0.005
-541.237	-136.179	0.169	0.020
-540.223	18.548	-0.185	0.148
-539.208	800.000	0.093	-0.389
-538.193	-97.402	0.183	-0.048
-537.179	204.325	-0.115	0.178
-536.164	282.220	-0.090	0.161
-535.150	585.316	0.132	0.326
-534.135	323.644	0.094	0.179
-533.121	-98.326	0.065	-0.017
-532.106	800.000	0.085	-0.246
-531.091	800.000	-0.059	-0.195
-530.077	44.902	0.091	-0.084
-529.062	800.000	0.017	0.065
-528.048	-12.421	-0.149	-0.097
-527.033	577.211	0.033	-0.080
-526.018	16.721	0.144	-0.114
-525.004	-85.895	-0.327	0.101
-523.989	3.260	0.095	0.069
-522.975	-164.910	0.257	0.011
-521.960	110.479	0.136	0.163
-520.945	-80.927	0.253	0.084
-519.931	-187.895	-0.084	0.001
-518.916	-38.094	0.219	0.116
-517.902	430.603	-0.198	-0.429
-516.887	800.000	0.048	0.196
-515.872	-200.000	0.012	-0.126
-514.858	-120.132	-0.137	0.024
-513.843	-98.589	-0.203	-0.052
-512.829	-200.000	-0.017	0.479
-511.814	151.019	-0.149	0.203
-510.799	-91.480	-0.046	-0.013
-509.785	-106.967	0.124	0.027
-508.770	321.270	0.076	-0.144
-507.756	-164.947	-0.507	-0.023
-506.741	-200.000	-0.054	-0.329
-505.726	-200.000	-0.005	-0.293
-504.712	-108.048	-0.355	0.077
-503.697	-200.000	0.045	-0.226
-502.683	-114.455	0.079	0.015
-501.668	800.000	0.159	-0.493
-500.653	-200.000	-0.012	-0.164
-499.639	-148.212	0.321	-0.026
-498.624	-162.751	-0.332	-0.016
-497.610	24.912	0.226	0.187
-496.595	210.223	-0.140	0.220
-495.581	687.810	0.103	-0.270
-494.566	285.289	-0.085	0.153
-493.551	-167.388	0.117	-0.005
-492.537	-72.311	0.228	0.084
-491.522	-89.534	0.233	-0.068
-490.508	-64.558	-0.102	-0.041
-489.493	-200.000	-0.087	0.490
-488.478	-200.000	-0.041	0.209
-487.464	248.408	0.127	-0.214
-486.449	17.129	-0.051	0.041
-485.435	511.932	0.138	0.321
-484.420	127.056	-0.285	0.360
-483.405	-200.000	0.018	0.368
-482.391	-9.190	0.056	0.037
-481.376	-44.177	-0.215	0.108
-480.362	303.509	0.065	0.121
-479.347	-71.364	0.295	-0.110
-478.332	324.274	0.050	0.096
-477.318	139.993	-0.219	-0.289
-476.303	-44.266	-0.104	0.052
-475.289	726.483	-0.122	0.325
-474.274	-50.993	0.079	-0.037
-473.259	12.607	-0.136	0.105
-472.245	-147.732	0.366	-0.031
-471.230	81.476	-0.152	0.165
-470.216	214.255	-0.141	0.223
-469.201	-111.527	-0.105	-0.021
-468.186	68.804	0.211	-0.216
-467.172	258.315	-0.094	0.162
-466.157	35.885	0.090	0.079
-465.143	800.000	-0.040	-0.162
-464.128	633.165	-0.027	-0.067
-463.113	177.371	-0.081	-0.118
-462.099	41.207	-0.243	-0.219
-461.084	-68.826	-0.237	-0.091
-460.070	-95.314	-0.311	0.084
-459.055	-22.754	0.270	0.162
-458.040	-71.668	0.199	0.074
-457.026	-200.000	-0.038	-0.178
-456.011	-83.589	-0.295	0.094
-454.997	-171.781	-0.165	0.005
-453.982	-200.000	0.001	-0.121
-452.968	188.567	-0.028	0.042
-451.953	352.451	0.069	-0.137
-450.938	-200.000	-0.017	-0.092
-449.924	-41.836	0.197	0.101
-448.909	-95.969	0.282	0.075
-447.895	415.908	-0.142	0.301
-446.880	-200.000	0.071	-0.450
-445.865	716.920	-0.154	-0.407
-444.851	1.845	-0.284	-0.204
-443.836	-21.047	-0.051	-0.031
-442.822	-95.565	-0.246	-0.066
-441.807	297.678	-0.132	-0.242
-440.792	138.631	0.084	-0.110
-439.778	800.000	-0.094	0.357
-438.763	-16.058	0.433	0.274
-437.749	-69.966	-0.175	0.067
-436.734	800.000	-0.093	-0.370
-435.719	28.568	0.317	0.267
-434.705	800.000	-0.119	-0.474
-433.690	45.924	0.274	-0.253
-432.676	-6.216	-0.147	0.100
-431.661	-51.870	0.108	0.050
-430.646	-54.439	-0.263	-0.119
-429.632	-200.000	-0.018	0.213
-428.617	69.320	0.155	0.158
-427.603	-25.557	-0.157	0.093
-426.588	-30.559	0.267	0.151
-425.573	502.945	-0.094	0.216
-424.559	-152.221	0.306	-0.022
-423.544	-122.371	0.419	-0.068
-422.530	-24.088	0.312	-0.185
-421.515	309.645	-0.116	-0.216
-420.500	347.492	0.018	-0.034
-419.486	46.638	0.168	0.155
-418.471	222.236	0.139	0.222
-417.457	-200.000	-0.029	-0.362
-416.442	-58.987	-0.285	-0.123
-415.428	379.338	0.035	-0.070
-414.413	282.261	-0.100	-0.178
-413.398	-32.543	-0.132	-0.073
-412.384	-200.000	0.020	0.440
-411.369	-21.813	0.063	0.038
-410.355	225.040	0.067	-0.109
-409.340	38.665	-0.037	-0.033
-408.325	-40.904	0.196	0.101
-407.311	-83.656	0.036	-0.011
-406.296	-200.000	0.014	0.346
-405.282	-11.369	0.087	0.057
-404.267	-200.000	0.029	-0.144
-403.252	800.000	-0.070	-0.278
-402.238	108.879	-0.051	-0.060
-401.223	-200.000	-0.077	0.366
-400.209	-89.057	0.118	-0.035
-399.194	-200.000	0.035	0.225
-398.179	-156.676	-0.174	0.011
-397.165	114.059	0.168	-0.204
-396.150	800.000	-0.154	0.616
-395.136	67.067	0.178	-0.180
-394.121	148.397	-0.108	0.145
-393.106	-200.000	0.073	-0.405
-392.092	-107.399	-0.095	0.021
-391.077	36.634	0.202	-0.177
-390.063	533.180	-0.100	-0.235
-389.048	-35.736	0.238	0.128
-388.033	-4.980	0.182	0.124
-387.019	49.889	0.185	0.173
-386.004	-200.000	-0.039	-0.222
-384.990	800.000	0.036	0.105
-383.975	800.000	-0.030	-0.129
-382.960	49.263	0.048	-0.045
-381.946	-144.989	-0.271	-0.025
-380.931	-200.000	-0.017	0.153
-379.917	-117.981	-0.136	-0.024
-378.902	-23.815	-0.131	0.078
-377.888	-158.433	0.275	-0.016
-376.873	40.296	0.103	0.092
-375.858	800.000	0.048	0.160
-374.844	-21.856	0.211	-0.127
-373.829	-132.846	-0.342	-0.043
-372.815	-93.577	0.157	0.043
-371.800	-200.000	0.034	0.166
-370.785	-104.264	0.174	-0.040
-369.771	-200.000	-0.014	-0.126
-368.756	-200.000	0.007	-0.107
-367.742	-158.818	0.156	-0.009
-366.727	100.067	0.255	-0.294
-365.712	30.887	0.300	-0.255
-364.698	-81.902	0.237	-0.077
-363.683	311.335	0.183	0.341
-362.669	-98.827	0.168	-0.042
-361.654	10.137	-0.351	0.265
-360.639	-14.574	0.099	-0.064
-359.625	644.684	0.153	-0.389
-358.610	-52.511	0.475	-0.218
-357.596	-107.863	-0.200	0.043
-356.581	-76.605	-0.169	-0.059
-355.566	800.000	0.085	0.236
-354.552	-94.818	0.180	0.049
-353.537	800.000	-0.049	0.183
-352.523	-48.750	0.169	-0.080
-351.508	-78.968	0.157	-0.053
-350.493	22.471	-0.216	0.175
-349.479	-82.965	0.129	-0.041
-348.464	-44.445	-0.363	-0.180
-347.450	56.076	0.148	0.142
-346.435	-137.371	-0.250	-0.028
-345.420	480.473	0.092	0.206
-344.406	800.000	0.073	-0.240
-343.391	800.000	-0.137	0.415
-342.377	-43.414	0.053	0.026
-341.362	800.000	0.024	-0.082
-340.348	-17.797	-0.180	-0.112
-339.333	706.697	-0.094	0.247
-338.318	-200.000	0.024	0.154
-337.304	-5.214	-0.031	-0.021
-336.289	-200.000	0.033	-0.179
-335.275	-84.055	0.273	-0.086
-334.260	800.000	-0.069	0.224
-333.245	-163.762	-0.406	-0.019
-332.231	-200.000	-0.038	0.252
-331.216	451.514	-0.166	0.365
-330.202	264.094	-0.107	-0.184
-329.187	-200.000	-0.001	0.134
-328.172	319.703	-0.098	0.184
-327.158	275.812	-0.113	0.200
-326.143	-4.483	0.360	-0.247
-325.129	669.119	-0.100	-0.257
-324.114	-200.000	-0.005	0.036
-323.099	182.702	0.046	0.068
-322.085	-200.000	0.158	0.000
-321.070	254.804	-0.052	0.088
-320.056	119.970	0.042	-0.051
-319.041	-191.977	0.221	0.002
-318.026	530.645	-0.092	-0.216
-317.012	38.288	-0.325	0.287
-315.997	533.945	0.055	0.128
-314.983	-150.632	0.211	-0.016
-313.968	30.199	0.231	0.196
-312.953	141.479	0.050	-0.066
-311.939	-9.182	-0.178	0.118
-310.924	-100.598	-0.268	-0.066
-309.910	-200.000	-0.037	0.201
-308.895	65.438	0.107	-0.108
-307.880	343.705	-0.119	-0.232
-306.866	800.000	-0.051	0.215
-305.851	-168.507	-0.041	0.002
-304.837	-78.358	0.174	0.059
-303.822	-81.537	-0.303	-0.099
-302.807	-87.196	0.329	0.099
-301.793	-200.000	0.006	0.215
-300.778	-200.000	0.035	-0.153
-299.764	746.299	-0.058	-0.155
-298.749	-8.792	-0.229	-0.152
-297.735	98.625	-0.122	-0.140
-296.720	129.038	0.146	0.184
-295.705	-200.000	-0.014	0.369
-294.691	800.000	-0.057	-0.243
-293.676	-18.169	0.128	0.079
-292.662	-64.913	-0.113	0.045
-291.647	240.725	-0.120	0.199
-290.632	501.881	0.013	0.030
-289.618	-114.648	0.226	0.043
-288.603	156.949	0.040	-0.055
-287.589	-155.227	-0.107	-0.007
-286.574	-9.919	-0.287	-0.189
-285.559	218.252	0.124	0.196
-284.545	800.000	-0.081	0.294
-283.530	-35.391	-0.255	-0.138
-282.516	-110.360	0.416	0.086
-281.501	-80.699	-0.111	-0.037
-280.486	-177.201	-0.411	0.010
-279.472	-149.839	-0.009	-0.001
-278.457	-200.000	0.002	0.274
-277.443	179.393	0.245	0.355
-276.428	708.325	0.169	0.443
-275.413	5.005	-0.203	0.148
-274.399	800.000	-0.078	-0.254
-273.384	45.723	0.189	-0.173
-272.370	419.593	-0.088	0.187
-271.355	-39.857	-0.184	-0.095
-270.340	-3.118	-0.181	0.125
-269.326	101.574	0.323	0.373
-268.311	421.619	-0.040	0.085
-267.297	245.138	-0.095	0.157
-266.282	-119.176	0.243	0.042
-265.267	683.017	-0.097	-0.251
-264.253	-169.996	-0.167	-0.006
-263.238	92.037	0.109	-0.121
-262.224	-200.000	0.025	-0.290
-261.209	-200.000	0.005	-0.330
-260.195	262.503	-0.195	0.335
-259.180	272.879	0.064	0.112
-258.165	273.477	-0.151	-0.263
-257.151	533.656	-0.066	0.155
-256.136	-25.351	0.122	-0.071
-255.122	-26.013	-0.300	-0.175
-254.107	-166.066	0.199	-0.008
-253.092	-200.000	0.003	-0.050
-252.078	-200.000	-0.069	-0.308
-251.063	-155.732	-0.167	0.011
-250.049	581.726	-0.122	-0.296
-249.034	-5.389	0.186	0.126
-248.019	145.357	-0.246	0.325
-247.005	-150.020	-0.047	-0.004
-245.990	452.058	-0.071	-0.156
-244.976	0.838	0.078	0.055
-243.961	-200.000	-0.026	-0.316
-242.946	-126.932	-0.101	0.015
-241.932	601.610	-0.090	-0.221
-240.917	-109.015	-0.069	0.014
-239.903	-61.846	0.154	0.064
-238.888	-200.000	-0.022	-0.142
-237.873	216.945	-0.198	-0.312
-236.859	-8.787	0.253	0.168
-235.844	-116.146	0.334	0.061
-234.830	800.000	-0.021	0.087
-233.815	39.285	0.077	0.068
-232.800	-200.000	0.030	0.377
-231.786	764.376	-0.096	0.259
-230.771	169.063	-0.108	-0.152
-229.757	-4.416	-0.329	-0.225
-228.742	800.000	-0.097	-0.395
-227.727	138.463	0.294	-0.381
-226.713	-50.089	-0.352	0.165
-225.698	71.358	-0.175	0.179
-224.684	-130.850	-0.065	0.009
-223.669	-143.483	0.361	-0.034
-222.655	29.785	0.158	-0.133
-221.640	-76.226	-0.202	-0.071
-220.625	-46.866	0.069	0.034
-219.611	47.348	0.056	0.051
-218.596	-200.000	-0.009	-0.045
-217.582	799.658	-0.040	-0.110
-216.567	33.364	0.014	0.012
-215.552	-200.000	-0.037	-0.204
-214.538	-79.529	0.359	-0.120
-213.523	800.000	0.128	-0.414
-212.509	172.150	-0.165	-0.235
-211.494	-200.000	0.007	-0.298
-210.479	-200.000	-0.035	0.270
-209.465	-15.613	0.087	-0.055
-208.450	570.235	-0.100	0.241
-207.436	-68.537	0.034	0.013
-206.421	-108.748	-0.236	0.050
-205.406	350.380	-0.086	0.169
-204.392	203.918	0.071	0.108
-203.377	162.312	-0.093	0.128
-202.363	66.937	-0.256	-0.258
-201.348	43.593	0.205	0.185
-200.333	1.537	-0.058	-0.041
-199.319	-92.112	0.066	-0.018
-198.304	-5.795	-0.092	0.062
-197.290	-137.977	0.365	-0.040
-196.275	-132.719	0.203	-0.026
-195.260	61.470	0.080	0.078
-194.246	-26.643	-0.216	0.125
-193.231	-81.874	-0.237	0.077
-192.217	-59.685	0.196	-0.083
-191.202	9.591	0.115	-0.086
-190.187	367.353	0.082	-0.164
-189.173	-0.029	-0.231	0.163
-188.158	-151.071	0.045	0.003
-187.144	710.761	0.125	0.326
-186.129	-69.447	0.074	0.028
-185.114	-200.000	0.024	0.150
-184.100	-23.688	0.118	-0.070
-183.085	-109.654	0.300	0.062
-182.071	-50.542	-0.373	0.174
-181.056	-148.637	0.146	0.012
-180.042	-200.000	0.080	0.000
-179.027	-76.213	-0.402	-0.140
-178.012	-200.000	0.024	-0.334
-176.998	88.529	-0.081	0.088
-175.983	-6.022	-0.136	0.092
-174.969	356.709	-0.224	-0.441
-173.954	-93.010	0.196	-0.054
-172.939	70.770	0.179	-0.183
-171.925	-131.943	0.269	-0.035
-170.910	-169.595	0.440	0.016
-169.896	-200.000	-0.014	-0.081
-168.881	-200.000	-0.049	0.296
-167.866	-19.582	-0.226	-0.138
-166.852	72.524	-0.143	0.147
-165.837	-177.503	0.304	0.007
-164.823	-135.188	-0.193	0.023
-163.808	-69.336	-0.221	-0.084
-162.793	-200.000	0.042	-0.240
-161.779	-62.333	-0.078	0.032
-160.764	-39.572	0.197	-0.102
-159.750	191.208	-0.120	-0.178
-158.735	-200.000	-0.007	-0.162
-157.720	17.572	0.075	-0.059
-156.706	-186.145	0.264	-0.004
-155.691	-66.684	0.105	-0.041
-154.677	-81.503	0.071	0.023
-153.662	18.533	0.160	0.126
-152.647	158.106	-0.167	-0.228
-151.633	-200.000	-0.019	0.118
-150.618	-85.253	0.216	0.066
-149.604	124.870	0.090	-0.112
-148.589	-60.787	-0.308	-0.129
-147.574	111.040	0.048	-0.056
-146.560	-116.674	0.435	0.079
-145.545	454.720	-0.115	0.252
-144.531	89.881	-0.030	0.033
-143.516	-200.000	0.048	-0.227
-142.502	485.957	-0.228	-0.512
-141.487	-200.000	-0.059	0.268
-140.472	-58.254	-0.063	-0.027
-139.458	-128.872	0.240	0.033
-138.443	-200.000	0.018	0.084
-137.429	171.986	-0.086	0.122
-136.414	-130.502	-0.495	0.066
-135.399	-76.359	0.147	-0.051
-134.385	96.908	-0.175	0.198
-133.370	260.530	0.232	0.395
-132.356	68.304	-0.128	-0.129
-131.341	-92.638	0.157	-0.043
-130.326	-65.946	-0.425	0.167
-129.312	301.172	0.168	-0.306
-128.297	-176.799	-0.043	0.001
-127.283	459.565	-0.119	-0.260
-126.268	-200.000	-0.010	-0.148
-125.253	-200.000	-0.003	0.410
-124.239	-200.000	-0.044	0.217
-123.224	-79.935	0.062	0.021
-122.210	56.771	0.141	-0.135
-121.195	-200.000	0.001	0.446
-120.180	71.402	0.090	0.092
-119.166	-28.892	0.124	-0.070
-118.151	413.447	-0.073	-0.152
-117.137	70.394	-0.078	-0.080
-116.122	-179.895	0.406	-0.009
-115.107	-87.240	0.214	-0.064
-114.093	28.166	-0.135	0.112
-113.078	237.403	0.108	0.177
-112.064	-35.517	-0.293	0.157
-111.049	137.764	0.066	-0.085
-110.034	800.000	-0.099	0.270
-109.020	800.000	-0.075	0.275
-108.005	-200.000	0.006	-0.030
-106.991	56.922	0.360	-0.345
-105.976	282.931	0.121	-0.215
-104.962	174.199	-0.241	0.342
-103.947	-60.347	0.265	0.111
-102.932	116.238	-0.215	0.259
-101.918	86.122	0.124	0.134
-100.903	-200.000	0.018	-0.175
-99.889	-27.971	-0.111	-0.063
-98.874	-7.252	0.121	-0.080
-97.859	-39.744	0.233	0.120
-96.845	-52.130	0.210	-0.096
-95.830	-95.965	-0.180	-0.047
-94.816	-200.000	0.000	-0.383
-93.801	512.924	-0.083	-0.191
-92.786	800.000	0.055	-0.228
-91.772	-160.432	-0.044	-0.002
-90.757	800.000	0.079	-0.222
-89.743	49.111	0.153	-0.141
-88.728	18.296	-0.181	-0.142
-87.713	89.813	0.079	0.087
-86.699	148.970	0.187	-0.248
-85.684	110.733	0.106	0.125
-84.670	367.382	0.207	0.411
-83.655	166.173	0.172	0.240
-82.640	-200.000	0.056	-0.307
-81.626	113.601	-0.062	0.074
-80.611	-92.461	0.213	0.059
-79.597	-75.554	-0.083	-0.029
-78.582	467.368	-0.038	0.085
-77.567	-121.858	0.333	-0.054
-76.553	-117.662	0.242	-0.043
-75.538	49.536	-0.058	-0.054
-74.524	-118.943	-0.197	-0.034
-73.509	800.000	0.052	-0.149
-72.494	188.300	0.095	0.140
-71.480	734.125	0.032	-0.085
-70.465	533.186	0.133	0.309
-69.451	168.755	0.212	-0.297
-68.436	-200.000	-0.007	-0.369
-67.422	-115.687	-0.089	0.016
-66.407	44.700	-0.161	0.146
-65.392	-200.000	0.007	-0.076
-64.378	-158.050	-0.124	0.007
-63.363	-200.000	-0.041	-0.210
-62.349	48.057	0.259	0.238
-61.334	246.823	-0.890	-1.476
-60.319	282.715	0.269	0.474
-59.305	162.191	-0.682	-0.939
-58.290	261.920	0.686	1.167
-57.276	411.677	0.654	1.363
-56.261	-200.000	104.719	592.299
-55.246	516.344	1482.375	3401.863
-54.232	176.917	2689.038	3841.278
-53.217	111.674	2196.774	2602.956
-52.203	39.653	1717.856	1512.559
-51.188	32.174	1527.734	1293.839
-50.173	29.834	1500.955	1255.251
-49.159	50.304	1555.785	1443.138
-48.144	50.512	1573.175	1460.655
-47.130	32.407	1528.913	1296.234
-46.115	29.297	1514.299	1262.533
-45.100	29.166	1510.763	1258.640
-44.086	29.143	1508.663	1256.682
-43.071	29.108	1506.924	1254.943
-42.057	29.109	1504.493	1252.882
-41.042	29.085	1503.336	1251.704
-40.027	29.101	1501.843	1250.520
-39.013	29.090	1500.005	1248.865
-37.998	28.985	1499.035	1247.294
-36.984	28.994	1497.905	1246.365
-35.969	29.042	1496.347	1245.347
-34.954	28.913	1495.580	1243.783
-33.940	29.070	1493.573	1243.128
-32.925	29.115	1491.727	1241.847
-31.911	29.088	1490.609	1240.683
-30.896	29.115	1489.741	1240.095
-29.881	29.133	1488.247	1238.919
-28.867	29.238	1486.982	1238.522
-27.852	29.121	1486.046	1236.910
-26.838	29.156	1484.279	1235.622
-25.823	29.094	1482.777	1233.912
-24.809	29.057	1481.591	1232.627
-23.794	29.154	1479.910	1231.824
-22.779	29.117	1478.997	1230.773
-21.765	29.202	1477.581	1230.115
-20.750	29.163	1476.769	1229.128
-19.736	29.067	1475.742	1227.580
-18.721	29.008	1474.571	1226.165
-17.706	29.133	1473.197	1225.807
-16.692	29.063	1471.987	1224.287
-15.677	29.017	1471.232	1223.301
-14.663	28.998	1470.546	1222.556
-13.648	29.068	1468.913	1221.615
-12.633	29.055	1467.962	1220.692
-11.619	29.017	1467.752	1220.219
-10.604	29.057	1466.117	1219.076
-9.590	29.019	1465.542	1218.295
-8.575	28.936	1465.066	1217.301
-7.560	28.960	1464.284	1216.760
-6.546	29.091	1462.886	1216.421
-5.531	29.012	1462.201	1215.282
-4.517	28.964	1461.206	1214.085
-3.502	29.061	1460.158	1213.809
-2.487	28.998	1459.204	1212.549
-1.473	29.009	1458.012	1211.583
-0.458	29.091	1456.617	1210.916
0.556	29.608	1447.989	1202.428
1.571	27.417	1422.944	1167.491
2.586	24.678	1361.990	1100.543
3.600	23.176	1279.252	1024.908
4.615	21.818	1233.243	980.369
5.629	18.442	1175.795	916.590
6.644	10.329	1091.551	810.396
7.659	4.498	1052.680	753.263
8.673	3.800	1047.459	746.093
9.688	3.657	1044.264	743.064
10.702	3.597	1043.044	741.837
11.717	3.646	1040.959	740.524
12.731	6.043	1043.042	753.451
13.746	13.643	1053.221	797.422
14.761	19.259	1060.968	830.357
15.775	19.798	1060.194	832.274
16.790	19.084	1058.457	827.404
17.804	17.975	1056.403	820.401
18.819	17.246	1054.299	815.200
19.834	16.760	1053.037	811.823
20.848	16.517	1052.424	810.114
21.863	16.360	1051.150	808.309
22.877	16.038	1050.938	806.538
23.892	15.940	1049.382	804.802
24.907	15.788	1049.526	804.114
25.921	15.899	1048.686	803.932
26.936	15.825	1047.706	802.756
27.950	15.895	1046.690	802.237
28.965	16.003	1045.670	801.898
29.980	15.930	1044.693	800.732
30.994	16.214	1043.060	800.759
32.009	16.231	1042.303	800.187
33.023	16.203	1041.973	799.731
34.038	16.214	1041.500	799.349
35.053	16.289	1039.810	798.333
36.067	16.047	1039.063	796.547
37.082	16.048	1037.821	795.527
38.096	15.985	1037.895	795.218
39.111	16.090	1036.886	794.870
40.126	16.165	1036.279	794.689
41.140	16.159	1034.987	793.598
42.155	16.052	1033.454	791.848
43.169	15.775	1032.553	789.789
44.184	15.824	1031.552	789.181
45.199	15.774	1030.366	787.972
46.213	15.700	1029.551	786.931
47.228	15.761	1028.899	786.648
48.242	15.843	1027.795	786.120
49.257	16.049	1026.834	786.277
50.271	15.999	1025.455	784.915
51.286	16.015	1025.100	784.652
52.301	16.053	1024.260	784.117
53.315	16.027	1023.635	783.448
54.330	16.044	1022.752	782.782
55.344	15.802	1022.087	781.078
56.359	15.890	1020.974	780.568
57.374	15.828	1019.922	779.407
58.388	15.861	1019.015	778.796
59.403	15.699	1018.546	777.620
60.417	15.678	1017.620	776.748
61.432	15.691	1017.184	776.407
62.447	15.727	1016.354	775.873
63.461	15.698	1015.008	774.643
64.476	15.556	1014.264	773.352
65.490	15.525	1013.764	772.757
66.505	15.525	1012.892	772.025
67.520	15.593	1011.813	771.447
68.534	15.674	1011.198	771.280
69.549	15.671	1010.192	770.432
70.563	15.714	1009.246	769.838
71.578	15.622	1008.598	768.855
72.593	15.599	1007.624	767.942
73.607	15.296	1007.137	766.117
74.622	15.500	1005.960	766.085
75.636	15.542	1005.071	765.531
76.651	15.620	1004.128	765.103
77.666	15.598	1003.291	764.295
78.680	15.574	1002.563	763.562
79.695	15.670	1001.946	763.464
80.709	15.439	1002.196	762.534
81.724	15.622	1001.230	762.562
82.739	15.693	1000.413	762.195
83.753	15.829	999.386	761.962
84.768	15.926	999.214	762.202
85.782	16.046	998.422	762.073
86.797	16.088	997.764	761.695
87.812	16.207	996.800	761.429
88.826	15.988	995.773	759.590
89.841	16.092	994.714	759.183
90.855	16.182	993.774	758.802
91.870	16.136	992.959	757.905
92.884	16.176	992.949	758.009
93.899	16.196	991.563	756.974
94.914	16.085	991.166	756.109
95.928	16.214	990.516	756.122
96.943	16.222	990.290	755.921
97.957	16.134	989.089	754.543
98.972	16.195	988.058	753.961
99.987	16.115	987.289	752.952
101.001	16.166	986.523	752.529
102.016	16.200	985.825	752.078
103.030	16.078	985.270	751.045
104.045	16.125	984.371	750.504
105.060	16.113	983.321	749.584
106.074	16.065	982.516	748.692
107.089	15.985	981.125	747.210
108.103	15.764	980.211	745.469
109.118	15.599	979.417	744.068
110.133	15.582	978.848	743.493
111.147	15.721	977.492	743.012
112.162	15.614	976.895	742.023
113.176	15.692	976.027	741.638
114.191	15.808	975.082	741.366
115.206	15.789	974.460	740.743
116.220	15.813	973.326	739.921
117.235	15.820	972.416	739.195
118.249	15.892	971.840	739.011
119.264	15.693	971.437	737.766
120.279	15.616	970.490	736.643
121.293	15.708	969.458	736.199
122.308	15.677	968.630	735.369
123.322	15.609	967.898	734.450
124.337	15.558	966.500	733.101
125.352	15.696	965.384	732.790
126.366	15.687	964.259	731.834
127.381	15.522	963.696	730.625
128.395	15.505	962.920	729.898
129.410	15.560	961.617	729.083
130.424	15.784	960.676	729.274
131.439	15.720	959.901	728.344
132.454	15.765	959.159	727.912
133.468	15.780	958.453	727.379
134.483	15.745	958.189	726.964
135.497	15.821	957.268	726.527
136.512	15.701	956.944	725.699
137.527	15.676	956.165	724.936
138.541	15.775	955.203	724.571
139.556	15.874	954.023	724.035
140.570	15.904	953.738	723.882
141.585	15.997	952.911	723.590
142.600	16.010	952.702	723.427
143.614	16.126	951.709	723.105
144.629	16.156	950.866	722.530
145.643	16.219	950.187	722.220
146.658	16.104	949.433	721.089
147.673	16.227	948.158	720.582
148.687	15.981	947.235	718.770
149.702	15.885	946.611	717.823
150.716	15.715	945.873	716.475
151.731	15.822	944.812	716.061
152.746	15.876	944.428	715.937
153.760	15.915	943.444	715.293
154.775	15.914	942.866	714.789
155.789	16.074	942.096	714.818
156.804	16.106	941.214	714.223
157.819	15.997	940.575	713.212
158.833	15.955	940.187	712.680
159.848	16.177	939.338	712.911
160.862	16.367	938.486	713.004
161.877	16.303	937.722	712.090
162.892	16.196	937.232	711.204
163.906	15.992	935.992	709.339
164.921	15.862	935.453	708.323
165.935	15.831	934.899	707.708
166.950	15.907	933.110	706.610
167.964	16.080	932.124	706.527
168.979	16.074	931.429	705.916
169.994	15.886	930.504	704.362
171.008	16.001	929.516	704.036
172.023	16.025	929.096	703.753
173.037	16.078	928.490	703.452
174.052	16.247	927.899	703.648
175.067	16.178	927.185	702.757
176.081	16.139	926.187	701.775
177.096	16.008	924.890	700.188
178.110	15.908	924.266	699.238
179.125	15.892	923.644	698.640
180.140	15.950	922.890	698.248
181.154	16.006	922.302	697.971
182.169	16.240	921.795	698.494
183.183	16.293	920.908	697.978
184.198	16.401	919.974	697.659
185.213	16.235	919.742	696.734
186.227	16.381	918.757	696.530
187.242	16.256	918.797	695.982
188.256	16.449	917.677	695.865
189.271	16.502	917.073	695.564
190.286	16.531	916.384	695.099
191.300	16.504	915.476	694.238
192.315	16.151	914.669	692.117
193.329	15.933	913.912	690.587
194.344	15.956	913.590	690.381
195.359	16.080	912.725	690.173
196.373	16.146	912.047	689.866
197.388	16.211	911.888	689.953
198.402	16.290	911.472	689.899
199.417	16.535	910.695	690.251
200.432	16.661	910.544	690.587
201.446	16.704	910.123	690.384
202.461	16.756	909.865	690.340
203.475	16.802	909.097	689.885
204.490	16.728	908.519	689.083
205.504	16.722	907.382	688.135
206.519	16.526	906.840	686.865
207.534	16.516	905.787	685.969
208.548	16.552	904.768	685.280
209.563	16.433	904.608	684.615
210.577	16.521	903.769	684.276
211.592	16.599	903.227	684.123
212.607	16.774	902.672	684.350
213.621	16.733	902.504	683.996
214.636	16.757	901.645	683.382
215.650	16.573	901.114	682.176
216.665	16.580	900.321	681.543
217.680	16.722	900.185	681.953
218.694	16.879	899.641	682.110
219.709	16.898	898.919	681.579
220.723	16.774	898.332	680.576
221.738	16.846	897.892	680.471
222.753	16.765	896.699	679.182
223.767	16.786	896.538	679.085
224.782	16.780	895.745	678.398
225.796	16.918	894.766	678.150
226.811	16.971	894.315	677.960
227.826	16.945	893.522	677.197
228.840	16.797	892.865	676.045
229.855	16.892	891.880	675.622
230.869	16.927	891.201	675.184
231.884	16.939	890.674	674.773
232.899	16.720	890.016	673.344
233.913	16.747	889.050	672.663
234.928	16.667	888.434	671.817
235.942	16.705	887.965	671.553
236.957	16.625	887.129	670.547
237.972	16.765	886.234	670.364
238.986	16.703	886.252	670.076
240.001	16.822	885.535	669.942
241.015	16.796	884.414	668.934
242.030	16.816	883.945	668.599
243.045	16.839	883.432	668.242
244.059	16.846	882.765	667.705
245.074	16.849	881.985	667.068
246.088	16.871	881.671	666.859
247.103	16.964	881.183	666.797
248.117	16.941	880.781	666.342
249.132	17.227	880.152	666.930
250.147	17.253	879.936	666.808
251.161	17.381	879.210	666.700
252.176	17.524	878.384	666.578
253.190	17.588	877.916	666.415
254.205	17.575	877.104	665.688
255.220	17.588	876.703	665.376
256.234	17.519	875.889	664.429
257.249	17.546	875.268	664.003
258.263	17.470	875.065	663.495
259.278	17.571	874.146	663.132
260.293	17.730	873.572	663.255
261.307	17.579	873.200	662.328
262.322	17.659	872.709	662.206
263.336	17.738	872.356	662.190
264.351	17.637	871.547	661.125
265.366	17.860	870.210	660.916
266.380	17.793	869.940	660.393
267.395	17.754	869.433	659.799
268.409	17.737	868.667	659.093
269.424	17.698	867.896	658.298
270.439	17.814	867.171	658.137
271.453	17.683	866.647	657.177
272.468	17.527	866.061	656.073
273.482	17.619	865.028	655.586
274.497	17.656	864.506	655.274
275.512	17.765	863.743	655.056
276.526	17.780	862.942	654.449
277.541	17.675	862.422	653.595
278.555	17.555	862.506	653.140
279.570	17.811	861.865	653.579
280.585	17.841	861.512	653.367
281.599	17.892	860.656	652.856
282.614	17.810	860.077	652.046
283.628	17.654	859.589	651.022
284.643	17.801	858.724	650.871
285.657	17.665	858.333	650.000
286.672	17.743	858.152	650.099
287.687	17.799	857.351	649.648
288.701	17.734	856.896	649.000
289.716	17.790	856.317	648.719
290.730	17.846	855.730	648.426
291.745	17.899	855.051	648.055
292.760	17.894	854.289	647.401
293.774	17.872	853.735	646.844
294.789	17.952	853.329	646.781
295.803	18.144	852.839	647.079
296.818	17.933	851.900	645.510
297.833	17.824	851.411	644.672
298.847	17.930	850.682	644.464
299.862	17.983	849.898	644.012
300.876	18.121	849.014	643.806
301.891	18.053	848.961	643.453
302.906	18.129	848.156	643.069
303.920	18.384	847.169	643.224
304.935	18.246	847.130	642.619
305.949	18.378	846.299	642.428
306.964	18.417	845.470	641.884
307.979	18.282	844.960	640.935
308.993	18.233	844.454	640.313
310.008	18.264	844.020	640.043
311.022	18.364	843.641	640.073
312.037	18.315	842.994	639.342
313.052	18.103	842.672	638.251
314.066	18.175	841.453	637.538
315.081	17.935	841.309	636.478
316.095	18.003	840.649	636.177
317.110	18.115	840.113	636.130
318.125	18.266	839.272	635.999
319.139	17.924	839.355	634.736
320.154	18.205	838.365	634.974
321.168	18.148	838.012	634.438
322.183	18.175	837.163	633.841
323.197	18.126	837.169	633.607
324.212	18.284	836.529	633.651
325.227	18.232	835.984	632.988
326.241	18.222	835.597	632.602
327.256	18.255	834.679	631.975
328.270	18.228	834.317	631.545
329.285	18.156	833.977	630.964
330.300	18.212	832.731	630.173
331.314	18.325	831.998	629.977
332.329	18.197	831.780	629.285
333.343	18.344	831.066	629.233
334.358	18.387	830.937	629.235
335.373	18.434	830.398	628.944
336.387	18.514	829.329	628.372
337.402	18.532	829.178	628.269
338.416	18.600	828.315	627.808
339.431	18.598	828.170	627.633
340.446	18.633	827.897	627.502
341.460	18.715	827.019	627.077
342.475	18.758	826.705	626.942
343.489	18.937	826.019	627.020
344.504	18.902	825.591	626.512
345.519	18.879	824.939	625.876
346.533	18.905	824.645	625.695
347.548	18.895	824.259	625.309
348.562	18.886	823.653	624.763
349.577	18.742	822.758	623.504
350.592	18.610	822.329	622.644
351.606	18.636	821.416	621.993
352.621	18.552	821.166	621.446
353.635	18.458	821.182	621.059
354.650	18.545	820.932	621.131
355.665	18.804	819.845	621.192
356.679	18.692	819.918	620.787
357.694	18.840	819.311	620.806
358.708	18.815	818.715	620.210
359.723	18.793	818.155	619.651
360.738	18.604	817.722	618.586
361.752	18.777	817.180	618.748
362.767	18.767	816.790	618.359
363.781	18.841	816.225	618.145
364.796	19.111	815.806	618.741
365.810	19.026	815.973	618.510
366.825	19.255	814.982	618.527
367.840	19.185	814.986	618.224
368.854	19.246	814.484	618.007
369.869	19.130	813.897	617.091
370.883	19.123	813.259	616.528
371.898	19.045	812.532	615.641
372.913	19.263	811.870	615.865
373.927	19.257	811.622	615.602
374.942	19.282	810.736	614.964
375.956	19.119	810.415	614.084
376.971	19.291	809.659	614.071
377.986	19.244	809.250	613.536
379.000	19.297	809.025	613.502
380.015	19.415	808.829	613.718
381.029	19.585	807.719	613.424
382.044	19.332	807.228	612.100
383.059	19.514	806.458	612.108
384.073	19.455	806.150	611.613
385.088	19.495	805.609	611.289
386.102	19.254	804.917	609.854
387.117	19.313	804.308	609.550
388.132	19.127	804.206	608.762
389.146	19.198	803.749	608.611
390.161	19.198	803.375	608.275
391.175	19.354	803.115	608.574
392.190	19.369	802.747	608.296
393.205	19.261	802.570	607.728
394.219	19.334	801.637	607.222
395.234	19.478	800.902	607.120
396.248	19.303	800.092	605.836
397.263	19.128	799.919	605.037
398.278	19.178	799.308	604.695
399.292	19.204	799.365	604.776
400.307	19.138	798.693	603.983
401.321	19.313	798.242	604.201
402.336	19.118	798.089	603.351
403.350	19.306	797.498	603.510
404.365	19.409	796.830	603.310
405.380	19.376	796.779	603.103
406.394	19.510	796.513	603.315
407.409	19.585	796.265	603.338
408.423	19.645	795.407	602.843
409.438	19.604	795.206	602.493
410.453	19.701	794.687	602.384
411.467	19.801	794.294	602.381
412.482	19.748	793.566	601.591
413.496	19.763	793.413	601.477
414.511	19.767	793.110	601.207
415.526	19.955	792.688	601.485
416.540	19.811	792.286	600.627
417.555	19.807	791.808	600.198
418.569	19.817	791.213	599.728
419.584	19.808	790.687	599.248
420.599	19.957	790.234	599.367
421.613	159.698	1369.869	1794.501
422.628	138.280	1454.319	1794.598
