DTS Sentinel unit serial number:	SN413079Multiplexer serial number:	ORYXHardware model number:	OX4-SRSoftware version number:	ORYX F/W v4.00 Oryx Data Collector v3.7.2.0data status	okinstallation	princeton_trtdifferential loss correction	single-endedforward channel	channel 3reverse channel	N/Adate	2019/09/16time	10:32:35forward acquisition time	60.00reverse acquisition time	0.00gamma	496.2192k internal	0.2304k external	0.2304temperature offset calibration	0.9950default loss term (dB/km)	0.3790temperature slope calibration	1.0000multiplexer offset coefficient	1.0000multiplexer slope coefficient	1.0000fibre end	0.00T internal ref (°C)	35.41T ext. ref 1 (°C)	12.59T ext. ref 2 (°C)	33.79length (m)	temperature (°C)	Stokes	anti-Stokes-747.200	23.661	0.409	-0.343
-746.185	800.000	-0.026	0.108
-745.171	-156.519	0.314	-0.020
-744.156	-6.641	0.106	0.073
-743.142	251.765	0.084	0.146
-742.127	800.000	-0.049	0.205
-741.112	182.839	0.165	0.248
-740.098	-200.000	-0.067	0.527
-739.083	-200.000	0.014	0.265
-738.069	-195.066	0.178	-0.001
-737.054	-160.077	0.169	-0.009
-736.039	115.196	0.155	0.192
-735.025	-61.960	0.251	0.107
-734.010	-37.199	0.214	-0.116
-732.996	-123.256	-0.187	0.030
-731.981	-34.376	-0.050	-0.028
-730.966	-200.000	-0.010	-0.160
-729.952	800.000	-0.047	-0.141
-728.937	-165.639	-0.252	0.011
-727.923	-22.005	-0.080	0.049
-726.908	-113.752	-0.076	0.015
-725.894	130.929	-0.103	0.135
-724.879	6.814	-0.023	-0.017
-723.864	242.314	-0.054	0.092
-722.850	-192.068	0.243	-0.002
-721.835	-168.929	-0.247	-0.009
-720.821	33.703	-0.073	0.064
-719.806	-81.336	0.250	0.084
-718.791	-92.836	-0.203	0.058
-717.777	-172.387	0.379	0.012
-716.762	-105.698	0.139	-0.032
-715.748	800.000	0.045	0.189
-714.733	-182.273	0.102	-0.002
-713.718	96.122	-0.124	-0.145
-712.704	55.393	-0.356	0.351
-711.689	-108.031	0.392	-0.086
-710.675	-200.000	0.012	0.058
-709.660	-200.000	0.041	-0.217
-708.645	23.304	-0.185	-0.155
-707.631	-142.748	-0.056	0.006
-706.616	531.497	0.149	0.358
-705.602	-34.683	0.279	-0.155
-704.587	90.311	-0.139	-0.158
-703.572	-200.000	0.023	-0.374
-702.558	90.048	0.197	0.224
-701.543	-119.099	0.170	-0.030
-700.529	89.999	-0.119	0.135
-699.514	15.403	0.073	-0.058
-698.499	50.577	0.130	0.125
-697.485	-200.000	-0.049	-0.266
-696.470	122.291	-0.228	0.290
-695.456	219.604	-0.137	0.223
-694.441	-200.000	0.060	-0.289
-693.426	-69.790	0.184	0.071
-692.412	633.797	0.198	-0.511
-691.397	-200.000	-0.003	-0.113
-690.383	-200.000	0.008	-0.040
-689.368	-97.502	-0.331	-0.088
-688.354	-30.338	-0.293	0.169
-687.339	333.099	-0.118	-0.232
-686.324	-93.115	-0.138	0.039
-685.310	217.741	-0.195	0.316
-684.295	658.701	-0.074	0.193
-683.281	-44.902	-0.114	-0.058
-682.266	-72.515	-0.128	0.048
-681.251	287.499	0.081	0.148
-680.237	-68.108	-0.343	-0.136
-679.222	389.888	-0.146	0.306
-678.208	43.257	0.418	0.388
-677.193	-100.981	-0.388	-0.097
-676.178	-31.584	-0.144	0.082
-675.164	-200.000	0.028	0.270
-674.149	-85.237	-0.260	-0.083
-673.135	356.752	0.083	0.167
-672.120	-125.236	0.215	-0.033
-671.105	15.256	0.128	0.102
-670.091	-200.000	0.034	-0.237
-669.076	-99.698	0.406	-0.103
-668.062	-200.000	-0.008	0.041
-667.047	-149.333	-0.087	-0.007
-666.032	381.585	0.067	0.139
-665.018	-146.593	0.292	-0.026
-664.003	353.814	-0.049	0.098
-662.989	-70.035	-0.138	0.053
-661.974	-86.385	-0.431	0.134
-660.959	-95.505	-0.213	0.058
-659.945	187.445	0.076	0.115
-658.930	66.588	0.236	0.244
-657.916	5.072	-0.188	-0.140
-656.901	-200.000	-0.005	-0.311
-655.886	-200.000	0.030	0.154
-654.872	-52.206	-0.357	0.168
-653.857	432.526	-0.095	0.209
-652.843	-150.005	0.227	0.018
-651.828	-200.000	0.035	-0.319
-650.814	-200.000	0.025	0.205
-649.799	-92.124	-0.066	0.019
-648.784	89.448	-0.240	0.271
-647.770	-39.734	-0.412	0.219
-646.755	39.219	0.256	0.232
-645.741	73.743	-0.143	0.152
-644.726	-200.000	0.105	0.479
-643.711	48.831	-0.115	-0.109
-642.697	155.249	0.108	-0.151
-641.682	-134.421	0.286	0.035
-640.668	-200.000	-0.004	0.125
-639.653	-105.508	-0.264	-0.061
-638.638	-75.450	0.293	0.106
-637.624	-45.766	0.175	-0.088
-636.609	-110.585	-0.214	0.045
-635.595	369.813	-0.140	0.287
-634.580	173.528	-0.032	-0.047
-633.565	30.124	-0.104	0.090
-632.551	232.056	-0.060	0.100
-631.536	162.021	0.169	0.240
-630.522	174.549	-0.005	0.007
-629.507	471.590	0.021	0.047
-628.492	-71.738	0.253	0.096
-627.478	139.253	0.085	0.113
-626.463	234.693	-0.081	-0.135
-625.449	128.176	-0.080	0.104
-624.434	-119.898	-0.468	-0.082
-623.419	335.534	-0.042	-0.083
-622.405	-169.053	-0.406	-0.015
-621.390	314.020	-0.230	0.438
-620.376	-70.172	-0.254	-0.098
-619.361	-23.571	0.062	-0.037
-618.346	-73.196	0.274	-0.102
-617.332	-98.809	-0.060	0.015
-616.317	219.028	-0.074	0.119
-615.303	44.587	0.264	0.246
-614.288	-164.806	-0.221	0.010
-613.273	108.105	-0.073	0.089
-612.259	-200.000	0.023	0.252
-611.244	-200.000	0.040	-0.199
-610.230	800.000	-0.022	0.077
-609.215	-118.455	-0.379	0.068
-608.201	619.069	-0.138	-0.350
-607.186	269.616	-0.031	-0.055
-606.171	-117.826	-0.387	0.070
-605.157	352.310	-0.044	0.088
-604.142	192.826	0.150	0.230
-603.128	-44.382	0.206	-0.104
-602.113	106.966	0.268	-0.322
-601.098	-121.361	-0.185	-0.031
-600.084	173.425	0.198	0.289
-599.069	117.067	0.086	-0.107
-598.055	64.547	0.122	0.125
-597.040	-152.669	0.270	0.019
-596.025	-26.511	-0.257	0.152
-595.011	-66.405	0.283	0.114
-593.996	396.944	-0.098	-0.207
-592.982	103.090	0.128	0.152
-591.967	-200.000	0.001	-0.028
-590.952	-56.698	-0.099	0.044
-589.938	488.458	-0.190	0.440
-588.923	-136.897	-0.077	-0.009
-587.909	137.005	0.160	-0.212
-586.894	-200.000	-0.046	0.447
-585.879	-104.940	-0.127	0.030
-584.865	-108.936	-0.166	0.036
-583.850	123.684	0.275	-0.349
-582.836	-75.248	-0.333	-0.120
-581.821	-83.757	-0.252	0.081
-580.806	-200.000	0.001	-0.106
-579.792	-44.596	-0.324	0.164
-578.777	153.294	0.151	0.209
-577.763	-130.916	0.299	-0.040
-576.748	41.595	0.348	-0.318
-575.733	-89.423	-0.269	-0.080
-574.719	-200.000	0.055	-0.307
-573.704	-200.000	0.071	-0.520
-572.690	-200.000	-0.005	-0.244
-571.675	481.578	-0.135	-0.310
-570.661	-127.357	-0.290	0.043
-569.646	-136.582	-0.126	-0.015
-568.631	284.567	-0.162	0.294
-567.617	-118.219	-0.302	0.054
-566.602	415.966	0.066	-0.143
-565.588	96.963	-0.068	-0.079
-564.573	-57.923	0.245	-0.108
-563.558	316.510	0.038	0.072
-562.544	261.396	-0.144	-0.252
-561.529	-200.000	0.030	-0.162
-560.515	-0.525	-0.043	0.031
-559.500	-73.708	-0.184	0.068
-558.485	-133.918	-0.065	-0.008
-557.471	244.872	-0.118	0.201
-556.456	82.375	-0.114	-0.125
-555.442	799.192	0.065	-0.182
-554.427	240.014	0.236	0.397
-553.412	79.493	0.154	-0.167
-552.398	-151.247	-0.132	0.010
-551.383	-49.276	0.248	-0.120
-550.369	85.363	-0.217	-0.240
-549.354	-28.744	-0.153	0.089
-548.339	-200.000	0.003	-0.474
-547.325	263.170	0.086	-0.151
-546.310	-54.771	0.172	-0.079
-545.296	800.000	0.026	0.105
-544.281	269.987	0.077	-0.136
-543.266	-200.000	0.022	0.284
-542.252	0.589	0.114	0.082
-541.237	-38.101	-0.141	0.075
-540.223	800.000	-0.061	-0.238
-539.208	-112.750	0.169	0.034
-538.193	-200.000	-0.001	-0.097
-537.179	-56.319	0.173	-0.078
-536.164	155.186	-0.140	0.194
-535.150	4.244	-0.239	0.177
-534.135	-29.643	0.163	0.094
-533.121	-71.564	0.324	-0.122
-532.106	147.260	-0.050	-0.068
-531.091	800.000	0.127	-0.440
-530.077	-105.094	-0.252	0.058
-529.062	16.505	-0.066	-0.053
-528.048	-64.966	0.134	-0.055
-527.033	-177.304	-0.266	0.007
-526.018	251.580	-0.113	-0.195
-525.004	800.000	-0.060	-0.257
-523.989	-200.000	-0.018	-0.108
-522.975	-134.294	-0.456	0.057
-521.960	119.458	0.150	-0.187
-520.945	123.593	0.061	-0.077
-519.931	91.845	0.076	-0.086
-518.916	51.032	0.102	-0.097
-517.902	53.832	-0.207	0.200
-516.887	-118.133	-0.160	-0.029
-515.872	-129.837	0.208	-0.029
-514.858	800.000	0.048	0.200
-513.843	-91.216	0.220	0.064
-512.829	226.198	-0.092	0.151
-511.814	288.342	-0.096	0.175
-510.799	800.000	0.060	0.198
-509.785	140.805	0.021	-0.028
-508.770	-139.814	0.113	0.012
-507.756	456.752	-0.076	-0.171
-506.741	-51.586	0.127	-0.060
-505.726	-87.982	-0.292	-0.089
-504.712	177.583	-0.131	0.193
-503.697	95.005	-0.293	-0.337
-502.683	-34.883	-0.434	0.239
-501.668	-162.344	0.145	0.007
-500.653	124.927	0.110	-0.139
-499.639	-116.463	-0.353	0.066
-498.624	-200.000	0.027	-0.290
-497.610	-14.783	0.111	0.072
-496.595	-200.000	-0.038	0.182
-495.581	-184.344	0.314	-0.005
-494.566	87.870	0.094	-0.105
-493.551	-129.511	-0.426	-0.059
-492.537	-42.640	0.320	-0.164
-491.522	-128.123	0.247	-0.036
-490.508	26.004	-0.117	-0.098
-489.493	52.050	0.208	0.200
-488.478	-74.476	-0.261	-0.095
-487.464	-63.679	-0.263	-0.109
-486.449	272.533	-0.155	-0.276
-485.435	-23.951	0.044	0.027
-484.420	-15.493	-0.162	0.104
-483.405	-117.323	0.212	0.039
-482.391	717.222	0.105	0.281
-481.376	800.000	-0.039	-0.168
-480.362	-176.668	0.221	-0.006
-479.347	128.439	-0.089	-0.114
-478.332	47.889	-0.065	-0.062
-477.318	185.162	0.071	-0.106
-476.303	479.149	0.100	-0.229
-475.289	-55.489	-0.234	0.106
-474.274	-200.000	0.002	0.165
-473.259	237.865	0.033	0.056
-472.245	800.000	-0.101	-0.424
-471.230	-14.884	0.230	0.149
-470.216	-200.000	0.001	0.282
-469.201	-200.000	-0.003	-0.089
-468.186	800.000	-0.071	0.223
-467.172	-123.730	0.278	0.044
-466.157	7.923	-0.052	0.039
-465.143	-15.381	-0.252	0.162
-464.128	-200.000	-0.041	0.249
-463.113	-49.842	0.489	-0.234
-462.099	271.150	0.160	0.283
-461.084	-176.727	-0.110	0.003
-460.070	77.162	0.162	-0.173
-459.055	-56.029	-0.247	-0.111
-458.040	-160.658	0.179	0.010
-457.026	-71.364	-0.232	-0.087
-456.011	800.000	-0.037	-0.135
-454.997	800.000	-0.122	0.374
-453.982	448.205	-0.084	-0.186
-452.968	179.874	0.251	-0.371
-451.953	800.000	0.027	-0.101
-450.938	-83.212	0.179	-0.058
-449.924	-67.238	0.386	-0.153
-448.909	-200.000	0.010	-0.199
-447.895	-200.000	0.028	-0.272
-446.880	1.188	0.143	-0.103
-445.865	-66.691	-0.216	0.086
-444.851	800.000	0.073	-0.286
-443.836	-200.000	-0.072	-0.408
-442.822	-10.666	0.056	-0.037
-441.807	-106.333	-0.358	-0.081
-440.792	-200.000	0.015	0.110
-439.778	63.290	0.136	0.137
-438.763	-136.807	0.160	0.019
-437.749	-200.000	0.036	0.309
-436.734	-156.143	-0.073	0.005
-435.719	-79.658	0.103	-0.035
-434.705	-78.382	-0.079	-0.027
-433.690	739.338	-0.057	0.155
-432.676	180.782	0.089	0.132
-431.661	-24.823	-0.284	0.169
-430.646	345.412	0.159	-0.315
-429.632	-8.736	0.411	-0.278
-428.617	84.942	-0.078	0.086
-427.603	800.000	0.023	-0.083
-426.588	-8.884	-0.276	-0.186
-425.573	-200.000	-0.011	0.065
-424.559	690.781	0.062	0.164
-423.544	-10.424	0.096	0.064
-422.530	800.000	0.099	-0.306
-421.515	-200.000	0.027	-0.117
-420.500	242.282	-0.147	-0.247
-419.486	653.707	0.111	0.285
-418.471	-84.956	0.161	-0.051
-417.457	221.130	0.087	0.141
-416.442	-200.000	-0.002	-0.045
-415.428	-34.571	0.246	0.135
-414.413	-81.583	-0.105	-0.035
-413.398	-17.872	0.228	-0.144
-412.384	-19.572	0.111	-0.069
-411.369	29.385	0.088	0.075
-410.355	18.279	-0.095	-0.076
-409.340	-146.424	-0.178	-0.016
-408.325	-133.648	0.077	0.010
-407.311	-10.818	-0.087	-0.058
-406.296	-47.623	-0.136	-0.066
-405.282	186.128	-0.306	-0.457
-404.267	265.825	0.154	-0.270
-403.252	-200.000	-0.002	0.074
-402.238	572.675	0.063	-0.153
-401.223	-200.000	-0.022	0.144
-400.209	-200.000	0.023	0.231
-399.194	121.689	0.107	-0.134
-398.179	408.249	-0.076	0.162
-397.165	230.432	0.267	-0.438
-396.150	82.603	-0.148	-0.161
-395.136	-175.516	-0.480	-0.013
-394.121	42.968	0.380	0.348
-393.106	-6.801	0.105	0.072
-392.092	264.625	-0.163	0.284
-391.077	-160.553	-0.292	-0.016
-390.063	113.397	-0.197	-0.240
-389.048	92.174	0.095	0.107
-388.033	-74.312	-0.163	0.059
-387.019	-200.000	-0.019	0.233
-386.004	93.385	-0.050	0.056
-384.990	-59.059	-0.093	-0.040
-383.975	67.414	-0.070	-0.071
-382.960	-118.887	-0.143	-0.025
-381.946	-2.137	0.335	0.236
-380.931	-111.433	0.282	0.058
-379.917	-106.292	-0.274	-0.062
-378.902	89.463	-0.209	0.233
-377.888	224.890	-0.183	0.297
-376.873	-131.211	0.312	0.042
-375.858	-200.000	-0.026	-0.294
-374.844	-200.000	0.010	0.258
-373.829	800.000	0.028	0.092
-372.815	-19.141	0.117	-0.073
-371.800	115.737	0.052	0.064
-370.785	84.385	0.180	0.197
-369.771	352.792	-0.057	-0.114
-368.756	-46.736	-0.117	0.057
-367.742	800.000	0.065	0.240
-366.727	-74.203	-0.291	-0.105
-365.712	5.417	0.228	0.169
-364.698	-200.000	0.012	-0.306
-363.683	581.733	0.084	-0.207
-362.669	-87.659	-0.065	0.020
-361.654	800.000	-0.057	0.215
-360.639	162.869	0.155	0.218
-359.625	538.376	0.131	0.313
-358.610	-200.000	0.051	-0.255
-357.596	-66.343	-0.128	-0.051
-356.581	75.269	-0.041	-0.044
-355.566	-120.005	0.104	-0.018
-354.552	800.000	0.094	0.273
-353.537	83.468	-0.151	-0.165
-352.523	-107.760	0.036	-0.008
-351.508	783.677	0.036	0.098
-350.493	100.263	-0.117	-0.137
-349.479	104.088	-0.208	-0.245
-348.464	-117.205	-0.166	-0.030
-347.450	-96.397	0.305	0.081
-346.435	-123.695	0.175	-0.028
-345.420	5.206	-0.140	0.103
-344.406	800.000	0.010	-0.041
-343.391	225.561	-0.107	0.173
-342.377	115.487	0.269	-0.330
-341.362	-117.430	-0.237	0.043
-340.348	-200.000	0.007	-0.185
-339.333	-88.138	-0.085	0.026
-338.318	193.969	-0.180	-0.273
-337.304	14.973	0.119	0.093
-336.289	62.471	0.393	-0.394
-335.275	800.000	0.112	-0.320
-334.260	-68.493	-0.135	0.053
-333.245	-116.059	-0.093	-0.017
-332.231	24.418	0.239	0.198
-331.216	309.262	-0.104	0.194
-330.202	-61.947	-0.309	0.129
-329.187	-200.000	-0.037	0.286
-328.172	23.217	0.151	-0.124
-327.158	542.199	0.146	-0.348
-326.143	800.000	0.041	-0.173
-325.129	126.094	-0.174	-0.221
-324.114	358.110	-0.035	-0.071
-323.099	-118.390	0.155	-0.028
-322.085	282.329	0.064	-0.115
-321.070	141.903	0.154	-0.204
-320.056	-155.444	0.152	-0.010
-319.041	-121.582	0.158	0.026
-318.026	-200.000	-0.032	-0.185
-317.012	-48.094	0.140	0.068
-315.997	71.122	0.334	-0.347
-314.983	236.605	-0.129	0.213
-313.968	139.349	0.115	-0.152
-312.953	287.487	-0.145	-0.262
-311.939	243.106	0.159	-0.268
-310.924	-200.000	-0.021	-0.134
-309.910	53.157	0.198	0.189
-308.895	125.982	0.171	0.216
-307.880	-65.439	-0.277	-0.111
-306.866	-84.425	-0.109	-0.034
-305.851	800.000	0.026	-0.108
-304.837	-178.586	0.257	0.006
-303.822	314.188	-0.095	-0.179
-302.807	28.638	-0.010	0.009
-301.793	-43.055	-0.122	0.062
-300.778	49.693	0.103	0.097
-299.764	-43.199	0.140	0.071
-298.749	-123.480	-0.051	-0.008
-297.735	54.752	0.197	0.190
-296.720	-200.000	-0.025	-0.153
-295.705	-200.000	-0.029	0.237
-294.691	-148.875	-0.342	-0.028
-293.676	705.361	-0.049	-0.130
-292.662	-40.895	0.091	-0.047
-291.647	-24.072	-0.150	0.090
-290.632	-40.762	0.326	-0.169
-289.618	58.184	-0.049	0.048
-288.603	53.265	-0.244	0.234
-287.589	-200.000	-0.028	-0.125
-286.574	-72.804	0.245	0.090
-285.559	-98.575	0.182	-0.047
-284.545	-96.537	0.261	-0.069
-283.530	-46.102	0.024	0.012
-282.516	-200.000	0.072	-0.381
-281.501	-7.211	-0.138	0.094
-280.486	-200.000	-0.021	-0.123
-279.472	-154.477	-0.282	-0.019
-278.457	-200.000	0.060	0.274
-277.443	-27.966	-0.097	0.056
-276.428	101.614	-0.233	-0.272
-275.413	-200.000	0.005	-0.178
-274.399	-17.781	-0.134	0.084
-273.384	-24.682	-0.199	0.118
-272.370	-193.886	0.160	-0.001
-271.355	-54.939	-0.181	-0.082
-270.340	303.694	0.076	-0.140
-269.326	196.595	0.132	-0.201
-268.311	800.000	0.029	0.109
-267.297	-87.604	-0.025	0.008
-266.282	57.885	0.273	-0.267
-265.267	-40.468	-0.083	0.043
-264.253	417.758	0.064	-0.136
-263.238	161.365	0.056	-0.079
-262.224	-26.118	-0.299	0.176
-261.209	40.475	0.317	0.285
-260.195	-170.797	0.130	0.004
-259.180	26.694	0.133	0.111
-258.165	-94.629	-0.294	-0.080
-257.151	-81.117	-0.054	-0.018
-256.136	73.532	0.056	0.059
-255.122	642.524	0.120	-0.305
-254.107	-14.034	0.256	0.165
-253.092	800.000	-0.105	0.355
-252.078	141.335	0.214	-0.283
-251.063	24.859	0.272	0.225
-250.049	223.322	0.039	0.062
-249.034	-70.158	0.459	-0.174
-248.019	76.682	0.257	0.272
-247.005	-200.000	0.029	0.217
-245.990	171.235	0.084	-0.120
-244.976	322.146	-0.082	0.156
-243.961	-200.000	-0.010	0.262
-242.946	-129.356	-0.145	-0.020
-241.932	-141.874	-0.036	-0.004
-240.917	-63.987	0.071	-0.029
-239.903	70.679	-0.232	-0.240
-238.888	46.493	-0.198	0.183
-237.873	139.176	-0.074	-0.098
-236.859	-200.000	-0.057	-0.321
-235.844	-10.249	0.127	0.084
-234.830	-200.000	0.001	-0.025
-233.815	69.475	0.218	0.224
-232.800	-200.000	-0.085	0.558
-231.786	-51.441	-0.277	0.129
-230.771	385.674	0.086	0.177
-229.757	800.000	0.093	0.269
-228.742	800.000	0.048	-0.176
-227.727	373.961	-0.034	0.069
-226.713	194.993	-0.110	0.167
-225.698	-1.586	-0.087	0.061
-224.684	35.677	-0.255	0.223
-223.669	-51.500	0.324	0.151
-222.655	800.000	-0.075	0.239
-221.640	-63.811	0.169	-0.069
-220.625	185.824	0.174	-0.258
-219.611	-78.165	-0.289	0.099
-218.596	-56.641	-0.231	-0.102
-217.582	39.640	0.177	-0.158
-216.567	125.016	-0.211	-0.265
-215.552	-98.824	-0.259	-0.066
-214.538	800.000	0.110	0.352
-213.523	210.892	0.129	-0.202
-212.509	-56.463	-0.216	-0.096
-211.494	155.433	-0.082	0.112
-210.479	-96.645	0.230	-0.060
-209.465	231.329	0.157	0.257
-208.450	-39.433	-0.122	-0.064
-207.436	-176.972	0.331	-0.008
-206.421	-144.669	0.305	0.028
-205.406	9.407	-0.039	-0.029
-204.392	-200.000	-0.075	0.000
-203.377	144.775	0.201	0.268
-202.363	619.475	0.098	-0.246
-201.348	-115.551	0.473	-0.089
-200.333	-142.608	0.293	-0.029
-199.319	331.170	-0.017	-0.032
-198.304	800.000	-0.077	0.302
-197.290	-200.000	-0.030	0.296
-196.275	-130.810	-0.244	0.033
-195.260	-56.699	-0.208	-0.092
-194.246	234.211	-0.148	0.243
-193.231	697.038	-0.053	0.138
-192.217	800.000	0.022	-0.087
-191.202	183.292	-0.014	-0.021
-190.187	637.295	0.063	-0.160
-189.173	-34.428	-0.168	0.092
-188.158	-200.000	-0.002	-0.021
-187.144	-100.437	-0.278	0.069
-186.129	175.831	0.098	-0.141
-185.114	800.000	-0.055	-0.211
-184.100	172.713	-0.041	0.059
-183.085	-200.000	0.013	0.189
-182.071	800.000	0.116	0.326
-181.056	-88.268	0.110	0.033
-180.042	-200.000	0.068	0.351
-179.027	-85.774	-0.361	0.111
-178.012	190.168	-0.019	0.029
-176.998	800.000	-0.110	-0.339
-175.983	800.000	-0.036	0.133
-174.969	-35.283	-0.421	0.228
-173.954	520.054	-0.057	0.133
-172.939	105.317	0.239	0.282
-171.925	-21.693	-0.027	0.017
-170.910	51.658	-0.155	0.146
-169.896	-65.294	0.115	-0.046
-168.881	-42.891	0.302	-0.153
-167.866	187.988	0.107	-0.160
-166.852	-82.434	-0.126	0.041
-165.837	800.000	-0.045	-0.142
-164.823	748.321	0.108	-0.290
-163.808	-53.084	0.163	0.075
-162.793	8.610	-0.341	0.256
-161.779	-94.759	0.163	0.044
-160.764	487.665	0.011	-0.025
-159.750	-200.000	0.079	0.489
-158.735	-32.934	0.169	0.093
-157.720	273.034	0.162	0.285
-156.706	-75.807	-0.320	0.113
-155.691	798.742	-0.070	-0.192
-154.677	145.868	0.075	0.100
-153.662	-200.000	0.007	0.155
-152.647	10.143	0.115	-0.087
-151.633	126.657	0.206	-0.259
-150.618	-93.381	0.451	0.124
-149.604	343.876	0.203	0.395
-148.589	-200.000	-0.016	0.078
-147.574	142.099	0.088	0.117
-146.560	78.535	0.124	-0.132
-145.545	-57.920	0.212	0.092
-144.531	95.444	0.303	0.344
-143.516	-127.038	-0.108	-0.016
-142.502	-133.184	0.501	0.063
-141.487	-200.000	-0.003	0.110
-140.472	-89.275	0.334	0.098
-139.458	-127.993	0.287	-0.041
-138.443	80.531	0.233	-0.249
-137.429	15.585	0.158	0.123
-136.414	800.000	-0.042	0.157
-135.399	-131.698	0.198	-0.026
-134.385	-58.170	-0.165	-0.071
-133.370	-109.890	0.237	-0.049
-132.356	-200.000	-0.030	-0.140
-131.341	-49.814	0.193	-0.091
-130.326	-200.000	-0.032	0.203
-129.312	-0.501	-0.317	-0.224
-128.297	355.841	0.063	-0.124
-127.283	-172.591	-0.055	0.002
-126.268	67.918	0.022	0.023
-125.253	-14.087	-0.194	0.124
-124.239	-12.125	0.253	0.164
-123.224	107.806	-0.097	0.115
-122.210	178.680	0.292	-0.424
-121.195	607.383	0.134	0.333
-120.180	28.657	0.111	0.093
-119.166	800.000	-0.061	0.173
-118.151	136.569	0.326	0.422
-117.137	55.680	-0.200	0.193
-116.122	-31.925	-0.052	-0.029
-115.107	8.988	0.267	0.200
-114.093	4.369	-0.021	-0.015
-113.078	-200.000	0.021	-0.174
-112.064	-108.502	0.064	-0.014
-111.049	130.733	-0.042	-0.054
-110.034	-99.063	0.078	0.020
-109.020	-200.000	0.055	-0.366
-108.005	144.178	0.025	0.033
-106.991	-181.356	0.195	0.004
-105.976	-148.278	0.200	0.016
-104.962	163.867	0.110	-0.154
-103.947	-200.000	-0.000	-0.456
-102.932	-52.378	-0.295	-0.136
-101.918	-122.715	0.230	0.037
-100.903	71.131	-0.061	-0.063
-99.889	-24.094	0.248	0.147
-98.874	-105.167	0.238	0.054
-97.859	-45.421	0.053	-0.026
-96.845	-72.024	0.278	0.103
-95.830	21.491	0.179	0.145
-94.816	187.023	-0.149	0.221
-93.801	-16.794	0.182	-0.114
-92.786	800.000	-0.002	0.007
-91.772	-57.341	0.114	0.050
-90.757	-200.000	0.015	-0.227
-89.743	40.247	0.165	-0.148
-88.728	-200.000	-0.038	0.442
-87.713	229.591	-0.041	-0.067
-86.699	253.721	-0.180	0.305
-85.684	-200.000	-0.007	0.157
-84.670	269.055	-0.187	0.326
-83.655	-124.358	0.267	-0.041
-82.640	71.681	-0.084	0.086
-81.626	560.979	0.075	-0.181
-80.611	160.662	-0.153	-0.212
-79.597	-159.796	-0.095	-0.005
-78.582	21.490	-0.149	-0.120
-77.567	-200.000	-0.018	0.235
-76.553	101.266	0.137	0.158
-75.538	800.000	0.136	0.465
-74.524	48.934	0.190	0.177
-73.509	800.000	-0.111	0.383
-72.494	84.084	-0.191	0.207
-71.480	-18.029	-0.057	-0.035
-70.465	26.624	0.159	-0.132
-69.451	-31.341	-0.125	-0.070
-68.436	-53.449	-0.295	-0.134
-67.422	583.829	0.034	-0.082
-66.407	104.946	-0.058	-0.068
-65.392	800.000	0.060	0.183
-64.378	520.191	0.061	0.143
-63.363	-54.422	-0.137	0.062
-62.349	89.295	-0.070	0.077
-61.334	55.424	-0.593	-0.569
-60.319	247.863	0.285	0.477
-59.305	-200.000	-0.154	-1.013
-58.290	78.272	0.791	0.837
-57.276	800.000	0.347	1.439
-56.261	-200.000	91.271	533.637
-55.246	479.826	1417.027	3183.595
-54.232	144.468	2630.117	3480.707
-53.217	110.332	2252.971	2682.224
-52.203	45.429	1775.196	1623.611
-51.188	38.457	1580.434	1395.913
-50.173	36.012	1552.642	1354.150
-49.159	52.892	1600.719	1516.984
-48.144	56.331	1619.503	1559.300
-47.130	38.923	1576.745	1395.751
-46.115	35.677	1561.276	1359.095
-45.100	35.496	1558.301	1355.171
-44.086	35.492	1556.179	1353.250
-43.071	35.331	1554.679	1350.757
-42.057	35.322	1553.111	1349.275
-41.042	35.420	1551.086	1348.148
-40.027	35.424	1549.527	1346.769
-39.013	35.364	1548.379	1345.300
-37.998	35.371	1546.777	1343.901
-36.984	35.279	1546.019	1342.544
-35.969	35.422	1544.511	1342.183
-34.954	35.414	1542.931	1340.705
-33.940	35.395	1541.137	1338.961
-32.925	35.439	1539.779	1338.034
-31.911	35.459	1538.245	1336.786
-30.896	35.537	1536.820	1336.038
-29.881	35.523	1535.688	1334.903
-28.867	35.374	1534.437	1332.725
-27.852	35.440	1533.078	1331.950
-26.838	35.496	1531.322	1330.759
-25.823	35.448	1529.926	1329.162
-24.809	35.475	1528.156	1327.760
-23.794	35.532	1526.345	1326.528
-22.779	35.427	1525.586	1325.090
-21.765	35.459	1524.973	1324.722
-20.750	35.531	1523.434	1323.832
-19.736	35.407	1522.250	1321.893
-18.721	35.496	1520.973	1321.350
-17.706	35.433	1520.232	1320.220
-16.692	35.393	1519.068	1318.877
-15.677	35.453	1517.876	1318.206
-14.663	35.414	1516.963	1317.088
-13.648	35.319	1515.847	1315.419
-12.633	35.300	1515.419	1314.865
-11.619	35.272	1514.812	1314.094
-10.604	35.325	1513.632	1313.380
-9.590	35.349	1512.370	1312.400
-8.575	35.345	1511.731	1311.764
-7.560	35.364	1510.926	1311.145
-6.546	35.421	1508.808	1309.641
-5.531	35.377	1508.819	1309.296
-4.517	35.291	1507.777	1307.757
-3.502	35.264	1507.105	1306.939
-2.487	35.329	1505.251	1305.721
-1.473	35.347	1504.776	1305.378
-0.458	35.452	1502.887	1304.405
0.556	34.085	1494.146	1296.029
1.571	31.900	1468.134	1258.707
2.586	28.701	1406.269	1184.957
3.600	27.057	1319.870	1102.090
4.615	25.161	1271.914	1050.855
5.629	22.954	1216.436	992.547
6.644	17.937	1133.334	898.334
7.659	13.542	1093.038	843.969
8.673	12.770	1087.850	835.973
9.688	12.649	1084.587	832.777
10.702	12.437	1083.295	830.640
11.717	12.485	1081.359	829.329
12.731	14.563	1083.190	841.144
13.746	19.253	1088.931	869.248
14.761	20.485	1089.146	875.553
15.775	18.503	1085.451	862.542
16.790	17.129	1083.012	853.626
17.804	16.067	1080.451	846.204
18.819	14.981	1079.109	839.632
19.834	14.535	1077.494	836.066
20.848	14.188	1076.269	833.300
21.863	13.901	1075.184	830.952
22.877	13.689	1074.524	829.308
23.892	13.425	1073.781	827.342
24.907	13.353	1073.091	826.379
25.921	13.264	1072.221	825.188
26.936	13.457	1071.282	825.358
27.950	13.350	1070.508	824.155
28.965	13.508	1068.909	823.638
29.980	13.491	1068.107	822.862
30.994	13.511	1067.015	822.048
32.009	13.617	1065.772	821.540
33.023	13.613	1065.226	821.029
34.038	13.577	1064.470	820.195
35.053	13.615	1063.410	819.491
36.067	13.560	1062.599	818.524
37.082	13.493	1061.650	817.390
38.096	13.550	1061.138	817.205
39.111	13.623	1059.860	816.510
40.126	13.550	1059.250	815.606
41.140	13.491	1057.857	814.173
42.155	13.463	1056.867	813.201
43.169	13.377	1055.773	811.862
44.184	13.292	1054.920	810.720
45.199	13.346	1053.469	809.798
46.213	13.283	1052.883	808.966
47.228	13.387	1051.657	808.459
48.242	13.484	1050.575	808.033
49.257	13.536	1050.091	807.839
50.271	13.466	1048.766	806.409
51.286	13.553	1047.731	805.964
52.301	13.526	1047.359	805.475
53.315	13.529	1046.201	804.529
54.330	13.512	1045.726	804.011
55.344	13.392	1045.284	803.017
56.359	13.432	1043.541	801.801
57.374	13.382	1042.497	800.688
58.388	13.401	1042.060	800.371
59.403	13.329	1040.910	799.069
60.417	13.386	1039.955	798.539
61.432	13.333	1039.179	797.619
62.447	13.247	1038.628	796.708
63.461	13.227	1037.961	796.031
64.476	13.259	1036.863	795.273
65.490	13.263	1035.668	794.306
66.505	13.159	1035.383	793.520
67.520	13.311	1034.339	793.378
68.534	13.219	1034.013	792.615
69.549	13.388	1032.988	792.569
70.563	13.218	1032.056	790.970
71.578	13.379	1031.170	790.989
72.593	13.400	1030.302	790.357
73.607	13.139	1029.644	788.536
74.622	13.216	1028.413	787.891
75.636	13.173	1027.342	786.793
76.651	13.232	1026.747	786.548
77.666	13.168	1026.108	785.685
78.680	13.151	1025.304	784.923
79.695	13.142	1024.781	784.408
80.709	13.276	1023.879	784.285
81.724	13.225	1023.502	783.686
82.739	13.203	1022.433	782.691
83.753	13.273	1021.619	782.332
84.768	13.354	1021.030	782.193
85.782	13.468	1020.397	782.180
86.797	13.518	1019.377	781.565
87.812	13.590	1018.357	781.051
88.826	13.467	1017.860	780.019
89.841	13.443	1016.661	778.920
90.855	13.480	1016.156	778.639
91.870	13.591	1014.941	778.161
92.884	13.663	1014.245	777.895
93.899	13.615	1013.674	777.164
94.914	13.628	1012.899	776.562
95.928	13.572	1012.342	775.801
96.943	13.629	1011.474	775.338
97.957	13.501	1011.248	774.495
98.972	13.510	1009.861	773.407
99.987	13.504	1009.093	772.724
101.001	13.512	1008.634	772.341
102.016	13.406	1007.869	771.194
103.030	13.502	1006.700	770.675
104.045	13.612	1005.504	770.203
105.060	13.573	1004.537	769.212
106.074	13.579	1003.589	768.446
107.089	13.403	1002.639	766.836
108.103	13.471	1001.912	766.529
109.118	13.269	1001.190	764.972
110.133	13.273	1000.371	764.300
111.147	13.343	999.215	763.671
112.162	13.419	998.273	763.235
113.176	13.400	997.734	762.666
114.191	13.438	996.888	762.126
115.206	13.314	995.942	760.766
116.220	13.429	994.820	760.369
117.235	13.446	994.116	759.844
118.249	13.345	993.195	758.608
119.264	13.368	992.391	758.034
120.279	13.403	991.723	757.616
121.293	13.475	990.824	757.189
122.308	13.288	990.029	755.664
123.322	13.321	989.360	755.233
124.337	13.410	987.842	754.414
125.352	13.407	987.017	753.707
126.366	13.245	985.729	751.919
127.381	13.458	984.336	751.754
128.395	13.234	984.254	750.609
129.410	13.293	982.852	749.741
130.424	13.336	981.893	749.140
131.439	13.354	981.157	748.591
132.454	13.338	980.602	748.030
133.468	13.556	979.723	748.280
134.483	13.487	978.954	747.313
135.497	13.323	978.658	746.282
136.512	13.536	977.425	746.235
137.527	13.499	976.800	745.525
138.541	13.524	975.418	744.518
139.556	13.378	975.373	743.760
140.570	13.398	974.644	743.230
141.585	13.528	973.730	743.048
142.600	13.572	972.911	742.554
143.614	13.589	972.121	741.961
144.629	13.529	971.355	741.045
145.643	13.660	970.349	740.797
146.658	13.739	969.289	740.276
147.673	13.547	968.902	739.056
148.687	13.549	967.732	738.108
149.702	13.501	966.633	736.989
150.716	13.381	966.434	736.241
151.731	13.427	965.504	735.673
152.746	13.465	964.513	735.019
153.760	13.586	963.486	734.709
154.775	13.564	962.954	734.138
155.789	13.522	962.357	733.433
156.804	13.536	961.249	732.587
157.819	13.582	960.609	732.235
158.833	13.667	959.673	731.834
159.848	13.607	959.605	731.451
160.862	13.734	958.768	731.311
161.877	13.587	958.128	730.111
162.892	13.600	957.230	729.418
163.906	13.561	955.973	728.225
164.921	13.576	955.466	727.839
165.935	13.576	954.147	726.772
166.950	13.553	953.608	726.195
167.964	13.628	952.544	725.648
168.979	13.590	951.504	724.624
169.994	13.541	950.602	723.661
171.008	13.674	949.287	723.176
172.023	13.715	948.626	722.786
173.037	13.742	948.025	722.383
174.052	13.768	947.408	721.964
175.067	13.799	946.376	721.248
176.081	13.654	945.748	720.072
177.096	13.782	944.659	719.738
178.110	13.652	944.041	718.636
179.125	13.522	943.785	717.817
180.140	13.640	942.669	717.412
181.154	13.693	941.724	716.860
182.169	13.667	940.945	716.094
183.183	13.698	940.514	715.835
184.198	13.799	939.864	715.712
185.213	13.817	939.191	715.212
186.227	13.882	938.211	714.686
187.242	13.868	938.325	714.650
188.256	13.868	937.586	714.021
189.271	13.988	936.651	713.761
190.286	13.890	936.127	712.879
191.300	13.903	934.790	711.853
192.315	13.745	934.061	710.560
193.329	13.773	933.152	709.926
194.344	13.830	932.645	709.719
195.359	13.716	932.244	708.865
196.373	13.604	932.303	708.368
197.388	13.921	931.279	708.881
198.402	14.000	930.218	708.346
199.417	13.964	930.558	708.389
200.432	14.149	929.982	708.675
201.446	14.110	929.555	708.124
202.461	14.121	928.921	707.623
203.475	14.247	928.209	707.554
204.490	14.150	927.707	706.699
205.504	14.098	926.891	705.791
206.519	14.189	926.204	705.592
207.534	14.135	925.417	704.700
208.548	14.078	924.425	703.640
209.563	14.190	923.463	703.320
210.577	14.106	923.221	702.720
211.592	14.184	922.487	702.428
212.607	14.072	922.338	701.779
213.621	14.275	921.746	702.125
214.636	14.366	920.382	701.404
215.650	14.259	920.211	700.762
216.665	14.208	919.653	700.060
217.680	14.276	919.463	700.142
218.694	14.309	918.553	699.523
219.709	14.370	918.214	699.462
220.723	14.264	917.592	698.479
221.738	14.326	916.621	697.939
222.753	14.322	915.652	697.121
223.767	14.365	914.713	696.527
224.782	14.389	914.061	696.070
225.796	14.495	913.477	696.006
226.811	14.474	913.071	695.545
227.826	14.462	912.319	694.860
228.840	14.621	911.068	694.508
229.855	14.412	911.051	693.565
230.869	14.446	910.249	693.036
231.884	14.469	909.542	692.529
232.899	14.347	909.053	691.589
233.913	14.415	908.356	691.280
234.928	14.410	907.685	690.686
235.942	14.358	907.329	690.140
236.957	14.337	906.084	689.044
237.972	14.411	905.533	688.872
238.986	14.411	904.601	688.103
240.001	14.468	903.867	687.718
241.015	14.395	903.596	687.149
242.030	14.471	902.676	686.701
243.045	14.541	902.297	686.639
244.059	14.604	901.675	686.368
245.074	14.555	901.055	685.631
246.088	14.629	900.252	685.265
247.103	14.602	899.860	684.793
248.117	14.722	898.757	684.387
249.132	14.630	898.675	683.887
250.147	14.816	897.956	684.042
251.161	14.827	897.491	683.670
252.176	14.837	896.915	683.213
253.190	14.894	895.840	682.565
254.205	15.066	895.238	682.748
255.220	15.008	894.643	681.997
256.234	14.922	893.821	680.960
257.249	15.040	893.194	680.904
258.263	15.110	892.196	680.365
259.278	14.943	892.275	679.686
260.293	15.069	891.611	679.634
261.307	14.990	891.030	678.809
262.322	14.989	890.616	678.428
263.336	15.094	889.825	678.191
264.351	15.162	888.849	677.662
265.366	15.244	888.275	677.497
266.380	15.154	887.850	676.751
267.395	15.226	887.039	676.363
268.409	15.118	886.496	675.454
269.424	15.140	885.602	674.802
270.439	15.063	885.307	674.207
271.453	15.052	884.134	673.211
272.468	15.157	883.558	673.132
273.482	15.096	883.094	672.474
274.497	15.145	882.097	671.852
275.512	15.102	881.712	671.327
276.526	15.187	880.870	670.967
277.541	15.174	880.340	670.452
278.555	15.199	879.766	670.056
279.570	15.389	878.900	670.098
280.585	15.449	878.353	669.861
281.599	15.459	878.039	669.599
282.614	15.293	877.273	668.295
283.628	15.207	876.994	667.680
284.643	15.276	876.153	667.257
285.657	15.193	875.881	666.660
286.672	15.291	875.248	666.507
287.687	15.277	874.728	665.997
288.701	15.347	874.192	665.811
289.716	15.536	873.233	665.767
290.730	15.322	872.913	664.619
291.745	15.425	872.318	664.516
292.760	15.451	871.222	663.724
293.774	15.433	870.826	663.290
294.789	15.526	870.186	663.112
295.803	15.600	869.771	663.029
296.818	15.524	869.263	662.284
297.833	15.603	868.416	661.893
298.847	15.381	868.067	660.692
299.862	15.578	866.958	660.565
300.876	15.625	866.186	660.104
301.891	15.626	865.774	659.736
302.906	15.576	865.065	658.940
303.920	15.659	864.271	658.601
304.935	15.748	863.860	658.580
305.949	15.771	863.176	658.091
306.964	15.712	862.465	657.258
307.979	15.644	861.848	656.464
308.993	15.784	861.351	656.573
310.008	15.941	860.645	656.591
311.022	15.836	860.361	655.904
312.037	15.773	859.936	655.279
313.052	15.833	859.278	654.950
314.066	15.819	858.837	654.503
315.081	15.777	858.196	653.793
316.095	15.739	857.538	653.088
317.110	15.571	857.240	652.152
318.125	15.676	856.777	652.148
319.139	15.692	856.117	651.650
320.154	15.849	855.620	651.823
321.168	15.776	854.992	651.005
322.183	15.816	854.269	650.549
323.197	15.843	853.846	650.276
324.212	15.846	853.703	650.119
325.227	15.704	852.942	648.933
326.241	15.815	852.265	648.792
327.256	15.904	851.765	648.696
328.270	15.746	851.366	647.724
329.285	15.822	850.832	647.555
330.300	15.892	850.022	647.152
331.314	15.985	849.003	646.675
332.329	16.054	848.512	646.506
333.343	15.979	847.910	645.702
334.358	15.983	847.878	645.639
335.373	16.075	847.187	645.408
336.387	16.034	846.431	644.618
337.402	16.172	845.812	644.617
338.416	16.141	845.324	644.069
339.431	16.227	844.567	643.763
340.446	16.251	844.218	643.530
341.460	16.217	843.795	643.024
342.475	16.217	843.383	642.651
343.489	16.400	842.437	642.569
344.504	16.300	842.255	641.993
345.519	16.291	841.708	641.488
346.533	16.495	840.809	641.519
347.548	16.280	840.651	640.526
348.562	16.408	840.156	640.576
349.577	16.191	839.417	639.134
350.592	16.237	839.055	638.978
351.606	16.128	838.604	638.166
352.621	16.250	838.141	638.215
353.635	16.244	837.587	637.715
354.650	16.180	836.797	636.815
355.665	16.334	836.786	637.334
356.679	16.309	836.556	637.005
357.694	16.339	835.645	636.369
358.708	16.328	835.280	635.993
359.723	16.471	834.591	635.951
360.738	16.330	834.127	635.011
361.752	16.475	833.092	634.711
362.767	16.441	833.203	634.613
363.781	16.507	832.628	634.367
364.796	16.646	831.952	634.317
365.810	16.636	831.655	633.997
366.825	16.733	831.369	634.084
367.840	16.653	831.057	633.492
368.854	16.562	830.478	632.653
369.869	16.574	830.291	632.499
370.883	16.569	829.591	631.892
371.898	16.541	829.148	631.393
372.913	16.822	828.288	631.730
373.927	16.725	827.656	630.831
374.942	16.701	827.052	630.226
375.956	16.795	826.302	629.947
376.971	16.813	825.813	629.588
377.986	16.856	825.240	629.256
379.000	17.015	824.510	629.230
380.015	16.949	824.360	628.818
381.029	16.991	824.020	628.657
382.044	17.014	823.178	628.045
383.059	16.902	822.730	627.234
384.073	16.987	821.996	626.933
385.088	16.959	821.459	626.362
386.102	16.922	821.143	625.928
387.117	16.870	820.683	625.331
388.132	16.890	820.118	624.920
389.146	16.889	819.605	624.471
390.161	16.783	819.826	624.192
391.175	16.985	819.143	624.361
392.190	17.095	818.499	624.219
393.205	16.982	817.937	623.321
394.219	16.915	817.448	622.647
395.234	16.907	817.200	622.374
396.248	16.757	816.790	621.456
397.263	16.821	816.059	621.079
398.278	16.945	815.685	621.194
399.292	16.971	815.083	620.776
400.307	17.035	814.593	620.582
401.321	16.988	814.321	620.146
402.336	16.929	813.869	619.533
403.350	16.890	813.536	619.082
404.365	16.958	813.116	618.958
405.380	17.147	812.583	619.185
406.394	17.256	811.935	619.035
407.409	17.297	811.436	618.747
408.423	17.256	810.951	618.175
409.438	17.280	810.718	618.029
410.453	17.232	810.126	617.347
411.467	17.230	809.951	617.154
412.482	17.378	809.407	617.221
413.496	17.315	809.176	616.763
414.511	17.304	808.516	616.164
415.526	17.488	807.788	616.223
416.540	17.463	807.658	615.976
417.555	17.400	807.356	615.466
418.569	17.319	806.776	614.675
419.584	17.437	806.157	614.576
420.599	17.481	805.818	614.421
421.613	101.283	1282.318	1432.660
422.628	87.001	1351.736	1432.772
