DTS Sentinel unit serial number:	SN413079Multiplexer serial number:	ORYXHardware model number:	OX4-SRSoftware version number:	ORYX F/W v4.00 Oryx Data Collector v3.7.2.0data status	okinstallation	princeton_trtdifferential loss correction	single-endedforward channel	channel 3reverse channel	N/Adate	2019/09/19time	09:44:35forward acquisition time	60.00reverse acquisition time	0.00gamma	496.2192k internal	0.2344k external	0.2344temperature offset calibration	0.9970default loss term (dB/km)	0.3790temperature slope calibration	1.0000multiplexer offset coefficient	1.0000multiplexer slope coefficient	1.0000fibre end	0.00T internal ref (°C)	23.28T ext. ref 1 (°C)	0.64T ext. ref 2 (°C)	19.51length (m)	temperature (°C)	Stokes	anti-Stokes-747.200	800.000	-0.049	0.146
-746.185	800.000	-0.094	0.279
-745.171	800.000	-0.034	-0.099
-744.156	-28.774	0.058	0.033
-743.142	800.000	-0.019	-0.064
-742.127	-168.536	-0.220	0.008
-741.112	-95.224	-0.124	0.033
-740.098	348.206	0.053	-0.105
-739.083	-53.154	-0.114	0.052
-738.069	-119.225	-0.077	0.013
-737.054	-200.000	-0.002	0.244
-736.039	116.673	-0.150	-0.185
-735.025	-200.000	0.063	0.406
-734.010	-133.787	-0.169	-0.021
-732.996	-84.326	0.083	-0.026
-731.981	-15.663	-0.456	0.291
-730.966	-50.886	-0.184	-0.087
-729.952	1.455	0.106	-0.076
-728.937	-12.548	-0.249	-0.163
-727.923	13.217	-0.323	0.250
-726.908	-62.127	-0.352	-0.147
-725.894	-200.000	0.030	-0.145
-724.879	-78.111	-0.324	0.111
-723.864	-45.664	-0.165	-0.081
-722.850	800.000	0.111	-0.329
-721.835	-90.070	-0.617	-0.180
-720.821	-69.859	-0.274	-0.104
-719.806	-43.709	-0.169	0.085
-718.791	800.000	-0.051	-0.153
-717.777	-146.114	-0.225	0.020
-716.762	-25.810	-0.335	-0.197
-715.748	305.023	-0.050	0.093
-714.733	-33.372	0.251	0.139
-713.718	800.000	0.038	0.147
-712.704	-131.109	-0.128	0.017
-711.689	-8.007	0.248	0.167
-710.675	42.292	-0.116	-0.105
-709.660	15.297	0.157	0.123
-708.645	12.859	0.262	-0.203
-707.631	126.042	0.119	0.150
-706.616	-155.243	-0.096	-0.006
-705.602	-200.000	-0.056	-0.420
-704.587	-200.000	-0.030	0.261
-703.572	-48.163	0.272	0.131
-702.558	-200.000	0.056	0.315
-701.543	-60.546	-0.380	-0.161
-700.529	-200.000	-0.091	-0.495
-699.514	-111.876	0.197	-0.040
-698.499	-68.507	0.286	0.111
-697.485	-175.028	-0.488	0.014
-696.470	156.081	-0.153	-0.211
-695.456	-54.569	-0.243	-0.110
-694.441	-200.000	0.030	-0.254
-693.426	-200.000	0.048	-0.248
-692.412	-200.000	0.055	0.315
-691.397	58.146	-0.068	0.067
-690.383	36.210	0.154	-0.135
-689.368	99.178	-0.336	-0.387
-688.354	-200.000	0.055	-0.536
-687.339	-73.893	-0.517	-0.187
-686.324	-120.945	-0.397	-0.067
-685.310	246.451	-0.069	-0.116
-684.295	729.753	-0.038	-0.102
-683.281	538.723	-0.044	0.105
-682.266	-155.230	0.310	0.020
-681.251	73.417	-0.109	0.114
-680.237	800.000	0.115	-0.368
-679.222	-177.175	-0.545	-0.014
-678.208	-36.744	0.318	-0.170
-677.193	94.053	0.295	0.334
-676.178	-86.938	-0.079	-0.024
-675.164	-109.327	0.159	0.034
-674.149	-163.584	-0.154	-0.007
-673.135	-175.065	-0.477	-0.013
-672.120	128.130	-0.029	0.036
-671.105	-13.633	-0.125	-0.081
-670.091	643.639	-0.093	-0.236
-669.076	-200.000	-0.014	0.100
-668.062	53.584	0.138	0.132
-667.047	-29.588	0.478	0.273
-666.032	-0.448	-0.390	-0.276
-665.018	-35.262	-0.100	0.054
-664.003	468.065	0.168	0.376
-662.989	85.295	0.191	0.209
-661.974	562.082	-0.066	-0.160
-660.959	-19.608	-0.216	-0.133
-659.945	291.622	-0.116	0.211
-658.930	-79.635	-0.309	-0.104
-657.916	374.688	0.067	-0.136
-656.901	-135.193	-0.307	0.037
-655.886	-200.000	0.071	0.313
-654.872	163.361	0.227	0.318
-653.857	-54.788	0.064	0.029
-652.843	-117.862	0.174	-0.031
-651.828	-200.000	0.022	-0.224
-650.814	68.326	0.190	-0.194
-649.799	800.000	-0.098	0.274
-648.784	14.880	-0.046	0.036
-647.770	-161.856	-0.021	-0.001
-646.755	145.327	0.102	0.137
-645.741	-34.946	0.178	-0.097
-644.726	-200.000	-0.044	-0.528
-643.711	-92.299	0.193	0.054
-642.697	-170.621	-0.117	-0.004
-641.682	423.988	-0.081	0.174
-640.668	-76.117	0.290	-0.102
-639.653	800.000	0.026	0.083
-638.638	-200.000	-0.005	0.054
-637.624	-200.000	-0.083	-0.447
-636.609	24.042	-0.284	-0.233
-635.595	-108.204	0.093	0.020
-634.580	-20.166	0.132	-0.081
-633.565	-200.000	-0.000	-0.227
-632.551	-96.307	-0.394	0.104
-631.536	-200.000	0.002	-0.307
-630.522	-6.796	0.234	0.159
-629.507	-200.000	0.002	-0.050
-628.492	-36.258	0.305	-0.164
-627.478	800.000	-0.015	0.043
-626.463	-128.268	-0.272	0.039
-625.449	-78.530	-0.357	0.122
-624.434	-177.483	0.296	0.007
-623.419	-200.000	0.003	-0.153
-622.405	-17.469	-0.143	-0.090
-621.390	-200.000	-0.005	-0.196
-620.376	-200.000	0.025	0.375
-619.361	779.131	-0.096	-0.261
-618.346	323.383	0.160	0.304
-617.332	247.951	-0.091	0.153
-616.317	-108.300	-0.202	0.044
-615.303	-15.538	0.077	0.049
-614.288	-181.687	0.304	-0.006
-613.273	491.506	0.100	-0.227
-612.259	453.889	-0.191	-0.421
-611.244	-34.723	0.381	-0.207
-610.230	286.122	0.125	-0.225
-609.215	-55.756	-0.246	-0.109
-608.201	-200.000	-0.016	0.251
-607.186	-200.000	0.016	-0.072
-606.171	-5.254	-0.258	-0.177
-605.157	-41.611	0.217	-0.111
-604.142	-200.000	0.002	-0.244
-603.128	117.010	-0.142	-0.174
-602.113	800.000	-0.030	-0.118
-601.098	-9.538	-0.171	-0.113
-600.084	11.528	-0.133	-0.102
-599.069	56.969	0.190	0.184
-598.055	-2.853	0.304	0.212
-597.040	800.000	0.021	0.061
-596.025	-97.617	-0.142	-0.037
-595.011	41.128	0.124	0.112
-593.996	565.595	-0.099	0.238
-592.982	172.259	-0.099	0.141
-591.967	97.596	0.066	0.076
-590.952	-200.000	0.003	-0.268
-589.938	-23.224	-0.139	-0.083
-588.923	149.696	-0.097	-0.131
-587.909	-200.000	0.024	-0.166
-586.894	41.918	-0.142	0.128
-585.879	-114.855	-0.157	-0.030
-584.865	-200.000	0.039	-0.200
-583.850	459.274	-0.043	-0.096
-582.836	800.000	0.043	-0.130
-581.821	800.000	-0.120	-0.345
-580.806	-135.509	0.211	0.025
-579.792	80.399	0.250	0.267
-578.777	-30.405	0.230	0.130
-577.763	-200.000	0.011	0.271
-576.748	-83.235	-0.097	-0.031
-575.733	-75.061	0.236	0.084
-574.719	-200.000	0.022	-0.183
-573.704	-200.000	0.054	-0.323
-572.690	160.094	0.190	0.264
-571.675	52.995	-0.325	0.309
-570.661	-107.187	-0.040	0.009
-569.646	800.000	0.025	0.076
-568.631	384.613	0.161	-0.329
-567.617	800.000	-0.050	0.186
-566.602	800.000	0.105	-0.297
-565.588	-200.000	-0.006	0.461
-564.573	-111.078	-0.110	-0.022
-563.558	70.757	0.190	-0.195
-562.544	-119.830	0.357	-0.061
-561.529	-87.807	0.389	-0.116
-560.515	-88.509	0.151	-0.045
-559.500	205.552	0.128	-0.197
-558.485	25.851	-0.334	0.276
-557.471	325.542	0.065	0.123
-556.456	-200.000	-0.023	0.128
-555.442	-43.076	-0.228	-0.115
-554.427	-69.035	-0.349	0.133
-553.412	-22.065	0.314	-0.189
-552.398	-84.777	0.437	-0.136
-551.383	-200.000	-0.026	-0.198
-550.369	-69.925	-0.268	-0.101
-549.354	-200.000	-0.031	-0.180
-548.339	-127.650	-0.152	0.022
-547.325	245.128	-0.072	0.120
-546.310	-147.593	-0.240	-0.020
-545.296	189.413	-0.174	0.259
-544.281	-84.390	-0.103	-0.032
-543.266	-38.082	-0.098	0.052
-542.252	25.594	-0.151	-0.125
-541.237	-136.260	0.056	0.006
-540.223	-58.187	0.350	0.152
-539.208	30.730	0.281	0.239
-538.193	796.625	0.034	0.093
-537.179	-200.000	-0.002	0.239
-536.164	157.512	0.381	0.524
-535.150	546.738	0.028	-0.066
-534.135	-172.960	0.120	0.004
-533.121	596.405	0.015	0.036
-532.106	154.716	-0.137	0.186
-531.091	-48.357	-0.383	0.183
-530.077	-200.000	0.011	-0.159
-529.062	-94.617	0.268	0.072
-528.048	120.613	-0.211	-0.260
-527.033	165.427	0.006	0.009
-526.018	-69.299	-0.143	0.055
-525.004	748.696	-0.063	0.170
-523.989	-18.916	-0.117	-0.072
-522.975	-106.952	-0.162	0.036
-521.960	128.290	-0.024	0.030
-520.945	97.051	-0.210	-0.239
-519.931	31.712	-0.336	-0.287
-518.916	-11.162	-0.054	-0.036
-517.902	800.000	0.012	0.047
-516.887	-200.000	-0.001	0.016
-515.872	-111.101	-0.421	0.086
-514.858	-141.601	0.076	-0.008
-513.843	-20.304	-0.220	-0.135
-512.829	-200.000	-0.024	-0.111
-511.814	118.047	0.216	0.265
-510.799	800.000	0.087	0.286
-509.785	-190.087	-0.212	0.002
-508.770	39.381	-0.123	0.109
-507.756	610.036	-0.117	-0.289
-506.741	-97.791	0.081	0.021
-505.726	7.155	0.550	-0.407
-504.712	-99.924	0.190	0.047
-503.697	-100.454	0.138	-0.034
-502.683	800.000	-0.060	0.179
-501.668	371.119	-0.176	-0.354
-500.653	18.636	0.147	-0.117
-499.639	117.535	0.260	0.317
-498.624	-200.000	0.000	0.033
-497.610	-200.000	0.009	0.073
-496.595	-145.400	0.549	0.049
-495.581	-73.286	-0.529	0.192
-494.566	-143.263	-0.272	-0.026
-493.551	-66.260	0.227	0.090
-492.537	-200.000	0.040	-0.280
-491.522	-34.955	-0.171	-0.092
-490.508	-200.000	0.045	0.360
-489.493	-65.974	-0.307	-0.121
-488.478	-84.650	-0.055	-0.017
-487.464	-7.186	0.164	0.110
-486.449	-200.000	0.005	0.165
-485.435	132.586	-0.030	-0.039
-484.420	631.172	-0.142	0.356
-483.405	427.930	-0.167	0.358
-482.391	-119.537	-0.230	0.040
-481.376	-0.652	-0.122	0.085
-480.362	94.672	-0.163	0.184
-479.347	67.073	-0.223	0.225
-478.332	-70.033	-0.133	-0.050
-477.318	-27.409	0.494	-0.284
-476.303	-47.145	-0.184	0.089
-475.289	2.026	0.157	-0.112
-474.274	-110.913	0.346	0.071
-473.259	-74.301	-0.537	0.192
-472.245	-6.225	-0.079	-0.053
-471.230	-40.152	-0.353	0.182
-470.216	98.696	0.166	-0.190
-469.201	-200.000	-0.013	0.136
-468.186	-200.000	0.032	0.190
-467.172	-60.058	0.223	0.094
-466.157	-34.922	0.277	0.150
-465.143	575.577	0.146	-0.353
-464.128	358.258	-0.110	0.218
-463.113	43.071	0.124	-0.112
-462.099	-23.617	0.264	-0.157
-461.084	800.000	0.112	0.405
-460.070	-85.734	-0.069	-0.021
-459.055	-200.000	-0.007	0.219
-458.040	-66.785	-0.220	-0.086
-457.026	78.376	-0.366	-0.386
-456.011	-165.643	-0.143	-0.006
-454.997	164.972	-0.095	-0.132
-453.982	-122.069	0.033	0.005
-452.968	-122.879	0.339	-0.054
-451.953	-11.006	-0.192	-0.126
-450.938	502.806	0.053	-0.121
-449.924	127.232	-0.042	-0.052
-448.909	98.003	-0.276	0.315
-447.895	-200.000	-0.023	0.139
-446.880	255.591	-0.109	0.185
-445.865	170.498	0.247	0.350
-444.851	-97.576	-0.198	-0.051
-443.836	-200.000	-0.024	0.118
-442.822	124.354	0.062	-0.077
-441.807	-56.840	0.102	0.044
-440.792	-200.000	0.295	0.001
-439.778	-200.000	0.010	-0.219
-438.763	-61.156	-0.462	0.193
-437.749	800.000	0.038	-0.134
-436.734	-200.000	0.052	0.323
-435.719	-159.502	-0.163	0.009
-434.705	800.000	0.033	-0.122
-433.690	800.000	-0.013	0.052
-432.676	156.435	0.203	0.277
-431.661	128.664	-0.153	0.193
-430.646	-200.000	-0.010	-0.098
-429.632	800.000	-0.095	0.298
-428.617	194.917	0.165	-0.247
-427.603	-200.000	-0.003	-0.161
-426.588	-200.000	0.020	-0.120
-425.573	-200.000	0.016	-0.359
-424.559	3.013	0.108	0.078
-423.544	800.000	0.075	0.234
-422.530	491.900	0.131	-0.296
-421.515	569.163	0.044	0.107
-420.500	159.182	0.106	0.146
-419.486	102.854	0.223	0.258
-418.471	-2.731	-0.215	0.149
-417.457	-99.046	0.186	0.047
-416.442	464.683	-0.062	0.137
-415.428	-99.223	-0.124	-0.031
-414.413	2.977	0.198	-0.142
-413.398	-85.735	-0.204	0.063
-412.384	800.000	0.020	-0.068
-411.369	-149.619	-0.033	-0.003
-410.355	-200.000	-0.021	0.310
-409.340	800.000	0.065	-0.240
-408.325	-13.720	0.211	-0.135
-407.311	-101.727	-0.343	-0.082
-406.296	-183.922	0.215	-0.004
-405.282	-75.989	0.150	-0.052
-404.267	-26.849	-0.233	-0.135
-403.252	-200.000	-0.010	-0.184
-402.238	19.120	-0.147	-0.117
-401.223	155.602	0.048	0.065
-400.209	-200.000	0.014	-0.116
-399.194	-105.648	0.276	0.062
-398.179	-170.412	-0.220	-0.008
-397.165	-9.703	-0.117	0.077
-396.150	-69.979	0.165	0.062
-395.136	-140.360	-0.202	-0.021
-394.121	-75.359	-0.138	0.048
-393.106	407.976	0.082	0.172
-392.092	-200.000	-0.001	0.222
-391.077	-24.123	0.290	-0.171
-390.063	-200.000	0.014	-0.088
-389.048	382.294	-0.045	0.092
-388.033	-126.038	-0.045	-0.007
-387.019	105.015	0.229	-0.267
-386.004	9.110	-0.363	0.271
-384.990	-200.000	-0.052	-0.234
-383.975	59.569	0.117	-0.114
-382.960	22.849	-0.199	-0.161
-381.946	-200.000	0.029	0.232
-380.931	-101.231	0.277	0.067
-379.917	-16.413	0.149	-0.093
-378.902	-200.000	0.002	-0.089
-377.888	36.849	0.087	0.075
-376.873	17.879	-0.267	-0.209
-375.858	-80.852	0.232	-0.076
-374.844	-144.247	-0.246	-0.023
-373.829	80.982	0.222	-0.237
-372.815	-200.000	-0.006	-0.079
-371.800	-131.396	0.073	0.009
-370.785	-139.075	0.198	0.021
-369.771	-200.000	0.067	-0.341
-368.756	-159.140	-0.036	0.002
-367.742	-200.000	-0.008	0.117
-366.727	56.985	-0.206	0.198
-365.712	195.162	0.080	0.119
-364.698	400.125	-0.122	0.252
-363.683	800.000	0.039	-0.124
-362.669	-200.000	-0.002	0.010
-361.654	-200.000	0.036	-0.182
-360.639	-48.259	-0.358	-0.170
-359.625	20.358	0.268	-0.214
-358.610	-170.076	0.446	-0.016
-357.596	538.441	-0.082	0.193
-356.581	-57.864	-0.125	-0.054
-355.566	-200.000	0.037	-0.209
-354.552	-82.742	0.169	-0.054
-353.537	-116.880	0.376	0.068
-352.523	-125.336	0.409	-0.062
-351.508	6.728	-0.114	-0.084
-350.493	29.698	-0.158	-0.132
-349.479	800.000	0.058	0.229
-348.464	18.243	-0.265	-0.208
-347.450	-170.435	0.565	-0.019
-346.435	26.574	0.174	-0.144
-345.420	19.813	-0.120	-0.095
-344.406	-12.894	0.126	0.081
-343.391	263.522	0.094	-0.161
-342.377	107.989	-0.048	0.056
-341.362	-20.964	-0.130	-0.079
-340.348	-200.000	-0.021	-0.284
-339.333	121.063	-0.218	0.267
-338.318	-78.521	-0.200	0.067
-337.304	16.856	0.095	0.074
-336.289	-200.000	-0.026	-0.144
-335.275	-29.495	-0.276	-0.155
-334.260	-108.007	-0.171	0.037
-333.245	77.792	0.022	0.023
-332.231	91.302	0.290	0.321
-331.216	-200.000	-0.037	0.271
-330.202	-200.000	-0.020	0.130
-329.187	31.019	-0.193	0.163
-328.172	122.691	0.198	-0.243
-327.158	61.743	-0.104	0.102
-326.143	-200.000	-0.021	0.103
-325.129	145.422	0.182	-0.240
-324.114	-41.885	-0.352	-0.177
-323.099	-82.360	0.041	-0.013
-322.085	65.817	0.152	-0.152
-321.070	136.779	-0.265	-0.341
-320.056	25.478	0.361	0.295
-319.041	800.000	0.081	0.280
-318.026	247.771	-0.172	0.286
-317.012	-149.761	0.349	-0.027
-315.997	-25.048	0.274	0.160
-314.983	-170.808	0.141	-0.005
-313.968	-42.543	-0.222	-0.111
-312.953	-21.726	0.072	0.043
-311.939	-121.976	0.388	0.063
-310.924	-85.016	0.081	0.025
-309.910	51.832	-0.171	-0.160
-308.895	190.242	-0.010	0.015
-307.880	-40.952	-0.279	0.142
-306.866	-116.055	-0.160	-0.029
-305.851	-132.197	-0.126	-0.016
-304.837	-100.213	-0.111	0.027
-303.822	-50.175	0.093	0.043
-302.807	2.723	-0.045	-0.032
-301.793	-56.938	-0.278	-0.121
-300.778	133.445	-0.174	-0.221
-299.764	-133.465	-0.114	0.014
-298.749	-111.275	-0.140	0.028
-297.735	-166.410	-0.189	0.008
-296.720	-74.027	-0.159	-0.057
-295.705	-200.000	-0.056	0.512
-294.691	-200.000	0.032	-0.155
-293.676	-200.000	0.080	-0.564
-292.662	-200.000	-0.005	0.157
-291.647	-113.946	-0.216	-0.041
-290.632	15.228	-0.081	0.062
-289.618	-200.000	0.010	0.137
-288.603	75.380	0.138	-0.143
-287.589	30.870	-0.111	-0.093
-286.574	6.827	-0.046	-0.033
-285.559	-200.000	0.004	0.096
-284.545	-33.129	-0.072	-0.039
-283.530	-51.180	0.115	0.053
-282.516	-81.261	0.144	-0.047
-281.501	137.612	0.171	-0.220
-280.486	-90.540	0.145	-0.041
-279.472	276.763	-0.124	-0.216
-278.457	-107.362	0.242	0.052
-277.443	367.576	-0.212	-0.421
-276.428	149.344	-0.168	-0.223
-275.413	-163.573	0.365	-0.017
-274.399	537.068	0.092	0.214
-273.384	800.000	0.143	0.422
-272.370	-200.000	0.007	-0.059
-271.355	362.233	0.160	-0.316
-270.340	431.577	0.079	0.169
-269.326	780.035	-0.094	-0.252
-268.311	-200.000	0.062	0.289
-267.297	4.608	0.061	-0.044
-266.282	155.259	-0.103	0.139
-265.267	-200.000	0.037	-0.305
-264.253	7.334	0.134	0.098
-263.238	505.982	0.087	-0.197
-262.224	-184.570	0.188	-0.003
-261.209	565.116	0.066	-0.157
-260.195	40.424	-0.482	0.426
-259.180	132.730	-0.157	0.199
-258.165	532.974	-0.016	-0.037
-257.151	-100.657	0.106	0.026
-256.136	-77.393	-0.242	-0.083
-255.122	255.940	-0.149	-0.250
-254.107	800.000	0.069	-0.241
-253.092	-200.000	-0.041	-0.364
-252.078	30.826	-0.179	0.150
-251.063	404.428	0.044	-0.091
-250.049	-129.671	-0.016	-0.002
-249.034	-107.029	-0.218	-0.047
-248.019	51.991	0.161	0.150
-247.005	44.623	-0.152	0.137
-245.990	-70.890	-0.085	-0.031
-244.976	-200.000	-0.006	0.100
-243.961	-87.886	-0.108	-0.032
-242.946	34.148	-0.297	-0.254
-241.932	572.384	0.208	-0.496
-240.917	800.000	-0.052	-0.186
-239.903	-109.387	-0.171	0.036
-238.888	218.235	-0.044	-0.069
-237.873	-200.000	-0.028	0.181
-236.859	-52.770	-0.179	-0.081
-235.844	-98.716	0.152	0.038
-234.830	-200.000	-0.029	-0.137
-233.815	-200.000	-0.009	-0.155
-232.800	309.726	0.166	0.305
-231.786	-17.223	-0.169	0.104
-230.771	-123.770	0.358	0.056
-229.757	308.489	-0.019	-0.035
-228.742	-166.237	-0.278	0.012
-227.727	-13.220	-0.188	0.120
-226.713	-70.188	0.324	0.121
-225.698	-44.148	0.153	-0.075
-224.684	-118.710	-0.133	-0.023
-223.669	-31.064	-0.077	0.042
-222.655	-121.437	0.202	-0.033
-221.640	-200.000	0.011	0.261
-220.625	-159.281	0.320	0.018
-219.611	-95.360	-0.255	0.067
-218.596	800.000	0.046	0.180
-217.582	-200.000	-0.034	0.441
-216.567	344.011	0.127	0.244
-215.552	-23.912	0.147	0.086
-214.538	-101.692	-0.111	0.026
-213.523	-2.449	0.075	-0.051
-212.509	800.000	0.030	-0.084
-211.494	-139.067	-0.418	0.044
-210.479	800.000	0.023	0.065
-209.465	-185.711	-0.109	0.002
-208.450	-104.135	-0.121	0.028
-207.436	-60.431	0.068	0.028
-206.421	0.421	0.278	0.195
-205.406	109.885	-0.228	0.268
-204.392	179.145	0.088	-0.126
-203.377	-200.000	-0.060	0.319
-202.363	-200.000	-0.002	-0.099
-201.348	194.095	0.138	-0.204
-200.333	-7.702	-0.075	-0.049
-199.319	-135.290	0.079	0.009
-198.304	-23.622	0.099	0.058
-197.290	142.147	-0.259	0.337
-196.275	-87.317	-0.210	0.062
-195.260	138.680	0.071	-0.091
-194.246	132.750	-0.127	-0.161
-193.231	-200.000	-0.009	-0.142
-192.217	-67.478	-0.185	-0.071
-191.202	-38.568	-0.206	-0.107
-190.187	119.357	-0.173	-0.210
-189.173	30.722	0.255	-0.214
-188.158	92.153	0.149	-0.165
-187.144	303.325	0.136	0.246
-186.129	-32.874	-0.289	0.157
-185.114	-112.805	0.178	0.035
-184.100	198.150	0.083	0.124
-183.085	140.334	0.115	-0.149
-182.071	-168.303	-0.109	0.004
-181.056	363.379	0.104	0.205
-180.042	-200.000	0.026	-0.507
-179.027	-92.141	0.229	-0.063
-178.012	-81.352	-0.169	-0.055
-176.998	-121.713	0.393	0.064
-175.983	-80.695	0.181	-0.059
-174.969	68.777	0.178	-0.179
-173.954	-28.260	0.211	0.119
-172.939	140.027	0.115	-0.149
-171.925	-0.930	-0.198	-0.138
-170.910	-62.382	0.245	0.100
-169.896	800.000	-0.058	0.239
-168.881	-39.819	0.145	-0.074
-167.866	-200.000	-0.018	0.332
-166.852	-200.000	0.043	0.509
-165.837	-48.271	0.373	0.176
-164.823	96.261	-0.048	0.053
-163.808	44.561	0.201	0.181
-162.793	800.000	0.108	-0.310
-161.779	-200.000	-0.017	0.123
-160.764	142.998	-0.230	-0.299
-159.750	-107.071	-0.138	-0.030
-158.735	48.036	-0.150	0.137
-157.720	800.000	0.019	0.059
-156.706	345.252	-0.147	-0.282
-155.691	-79.542	-0.170	-0.056
-154.677	629.050	-0.103	0.255
-153.662	550.149	0.111	0.261
-152.647	238.513	-0.131	0.213
-151.633	133.445	0.161	0.204
-150.618	-16.422	-0.453	-0.281
-149.604	-128.114	-0.226	0.032
-148.589	-200.000	-0.014	0.198
-147.574	-200.000	0.009	0.105
-146.560	53.507	0.070	-0.065
-145.545	324.801	0.219	0.409
-144.531	-200.000	-0.002	-0.066
-143.516	-120.047	0.147	0.025
-142.502	-167.625	-0.228	0.009
-141.487	-69.985	0.369	0.137
-140.472	-1.080	-0.173	0.120
-139.458	-200.000	-0.026	0.386
-138.443	70.157	-0.229	0.231
-137.429	226.147	-0.120	-0.191
-136.414	306.949	0.135	0.247
-135.399	221.182	0.144	0.226
-134.385	203.885	-0.138	-0.209
-133.370	125.884	0.090	0.111
-132.356	0.265	0.111	-0.077
-131.341	45.889	-0.268	0.242
-130.326	-200.000	0.016	-0.116
-129.312	190.991	-0.151	-0.223
-128.297	-16.747	-0.128	-0.079
-127.283	-20.864	-0.224	-0.134
-126.268	525.760	0.029	-0.066
-125.253	-97.657	0.508	0.129
-124.239	-100.279	-0.141	0.034
-123.224	303.433	-0.077	0.139
-122.210	-47.885	-0.332	-0.157
-121.195	-200.000	0.018	0.212
-120.180	-49.992	-0.189	0.087
-119.166	-28.342	-0.120	-0.068
-118.151	195.440	-0.117	0.174
-117.137	-47.986	0.164	0.078
-116.122	608.664	-0.068	-0.167
-115.107	-91.832	-0.021	0.006
-114.093	511.779	-0.074	-0.167
-113.078	-105.447	-0.240	0.053
-112.064	38.043	0.182	0.158
-111.049	-1.453	-0.112	-0.077
-110.034	-200.000	-0.050	-0.238
-109.020	8.709	0.430	0.316
-108.005	800.000	-0.128	0.438
-106.991	142.452	0.158	0.205
-105.976	-108.253	-0.415	0.087
-104.962	23.363	-0.113	-0.090
-103.947	45.507	0.153	0.137
-102.932	-98.096	0.240	-0.060
-101.918	140.801	0.166	0.214
-100.903	-200.000	0.001	0.374
-99.889	98.905	0.085	0.095
-98.874	150.035	-0.076	-0.101
-97.859	-96.796	-0.247	-0.063
-96.845	800.000	0.038	-0.138
-95.830	98.604	-0.314	0.353
-94.816	800.000	0.070	0.247
-93.801	-200.000	0.044	0.219
-92.786	-86.185	-0.095	0.029
-91.772	-118.065	0.131	-0.023
-90.757	338.149	0.111	0.212
-89.743	-86.054	-0.465	-0.140
-88.728	-7.382	0.199	0.132
-87.713	-88.484	0.098	-0.028
-86.699	2.760	0.051	0.036
-85.684	-49.173	0.264	-0.123
-84.670	8.505	0.081	0.059
-83.655	-58.943	0.304	0.128
-82.640	344.399	-0.105	0.201
-81.626	-170.358	0.109	-0.004
-80.611	-19.015	-0.162	0.098
-79.597	800.000	0.054	-0.228
-78.582	-200.000	-0.012	-0.274
-77.567	-42.948	-0.422	0.209
-76.553	161.307	0.249	0.340
-75.538	390.039	-0.151	-0.305
-74.524	159.825	-0.102	0.139
-73.509	-200.000	-0.039	0.278
-72.494	-68.648	-0.301	0.114
-71.480	-200.000	0.029	-0.228
-70.465	58.799	-0.060	-0.058
-69.451	-99.733	-0.208	0.051
-68.436	-23.267	-0.066	-0.039
-67.422	535.394	-0.159	-0.367
-66.407	-129.514	-0.241	-0.033
-65.392	-116.961	0.459	-0.082
-64.378	133.555	0.227	0.286
-63.363	-86.326	0.394	-0.118
-62.349	-29.382	0.096	0.054
-61.334	56.431	-1.185	-1.123
-60.319	-52.778	0.880	0.395
-59.305	355.595	-0.863	-1.674
-58.290	226.239	0.820	1.297
-57.276	800.000	0.383	1.449
-56.261	-200.000	122.663	615.364
-55.246	387.131	1570.399	3161.779
-54.232	140.752	2745.000	3533.158
-53.217	93.069	2204.536	2427.321
-52.203	34.044	1716.574	1456.758
-51.188	26.423	1531.958	1247.696
-50.173	24.318	1508.199	1213.985
-49.159	46.910	1579.080	1429.812
-48.144	44.693	1591.816	1425.782
-47.130	26.386	1540.917	1254.537
-46.115	23.517	1524.563	1221.443
-45.100	23.322	1521.487	1217.595
-44.086	23.398	1519.459	1216.442
-43.071	23.256	1517.936	1214.199
-42.057	23.343	1515.974	1213.182
-41.042	23.335	1514.369	1211.795
-40.027	23.293	1512.980	1210.348
-39.013	23.250	1511.618	1208.918
-37.998	23.225	1510.776	1208.025
-36.984	23.310	1509.017	1207.147
-35.969	23.273	1507.704	1205.800
-34.954	23.312	1506.115	1204.742
-33.940	23.238	1505.268	1203.513
-32.925	23.297	1503.793	1202.691
-31.911	23.386	1502.284	1202.041
-30.896	23.359	1501.024	1200.797
-29.881	23.425	1499.708	1200.143
-28.867	23.367	1498.389	1198.651
-27.852	23.316	1497.244	1197.345
-26.838	23.315	1495.843	1196.166
-25.823	23.348	1494.100	1194.948
-24.809	23.210	1492.861	1192.978
-23.794	23.279	1491.100	1191.993
-22.779	23.285	1489.643	1190.817
-21.765	23.330	1488.970	1190.539
-20.750	23.343	1487.622	1189.500
-19.736	23.274	1486.750	1188.292
-18.721	23.337	1485.457	1187.635
-17.706	23.294	1484.929	1186.876
-16.692	23.253	1483.514	1185.421
-15.677	23.286	1482.433	1184.733
-14.663	23.248	1481.645	1183.803
-13.648	23.289	1480.514	1183.123
-12.633	23.159	1479.877	1181.702
-11.619	23.326	1478.602	1181.753
-10.604	23.235	1478.097	1180.690
-9.590	23.267	1477.012	1179.992
-8.575	23.313	1475.694	1179.200
-7.560	23.210	1474.845	1177.785
-6.546	23.177	1474.293	1177.079
-5.531	23.247	1473.060	1176.513
-4.517	23.242	1472.094	1175.665
-3.502	23.283	1471.385	1175.322
-2.487	23.282	1470.142	1174.277
-1.473	23.283	1469.667	1173.856
-0.458	23.282	1467.886	1172.383
0.556	22.173	1458.657	1162.935
1.571	19.430	1435.347	1126.367
2.586	16.448	1372.637	1058.411
3.600	15.005	1288.351	984.847
4.615	14.067	1244.677	946.043
5.629	12.293	1187.652	892.980
6.644	6.329	1104.851	800.397
7.659	1.315	1068.400	749.220
8.673	0.670	1062.625	741.942
9.688	0.621	1059.598	739.521
10.702	0.675	1058.440	738.912
11.717	0.614	1055.957	736.815
12.731	2.605	1056.943	747.152
13.746	8.824	1065.422	783.570
14.761	14.611	1073.283	817.715
15.775	16.923	1075.470	830.647
16.790	16.862	1074.383	829.435
17.804	15.750	1073.242	823.045
18.819	15.016	1070.378	817.189
19.834	14.470	1069.616	813.873
20.848	14.231	1068.656	811.902
21.863	13.969	1067.269	809.503
22.877	13.788	1066.136	807.690
23.892	13.537	1065.521	805.932
24.907	13.478	1065.122	805.272
25.921	13.428	1064.393	804.407
26.936	13.482	1063.563	803.970
27.950	13.562	1062.962	803.834
28.965	13.684	1062.134	803.726
29.980	13.559	1061.638	802.675
30.994	13.732	1059.763	802.024
32.009	13.742	1059.267	801.623
33.023	13.713	1058.951	801.175
34.038	13.818	1057.927	800.835
35.053	13.668	1057.341	799.595
36.067	13.503	1056.843	798.352
37.082	13.581	1055.350	797.532
38.096	13.635	1054.356	796.967
39.111	13.700	1053.606	796.642
40.126	13.535	1053.160	795.445
41.140	13.595	1051.736	794.586
42.155	13.613	1050.935	793.998
43.169	13.468	1050.178	792.658
44.184	13.484	1048.930	791.722
45.199	13.498	1047.938	790.972
46.213	13.425	1046.715	789.633
47.228	13.543	1045.655	789.323
48.242	13.601	1044.864	788.934
49.257	13.655	1043.849	788.354
50.271	13.640	1042.749	787.381
51.286	13.560	1042.166	786.491
52.301	13.634	1041.178	786.028
53.315	13.597	1040.323	785.136
54.330	13.614	1039.401	784.454
55.344	13.604	1038.772	783.864
56.359	13.605	1037.396	782.758
57.374	13.595	1036.409	781.897
58.388	13.524	1035.519	780.822
59.403	13.403	1035.575	780.227
60.417	13.462	1034.145	779.355
61.432	13.460	1033.545	778.828
62.447	13.447	1032.454	777.875
63.461	13.418	1031.931	777.277
64.476	13.531	1030.844	776.915
65.490	13.399	1030.100	775.670
66.505	13.466	1029.319	775.327
67.520	13.508	1028.233	774.637
68.534	13.437	1028.018	774.071
69.549	13.469	1026.806	773.244
70.563	13.517	1026.142	772.895
71.578	13.479	1025.646	772.280
72.593	13.545	1024.408	771.586
73.607	13.358	1023.860	770.232
74.622	13.483	1022.459	769.694
75.636	13.458	1021.701	768.938
76.651	13.362	1021.351	768.159
77.666	13.444	1019.805	767.308
78.680	13.472	1019.370	767.044
79.695	13.412	1019.155	766.535
80.709	13.441	1018.822	766.351
81.724	13.480	1017.552	765.511
82.739	13.542	1016.751	765.124
83.753	13.553	1016.287	764.761
84.768	13.488	1015.363	763.698
85.782	13.642	1014.822	763.935
86.797	13.655	1013.845	763.191
87.812	13.658	1012.976	762.482
88.826	13.652	1012.151	761.765
89.841	13.624	1011.403	761.009
90.855	13.680	1010.525	760.538
91.870	13.613	1010.256	759.958
92.884	13.767	1008.752	759.466
93.899	13.683	1008.287	758.664
94.914	13.781	1006.907	758.003
95.928	13.724	1006.860	757.644
96.943	13.709	1006.066	756.909
97.957	13.740	1005.020	756.199
98.972	13.575	1004.625	755.083
99.987	13.606	1003.735	754.487
101.001	13.627	1003.107	754.044
102.016	13.689	1002.025	753.444
103.030	13.767	1000.725	752.754
104.045	13.610	1000.489	751.799
105.060	13.716	999.015	751.107
106.074	13.770	998.038	750.549
107.089	13.641	997.576	749.550
108.103	13.733	996.472	749.072
109.118	13.541	995.833	747.658
110.133	13.536	995.321	747.182
111.147	13.483	994.321	746.129
112.162	13.565	993.045	745.472
113.176	13.526	992.756	745.013
114.191	13.522	991.560	744.034
115.206	13.787	990.527	744.383
116.220	13.523	989.889	742.654
117.235	13.584	989.091	742.262
118.249	13.626	988.232	741.740
119.264	13.618	987.195	740.862
120.279	13.541	986.343	739.813
121.293	13.549	985.412	739.084
122.308	13.624	984.978	739.029
123.322	13.530	983.897	737.733
124.337	13.492	983.261	737.022
125.352	13.627	981.530	736.259
126.366	13.640	980.255	735.293
127.381	13.589	979.369	734.340
128.395	13.532	978.498	733.369
129.410	13.623	977.400	732.884
130.424	13.648	976.118	731.965
131.439	13.444	975.863	730.809
132.454	13.640	974.831	730.836
133.468	13.689	974.273	730.569
134.483	13.745	973.722	730.337
135.497	13.697	972.500	729.147
136.512	13.641	971.616	728.176
137.527	13.647	971.059	727.719
138.541	13.629	970.168	726.906
139.556	13.603	969.469	726.205
140.570	13.526	968.991	725.446
141.585	13.665	968.049	725.283
142.600	13.742	967.388	725.059
143.614	13.757	966.282	724.233
144.629	13.880	965.788	724.334
145.643	13.905	964.769	723.614
146.658	13.751	964.399	722.602
147.673	13.913	963.299	722.420
148.687	13.759	962.474	721.068
149.702	13.695	961.880	720.281
150.716	13.635	961.054	719.339
151.731	13.674	959.776	718.487
152.746	13.741	959.045	718.166
153.760	13.768	958.487	717.801
154.775	13.881	957.432	717.438
155.789	13.803	956.831	716.586
156.804	13.702	956.255	715.658
157.819	13.803	955.215	715.250
158.833	13.861	954.594	714.971
159.848	13.908	953.852	714.553
160.862	13.922	953.064	713.960
161.877	13.895	952.317	713.224
162.892	13.808	951.632	712.274
163.906	13.781	950.567	711.298
164.921	13.933	949.760	711.283
165.935	13.886	948.927	710.393
166.950	13.784	948.167	709.326
167.964	13.925	946.941	708.948
168.979	13.983	945.920	708.367
169.994	13.978	945.164	707.716
171.008	13.899	944.158	706.566
172.023	14.025	943.368	706.448
173.037	13.989	942.914	705.890
174.052	14.126	942.063	705.776
175.067	13.894	941.629	704.404
176.081	14.031	939.866	703.600
177.096	14.114	939.706	703.770
178.110	13.994	938.779	702.508
179.125	14.019	938.112	702.051
180.140	14.107	937.113	701.612
181.154	13.993	936.955	700.952
182.169	14.154	936.012	700.863
183.183	14.045	935.310	699.817
184.198	14.189	934.129	699.475
185.213	14.212	933.883	699.327
186.227	14.265	932.987	698.814
187.242	14.212	932.794	698.386
188.256	14.260	932.007	697.939
189.271	14.311	930.956	697.301
190.286	14.258	930.794	696.899
191.300	14.186	929.394	695.488
192.315	14.161	928.435	694.605
193.329	14.011	928.602	694.040
194.344	14.155	927.611	693.838
195.359	14.121	926.885	693.094
196.373	14.299	926.535	693.509
197.388	14.393	926.084	693.503
198.402	14.283	925.615	692.631
199.417	14.420	924.583	692.369
200.432	14.363	924.347	691.892
201.446	14.375	924.291	691.839
202.461	14.413	923.861	691.614
203.475	14.411	923.228	691.070
204.490	14.463	922.414	690.618
205.504	14.318	921.927	689.589
206.519	14.419	920.754	689.072
207.534	14.524	919.757	688.697
208.548	14.460	919.542	688.212
209.563	14.467	918.562	687.447
210.577	14.410	918.177	686.859
211.592	14.439	917.693	686.559
212.607	14.692	916.686	686.784
213.621	14.566	916.628	686.163
214.636	14.663	915.372	685.560
215.650	14.505	915.137	684.676
216.665	14.652	914.223	684.535
217.680	14.598	913.787	683.924
218.694	14.672	913.167	683.705
219.709	14.586	913.162	683.284
220.723	14.854	911.446	683.037
221.738	14.786	911.069	682.416
222.753	14.652	910.636	681.485
223.767	14.717	909.888	681.128
224.782	14.697	908.803	680.177
225.796	14.740	908.415	679.999
226.811	14.709	907.671	679.258
227.826	14.632	906.883	678.295
228.840	14.836	905.963	678.375
229.855	14.691	905.869	677.656
230.869	14.607	905.364	676.876
231.884	14.712	904.528	676.618
232.899	14.705	903.934	676.086
233.913	14.743	902.773	675.312
234.928	14.775	901.959	674.770
235.942	14.852	901.359	674.573
236.957	14.833	900.516	673.805
237.972	14.789	900.350	673.446
238.986	14.824	899.403	672.819
240.001	14.909	898.862	672.694
241.015	14.778	898.287	671.681
242.030	14.833	897.456	671.219
243.045	14.856	896.999	670.910
244.059	15.048	896.250	671.059
245.074	14.948	895.573	670.094
246.088	14.994	894.893	669.711
247.103	14.941	894.523	669.160
248.117	15.032	893.612	668.783
249.132	15.051	893.197	668.489
250.147	15.047	892.881	668.178
251.161	15.086	891.735	667.417
252.176	15.113	891.513	667.302
253.190	15.153	890.400	666.566
254.205	15.207	890.124	666.518
255.220	15.223	889.396	665.976
256.234	15.334	888.321	665.551
257.249	15.337	887.779	665.101
258.263	15.198	887.685	664.420
259.278	15.202	887.407	664.167
260.293	15.211	886.694	663.612
261.307	15.392	885.881	663.661
262.322	15.357	885.429	663.125
263.336	15.499	884.712	663.091
264.351	15.453	883.850	662.203
265.366	15.452	883.340	661.760
266.380	15.491	882.488	661.213
267.395	15.544	881.907	660.930
268.409	15.592	881.251	660.568
269.424	15.390	880.703	659.304
270.439	15.444	880.268	659.134
271.453	15.484	879.492	658.653
272.468	15.527	878.334	657.894
273.482	15.618	877.652	657.680
274.497	15.406	877.745	656.863
275.512	15.519	876.638	656.419
276.526	15.404	876.036	655.460
277.541	15.567	875.146	655.372
278.555	15.633	874.939	655.418
279.570	15.679	874.004	654.836
280.585	15.505	873.836	653.977
281.599	15.669	873.016	653.944
282.614	15.648	872.401	653.341
283.628	15.647	871.621	652.695
284.643	15.669	870.797	652.106
285.657	15.866	870.048	652.252
286.672	15.674	870.468	651.764
287.687	15.827	869.227	651.370
288.701	15.647	869.127	650.540
289.716	15.771	868.395	650.416
290.730	15.843	867.928	650.286
291.745	15.759	867.478	649.568
292.760	15.869	866.400	649.127
293.774	15.938	865.301	648.512
294.789	15.917	865.087	648.214
295.803	16.056	864.169	648.004
296.818	15.904	864.202	647.387
297.833	15.920	863.217	646.652
298.847	15.908	862.762	646.207
299.862	15.972	862.010	645.832
300.876	15.941	861.388	645.191
301.891	15.977	860.651	644.718
302.906	16.037	860.180	644.538
303.920	15.999	859.315	643.689
304.935	16.079	858.602	643.404
305.949	16.143	857.946	643.099
306.964	16.143	857.396	642.629
307.979	16.152	856.617	642.021
308.993	16.083	856.635	641.717
310.008	16.111	855.642	641.021
311.022	16.109	855.669	640.979
312.037	16.234	854.929	640.842
313.052	16.268	854.320	640.458
314.066	16.170	853.597	639.489
315.081	16.186	853.120	639.136
316.095	16.220	852.557	638.786
317.110	16.185	851.993	638.173
318.125	16.279	851.216	637.891
319.139	16.113	851.099	637.116
320.154	16.174	850.325	636.713
321.168	16.219	849.995	636.578
322.183	16.342	849.275	636.448
323.197	16.239	848.962	635.768
324.212	16.234	848.477	635.332
325.227	16.210	847.603	634.528
326.241	16.329	846.961	634.438
327.256	16.233	846.721	633.843
328.270	16.261	845.963	633.324
329.285	16.316	845.247	632.939
330.300	16.370	844.980	632.885
331.314	16.432	844.182	632.463
332.329	16.338	843.273	631.374
333.343	16.449	842.642	631.263
334.358	16.427	842.315	630.879
335.373	16.352	842.163	630.428
336.387	16.506	841.330	630.325
337.402	16.608	840.632	630.125
338.416	16.446	840.127	629.088
339.431	16.483	839.863	628.971
340.446	16.503	839.172	628.473
341.460	16.617	838.686	628.478
342.475	16.546	837.749	627.455
343.489	16.696	837.194	627.542
344.504	16.739	836.797	627.346
345.519	16.727	836.302	626.877
346.533	16.682	835.697	626.202
347.548	16.695	835.578	626.105
348.562	16.680	834.938	625.514
349.577	16.699	834.065	624.875
350.592	16.671	833.892	624.587
351.606	16.669	833.588	624.296
352.621	16.614	833.337	623.850
353.635	16.799	832.046	623.507
354.650	16.864	831.675	623.416
355.665	16.656	831.839	622.717
356.679	16.807	831.288	622.807
357.694	16.861	830.375	622.266
358.708	16.772	829.918	621.540
359.723	16.837	829.421	621.349
360.738	16.892	828.494	620.803
361.752	16.909	828.274	620.644
362.767	16.774	827.860	619.787
363.781	16.850	827.467	619.714
364.796	17.091	826.898	620.113
365.810	17.066	826.360	619.565
366.825	17.133	826.007	619.490
367.840	17.220	825.906	619.676
368.854	17.137	825.209	618.798
369.869	17.060	825.247	618.491
370.883	16.816	824.738	617.165
371.898	17.077	823.947	617.467
372.913	17.087	823.118	616.827
373.927	17.001	822.828	616.245
374.942	17.037	821.671	615.452
375.956	17.172	821.070	615.440
376.971	17.103	820.686	614.846
377.986	17.296	820.070	615.030
379.000	17.287	819.391	614.432
380.015	17.266	819.492	614.377
381.029	17.253	818.758	613.725
382.044	17.239	818.696	613.575
383.059	17.372	817.467	613.078
384.073	17.394	817.016	612.767
385.088	17.458	816.279	612.387
386.102	17.276	816.230	611.645
387.117	17.388	815.198	611.217
388.132	17.223	814.799	610.272
389.146	17.216	814.895	610.266
390.161	17.401	814.273	610.409
391.175	17.434	813.905	610.197
392.190	17.443	813.597	609.944
393.205	17.357	813.216	609.298
394.219	17.500	812.404	609.148
395.234	17.356	811.878	608.183
396.248	17.415	811.250	607.871
397.263	17.368	811.259	607.655
398.278	17.524	810.370	607.493
399.292	17.489	809.917	606.972
400.307	17.370	809.939	606.513
401.321	17.398	809.242	606.036
402.336	17.549	808.897	606.262
403.350	17.360	808.642	605.344
404.365	17.403	808.299	605.188
405.380	17.626	807.235	605.129
406.394	17.611	806.852	604.734
407.409	17.639	806.801	604.743
408.423	17.512	806.456	603.981
409.438	17.617	805.395	603.504
410.453	17.823	805.311	604.116
411.467	17.740	804.632	603.262
412.482	17.702	804.588	603.039
413.496	17.674	804.243	602.630
414.511	17.833	803.381	602.490
415.526	17.793	803.128	602.108
416.540	17.833	802.928	602.045
417.555	17.753	802.504	601.392
418.569	17.868	801.694	601.135
419.584	17.842	801.257	600.663
420.599	17.939	800.887	600.674
421.613	114.178	1297.497	1486.239
422.628	98.482	1369.839	1486.325
