DTS Sentinel unit serial number:	SN413079Multiplexer serial number:	ORYXHardware model number:	OX4-SRSoftware version number:	ORYX F/W v4.00 Oryx Data Collector v3.7.2.0data status	okinstallation	princeton_trtdifferential loss correction	single-endedforward channel	channel 3reverse channel	N/Adate	2019/09/17time	19:48:35forward acquisition time	60.00reverse acquisition time	0.00gamma	496.2192k internal	0.2318k external	0.2318temperature offset calibration	0.9954default loss term (dB/km)	0.3790temperature slope calibration	1.0000multiplexer offset coefficient	1.0000multiplexer slope coefficient	1.0000fibre end	0.00T internal ref (°C)	34.52T ext. ref 1 (°C)	0.24T ext. ref 2 (°C)	23.88length (m)	temperature (°C)	Stokes	anti-Stokes-747.200	-12.357	0.190	0.126
-746.185	-39.668	0.233	0.123
-745.171	-32.387	-0.146	-0.082
-744.156	-57.522	-0.198	0.088
-743.142	22.334	0.059	-0.049
-742.127	-74.596	0.267	0.097
-741.112	-32.858	0.107	0.060
-740.098	-200.000	-0.027	0.299
-739.083	800.000	-0.077	0.267
-738.069	-200.000	0.014	0.102
-737.054	-152.091	-0.160	0.012
-736.039	315.048	-0.122	-0.233
-735.025	800.000	-0.057	0.238
-734.010	53.398	-0.084	-0.082
-732.996	-199.382	-0.361	-0.002
-731.981	-122.780	-0.129	0.021
-730.966	420.039	-0.078	-0.170
-729.952	800.000	-0.070	-0.236
-728.937	800.000	-0.199	-0.597
-727.923	408.291	0.100	-0.213
-726.908	-114.692	-0.437	0.085
-725.894	108.855	0.203	0.246
-724.879	-200.000	-0.018	-0.110
-723.864	71.934	0.220	0.232
-722.850	800.000	-0.066	-0.196
-721.835	153.953	-0.076	-0.105
-720.821	186.322	0.133	0.200
-719.806	-200.000	0.036	-0.326
-718.791	128.046	-0.197	-0.254
-717.777	116.473	-0.125	0.155
-716.762	388.880	-0.146	-0.305
-715.748	61.039	0.304	-0.305
-714.733	22.587	-0.169	-0.140
-713.718	540.686	-0.087	-0.210
-712.704	-200.000	0.078	0.447
-711.689	-22.348	-0.184	-0.113
-710.675	-140.929	0.219	0.023
-709.660	723.142	-0.088	-0.237
-708.645	-106.055	0.133	-0.030
-707.631	93.128	-0.074	-0.084
-706.616	400.706	0.067	-0.141
-705.602	568.467	-0.038	-0.094
-704.587	279.175	-0.102	-0.184
-703.572	130.084	0.083	-0.107
-702.558	42.447	-0.300	0.276
-701.543	67.985	0.296	-0.306
-700.529	-160.444	0.151	0.008
-699.514	-117.311	0.213	-0.039
-698.499	800.000	-0.045	-0.140
-697.485	-124.403	0.209	0.033
-696.470	117.819	0.249	-0.309
-695.456	-200.000	0.011	0.295
-694.441	68.100	-0.236	-0.244
-693.426	47.855	0.196	-0.185
-692.412	-109.368	0.180	0.039
-691.397	35.964	0.215	0.191
-690.383	367.486	-0.123	-0.251
-689.368	-168.693	0.281	0.011
-688.354	68.824	-0.302	-0.313
-687.339	-133.366	0.314	-0.040
-686.324	-200.000	-0.029	-0.234
-685.310	-200.000	0.035	0.164
-684.295	-56.383	0.124	-0.056
-683.281	172.670	0.249	-0.363
-682.266	-37.705	0.118	-0.064
-681.251	619.809	-0.030	-0.075
-680.237	-78.363	0.277	0.096
-679.222	-200.000	-0.038	0.238
-678.208	-160.775	0.258	0.014
-677.193	242.960	0.003	-0.005
-676.178	-200.000	0.023	-0.322
-675.164	-34.896	-0.241	-0.133
-674.149	-75.108	-0.238	-0.086
-673.135	-200.000	0.017	0.091
-672.120	67.225	0.153	-0.157
-671.105	-79.470	-0.272	0.093
-670.091	-24.921	-0.082	0.049
-669.076	-52.986	-0.319	-0.148
-668.062	42.333	0.100	0.092
-667.047	-200.000	0.039	0.237
-666.032	-113.078	-0.191	-0.038
-665.018	-111.264	-0.090	0.019
-664.003	112.730	-0.248	-0.303
-662.989	-200.000	0.003	-0.153
-661.974	-91.909	0.183	-0.052
-660.959	800.000	0.062	-0.222
-659.945	-200.000	0.003	-0.057
-658.930	-158.797	0.202	0.012
-657.916	-50.792	0.122	-0.058
-656.901	184.011	-0.221	-0.329
-655.886	-200.000	-0.026	-0.167
-654.872	182.363	-0.083	0.123
-653.857	-135.109	-0.162	0.020
-652.843	143.262	0.124	0.167
-651.828	-104.719	0.256	-0.060
-650.814	69.008	0.074	0.077
-649.799	800.000	-0.100	0.370
-648.784	-27.102	-0.410	-0.241
-647.770	-200.000	-0.022	-0.164
-646.755	-78.147	0.188	-0.065
-645.741	-67.238	0.198	-0.079
-644.726	-92.535	-0.080	0.023
-643.711	-87.235	-0.177	0.054
-642.697	5.828	0.216	0.161
-641.682	-200.000	0.019	0.136
-640.668	-55.983	-0.033	-0.015
-639.653	-2.627	-0.196	0.138
-638.638	14.564	0.143	-0.112
-637.624	77.253	-0.122	-0.131
-636.609	-71.193	0.065	-0.025
-635.595	-75.515	0.334	0.120
-634.580	-200.000	-0.030	0.332
-633.565	177.126	0.087	0.127
-632.551	-200.000	0.002	-0.100
-631.536	-154.372	0.145	-0.010
-630.522	-199.954	-0.103	0.001
-629.507	-200.000	0.011	-0.270
-628.492	-16.131	0.033	0.021
-627.478	-146.130	0.077	0.007
-626.463	174.375	-0.105	0.153
-625.449	115.988	-0.116	-0.143
-624.434	9.133	0.199	-0.151
-623.419	25.699	-0.190	0.159
-622.405	524.393	0.160	0.380
-621.390	-166.095	0.174	0.007
-620.376	253.445	-0.172	0.295
-619.361	86.832	-0.086	0.096
-618.346	31.011	0.208	0.180
-617.332	-76.681	-0.414	-0.146
-616.317	188.902	-0.071	-0.108
-615.303	63.250	0.081	0.082
-614.288	407.181	0.207	-0.440
-613.273	-109.762	0.250	0.053
-612.259	-172.953	-0.112	0.003
-611.244	665.470	-0.043	-0.111
-610.230	-166.050	0.420	0.018
-609.215	-200.000	-0.001	0.158
-608.201	18.971	0.168	0.135
-607.186	-95.950	0.231	-0.062
-606.171	137.208	-0.168	-0.221
-605.157	24.014	0.104	0.086
-604.142	113.974	0.046	0.056
-603.128	-15.269	-0.158	0.102
-602.113	327.389	-0.063	-0.122
-601.098	800.000	-0.057	-0.209
-600.084	107.475	0.111	0.132
-599.069	33.620	-0.129	0.113
-598.055	-28.455	0.244	-0.141
-597.040	-26.444	0.190	-0.112
-596.025	-50.557	-0.097	-0.046
-595.011	33.542	-0.219	-0.191
-593.996	-122.291	0.187	0.031
-592.982	-66.129	0.410	-0.164
-591.967	-200.000	0.008	0.051
-590.952	-200.000	0.010	-0.108
-589.938	-200.000	-0.001	-0.114
-588.923	-200.000	0.015	-0.282
-587.909	-56.098	-0.217	-0.097
-586.894	168.485	0.128	0.183
-585.879	-200.000	-0.016	0.090
-584.865	74.107	0.304	0.321
-583.850	244.673	-0.217	-0.367
-582.836	378.831	-0.157	-0.323
-581.821	781.738	-0.018	0.050
-580.806	-200.000	-0.021	0.330
-579.792	-124.700	0.223	0.035
-578.777	487.459	-0.047	0.109
-577.763	442.351	-0.102	-0.225
-576.748	586.553	0.109	-0.271
-575.733	800.000	0.063	-0.190
-574.719	-200.000	0.069	0.398
-573.704	-200.000	0.031	0.215
-572.690	403.190	0.147	-0.311
-571.675	-56.566	0.131	0.059
-570.661	-200.000	0.015	-0.083
-569.646	12.895	-0.163	-0.127
-568.631	296.605	-0.059	0.108
-567.617	-29.070	0.125	-0.072
-566.602	-3.563	-0.237	-0.166
-565.588	-200.000	-0.026	-0.120
-564.573	-183.987	-0.282	0.005
-563.558	-119.938	-0.191	0.033
-562.544	-115.292	0.169	-0.032
-561.529	-115.691	-0.249	-0.047
-560.515	-127.361	-0.230	0.034
-559.500	-78.469	0.138	-0.047
-558.485	-200.000	-0.016	-0.071
-557.471	-200.000	0.002	0.101
-556.456	126.262	-0.118	-0.150
-555.442	-94.069	-0.416	-0.115
-554.427	369.785	-0.026	0.053
-553.412	-200.000	0.038	-0.180
-552.398	205.713	0.163	0.255
-551.383	-200.000	0.054	0.439
-550.369	-105.911	0.292	-0.066
-549.354	-200.000	0.035	-0.263
-548.339	800.000	-0.120	0.397
-547.325	800.000	-0.022	0.072
-546.310	236.073	0.041	-0.068
-545.296	-166.566	0.456	0.019
-544.281	228.934	-0.037	-0.060
-543.266	-129.278	-0.105	-0.015
-542.252	-26.115	-0.231	0.136
-541.237	-200.000	-0.004	0.165
-540.223	800.000	0.062	-0.223
-539.208	178.740	0.037	-0.054
-538.193	-20.340	-0.043	0.027
-537.179	800.000	0.051	-0.175
-536.164	50.117	0.258	-0.245
-535.150	-200.000	0.036	0.232
-534.135	-200.000	-0.010	-0.290
-533.121	-200.000	0.013	-0.183
-532.106	800.000	-0.062	-0.205
-531.091	-25.812	0.274	0.162
-530.077	-200.000	-0.022	0.281
-529.062	276.667	-0.071	0.127
-528.048	-200.000	0.016	0.072
-527.033	37.773	-0.213	0.190
-526.018	-44.676	-0.195	-0.098
-525.004	-77.050	0.121	-0.043
-523.989	-145.570	0.480	-0.043
-522.975	-107.714	-0.295	0.065
-521.960	10.684	-0.276	-0.212
-520.945	-200.000	-0.038	0.274
-519.931	-51.751	-0.109	0.051
-518.916	-87.392	0.329	0.100
-517.902	-124.164	0.229	0.036
-516.887	800.000	-0.034	0.100
-515.872	16.485	0.161	0.127
-514.858	-53.615	-0.157	0.072
-513.843	197.114	-0.104	0.159
-512.829	-118.022	0.188	0.034
-511.814	382.590	0.036	0.075
-510.799	-111.633	-0.269	-0.055
-509.785	269.454	0.017	-0.031
-508.770	27.191	-0.083	0.070
-507.756	-151.585	0.148	0.011
-506.741	-26.705	0.072	-0.043
-505.726	380.764	0.065	-0.134
-504.712	-130.852	0.532	-0.071
-503.697	95.507	0.035	-0.040
-502.683	-200.000	0.080	-0.371
-501.668	800.000	-0.044	-0.193
-500.653	-132.384	0.100	0.013
-499.639	581.560	-0.097	0.238
-498.624	-43.793	0.197	0.099
-497.610	-17.150	0.172	-0.109
-496.595	-115.555	-0.139	0.026
-495.581	-34.347	-0.253	-0.139
-494.566	-38.228	-0.246	-0.131
-493.551	-129.120	-0.134	0.019
-492.537	-145.646	-0.221	0.020
-491.522	38.229	0.190	0.169
-490.508	103.837	-0.165	0.194
-489.493	266.205	-0.117	0.204
-488.478	53.677	0.105	-0.101
-487.464	-169.090	-0.294	-0.011
-486.449	91.281	0.161	0.181
-485.435	800.000	0.046	0.193
-484.420	136.967	0.114	-0.150
-483.405	-135.494	-0.213	-0.025
-482.391	-200.000	0.007	0.089
-481.376	-152.552	-0.162	0.012
-480.362	216.298	-0.076	0.120
-479.347	-200.000	0.040	0.197
-478.332	71.988	0.113	0.118
-477.318	-25.008	0.158	0.094
-476.303	93.334	-0.135	-0.153
-475.289	49.796	0.207	-0.195
-474.274	97.219	-0.173	0.199
-473.259	800.000	0.012	-0.035
-472.245	-168.088	-0.188	-0.007
-471.230	800.000	-0.075	-0.237
-470.216	130.028	0.157	0.202
-469.201	201.524	-0.079	-0.121
-468.186	-200.000	0.046	-0.204
-467.172	319.918	0.123	0.234
-466.157	163.282	-0.122	0.172
-465.143	-54.921	0.191	0.086
-464.128	800.000	0.024	0.091
-463.113	-115.775	0.128	0.024
-462.099	420.112	0.029	0.061
-461.084	-133.422	-0.308	-0.039
-460.070	-102.781	0.318	0.076
-459.055	243.111	0.080	-0.135
-458.040	104.914	0.241	-0.285
-457.026	-200.000	0.035	0.158
-456.011	-130.306	0.363	-0.049
-454.997	-34.691	-0.266	0.145
-453.982	-133.278	-0.336	0.042
-452.968	-48.035	0.133	-0.064
-451.953	667.509	0.120	-0.309
-450.938	-120.835	0.170	-0.029
-449.924	-105.858	0.321	-0.072
-448.909	-200.000	0.011	0.187
-447.895	529.053	0.096	-0.228
-446.880	-35.769	-0.391	-0.212
-445.865	-200.000	0.020	0.224
-444.851	551.885	0.123	0.296
-443.836	89.257	0.171	-0.191
-442.822	189.302	-0.072	-0.108
-441.807	-139.086	-0.080	0.009
-440.792	73.051	-0.181	0.189
-439.778	368.228	-0.085	-0.172
-438.763	-31.700	-0.074	-0.041
-437.749	-37.623	0.220	-0.117
-436.734	255.529	-0.061	0.104
-435.719	43.590	-0.181	0.165
-434.705	-66.555	-0.213	0.085
-433.690	-30.221	-0.284	0.161
-432.676	-156.242	-0.140	0.009
-431.661	184.564	-0.248	0.368
-430.646	-200.000	0.004	0.109
-429.632	-200.000	-0.020	0.205
-428.617	-72.861	-0.050	-0.018
-427.603	800.000	-0.063	0.274
-426.588	-200.000	0.033	-0.167
-425.573	-200.000	-0.011	0.115
-424.559	-12.818	-0.159	-0.104
-423.544	-66.841	-0.308	0.122
-422.530	-109.322	0.051	0.011
-421.515	126.819	0.011	0.014
-420.500	631.641	-0.085	-0.215
-419.486	59.570	-0.154	0.151
-418.471	-200.000	-0.035	0.186
-417.457	-200.000	-0.018	0.155
-416.442	100.721	-0.233	-0.271
-415.428	-75.632	-0.206	0.073
-414.413	141.276	-0.255	-0.337
-413.398	800.000	0.106	-0.445
-412.384	-63.766	-0.198	-0.081
-411.369	-93.543	0.077	0.021
-410.355	-118.064	-0.313	0.056
-409.340	800.000	-0.088	0.264
-408.325	94.767	0.306	0.347
-407.311	386.353	0.025	0.052
-406.296	800.000	0.069	-0.235
-405.282	-99.472	-0.261	0.066
-404.267	-125.285	-0.198	0.030
-403.252	20.490	0.217	-0.176
-402.238	-133.654	-0.300	0.037
-401.223	-103.831	-0.248	-0.058
-400.209	-105.146	-0.234	0.053
-399.194	800.000	-0.047	0.155
-398.179	92.844	-0.080	-0.090
-397.165	457.741	0.045	-0.099
-396.150	-172.563	0.320	-0.010
-395.136	26.433	-0.191	-0.160
-394.121	74.716	-0.226	-0.237
-393.106	31.940	0.118	0.101
-392.092	-200.000	-0.029	-0.382
-391.077	800.000	-0.098	-0.423
-390.063	-190.098	0.241	0.003
-389.048	785.242	-0.125	0.343
-388.033	54.927	-0.225	-0.217
-387.019	154.878	0.143	0.196
-386.004	52.160	-0.177	-0.168
-384.990	-30.576	0.305	0.172
-383.975	-5.791	0.338	0.231
-382.960	-200.000	-0.004	-0.136
-381.946	-200.000	0.003	0.094
-380.931	-163.432	0.255	0.012
-379.917	25.763	-0.158	0.132
-378.902	-41.077	0.173	0.089
-377.888	96.695	-0.103	-0.118
-376.873	61.444	-0.114	0.113
-375.858	-26.800	-0.187	0.109
-374.844	-120.328	0.400	-0.068
-373.829	304.935	0.073	0.136
-372.815	-75.434	0.345	-0.123
-371.800	-13.860	-0.054	0.035
-370.785	73.429	0.135	0.141
-369.771	50.029	-0.182	-0.171
-368.756	-115.683	-0.071	-0.013
-367.742	-62.255	-0.337	0.140
-366.727	-100.497	0.096	0.024
-365.712	-161.745	0.468	0.024
-364.698	-200.000	-0.044	-0.356
-363.683	-200.000	0.041	-0.235
-362.669	9.471	0.106	-0.080
-361.654	-200.000	0.001	0.117
-360.639	800.000	-0.014	-0.040
-359.625	183.835	-0.124	-0.183
-358.610	-143.519	0.204	-0.019
-357.596	118.962	0.101	0.125
-356.581	216.281	-0.183	-0.289
-355.566	444.580	0.074	-0.163
-354.552	800.000	-0.029	-0.111
-353.537	27.651	-0.110	0.092
-352.523	353.324	-0.192	-0.380
-351.508	123.420	-0.156	0.195
-350.493	-200.000	0.014	0.191
-349.479	-95.112	-0.163	0.044
-348.464	-92.002	0.203	-0.057
-347.450	111.104	-0.276	0.331
-346.435	361.411	-0.155	-0.310
-345.420	46.666	0.302	-0.279
-344.406	72.412	-0.169	0.176
-343.391	-13.866	0.246	0.158
-342.377	629.879	-0.139	0.349
-341.362	-200.000	-0.030	0.280
-340.348	-18.408	0.200	-0.124
-339.333	-200.000	-0.009	-0.072
-338.318	-191.004	-0.179	0.002
-337.304	134.673	0.175	-0.227
-336.289	-35.157	-0.078	-0.042
-335.275	107.319	0.341	-0.404
-334.260	-30.170	-0.145	0.082
-333.245	-12.423	-0.123	0.080
-332.231	-180.768	0.465	-0.009
-331.216	-45.326	0.244	-0.121
-330.202	-74.972	-0.274	-0.098
-329.187	-200.000	0.008	-0.184
-328.172	437.785	0.155	-0.337
-327.158	-101.660	-0.297	-0.072
-326.143	-14.039	0.300	-0.193
-325.129	73.574	0.198	-0.206
-324.114	363.550	0.107	0.214
-323.099	95.936	-0.058	0.067
-322.085	537.435	0.042	0.099
-321.070	122.513	-0.275	0.342
-320.056	-200.000	0.021	-0.244
-319.041	80.365	-0.112	0.120
-318.026	-117.448	-0.211	0.038
-317.012	-161.205	0.132	0.007
-315.997	22.614	-0.279	-0.228
-314.983	423.295	0.029	0.062
-313.968	-180.268	0.110	-0.002
-312.953	20.879	0.220	-0.178
-311.939	189.716	0.032	0.048
-310.924	-200.000	0.051	0.392
-309.910	-34.871	0.106	-0.057
-308.895	-58.785	0.119	-0.051
-307.880	-200.000	0.026	-0.179
-306.866	-102.164	-0.079	0.019
-305.851	-52.139	-0.305	0.141
-304.837	-200.000	-0.015	-0.125
-303.822	-200.000	-0.043	-0.211
-302.807	-59.457	0.118	-0.050
-301.793	-92.586	-0.260	0.073
-300.778	239.888	0.144	-0.239
-299.764	-36.586	0.044	0.023
-298.749	-55.020	0.054	0.024
-297.735	-85.827	0.116	-0.036
-296.720	15.089	0.113	0.088
-295.705	518.415	0.077	0.179
-294.691	-120.694	-0.513	0.086
-293.676	228.051	-0.138	-0.224
-292.662	-109.708	0.438	0.092
-291.647	-5.290	-0.206	-0.141
-290.632	-200.000	-0.005	-0.150
-289.618	26.780	0.059	-0.049
-288.603	56.240	0.299	-0.289
-287.589	-200.000	0.005	-0.341
-286.574	-21.010	0.366	0.223
-285.559	79.466	-0.150	0.160
-284.545	67.353	-0.167	0.170
-283.530	11.745	0.130	0.099
-282.516	196.672	-0.305	0.461
-281.501	0.303	-0.154	0.109
-280.486	-166.877	0.371	0.015
-279.472	-62.300	-0.159	-0.066
-278.457	-118.772	-0.367	0.064
-277.443	-61.092	-0.367	0.154
-276.428	81.424	-0.046	0.049
-275.413	138.280	-0.049	-0.064
-274.399	-88.345	-0.234	0.069
-273.384	69.975	0.048	-0.049
-272.370	-53.052	-0.355	0.162
-271.355	-200.000	0.034	-0.240
-270.340	800.000	0.037	-0.106
-269.326	86.638	-0.127	-0.139
-268.311	-13.218	-0.090	-0.058
-267.297	-148.432	-0.296	-0.024
-266.282	-200.000	-0.038	-0.211
-265.267	84.765	-0.017	0.018
-264.253	800.000	0.081	0.280
-263.238	297.534	0.106	0.193
-262.224	-159.425	0.254	-0.014
-261.209	-43.881	-0.131	0.065
-260.195	-85.587	0.456	-0.141
-259.180	-200.000	0.017	0.253
-258.165	-119.796	0.158	0.027
-257.151	202.926	0.225	0.345
-256.136	-135.508	0.070	-0.008
-255.122	89.525	0.133	-0.147
-254.107	128.413	-0.275	0.348
-253.092	-200.000	0.058	0.347
-252.078	689.933	-0.074	-0.193
-251.063	-64.330	-0.105	-0.042
-250.049	800.000	0.102	-0.320
-249.034	150.774	0.071	-0.096
-248.019	800.000	-0.078	-0.285
-247.005	-113.739	0.275	0.053
-245.990	-97.366	0.216	0.056
-244.976	-56.799	-0.178	-0.078
-243.961	-53.230	-0.023	0.011
-242.946	-200.000	0.017	0.103
-241.932	162.591	-0.263	0.366
-240.917	-75.517	-0.260	0.092
-239.903	-196.869	0.295	-0.002
-238.888	52.809	-0.064	0.061
-237.873	119.266	-0.143	-0.176
-236.859	-200.000	-0.004	-0.063
-235.844	-90.511	-0.117	-0.034
-234.830	-145.912	-0.357	-0.031
-233.815	82.111	-0.175	0.189
-232.800	-100.028	-0.135	-0.033
-231.786	-96.189	0.281	0.074
-230.771	236.169	-0.128	-0.210
-229.757	36.235	-0.094	0.082
-228.742	-71.912	-0.177	0.065
-227.727	-89.831	-0.080	0.023
-226.713	68.366	0.065	-0.066
-225.698	198.504	0.150	0.227
-224.684	-40.411	0.158	0.081
-223.669	-170.549	0.280	0.010
-222.655	244.116	-0.091	-0.151
-221.640	304.714	-0.089	-0.163
-220.625	-111.267	-0.179	0.036
-219.611	800.000	0.055	-0.210
-218.596	304.958	0.141	-0.259
-217.582	-200.000	0.003	0.034
-216.567	-155.948	0.192	-0.012
-215.552	800.000	0.099	0.366
-214.538	800.000	-0.021	-0.071
-213.523	800.000	-0.047	-0.165
-212.509	-154.804	-0.103	0.007
-211.494	-200.000	0.013	0.331
-210.479	-54.715	0.271	-0.121
-209.465	-200.000	-0.000	-0.095
-208.450	-200.000	0.019	0.089
-207.436	34.762	-0.119	-0.103
-206.421	-149.985	-0.301	-0.023
-205.406	-200.000	0.056	-0.295
-204.392	79.593	-0.236	-0.251
-203.377	105.040	-0.003	-0.004
-202.363	-200.000	0.007	-0.087
-201.348	-97.009	0.204	0.053
-200.333	550.560	0.155	0.368
-199.319	64.125	-0.052	-0.052
-198.304	62.557	0.162	0.160
-197.290	763.298	-0.083	0.224
-196.275	-200.000	-0.004	0.180
-195.260	667.275	-0.066	-0.168
-194.246	-34.138	-0.141	-0.077
-193.231	-21.152	0.020	-0.012
-192.217	146.122	-0.174	0.231
-191.202	-21.707	0.352	0.212
-190.187	800.000	0.032	0.096
-189.173	402.829	-0.090	0.187
-188.158	628.622	0.080	0.200
-187.144	256.562	0.282	-0.479
-186.129	800.000	-0.039	-0.159
-185.114	-200.000	0.095	-0.417
-184.100	-200.000	0.072	0.317
-183.085	-73.694	-0.224	-0.081
-182.071	68.410	-0.059	0.060
-181.056	-120.858	0.269	0.045
-180.042	-99.349	-0.158	-0.040
-179.027	-110.077	0.422	-0.087
-178.012	135.886	-0.142	0.183
-176.998	-38.773	-0.138	0.072
-175.983	-35.276	-0.189	-0.102
-174.969	-31.065	0.182	-0.101
-173.954	-62.942	-0.153	-0.062
-172.939	-145.676	0.479	0.042
-171.925	-66.750	0.249	-0.098
-170.910	-200.000	-0.018	0.180
-169.896	734.103	-0.049	0.130
-168.881	160.214	0.126	0.174
-167.866	-92.734	0.329	-0.091
-166.852	-50.944	0.151	0.070
-165.837	138.179	-0.145	0.188
-164.823	43.639	-0.139	0.126
-163.808	800.000	0.027	0.097
-162.793	119.370	-0.194	-0.237
-161.779	413.269	0.141	-0.297
-160.764	178.595	-0.080	-0.116
-159.750	-200.000	-0.010	-0.241
-158.735	116.773	-0.162	0.196
-157.720	-66.370	0.415	-0.163
-156.706	-200.000	-0.002	0.087
-155.691	-151.734	-0.130	0.009
-154.677	-138.430	-0.117	0.013
-153.662	-123.645	0.342	0.054
-152.647	-127.473	-0.063	-0.009
-151.633	4.783	-0.088	0.064
-150.618	800.000	-0.032	-0.103
-149.604	628.330	-0.048	-0.119
-148.589	-55.712	0.259	-0.115
-147.574	-52.815	-0.217	-0.099
-146.560	37.934	0.195	0.171
-145.545	800.000	-0.110	-0.341
-144.531	33.736	0.366	0.315
-143.516	-59.498	0.344	-0.146
-142.502	209.261	-0.093	-0.144
-141.487	-106.514	0.369	0.081
-140.472	157.087	0.117	-0.160
-139.458	134.187	0.163	0.209
-138.443	64.997	0.161	0.160
-137.429	-45.513	0.110	0.054
-136.414	47.281	0.222	-0.204
-135.399	-13.780	0.359	-0.229
-134.385	-187.440	-0.044	-0.001
-133.370	800.000	-0.097	0.326
-132.356	800.000	0.027	-0.096
-131.341	-3.186	-0.123	-0.085
-130.326	-157.861	-0.079	0.005
-129.312	55.942	-0.050	-0.048
-128.297	32.596	-0.083	-0.070
-127.283	274.130	-0.206	-0.360
-126.268	-11.886	0.297	0.192
-125.253	-200.000	0.011	0.081
-124.239	-50.559	-0.227	0.106
-123.224	-176.827	0.329	0.008
-122.210	-63.668	-0.154	0.062
-121.195	269.597	-0.065	-0.113
-120.180	800.000	0.047	0.179
-119.166	-54.046	-0.070	0.031
-118.151	-42.053	0.275	0.139
-117.137	46.954	-0.289	-0.265
-116.122	83.624	-0.125	-0.135
-115.107	-36.723	-0.101	0.054
-114.093	800.000	-0.069	0.215
-113.078	-132.046	0.099	0.013
-112.064	-26.219	0.227	-0.131
-111.049	275.919	-0.048	-0.084
-110.034	153.346	0.089	0.120
-109.020	-200.000	-0.051	0.413
-108.005	-101.337	0.301	-0.072
-106.991	-159.131	-0.121	0.007
-105.976	-66.872	-0.189	-0.074
-104.962	-200.000	-0.008	-0.263
-103.947	17.396	-0.329	0.258
-102.932	-200.000	-0.019	0.083
-101.918	-183.143	-0.086	0.001
-100.903	-200.000	-0.025	0.153
-99.889	-8.527	0.487	-0.323
-98.874	800.000	-0.047	-0.149
-97.859	-127.942	-0.135	0.019
-96.845	800.000	-0.064	-0.193
-95.830	201.430	0.012	0.019
-94.816	-31.788	-0.176	-0.097
-93.801	-20.891	-0.151	-0.091
-92.786	149.613	0.161	0.216
-91.772	29.640	0.018	0.015
-90.757	779.497	-0.095	-0.256
-89.743	263.339	0.196	0.335
-88.728	800.000	0.022	-0.089
-87.713	23.458	0.208	0.169
-86.699	114.790	0.132	0.159
-85.684	800.000	0.086	-0.268
-84.670	-10.103	-0.093	-0.061
-83.655	-200.000	-0.011	-0.251
-82.640	325.449	0.106	-0.200
-81.626	-39.095	0.080	0.042
-80.611	-145.104	-0.055	0.005
-79.597	213.282	-0.291	0.454
-78.582	800.000	0.043	0.176
-77.567	-200.000	-0.044	0.363
-76.553	-30.519	0.258	-0.144
-75.538	800.000	-0.062	-0.221
-74.524	-107.714	-0.107	0.023
-73.509	-119.461	0.310	0.053
-72.494	-62.927	-0.423	0.173
-71.480	-200.000	0.272	-0.001
-70.465	89.663	-0.176	-0.194
-69.451	-200.000	-0.011	0.101
-68.436	-148.536	0.139	0.011
-67.422	-64.657	0.422	0.169
-66.407	-34.153	0.244	0.132
-65.392	52.536	-0.121	-0.114
-64.378	-155.687	-0.274	0.017
-63.363	-68.982	0.182	0.069
-62.349	-38.584	0.197	-0.102
-61.334	51.373	-0.966	-0.904
-60.319	509.487	0.215	0.492
-59.305	800.000	-0.397	-1.137
-58.290	323.338	0.627	1.177
-57.276	519.367	0.635	1.466
-56.261	-200.000	92.513	559.744
-55.246	561.453	1360.882	3241.484
-54.232	163.014	2530.376	3501.162
-53.217	112.720	2165.366	2583.101
-52.203	44.800	1711.578	1551.265
-51.188	37.568	1523.744	1331.700
-50.173	35.295	1495.469	1291.648
-49.159	54.540	1542.515	1464.243
-48.144	56.556	1560.771	1495.294
-47.130	37.891	1521.515	1331.752
-46.115	34.795	1506.161	1297.284
-45.100	34.528	1503.260	1292.927
-44.086	34.519	1501.668	1291.445
-43.071	34.477	1499.815	1289.511
-42.057	34.448	1498.148	1287.835
-41.042	34.519	1496.597	1286.930
-40.027	34.543	1495.217	1285.854
-39.013	34.585	1493.369	1284.496
-37.998	34.462	1492.537	1282.903
-36.984	34.459	1491.733	1282.136
-35.969	34.508	1489.899	1280.838
-34.954	34.500	1488.690	1279.695
-33.940	34.529	1487.162	1278.527
-32.925	34.526	1485.890	1277.365
-31.911	34.598	1484.515	1276.612
-30.896	34.666	1483.016	1275.728
-29.881	34.660	1481.456	1274.296
-28.867	34.516	1480.518	1272.477
-27.852	34.509	1479.224	1271.265
-26.838	34.586	1477.336	1270.108
-25.823	34.508	1476.390	1268.720
-24.809	34.528	1474.617	1267.282
-23.794	34.611	1473.316	1266.664
-22.779	34.484	1472.966	1265.474
-21.765	34.574	1471.212	1264.512
-20.750	34.635	1469.863	1263.705
-19.736	34.508	1468.890	1261.978
-18.721	34.351	1468.403	1260.468
-17.706	34.524	1467.202	1260.532
-16.692	34.477	1466.019	1259.157
-15.677	34.570	1464.225	1258.181
-14.663	34.448	1464.350	1257.434
-13.648	34.435	1463.114	1256.236
-12.633	34.482	1461.780	1255.349
-11.619	34.554	1461.051	1255.145
-10.604	34.437	1460.047	1253.462
-9.590	34.468	1459.458	1253.111
-8.575	34.478	1458.457	1252.269
-7.560	34.454	1457.795	1251.497
-6.546	34.631	1456.538	1251.528
-5.531	34.513	1455.754	1250.030
-4.517	34.480	1454.974	1249.096
-3.502	34.444	1454.163	1248.114
-2.487	34.551	1452.865	1247.648
-1.473	34.524	1451.600	1246.337
-0.458	34.405	1450.378	1244.461
0.556	32.259	1439.486	1228.640
1.571	27.254	1410.607	1171.733
2.586	21.597	1345.096	1082.349
3.600	18.607	1261.022	997.254
4.615	16.871	1215.410	951.363
5.629	14.589	1160.990	896.437
6.644	7.665	1078.053	797.676
7.659	1.349	1037.834	737.254
8.673	0.333	1032.522	728.506
9.688	0.245	1029.559	725.930
10.702	0.170	1027.714	724.205
11.717	0.202	1026.081	723.139
12.731	2.428	1028.030	735.150
13.746	9.587	1037.305	776.317
14.761	15.734	1045.074	811.821
15.775	17.061	1046.392	819.183
16.790	16.557	1044.614	815.289
17.804	15.508	1042.070	808.188
18.819	14.670	1040.383	802.778
19.834	14.187	1038.946	799.277
20.848	13.913	1037.982	797.150
21.863	13.678	1037.224	795.371
22.877	13.407	1036.469	793.424
23.892	13.178	1035.776	791.722
24.907	13.167	1034.479	790.611
25.921	13.138	1034.232	790.212
26.936	13.196	1033.549	789.897
27.950	13.029	1033.095	788.683
28.965	13.193	1032.300	788.792
29.980	13.335	1031.132	788.505
30.994	13.343	1030.366	787.888
32.009	13.336	1029.780	787.335
33.023	13.400	1028.916	786.911
34.038	13.451	1027.836	786.257
35.053	13.371	1026.753	784.981
36.067	13.317	1026.141	784.186
37.082	13.366	1025.131	783.576
38.096	13.309	1024.576	782.812
39.111	13.478	1023.756	782.916
40.126	13.372	1022.959	781.738
41.140	13.284	1021.682	780.275
42.155	13.192	1021.198	779.406
43.169	13.145	1020.002	778.203
44.184	13.134	1019.557	777.743
45.199	13.087	1018.442	776.599
46.213	13.229	1016.957	776.065
47.228	13.159	1015.984	774.929
48.242	13.240	1015.659	774.989
49.257	13.327	1014.406	774.374
50.271	13.200	1013.491	773.013
51.286	13.196	1012.572	772.222
52.301	13.267	1011.776	771.880
53.315	13.297	1010.486	770.969
54.330	13.365	1010.005	770.850
55.344	13.301	1008.541	769.366
56.359	13.195	1007.951	768.354
57.374	13.211	1006.961	767.607
58.388	13.227	1006.259	767.077
59.403	13.211	1005.381	766.267
60.417	13.148	1004.653	765.350
61.432	13.100	1004.121	764.659
62.447	13.249	1003.350	764.691
63.461	13.088	1002.588	763.301
64.476	13.193	1001.348	762.773
65.490	13.095	1000.708	761.767
66.505	13.074	999.777	760.892
67.520	13.106	998.984	760.370
68.534	13.091	998.125	759.579
69.549	13.227	997.110	759.366
70.563	13.273	996.649	759.157
71.578	13.154	996.267	758.252
72.593	13.089	995.275	757.132
73.607	13.074	994.223	756.195
74.622	13.058	993.636	755.610
75.636	13.044	993.003	754.996
76.651	12.945	992.083	753.780
77.666	12.988	991.291	753.308
78.680	13.022	990.399	752.716
79.695	13.140	989.895	752.807
80.709	13.141	989.788	752.662
81.724	13.208	988.522	751.939
82.739	13.123	987.713	750.872
83.753	13.221	986.870	750.609
84.768	13.278	986.124	750.230
85.782	13.367	984.943	749.673
86.797	13.337	985.081	749.573
87.812	13.380	983.776	748.707
88.826	13.298	982.970	747.659
89.841	13.372	981.686	746.951
90.855	13.298	981.379	746.316
91.870	13.265	980.814	745.670
92.884	13.365	979.842	745.319
93.899	13.467	979.101	745.144
94.914	13.360	978.754	744.333
95.928	13.403	978.197	744.037
96.943	13.318	977.610	743.146
97.957	13.384	976.475	742.510
98.972	13.460	975.528	742.065
99.987	13.389	974.912	741.214
101.001	13.406	974.553	740.953
102.016	13.367	973.619	740.003
103.030	13.316	972.495	738.854
104.045	13.412	971.387	738.373
105.060	13.313	970.654	737.313
106.074	13.398	969.804	736.981
107.089	13.254	968.908	735.592
108.103	13.289	968.292	735.216
109.118	13.235	967.281	734.143
110.133	13.110	966.568	732.984
111.147	13.265	965.416	732.732
112.162	13.253	964.461	731.887
113.176	13.169	963.900	731.024
114.191	13.297	962.975	730.827
115.206	13.331	962.301	730.402
116.220	13.349	961.163	729.551
117.235	13.325	960.424	728.820
118.249	13.334	959.629	728.193
119.264	13.331	958.880	727.546
120.279	13.201	958.345	726.505
121.293	13.279	957.448	726.100
122.308	13.211	956.681	725.157
123.322	13.270	955.571	724.510
124.337	13.261	954.621	723.685
125.352	13.145	954.224	722.816
126.366	13.319	952.969	722.562
127.381	13.376	951.570	721.684
128.395	13.145	951.250	720.369
129.410	13.226	949.883	719.625
130.424	13.330	948.987	719.333
131.439	13.300	947.957	718.360
132.454	13.442	946.945	718.145
133.468	13.352	946.707	717.509
134.483	13.406	945.586	716.831
135.497	13.230	945.789	716.157
136.512	13.412	944.450	715.867
137.527	13.278	943.818	714.747
138.541	13.321	943.014	714.262
139.556	13.373	942.290	713.874
140.570	13.377	941.345	713.113
141.585	13.362	940.613	712.430
142.600	13.398	940.017	712.071
143.614	13.494	938.977	711.632
144.629	13.552	938.843	711.716
145.643	13.558	937.888	710.955
146.658	13.608	936.594	710.125
147.673	13.437	936.135	708.984
148.687	13.424	935.269	708.208
149.702	13.352	934.576	707.314
150.716	13.308	933.730	706.423
151.731	13.337	933.162	706.054
152.746	13.308	932.323	705.232
153.760	13.394	931.454	704.880
154.775	13.424	930.881	704.510
155.789	13.535	930.151	704.369
156.804	13.562	929.034	703.574
157.819	13.506	928.413	702.804
158.833	13.449	927.895	702.110
159.848	13.622	927.104	702.182
160.862	13.812	925.974	702.067
161.877	13.605	925.557	700.813
162.892	13.533	925.055	700.067
163.906	13.507	924.265	699.297
164.921	13.544	923.399	698.738
165.935	13.507	922.488	697.831
166.950	13.618	921.592	697.559
167.964	13.552	920.487	696.381
168.979	13.698	919.527	696.208
169.994	13.600	918.383	694.870
171.008	13.614	917.832	694.450
172.023	13.593	917.221	693.837
173.037	13.663	916.384	693.436
174.052	13.694	915.871	693.116
175.067	13.692	915.026	692.404
176.081	13.753	913.783	691.658
177.096	13.708	913.586	691.259
178.110	13.658	912.285	690.005
179.125	13.661	911.931	689.690
180.140	13.653	911.355	689.160
181.154	13.734	910.191	688.557
182.169	13.625	910.021	687.913
183.183	13.763	909.393	687.951
184.198	13.749	908.500	687.157
185.213	13.780	907.735	686.644
186.227	13.815	907.462	686.525
187.242	13.779	906.664	685.709
188.256	13.818	905.958	685.276
189.271	13.890	905.503	685.170
190.286	13.874	904.740	684.466
191.300	13.842	903.931	683.659
192.315	13.680	903.582	682.668
193.329	13.661	902.819	681.953
194.344	13.689	902.126	681.485
195.359	13.656	901.804	681.045
196.373	13.858	900.731	681.005
197.388	13.929	900.424	681.004
198.402	13.994	899.794	680.733
199.417	14.015	899.356	680.427
200.432	14.056	898.819	680.130
201.446	14.035	898.350	679.628
202.461	14.118	898.078	679.699
203.475	14.140	897.268	679.117
204.490	14.138	896.915	678.780
205.504	14.151	895.737	677.884
206.519	14.285	894.661	677.554
207.534	14.211	894.130	676.789
208.548	14.082	893.527	675.752
209.563	14.166	892.797	675.480
210.577	14.219	891.751	674.842
211.592	14.140	891.953	674.615
212.607	14.063	891.406	673.829
213.621	14.331	890.426	674.115
214.636	14.219	889.931	673.226
215.650	14.270	889.013	672.679
216.665	14.272	888.694	672.388
217.680	14.325	888.450	672.356
218.694	14.389	887.957	672.180
219.709	14.241	887.636	671.282
220.723	14.358	886.358	670.728
221.738	14.403	885.748	670.390
222.753	14.377	885.528	670.058
223.767	14.408	884.598	669.420
224.782	14.366	883.862	668.633
225.796	14.435	882.780	668.035
226.811	14.447	882.462	667.783
227.826	14.521	881.622	667.385
228.840	14.341	881.436	666.465
229.855	14.342	880.579	665.762
230.869	14.415	880.057	665.598
231.884	14.497	879.119	665.158
232.899	14.477	878.573	664.607
233.913	14.573	877.706	664.273
234.928	14.439	877.243	663.329
235.942	14.438	876.608	662.787
236.957	14.360	875.678	661.717
237.972	14.294	875.538	661.289
238.986	14.416	874.588	661.000
240.001	14.489	874.092	660.854
241.015	14.438	873.288	659.985
242.030	14.500	872.860	659.849
243.045	14.566	872.206	659.557
244.059	14.531	871.625	658.920
245.074	14.584	870.839	658.480
246.088	14.536	870.416	657.909
247.103	14.556	869.688	657.381
248.117	14.837	868.792	657.751
249.132	14.726	868.568	657.086
250.147	14.673	868.331	656.642
251.161	14.792	867.528	656.444
252.176	14.882	866.747	656.147
253.190	14.742	866.330	655.223
254.205	14.864	865.610	655.101
255.220	14.963	864.847	654.851
256.234	14.990	864.190	654.403
257.249	14.982	863.912	654.101
258.263	15.033	863.202	653.708
259.278	15.014	862.434	652.992
260.293	14.947	861.988	652.334
261.307	15.018	861.485	652.177
262.322	14.981	861.093	651.676
263.336	15.258	859.976	651.852
264.351	15.115	859.833	651.130
265.366	15.110	859.323	650.664
266.380	15.146	858.388	650.040
267.395	15.272	857.807	650.029
268.409	15.008	857.185	648.477
269.424	15.061	856.564	648.157
270.439	15.153	855.679	647.785
271.453	15.140	855.086	647.228
272.468	15.212	854.024	646.647
273.482	15.154	853.469	645.945
274.497	15.069	853.643	645.691
275.512	15.040	853.226	645.206
276.526	15.127	852.173	644.688
277.541	15.239	851.112	644.258
278.555	15.388	850.383	644.223
279.570	15.300	850.431	643.866
280.585	15.334	849.507	643.238
281.599	15.401	849.031	643.076
282.614	15.449	848.184	642.564
283.628	15.258	847.799	641.482
284.643	15.321	847.508	641.447
285.657	15.390	846.710	641.049
286.672	15.479	845.951	640.760
287.687	15.436	845.799	640.421
288.701	15.402	845.161	639.754
289.716	15.399	844.526	639.205
290.730	15.445	844.183	639.062
291.745	15.449	843.692	638.652
292.760	15.596	842.820	638.493
293.774	15.387	841.975	637.002
294.789	15.599	841.549	637.428
295.803	15.639	841.081	637.169
296.818	15.535	840.217	636.066
297.833	15.503	839.831	635.596
298.847	15.530	839.325	635.259
299.862	15.598	838.211	634.616
300.876	15.632	837.614	634.235
301.891	15.667	836.783	633.680
302.906	15.613	836.565	633.258
303.920	15.773	835.782	633.209
304.935	15.861	835.194	633.040
305.949	15.614	835.202	632.063
306.964	15.672	834.135	631.418
307.979	15.734	833.474	631.092
308.993	15.666	833.376	630.706
310.008	15.968	832.522	631.137
311.022	15.908	831.984	630.449
312.037	15.854	831.439	629.776
313.052	15.874	830.998	629.464
314.066	15.773	830.094	628.346
315.081	15.750	829.793	627.975
316.095	15.749	829.088	627.383
317.110	15.845	828.886	627.531
318.125	15.802	828.056	626.688
319.139	15.890	827.438	626.493
320.154	15.928	827.118	626.336
321.168	15.888	826.670	625.792
322.183	15.960	825.823	625.365
323.197	15.995	825.303	625.046
324.212	16.003	824.492	624.404
325.227	15.816	824.827	623.909
326.241	15.965	823.932	623.730
327.256	15.894	823.455	623.049
328.270	15.864	822.731	622.336
329.285	15.914	822.236	622.092
330.300	15.932	821.983	621.912
331.314	15.857	821.231	621.011
332.329	16.000	820.292	620.773
333.343	16.101	819.737	620.671
334.358	15.978	819.417	619.919
335.373	15.997	819.067	619.671
336.387	15.994	818.559	619.220
337.402	16.153	817.923	619.270
338.416	16.137	817.203	618.609
339.431	16.143	816.747	618.232
340.446	16.262	815.777	617.878
341.460	16.115	815.568	617.128
342.475	16.367	814.947	617.523
343.489	16.182	814.868	616.734
344.504	16.314	814.026	616.523
345.519	16.447	813.414	616.491
346.533	16.385	813.018	615.911
347.548	16.585	812.075	615.870
348.562	16.548	811.835	615.497
349.577	16.235	811.684	614.190
350.592	16.273	810.982	613.741
351.606	16.334	810.776	613.756
352.621	16.307	810.136	613.116
353.635	16.306	809.959	612.927
354.650	16.451	809.277	612.883
355.665	16.382	809.150	612.479
356.679	16.336	808.765	611.967
357.694	16.435	807.996	611.689
358.708	16.475	807.343	611.286
359.723	16.610	806.806	611.315
360.738	16.587	806.089	610.634
361.752	16.536	805.821	610.193
362.767	16.578	805.094	609.739
363.781	16.569	804.991	609.575
364.796	16.572	804.602	609.238
365.810	16.570	804.178	608.856
366.825	16.609	803.632	608.529
367.840	16.680	803.258	608.448
368.854	16.757	802.896	608.394
369.869	16.726	802.162	607.673
370.883	16.715	801.660	607.200
371.898	16.738	801.044	606.761
372.913	16.753	800.535	606.378
373.927	16.855	799.779	606.114
374.942	16.743	799.582	605.510
375.956	16.738	799.233	605.176
376.971	16.675	798.522	604.358
377.986	16.863	797.648	604.313
379.000	17.049	797.335	604.688
380.015	16.934	796.780	603.802
381.029	16.964	796.375	603.549
382.044	16.900	795.949	602.944
383.059	16.821	795.372	602.173
384.073	17.014	794.793	602.366
385.088	16.895	794.277	601.501
386.102	17.012	793.668	601.401
387.117	17.028	792.948	600.858
388.132	16.912	792.675	600.188
389.146	16.922	792.783	600.253
390.161	16.915	792.309	599.816
391.175	16.993	791.808	599.660
392.190	16.982	791.332	599.206
393.205	17.018	791.142	599.138
394.219	16.858	790.772	598.239
395.234	17.090	789.518	598.055
396.248	17.046	789.206	597.612
397.263	17.055	788.967	597.410
398.278	17.048	788.247	596.786
399.292	16.920	788.243	596.279
400.307	16.840	788.048	595.799
401.321	16.923	787.444	595.580
402.336	17.144	787.043	595.999
403.350	17.200	786.528	595.754
404.365	17.059	786.253	594.999
405.380	17.212	785.519	594.925
406.394	17.253	785.294	594.846
407.409	17.374	784.314	594.476
408.423	17.407	783.788	594.140
409.438	17.317	783.841	593.813
410.453	17.147	783.896	593.208
411.467	17.264	783.097	592.960
412.482	17.525	782.340	593.242
413.496	17.336	781.891	592.192
414.511	17.363	781.863	592.211
415.526	17.433	781.583	592.191
416.540	17.404	781.088	591.661
417.555	17.609	780.425	591.820
418.569	17.448	780.010	590.892
419.584	17.530	779.445	590.699
420.599	17.462	779.337	590.327
421.613	106.573	1285.177	1453.169
422.628	91.080	1358.862	1453.283
