DTS Sentinel unit serial number:	SN413079Multiplexer serial number:	ORYXHardware model number:	OX4-SRSoftware version number:	ORYX F/W v4.00 Oryx Data Collector v3.7.2.0data status	okinstallation	princeton_trtdifferential loss correction	single-endedforward channel	channel 3reverse channel	N/Adate	2019/09/14time	14:12:35forward acquisition time	60.00reverse acquisition time	0.00gamma	496.2192k internal	0.2292k external	0.2292temperature offset calibration	1.0064default loss term (dB/km)	0.3790temperature slope calibration	1.0000multiplexer offset coefficient	1.0000multiplexer slope coefficient	1.0000fibre end	0.00T internal ref (°C)	38.53T ext. ref 1 (°C)	5.08T ext. ref 2 (°C)	37.12length (m)	temperature (°C)	Stokes	anti-Stokes-747.200	-200.000	-0.039	0.294
-746.185	-59.256	-0.227	0.100
-745.171	191.578	0.204	-0.314
-744.156	-161.482	0.214	-0.011
-743.142	-136.976	-0.144	-0.017
-742.127	140.234	0.051	0.069
-741.112	-200.000	0.042	-0.234
-740.098	-135.168	0.233	-0.029
-739.083	-9.642	0.196	-0.134
-738.069	-200.000	-0.001	0.088
-737.054	800.000	0.028	-0.090
-736.039	-75.661	-0.254	-0.092
-735.025	800.000	0.051	0.175
-734.010	259.911	-0.078	-0.137
-732.996	-200.000	0.018	-0.194
-731.981	117.525	-0.302	-0.380
-730.966	1.749	0.046	0.034
-729.952	-166.593	0.119	-0.005
-728.937	75.842	0.078	-0.085
-727.923	-200.000	-0.029	-0.288
-726.908	-140.645	-0.708	-0.075
-725.894	-75.304	-0.463	0.169
-724.879	-45.314	-0.281	-0.143
-723.864	-200.000	-0.014	0.081
-722.850	-75.576	-0.121	0.044
-721.835	638.337	0.076	-0.197
-720.821	136.472	-0.189	0.252
-719.806	-3.954	-0.134	-0.095
-718.791	-116.129	-0.185	0.035
-717.777	588.330	0.044	0.111
-716.762	-48.657	0.076	-0.037
-715.748	-56.015	0.135	0.062
-714.733	-78.506	-0.421	0.147
-713.718	175.554	0.041	0.061
-712.704	-160.729	-0.249	0.014
-711.689	-84.288	-0.264	0.086
-710.675	275.329	0.044	-0.080
-709.660	-32.776	-0.034	0.019
-708.645	-200.000	0.036	-0.199
-707.631	-138.641	-0.603	0.067
-706.616	-95.989	0.141	-0.038
-705.602	-160.746	-0.293	-0.016
-704.587	-162.194	0.241	0.012
-703.572	4.806	0.199	-0.150
-702.558	-200.000	-0.043	-0.231
-701.543	-63.138	0.105	-0.044
-700.529	-147.406	-0.197	0.017
-699.514	449.275	0.093	0.209
-698.499	800.000	0.039	-0.154
-697.485	-33.027	-0.088	0.050
-696.470	80.837	-0.124	-0.136
-695.456	4.388	-0.049	0.036
-694.441	-200.000	0.096	0.662
-693.426	-156.134	-0.219	0.014
-692.412	679.019	0.105	-0.279
-691.397	-93.694	-0.289	0.082
-690.383	293.579	-0.125	-0.233
-689.368	-36.114	-0.259	0.143
-688.354	-49.572	-0.212	0.103
-687.339	-81.934	-0.106	0.035
-686.324	-200.000	0.003	0.032
-685.310	-98.444	-0.084	-0.022
-684.295	273.096	0.163	0.295
-683.281	268.989	-0.143	0.256
-682.266	237.449	-0.186	0.314
-681.251	178.981	-0.193	0.288
-680.237	-200.000	0.015	-0.197
-679.222	-200.000	0.051	-0.587
-678.208	-200.000	-0.028	0.184
-677.193	-140.165	-0.569	0.061
-676.178	69.908	-0.193	-0.203
-675.164	509.583	-0.133	-0.316
-674.149	-189.194	-0.477	0.006
-673.135	-20.990	-0.422	-0.263
-672.120	-200.000	0.060	-0.269
-671.105	181.583	0.223	-0.335
-670.091	-200.000	0.015	0.382
-669.076	-200.000	0.024	0.266
-668.062	626.633	0.083	-0.214
-667.047	800.000	0.141	0.457
-666.032	25.738	-0.146	-0.124
-665.018	212.738	-0.107	-0.172
-664.003	-200.000	-0.015	-0.306
-662.989	60.868	0.055	-0.056
-661.974	125.094	-0.204	-0.262
-660.959	268.073	0.204	0.365
-659.945	-97.244	-0.025	0.007
-658.930	57.976	-0.308	0.308
-657.916	47.835	0.144	-0.137
-656.901	-66.726	-0.048	-0.019
-655.886	186.677	-0.065	0.099
-654.872	-100.881	-0.278	-0.070
-653.857	83.933	-0.157	-0.174
-652.843	800.000	-0.030	0.112
-651.828	602.968	-0.069	-0.174
-650.814	84.869	0.170	-0.190
-649.799	-130.409	-0.032	-0.004
-648.784	172.391	-0.034	-0.050
-647.770	133.041	-0.248	-0.327
-646.755	217.959	0.167	-0.271
-645.741	-81.177	-0.193	0.065
-644.726	-200.000	-0.014	0.275
-643.711	791.407	-0.130	-0.363
-642.697	441.252	-0.164	-0.365
-641.682	-101.857	-0.324	-0.080
-640.668	800.000	0.038	-0.155
-639.653	-79.960	0.214	-0.073
-638.638	-200.000	-0.031	-0.147
-637.624	-70.057	-0.309	0.120
-636.609	85.583	-0.071	-0.080
-635.595	253.529	0.227	0.394
-634.580	-163.752	0.077	0.004
-633.565	-101.134	0.139	0.035
-632.551	-200.000	-0.006	0.052
-631.536	-86.724	-0.085	-0.027
-630.522	-72.581	0.122	-0.046
-629.507	254.593	-0.173	-0.301
-628.492	-200.000	-0.005	0.143
-627.478	-18.505	0.189	-0.120
-626.463	-37.895	-0.279	0.151
-625.449	8.372	0.232	0.178
-624.434	-32.423	0.207	0.118
-623.419	79.643	-0.182	0.199
-622.405	800.000	-0.006	-0.018
-621.390	800.000	-0.031	0.132
-620.376	35.035	-0.042	-0.037
-619.361	-200.000	-0.023	-0.483
-618.346	-47.890	0.145	-0.072
-617.332	142.322	-0.184	0.249
-616.317	437.126	-0.173	0.383
-615.303	408.619	0.081	0.175
-614.288	41.818	-0.024	-0.022
-613.273	-43.951	0.322	0.165
-612.259	385.303	0.145	0.305
-611.244	-121.055	-0.456	0.078
-610.230	130.267	0.110	-0.143
-609.215	159.888	0.274	-0.389
-608.201	-5.566	-0.122	-0.085
-607.186	101.384	0.089	-0.106
-606.171	48.243	0.211	0.201
-605.157	800.000	-0.064	0.222
-604.142	-55.462	-0.416	-0.190
-603.128	42.130	-0.128	-0.118
-602.113	-199.074	-0.082	-0.000
-601.098	754.583	0.016	0.044
-600.084	800.000	-0.086	-0.264
-599.069	505.260	0.124	0.293
-598.055	114.539	-0.133	-0.165
-597.040	127.875	0.125	0.161
-596.025	-134.933	0.274	0.034
-595.011	-200.000	-0.030	-0.317
-593.996	-73.942	0.302	-0.111
-592.982	-25.595	-0.162	0.097
-591.967	-186.310	-0.131	-0.002
-590.952	365.244	-0.090	0.185
-589.938	-32.704	0.391	-0.221
-588.923	-102.380	-0.273	0.066
-587.909	-77.710	-0.172	0.060
-586.894	407.594	-0.053	-0.114
-585.879	-188.218	0.298	0.004
-584.865	180.308	-0.106	-0.158
-583.850	-200.000	0.003	0.166
-582.836	-172.598	0.231	-0.007
-581.821	-200.000	-0.010	-0.230
-580.806	-1.602	-0.315	-0.226
-579.792	-116.959	-0.431	-0.080
-578.777	293.511	-0.073	-0.136
-577.763	56.778	-0.083	0.082
-576.748	398.152	0.101	-0.216
-575.733	120.515	0.149	0.188
-574.719	800.000	-0.039	-0.156
-573.704	-74.896	-0.135	0.049
-572.690	800.000	0.057	0.177
-571.675	443.331	0.187	0.416
-570.661	-30.570	-0.259	0.149
-569.646	190.072	0.086	-0.132
-568.631	285.621	0.175	-0.322
-567.617	-64.445	-0.231	0.096
-566.602	-21.318	0.356	0.221
-565.588	-144.170	-0.298	0.028
-564.573	164.926	0.058	0.083
-563.558	800.000	-0.127	0.414
-562.544	404.342	-0.053	0.112
-561.529	-116.291	0.333	0.063
-560.515	290.498	-0.100	-0.184
-559.500	-81.927	-0.184	0.061
-558.485	51.292	0.306	0.295
-557.471	328.113	-0.219	-0.426
-556.456	239.376	-0.163	0.276
-555.442	80.759	0.165	0.181
-554.427	-200.000	0.002	0.207
-553.412	800.000	-0.123	0.365
-552.398	112.225	0.008	0.010
-551.383	-151.181	0.205	-0.016
-550.369	118.964	0.180	0.226
-549.354	-68.097	-0.064	0.025
-548.339	800.000	0.098	0.322
-547.325	324.161	-0.231	0.449
-546.310	-164.472	-0.128	-0.006
-545.296	-200.000	0.000	-0.095
-544.281	-200.000	0.027	-0.197
-543.266	413.209	0.032	-0.070
-542.252	528.249	0.028	-0.067
-541.237	-155.013	0.316	-0.021
-540.223	13.947	-0.254	0.201
-539.208	206.252	0.233	-0.368
-538.193	207.888	0.026	-0.041
-537.179	-200.000	-0.011	-0.083
-536.164	800.000	-0.078	0.235
-535.150	54.505	-0.065	0.063
-534.135	-200.000	-0.004	0.071
-533.121	-46.324	-0.108	0.054
-532.106	-200.000	-0.038	-0.260
-531.091	800.000	-0.110	-0.354
-530.077	-29.501	-0.301	-0.175
-529.062	-62.355	0.226	-0.096
-528.048	144.832	0.184	-0.250
-527.033	179.881	-0.233	-0.347
-526.018	129.234	-0.118	0.153
-525.004	-200.000	-0.009	-0.139
-523.989	279.584	-0.256	-0.463
-522.975	-65.453	-0.254	-0.103
-521.960	-200.000	0.058	0.262
-520.945	-94.519	-0.254	-0.070
-519.931	256.925	0.087	0.151
-518.916	-13.634	0.072	0.048
-517.902	82.446	-0.113	0.124
-516.887	0.923	-0.133	0.097
-515.872	800.000	0.101	-0.298
-514.858	800.000	0.095	0.288
-513.843	211.347	0.108	-0.173
-512.829	-200.000	0.099	-0.445
-511.814	-200.000	0.020	-0.106
-510.799	345.563	0.086	-0.171
-509.785	104.942	0.237	-0.284
-508.770	17.209	-0.138	0.111
-507.756	363.384	0.044	-0.089
-506.741	800.000	0.008	0.029
-505.726	-73.892	-0.229	0.084
-504.712	199.334	0.052	0.081
-503.697	472.312	0.117	0.268
-502.683	412.613	-0.196	-0.422
-501.668	-72.129	0.237	-0.089
-500.653	487.103	0.138	0.320
-499.639	-45.027	0.050	-0.025
-498.624	257.783	0.081	-0.142
-497.610	-58.848	0.317	0.139
-496.595	775.479	0.126	0.349
-495.581	179.287	0.234	0.347
-494.566	119.152	-0.162	-0.204
-493.551	772.025	-0.083	-0.230
-492.537	159.081	0.039	0.055
-491.522	-44.827	-0.096	0.049
-490.508	-200.000	-0.008	-0.085
-489.493	83.628	0.014	0.016
-488.478	800.000	0.065	0.207
-487.464	155.865	0.083	-0.116
-486.449	57.975	0.123	-0.122
-485.435	45.089	-0.248	-0.232
-484.420	231.716	0.150	-0.249
-483.405	-200.000	-0.002	-0.319
-482.391	140.345	-0.192	0.256
-481.376	-200.000	-0.000	0.078
-480.362	-127.234	0.160	0.024
-479.347	800.000	-0.103	-0.426
-478.332	800.000	0.066	0.200
-477.318	-200.000	-0.006	-0.078
-476.303	-200.000	0.012	0.248
-475.289	-200.000	0.037	0.390
-474.274	-161.134	-0.384	-0.020
-473.259	-162.506	0.323	0.016
-472.245	605.380	0.036	0.092
-471.230	-115.064	0.211	0.040
-470.216	-200.000	0.029	-0.149
-469.201	-191.900	-0.330	-0.003
-468.186	-59.346	0.102	0.044
-467.172	640.854	0.063	0.163
-466.157	-8.213	0.354	0.241
-465.143	-43.834	-0.270	0.137
-464.128	-119.409	-0.192	-0.034
-463.113	18.671	-0.378	0.306
-462.099	-98.230	0.242	0.063
-461.084	147.266	-0.272	-0.371
-460.070	304.919	-0.078	0.146
-459.055	46.767	-0.149	-0.140
-458.040	229.796	-0.090	-0.149
-457.026	245.967	0.115	0.196
-456.011	-38.827	-0.333	0.178
-454.997	136.884	0.043	-0.057
-453.982	-136.011	0.175	0.021
-452.968	-200.000	0.007	0.127
-451.953	-16.841	-0.038	-0.024
-450.938	-19.918	-0.045	-0.028
-449.924	-200.000	-0.078	0.360
-448.909	800.000	-0.103	0.291
-447.895	-138.093	0.170	0.019
-446.880	-34.020	0.138	-0.077
-445.865	-114.144	0.167	0.033
-444.851	800.000	-0.068	-0.200
-443.836	47.254	-0.200	-0.189
-442.822	43.864	0.230	-0.213
-441.807	-55.575	0.175	-0.079
-440.792	32.335	-0.221	-0.193
-439.778	768.453	-0.058	-0.160
-438.763	-138.586	0.277	-0.031
-437.749	526.715	0.145	0.346
-436.734	362.729	-0.072	-0.146
-435.719	34.743	-0.207	-0.183
-434.705	-22.794	-0.042	-0.025
-433.690	784.667	-0.052	0.143
-432.676	334.373	0.133	0.260
-431.661	-12.661	0.212	0.140
-430.646	155.909	0.031	-0.043
-429.632	-200.000	-0.003	0.121
-428.617	33.792	0.095	0.083
-427.603	-113.480	0.170	-0.034
-426.588	131.468	0.151	0.196
-425.573	-141.481	-0.086	-0.009
-424.559	458.042	-0.154	0.347
-423.544	-78.539	-0.172	-0.059
-422.530	21.839	0.167	0.138
-421.515	-22.111	0.190	-0.116
-420.500	174.145	0.250	-0.366
-419.486	-31.703	-0.160	-0.091
-418.471	-200.000	0.028	-0.189
-417.457	-24.650	0.209	0.125
-416.442	13.080	-0.233	0.182
-415.428	85.371	-0.062	0.069
-414.413	-133.003	-0.176	-0.023
-413.398	800.000	-0.079	-0.347
-412.384	189.273	-0.111	-0.168
-411.369	-200.000	-0.059	-0.353
-410.355	-114.387	-0.154	-0.030
-409.340	-124.434	-0.238	-0.037
-408.325	-127.983	-0.414	-0.060
-407.311	220.190	-0.052	-0.084
-406.296	-12.195	0.207	0.137
-405.282	61.881	-0.129	0.130
-404.267	143.382	0.076	0.102
-403.252	343.472	-0.035	0.069
-402.238	17.148	0.107	0.086
-401.223	260.892	0.189	0.331
-400.209	47.386	0.093	-0.087
-399.194	800.000	-0.050	-0.204
-398.179	-16.206	0.084	0.054
-397.165	-148.728	0.213	0.017
-396.150	-200.000	-0.027	0.302
-395.136	276.200	-0.033	0.059
-394.121	-25.017	-0.308	0.185
-393.106	-200.000	-0.023	0.167
-392.092	-146.918	0.161	0.014
-391.077	-37.970	0.082	0.044
-390.063	270.834	0.121	-0.215
-389.048	118.535	-0.009	-0.011
-388.033	484.223	-0.112	0.258
-387.019	-6.423	0.295	0.203
-386.004	158.809	-0.049	-0.069
-384.990	266.318	0.113	0.200
-383.975	-68.672	-0.460	-0.180
-382.960	-39.793	-0.048	-0.025
-381.946	346.002	-0.159	0.315
-380.931	-128.972	-0.348	0.049
-379.917	-96.641	-0.126	-0.034
-378.902	-200.000	0.046	-0.334
-377.888	-129.732	0.206	0.029
-376.873	264.966	-0.059	0.104
-375.858	800.000	-0.056	-0.170
-374.844	-200.000	-0.003	-0.068
-373.829	-200.000	-0.039	0.191
-372.815	147.885	0.130	0.177
-371.800	468.141	0.047	-0.106
-370.785	-18.544	-0.158	-0.099
-369.771	-200.000	-0.029	0.147
-368.756	-30.023	-0.092	-0.053
-367.742	-200.000	0.013	0.154
-366.727	171.804	0.101	-0.146
-365.712	21.733	-0.091	-0.075
-364.698	-171.284	-0.267	-0.009
-363.683	-200.000	0.038	0.371
-362.669	-200.000	0.024	0.129
-361.654	-96.266	0.177	0.047
-360.639	42.858	-0.136	-0.125
-359.625	-200.000	-0.025	0.186
-358.610	-79.112	0.072	0.025
-357.596	-170.800	-0.214	-0.007
-356.581	-7.169	-0.084	0.057
-355.566	-117.412	0.258	-0.047
-354.552	-46.698	-0.230	0.114
-353.537	-162.361	-0.006	0.000
-352.523	-73.567	0.375	-0.138
-351.508	-200.000	-0.041	0.316
-350.493	800.000	0.043	0.140
-349.479	800.000	-0.139	-0.396
-348.464	-200.000	0.011	0.187
-347.450	51.317	-0.096	0.092
-346.435	76.187	0.123	-0.131
-345.420	-188.387	-0.105	-0.001
-344.406	800.000	-0.068	0.199
-343.391	800.000	-0.056	-0.227
-342.377	-200.000	-0.073	-0.388
-341.362	646.356	-0.181	-0.466
-340.348	648.338	0.120	-0.310
-339.333	-200.000	-0.057	-0.359
-338.318	36.043	0.167	-0.148
-337.304	20.580	-0.193	0.158
-336.289	191.744	-0.106	-0.162
-335.275	-108.123	0.301	0.066
-334.260	66.970	-0.043	0.044
-333.245	-28.036	0.064	0.037
-332.231	51.907	-0.142	0.137
-331.216	-20.575	-0.280	-0.173
-330.202	-200.000	0.024	-0.217
-329.187	43.806	-0.223	0.206
-328.172	124.906	-0.078	0.098
-327.158	-200.000	-0.027	-0.171
-326.143	580.077	-0.056	0.137
-325.129	-200.000	-0.096	0.438
-324.114	-168.044	0.314	-0.012
-323.099	143.691	-0.070	-0.094
-322.085	-136.688	0.028	-0.003
-321.070	275.489	-0.042	0.076
-320.056	-21.716	0.357	0.219
-319.041	-200.000	-0.005	0.354
-318.026	-200.000	-0.003	-0.113
-317.012	800.000	0.033	-0.120
-315.997	-133.305	-0.374	0.047
-314.983	-20.805	0.238	0.147
-313.968	-31.368	0.262	-0.148
-312.953	-156.141	0.472	-0.030
-311.939	24.328	0.254	-0.212
-310.924	-200.000	-0.029	-0.151
-309.910	-105.672	0.319	0.073
-308.895	-72.533	-0.151	0.056
-307.880	-200.000	-0.012	0.130
-306.866	134.576	0.170	-0.222
-305.851	123.027	-0.096	0.121
-304.837	165.009	0.043	0.061
-303.822	-196.757	0.313	-0.002
-302.807	26.768	-0.070	0.059
-301.793	757.442	-0.102	-0.277
-300.778	-62.550	0.206	-0.086
-299.764	-73.369	0.550	-0.202
-298.749	234.616	0.097	-0.161
-297.735	-200.000	0.059	0.000
-296.720	-104.920	-0.185	-0.043
-295.705	67.889	0.200	-0.205
-294.691	800.000	0.049	-0.139
-293.676	245.466	0.128	-0.217
-292.662	-72.841	-0.194	0.072
-291.647	-61.959	0.185	-0.078
-290.632	-200.000	0.017	-0.146
-289.618	-200.000	-0.006	0.376
-288.603	62.576	-0.242	0.243
-287.589	-26.234	0.118	0.070
-286.574	-24.972	-0.138	0.082
-285.559	-200.000	0.005	0.055
-284.545	-67.169	0.155	-0.062
-283.530	800.000	0.168	0.490
-282.516	-125.683	0.199	-0.030
-281.501	-111.113	-0.268	0.055
-280.486	10.768	0.187	-0.144
-279.472	-6.457	0.246	-0.168
-278.457	-200.000	-0.011	0.053
-277.443	31.226	-0.291	-0.251
-276.428	137.447	0.175	0.230
-275.413	-72.172	-0.196	-0.073
-274.399	-26.735	0.293	-0.172
-273.384	-200.000	-0.029	0.165
-272.370	-200.000	0.004	0.219
-271.355	464.594	0.064	-0.143
-270.340	-124.228	-0.368	0.058
-269.326	117.477	-0.156	0.193
-268.311	-4.781	-0.328	-0.227
-267.297	800.000	-0.116	-0.396
-266.282	-90.844	-0.085	-0.024
-265.267	310.824	0.181	0.341
-264.253	32.337	0.099	0.086
-263.238	34.574	-0.181	0.159
-262.224	-131.391	0.466	-0.062
-261.209	-54.100	-0.246	-0.112
-260.195	2.161	0.177	-0.128
-259.180	188.858	0.114	0.172
-258.165	-111.721	0.273	-0.056
-257.151	13.381	-0.122	0.095
-256.136	98.390	0.151	0.175
-255.122	376.193	0.084	-0.173
-254.107	491.538	0.100	0.229
-253.092	-113.775	-0.203	0.040
-252.078	-78.008	-0.109	0.038
-251.063	171.214	0.137	0.198
-250.049	61.923	-0.292	-0.293
-249.034	-2.347	-0.246	-0.173
-248.019	-78.121	0.361	0.125
-247.005	641.199	-0.022	0.057
-245.990	-140.871	0.144	-0.015
-244.976	-16.306	0.258	0.165
-243.961	-168.126	-0.205	0.008
-242.946	-54.095	-0.360	-0.165
-241.932	-93.109	0.245	0.068
-240.917	23.222	0.147	0.121
-239.903	82.280	-0.202	0.220
-238.888	87.240	0.120	-0.133
-237.873	-140.403	-0.156	-0.016
-236.859	-68.912	-0.146	-0.056
-235.844	-200.000	-0.003	-0.246
-234.830	-85.301	-0.395	-0.124
-233.815	555.320	0.128	0.310
-232.800	-185.856	-0.178	0.003
-231.786	35.175	-0.117	0.103
-230.771	-35.360	0.086	-0.047
-229.757	298.014	-0.086	-0.158
-228.742	800.000	-0.104	-0.360
-227.727	-48.768	-0.280	-0.135
-226.713	-200.000	0.006	-0.036
-225.698	107.031	0.355	0.423
-224.684	590.492	0.059	-0.147
-223.669	-200.000	0.028	-0.268
-222.655	533.771	0.120	0.284
-221.640	-88.449	0.141	0.042
-220.625	164.985	0.073	0.103
-219.611	-99.519	-0.102	0.026
-218.596	-200.000	0.257	-0.001
-217.582	600.184	0.148	-0.368
-216.567	-103.394	-0.076	-0.018
-215.552	77.051	0.069	0.073
-214.538	-127.713	-0.177	-0.026
-213.523	-200.000	0.050	-0.375
-212.509	-72.168	0.145	0.054
-211.494	-200.000	0.035	-0.239
-210.479	-161.397	0.195	-0.010
-209.465	-2.316	0.229	-0.161
-208.450	-200.000	0.017	0.220
-207.436	124.091	0.081	0.102
-206.421	119.251	0.115	0.143
-205.406	297.155	0.149	-0.274
-204.392	-200.000	0.025	0.405
-203.377	800.000	0.050	0.151
-202.363	-200.000	-0.380	-0.000
-201.348	26.438	-0.123	0.103
-200.333	-56.201	0.123	0.055
-199.319	106.926	-0.124	-0.148
-198.304	52.442	0.144	-0.138
-197.290	-200.000	0.001	-0.089
-196.275	50.022	-0.093	-0.088
-195.260	-185.525	0.166	0.003
-194.246	-66.112	-0.039	-0.015
-193.231	-200.000	0.014	0.131
-192.217	645.188	-0.201	0.513
-191.202	-53.920	-0.221	-0.101
-190.187	101.904	-0.095	-0.112
-189.173	-133.076	-0.110	-0.014
-188.158	-200.000	-0.009	-0.107
-187.144	-12.672	0.076	0.049
-186.129	35.981	0.156	-0.137
-185.114	158.309	-0.266	0.370
-184.100	-123.305	0.097	-0.016
-183.085	-11.304	0.164	-0.108
-182.071	415.934	0.094	-0.201
-181.056	-154.680	-0.241	0.016
-180.042	-200.000	-0.003	0.036
-179.027	129.228	0.130	-0.166
-178.012	-200.000	-0.003	0.293
-176.998	368.475	-0.202	0.408
-175.983	-16.527	-0.210	0.133
-174.969	123.993	-0.242	0.304
-173.954	121.606	-0.084	-0.104
-172.939	-200.000	0.011	0.165
-171.925	800.000	0.048	-0.183
-170.910	-2.846	0.249	-0.174
-169.896	-123.998	-0.104	0.016
-168.881	-200.000	-0.013	0.184
-167.866	97.544	-0.167	0.192
-166.852	-64.028	0.154	-0.063
-165.837	-137.176	-0.141	-0.016
-164.823	-133.286	0.398	-0.050
-163.808	-200.000	0.028	-0.121
-162.793	-109.197	0.211	0.045
-161.779	-17.505	-0.310	-0.195
-160.764	800.000	0.075	-0.327
-159.750	800.000	0.028	-0.082
-158.735	-64.247	0.490	-0.200
-157.720	235.134	0.076	-0.126
-156.706	-200.000	-0.025	-0.319
-155.691	129.582	-0.145	-0.186
-154.677	730.917	0.018	-0.048
-153.662	49.757	-0.223	0.211
-152.647	-200.000	-0.032	0.204
-151.633	-47.459	0.401	-0.195
-150.618	201.341	-0.109	0.168
-149.604	-200.000	0.010	-0.111
-148.589	-92.373	0.268	-0.076
-147.574	526.149	-0.139	0.327
-146.560	194.720	-0.199	-0.302
-145.545	-200.000	-0.025	0.306
-144.531	239.873	0.132	0.221
-143.516	-200.000	-0.019	0.354
-142.502	800.000	0.045	-0.159
-141.487	143.158	0.033	-0.044
-140.472	800.000	-0.059	0.181
-139.458	-200.000	0.009	-0.124
-138.443	800.000	0.058	0.160
-137.429	-82.638	-0.396	0.128
-136.414	165.493	0.072	0.102
-135.399	-200.000	0.022	0.117
-134.385	-200.000	0.012	0.102
-133.370	157.729	0.134	0.186
-132.356	800.000	0.099	-0.342
-131.341	477.294	-0.120	-0.271
-130.326	439.451	0.119	0.260
-129.312	800.000	0.119	0.511
-128.297	800.000	-0.086	0.273
-127.283	31.710	-0.083	0.071
-126.268	-60.814	0.094	-0.040
-125.253	-24.142	-0.155	-0.093
-124.239	-200.000	-0.068	0.297
-123.224	-55.649	0.334	0.150
-122.210	-200.000	0.014	0.078
-121.195	-200.000	0.027	-0.267
-120.180	-14.754	-0.124	-0.079
-119.166	53.937	0.106	0.102
-118.151	454.870	0.026	0.057
-117.137	-200.000	-0.013	-0.231
-116.122	243.895	-0.024	-0.041
-115.107	800.000	-0.050	0.198
-114.093	53.072	-0.236	0.226
-113.078	-74.418	0.232	-0.084
-112.064	259.186	-0.148	0.255
-111.049	397.273	-0.133	-0.278
-110.034	422.396	0.061	0.131
-109.020	-200.000	-0.073	0.424
-108.005	206.314	-0.124	-0.193
-106.991	-93.756	-0.254	0.070
-105.976	-28.696	0.232	-0.133
-104.962	257.073	-0.156	0.268
-103.947	-200.000	0.006	-0.049
-102.932	261.903	-0.092	0.159
-101.918	-139.859	-0.140	-0.015
-100.903	-97.946	-0.091	0.023
-99.889	-11.900	-0.005	-0.003
-98.874	-171.964	-0.211	-0.007
-97.859	-26.257	0.182	-0.107
-96.845	-136.101	0.219	-0.026
-95.830	-200.000	0.022	-0.120
-94.816	-200.000	-0.079	-0.561
-93.801	758.610	0.055	-0.150
-92.786	-99.297	-0.232	0.058
-91.772	-36.505	0.291	0.156
-90.757	-200.000	-0.033	-0.283
-89.743	14.387	-0.174	0.135
-88.728	36.201	-0.230	-0.202
-87.713	133.461	-0.140	0.180
-86.699	-14.098	-0.185	0.119
-85.684	-200.000	-0.009	-0.210
-84.670	-8.143	-0.309	0.207
-83.655	-74.888	-0.474	-0.170
-82.640	-200.000	-0.029	0.250
-81.626	165.026	0.193	0.272
-80.611	276.206	-0.129	0.229
-79.597	-134.770	0.522	-0.063
-78.582	25.995	-0.138	0.115
-77.567	-56.657	-0.310	0.137
-76.553	-75.718	0.109	0.039
-75.538	-39.689	0.141	0.074
-74.524	36.990	-0.221	-0.195
-73.509	603.534	-0.077	0.192
-72.494	-31.589	-0.266	-0.149
-71.480	-165.632	0.254	-0.011
-70.465	61.013	0.248	0.245
-69.451	-167.052	-0.252	-0.010
-68.436	393.438	-0.102	-0.211
-67.422	-200.000	-0.032	0.214
-66.407	800.000	0.126	0.355
-65.392	800.000	0.085	0.235
-64.378	800.000	-0.049	0.187
-63.363	748.979	-0.039	0.105
-62.349	197.115	0.107	0.163
-61.334	-27.213	-0.763	-0.443
-60.319	91.559	0.193	0.216
-59.305	403.414	-0.183	-0.385
-58.290	346.014	0.403	0.789
-57.276	739.117	0.603	1.613
-56.261	-200.000	80.782	492.300
-55.246	534.510	1374.031	3245.033
-54.232	181.436	2603.609	3815.391
-53.217	118.097	2263.757	2779.891
-52.203	48.170	1790.329	1668.178
-51.188	41.491	1594.755	1437.968
-50.173	38.997	1566.801	1395.020
-49.159	54.675	1607.855	1544.592
-48.144	59.149	1627.269	1595.361
-47.130	42.197	1588.862	1437.497
-46.115	38.898	1574.220	1400.694
-45.100	38.599	1571.527	1396.115
-44.086	38.590	1569.324	1394.035
-43.071	38.548	1567.110	1391.718
-42.057	38.524	1564.932	1389.556
-41.042	38.599	1563.440	1388.708
-40.027	38.478	1562.577	1387.029
-39.013	38.563	1560.338	1385.592
-37.998	38.553	1559.253	1384.496
-36.984	38.596	1557.522	1383.212
-35.969	38.493	1555.964	1381.048
-34.954	38.507	1555.852	1380.987
-33.940	38.483	1554.240	1379.334
-32.925	38.528	1552.504	1378.053
-31.911	38.608	1551.141	1377.352
-30.896	38.611	1549.883	1376.207
-29.881	38.654	1547.703	1374.517
-28.867	38.562	1546.807	1373.022
-27.852	38.592	1545.348	1371.881
-26.838	38.555	1543.852	1370.236
-25.823	38.516	1542.345	1368.574
-24.809	38.543	1540.507	1367.077
-23.794	38.634	1538.971	1366.296
-22.779	38.560	1538.141	1364.992
-21.765	38.569	1536.811	1363.819
-20.750	38.701	1535.267	1363.310
-19.736	38.572	1534.725	1361.877
-18.721	38.490	1533.553	1360.217
-17.706	38.547	1532.079	1359.245
-16.692	38.569	1531.241	1358.600
-15.677	38.415	1530.429	1356.760
-14.663	38.509	1529.360	1356.413
-13.648	38.479	1528.211	1355.133
-12.633	38.496	1526.946	1354.071
-11.619	38.466	1526.299	1353.239
-10.604	38.528	1525.072	1352.523
-9.590	38.505	1524.132	1351.476
-8.575	38.476	1523.286	1350.477
-7.560	38.554	1521.801	1349.645
-6.546	38.510	1521.237	1348.788
-5.531	38.363	1520.527	1347.092
-4.517	38.393	1519.799	1346.597
-3.502	38.362	1518.227	1344.941
-2.487	38.445	1517.340	1344.670
-1.473	38.467	1516.172	1343.733
-0.458	38.511	1514.877	1342.837
0.556	39.407	1506.393	1334.901
1.571	37.117	1479.676	1295.835
2.586	33.849	1415.296	1218.426
3.600	31.714	1329.558	1131.633
4.615	29.325	1279.432	1074.963
5.629	24.533	1219.054	997.450
6.644	14.460	1127.486	870.133
7.659	6.397	1082.153	794.534
8.673	5.158	1075.785	783.575
9.688	5.026	1073.321	781.049
10.702	5.021	1071.875	779.901
11.717	5.115	1069.888	778.854
12.731	7.827	1073.464	794.956
13.746	17.022	1086.107	850.536
14.761	22.239	1092.467	881.676
15.775	20.713	1089.185	871.314
16.790	19.361	1086.340	862.205
17.804	18.303	1084.216	855.159
18.819	17.294	1082.271	848.517
19.834	16.865	1080.799	845.150
20.848	16.644	1079.764	843.167
21.863	16.392	1079.115	841.326
22.877	16.165	1078.322	839.505
23.892	15.896	1077.691	837.604
24.907	15.958	1077.077	837.358
25.921	15.832	1076.282	836.041
26.936	15.874	1075.170	835.313
27.950	15.994	1074.124	835.022
28.965	15.972	1072.892	833.879
29.980	15.991	1071.942	833.163
30.994	16.154	1070.628	832.870
32.009	16.307	1069.532	832.700
33.023	16.263	1069.139	832.102
34.038	16.188	1068.297	831.005
35.053	16.237	1067.338	830.425
36.067	16.093	1066.160	828.731
37.082	16.091	1065.438	828.083
38.096	16.184	1064.402	827.664
39.111	16.157	1063.988	827.137
40.126	16.236	1062.823	826.541
41.140	16.154	1061.564	825.090
42.155	16.043	1060.101	823.338
43.169	15.801	1059.682	821.756
44.184	15.840	1058.304	820.808
45.199	15.858	1057.324	820.061
46.213	15.683	1057.028	818.908
47.228	15.926	1055.757	819.032
48.242	15.958	1054.631	818.242
49.257	16.006	1054.247	818.102
50.271	15.959	1053.249	817.029
51.286	15.961	1052.306	816.234
52.301	16.202	1051.131	816.420
53.315	16.036	1050.683	815.196
54.330	16.035	1049.324	814.063
55.344	15.994	1048.452	813.118
56.359	15.904	1047.229	811.661
57.374	15.880	1046.885	811.209
58.388	15.906	1046.172	810.709
59.403	15.836	1045.068	809.447
60.417	15.880	1043.992	808.752
61.432	15.859	1043.539	808.230
62.447	15.743	1042.877	807.090
63.461	15.667	1042.004	805.976
64.476	15.729	1040.734	805.221
65.490	15.614	1040.082	804.093
66.505	15.558	1039.415	803.239
67.520	15.772	1037.824	802.960
68.534	15.675	1037.832	802.431
69.549	15.744	1037.069	802.102
70.563	15.766	1035.886	801.219
71.578	15.717	1035.398	800.537
72.593	15.613	1034.320	799.140
73.607	15.605	1032.928	797.956
74.622	15.510	1032.712	797.264
75.636	15.536	1031.456	796.352
76.651	15.642	1030.534	796.072
77.666	15.561	1030.097	795.277
78.680	15.665	1029.246	795.041
79.695	15.491	1028.671	793.705
80.709	15.649	1028.101	793.939
81.724	15.703	1027.457	793.631
82.739	15.791	1026.483	793.222
83.753	15.870	1025.541	792.796
84.768	16.001	1025.050	792.963
85.782	16.112	1024.177	792.737
86.797	16.210	1023.550	792.645
87.812	16.137	1022.753	791.612
88.826	16.005	1021.807	790.194
89.841	15.927	1020.948	789.094
90.855	16.079	1019.993	788.998
91.870	16.097	1019.366	788.524
92.884	16.250	1018.813	788.741
93.899	16.053	1017.989	787.115
94.914	16.119	1017.066	786.641
95.928	16.273	1016.594	786.924
96.943	16.314	1015.662	786.324
97.957	16.131	1015.246	785.081
98.972	16.168	1013.834	784.088
99.987	16.139	1012.825	783.107
101.001	16.188	1012.496	783.009
102.016	16.228	1011.755	782.551
103.030	16.095	1010.762	781.101
104.045	16.189	1009.917	780.811
105.060	16.219	1008.348	779.670
106.074	16.047	1007.661	778.276
107.089	15.958	1006.719	777.069
108.103	15.781	1005.682	775.381
109.118	15.744	1005.129	774.718
110.133	15.737	1003.823	773.610
111.147	15.652	1003.128	772.614
112.162	15.647	1002.499	772.038
113.176	15.650	1001.762	771.419
114.191	15.850	1000.624	771.389
115.206	15.900	999.661	770.809
116.220	15.943	998.710	770.204
117.235	15.733	998.152	768.746
118.249	15.801	997.397	768.405
119.264	15.843	996.398	767.762
120.279	15.689	995.623	766.392
121.293	15.730	994.710	765.809
122.308	15.816	993.918	765.520
123.322	15.729	993.143	764.464
124.337	15.634	992.174	763.217
125.352	15.550	990.975	761.849
126.366	15.568	989.842	760.988
127.381	15.746	988.402	760.622
128.395	15.701	987.697	759.806
129.410	15.662	986.630	758.744
130.424	15.763	985.803	758.496
131.439	15.790	985.364	758.212
132.454	15.941	984.257	757.972
133.468	15.817	983.810	757.002
134.483	15.874	983.110	756.656
135.497	16.035	982.141	756.564
136.512	16.043	981.534	756.064
137.527	15.979	980.545	754.951
138.541	15.952	979.758	754.157
139.556	15.959	979.516	753.933
140.570	15.876	978.703	752.871
141.585	16.006	977.942	752.802
142.600	16.229	977.130	753.105
143.614	16.235	976.544	752.613
144.629	16.279	975.408	751.867
145.643	16.239	974.682	751.065
146.658	16.169	973.834	750.033
147.673	16.119	972.751	748.909
148.687	16.060	972.107	748.086
149.702	15.975	971.321	747.038
150.716	15.975	969.865	745.849
151.731	15.980	969.464	745.498
152.746	15.938	968.600	744.584
153.760	15.999	967.619	744.033
154.775	16.062	967.008	743.774
155.789	15.976	966.352	742.827
156.804	16.177	965.629	743.090
157.819	16.017	965.031	741.860
158.833	16.152	963.966	741.566
159.848	16.217	963.513	741.441
160.862	16.298	962.690	741.096
161.877	16.306	962.162	740.660
162.892	16.110	961.278	739.052
163.906	15.975	960.042	737.450
164.921	15.977	959.220	736.759
165.935	16.053	957.965	736.062
166.950	16.028	957.390	735.447
167.964	16.075	956.145	734.628
168.979	16.169	955.443	734.436
169.994	16.164	954.166	733.366
171.008	15.958	953.494	731.890
172.023	16.138	953.034	732.252
173.037	16.281	951.689	731.776
174.052	16.338	951.327	731.678
175.067	16.222	950.726	730.652
176.081	16.269	949.686	729.988
177.096	15.977	948.734	727.931
178.110	15.966	948.161	727.378
179.125	16.069	947.243	727.058
180.140	16.162	946.244	726.626
181.154	16.153	945.825	726.203
182.169	16.247	944.974	725.888
183.183	16.255	944.534	725.521
184.198	16.213	944.293	725.092
185.213	16.494	943.024	725.256
186.227	16.427	942.376	724.408
187.242	16.467	941.630	723.942
188.256	16.451	941.035	723.349
189.271	16.447	940.645	722.969
190.286	16.564	939.892	722.829
191.300	16.287	938.966	720.870
192.315	16.119	938.005	719.351
193.329	16.051	937.023	718.242
194.344	16.009	936.720	717.768
195.359	16.211	935.878	717.919
196.373	16.155	936.277	717.926
197.388	16.331	935.253	717.824
198.402	16.471	934.569	717.829
199.417	16.596	934.196	718.009
200.432	16.539	934.262	717.755
201.446	16.789	933.527	718.186
202.461	16.709	933.274	717.590
203.475	16.749	932.919	717.423
204.490	16.832	931.953	716.968
205.504	16.581	931.630	715.595
206.519	16.650	929.491	714.179
207.534	16.568	929.157	713.515
208.548	16.487	928.357	712.496
209.563	16.548	928.214	712.580
210.577	16.632	927.366	712.219
211.592	16.631	926.595	711.560
212.607	16.731	925.814	711.316
213.621	16.925	925.503	711.830
214.636	16.786	924.756	710.611
215.650	16.779	923.737	709.732
216.665	16.744	923.498	709.339
217.680	16.648	923.442	708.833
218.694	16.826	922.620	708.882
219.709	16.904	922.025	708.690
220.723	16.872	921.343	707.969
221.738	16.880	920.695	707.440
222.753	16.927	919.920	706.981
223.767	16.815	919.428	706.073
224.782	16.989	918.131	705.737
225.796	16.966	917.500	705.093
226.811	16.948	917.316	704.815
227.826	17.045	916.058	704.190
228.840	16.873	915.769	703.190
229.855	16.950	914.358	702.363
230.869	16.916	914.170	702.017
231.884	16.816	913.537	701.055
232.899	16.875	912.479	700.424
233.913	16.887	911.712	699.826
234.928	16.688	911.172	698.526
235.942	16.658	910.794	698.053
236.957	16.706	910.151	697.695
237.972	16.744	909.225	697.080
238.986	16.766	908.429	696.499
240.001	16.848	907.640	696.168
241.015	16.824	907.294	695.745
242.030	16.878	906.273	695.121
243.045	16.827	906.121	694.735
244.059	16.981	904.994	694.437
245.074	16.972	904.727	694.133
246.088	17.019	904.061	693.756
247.103	17.150	903.653	693.915
248.117	17.130	902.977	693.254
249.132	17.281	902.526	693.462
250.147	17.363	901.834	693.201
251.161	17.524	901.000	693.154
252.176	17.474	900.756	692.703
253.190	17.551	899.723	692.161
254.205	17.547	899.501	691.914
255.220	17.621	898.630	691.479
256.234	17.573	898.003	690.744
257.249	17.542	897.566	690.222
258.263	17.568	896.877	689.733
259.278	17.637	896.157	689.398
260.293	17.589	895.750	688.830
261.307	17.615	895.263	688.502
262.322	17.625	894.629	687.993
263.336	17.757	894.011	687.990
264.351	17.800	893.152	687.442
265.366	17.706	892.964	686.858
266.380	17.762	892.158	686.399
267.395	17.728	891.580	685.759
268.409	17.675	890.624	684.749
269.424	17.720	890.182	684.530
270.439	17.643	889.549	683.673
271.453	17.669	888.600	682.986
272.468	17.688	887.088	681.840
273.482	17.643	886.694	681.298
274.497	17.597	886.225	680.695
275.512	17.742	885.693	680.805
276.526	17.696	884.584	679.709
277.541	17.757	884.041	679.475
278.555	17.708	883.842	679.064
279.570	17.787	883.225	678.844
280.585	17.899	882.774	678.886
281.599	18.015	882.114	678.779
282.614	17.821	881.828	677.727
283.628	17.845	880.806	676.977
284.643	17.681	880.584	676.097
285.657	17.794	879.938	675.986
286.672	17.759	879.294	675.295
287.687	17.725	878.778	674.703
288.701	17.781	878.556	674.695
289.716	17.789	877.499	673.856
290.730	17.906	876.742	673.676
291.745	17.897	876.447	673.356
292.760	18.012	875.601	673.097
293.774	17.999	875.138	672.630
294.789	18.100	874.820	672.724
295.803	17.980	874.063	671.611
296.818	18.025	872.956	670.878
297.833	17.967	872.324	670.106
298.847	17.813	871.842	669.073
299.862	17.977	870.830	668.878
300.876	17.885	870.500	668.208
301.891	18.074	869.724	668.291
302.906	18.209	869.058	668.245
303.920	18.232	868.358	667.737
304.935	18.124	868.177	667.118
305.949	18.330	867.431	667.292
306.964	18.347	866.518	666.595
307.979	18.193	866.456	665.890
308.993	18.358	865.464	665.710
310.008	18.452	865.229	665.835
311.022	18.345	864.866	665.079
312.037	18.283	864.346	664.382
313.052	18.213	863.668	663.529
314.066	18.196	862.854	662.781
315.081	18.224	861.962	662.145
316.095	18.029	861.566	661.029
317.110	18.097	861.178	660.935
318.125	18.172	860.434	660.594
319.139	18.015	860.284	659.814
320.154	18.062	859.665	659.461
321.168	18.122	858.889	659.039
322.183	18.274	858.109	658.969
323.197	18.224	857.853	658.520
324.212	18.237	857.254	658.055
325.227	18.242	856.669	657.564
326.241	18.267	856.254	657.283
327.256	18.294	855.464	656.723
328.270	18.287	855.145	656.394
329.285	18.133	854.278	655.078
330.300	18.167	853.734	654.735
331.314	18.121	853.207	654.098
332.329	18.312	852.395	654.148
333.343	18.332	851.873	653.765
334.358	18.569	851.347	654.206
335.373	18.466	850.945	653.450
336.387	18.478	850.660	653.219
337.402	18.393	850.114	652.414
338.416	18.481	849.423	652.163
339.431	18.602	849.100	652.318
340.446	18.667	848.393	651.964
341.460	18.736	847.701	651.635
342.475	18.703	847.216	651.080
343.489	18.774	846.592	650.812
344.504	18.958	845.855	650.883
345.519	18.906	845.165	650.098
346.533	19.011	844.657	650.048
347.548	19.105	844.340	650.101
348.562	18.891	843.873	648.875
349.577	18.695	843.423	647.732
350.592	18.733	842.512	647.118
351.606	18.702	842.093	646.624
352.621	18.510	841.895	645.693
353.635	18.645	841.515	645.851
354.650	18.605	841.268	645.455
355.665	18.694	840.250	644.949
356.679	18.784	840.072	645.093
357.694	18.816	839.810	644.956
358.708	18.850	838.794	644.247
359.723	18.749	838.367	643.481
360.738	18.837	837.869	643.372
361.752	18.941	837.183	643.179
362.767	18.890	836.781	642.623
363.781	19.059	836.628	643.081
364.796	18.995	836.268	642.507
365.810	19.054	835.844	642.343
366.825	19.191	835.092	642.220
367.840	19.209	835.096	642.235
368.854	19.231	834.495	641.797
369.869	19.223	833.988	641.320
370.883	19.094	833.445	640.367
371.898	19.104	832.725	639.793
372.913	19.264	832.144	639.886
373.927	19.394	831.542	639.847
374.942	19.173	830.881	638.462
375.956	19.125	830.377	637.842
376.971	19.299	829.687	637.901
377.986	19.215	829.284	637.222
379.000	19.425	828.845	637.606
380.015	19.416	828.230	637.041
381.029	19.516	827.482	636.778
382.044	19.296	827.489	635.918
383.059	19.287	826.600	635.144
384.073	19.492	826.041	635.415
385.088	19.377	825.748	634.706
386.102	19.236	824.943	633.514
387.117	19.224	824.467	633.048
388.132	19.191	823.851	632.399
389.146	19.260	823.271	632.150
390.161	19.410	823.135	632.541
391.175	19.378	822.709	632.040
392.190	19.435	822.440	631.988
393.205	19.393	822.277	631.651
394.219	19.425	821.387	631.030
395.234	19.364	820.726	630.241
396.248	19.149	820.419	629.166
397.263	19.164	819.490	628.451
398.278	19.210	819.135	628.292
399.292	19.241	818.807	628.097
400.307	19.219	818.229	627.517
401.321	19.381	817.872	627.779
402.336	19.331	817.528	627.277
403.350	19.319	817.458	627.125
404.365	19.400	816.790	626.851
405.380	19.352	816.510	626.405
406.394	19.517	816.189	626.702
407.409	19.735	815.117	626.617
408.423	19.708	814.952	626.336
409.438	19.803	814.312	626.131
410.453	19.716	814.042	625.554
411.467	19.858	813.665	625.724
412.482	19.786	813.337	625.156
413.496	19.904	812.614	624.969
414.511	19.978	812.692	625.242
415.526	19.892	812.496	624.727
416.540	19.809	812.091	624.061
417.555	19.804	811.581	623.596
418.569	19.904	810.719	623.235
419.584	19.924	809.989	622.693
420.599	19.924	809.881	622.553
421.613	150.937	1363.295	1767.957
422.628	131.133	1443.948	1768.082
