DTS Sentinel unit serial number:	SN413079Multiplexer serial number:	ORYXHardware model number:	OX4-SRSoftware version number:	ORYX F/W v4.00 Oryx Data Collector v3.7.2.0data status	okinstallation	princeton_trtdifferential loss correction	single-endedforward channel	channel 3reverse channel	N/Adate	2019/09/18time	23:08:35forward acquisition time	60.00reverse acquisition time	0.00gamma	496.2192k internal	0.2345k external	0.2345temperature offset calibration	0.9990default loss term (dB/km)	0.3790temperature slope calibration	1.0000multiplexer offset coefficient	1.0000multiplexer slope coefficient	1.0000fibre end	0.00T internal ref (°C)	23.95T ext. ref 1 (°C)	0.78T ext. ref 2 (°C)	17.53length (m)	temperature (°C)	Stokes	anti-Stokes-747.200	569.276	0.171	0.415
-746.185	-111.872	-0.559	0.113
-745.171	393.037	0.089	0.186
-744.156	-68.156	-0.164	0.064
-743.142	-136.431	-0.152	-0.018
-742.127	86.827	-0.055	-0.060
-741.112	78.966	0.048	0.051
-740.098	-114.898	-0.227	-0.043
-739.083	83.790	0.274	-0.299
-738.069	66.165	-0.238	0.242
-737.054	-58.145	-0.209	-0.091
-736.039	-90.807	-0.309	0.089
-735.025	-37.754	0.228	0.122
-734.010	500.400	0.055	0.126
-732.996	26.060	-0.157	0.131
-731.981	-15.143	-0.287	0.184
-730.966	214.127	-0.044	0.070
-729.952	68.200	0.170	0.175
-728.937	-200.000	-0.043	-0.200
-727.923	75.329	-0.146	0.154
-726.908	800.000	-0.121	0.396
-725.894	-106.193	-0.074	0.017
-724.879	-3.900	-0.127	-0.088
-723.864	56.188	0.040	-0.038
-722.850	106.046	0.121	0.143
-721.835	17.807	-0.184	-0.146
-720.821	-200.000	0.013	-0.278
-719.806	-180.685	-0.561	-0.011
-718.791	-200.000	-0.023	0.168
-717.777	800.000	0.097	-0.298
-716.762	800.000	-0.144	0.424
-715.748	401.574	0.203	-0.426
-714.733	143.957	0.058	-0.077
-713.718	34.739	-0.060	0.053
-712.704	379.948	-0.089	-0.182
-711.689	126.118	-0.127	0.161
-710.675	84.721	-0.177	-0.193
-709.660	6.765	0.494	-0.367
-708.645	-200.000	-0.010	0.063
-707.631	11.289	-0.311	0.238
-706.616	8.531	-0.129	-0.097
-705.602	3.566	0.182	0.133
-704.587	155.944	0.219	-0.302
-703.572	-71.850	0.259	0.096
-702.558	364.482	0.077	0.155
-701.543	131.566	0.159	-0.204
-700.529	331.916	0.102	0.196
-699.514	1.891	-0.098	0.070
-698.499	800.000	-0.130	0.400
-697.485	-160.626	0.046	-0.002
-696.470	19.257	0.398	-0.319
-695.456	75.100	0.165	-0.173
-694.441	-124.168	-0.305	0.048
-693.426	42.541	-0.110	-0.100
-692.412	-121.935	0.136	-0.022
-691.397	-103.466	-0.186	-0.044
-690.383	46.333	-0.183	0.169
-689.368	-45.950	-0.214	0.105
-688.354	-182.532	0.321	0.006
-687.339	-132.818	-0.210	0.027
-686.324	-160.238	-0.219	0.012
-685.310	153.965	0.044	0.060
-684.295	121.616	-0.058	0.072
-683.281	-73.593	0.146	-0.053
-682.266	-74.198	-0.329	0.119
-681.251	800.000	0.109	-0.347
-680.237	-132.502	0.521	0.067
-679.222	-57.259	-0.066	0.029
-678.208	-42.395	-0.089	0.046
-677.193	-104.782	-0.171	0.039
-676.178	-200.000	-0.043	-0.299
-675.164	391.554	0.015	-0.030
-674.149	11.816	-0.113	0.086
-673.135	67.131	0.048	0.049
-672.120	63.437	0.155	0.155
-671.105	800.000	0.040	-0.114
-670.091	-157.541	-0.475	-0.028
-669.076	206.093	-0.235	-0.365
-668.062	165.471	-0.268	0.378
-667.047	-200.000	0.022	-0.113
-666.032	135.291	-0.236	-0.307
-665.018	-200.000	-0.010	0.089
-664.003	-200.000	0.005	-0.065
-662.989	313.513	-0.057	0.108
-661.974	-200.000	0.001	-0.020
-660.959	-200.000	-0.000	-0.055
-659.945	800.000	-0.102	-0.291
-658.930	-65.627	-0.345	-0.138
-657.916	-56.331	-0.171	0.076
-656.901	9.589	-0.135	-0.102
-655.886	-118.216	-0.072	-0.013
-654.872	201.727	0.094	-0.145
-653.857	44.562	0.286	-0.262
-652.843	-200.000	0.043	0.222
-651.828	-53.608	0.282	0.129
-650.814	88.657	0.158	0.176
-649.799	64.359	0.144	0.144
-648.784	-102.826	-0.341	0.081
-647.770	247.842	0.166	0.279
-646.755	-200.000	-0.023	0.115
-645.741	-200.000	0.000	0.354
-644.726	-90.219	0.099	-0.029
-643.711	-200.000	0.028	0.464
-642.697	-33.067	0.278	-0.154
-641.682	49.604	0.070	0.066
-640.668	0.884	-0.225	-0.161
-639.653	-116.250	-0.546	-0.101
-638.638	341.649	0.058	0.114
-637.624	-140.075	-0.418	0.044
-636.609	-200.000	-0.040	-0.188
-635.595	116.091	-0.047	0.057
-634.580	216.713	0.166	0.262
-633.565	-33.799	-0.203	-0.112
-632.551	-52.669	-0.147	0.067
-631.536	-200.000	0.078	0.384
-630.522	226.054	-0.092	0.148
-629.507	48.526	-0.093	0.086
-628.492	-144.010	0.133	0.012
-627.478	171.800	-0.067	0.096
-626.463	146.387	0.032	0.043
-625.449	392.645	0.071	-0.147
-624.434	348.863	-0.068	0.134
-623.419	-77.737	-0.151	0.052
-622.405	800.000	-0.061	0.253
-621.390	284.986	0.248	0.444
-620.376	86.362	-0.101	-0.111
-619.361	76.808	-0.090	0.095
-618.346	-1.327	-0.495	-0.348
-617.332	-128.839	0.147	0.021
-616.317	393.515	-0.092	-0.190
-615.303	238.362	0.121	-0.200
-614.288	-17.967	-0.581	-0.363
-613.273	383.637	0.152	0.312
-612.259	47.688	-0.197	0.183
-611.244	-200.000	0.001	0.050
-610.230	-75.437	-0.059	-0.021
-609.215	-200.000	-0.034	0.299
-608.201	-200.000	-0.053	0.269
-607.186	-87.173	0.354	-0.107
-606.171	-200.000	0.032	0.230
-605.157	-57.034	-0.284	-0.124
-604.142	-144.602	0.336	0.031
-603.128	-126.935	-0.383	0.056
-602.113	-16.986	0.079	-0.050
-601.098	-200.000	-0.007	-0.193
-600.084	-200.000	-0.065	-0.380
-599.069	73.870	0.134	0.139
-598.055	29.142	-0.055	0.047
-597.040	-83.423	-0.290	-0.092
-596.025	800.000	0.044	-0.171
-595.011	189.421	0.069	-0.103
-593.996	-63.259	0.280	-0.115
-592.982	-200.000	0.019	-0.225
-591.967	-102.828	0.257	-0.061
-590.952	-30.599	0.200	-0.113
-589.938	31.120	-0.030	0.025
-588.923	-200.000	-0.029	-0.136
-587.909	800.000	0.174	-0.555
-586.894	-53.059	-0.217	-0.099
-585.879	183.590	-0.151	-0.223
-584.865	142.952	-0.092	-0.122
-583.850	-114.087	-0.433	-0.083
-582.836	-8.128	0.166	-0.111
-581.821	-200.000	0.063	-0.414
-580.806	199.500	0.144	-0.219
-579.792	800.000	0.031	-0.128
-578.777	28.159	-0.100	0.084
-577.763	-200.000	0.034	-0.472
-576.748	258.497	0.121	0.207
-575.733	-200.000	0.022	-0.171
-574.719	-59.163	-0.222	0.095
-573.704	292.841	-0.084	-0.152
-572.690	407.269	0.031	0.066
-571.675	81.664	-0.214	0.230
-570.661	92.902	0.063	0.071
-569.646	-38.190	0.230	0.121
-568.631	-200.000	-0.008	0.039
-567.617	3.589	0.167	-0.121
-566.602	196.395	0.187	0.282
-565.588	800.000	-0.068	0.289
-564.573	-168.269	-0.133	-0.005
-563.558	40.601	0.214	-0.191
-562.544	-111.776	-0.292	-0.059
-561.529	402.738	0.164	0.343
-560.515	-141.163	0.329	0.033
-559.500	800.000	-0.041	-0.154
-558.485	273.143	0.042	0.074
-557.471	800.000	0.104	0.369
-556.456	-78.888	0.181	0.061
-555.442	-20.526	-0.076	0.047
-554.427	111.342	0.138	0.165
-553.412	-200.000	-0.021	-0.110
-552.398	-200.000	-0.007	0.208
-551.383	26.014	-0.117	-0.097
-550.369	18.227	0.124	0.099
-549.354	638.792	0.167	-0.422
-548.339	-106.687	0.376	-0.083
-547.325	-200.000	0.010	0.444
-546.310	-0.847	0.108	0.076
-545.296	-42.746	-0.227	-0.114
-544.281	-117.806	0.245	-0.044
-543.266	-200.000	0.013	-0.289
-542.252	-155.171	0.401	-0.026
-541.237	-200.000	-0.010	0.122
-540.223	-91.948	-0.309	0.087
-539.208	-109.923	-0.066	-0.014
-538.193	12.279	-0.326	0.249
-537.179	-183.293	0.046	-0.001
-536.164	-200.000	-0.021	-0.193
-535.150	-200.000	0.023	0.145
-534.135	81.655	0.313	-0.336
-533.121	106.431	-0.232	-0.273
-532.106	81.274	-0.098	0.105
-531.091	-200.000	-0.003	0.368
-530.077	-200.000	-0.025	-0.311
-529.062	342.437	-0.070	-0.135
-528.048	112.035	0.105	-0.126
-527.033	184.059	0.237	0.348
-526.018	-125.050	-0.247	-0.038
-525.004	343.264	-0.106	-0.206
-523.989	-100.096	0.281	0.069
-522.975	-77.851	-0.190	0.065
-521.960	233.491	-0.138	-0.225
-520.945	-94.960	0.200	0.054
-519.931	-78.764	-0.310	0.105
-518.916	800.000	-0.065	0.230
-517.902	-43.580	-0.402	0.201
-516.887	-200.000	-0.009	0.124
-515.872	-72.942	0.053	-0.019
-514.858	-137.581	0.644	0.072
-513.843	-142.226	-0.257	0.025
-512.829	116.958	-0.093	0.113
-511.814	800.000	0.014	0.048
-510.799	90.875	-0.050	0.056
-509.785	-83.396	0.449	-0.143
-508.770	-151.209	-0.145	0.011
-507.756	459.252	-0.088	-0.194
-506.741	-200.000	0.056	0.372
-505.726	62.812	0.091	0.090
-504.712	-136.066	-0.168	-0.019
-503.697	-16.776	0.181	0.113
-502.683	-200.000	0.006	-0.177
-501.668	-76.046	-0.373	-0.131
-500.653	204.164	-0.054	-0.084
-499.639	-117.516	0.110	0.020
-498.624	70.640	0.113	-0.116
-497.610	-200.000	0.046	0.212
-496.595	-200.000	0.038	0.278
-495.581	-129.290	-0.201	0.028
-494.566	9.524	0.035	0.027
-493.551	195.099	-0.082	-0.123
-492.537	103.088	0.180	-0.209
-491.522	-41.563	-0.254	0.129
-490.508	-200.000	-0.033	0.196
-489.493	-130.928	0.203	0.027
-488.478	115.270	-0.123	-0.148
-487.464	-134.614	-0.251	-0.030
-486.449	-80.931	0.180	-0.059
-485.435	-200.000	0.051	-0.407
-484.420	800.000	0.022	-0.067
-483.405	-101.630	-0.294	0.071
-482.391	-200.000	0.027	-0.120
-481.376	-105.764	-0.207	0.046
-480.362	-153.454	0.297	-0.020
-479.347	42.144	-0.074	-0.066
-478.332	-106.813	0.091	-0.020
-477.318	18.129	0.180	-0.142
-476.303	-162.815	0.302	-0.015
-475.289	384.927	-0.196	0.401
-474.274	-97.963	0.073	0.019
-473.259	70.685	0.149	-0.153
-472.245	288.230	-0.208	-0.373
-471.230	-96.952	0.057	-0.015
-470.216	-44.709	-0.066	-0.033
-469.201	-12.238	0.063	-0.041
-468.186	-16.604	0.324	-0.203
-467.172	278.202	-0.058	-0.102
-466.157	-37.789	-0.306	-0.161
-465.143	-39.824	-0.284	0.147
-464.128	-29.372	-0.239	-0.135
-463.113	800.000	-0.032	-0.089
-462.099	43.315	-0.186	-0.168
-461.084	-105.636	0.125	-0.028
-460.070	741.694	-0.045	0.119
-459.055	800.000	-0.092	-0.254
-458.040	-134.859	0.243	-0.029
-457.026	800.000	-0.172	0.499
-456.011	224.884	0.080	0.128
-454.997	800.000	0.061	-0.262
-453.982	21.453	-0.145	-0.117
-452.968	122.466	0.107	0.133
-451.953	72.607	0.217	0.224
-450.938	-200.000	0.048	-0.220
-449.924	288.567	0.137	-0.246
-448.909	-200.000	0.032	-0.153
-447.895	282.766	-0.019	0.033
-446.880	79.029	0.142	-0.151
-445.865	-92.909	-0.327	-0.090
-444.851	-200.000	-0.063	-0.273
-443.836	104.363	0.078	-0.091
-442.822	625.381	-0.038	0.096
-441.807	-29.117	0.198	0.112
-440.792	-19.184	0.280	0.172
-439.778	142.254	-0.214	0.281
-438.763	-200.000	0.023	0.175
-437.749	96.749	-0.141	0.160
-436.734	-107.885	-0.119	-0.026
-435.719	-39.884	-0.137	-0.071
-434.705	-142.072	-0.380	-0.037
-433.690	-5.278	0.300	-0.204
-432.676	15.358	-0.013	-0.010
-431.661	-1.433	0.179	0.125
-430.646	-96.066	-0.192	-0.051
-429.632	-200.000	0.026	-0.196
-428.617	368.794	-0.026	-0.053
-427.603	-103.045	0.246	-0.058
-426.588	484.694	0.011	-0.025
-425.573	33.446	0.163	-0.140
-424.559	-88.951	-0.362	-0.106
-423.544	-200.000	-0.038	0.241
-422.530	355.869	-0.098	0.194
-421.515	-59.761	0.112	0.047
-420.500	159.380	-0.171	-0.235
-419.486	800.000	0.042	0.151
-418.471	-78.242	0.372	-0.126
-417.457	-19.364	-0.294	0.180
-416.442	79.558	-0.271	0.287
-415.428	800.000	0.003	0.012
-414.413	108.607	0.297	0.350
-413.398	141.106	0.123	-0.161
-412.384	-79.846	-0.188	0.062
-411.369	15.613	-0.246	0.191
-410.355	477.894	0.103	0.230
-409.340	54.374	0.090	-0.086
-408.325	-81.918	-0.122	0.039
-407.311	800.000	-0.039	0.166
-406.296	-200.000	-0.012	0.081
-405.282	-200.000	0.000	0.011
-404.267	-122.119	-0.142	0.023
-403.252	-178.382	-0.279	-0.006
-402.238	-40.821	0.295	-0.151
-401.223	3.571	0.125	0.090
-400.209	137.736	-0.275	0.355
-399.194	-157.825	0.316	0.019
-398.179	-200.000	0.035	-0.460
-397.165	-200.000	-0.011	0.133
-396.150	575.118	0.087	0.210
-395.136	488.549	-0.049	0.110
-394.121	23.582	-0.055	-0.045
-393.106	207.838	-0.117	0.180
-392.092	13.142	0.188	-0.143
-391.077	-200.000	0.065	-0.384
-390.063	402.135	0.049	0.101
-389.048	-139.381	-0.135	-0.014
-388.033	141.980	-0.056	0.073
-387.019	184.458	0.211	-0.308
-386.004	104.748	0.194	0.226
-384.990	-123.947	0.217	-0.034
-383.975	-173.395	-0.182	0.005
-382.960	-200.000	-0.043	0.262
-381.946	149.037	0.149	0.199
-380.931	800.000	-0.016	-0.047
-379.917	800.000	-0.083	-0.245
-378.902	800.000	-0.034	-0.119
-377.888	-119.859	-0.176	-0.030
-376.873	-200.000	-0.002	0.046
-375.858	-200.000	-0.027	-0.138
-374.844	130.335	-0.118	-0.148
-373.829	-29.977	-0.268	-0.151
-372.815	-145.929	0.208	0.018
-371.800	-52.596	0.110	-0.050
-370.785	-200.000	-0.007	0.240
-369.771	-200.000	0.005	-0.139
-368.756	-200.000	0.006	-0.471
-367.742	800.000	0.037	0.125
-366.727	-200.000	-0.002	-0.106
-365.712	-109.669	0.258	-0.054
-364.698	-92.409	-0.154	-0.043
-363.683	88.334	0.197	-0.216
-362.669	577.159	-0.127	-0.306
-361.654	-129.364	0.342	0.047
-360.639	-45.446	-0.172	0.084
-359.625	-139.462	0.206	0.022
-358.610	142.022	0.106	0.138
-357.596	517.776	0.157	0.362
-356.581	-63.272	0.420	0.170
-355.566	-122.313	0.427	-0.069
-354.552	138.534	-0.175	-0.226
-353.537	-95.287	-0.257	-0.068
-352.523	-200.000	0.003	-0.050
-351.508	44.269	0.194	-0.176
-350.493	158.064	-0.116	-0.159
-349.479	712.150	0.089	-0.231
-348.464	16.295	0.027	-0.021
-347.450	-112.141	0.236	-0.047
-346.435	-200.000	0.007	0.106
-345.420	-200.000	-0.040	-0.502
-344.406	-200.000	0.126	0.000
-343.391	0.079	-0.132	-0.093
-342.377	-200.000	-0.010	-0.236
-341.362	-92.260	-0.336	-0.093
-340.348	79.645	0.149	0.158
-339.333	-99.393	-0.439	-0.109
-338.318	330.595	-0.039	-0.075
-337.304	63.692	-0.053	-0.052
-336.289	-102.788	0.085	-0.020
-335.275	8.385	-0.263	0.195
-334.260	-51.396	0.079	-0.037
-333.245	-104.141	0.348	0.080
-332.231	-31.122	0.262	-0.145
-331.216	-135.593	0.357	-0.042
-330.202	-28.658	0.300	-0.170
-329.187	-130.759	-0.143	0.019
-328.172	-200.000	0.003	0.266
-327.158	49.524	-0.184	-0.170
-326.143	-200.000	0.042	0.214
-325.129	-79.960	0.192	0.063
-324.114	413.243	0.122	0.255
-323.099	-200.000	-0.038	-0.337
-322.085	-48.808	-0.248	-0.117
-321.070	-94.041	0.188	0.051
-320.056	-83.204	0.026	-0.008
-319.041	260.672	-0.075	0.128
-318.026	54.369	0.078	0.074
-317.012	-87.883	0.158	0.047
-315.997	-151.262	0.073	-0.005
-314.983	13.296	-0.207	-0.158
-313.968	67.701	-0.385	0.387
-312.953	-44.276	-0.205	0.101
-311.939	-200.000	0.035	-0.155
-310.924	107.412	0.113	0.133
-309.910	-142.629	0.125	-0.012
-308.895	-29.141	-0.002	-0.001
-307.880	184.499	0.111	-0.161
-306.866	800.000	-0.041	-0.126
-305.851	-6.588	0.028	0.019
-304.837	-121.501	-0.177	-0.029
-303.822	7.096	-0.308	0.226
-302.807	-150.154	0.306	-0.023
-301.793	-200.000	-0.045	-0.240
-300.778	34.764	-0.076	0.065
-299.764	800.000	0.095	-0.261
-298.749	-140.354	0.204	-0.021
-297.735	265.803	-0.095	0.162
-296.720	87.415	0.025	0.027
-295.705	-124.021	0.158	-0.024
-294.691	3.008	0.172	-0.123
-293.676	114.987	-0.252	-0.302
-292.662	152.986	-0.149	0.200
-291.647	-152.353	-0.282	-0.020
-290.632	-115.649	0.233	-0.043
-289.618	-132.900	-0.178	-0.022
-288.603	-55.047	-0.190	-0.084
-287.589	-74.901	0.228	0.080
-286.574	13.062	0.212	-0.161
-285.559	-9.722	-0.377	-0.247
-284.545	433.700	-0.248	-0.529
-283.530	672.133	0.058	-0.149
-282.516	426.100	0.095	0.201
-281.501	-62.721	-0.198	0.081
-280.486	-29.708	-0.207	-0.116
-279.472	121.492	-0.191	-0.234
-278.457	-37.646	0.185	0.097
-277.443	-93.399	-0.073	0.020
-276.428	209.874	0.224	-0.346
-275.413	179.664	-0.189	-0.272
-274.399	345.552	0.146	0.282
-273.384	288.002	-0.094	-0.168
-272.370	789.697	-0.139	0.375
-271.355	-41.965	-0.369	0.186
-270.340	-200.000	0.065	-0.353
-269.326	-103.671	-0.142	-0.033
-268.311	-8.394	0.066	-0.044
-267.297	-120.032	0.300	-0.051
-266.282	-34.253	-0.296	0.160
-265.267	-100.652	0.183	-0.044
-264.253	-200.000	-0.016	-0.228
-263.238	-135.955	-0.174	-0.020
-262.224	10.454	-0.277	0.207
-261.209	398.073	0.138	-0.283
-260.195	-67.329	0.091	-0.035
-259.180	-107.681	0.123	-0.026
-258.165	-15.173	0.170	-0.107
-257.151	75.941	0.255	0.265
-256.136	786.068	0.039	0.105
-255.122	-187.853	0.282	-0.004
-254.107	-177.743	0.247	-0.006
-253.092	286.249	-0.051	-0.090
-252.078	-200.000	0.007	0.176
-251.063	800.000	-0.042	-0.124
-250.049	29.217	0.085	-0.071
-249.034	291.247	-0.066	0.118
-248.019	-24.690	-0.163	0.095
-247.005	-73.653	0.160	-0.057
-245.990	-92.695	-0.169	-0.046
-244.976	340.252	-0.157	-0.301
-243.961	-42.511	-0.049	0.024
-242.946	-118.008	0.207	0.036
-241.932	-200.000	0.059	-0.274
-240.917	-50.055	0.126	0.059
-239.903	-47.401	0.325	-0.155
-238.888	104.533	0.102	-0.117
-237.873	6.891	-0.286	0.209
-236.859	-144.147	-0.210	0.019
-235.844	-3.961	0.246	0.167
-234.830	-89.408	-0.137	0.040
-233.815	-61.463	-0.290	0.120
-232.800	477.610	-0.097	0.215
-231.786	80.965	0.137	-0.145
-230.771	-200.000	0.011	0.072
-229.757	-100.308	-0.178	0.043
-228.742	-35.859	-0.599	0.318
-227.727	-84.062	-0.111	-0.035
-226.713	800.000	-0.187	0.532
-225.698	83.106	0.097	-0.103
-224.684	156.343	0.206	0.279
-223.669	-130.357	0.138	0.018
-222.655	-200.000	-0.014	-0.222
-221.640	28.577	-0.083	-0.068
-220.625	800.000	-0.039	-0.110
-219.611	-200.000	0.001	-0.015
-218.596	-81.783	0.519	-0.167
-217.582	-200.000	0.029	-0.338
-216.567	-200.000	0.028	0.196
-215.552	-200.000	-0.002	-0.164
-214.538	-200.000	-0.062	0.379
-213.523	44.030	-0.129	0.116
-212.509	-200.000	0.054	0.377
-211.494	19.694	-0.231	0.182
-210.479	800.000	-0.059	0.160
-209.465	-126.237	-0.163	-0.024
-208.450	-200.000	0.019	-0.105
-207.436	530.166	0.072	0.166
-206.421	800.000	-0.095	0.291
-205.406	190.877	0.293	-0.432
-204.392	800.000	0.071	0.250
-203.377	570.762	0.064	0.153
-202.363	-63.727	0.187	0.075
-201.348	132.291	0.106	-0.134
-200.333	-13.859	-0.140	-0.089
-199.319	-106.896	-0.275	0.060
-198.304	-17.384	0.138	0.085
-197.290	100.870	-0.240	0.274
-196.275	-200.000	0.019	0.194
-195.260	311.267	-0.119	-0.219
-194.246	136.377	0.027	-0.034
-193.231	-200.000	0.000	-0.228
-192.217	183.124	-0.141	0.203
-191.202	-192.135	0.306	-0.003
-190.187	-158.169	0.131	0.008
-189.173	-29.505	-0.050	0.028
-188.158	800.000	0.030	0.115
-187.144	-200.000	0.010	0.092
-186.129	-105.661	0.217	0.048
-185.114	-87.239	-0.150	0.045
-184.100	800.000	-0.084	0.303
-183.085	237.635	-0.054	-0.088
-182.071	373.281	-0.069	-0.136
-181.056	-24.835	-0.401	-0.233
-180.042	-128.893	0.273	-0.038
-179.027	-200.000	0.040	-0.195
-178.012	-70.470	-0.253	0.094
-176.998	745.813	-0.057	-0.151
-175.983	11.448	0.285	-0.214
-174.969	92.792	0.184	-0.203
-173.954	-78.634	0.088	-0.029
-172.939	85.253	0.091	0.097
-171.925	164.130	0.076	0.104
-170.910	-90.015	0.400	-0.114
-169.896	-200.000	-0.028	0.295
-168.881	-14.683	0.172	0.108
-167.866	78.215	-0.242	0.252
-166.852	119.662	0.203	0.246
-165.837	-200.000	-0.000	0.118
-164.823	-49.573	0.256	0.119
-163.808	-5.160	0.185	-0.125
-162.793	800.000	-0.092	-0.260
-161.779	356.587	-0.151	0.294
-160.764	-45.479	0.046	0.022
-159.750	-200.000	0.008	-0.111
-158.735	470.503	0.055	0.122
-157.720	292.299	-0.026	-0.047
-156.706	614.578	0.058	0.142
-155.691	281.922	-0.070	0.123
-154.677	-200.000	0.016	0.426
-153.662	-200.000	-0.004	0.155
-152.647	800.000	0.106	0.322
-151.633	-95.470	-0.208	-0.055
-150.618	147.082	-0.131	0.172
-149.604	800.000	0.029	-0.090
-148.589	-200.000	-0.008	-0.034
-147.574	-153.651	0.259	0.017
-146.560	-200.000	-0.008	0.257
-145.545	-200.000	0.006	-0.096
-144.531	-99.858	0.067	0.016
-143.516	-186.933	-0.248	0.003
-142.502	-4.112	0.369	0.250
-141.487	-0.890	0.215	0.149
-140.472	234.090	-0.067	0.108
-139.458	337.654	-0.161	0.305
-138.443	-131.476	0.488	-0.063
-137.429	-169.052	0.349	0.013
-136.414	-166.434	-0.201	-0.008
-135.399	19.958	0.155	0.122
-134.385	542.026	-0.099	0.230
-133.370	-96.939	0.044	-0.011
-132.356	612.832	0.099	0.241
-131.341	-74.599	0.092	-0.032
-130.326	-172.146	-0.417	-0.013
-129.312	-122.622	0.267	0.042
-128.297	-107.775	-0.331	-0.071
-127.283	-3.549	0.125	-0.085
-126.268	-84.122	0.169	0.052
-125.253	-73.758	-0.102	0.036
-124.239	-200.000	-0.024	-0.104
-123.224	-167.610	0.178	0.007
-122.210	-200.000	0.036	0.240
-121.195	800.000	-0.049	-0.157
-120.180	289.399	0.104	0.184
-119.166	106.954	0.086	0.100
-118.151	-179.720	-0.227	-0.005
-117.137	11.785	-0.121	0.090
-116.122	-73.915	-0.154	0.055
-115.107	-200.000	-0.001	-0.062
-114.093	-51.291	0.291	-0.133
-113.078	-200.000	0.021	-0.150
-112.064	800.000	-0.047	-0.158
-111.049	800.000	0.067	-0.265
-110.034	101.558	0.173	0.196
-109.020	800.000	-0.091	-0.273
-108.005	-200.000	-0.000	0.016
-106.991	-94.579	-0.151	-0.040
-105.976	6.656	0.184	0.133
-104.962	-200.000	0.026	-0.377
-103.947	232.852	0.070	0.112
-102.932	603.983	-0.037	-0.090
-101.918	-85.691	-0.287	0.087
-100.903	-6.947	-0.381	-0.253
-99.889	-23.388	-0.261	-0.153
-98.874	799.639	0.028	-0.075
-97.859	-6.991	-0.198	0.131
-96.845	-178.480	0.313	0.007
-95.830	-200.000	-0.066	0.482
-94.816	192.746	-0.178	0.263
-93.801	110.853	-0.011	-0.013
-92.786	263.842	0.084	-0.143
-91.772	-59.777	-0.249	0.104
-90.757	-28.939	0.263	-0.148
-89.743	-63.347	0.178	-0.071
-88.728	-52.430	-0.123	-0.056
-87.713	-190.154	-0.256	0.003
-86.699	48.123	0.146	-0.133
-85.684	194.335	-0.125	-0.185
-84.670	20.359	-0.131	-0.103
-83.655	18.035	-0.230	-0.179
-82.640	-31.528	0.301	-0.165
-81.626	236.270	-0.023	0.038
-80.611	-130.384	0.314	0.042
-79.597	27.821	0.260	-0.213
-78.582	-61.500	0.226	0.093
-77.567	-32.895	0.304	-0.165
-76.553	800.000	-0.067	0.251
-75.538	313.094	0.084	-0.154
-74.524	-149.908	0.088	-0.007
-73.509	115.197	-0.249	-0.296
-72.494	-186.402	-0.226	-0.003
-71.480	-168.315	0.121	0.005
-70.465	-94.107	0.254	-0.068
-69.451	571.094	-0.060	-0.143
-68.436	332.401	-0.047	-0.088
-67.422	588.005	-0.060	0.144
-66.407	-178.240	0.197	-0.005
-65.392	-200.000	0.042	-0.227
-64.378	-200.000	-0.077	0.485
-63.363	800.000	-0.051	0.191
-62.349	52.129	0.232	-0.215
-61.334	77.321	-0.916	-0.949
-60.319	168.286	0.574	0.796
-59.305	262.832	-0.787	-1.331
-58.290	471.646	0.682	1.494
-57.276	800.000	0.426	1.514
-56.261	-200.000	123.130	649.068
-55.246	431.105	1548.290	3265.944
-54.232	147.157	2698.937	3536.742
-53.217	97.351	2165.472	2421.136
-52.203	34.457	1689.280	1436.235
-51.188	27.112	1507.924	1232.391
-50.173	25.023	1484.396	1199.145
-49.159	48.491	1556.122	1419.325
-48.144	46.256	1567.939	1414.694
-47.130	27.072	1516.953	1239.296
-46.115	24.213	1501.124	1206.980
-45.100	24.049	1497.823	1203.171
-44.086	23.921	1496.338	1201.064
-43.071	23.981	1493.959	1199.514
-42.057	23.965	1492.284	1198.014
-41.042	23.969	1490.852	1196.842
-40.027	24.056	1488.962	1195.863
-39.013	23.932	1487.868	1194.108
-37.998	24.021	1486.156	1193.278
-36.984	23.967	1485.456	1192.307
-35.969	23.817	1484.269	1190.308
-34.954	23.899	1482.072	1189.042
-33.940	23.887	1480.739	1187.846
-32.925	23.980	1479.591	1187.499
-31.911	23.956	1478.896	1186.735
-30.896	23.907	1477.666	1185.373
-29.881	23.992	1476.438	1184.907
-28.867	24.005	1475.019	1183.808
-27.852	23.937	1473.377	1181.995
-26.838	24.068	1471.943	1181.665
-25.823	24.048	1470.370	1180.225
-24.809	24.046	1468.538	1178.688
-23.794	23.999	1467.857	1177.789
-22.779	24.072	1465.793	1176.564
-21.765	23.982	1465.252	1175.489
-20.750	24.056	1464.372	1175.226
-19.736	23.933	1463.400	1173.590
-18.721	23.951	1462.457	1172.908
-17.706	23.950	1461.446	1172.042
-16.692	23.997	1460.024	1171.162
-15.677	24.049	1459.253	1170.844
-14.663	23.893	1458.605	1169.252
-13.648	23.964	1457.010	1168.391
-12.633	23.915	1456.692	1167.764
-11.619	23.941	1455.726	1167.118
-10.604	23.944	1454.651	1166.231
-9.590	23.815	1454.185	1164.960
-8.575	23.884	1452.792	1164.250
-7.560	23.967	1452.027	1164.134
-6.546	23.944	1450.831	1162.978
-5.531	23.909	1450.318	1162.294
-4.517	23.957	1449.026	1161.526
-3.502	24.022	1448.032	1161.106
-2.487	23.962	1447.168	1159.979
-1.473	23.980	1446.343	1159.385
-0.458	23.981	1444.999	1158.272
0.556	22.952	1434.988	1146.457
1.571	19.684	1410.500	1105.914
2.586	16.129	1349.177	1035.939
3.600	14.289	1267.633	962.614
4.615	13.447	1224.069	924.745
5.629	11.813	1168.124	873.685
6.644	6.155	1087.936	785.439
7.659	1.436	1052.029	736.612
8.673	0.874	1047.057	730.353
9.688	0.811	1043.639	727.599
10.702	0.735	1042.230	726.189
11.717	0.690	1040.481	724.690
12.731	2.531	1041.424	734.112
13.746	8.910	1049.240	770.285
14.761	14.938	1057.148	805.117
15.775	17.381	1059.113	818.311
16.790	17.027	1058.528	816.085
17.804	16.033	1056.192	809.438
18.819	15.125	1054.463	803.686
19.834	14.796	1052.895	800.845
20.848	14.570	1052.343	799.269
21.863	14.223	1051.508	796.904
22.877	14.044	1050.374	795.120
23.892	13.958	1049.578	794.035
24.907	13.750	1048.784	792.368
25.921	13.739	1047.941	791.609
26.936	13.776	1047.704	791.536
27.950	13.790	1047.031	791.026
28.965	13.827	1045.783	790.191
29.980	13.792	1045.149	789.474
30.994	13.836	1044.287	788.963
32.009	13.954	1043.206	788.635
33.023	13.941	1042.495	787.967
34.038	14.106	1041.642	788.034
35.053	14.083	1040.654	787.107
36.067	13.981	1039.990	786.053
37.082	13.941	1039.136	785.149
38.096	13.921	1038.244	784.311
39.111	13.941	1037.922	784.092
40.126	13.843	1037.056	782.911
41.140	13.889	1036.235	782.436
42.155	13.853	1035.092	781.335
43.169	13.738	1034.243	780.086
44.184	13.762	1033.074	779.246
45.199	13.699	1032.101	778.148
46.213	13.836	1030.840	777.771
47.228	13.819	1029.775	776.816
48.242	13.824	1029.172	776.317
49.257	13.768	1028.211	775.261
50.271	13.843	1026.744	774.437
51.286	13.906	1025.868	774.004
52.301	13.907	1025.357	773.551
53.315	13.868	1024.730	772.828
54.330	13.802	1024.131	772.004
55.344	13.818	1022.565	770.828
56.359	13.839	1022.039	770.461
57.374	13.851	1021.118	769.753
58.388	13.744	1020.516	768.734
59.403	13.782	1019.487	768.068
60.417	13.797	1019.307	767.935
61.432	13.839	1018.225	767.245
62.447	13.803	1017.455	766.432
63.461	13.844	1015.993	765.454
64.476	13.677	1015.445	764.201
65.490	13.725	1014.692	763.789
66.505	13.713	1013.769	762.972
67.520	13.661	1013.442	762.419
68.534	13.702	1012.435	761.779
69.549	13.792	1011.511	761.433
70.563	13.790	1010.360	760.491
71.578	13.739	1010.228	760.086
72.593	13.902	1009.106	759.920
73.607	13.677	1008.374	758.273
74.622	13.700	1006.996	757.278
75.636	13.654	1006.457	756.595
76.651	13.576	1006.181	755.963
77.666	13.718	1004.882	755.566
78.680	13.651	1004.528	754.930
79.695	13.692	1003.787	754.491
80.709	13.660	1003.207	753.845
81.724	13.735	1002.455	753.555
82.739	13.855	1001.595	753.385
83.753	13.819	1000.868	752.609
84.768	13.869	999.976	752.099
85.782	13.957	999.012	751.707
86.797	13.936	998.251	750.972
87.812	13.899	997.642	750.279
88.826	13.927	996.765	749.679
89.841	13.888	995.818	748.724
90.855	13.941	994.755	748.099
91.870	13.828	994.356	747.223
92.884	13.840	994.180	747.077
93.899	13.922	993.176	746.628
94.914	13.961	992.096	745.926
95.928	13.935	991.979	745.653
96.943	13.996	990.703	744.902
97.957	13.979	990.107	744.310
98.972	13.965	989.392	743.645
99.987	14.005	988.354	742.977
101.001	13.966	988.164	742.596
102.016	14.036	987.217	742.129
103.030	13.944	986.330	740.987
104.045	13.956	985.063	740.022
105.060	14.064	984.108	739.720
106.074	13.957	982.827	738.216
107.089	13.873	982.326	737.401
108.103	14.041	981.077	737.144
109.118	13.935	980.273	736.008
110.133	13.780	979.952	735.012
111.147	13.724	979.228	734.159
112.162	13.844	977.921	733.643
113.176	13.867	977.081	733.051
114.191	13.936	976.511	732.861
115.206	13.815	975.855	731.771
116.220	13.828	974.640	730.852
117.235	13.932	974.050	730.805
118.249	13.923	972.923	729.854
119.264	13.946	972.280	729.408
120.279	13.787	970.974	727.666
121.293	14.067	970.157	728.218
122.308	13.789	970.154	726.931
123.322	13.918	968.862	726.464
124.337	13.808	968.395	725.567
125.352	13.764	967.114	724.351
126.366	13.846	965.667	723.560
127.381	13.987	964.267	723.061
128.395	13.776	963.807	721.735
129.410	13.854	962.854	721.296
130.424	13.760	962.218	720.351
131.439	13.932	961.024	720.138
132.454	13.936	960.322	719.565
133.468	13.902	959.488	718.730
134.483	13.859	959.140	718.216
135.497	13.927	958.167	717.719
136.512	13.969	957.147	717.073
137.527	14.096	956.108	716.780
138.541	13.959	956.020	716.061
139.556	13.876	955.342	715.131
140.570	13.991	954.286	714.772
141.585	13.978	953.497	714.063
142.600	14.024	953.113	713.908
143.614	13.987	952.584	713.292
144.629	14.107	951.352	712.817
145.643	14.223	950.266	712.438
146.658	13.991	950.327	711.427
147.673	14.058	948.971	710.635
148.687	13.988	948.351	709.812
149.702	13.864	947.309	708.441
150.716	13.993	946.125	708.039
151.731	14.083	945.732	708.069
152.746	14.052	945.036	707.350
153.760	14.079	944.175	706.757
154.775	13.975	943.475	705.730
155.789	14.008	942.842	705.334
156.804	14.134	941.482	704.788
157.819	14.132	941.115	704.444
158.833	14.078	940.608	703.774
159.848	14.247	939.467	703.571
160.862	14.207	939.172	703.120
161.877	14.183	938.577	702.510
162.892	14.141	937.713	701.623
163.906	14.104	936.691	700.640
164.921	14.177	935.442	699.952
165.935	14.195	934.668	699.388
166.950	14.133	933.911	698.497
167.964	14.231	932.891	698.086
168.979	14.254	931.675	697.211
169.994	14.174	930.956	696.277
171.008	14.231	930.068	695.787
172.023	14.250	929.239	695.184
173.037	14.216	928.790	694.648
174.052	14.286	928.049	694.321
175.067	14.335	926.881	693.590
176.081	14.137	926.441	692.375
177.096	14.368	925.653	692.684
178.110	14.217	924.903	691.438
179.125	14.338	924.130	691.298
180.140	14.277	923.164	690.261
181.154	14.226	922.817	689.730
182.169	14.336	921.908	689.445
183.183	14.243	921.522	688.712
184.198	14.283	920.879	688.335
185.213	14.481	919.802	688.289
186.227	14.414	919.417	687.663
187.242	14.531	918.871	687.676
188.256	14.303	918.286	686.238
189.271	14.519	917.802	686.702
190.286	14.496	916.705	685.727
191.300	14.389	916.319	684.939
192.315	14.512	915.073	684.452
193.329	14.509	914.152	683.690
194.344	14.312	913.982	682.696
195.359	14.513	912.971	682.702
196.373	14.516	912.959	682.644
197.388	14.359	912.528	681.621
198.402	14.368	912.106	681.281
199.417	14.553	911.069	681.202
200.432	14.814	910.352	681.669
201.446	14.749	909.987	681.072
202.461	14.811	909.469	680.878
203.475	14.786	909.201	680.512
204.490	14.705	908.816	679.836
205.504	14.764	907.818	679.267
206.519	14.775	906.754	678.459
207.534	14.747	906.080	677.781
208.548	14.616	905.479	676.739
209.563	14.668	905.035	676.556
210.577	14.663	903.972	675.684
211.592	14.728	903.627	675.628
212.607	14.782	903.341	675.573
213.621	14.850	902.293	675.004
214.636	14.905	901.482	674.560
215.650	14.808	901.281	673.956
216.665	14.828	900.607	673.475
217.680	14.868	899.981	673.110
218.694	14.836	899.504	672.562
219.709	15.036	898.894	672.852
220.723	15.033	898.165	672.235
221.738	14.933	897.476	671.256
222.753	14.997	896.570	670.777
223.767	14.940	896.062	670.109
224.782	15.024	895.051	669.632
225.796	14.956	894.724	669.054
226.811	15.179	893.795	669.192
227.826	15.163	893.033	668.500
228.840	15.091	892.711	667.912
229.855	15.022	892.260	667.239
230.869	14.910	891.506	666.170
231.884	14.926	890.914	665.731
232.899	14.932	890.157	665.134
233.913	15.079	889.115	664.878
234.928	15.068	888.543	664.349
235.942	15.079	888.200	664.076
236.957	15.022	887.139	662.999
237.972	15.026	886.799	662.702
238.986	15.157	885.487	662.181
240.001	15.049	885.546	661.740
241.015	15.060	884.539	660.971
242.030	15.147	884.008	660.861
243.045	15.129	883.356	660.243
244.059	15.091	883.045	659.803
245.074	15.180	882.405	659.617
246.088	15.147	881.482	658.736
247.103	15.216	880.858	658.486
248.117	15.278	880.246	658.214
249.132	15.215	880.036	657.751
250.147	15.386	879.154	657.702
251.161	15.470	878.453	657.448
252.176	15.469	877.713	656.832
253.190	15.541	876.850	656.411
254.205	15.416	876.763	655.799
255.220	15.402	875.988	655.105
256.234	15.600	874.932	655.031
257.249	15.582	874.616	654.666
258.263	15.501	873.998	653.828
259.278	15.662	873.346	653.911
260.293	15.622	873.143	653.546
261.307	15.659	872.372	653.053
262.322	15.481	872.161	652.148
263.336	15.714	871.160	652.245
264.351	15.683	870.778	651.781
265.366	15.710	869.996	651.242
266.380	15.712	869.610	650.903
267.395	15.749	868.708	650.314
268.409	15.661	868.116	649.472
269.424	15.590	867.666	648.805
270.439	15.768	866.767	648.762
271.453	15.701	865.646	647.607
272.468	15.776	864.852	647.244
273.482	15.734	864.272	646.592
274.497	15.701	863.940	646.159
275.512	15.791	863.098	645.819
276.526	15.814	862.433	645.351
277.541	15.935	861.765	645.260
278.555	15.817	861.177	644.309
279.570	15.773	860.920	643.890
280.585	15.951	860.369	644.103
281.599	15.972	859.702	643.629
282.614	16.037	858.910	643.225
283.628	15.924	858.561	642.476
284.643	15.927	857.984	641.997
285.657	15.930	857.640	641.695
286.672	15.983	856.914	641.299
287.687	16.046	856.080	640.856
288.701	15.884	856.248	640.307
289.716	16.064	855.143	640.109
290.730	16.008	854.739	639.538
291.745	16.081	854.366	639.480
292.760	16.109	853.447	638.841
293.774	16.083	852.985	638.339
294.789	16.187	852.505	638.318
295.803	16.139	851.722	637.495
296.818	16.105	851.053	636.808
297.833	16.205	850.217	636.504
298.847	16.071	849.763	635.602
299.862	16.290	848.823	635.669
300.876	16.233	848.142	634.887
301.891	16.170	848.203	634.638
302.906	16.252	847.221	634.158
303.920	16.364	846.102	633.682
304.935	16.375	845.694	633.363
305.949	16.290	845.449	632.806
306.964	16.397	844.469	632.414
307.979	16.396	844.023	632.021
308.993	16.418	843.405	631.587
310.008	16.363	842.901	630.947
311.022	16.432	842.436	630.799
312.037	16.475	842.182	630.716
313.052	16.353	841.927	630.012
314.066	16.337	840.995	629.199
315.081	16.260	840.190	628.256
316.095	16.416	839.706	628.420
317.110	16.364	839.222	627.807
318.125	16.496	838.622	627.791
319.139	16.425	838.246	627.192
320.154	16.600	837.347	627.114
321.168	16.571	836.760	626.512
322.183	16.699	836.267	626.558
323.197	16.462	836.315	625.663
324.212	16.530	835.395	625.170
325.227	16.612	835.096	625.195
326.241	16.510	834.656	624.432
327.256	16.472	834.299	623.973
328.270	16.435	833.637	623.285
329.285	16.644	832.684	623.288
330.300	16.688	832.039	622.911
331.314	16.651	831.476	622.299
332.329	16.694	830.693	621.814
333.343	16.690	830.388	621.518
334.358	16.556	830.080	620.738
335.373	16.635	829.596	620.613
336.387	16.670	828.955	620.207
337.402	16.823	828.221	620.164
338.416	16.880	827.541	619.805
339.431	16.774	827.170	619.085
340.446	16.779	826.543	618.580
341.460	16.722	826.242	618.091
342.475	16.929	825.433	618.185
343.489	16.830	825.360	617.716
344.504	16.926	824.461	617.341
345.519	16.950	823.419	616.591
346.533	17.024	823.125	616.586
347.548	17.022	823.163	616.551
348.562	16.968	822.338	615.683
349.577	16.986	821.557	615.109
350.592	16.986	821.546	615.047
351.606	16.968	820.826	614.387
352.621	16.961	820.675	614.195
353.635	16.951	820.070	613.652
354.650	17.055	819.910	613.853
355.665	16.935	819.326	612.930
356.679	17.125	818.799	613.167
357.694	16.944	818.441	612.189
358.708	17.087	817.373	611.853
359.723	17.012	816.932	611.198
360.738	17.110	816.578	611.235
361.752	16.920	816.441	610.392
362.767	17.209	815.558	610.716
363.781	17.169	815.296	610.322
364.796	17.109	814.943	609.790
365.810	17.134	814.377	609.403
366.825	17.275	813.982	609.556
367.840	17.236	813.845	609.262
368.854	17.195	813.186	608.569
369.869	17.162	813.014	608.267
370.883	17.303	812.089	608.026
371.898	17.297	811.463	607.483
372.913	17.307	810.900	607.042
373.927	17.342	810.365	606.712
374.942	17.430	809.593	606.394
375.956	17.527	808.686	606.005
376.971	17.327	808.539	605.132
377.986	17.619	807.945	605.672
379.000	17.460	807.517	604.732
380.015	17.604	807.089	604.869
381.029	17.477	806.701	604.074
382.044	17.704	805.657	604.044
383.059	17.678	805.180	603.541
384.073	17.653	804.645	602.999
385.088	17.606	804.109	602.377
386.102	17.645	803.728	602.177
387.117	17.551	803.447	601.578
388.132	17.596	802.707	601.131
389.146	17.574	802.254	600.661
390.161	17.711	801.575	600.584
391.175	17.767	801.595	600.742
392.190	17.741	801.158	600.268
393.205	17.676	800.685	599.634
394.219	17.686	800.393	599.397
395.234	17.553	800.238	598.759
396.248	17.663	799.359	598.437
397.263	17.474	799.475	597.807
398.278	17.555	798.483	597.294
399.292	17.594	798.303	597.244
400.307	17.692	797.677	597.067
401.321	17.700	797.393	596.830
402.336	17.567	797.438	596.344
403.350	17.707	796.554	596.119
404.365	17.758	795.890	595.749
405.380	17.877	795.595	595.890
406.394	17.906	795.065	595.543
407.409	17.868	794.591	595.001
408.423	17.981	794.203	595.053
409.438	18.075	793.539	594.828
410.453	17.964	793.047	594.020
411.467	17.919	792.926	593.722
412.482	18.049	792.406	593.732
413.496	18.136	791.685	593.440
414.511	18.014	791.628	592.922
415.526	18.147	791.133	592.959
416.540	18.028	791.030	592.419
417.555	18.269	790.392	592.723
418.569	18.141	789.851	591.820
419.584	18.114	789.588	591.478
420.599	18.039	789.262	590.922
421.613	115.758	1296.697	1489.592
422.628	99.605	1370.599	1489.662
