DTS Sentinel unit serial number:	SN413079Multiplexer serial number:	ORYXHardware model number:	OX4-SRSoftware version number:	ORYX F/W v4.00 Oryx Data Collector v3.7.2.0data status	okinstallation	princeton_trtdifferential loss correction	single-endedforward channel	channel 3reverse channel	N/Adate	2019/09/16time	16:04:35forward acquisition time	60.00reverse acquisition time	0.00gamma	496.2192k internal	0.2293k external	0.2293temperature offset calibration	0.9945default loss term (dB/km)	0.3790temperature slope calibration	1.0000multiplexer offset coefficient	1.0000multiplexer slope coefficient	1.0000fibre end	0.00T internal ref (°C)	40.89T ext. ref 1 (°C)	14.91T ext. ref 2 (°C)	35.08length (m)	temperature (°C)	Stokes	anti-Stokes-747.200	-67.042	0.121	-0.049
-746.185	77.646	0.248	0.271
-745.171	43.551	0.262	0.245
-744.156	98.132	0.192	0.226
-743.142	-200.000	-0.068	0.318
-742.127	99.528	-0.249	0.294
-741.112	687.415	0.051	0.135
-740.098	-47.392	-0.447	0.223
-739.083	-142.636	-0.187	-0.019
-738.069	148.596	-0.169	0.233
-737.054	-137.742	0.089	-0.010
-736.039	-200.000	0.011	0.203
-735.025	-154.599	0.535	0.036
-734.010	20.683	-0.052	0.043
-732.996	-112.753	-0.090	0.018
-731.981	-31.005	-0.159	-0.092
-730.966	-0.967	0.206	0.149
-729.952	-93.511	-0.060	-0.017
-728.937	-77.498	0.350	-0.124
-727.923	128.051	-0.256	0.333
-726.908	128.913	0.120	-0.156
-725.894	800.000	-0.007	-0.025
-724.879	-148.717	-0.125	-0.010
-723.864	22.626	-0.015	-0.012
-722.850	717.516	-0.089	-0.242
-721.835	-11.579	-0.170	-0.114
-720.821	-150.660	-0.171	0.013
-719.806	-149.562	-0.163	0.013
-718.791	-70.448	-0.185	-0.072
-717.777	26.643	-0.162	0.138
-716.762	530.428	-0.094	-0.228
-715.748	800.000	0.052	-0.174
-714.733	-28.358	0.284	-0.168
-713.718	-57.588	-0.174	-0.078
-712.704	-200.000	0.081	-0.386
-711.689	337.451	-0.122	-0.242
-710.675	-200.000	-0.005	-0.296
-709.660	100.507	0.179	-0.213
-708.645	81.152	-0.185	0.205
-707.631	-200.000	0.054	0.255
-706.616	-95.040	0.039	-0.011
-705.602	-48.911	-0.286	-0.140
-704.587	114.768	-0.148	-0.184
-703.572	15.612	-0.108	-0.086
-702.558	-145.228	-0.109	-0.010
-701.543	331.853	0.122	-0.240
-700.529	250.640	-0.040	-0.070
-699.514	635.739	0.063	0.162
-698.499	193.203	0.192	0.297
-697.485	141.314	-0.171	-0.231
-696.470	-49.536	0.110	-0.053
-695.456	239.550	-0.027	-0.045
-694.441	117.096	-0.186	0.233
-693.426	-20.638	0.454	-0.285
-692.412	284.748	-0.142	-0.262
-691.397	77.631	-0.107	-0.117
-690.383	-200.000	0.043	0.204
-689.368	-200.000	-0.006	0.050
-688.354	217.001	0.132	0.215
-687.339	-200.000	0.025	0.336
-686.324	800.000	0.085	0.302
-685.310	635.943	0.033	-0.085
-684.295	-200.000	0.042	-0.355
-683.281	579.236	-0.065	-0.164
-682.266	-93.684	-0.153	0.043
-681.251	146.676	0.130	-0.178
-680.237	-200.000	0.000	0.422
-679.222	-200.000	-0.038	0.185
-678.208	800.000	-0.038	0.129
-677.193	32.979	-0.149	0.131
-676.178	401.652	-0.020	0.043
-675.164	63.032	0.177	-0.181
-674.149	-35.166	0.157	-0.087
-673.135	58.544	-0.193	-0.193
-672.120	-200.000	0.008	-0.042
-671.105	800.000	-0.078	-0.273
-670.091	77.444	0.143	0.155
-669.076	181.199	-0.230	-0.344
-668.062	-200.000	-0.005	0.081
-667.047	-200.000	0.033	0.207
-666.032	-131.674	-0.421	-0.056
-665.018	-149.020	-0.188	0.015
-664.003	800.000	-0.065	0.258
-662.989	-200.000	0.005	0.139
-661.974	182.500	0.042	-0.063
-660.959	-200.000	0.032	-0.270
-659.945	359.040	0.078	0.159
-658.930	-200.000	-0.055	0.432
-657.916	-200.000	0.009	-0.254
-656.901	-200.000	0.082	0.390
-655.886	-2.832	0.126	0.090
-654.872	-79.378	0.253	-0.087
-653.857	-6.061	-0.396	-0.276
-652.843	-10.108	-0.018	0.012
-651.828	-173.051	0.185	-0.006
-650.814	-200.000	0.029	0.305
-649.799	87.908	0.148	0.167
-648.784	209.710	0.028	-0.045
-647.770	279.962	0.010	0.018
-646.755	181.650	-0.107	-0.160
-645.741	69.589	-0.289	0.304
-644.726	-81.315	-0.213	-0.072
-643.711	172.559	-0.169	-0.248
-642.697	459.749	0.094	0.214
-641.682	-96.975	-0.298	-0.080
-640.668	-134.044	0.213	-0.027
-639.653	278.321	0.136	-0.246
-638.638	-194.274	0.358	0.003
-637.624	-109.028	0.269	0.058
-636.609	-124.681	0.093	0.015
-635.595	152.566	0.233	-0.325
-634.580	298.167	0.132	0.247
-633.565	-17.173	0.129	0.083
-632.551	-46.621	0.200	-0.100
-631.536	-120.059	0.196	0.034
-630.522	16.053	0.172	0.138
-629.507	-97.048	-0.158	0.042
-628.492	800.000	0.028	-0.115
-627.478	-144.576	-0.173	0.016
-626.463	-200.000	0.007	0.453
-625.449	800.000	-0.019	0.058
-624.434	178.113	0.137	0.203
-623.419	-200.000	-0.013	0.258
-622.405	800.000	0.039	0.150
-621.390	-200.000	-0.006	-0.085
-620.376	-24.296	0.499	0.303
-619.361	-177.631	-0.415	-0.010
-618.346	-171.646	-0.203	-0.007
-617.332	-75.701	-0.176	0.064
-616.317	800.000	-0.151	-0.450
-615.303	800.000	0.049	-0.195
-614.288	-99.381	0.063	-0.016
-613.273	38.300	0.149	0.135
-612.259	-200.000	0.025	-0.150
-611.244	800.000	0.062	0.189
-610.230	-200.000	0.049	0.318
-609.215	-99.828	0.098	-0.025
-608.201	-78.098	-0.117	-0.041
-607.186	-102.833	-0.155	-0.037
-606.171	-200.000	0.021	-0.231
-605.157	-178.827	-0.161	-0.004
-604.142	-76.910	-0.062	-0.022
-603.128	354.649	-0.102	0.206
-602.113	19.825	0.171	0.140
-601.098	-8.671	0.158	0.108
-600.084	-200.000	-0.009	-0.085
-599.069	-14.599	-0.148	0.097
-598.055	84.184	-0.036	0.040
-597.040	132.569	-0.150	0.197
-596.025	800.000	-0.096	-0.282
-595.011	237.378	-0.197	-0.333
-593.996	115.531	0.005	0.007
-592.982	92.436	-0.036	0.041
-591.967	-109.521	0.390	0.084
-590.952	-200.000	-0.008	0.051
-589.938	88.030	0.072	-0.081
-588.923	-109.899	0.063	0.013
-587.909	-22.177	-0.307	-0.189
-586.894	-141.020	-0.144	-0.015
-585.879	80.949	-0.086	-0.094
-584.865	468.938	0.028	0.065
-583.850	32.632	-0.200	0.176
-582.836	39.675	0.096	-0.088
-581.821	-70.822	-0.163	-0.062
-580.806	800.000	-0.119	-0.444
-579.792	-200.000	0.014	-0.193
-578.777	-64.503	-0.080	0.033
-577.763	129.606	0.171	0.222
-576.748	-97.122	0.316	-0.084
-575.733	800.000	0.025	-0.097
-574.719	800.000	0.126	-0.390
-573.704	20.284	-0.192	-0.158
-572.690	51.989	-0.239	-0.231
-571.675	-85.114	-0.312	-0.099
-570.661	451.592	0.039	0.087
-569.646	-131.510	0.052	-0.007
-568.631	-115.370	0.319	-0.061
-567.617	-200.000	0.042	0.196
-566.602	-73.301	0.098	0.036
-565.588	800.000	0.151	-0.475
-564.573	33.323	-0.166	-0.147
-563.558	-103.797	-0.144	-0.034
-562.544	-200.000	0.007	-0.137
-561.529	-100.924	-0.163	-0.041
-560.515	-200.000	0.014	0.292
-559.500	800.000	0.028	0.120
-558.485	-23.035	-0.173	0.106
-557.471	82.066	-0.035	-0.039
-556.456	59.400	0.087	0.088
-555.442	304.813	-0.113	0.214
-554.427	51.634	-0.214	-0.207
-553.412	-117.854	-0.299	-0.054
-552.398	-132.923	-0.157	0.020
-551.383	800.000	-0.040	0.128
-550.369	-91.908	0.119	0.034
-549.354	-108.943	0.081	0.018
-548.339	20.948	0.289	0.238
-547.325	-40.358	-0.349	0.184
-546.310	262.403	-0.043	0.075
-545.296	800.000	-0.014	0.056
-544.281	-14.625	-0.220	-0.143
-543.266	53.673	-0.268	0.261
-542.252	-26.887	0.233	0.138
-541.237	-156.674	-0.265	0.017
-540.223	-177.733	0.150	0.004
-539.208	-53.969	-0.183	0.085
-538.193	110.628	-0.053	0.064
-537.179	58.682	0.233	-0.232
-536.164	800.000	-0.064	-0.216
-535.150	-200.000	-0.019	0.212
-534.135	136.310	0.109	0.145
-533.121	314.006	-0.087	0.167
-532.106	-177.575	0.235	-0.006
-531.091	611.853	-0.131	-0.333
-530.077	-89.038	0.166	-0.050
-529.062	-28.637	0.011	0.007
-528.048	111.507	-0.167	0.205
-527.033	125.189	0.202	-0.259
-526.018	-101.805	-0.017	-0.004
-525.004	519.421	-0.066	-0.157
-523.989	-93.930	-0.149	-0.042
-522.975	10.289	0.101	-0.078
-521.960	800.000	0.033	0.123
-520.945	78.493	0.055	0.060
-519.931	-64.740	-0.101	0.041
-518.916	29.501	0.352	0.303
-517.902	258.372	-0.134	-0.235
-516.887	-22.171	-0.080	-0.049
-515.872	-109.446	-0.300	0.064
-514.858	800.000	-0.061	0.174
-513.843	302.355	-0.157	-0.294
-512.829	31.412	0.328	0.286
-511.814	-200.000	-0.019	0.172
-510.799	-121.017	-0.580	0.099
-509.785	-100.085	0.333	0.084
-508.770	800.000	-0.045	-0.165
-507.756	65.132	0.154	0.158
-506.741	110.758	-0.118	-0.144
-505.726	-117.003	-0.426	-0.079
-504.712	-108.950	0.229	0.050
-503.697	108.957	-0.111	-0.135
-502.683	-146.248	-0.382	-0.034
-501.668	631.051	0.047	0.119
-500.653	159.479	-0.037	-0.053
-499.639	-73.604	0.179	0.066
-498.624	72.522	0.131	-0.138
-497.610	-39.696	0.240	-0.127
-496.595	215.218	-0.194	-0.312
-495.581	353.937	-0.175	0.353
-494.566	-155.690	-0.119	-0.008
-493.551	214.783	0.156	-0.251
-492.537	800.000	0.073	0.262
-491.522	-200.000	-0.022	-0.107
-490.508	184.672	0.139	0.208
-489.493	486.993	0.127	-0.294
-488.478	-86.722	0.121	0.037
-487.464	555.882	0.092	0.224
-486.449	-104.594	-0.382	-0.089
-485.435	-200.000	-0.019	-0.275
-484.420	54.197	-0.047	-0.046
-483.405	800.000	0.044	0.186
-482.391	198.904	-0.087	-0.135
-481.376	8.260	-0.189	0.144
-480.362	-17.702	-0.292	0.186
-479.347	-115.434	-0.102	0.019
-478.332	-43.198	-0.105	-0.054
-477.318	800.000	0.019	-0.057
-476.303	-200.000	-0.017	-0.345
-475.289	800.000	-0.058	-0.192
-474.274	83.991	0.157	0.174
-473.259	800.000	-0.078	-0.232
-472.245	-200.000	-0.024	-0.146
-471.230	-200.000	-0.016	0.084
-470.216	-60.567	0.164	0.070
-469.201	8.532	0.124	-0.095
-468.186	-200.000	-0.010	0.199
-467.172	-106.237	0.231	0.052
-466.157	-110.267	0.257	-0.054
-465.143	-65.257	-0.434	0.177
-464.128	21.617	0.096	-0.079
-463.113	-78.199	-0.249	0.087
-462.099	626.357	-0.092	0.235
-461.084	-49.112	-0.099	-0.048
-460.070	-200.000	-0.005	0.121
-459.055	68.865	-0.162	-0.168
-458.040	-170.883	-0.172	-0.006
-457.026	-72.981	-0.127	0.047
-456.011	-45.192	0.139	-0.070
-454.997	204.174	-0.153	-0.240
-453.982	800.000	-0.016	0.055
-452.968	-200.000	-0.038	0.279
-451.953	-89.325	0.164	-0.049
-450.938	-120.778	0.071	-0.012
-449.924	25.006	-0.072	0.060
-448.909	8.827	-0.099	-0.076
-447.895	129.196	0.098	-0.126
-446.880	-172.791	-0.165	-0.005
-445.865	1.172	-0.132	0.096
-444.851	800.000	-0.062	-0.274
-443.836	-85.821	-0.330	0.103
-442.822	379.459	0.142	0.294
-441.807	-59.277	-0.182	-0.079
-440.792	-47.831	-0.176	-0.086
-439.778	-200.000	0.093	-0.437
-438.763	200.288	0.059	-0.092
-437.749	-87.514	-0.310	0.095
-436.734	-57.847	-0.258	-0.114
-435.719	215.257	0.036	-0.058
-434.705	70.430	0.206	0.216
-433.690	-161.726	0.233	-0.012
-432.676	-81.507	-0.241	0.080
-431.661	-200.000	-0.036	0.248
-430.646	-200.000	0.007	-0.126
-429.632	-158.373	0.109	0.006
-428.617	-200.000	0.003	0.218
-427.603	67.503	-0.107	0.111
-426.588	429.214	0.123	-0.270
-425.573	-74.578	-0.365	-0.133
-424.559	613.207	-0.029	0.073
-423.544	-107.253	0.178	0.039
-422.530	-169.209	0.104	-0.004
-421.515	114.536	-0.168	0.206
-420.500	230.865	-0.270	0.446
-419.486	-149.897	0.449	-0.035
-418.471	281.638	-0.159	-0.288
-417.457	-104.865	-0.591	-0.137
-416.442	-115.724	0.242	-0.046
-415.428	800.000	0.023	-0.098
-414.413	-200.000	0.009	0.290
-413.398	17.459	0.126	-0.101
-412.384	541.516	-0.040	-0.097
-411.369	-51.225	0.492	0.233
-410.355	112.455	-0.139	-0.170
-409.340	-200.000	-0.035	-0.183
-408.325	-79.150	-0.392	-0.134
-407.311	363.086	-0.094	-0.191
-406.296	-200.000	-0.002	0.176
-405.282	194.530	0.060	0.091
-404.267	-141.317	0.178	-0.018
-403.252	-200.000	-0.022	-0.143
-402.238	-200.000	0.060	0.415
-401.223	-200.000	0.006	-0.194
-400.209	-200.000	0.017	-0.098
-399.194	8.202	-0.140	0.106
-398.179	800.000	-0.085	-0.246
-397.165	-66.706	0.586	-0.234
-396.150	800.000	0.030	-0.096
-395.136	-39.197	-0.194	-0.103
-394.121	800.000	-0.037	-0.115
-393.106	-6.318	0.223	0.154
-392.092	79.174	-0.061	0.066
-391.077	111.634	-0.247	0.301
-390.063	-83.969	-0.400	0.128
-389.048	74.227	-0.154	-0.163
-388.033	-200.000	-0.016	0.272
-387.019	12.710	-0.089	0.069
-386.004	26.291	-0.297	-0.251
-384.990	-117.440	0.148	-0.027
-383.975	15.636	-0.311	0.247
-382.960	-200.000	-0.021	-0.180
-381.946	86.054	-0.278	-0.308
-380.931	14.299	0.105	-0.083
-379.917	-39.748	-0.159	-0.084
-378.902	76.181	0.199	-0.213
-377.888	684.835	-0.129	-0.340
-376.873	206.672	0.063	0.098
-375.858	215.232	0.093	0.149
-374.844	-138.720	-0.170	0.019
-373.829	-200.000	-0.110	0.567
-372.815	-83.368	-0.175	0.057
-371.800	34.777	0.175	-0.154
-370.785	112.579	0.252	0.307
-369.771	-200.000	0.018	0.233
-368.756	-141.991	-0.343	-0.034
-367.742	160.361	0.121	0.171
-366.727	583.816	0.104	0.256
-365.712	-29.245	0.068	-0.039
-364.698	531.691	-0.115	0.274
-363.683	-200.000	-0.008	-0.082
-362.669	632.533	-0.165	-0.420
-361.654	-200.000	0.035	-0.190
-360.639	543.773	0.067	0.161
-359.625	499.464	-0.040	-0.093
-358.610	-200.000	0.062	0.277
-357.596	5.384	0.027	0.020
-356.581	-105.306	-0.087	-0.020
-355.566	-49.810	-0.332	-0.159
-354.552	800.000	-0.025	0.082
-353.537	800.000	-0.110	-0.407
-352.523	-8.385	0.064	-0.043
-351.508	-200.000	-0.009	0.345
-350.493	-200.000	0.065	-0.403
-349.479	282.415	-0.084	-0.152
-348.464	779.562	-0.076	0.209
-347.450	-12.813	0.252	0.165
-346.435	-154.408	0.261	0.018
-345.420	-5.074	0.066	-0.046
-344.406	-91.041	0.242	-0.070
-343.391	438.790	-0.131	0.287
-342.377	91.541	0.051	0.057
-341.362	501.620	0.166	0.386
-340.348	226.387	0.024	0.040
-339.333	800.000	0.043	0.132
-338.318	184.553	-0.115	-0.172
-337.304	-200.000	0.045	-0.528
-336.289	434.347	0.079	0.173
-335.275	200.468	0.091	-0.141
-334.260	52.312	-0.143	0.137
-333.245	-200.000	-0.022	0.137
-332.231	706.368	-0.059	-0.156
-331.216	-200.000	-0.006	-0.262
-330.202	-200.000	-0.015	0.081
-329.187	-57.953	0.195	0.086
-328.172	-200.000	-0.008	0.159
-327.158	-50.882	0.196	-0.093
-326.143	-200.000	-0.068	-0.586
-325.129	293.674	-0.263	0.483
-324.114	-20.878	0.175	-0.108
-323.099	-23.629	0.261	-0.157
-322.085	-173.936	0.390	0.012
-321.070	800.000	-0.062	0.248
-320.056	-117.841	0.196	0.035
-319.041	800.000	0.031	-0.099
-318.026	-200.000	-0.014	-0.117
-317.012	-160.298	0.271	-0.015
-315.997	140.960	-0.128	0.170
-314.983	-5.513	-0.069	-0.048
-313.968	-21.696	0.166	0.102
-312.953	-101.518	-0.093	0.023
-311.939	-13.327	-0.104	0.068
-310.924	-61.167	0.030	0.013
-309.910	337.993	0.076	-0.148
-308.895	-123.337	-0.328	-0.053
-307.880	517.857	0.132	0.311
-306.866	800.000	0.070	0.223
-305.851	800.000	0.043	-0.143
-304.837	-129.713	-0.062	-0.009
-303.822	-81.927	0.316	0.104
-302.807	-37.325	0.311	0.167
-301.793	800.000	-0.009	0.037
-300.778	632.159	-0.065	-0.166
-299.764	-168.649	-0.144	-0.005
-298.749	-91.842	0.169	0.048
-297.735	-59.135	-0.084	0.036
-296.720	7.085	0.157	0.118
-295.705	100.464	0.134	0.156
-294.691	341.344	-0.140	0.274
-293.676	-200.000	0.019	0.115
-292.662	-169.468	0.108	0.004
-291.647	-200.000	-0.003	0.351
-290.632	40.062	0.037	-0.034
-289.618	74.969	0.205	0.217
-288.603	33.951	-0.129	0.113
-287.589	1.769	-0.215	-0.156
-286.574	-77.679	0.257	-0.089
-285.559	88.766	-0.098	0.110
-284.545	800.000	0.056	0.211
-283.530	-200.000	-0.025	0.255
-282.516	-37.502	0.036	0.019
-281.501	-190.294	0.283	-0.003
-280.486	-45.486	0.106	-0.053
-279.472	-200.000	-0.036	-0.264
-278.457	12.857	0.026	0.020
-277.443	-86.893	-0.083	-0.026
-276.428	440.642	-0.132	0.290
-275.413	-69.649	-0.221	-0.085
-274.399	-121.532	0.123	0.020
-273.384	234.607	0.053	0.087
-272.370	-189.090	0.418	0.005
-271.355	-70.845	-0.071	-0.027
-270.340	411.730	-0.088	-0.189
-269.326	30.156	0.196	0.168
-268.311	-89.437	0.119	-0.035
-267.297	-200.000	0.068	-0.428
-266.282	56.244	0.225	-0.220
-265.267	-200.000	-0.035	-0.452
-264.253	-17.062	0.209	-0.133
-263.238	270.499	-0.087	0.154
-262.224	-189.476	0.180	-0.002
-261.209	-178.521	0.172	0.004
-260.195	-89.605	0.266	-0.078
-259.180	288.374	-0.090	-0.163
-258.165	-78.709	0.164	0.056
-257.151	-200.000	0.025	0.115
-256.136	19.206	0.237	-0.191
-255.122	-200.000	0.007	0.170
-254.107	-87.060	0.212	0.065
-253.092	-200.000	0.019	0.411
-252.078	106.385	0.256	-0.304
-251.063	429.166	0.107	0.232
-250.049	-10.734	-0.195	-0.130
-249.034	64.128	-0.319	0.322
-248.019	39.891	-0.232	0.209
-247.005	788.161	-0.012	0.034
-245.990	-13.046	0.350	-0.229
-244.976	-69.551	0.207	-0.080
-243.961	-91.579	0.150	0.043
-242.946	-114.681	0.148	0.028
-241.932	-200.000	0.008	-0.175
-240.917	-119.465	0.067	-0.012
-239.903	70.425	0.007	-0.007
-238.888	7.192	-0.163	-0.122
-237.873	31.119	-0.221	0.190
-236.859	-200.000	-0.011	-0.220
-235.844	-147.293	-0.176	-0.015
-234.830	145.290	-0.059	-0.080
-233.815	323.166	-0.146	0.279
-232.800	60.682	-0.244	-0.242
-231.786	136.971	-0.026	0.034
-230.771	519.601	-0.026	0.062
-229.757	-200.000	0.028	0.196
-228.742	-200.000	0.037	0.229
-227.727	-66.572	0.275	-0.109
-226.713	-106.034	0.163	0.037
-225.698	-136.842	0.510	-0.059
-224.684	-107.170	-0.018	0.004
-223.669	-119.374	0.083	0.015
-222.655	-200.000	0.024	-0.255
-221.640	565.149	0.107	-0.259
-220.625	15.415	0.250	0.197
-219.611	800.000	0.032	0.090
-218.596	-151.926	0.314	-0.023
-217.582	-108.868	-0.109	-0.023
-216.567	-69.782	-0.276	0.106
-215.552	-132.421	-0.237	-0.031
-214.538	-89.713	-0.319	0.094
-213.523	-45.914	0.028	-0.014
-212.509	256.503	0.078	0.134
-211.494	124.140	0.127	0.160
-210.479	161.436	0.227	-0.318
-209.465	229.124	0.205	0.335
-208.450	627.204	0.124	-0.314
-207.436	83.080	-0.282	-0.308
-206.421	-79.988	0.529	-0.178
-205.406	399.698	-0.075	0.158
-204.392	26.420	0.031	-0.026
-203.377	397.077	-0.063	0.132
-202.363	-200.000	0.033	0.179
-201.348	800.000	-0.055	0.227
-200.333	-13.097	-0.225	-0.147
-199.319	-90.463	0.129	-0.038
-198.304	800.000	-0.044	0.175
-197.290	-200.000	-0.024	-0.138
-196.275	-200.000	-0.026	0.159
-195.260	-18.134	0.072	-0.045
-194.246	-200.000	-0.015	0.185
-193.231	-200.000	0.003	0.064
-192.217	-200.000	0.010	0.071
-191.202	285.230	0.070	-0.126
-190.187	64.112	-0.182	-0.183
-189.173	800.000	0.076	-0.259
-188.158	7.924	-0.048	0.036
-187.144	212.870	-0.092	-0.145
-186.129	-92.747	-0.293	-0.082
-185.114	1.360	-0.121	0.087
-184.100	-200.000	-0.002	-0.166
-183.085	63.627	0.203	-0.204
-182.071	800.000	-0.071	-0.218
-181.056	726.085	-0.074	0.196
-180.042	-200.000	0.014	-0.182
-179.027	-122.679	0.522	-0.085
-178.012	-200.000	-0.025	-0.204
-176.998	-156.700	-0.245	-0.015
-175.983	-11.341	-0.063	-0.042
-174.969	-67.993	0.356	0.139
-173.954	1.083	0.245	-0.176
-172.939	-121.662	-0.195	-0.032
-171.925	-67.358	0.334	0.132
-170.910	800.000	0.107	-0.365
-169.896	56.434	-0.157	-0.153
-168.881	-91.635	-0.195	0.055
-167.866	-200.000	0.051	0.248
-166.852	-17.021	-0.062	0.039
-165.837	800.000	-0.024	0.082
-164.823	672.548	0.056	0.144
-163.808	800.000	-0.106	0.354
-162.793	-200.000	0.016	0.226
-161.779	-85.430	-0.194	-0.060
-160.764	28.339	0.060	0.051
-159.750	38.615	0.133	0.119
-158.735	-49.761	-0.115	-0.055
-157.720	-126.723	-0.352	-0.052
-156.706	-93.679	0.227	0.063
-155.691	800.000	0.152	-0.482
-154.677	150.289	0.058	0.079
-153.662	-38.219	-0.116	0.062
-152.647	800.000	-0.081	-0.343
-151.633	94.030	0.223	-0.253
-150.618	-200.000	0.067	0.337
-149.604	-145.484	-0.068	0.006
-148.589	328.448	-0.089	-0.171
-147.574	-186.350	-0.422	0.006
-146.560	-200.000	-0.001	0.022
-145.545	-98.912	-0.124	0.031
-144.531	123.935	0.048	0.060
-143.516	227.424	0.070	0.114
-142.502	-192.720	-0.208	0.002
-141.487	154.083	0.040	-0.055
-140.472	-168.384	-0.337	-0.013
-139.458	-66.928	-0.061	-0.024
-138.443	192.023	0.018	0.027
-137.429	348.477	-0.011	0.021
-136.414	-200.000	-0.012	-0.068
-135.399	791.120	0.026	-0.071
-134.385	642.030	0.052	-0.131
-133.370	-20.591	-0.234	0.144
-132.356	800.000	-0.146	0.422
-131.341	-123.869	-0.065	-0.010
-130.326	800.000	0.101	0.287
-129.312	412.108	0.127	0.270
-128.297	-32.474	0.236	0.131
-127.283	-76.618	0.029	0.010
-126.268	202.199	-0.138	0.213
-125.253	-33.740	-0.183	-0.101
-124.239	800.000	0.028	-0.106
-123.224	-94.792	0.440	-0.119
-122.210	-200.000	0.006	0.134
-121.195	-200.000	-0.019	0.095
-120.180	800.000	0.098	0.285
-119.166	800.000	-0.009	0.037
-118.151	186.325	0.183	0.272
-117.137	38.145	0.161	0.143
-116.122	-181.899	-0.243	-0.005
-115.107	138.679	0.093	0.122
-114.093	75.605	-0.220	-0.232
-113.078	-159.715	-0.275	0.015
-112.064	-200.000	0.081	0.416
-111.049	130.768	0.054	0.069
-110.034	44.795	0.157	0.144
-109.020	-200.000	-0.003	-0.180
-108.005	-200.000	0.029	0.217
-106.991	67.973	0.290	0.297
-105.976	-147.530	0.305	0.026
-104.962	-101.761	-0.162	0.039
-103.947	65.757	0.113	0.114
-102.932	800.000	-0.048	-0.137
-101.918	-200.000	-0.054	0.254
-100.903	-136.954	-0.311	0.036
-99.889	62.033	0.062	-0.061
-98.874	339.787	0.043	0.085
-97.859	-29.816	0.093	0.053
-96.845	-200.000	-0.015	-0.117
-95.830	99.740	0.040	-0.046
-94.816	-99.570	0.352	0.088
-93.801	239.267	-0.046	-0.077
-92.786	283.922	-0.122	0.219
-91.772	15.123	0.462	0.361
-90.757	-93.910	0.095	0.026
-89.743	-73.763	0.214	-0.078
-88.728	398.406	-0.065	-0.135
-87.713	0.317	-0.088	-0.063
-86.699	-200.000	-0.062	0.272
-85.684	-152.118	0.201	-0.015
-84.670	-119.298	-0.245	-0.043
-83.655	-200.000	0.010	0.298
-82.640	-81.027	0.319	-0.105
-81.626	-99.523	-0.257	0.065
-80.611	-96.374	0.035	-0.009
-79.597	435.765	-0.047	0.102
-78.582	-200.000	0.025	-0.298
-77.567	800.000	-0.177	0.514
-76.553	-200.000	0.034	0.320
-75.538	449.699	0.083	0.183
-74.524	800.000	0.023	0.096
-73.509	279.153	-0.040	-0.070
-72.494	800.000	0.061	0.170
-71.480	-63.301	-0.101	-0.042
-70.465	57.584	-0.126	0.122
-69.451	552.270	-0.157	0.376
-68.436	3.038	-0.355	0.257
-67.422	800.000	0.041	0.126
-66.407	-159.712	0.211	-0.012
-65.392	-7.663	0.210	0.141
-64.378	34.785	0.148	0.129
-63.363	-115.058	0.207	-0.039
-62.349	-67.485	0.267	0.104
-61.334	38.788	-0.685	-0.610
-60.319	192.533	0.215	0.323
-59.305	-200.000	-0.040	-1.041
-58.290	590.242	0.285	0.700
-57.276	593.854	0.631	1.553
-56.261	-200.000	76.878	520.104
-55.246	533.808	1305.491	3080.295
-54.232	150.563	2530.504	3423.388
-53.217	116.247	2240.582	2733.823
-52.203	51.306	1769.891	1673.273
-51.188	44.200	1568.205	1432.625
-50.173	41.624	1538.350	1387.432
-49.159	57.597	1575.856	1533.623
-48.144	63.416	1595.132	1593.113
-47.130	44.892	1558.109	1428.026
-46.115	41.244	1543.595	1389.291
-45.100	41.066	1539.919	1384.685
-44.086	40.986	1538.174	1382.506
-43.071	40.901	1536.197	1380.089
-42.057	40.871	1534.190	1378.021
-41.042	40.884	1532.684	1376.700
-40.027	40.809	1531.668	1375.218
-39.013	40.877	1529.593	1373.769
-37.998	40.880	1528.020	1372.320
-36.984	40.860	1526.851	1371.083
-35.969	40.881	1526.101	1370.498
-34.954	40.923	1524.441	1369.241
-33.940	40.862	1522.980	1367.455
-32.925	40.910	1521.159	1366.095
-31.911	40.883	1519.785	1364.619
-30.896	40.828	1518.910	1363.407
-29.881	40.969	1517.157	1362.742
-28.867	40.971	1515.759	1361.448
-27.852	40.887	1515.026	1360.163
-26.838	41.043	1513.209	1359.541
-25.823	40.997	1511.273	1357.431
-24.809	40.947	1509.716	1355.640
-23.794	40.903	1508.523	1354.216
-22.779	40.923	1507.234	1353.140
-21.765	40.940	1506.641	1352.673
-20.750	41.012	1504.865	1351.511
-19.736	40.930	1504.410	1350.491
-18.721	40.926	1503.219	1349.343
-17.706	40.881	1502.108	1347.985
-16.692	40.903	1500.933	1347.027
-15.677	40.946	1499.273	1345.772
-14.663	40.847	1498.620	1344.463
-13.648	40.895	1497.545	1343.775
-12.633	40.889	1496.476	1342.720
-11.619	40.728	1496.152	1341.290
-10.604	40.896	1494.546	1340.932
-9.590	40.945	1493.584	1340.342
-8.575	40.832	1492.679	1338.715
-7.560	40.867	1492.420	1338.668
-6.546	40.819	1491.430	1337.399
-5.531	40.736	1490.896	1336.309
-4.517	40.912	1489.451	1336.143
-3.502	40.924	1488.043	1334.909
-2.487	40.859	1487.631	1334.053
-1.473	40.812	1486.465	1332.637
-0.458	40.851	1484.715	1331.279
0.556	39.066	1475.230	1320.154
1.571	35.649	1446.833	1272.060
2.586	31.056	1382.441	1186.207
3.600	28.667	1297.874	1099.258
4.615	26.699	1248.592	1046.075
5.629	24.623	1195.425	989.958
6.644	19.955	1114.597	898.765
7.659	16.004	1073.552	845.800
8.673	15.020	1069.083	837.282
9.688	14.904	1066.106	834.301
10.702	14.863	1064.237	832.557
11.717	14.873	1062.665	831.307
12.731	16.686	1063.733	841.083
13.746	20.527	1068.882	864.214
14.761	21.032	1068.140	866.047
15.775	18.591	1064.068	850.582
16.790	16.895	1061.346	839.936
17.804	15.810	1058.646	832.358
18.819	14.848	1056.680	825.988
19.834	14.362	1055.195	822.357
20.848	13.993	1053.921	819.470
21.863	13.742	1053.110	817.532
22.877	13.468	1052.652	815.751
23.892	13.552	1050.807	814.663
24.907	13.207	1050.826	812.910
25.921	13.087	1050.338	811.872
26.936	13.198	1049.432	811.641
27.950	13.310	1048.196	811.167
28.965	13.355	1046.620	810.093
29.980	13.466	1045.519	809.711
30.994	13.344	1045.005	808.647
32.009	13.548	1043.507	808.409
33.023	13.444	1043.523	807.845
34.038	13.475	1042.588	807.199
35.053	13.493	1041.538	806.403
36.067	13.458	1040.302	805.205
37.082	13.375	1039.951	804.461
38.096	13.336	1039.105	803.543
39.111	13.460	1038.084	803.285
40.126	13.411	1037.406	802.452
41.140	13.342	1036.299	801.189
42.155	13.324	1035.029	800.051
43.169	13.083	1034.331	798.276
44.184	13.244	1033.298	798.186
45.199	13.153	1031.983	796.658
46.213	13.261	1030.883	796.261
47.228	13.223	1030.032	795.349
48.242	13.210	1029.044	794.452
49.257	13.323	1027.945	794.078
50.271	13.321	1027.160	793.390
51.286	13.330	1026.215	792.632
52.301	13.325	1025.536	792.016
53.315	13.348	1024.857	791.533
54.330	13.314	1023.877	790.543
55.344	13.290	1023.115	789.767
56.359	13.215	1022.294	788.709
57.374	13.219	1021.232	787.837
58.388	13.259	1020.375	787.297
59.403	13.196	1019.725	786.428
60.417	13.159	1018.927	785.565
61.432	13.135	1018.260	784.868
62.447	13.203	1017.421	784.472
63.461	13.031	1017.010	783.269
64.476	13.118	1015.822	782.699
65.490	13.077	1014.833	781.676
66.505	13.105	1013.901	781.018
67.520	13.076	1013.089	780.188
68.534	13.131	1012.599	780.002
69.549	13.115	1011.872	779.297
70.563	13.168	1011.138	778.915
71.578	13.120	1010.515	778.137
72.593	13.229	1009.011	777.424
73.607	13.055	1008.306	775.993
74.622	12.947	1007.375	774.699
75.636	13.053	1006.660	774.579
76.651	13.040	1005.983	773.932
77.666	13.110	1005.310	773.673
78.680	13.030	1004.591	772.676
79.695	13.076	1003.771	772.193
80.709	13.032	1003.772	771.919
81.724	13.192	1002.479	771.602
82.739	13.150	1001.843	770.847
83.753	13.212	1001.035	770.447
84.768	13.354	999.991	770.237
85.782	13.400	999.509	770.013
86.797	13.350	998.890	769.233
87.812	13.408	998.002	768.753
88.826	13.279	997.057	767.358
89.841	13.189	996.312	766.300
90.855	13.352	995.088	766.044
91.870	13.418	994.587	765.898
92.884	13.371	994.109	765.245
93.899	13.421	993.323	764.803
94.914	13.429	992.346	764.020
95.928	13.581	991.825	764.251
96.943	13.410	991.434	763.095
97.957	13.548	989.958	762.523
98.972	13.427	989.552	761.591
99.987	13.425	988.841	760.963
101.001	13.422	988.166	760.364
102.016	13.326	987.317	759.204
103.030	13.424	986.226	758.747
104.045	13.360	985.444	757.787
105.060	13.433	984.587	757.391
106.074	13.345	983.362	755.979
107.089	13.406	982.424	755.473
108.103	13.245	981.835	754.215
109.118	13.211	980.519	752.984
110.133	13.199	980.233	752.642
111.147	13.198	979.271	751.835
112.162	13.145	978.256	750.750
113.176	13.301	977.631	750.911
114.191	13.284	976.539	749.929
115.206	13.273	975.738	749.195
116.220	13.312	975.033	748.764
117.235	13.317	974.107	748.010
118.249	13.231	973.323	746.955
119.264	13.175	972.398	745.924
120.279	13.133	971.494	744.976
121.293	13.151	970.931	744.558
122.308	13.101	970.116	743.641
123.322	13.242	968.852	743.243
124.337	13.258	968.009	742.601
125.352	13.118	966.998	741.131
126.366	13.181	965.370	740.103
127.381	13.174	964.655	739.456
128.395	13.152	963.804	738.638
129.410	13.228	962.490	737.908
130.424	13.161	961.824	737.033
131.439	13.243	960.951	736.664
132.454	13.318	960.241	736.388
133.468	13.258	959.368	735.387
134.483	13.358	958.429	735.045
135.497	13.472	957.675	734.909
136.512	13.318	957.223	733.815
137.527	13.353	956.633	733.450
138.541	13.356	955.482	732.520
139.556	13.361	954.481	731.710
140.570	13.367	954.246	731.488
141.585	13.456	953.248	731.051
142.600	13.361	952.834	730.251
143.614	13.527	951.731	730.074
144.629	13.465	951.248	729.365
145.643	13.488	950.482	728.814
146.658	13.551	949.678	728.410
147.673	13.449	948.839	727.255
148.687	13.417	947.835	726.281
149.702	13.391	946.799	725.308
150.716	13.452	945.813	724.756
151.731	13.387	945.188	723.927
152.746	13.246	944.661	722.845
153.760	13.449	943.783	722.997
154.775	13.424	942.963	722.196
155.789	13.478	942.288	721.847
156.804	13.537	941.456	721.403
157.819	13.378	941.063	720.349
158.833	13.431	940.646	720.194
159.848	13.551	939.628	719.873
160.862	13.533	939.043	719.283
161.877	13.643	937.727	718.690
162.892	13.489	937.431	717.731
163.906	13.498	936.413	716.927
164.921	13.462	935.563	716.059
165.935	13.458	934.835	715.420
166.950	13.454	933.696	714.468
167.964	13.528	933.121	714.283
168.979	13.552	931.848	713.348
169.994	13.562	930.821	712.541
171.008	13.485	930.554	711.941
172.023	13.609	929.441	711.561
173.037	13.653	928.602	711.047
174.052	13.535	928.069	710.070
175.067	13.604	927.518	709.879
176.081	13.518	926.536	708.695
177.096	13.505	925.569	707.839
178.110	13.575	924.504	707.260
179.125	13.507	923.714	706.306
180.140	13.658	923.145	706.449
181.154	13.643	922.408	705.758
182.169	13.751	921.455	705.426
183.183	13.645	921.483	704.935
184.198	13.735	920.556	704.547
185.213	13.672	919.926	703.736
186.227	13.824	919.121	703.699
187.242	13.678	918.777	702.758
188.256	13.813	917.634	702.391
189.271	13.761	917.437	701.956
190.286	13.852	916.584	701.628
191.300	13.775	915.626	700.509
192.315	13.670	914.750	699.331
193.329	13.622	914.532	698.902
194.344	13.609	913.776	698.206
195.359	13.469	913.301	697.192
196.373	13.750	912.666	697.828
197.388	13.794	912.269	697.648
198.402	13.881	911.789	697.583
199.417	13.973	911.196	697.458
200.432	13.949	910.960	697.114
201.446	14.009	910.175	696.702
202.461	14.058	909.874	696.618
203.475	14.035	909.572	696.226
204.490	14.165	908.576	695.946
205.504	14.082	907.670	694.843
206.519	13.893	907.050	693.520
207.534	13.956	906.139	693.023
208.548	13.953	905.499	692.458
209.563	14.015	905.025	692.292
210.577	14.102	904.052	691.852
211.592	14.045	903.391	691.045
212.607	14.168	903.131	691.298
213.621	14.256	902.465	691.093
214.636	14.178	901.786	690.189
215.650	14.126	900.980	689.295
216.665	14.178	900.676	689.218
217.680	14.167	900.336	688.847
218.694	14.188	899.772	688.442
219.709	14.321	899.103	688.420
220.723	14.344	898.343	687.873
221.738	14.246	897.564	686.809
222.753	14.161	896.835	685.842
223.767	14.229	896.409	685.737
224.782	14.320	895.050	685.010
225.796	14.252	894.844	684.511
226.811	14.397	893.891	684.319
227.826	14.317	893.265	683.451
228.840	14.278	892.621	682.738
229.855	14.299	891.897	682.208
230.869	14.355	891.404	682.000
231.884	14.335	890.556	681.211
232.899	14.388	889.793	680.782
233.913	14.277	889.396	679.965
234.928	14.351	888.630	679.621
235.942	14.242	887.836	678.510
236.957	14.372	887.050	678.379
237.972	14.201	886.506	677.208
238.986	14.281	885.751	676.896
240.001	14.415	885.057	676.850
241.015	14.381	884.586	676.291
242.030	14.376	883.729	675.555
243.045	14.423	883.133	675.233
244.059	14.450	882.698	674.947
245.074	14.469	881.971	674.409
246.088	14.453	881.153	673.660
247.103	14.492	881.071	673.693
248.117	14.503	880.330	673.112
249.132	14.672	879.410	673.029
250.147	14.611	879.562	672.841
251.161	14.792	878.354	672.586
252.176	14.829	877.783	672.240
253.190	14.745	877.376	671.531
254.205	14.858	876.681	671.391
255.220	14.874	876.057	670.918
256.234	14.735	875.633	669.980
257.249	14.911	874.629	669.855
258.263	14.958	873.896	669.423
259.278	14.950	873.608	669.111
260.293	14.904	872.766	668.225
261.307	14.965	872.632	668.305
262.322	14.893	872.023	667.493
263.336	15.034	871.468	667.570
264.351	15.058	870.778	667.077
265.366	15.080	870.064	666.562
266.380	15.053	869.467	665.936
267.395	15.200	868.770	665.927
268.409	15.087	868.121	664.923
269.424	15.047	867.564	664.279
270.439	15.079	866.742	663.717
271.453	15.139	865.842	663.208
272.468	15.100	865.237	662.531
273.482	15.122	864.170	661.744
274.497	15.010	864.240	661.295
275.512	15.119	863.448	661.061
276.526	15.024	862.652	660.016
277.541	15.129	861.819	659.735
278.555	15.277	861.043	659.664
279.570	15.332	860.576	659.467
280.585	15.024	860.584	658.201
281.599	15.164	860.076	658.307
282.614	15.101	859.252	657.369
283.628	15.191	858.768	657.294
284.643	15.257	857.887	656.820
285.657	15.294	857.526	656.629
286.672	15.325	856.936	656.242
287.687	15.428	856.504	656.257
288.701	15.428	855.827	655.678
289.716	15.314	855.585	654.991
290.730	15.298	854.618	654.129
291.745	15.372	853.848	653.771
292.760	15.255	853.512	653.001
293.774	15.411	852.437	652.725
294.789	15.312	852.418	652.271
295.803	15.432	851.865	652.253
296.818	15.461	851.086	651.714
297.833	15.390	850.291	650.772
298.847	15.409	849.613	650.270
299.862	15.522	848.951	650.141
300.876	15.486	848.499	649.599
301.891	15.611	847.794	649.484
302.906	15.615	846.937	648.787
303.920	15.645	846.465	648.482
304.935	15.422	846.279	647.424
305.949	15.705	845.479	647.843
306.964	15.617	844.702	646.855
307.979	15.576	844.375	646.388
308.993	15.607	843.695	645.927
310.008	15.605	843.202	645.488
311.022	15.705	842.569	645.330
312.037	15.824	842.083	645.355
313.052	15.635	841.697	644.277
314.066	15.749	840.898	644.046
315.081	15.592	840.149	642.815
316.095	15.633	839.561	642.464
317.110	15.570	839.176	641.874
318.125	15.805	838.216	641.980
319.139	15.643	838.312	641.378
320.154	15.602	837.529	640.567
321.168	15.770	836.832	640.613
322.183	15.645	836.746	640.017
323.197	15.725	836.303	639.926
324.212	15.806	835.465	639.537
325.227	15.899	834.608	639.175
326.241	15.798	834.287	638.489
327.256	15.688	833.590	637.483
328.270	15.823	833.084	637.551
329.285	15.893	832.067	636.981
330.300	15.728	832.179	636.387
331.314	15.839	831.481	636.216
332.329	15.893	830.597	635.689
333.343	15.848	830.233	635.184
334.358	16.051	829.521	635.347
335.373	16.071	829.174	635.102
336.387	15.988	828.871	634.501
337.402	16.016	828.116	633.973
338.416	16.031	827.737	633.682
339.431	15.928	827.120	632.765
340.446	16.022	826.476	632.572
341.460	16.076	826.205	632.509
342.475	16.162	825.503	632.237
343.489	16.109	824.938	631.550
344.504	16.275	824.298	631.628
345.519	16.250	823.825	631.114
346.533	16.166	823.430	630.442
347.548	16.313	822.804	630.456
348.562	16.224	822.118	629.542
349.577	16.214	821.791	629.199
350.592	16.269	821.213	628.907
351.606	16.046	820.820	627.718
352.621	16.065	820.450	627.452
353.635	16.218	819.770	627.443
354.650	16.254	819.360	627.211
355.665	16.181	819.123	626.701
356.679	16.329	818.422	626.657
357.694	16.271	818.041	626.095
358.708	16.358	817.234	625.744
359.723	16.413	816.835	625.589
360.738	16.294	816.448	624.795
361.752	16.265	815.812	624.146
362.767	16.376	815.271	624.089
363.781	16.422	815.144	624.104
364.796	16.432	814.725	623.765
365.810	16.435	814.290	623.390
366.825	16.400	814.233	623.160
367.840	16.643	813.292	623.280
368.854	16.460	813.089	622.396
369.869	16.466	812.874	622.198
370.883	16.633	811.764	621.907
371.898	16.490	811.508	621.133
372.913	16.652	810.749	621.089
373.927	16.666	810.184	620.652
374.942	16.635	809.980	620.327
375.956	16.677	809.006	619.682
376.971	16.789	808.354	619.538
377.986	16.661	808.281	618.957
379.000	16.739	807.783	618.806
380.015	16.851	807.137	618.665
381.029	16.828	806.462	618.011
382.044	16.737	805.894	617.189
383.059	16.776	805.408	616.905
384.073	16.881	805.050	616.958
385.088	16.845	804.459	616.317
386.102	16.818	803.780	615.647
387.117	16.839	803.123	615.164
388.132	16.825	802.954	614.931
389.146	16.589	802.774	613.882
390.161	16.785	802.294	614.172
391.175	16.808	802.034	614.001
392.190	17.023	801.221	614.101
393.205	17.039	800.703	613.708
394.219	16.937	800.500	613.128
395.234	16.792	800.571	612.606
396.248	16.860	799.730	612.152
397.263	16.684	798.929	610.852
398.278	16.897	798.347	611.121
399.292	16.728	798.190	610.337
400.307	16.679	797.938	609.915
401.321	16.915	797.281	610.207
402.336	16.950	796.923	610.005
403.350	17.013	796.108	609.553
404.365	16.919	795.695	608.844
405.380	16.971	795.575	608.888
406.394	17.105	794.804	608.722
407.409	17.075	794.513	608.339
408.423	17.156	794.128	608.281
409.438	17.221	793.740	608.163
410.453	17.080	793.428	607.363
411.467	17.240	792.899	607.478
412.482	17.341	792.141	607.204
413.496	17.197	791.909	606.459
414.511	17.175	791.950	606.356
415.526	17.300	791.437	606.356
416.540	17.254	790.926	605.748
417.555	17.267	790.343	605.294
418.569	17.480	789.587	605.418
419.584	17.334	789.479	604.763
420.599	17.277	788.974	604.120
421.613	92.616	1263.430	1375.350
422.628	78.831	1332.585	1375.449
