DTS Sentinel unit serial number:	SN413079Multiplexer serial number:	ORYXHardware model number:	OX4-SRSoftware version number:	ORYX F/W v4.00 Oryx Data Collector v3.7.2.0data status	okinstallation	princeton_trtdifferential loss correction	single-endedforward channel	channel 3reverse channel	N/Adate	2019/09/12time	19:29:04forward acquisition time	15.00reverse acquisition time	0.00gamma	496.2192k internal	0.2321k external	0.2321temperature offset calibration	1.0110default loss term (dB/km)	0.3790temperature slope calibration	1.0000multiplexer offset coefficient	1.0000multiplexer slope coefficient	1.0000fibre end	0.00T internal ref (°C)	32.31T ext. ref 1 (°C)	3.26T ext. ref 2 (°C)	26.83length (m)	temperature (°C)	Stokes	anti-Stokes-747.200	-195.257	-0.521	-0.004
-746.185	316.107	-0.110	-0.209
-745.171	-200.000	0.101	-0.944
-744.156	-171.380	0.368	-0.012
-743.142	-13.872	-0.915	0.598
-742.127	53.451	-0.152	0.147
-741.112	-12.806	0.306	-0.202
-740.098	-200.000	0.009	-0.515
-739.083	58.509	0.217	0.215
-738.069	118.584	0.242	-0.302
-737.054	146.147	0.342	-0.463
-736.039	188.349	-0.440	-0.664
-735.025	-200.000	-0.022	0.205
-734.010	110.955	0.385	0.468
-732.996	182.742	0.320	0.477
-731.981	41.747	0.527	-0.482
-730.966	140.123	0.268	-0.358
-729.952	153.023	0.464	-0.641
-728.937	-101.334	-0.595	-0.147
-727.923	-67.523	-0.313	-0.124
-726.908	-143.928	0.908	-0.086
-725.894	800.000	0.051	0.191
-724.879	-74.885	0.361	-0.131
-723.864	-160.051	-0.455	-0.025
-722.850	472.700	0.154	0.351
-721.835	-166.853	0.707	0.029
-720.821	-66.150	-0.258	-0.104
-719.806	494.340	-0.133	-0.308
-718.791	-200.000	-0.156	-0.820
-717.777	402.170	-0.064	0.135
-716.762	-200.000	0.043	-0.802
-715.748	-86.129	0.837	-0.261
-714.733	268.700	-0.259	0.458
-713.718	-200.000	0.009	-0.389
-712.704	1.636	0.223	-0.162
-711.689	-72.881	0.851	0.316
-710.675	-56.546	0.375	0.168
-709.660	-200.000	-0.013	0.137
-708.645	-200.000	-0.065	1.196
-707.631	800.000	0.286	-0.822
-706.616	-200.000	-0.158	-0.718
-705.602	-66.153	0.777	-0.313
-704.587	800.000	0.042	-0.154
-703.572	-200.000	-0.030	-0.134
-702.558	-160.440	0.677	0.037
-701.543	193.279	0.482	-0.736
-700.529	349.810	0.229	-0.457
-699.514	-23.455	0.409	-0.248
-698.499	-200.000	-0.027	-0.665
-697.485	-181.473	0.607	0.012
-696.470	330.922	-0.539	1.047
-695.456	-94.790	0.969	-0.265
-694.441	43.946	-0.421	0.389
-693.426	-21.576	0.588	-0.361
-692.412	-200.000	-0.043	-0.252
-691.397	-155.967	0.183	-0.012
-690.383	177.795	0.095	0.140
-689.368	-128.851	-0.413	0.059
-688.354	50.364	0.268	-0.256
-687.339	800.000	-0.289	0.928
-686.324	-8.593	0.537	0.364
-685.310	586.133	-0.230	0.570
-684.295	-200.000	0.010	0.891
-683.281	-200.000	0.117	0.538
-682.266	177.112	-0.684	1.003
-681.251	800.000	-0.310	-0.865
-680.237	-200.000	0.107	0.625
-679.222	360.141	0.185	0.374
-678.208	-74.827	0.223	0.081
-677.193	290.784	0.062	-0.114
-676.178	33.362	-1.028	-0.900
-675.164	-200.000	-0.027	-0.523
-674.149	-200.000	0.137	-0.751
-673.135	-17.138	-0.380	-0.241
-672.120	253.116	-0.163	0.280
-671.105	-14.238	-0.053	-0.034
-670.091	17.821	-0.231	-0.185
-669.076	-183.803	0.332	-0.006
-668.062	-200.000	-0.064	-0.817
-667.047	71.310	0.546	-0.571
-666.032	-145.350	-0.393	-0.036
-665.018	-47.299	-0.573	0.281
-664.003	800.000	0.047	0.144
-662.989	800.000	0.206	0.641
-661.974	330.480	-0.351	-0.680
-660.959	535.824	-0.320	0.766
-659.945	-177.589	-0.688	-0.017
-658.930	66.225	-0.500	0.511
-657.916	-80.207	-0.585	0.197
-656.901	-44.741	-0.337	0.169
-655.886	-200.000	0.041	-0.240
-654.872	200.358	-0.483	-0.748
-653.857	-200.000	-0.025	-0.166
-652.843	800.000	0.378	1.402
-651.828	-138.152	-0.996	-0.111
-650.814	-49.002	-0.332	-0.160
-649.799	-200.000	0.038	0.222
-648.784	288.469	-0.279	0.509
-647.770	38.027	-0.213	0.191
-646.755	-96.717	0.838	-0.222
-645.741	800.000	0.085	-0.303
-644.726	800.000	0.282	-1.065
-643.711	800.000	-0.085	-0.292
-642.697	-95.146	0.469	-0.127
-641.682	-200.000	0.052	0.729
-640.668	87.993	-0.386	-0.431
-639.653	73.167	-0.394	0.415
-638.638	-29.163	0.610	-0.352
-637.624	-97.538	-0.268	-0.070
-636.609	-200.000	0.031	0.500
-635.595	5.166	0.702	0.521
-634.580	-22.111	0.380	0.232
-633.565	-86.559	0.128	-0.040
-632.551	800.000	0.213	0.758
-631.536	800.000	0.208	-0.899
-630.522	-200.000	0.023	0.202
-629.507	-200.000	0.043	0.565
-628.492	-55.630	-0.314	-0.141
-627.478	800.000	-0.043	0.137
-626.463	-200.000	-0.121	0.556
-625.449	27.673	0.455	0.385
-624.434	-138.337	1.027	0.114
-623.419	-56.282	-0.170	0.076
-622.405	152.412	-0.127	-0.175
-621.390	-200.000	-0.134	-0.875
-620.376	-65.960	-0.618	-0.248
-619.361	-97.256	-0.308	-0.081
-618.346	71.692	-0.768	0.803
-617.332	24.458	0.343	0.285
-616.317	-79.458	0.496	-0.169
-615.303	26.017	0.694	-0.582
-614.288	54.567	0.333	-0.323
-613.273	-128.895	0.791	0.112
-612.259	21.253	-0.196	-0.160
-611.244	-200.000	-0.086	-0.570
-610.230	800.000	0.206	-0.767
-609.215	-200.000	0.041	0.528
-608.201	-153.250	0.786	0.055
-607.186	277.285	0.040	-0.072
-606.171	-200.000	-0.030	0.608
-605.157	-133.663	0.541	-0.068
-604.142	557.844	0.403	-0.977
-603.128	-56.602	0.910	0.405
-602.113	95.948	0.460	-0.528
-601.098	-16.462	0.352	0.224
-600.084	497.075	0.263	0.608
-599.069	66.984	0.151	0.155
-598.055	-75.593	0.293	-0.105
-597.040	-200.000	0.074	-0.342
-596.025	800.000	0.110	-0.353
-595.011	-91.406	-0.691	-0.198
-593.996	561.313	-0.344	-0.836
-592.982	263.805	-0.448	0.782
-591.967	-200.000	0.063	0.509
-590.952	359.308	0.212	-0.426
-589.938	214.478	-0.470	0.747
-588.923	249.125	0.341	0.580
-587.909	-200.000	-0.012	0.254
-586.894	186.441	-0.161	0.241
-585.879	-156.613	1.118	0.070
-584.865	17.396	0.808	-0.644
-583.850	-43.373	-0.639	0.325
-582.836	-200.000	0.022	-0.206
-581.821	800.000	-0.117	-0.356
-580.806	-200.000	-0.075	0.567
-579.792	-88.940	-0.288	0.086
-578.777	35.295	0.691	0.609
-577.763	-200.000	-0.113	0.723
-576.748	396.616	-0.328	0.689
-575.733	-200.000	-0.002	0.153
-574.719	-40.924	-0.205	-0.107
-573.704	-200.000	-0.018	-0.616
-572.690	-33.540	-0.662	-0.367
-571.675	126.733	-0.518	0.659
-570.661	204.813	0.199	0.309
-569.646	8.486	0.692	0.523
-568.631	-78.566	0.521	-0.179
-567.617	-200.000	-0.056	-0.291
-566.602	38.947	-0.386	0.346
-565.588	-168.158	0.772	-0.030
-564.573	-174.745	0.514	0.015
-563.558	42.553	-0.749	-0.684
-562.544	-130.541	0.256	-0.035
-561.529	698.341	-0.429	1.131
-560.515	-104.675	0.369	0.085
-559.500	163.344	-0.293	-0.413
-558.485	70.780	-0.215	-0.224
-557.471	-73.385	0.461	0.169
-556.456	12.728	0.502	0.389
-555.442	-46.440	0.224	-0.110
-554.427	539.510	-0.231	-0.552
-553.412	-150.653	0.566	-0.043
-552.398	-101.572	0.772	-0.188
-551.383	-94.596	0.900	-0.246
-550.369	0.512	-0.943	-0.676
-549.354	-140.804	-1.311	-0.136
-548.339	-3.368	0.393	-0.274
-547.325	-200.000	-0.046	-0.340
-546.310	-51.025	-0.585	-0.275
-545.296	-151.012	-0.786	0.059
-544.281	785.334	-0.392	-1.079
-543.266	-182.450	0.891	-0.016
-542.252	800.000	0.038	0.154
-541.237	108.356	0.368	-0.441
-540.223	331.738	0.200	0.386
-539.208	-189.850	0.351	-0.004
-538.193	-4.562	0.225	0.156
-537.179	-123.309	-0.832	-0.133
-536.164	119.354	-0.209	-0.259
-535.150	457.967	0.166	-0.369
-534.135	800.000	0.147	0.548
-533.121	-84.571	-0.385	0.122
-532.106	-200.000	-0.044	0.522
-531.091	-200.000	-0.038	-0.294
-530.077	-200.000	0.028	-0.438
-529.062	113.765	-0.557	0.678
-528.048	26.115	-0.524	0.439
-527.033	137.306	-0.711	-0.931
-526.018	76.692	0.241	0.256
-525.004	87.302	-0.181	-0.201
-523.989	-200.000	-0.162	-1.081
-522.975	-200.000	0.020	0.277
-521.960	241.714	-0.647	-1.083
-520.945	-48.161	-0.625	-0.302
-519.931	-200.000	-0.050	-0.396
-518.916	-37.799	0.440	0.234
-517.902	44.661	-0.118	0.109
-516.887	-200.000	-0.012	0.398
-515.872	-108.420	0.418	-0.090
-514.858	1.328	-0.380	-0.273
-513.843	-45.929	-0.383	-0.189
-512.829	800.000	0.121	0.473
-511.814	129.239	-0.315	0.403
-510.799	388.170	-0.167	-0.346
-509.785	-2.463	-0.602	0.422
-508.770	800.000	0.100	0.336
-507.756	623.040	-0.273	0.688
-506.741	-30.641	0.209	-0.119
-505.726	562.029	0.220	0.533
-504.712	800.000	-0.108	0.325
-503.697	23.964	-0.347	0.286
-502.683	-106.234	0.538	0.121
-501.668	20.812	0.106	-0.086
-500.653	-200.000	-0.171	-0.773
-499.639	368.250	-0.211	0.426
-498.624	-69.017	-0.133	0.051
-497.610	-200.000	-0.206	1.377
-496.595	-150.978	0.404	0.031
-495.581	800.000	-0.209	0.793
-494.566	800.000	0.162	0.454
-493.551	-101.998	0.678	0.164
-492.537	800.000	-0.116	-0.322
-491.522	-51.205	0.317	0.149
-490.508	23.277	0.239	-0.196
-489.493	154.050	0.248	-0.340
-488.478	212.130	-0.181	0.286
-487.464	800.000	-0.166	-0.519
-486.449	800.000	-0.022	-0.085
-485.435	26.412	0.337	-0.282
-484.420	27.875	-0.293	0.247
-483.405	-137.280	0.224	-0.025
-482.391	-200.000	-0.050	0.394
-481.376	-153.259	-0.259	-0.018
-480.362	800.000	0.060	0.201
-479.347	-93.328	-0.945	-0.262
-478.332	507.020	0.251	-0.583
-477.318	51.942	0.106	0.101
-476.303	22.648	-0.868	-0.710
-475.289	274.730	0.154	-0.273
-474.274	-26.427	0.798	0.468
-473.259	617.351	0.312	0.784
-472.245	-56.376	0.366	0.162
-471.230	24.866	-0.404	-0.335
-470.216	-73.574	-0.209	-0.076
-469.201	69.935	-0.204	0.210
-468.186	800.000	0.193	0.662
-467.172	44.606	0.366	0.337
-466.157	-200.000	-0.038	-0.558
-465.143	290.827	0.060	-0.109
-464.128	-0.411	0.373	0.265
-463.113	139.308	-0.456	-0.599
-462.099	53.884	-0.167	-0.160
-461.084	470.315	0.080	0.180
-460.070	-190.738	0.428	-0.005
-459.055	3.464	-0.364	-0.265
-458.040	-141.710	0.580	-0.058
-457.026	-169.034	-0.151	-0.006
-456.011	800.000	0.234	-0.676
-454.997	18.960	-0.532	-0.426
-453.982	-97.074	0.583	-0.152
-452.968	-114.811	-0.867	0.165
-451.953	-24.377	-0.849	0.506
-450.938	800.000	-0.377	-1.330
-449.924	448.086	0.261	-0.575
-448.909	-106.087	0.730	0.164
-447.895	-200.000	0.025	-0.427
-446.880	22.836	0.530	0.434
-445.865	-200.000	-0.088	-0.627
-444.851	-200.000	0.047	-0.297
-443.836	115.891	-0.379	-0.463
-442.822	-200.000	0.052	0.347
-441.807	45.535	0.323	-0.298
-440.792	800.000	0.097	0.383
-439.778	-200.000	-0.113	-0.912
-438.763	-89.507	-0.337	0.099
-437.749	-200.000	-0.070	0.571
-436.734	-32.687	-0.848	-0.471
-435.719	-40.238	-0.551	-0.286
-434.705	53.894	0.214	0.205
-433.690	-200.000	-0.064	-0.286
-432.676	9.820	0.454	-0.344
-431.661	659.936	-0.186	-0.477
-430.646	-113.204	0.364	-0.072
-429.632	-141.964	-0.301	0.030
-428.617	-200.000	0.032	-0.381
-427.603	57.007	0.592	-0.576
-426.588	199.382	-0.739	-1.131
-425.573	-96.991	0.555	0.145
-424.559	-200.000	0.004	-0.085
-423.544	136.774	-0.781	1.018
-422.530	78.507	-0.514	0.548
-421.515	-17.383	-0.601	-0.378
-420.500	61.275	-0.135	0.134
-419.486	-200.000	-0.006	0.638
-418.471	800.000	0.035	-0.097
-417.457	556.385	0.207	0.498
-416.442	-88.685	-0.294	-0.087
-415.428	800.000	-0.237	0.910
-414.413	-116.990	0.719	-0.131
-413.398	-200.000	-0.009	0.397
-412.384	-200.000	-0.084	0.525
-411.369	-87.675	0.368	-0.111
-410.355	19.566	-0.329	-0.264
-409.340	36.682	0.574	0.505
-408.325	-200.000	0.004	-0.333
-407.311	24.180	-0.104	0.086
-406.296	-141.990	0.342	0.034
-405.282	800.000	0.078	-0.318
-404.267	-181.732	-0.188	-0.004
-403.252	-16.977	0.151	-0.095
-402.238	-200.000	0.119	-0.618
-401.223	-33.885	-1.071	0.588
-400.209	-113.991	-0.655	-0.127
-399.194	232.364	0.325	-0.532
-398.179	82.274	-0.166	-0.179
-397.165	-200.000	-0.010	0.606
-396.150	-200.000	0.066	-0.431
-395.136	-142.247	-0.266	0.026
-394.121	-200.000	-0.058	-0.647
-393.106	-50.610	0.938	0.441
-392.092	137.784	0.084	0.110
-391.077	562.851	-0.213	0.514
-390.063	-27.050	0.263	0.153
-389.048	324.422	0.212	0.404
-388.033	348.214	-0.503	-0.988
-387.019	76.047	0.020	0.021
-386.004	-200.000	0.028	0.347
-384.990	-120.429	-0.301	0.051
-383.975	177.683	-0.424	0.616
-382.960	169.289	0.397	0.565
-381.946	280.661	-0.372	0.663
-380.931	-5.263	-0.334	0.229
-379.917	146.228	0.251	-0.336
-378.902	145.225	0.291	-0.387
-377.888	75.285	0.126	-0.133
-376.873	-72.082	-0.243	-0.090
-375.858	739.389	-0.179	-0.479
-374.844	-200.000	0.124	-1.197
-373.829	202.965	0.098	-0.150
-372.815	-1.359	0.415	-0.291
-371.800	335.375	0.346	-0.668
-370.785	-121.718	-0.535	0.088
-369.771	-175.121	-0.358	-0.010
-368.756	57.348	-0.643	-0.625
-367.742	800.000	-0.155	0.547
-366.727	-200.000	-0.140	0.796
-365.712	212.533	-0.701	1.101
-364.698	-37.288	-0.511	-0.272
-363.683	349.501	-0.191	0.375
-362.669	-53.811	0.151	0.068
-361.654	800.000	0.204	0.747
-360.639	-86.964	0.229	0.070
-359.625	-31.998	0.571	0.318
-358.610	751.350	0.265	0.713
-357.596	20.655	-0.140	-0.113
-356.581	19.593	-0.392	-0.314
-355.566	187.863	-0.134	0.199
-354.552	-68.860	-0.307	0.118
-353.537	-43.530	-0.531	0.267
-352.523	23.526	-0.419	0.343
-351.508	-98.055	0.466	0.119
-350.493	30.981	0.444	-0.379
-349.479	-200.000	-0.058	-0.583
-348.464	-63.634	0.518	0.211
-347.450	-158.224	0.302	-0.018
-346.435	-17.512	0.159	-0.099
-345.420	-34.040	-0.558	-0.305
-344.406	104.038	-0.337	0.394
-343.391	-200.000	-0.096	0.561
-342.377	-168.487	-0.134	0.005
-341.362	-134.574	0.497	-0.060
-340.348	314.092	-0.178	-0.333
-339.333	-107.066	-0.603	0.132
-338.318	11.794	0.435	0.332
-337.304	-155.219	0.014	-0.001
-336.289	328.625	0.226	0.433
-335.275	-200.000	-0.078	-0.791
-334.260	800.000	-0.272	-0.842
-333.245	20.823	0.109	0.088
-332.231	-200.000	-0.001	-0.335
-331.216	-173.535	0.447	0.013
-330.202	235.494	-0.525	0.863
-329.187	85.544	0.398	0.434
-328.172	346.130	0.248	-0.484
-327.158	-47.848	0.201	0.097
-326.143	417.196	0.198	0.421
-325.129	-200.000	-0.113	0.922
-324.114	800.000	-0.081	-0.309
-323.099	-162.454	-0.733	0.036
-322.085	117.869	0.445	0.545
-321.070	38.151	0.211	-0.187
-320.056	100.534	-0.505	-0.583
-319.041	-32.297	0.467	-0.259
-318.026	-92.413	-0.280	-0.078
-317.012	-57.915	-0.924	0.401
-315.997	62.847	-0.216	0.215
-314.983	532.181	-0.400	0.941
-313.968	333.813	0.478	-0.920
-312.953	-200.000	-0.088	-0.780
-311.939	-200.000	-0.125	0.666
-310.924	-200.000	-0.008	-0.141
-309.910	-99.082	0.122	0.031
-308.895	91.164	-0.336	0.375
-307.880	75.873	-0.576	0.605
-306.866	-192.136	-0.450	-0.004
-305.851	-104.778	0.334	-0.076
-304.837	21.050	-0.214	-0.172
-303.822	-102.449	0.778	-0.185
-302.807	-200.000	-0.007	-0.396
-301.793	-50.190	0.591	0.278
-300.778	-52.903	-0.424	-0.194
-299.764	-162.080	-0.917	0.046
-298.749	193.150	-0.150	0.225
-297.735	-169.726	0.158	-0.006
-296.720	800.000	-0.341	1.041
-295.705	93.482	-0.448	0.504
-294.691	-96.815	-0.667	0.174
-293.676	218.025	-0.283	0.448
-292.662	800.000	0.171	-0.481
-291.647	-116.120	0.194	-0.036
-290.632	-200.000	0.100	-0.464
-289.618	5.965	-0.335	-0.246
-288.603	800.000	-0.206	0.784
-287.589	-200.000	0.208	1.109
-286.574	56.535	0.624	0.602
-285.559	49.690	0.611	-0.571
-284.545	112.747	0.213	0.257
-283.530	-115.047	-0.418	0.079
-282.516	6.784	0.544	-0.402
-281.501	-69.608	-0.301	-0.114
-280.486	800.000	-0.175	-0.619
-279.472	541.256	0.073	-0.172
-278.457	43.027	0.098	0.089
-277.443	51.692	0.273	0.257
-276.428	-36.536	0.318	-0.170
-275.413	-200.000	0.019	-0.378
-274.399	-200.000	-0.043	-0.910
-273.384	-200.000	-0.005	-0.485
-272.370	-200.000	-0.063	-0.553
-271.355	138.069	0.530	0.689
-270.340	-15.083	0.677	-0.430
-269.326	800.000	0.023	-0.097
-268.311	730.657	0.208	-0.552
-267.297	-113.115	0.302	0.059
-266.282	102.451	0.374	-0.434
-265.267	263.816	0.467	0.806
-264.253	345.628	0.324	0.631
-263.238	174.057	-0.421	0.603
-262.224	-145.377	0.526	-0.047
-261.209	239.046	-0.242	0.399
-260.195	-18.618	0.345	0.213
-259.180	-47.223	-0.592	-0.286
-258.165	-200.000	0.059	-0.357
-257.151	16.960	-0.203	0.160
-256.136	54.784	-0.122	0.117
-255.122	555.576	0.059	0.140
-254.107	384.303	-0.361	0.738
-253.092	88.174	-0.347	-0.382
-252.078	102.530	-0.354	0.410
-251.063	-118.336	0.878	0.155
-250.049	-60.482	0.638	0.269
-249.034	-200.000	-0.057	0.292
-248.019	-159.023	0.164	0.009
-247.005	76.684	0.476	-0.501
-245.990	-102.957	-1.264	-0.297
-244.976	-40.832	0.477	-0.245
-243.961	-71.285	0.273	0.102
-242.946	271.034	-0.212	0.370
-241.932	-26.930	0.529	-0.306
-240.917	121.803	-0.443	0.547
-239.903	578.780	-0.165	-0.399
-238.888	-171.436	0.743	-0.025
-237.873	97.827	-0.123	0.140
-236.859	-158.680	0.653	-0.037
-235.844	546.154	-0.142	0.335
-234.830	-200.000	-0.020	0.183
-233.815	-96.136	-0.272	0.071
-232.800	-200.000	-0.047	-0.470
-231.786	97.557	0.339	-0.385
-230.771	-200.000	-0.075	-0.518
-229.757	-113.323	-0.426	-0.083
-228.742	74.200	-0.405	-0.421
-227.727	76.444	0.428	0.450
-226.713	87.943	-0.216	-0.237
-225.698	120.892	0.079	-0.097
-224.684	-94.006	0.726	0.197
-223.669	-97.904	-0.967	0.247
-222.655	33.406	-0.324	0.279
-221.640	-126.457	0.993	-0.146
-220.625	800.000	0.152	-0.460
-219.611	-114.179	-0.615	-0.118
-218.596	151.462	-0.041	0.056
-217.582	-192.202	0.618	0.006
-216.567	67.599	0.279	0.283
-215.552	-200.000	0.081	0.515
-214.538	-120.766	-0.333	-0.056
-213.523	40.959	-0.379	0.339
-212.509	125.521	0.311	0.389
-211.494	258.282	0.293	-0.499
-210.479	-55.727	0.947	-0.419
-209.465	800.000	0.045	0.187
-208.450	19.381	0.319	-0.254
-207.436	154.566	0.509	-0.692
-206.421	405.075	0.247	-0.515
-205.406	3.008	0.799	0.574
-204.392	-200.000	-0.035	1.048
-203.377	752.022	-0.168	0.450
-202.363	-91.229	-0.453	0.128
-201.348	-5.523	0.845	-0.574
-200.333	1.234	-0.831	-0.591
-199.319	-165.171	-1.032	-0.045
-198.304	-78.823	0.560	0.189
-197.290	-51.557	-0.338	-0.156
-196.275	49.561	-0.204	-0.190
-195.260	570.216	0.441	1.061
-194.246	-200.000	0.037	-0.392
-193.231	-10.998	-0.218	0.142
-192.217	-77.275	-1.311	-0.451
-191.202	40.194	-0.353	0.314
-190.187	-100.928	0.619	-0.150
-189.173	727.400	-0.137	-0.361
-188.158	299.839	-0.495	-0.901
-187.144	-34.494	0.665	-0.360
-186.129	601.586	0.031	0.076
-185.114	-117.268	-0.204	-0.037
-184.100	800.000	-0.034	-0.141
-183.085	-200.000	0.016	0.397
-182.071	-61.807	-0.734	0.304
-181.056	-38.007	0.445	-0.234
-180.042	-200.000	0.033	0.388
-179.027	-200.000	-0.089	0.689
-178.012	30.075	-0.369	-0.311
-176.998	-87.717	-0.387	0.115
-175.983	-200.000	0.162	-0.827
-174.969	-200.000	-0.019	0.329
-173.954	182.586	-0.167	0.243
-172.939	800.000	0.081	-0.320
-171.925	100.018	-0.312	-0.358
-170.910	265.302	0.194	-0.335
-169.896	168.024	0.031	-0.044
-168.881	-200.000	0.150	-0.881
-167.866	-46.837	-0.451	0.218
-166.852	800.000	-0.201	-0.601
-165.837	-66.699	-0.770	-0.301
-164.823	62.470	0.505	-0.498
-163.808	31.978	0.369	0.314
-162.793	393.715	0.192	-0.395
-161.779	-169.521	-0.488	0.018
-160.764	15.790	0.318	0.247
-159.750	-200.000	-0.084	0.799
-158.735	-200.000	0.029	0.700
-157.720	-200.000	-0.196	1.098
-156.706	13.810	0.619	-0.476
-155.691	-200.000	-0.017	-0.464
-154.677	-91.449	-0.642	0.181
-153.662	636.567	-0.257	-0.644
-152.647	323.953	0.278	-0.524
-151.633	439.282	-0.216	-0.466
-150.618	-144.543	0.586	-0.054
-149.604	-200.000	-0.046	0.436
-148.589	800.000	0.231	-0.698
-147.574	-200.000	-0.068	0.396
-146.560	626.022	0.214	-0.534
-145.545	800.000	0.132	0.554
-144.531	479.673	0.042	-0.093
-143.516	-200.000	-0.011	-0.148
-142.502	800.000	0.037	0.128
-141.487	-117.522	-1.074	-0.191
-140.472	-185.825	-0.329	-0.005
-139.458	-4.438	0.238	-0.162
-138.443	175.595	-0.417	-0.597
-137.429	-33.229	0.469	-0.257
-136.414	297.384	0.182	0.329
-135.399	-32.212	0.376	-0.207
-134.385	13.472	-0.467	0.357
-133.370	-200.000	-0.557	0.001
-132.356	287.224	0.369	-0.659
-131.341	800.000	-0.140	0.503
-130.326	800.000	0.153	-0.630
-129.312	800.000	0.318	-1.071
-128.297	-66.894	-0.421	0.164
-127.283	-200.000	-0.010	0.214
-126.268	-106.884	-0.706	0.154
-125.253	-93.478	-0.136	0.037
-124.239	-1.014	-0.566	0.395
-123.224	800.000	0.164	-0.562
-122.210	-40.473	0.272	-0.139
-121.195	800.000	0.073	-0.302
-120.180	481.559	0.171	0.383
-119.166	-200.000	-0.071	-0.492
-118.151	-67.468	0.262	-0.101
-117.137	-141.990	-0.390	0.038
-116.122	581.995	0.178	-0.431
-115.107	-10.693	0.586	0.382
-114.093	174.709	0.219	0.312
-113.078	2.474	-0.384	0.274
-112.064	533.435	0.166	0.388
-111.049	316.410	-0.359	0.669
-110.034	-29.996	-0.269	0.151
-109.020	800.000	-0.069	0.218
-108.005	139.378	0.428	-0.555
-106.991	25.764	1.006	-0.826
-105.976	-200.000	-0.049	-0.528
-104.962	240.758	-0.760	-1.249
-103.947	-74.365	-0.533	-0.190
-102.932	33.128	0.657	-0.562
-101.918	236.975	-0.093	-0.152
-100.903	800.000	0.341	1.279
-99.889	-200.000	-0.113	0.694
-98.874	-200.000	0.061	-0.859
-97.859	-91.305	0.065	-0.018
-96.845	-10.707	-0.246	-0.160
-95.830	-70.128	-0.696	-0.261
-94.816	800.000	-0.094	-0.352
-93.801	-35.274	-0.432	-0.232
-92.786	18.377	-0.703	0.554
-91.772	-21.011	0.843	-0.509
-90.757	-58.682	-0.116	0.050
-89.743	-79.586	-0.464	-0.154
-88.728	59.608	0.388	-0.377
-87.713	-98.585	0.345	-0.087
-86.699	-200.000	0.022	-0.515
-85.684	-58.246	0.441	-0.189
-84.670	41.403	-0.395	0.352
-83.655	-91.366	0.800	-0.225
-82.640	800.000	0.084	0.266
-81.626	-200.000	-0.015	0.274
-80.611	-200.000	-0.151	1.043
-79.597	-7.669	0.758	-0.505
-78.582	-51.449	-0.171	0.079
-77.567	297.881	0.239	0.433
-76.553	294.674	0.124	-0.223
-75.538	35.252	0.160	-0.138
-74.524	800.000	0.176	-0.488
-73.509	63.576	0.530	-0.524
-72.494	-135.254	0.554	-0.065
-71.480	-24.601	1.121	0.656
-70.465	-108.844	-0.258	0.054
-69.451	-126.385	0.760	0.111
-68.436	800.000	-0.171	-0.482
-67.422	-117.348	-0.708	0.126
-66.407	208.056	0.607	-0.933
-65.392	-58.929	-0.834	0.355
-64.378	800.000	0.134	0.481
-63.363	-3.639	0.096	-0.066
-62.349	29.854	0.369	0.309
-61.334	-165.723	-1.475	-0.063
-60.319	82.046	0.496	0.529
-59.305	800.000	0.221	-0.874
-58.290	145.238	1.071	1.410
-57.276	73.282	0.863	0.888
-56.261	-200.000	95.241	597.278
-55.246	674.267	1352.887	3453.933
-54.232	204.526	2517.147	3839.339
-53.217	119.419	2139.526	2605.195
-52.203	42.954	1691.567	1517.056
-51.188	35.460	1507.588	1301.436
-50.173	32.778	1481.721	1261.150
-49.159	52.875	1531.860	1440.875
-48.144	54.063	1547.831	1463.906
-47.130	35.630	1507.786	1302.554
-46.115	32.592	1493.873	1270.038
-45.100	32.425	1489.940	1265.521
-44.086	32.298	1488.080	1263.042
-43.071	32.072	1486.291	1259.951
-42.057	32.176	1485.552	1259.976
-41.042	32.454	1482.932	1259.562
-40.027	32.350	1480.812	1257.017
-39.013	32.275	1480.744	1256.407
-37.998	32.339	1478.190	1254.618
-36.984	32.294	1477.587	1253.759
-35.969	32.346	1475.655	1252.412
-34.954	32.416	1475.525	1252.723
-33.940	32.233	1473.846	1250.027
-32.925	32.395	1471.592	1249.146
-31.911	32.293	1471.973	1248.742
-30.896	32.355	1469.692	1247.165
-29.881	32.131	1468.902	1244.962
-28.867	32.411	1468.043	1246.042
-27.852	32.398	1465.148	1243.447
-26.838	32.221	1465.708	1242.702
-25.823	32.203	1463.371	1240.553
-24.809	32.558	1460.428	1240.349
-23.794	32.593	1458.436	1238.838
-22.779	32.421	1458.168	1237.427
-21.765	32.462	1456.306	1236.065
-20.750	32.310	1455.825	1234.612
-19.736	32.506	1453.920	1234.233
-18.721	32.311	1453.122	1232.229
-17.706	32.164	1453.205	1231.285
-16.692	32.144	1452.114	1230.182
-15.677	32.255	1451.652	1230.471
-14.663	32.291	1450.001	1229.254
-13.648	32.124	1449.752	1227.904
-12.633	32.388	1446.192	1226.563
-11.619	32.418	1446.512	1226.978
-10.604	32.320	1446.066	1225.917
-9.590	32.335	1445.813	1225.747
-8.575	32.278	1444.479	1224.196
-7.560	32.294	1443.264	1223.225
-6.546	32.223	1442.947	1222.445
-5.531	32.150	1442.388	1221.451
-4.517	32.313	1440.285	1220.681
-3.502	32.143	1440.144	1219.408
-2.487	32.192	1438.473	1218.264
-1.473	32.194	1437.910	1217.749
-0.458	32.180	1436.894	1216.747
0.556	33.505	1426.728	1205.227
1.571	30.284	1401.573	1163.708
2.586	26.777	1342.620	1093.549
3.600	24.890	1262.238	1017.280
4.615	23.479	1216.678	972.741
5.629	19.937	1161.225	909.742
6.644	11.480	1076.737	802.095
7.659	4.644	1035.819	739.145
8.673	3.717	1030.248	730.721
9.688	3.077	1027.968	726.019
10.702	3.284	1024.851	724.728
11.717	2.964	1023.287	722.054
12.731	6.434	1025.903	740.163
13.746	15.231	1038.894	791.164
14.761	22.687	1049.258	834.396
15.775	24.337	1050.616	843.213
16.790	24.303	1049.096	841.759
17.804	24.086	1047.378	839.281
18.819	23.395	1047.668	836.181
19.834	23.293	1046.382	834.599
20.848	23.335	1046.707	834.982
21.863	23.608	1045.557	835.276
22.877	23.816	1044.634	835.441
23.892	23.282	1044.885	833.060
24.907	23.327	1043.319	831.949
25.921	23.703	1042.543	833.020
26.936	23.393	1041.767	830.872
27.950	23.169	1040.647	828.856
28.965	23.108	1039.486	827.574
29.980	23.106	1038.335	826.574
30.994	23.444	1037.123	827.116
32.009	23.233	1036.799	825.799
33.023	23.147	1037.481	825.868
34.038	23.239	1035.760	824.850
35.053	23.323	1035.240	824.758
36.067	23.349	1032.279	822.446
37.082	23.060	1032.415	821.137
38.096	23.210	1030.949	820.596
39.111	23.314	1030.669	820.783
40.126	23.620	1031.206	822.557
41.140	23.394	1029.519	820.091
42.155	23.093	1028.479	817.800
43.169	22.740	1026.116	814.218
44.184	22.757	1025.719	813.913
45.199	22.951	1023.699	813.129
46.213	22.728	1023.738	812.063
47.228	22.828	1022.885	811.773
48.242	23.081	1023.186	813.102
49.257	23.298	1022.694	813.635
50.271	23.474	1021.176	813.167
51.286	23.579	1020.018	812.651
52.301	23.763	1020.501	813.809
53.315	23.850	1018.905	812.863
54.330	23.556	1018.366	811.015
55.344	23.458	1017.266	809.622
56.359	23.375	1016.763	808.767
57.374	23.213	1014.591	806.231
58.388	23.199	1015.068	806.474
59.403	23.197	1013.954	805.510
60.417	22.806	1012.991	802.895
61.432	22.725	1012.949	802.425
62.447	22.838	1012.583	802.575
63.461	22.872	1011.760	802.005
64.476	22.768	1011.527	801.281
65.490	22.389	1010.034	798.309
66.505	22.478	1008.176	797.172
67.520	22.429	1009.112	797.620
68.534	22.549	1008.046	797.246
69.549	22.972	1006.147	797.585
70.563	22.558	1005.097	794.817
71.578	22.540	1004.418	794.124
72.593	22.245	1003.623	792.098
73.607	21.787	1002.670	789.216
74.622	22.279	1000.753	789.848
75.636	22.318	1001.319	790.399
76.651	22.299	1000.023	789.221
77.666	22.461	999.347	789.346
78.680	22.376	998.874	788.521
79.695	22.527	997.219	787.817
80.709	22.314	997.743	787.211
81.724	22.449	996.949	787.120
82.739	22.754	996.144	787.773
83.753	22.696	996.297	787.567
84.768	23.298	995.016	789.166
85.782	23.862	994.409	791.128
86.797	24.075	994.159	791.804
87.812	23.687	993.877	789.786
88.826	23.570	992.932	788.443
89.841	23.493	992.206	787.458
90.855	23.659	991.650	787.682
91.870	23.741	990.749	787.259
92.884	23.858	989.724	786.895
93.899	23.696	989.690	786.078
94.914	23.419	988.216	783.615
95.928	23.521	988.309	784.072
96.943	23.688	986.113	782.995
97.957	23.354	986.121	781.460
98.972	23.355	985.413	780.832
99.987	23.733	983.254	780.716
101.001	23.663	983.662	780.662
102.016	23.418	983.192	779.143
103.030	23.306	982.172	777.773
104.045	23.402	981.331	777.461
105.060	23.627	980.107	777.409
106.074	23.821	978.500	776.913
107.089	23.461	977.838	774.748
108.103	23.462	976.861	773.907
109.118	23.030	976.128	771.375
110.133	22.978	974.541	769.825
111.147	22.892	973.718	768.732
112.162	22.779	972.698	767.370
113.176	22.564	971.979	765.801
114.191	22.618	970.548	764.838
115.206	22.953	970.279	766.011
116.220	22.906	969.459	765.094
117.235	22.935	967.947	763.956
118.249	22.447	967.773	761.641
119.264	22.485	967.700	761.683
120.279	22.329	966.558	760.041
121.293	22.832	963.359	759.622
122.308	22.180	963.953	757.216
123.322	22.438	963.962	758.269
124.337	22.234	962.211	755.948
125.352	22.015	961.324	754.243
126.366	22.147	960.393	754.013
127.381	22.204	958.876	752.999
128.395	22.245	959.115	753.294
129.410	22.229	959.448	753.421
130.424	22.770	957.216	753.915
131.439	22.735	956.795	753.367
132.454	22.644	956.602	752.759
133.468	23.169	955.309	753.912
134.483	22.654	955.376	751.704
135.497	22.825	954.214	751.449
136.512	23.076	953.349	751.769
137.527	22.843	953.103	750.520
138.541	23.283	951.370	750.954
139.556	22.966	950.909	749.180
140.570	23.312	950.114	749.951
141.585	23.001	950.973	749.244
142.600	23.338	949.399	749.367
143.614	23.677	948.430	749.968
144.629	23.792	947.445	749.609
145.643	23.864	947.714	750.058
146.658	24.027	946.431	749.665
147.673	23.737	945.982	748.020
148.687	23.317	944.017	744.635
149.702	23.183	942.266	742.625
150.716	22.970	942.529	741.873
151.731	23.143	941.089	741.399
152.746	23.166	940.672	741.098
153.760	23.125	940.637	740.833
154.775	23.078	939.516	739.692
155.789	23.504	938.287	740.436
156.804	23.418	937.800	739.630
157.819	23.430	937.030	739.006
158.833	23.679	935.599	738.849
159.848	23.611	935.409	738.350
160.862	23.723	934.557	738.077
161.877	23.874	933.546	737.841
162.892	23.562	932.991	736.043
163.906	23.176	931.909	733.524
164.921	23.463	930.661	733.663
165.935	23.213	929.727	731.831
166.950	22.875	928.890	729.710
167.964	23.074	928.938	730.504
168.979	23.071	927.384	729.205
169.994	23.077	925.801	727.922
171.008	23.191	925.172	727.832
172.023	23.317	924.975	728.129
173.037	23.681	924.736	729.372
174.052	23.760	922.911	728.193
175.067	23.633	922.916	727.610
176.081	23.366	922.074	725.790
177.096	22.727	921.241	722.452
178.110	22.933	918.701	721.239
179.125	22.654	919.412	720.594
180.140	22.997	917.244	720.230
181.154	22.718	917.964	719.593
182.169	23.250	916.409	720.476
183.183	23.043	917.379	720.330
184.198	23.445	916.701	721.371
185.213	23.445	916.240	720.944
186.227	23.302	915.082	719.387
187.242	23.399	915.065	719.705
188.256	23.723	913.564	719.774
189.271	23.716	913.244	719.431
190.286	23.617	913.043	718.808
191.300	23.553	911.918	717.598
192.315	22.779	909.939	712.853
193.329	22.720	908.693	711.578
194.344	22.355	908.480	709.875
195.359	22.537	909.140	711.061
196.373	23.104	908.155	712.512
197.388	23.115	907.597	712.058
198.402	23.689	907.061	713.884
199.417	24.052	907.345	715.504
200.432	23.885	907.174	714.631
201.446	24.168	906.463	715.146
202.461	24.041	905.689	713.960
203.475	23.886	905.588	713.196
204.490	23.628	904.737	711.432
205.504	23.131	903.606	708.487
206.519	23.492	903.083	709.460
207.534	23.202	901.904	707.311
208.548	23.329	901.434	707.389
209.563	23.741	900.109	707.926
210.577	23.598	900.073	707.266
211.592	23.654	898.985	706.574
212.607	23.535	899.721	706.612
213.621	24.255	898.547	708.494
214.636	23.695	898.217	705.944
215.650	23.714	897.315	705.250
216.665	23.938	896.590	705.503
217.680	23.514	896.396	703.608
218.694	23.900	896.485	705.146
219.709	23.982	895.465	704.609
220.723	23.557	895.328	702.754
221.738	23.372	893.884	700.827
222.753	23.480	893.336	700.761
223.767	23.744	891.727	700.478
224.782	23.393	891.718	699.026
225.796	24.006	890.986	700.805
226.811	23.193	892.120	698.428
227.826	23.957	889.085	698.992
228.840	23.523	888.103	696.456
229.855	23.227	888.516	695.556
230.869	22.967	888.456	694.426
231.884	23.184	887.738	694.653
232.899	23.442	886.581	694.697
233.913	23.203	886.608	693.720
234.928	23.014	885.735	692.237
235.942	22.777	884.835	690.546
236.957	22.727	884.359	689.917
237.972	22.673	883.097	688.661
238.986	22.753	882.621	688.541
240.001	22.544	882.259	687.382
241.015	23.022	880.063	687.470
242.030	23.067	880.593	688.000
243.045	23.424	880.067	688.916
244.059	22.918	880.459	687.190
245.074	23.138	879.705	687.398
246.088	23.411	878.799	687.688
247.103	23.637	878.170	688.011
248.117	23.585	877.862	687.506
249.132	23.955	877.261	688.407
250.147	24.206	877.672	689.641
251.161	24.706	876.464	690.563
252.176	24.804	876.773	691.123
253.190	24.800	875.707	690.205
254.205	24.722	875.516	689.693
255.220	24.875	875.345	690.087
256.234	24.657	874.051	688.169
257.249	24.457	872.935	686.462
258.263	24.577	873.758	687.509
259.278	24.540	872.410	686.244
260.293	24.182	872.123	684.581
261.307	24.665	870.827	685.358
262.322	24.635	870.625	685.024
263.336	24.458	870.900	684.500
264.351	24.417	869.370	683.080
265.366	24.378	868.657	682.310
266.380	24.500	867.068	681.468
267.395	24.660	867.429	682.301
268.409	24.362	867.990	681.543
269.424	24.682	866.818	681.784
270.439	24.651	865.441	680.524
271.453	24.032	865.466	678.125
272.468	24.297	863.944	677.877
273.482	24.472	863.428	678.080
274.497	24.301	863.227	677.214
275.512	24.164	863.630	676.948
276.526	24.139	862.084	675.582
277.541	24.667	860.778	676.498
278.555	24.276	860.752	674.935
279.570	24.204	860.109	674.101
280.585	24.623	860.113	675.628
281.599	25.104	859.004	676.512
282.614	24.564	859.183	674.556
283.628	24.171	858.313	672.330
284.643	23.880	857.703	670.697
285.657	24.152	856.930	671.055
286.672	24.266	856.592	671.163
287.687	23.970	855.762	669.340
288.701	24.389	855.242	670.445
289.716	24.675	855.294	671.502
290.730	24.188	854.675	669.129
291.745	24.469	853.166	668.944
292.760	24.398	853.394	668.796
293.774	24.700	851.591	668.452
294.789	24.702	852.879	669.414
295.803	25.033	851.740	669.696
296.818	24.469	851.950	667.695
297.833	24.736	850.114	667.190
298.847	24.309	848.865	664.559
299.862	24.474	848.364	664.726
300.876	24.385	848.014	664.062
301.891	24.720	848.022	665.255
302.906	24.818	848.352	665.820
303.920	25.026	846.812	665.325
304.935	25.153	846.992	665.877
305.949	25.085	846.228	664.965
306.964	24.824	845.867	663.655
307.979	25.015	844.413	663.164
308.993	24.669	843.756	661.310
310.008	24.475	843.675	660.469
311.022	24.844	843.069	661.301
312.037	25.187	842.238	661.858
313.052	24.510	842.261	659.318
314.066	24.704	841.289	659.212
315.081	24.139	840.295	656.294
316.095	23.896	839.633	654.824
317.110	24.272	839.791	656.274
318.125	24.131	839.012	655.088
319.139	24.263	838.049	654.763
320.154	23.866	837.596	652.894
321.168	23.761	837.185	652.130
322.183	24.017	836.518	652.493
323.197	24.170	836.044	652.625
324.212	24.208	835.305	652.130
325.227	24.319	834.864	652.134
326.241	24.414	834.600	652.218
327.256	24.184	833.410	650.390
328.270	24.371	832.939	650.646
329.285	24.120	832.888	649.636
330.300	24.124	832.060	648.945
331.314	23.689	831.858	647.144
332.329	24.017	831.340	647.878
333.343	24.333	830.558	648.363
334.358	24.845	829.393	649.253
335.373	24.673	829.609	648.739
336.387	24.269	830.132	647.625
337.402	24.438	829.603	647.769
338.416	24.909	827.612	647.859
339.431	25.203	827.667	648.911
340.446	25.290	827.839	649.302
341.460	25.556	827.260	649.752
342.475	25.589	827.266	649.818
343.489	25.463	826.952	649.061
344.504	25.677	825.785	648.858
345.519	25.697	824.913	648.187
346.533	25.778	825.292	648.721
347.548	25.669	824.418	647.582
348.562	25.475	823.656	646.230
349.577	25.189	822.801	644.475
350.592	25.214	821.537	643.516
351.606	24.783	822.781	642.886
352.621	24.352	820.775	639.717
353.635	24.859	820.005	640.873
354.650	24.812	820.728	641.216
355.665	24.618	819.377	639.407
356.679	24.868	817.992	639.165
357.694	24.945	818.616	639.868
358.708	24.802	817.885	638.733
359.723	25.197	816.607	639.084
360.738	24.825	815.844	637.109
361.752	24.622	816.597	636.914
362.767	24.845	816.031	637.212
363.781	25.196	815.621	638.085
364.796	25.587	815.648	639.439
365.810	25.292	815.373	638.119
366.825	25.589	815.099	638.904
367.840	25.797	815.040	639.537
368.854	25.357	814.254	637.302
369.869	25.406	814.246	637.414
370.883	25.088	813.198	635.411
371.898	25.058	812.473	634.683
372.913	25.126	812.331	634.755
373.927	25.757	810.834	635.760
374.942	25.413	809.740	633.633
375.956	24.861	809.613	631.528
376.971	25.576	808.962	633.485
377.986	25.401	808.802	632.686
379.000	25.729	808.903	633.864
380.015	25.642	807.981	632.782
381.029	25.070	808.222	630.902
382.044	25.234	808.419	631.577
383.059	25.435	806.214	630.505
384.073	25.900	806.029	631.933
385.088	25.791	805.374	630.984
386.102	25.600	804.394	629.488
387.117	25.227	803.164	627.167
388.132	25.089	803.639	627.002
389.146	24.746	802.840	625.124
390.161	25.062	801.862	625.410
391.175	25.673	801.196	626.964
392.190	25.407	801.676	626.358
393.205	25.451	801.469	626.295
394.219	25.312	800.095	624.680
395.234	24.972	799.324	622.842
396.248	24.194	799.275	620.042
397.263	24.369	798.946	620.341
398.278	24.647	799.174	621.430
399.292	24.744	797.741	620.595
400.307	24.973	796.527	620.389
401.321	24.273	797.276	618.491
402.336	24.620	795.784	618.481
403.350	24.872	795.705	619.236
404.365	25.160	796.306	620.647
405.380	25.626	796.331	622.223
406.394	25.806	796.454	622.885
407.409	26.171	795.505	623.349
408.423	26.054	795.033	622.519
409.438	26.365	794.404	623.046
410.453	25.855	794.508	621.315
411.467	26.185	793.295	621.447
412.482	26.023	793.025	620.620
413.496	26.045	791.501	619.449
414.511	25.956	792.116	619.569
415.526	26.206	792.469	620.652
416.540	25.962	790.923	618.548
417.555	26.102	789.993	618.246
418.569	25.730	790.259	617.125
419.584	26.171	789.237	617.781
420.599	25.954	789.591	617.260
421.613	160.656	1370.093	1792.681
422.628	139.107	1454.694	1792.748
