DTS Sentinel unit serial number:	SN413079Multiplexer serial number:	ORYXHardware model number:	OX4-SRSoftware version number:	ORYX F/W v4.00 Oryx Data Collector v3.7.2.0data status	okinstallation	princeton_trtdifferential loss correction	single-endedforward channel	channel 3reverse channel	N/Adate	2019/09/16time	05:36:34forward acquisition time	60.00reverse acquisition time	0.00gamma	496.2192k internal	0.2335k external	0.2335temperature offset calibration	0.9958default loss term (dB/km)	0.3790temperature slope calibration	1.0000multiplexer offset coefficient	1.0000multiplexer slope coefficient	1.0000fibre end	0.00T internal ref (°C)	27.31T ext. ref 1 (°C)	11.16T ext. ref 2 (°C)	22.07length (m)	temperature (°C)	Stokes	anti-Stokes-747.200	-127.353	-0.112	-0.016
-746.185	800.000	-0.081	0.260
-745.171	800.000	0.015	0.055
-744.156	7.838	-0.204	-0.153
-743.142	64.321	0.065	0.066
-742.127	800.000	-0.037	-0.151
-741.112	-34.639	0.290	-0.159
-740.098	-119.989	-0.388	-0.067
-739.083	-11.524	0.063	-0.042
-738.069	-200.000	0.031	-0.206
-737.054	342.703	-0.086	0.169
-736.039	41.012	-0.138	0.125
-735.025	-66.314	0.404	-0.161
-734.010	117.573	-0.134	-0.165
-732.996	73.778	-0.148	-0.156
-731.981	639.187	0.044	-0.113
-730.966	-90.308	-0.105	0.031
-729.952	-200.000	-0.009	-0.351
-728.937	-200.000	-0.035	-0.390
-727.923	-40.346	0.131	0.069
-726.908	-111.646	-0.188	0.038
-725.894	-165.049	-0.308	0.014
-724.879	114.729	0.185	-0.227
-723.864	-76.699	0.266	-0.094
-722.850	-150.392	-0.218	-0.017
-721.835	-81.451	0.277	0.092
-720.821	550.380	-0.098	-0.235
-719.806	-200.000	-0.030	0.150
-718.791	210.330	0.157	0.248
-717.777	-200.000	0.013	-0.473
-716.762	-1.538	-0.110	0.078
-715.748	116.680	-0.123	-0.152
-714.733	-72.008	-0.183	-0.068
-713.718	119.636	0.105	0.131
-712.704	150.120	0.233	-0.318
-711.689	-200.000	-0.012	-0.122
-710.675	-125.386	0.411	-0.063
-709.660	174.703	-0.189	0.275
-708.645	-124.731	0.116	0.018
-707.631	4.742	-0.096	0.071
-706.616	800.000	0.044	-0.193
-705.602	-47.797	0.336	0.163
-704.587	-21.372	0.159	0.097
-703.572	74.727	0.137	-0.145
-702.558	-66.511	-0.089	-0.035
-701.543	-115.084	-0.136	0.026
-700.529	277.530	0.185	0.330
-699.514	-200.000	-0.022	0.147
-698.499	-125.925	-0.114	0.017
-697.485	12.995	0.096	0.074
-696.470	-37.062	0.317	0.170
-695.456	366.994	-0.055	0.111
-694.441	204.556	0.143	0.222
-693.426	72.174	0.095	0.099
-692.412	800.000	-0.026	-0.089
-691.397	-71.149	-0.248	0.093
-690.383	-79.076	-0.117	-0.040
-689.368	-164.379	0.232	0.011
-688.354	150.471	0.196	-0.267
-687.339	-135.916	0.096	-0.011
-686.324	-33.244	-0.261	-0.145
-685.310	-7.792	-0.175	-0.118
-684.295	362.983	-0.050	0.101
-683.281	216.282	-0.182	0.290
-682.266	-127.688	0.288	0.042
-681.251	518.096	-0.104	-0.244
-680.237	-57.072	0.297	-0.131
-679.222	23.356	0.232	-0.191
-678.208	216.884	-0.061	-0.097
-677.193	692.558	0.090	0.237
-676.178	27.611	-0.359	0.303
-675.164	800.000	0.107	-0.467
-674.149	-109.169	-0.321	-0.068
-673.135	-200.000	-0.019	0.125
-672.120	-200.000	0.029	-0.316
-671.105	-33.202	-0.157	0.087
-670.091	271.503	0.055	-0.096
-669.076	-165.347	-0.199	-0.009
-668.062	-98.244	0.446	-0.115
-667.047	35.421	-0.265	-0.233
-666.032	800.000	-0.010	-0.031
-665.018	287.624	0.132	-0.240
-664.003	33.596	0.104	0.091
-662.989	59.019	-0.157	0.155
-661.974	37.123	0.224	-0.198
-660.959	75.330	-0.103	0.109
-659.945	-26.517	-0.053	0.031
-658.930	184.105	0.098	-0.146
-657.916	532.342	-0.108	0.257
-656.901	160.939	0.039	0.054
-655.886	194.926	-0.093	-0.142
-654.872	800.000	0.078	0.223
-653.857	210.414	-0.108	-0.169
-652.843	622.126	-0.062	-0.156
-651.828	457.334	0.076	0.169
-650.814	81.762	0.254	0.275
-649.799	-55.349	-0.207	0.093
-648.784	-200.000	-0.013	-0.160
-647.770	24.500	-0.145	0.120
-646.755	-20.250	-0.362	-0.223
-645.741	-200.000	0.023	-0.333
-644.726	-131.408	-0.538	0.071
-643.711	118.811	0.057	0.070
-642.697	-132.265	-0.134	-0.017
-641.682	-100.679	0.095	-0.023
-640.668	-81.118	-0.203	0.067
-639.653	-38.373	-0.244	0.129
-638.638	-200.000	-0.039	0.265
-637.624	318.108	-0.123	-0.233
-636.609	-174.634	0.100	-0.003
-635.595	-124.291	-0.150	0.024
-634.580	708.497	-0.047	-0.125
-633.565	-80.135	0.251	0.084
-632.551	239.264	-0.060	0.100
-631.536	-128.764	0.228	0.032
-630.522	-108.819	-0.398	0.085
-629.507	800.000	0.092	-0.285
-628.492	-39.471	-0.165	-0.086
-627.478	-200.000	-0.044	-0.207
-626.463	-69.707	0.381	-0.146
-625.449	204.161	-0.057	-0.088
-624.434	-38.821	0.166	0.088
-623.419	-102.076	0.332	0.080
-622.405	-200.000	-0.011	0.150
-621.390	329.089	0.131	-0.251
-620.376	800.000	-0.094	0.345
-619.361	-200.000	-0.020	0.333
-618.346	-200.000	0.029	0.150
-617.332	-98.926	0.296	-0.075
-616.317	800.000	-0.088	-0.250
-615.303	730.060	-0.059	0.157
-614.288	-73.797	0.136	-0.049
-613.273	38.930	-0.093	0.083
-612.259	-76.459	0.284	0.100
-611.244	-46.409	0.104	-0.051
-610.230	-95.296	0.047	-0.013
-609.215	738.497	0.038	-0.102
-608.201	-200.000	0.024	0.141
-607.186	0.519	-0.177	0.126
-606.171	94.673	-0.102	-0.116
-605.157	156.345	0.174	0.240
-604.142	-149.511	-0.199	-0.016
-603.128	23.041	-0.192	-0.157
-602.113	-200.000	-0.079	-0.412
-601.098	120.444	-0.042	0.052
-600.084	-200.000	-0.018	-0.239
-599.069	-64.110	0.113	0.046
-598.055	-200.000	0.000	-0.057
-597.040	125.885	-0.187	0.236
-596.025	-90.040	-0.210	-0.061
-595.011	-78.212	-0.180	0.062
-593.996	211.003	0.140	0.220
-592.982	-200.000	-0.007	0.075
-591.967	800.000	0.076	-0.229
-590.952	-200.000	0.015	0.097
-589.938	-200.000	0.076	0.353
-588.923	191.519	0.060	-0.091
-587.909	-101.590	0.477	0.116
-586.894	-200.000	0.050	-0.349
-585.879	46.580	-0.061	-0.057
-584.865	800.000	0.021	0.078
-583.850	-36.731	-0.165	-0.088
-582.836	10.608	-0.059	-0.045
-581.821	-41.182	0.209	-0.108
-580.806	-78.832	-0.017	0.006
-579.792	800.000	0.066	0.274
-578.777	35.569	-0.306	-0.268
-577.763	99.156	-0.050	-0.058
-576.748	56.334	-0.123	0.120
-575.733	-82.675	0.248	0.080
-574.719	-149.911	-0.440	-0.034
-573.704	-36.566	0.295	0.159
-572.690	-159.041	-0.279	-0.016
-571.675	-136.623	-0.104	0.012
-570.661	-200.000	0.027	-0.237
-569.646	-100.292	-0.034	0.008
-568.631	114.950	0.079	0.096
-567.617	-54.598	0.214	0.097
-566.602	-137.309	0.198	0.022
-565.588	-114.535	0.205	0.039
-564.573	343.712	-0.150	-0.293
-563.558	-80.278	0.156	0.052
-562.544	-38.041	-0.032	0.017
-561.529	-162.466	-0.378	0.019
-560.515	800.000	0.081	-0.340
-559.500	788.787	0.099	0.271
-558.485	-118.323	-0.231	0.041
-557.471	800.000	0.093	-0.264
-556.456	-23.330	-0.359	0.215
-555.442	-33.704	-0.208	-0.115
-554.427	212.745	0.144	-0.227
-553.412	131.127	-0.046	-0.059
-552.398	619.981	0.079	-0.198
-551.383	800.000	0.116	0.502
-550.369	800.000	-0.062	-0.270
-549.354	10.650	0.046	0.035
-548.339	-99.818	-0.088	-0.022
-547.325	89.666	0.172	-0.191
-546.310	-6.510	-0.329	-0.224
-545.296	-118.961	-0.086	-0.015
-544.281	-200.000	0.026	0.353
-543.266	800.000	-0.032	-0.088
-542.252	-200.000	-0.008	-0.107
-541.237	189.322	-0.192	-0.287
-540.223	-77.277	0.208	0.072
-539.208	84.470	-0.099	-0.108
-538.193	125.207	-0.064	-0.080
-537.179	101.949	0.209	-0.243
-536.164	-139.765	-0.194	-0.021
-535.150	214.975	0.254	-0.401
-534.135	65.005	0.066	-0.066
-533.121	71.782	-0.121	0.125
-532.106	-94.505	-0.153	-0.042
-531.091	23.748	0.086	-0.071
-530.077	-200.000	-0.001	-0.156
-529.062	363.723	0.103	-0.205
-528.048	45.928	0.097	-0.089
-527.033	152.885	-0.037	-0.051
-526.018	33.924	0.105	-0.091
-525.004	800.000	0.053	0.169
-523.989	-200.000	0.010	0.210
-522.975	-67.840	-0.200	-0.078
-521.960	-78.269	0.212	0.073
-520.945	-200.000	-0.049	-0.220
-519.931	1.146	0.118	0.084
-518.916	-200.000	-0.028	-0.159
-517.902	50.914	0.081	0.077
-516.887	-79.767	0.147	-0.049
-515.872	-123.463	-0.254	-0.040
-514.858	-200.000	-0.016	-0.284
-513.843	-179.504	-0.317	0.007
-512.829	800.000	-0.137	0.416
-511.814	48.987	-0.057	-0.054
-510.799	234.382	0.184	0.302
-509.785	214.585	-0.019	-0.030
-508.770	657.788	-0.109	0.280
-507.756	351.583	-0.097	-0.191
-506.741	50.119	-0.159	0.150
-505.726	-200.000	0.012	0.444
-504.712	126.851	-0.052	0.065
-503.697	547.136	-0.099	0.235
-502.683	-200.000	-0.015	-0.137
-501.668	-137.311	-0.256	-0.029
-500.653	178.310	-0.233	-0.339
-499.639	274.068	0.083	0.147
-498.624	-29.269	-0.270	0.154
-497.610	19.080	0.191	-0.153
-496.595	-48.647	-0.040	0.019
-495.581	-103.154	-0.259	0.061
-494.566	-200.000	0.033	-0.190
-493.551	800.000	-0.035	0.139
-492.537	46.577	0.298	0.275
-491.522	129.035	-0.252	0.320
-490.508	-68.517	0.167	-0.064
-489.493	-72.823	-0.304	0.111
-488.478	38.643	-0.185	0.165
-487.464	-128.727	0.268	0.038
-486.449	-43.501	-0.402	0.202
-485.435	-61.300	-0.188	-0.079
-484.420	800.000	-0.111	0.425
-483.405	-26.213	0.053	0.031
-482.391	537.984	-0.118	0.278
-481.376	-200.000	0.004	-0.090
-480.362	-52.480	0.159	0.073
-479.347	800.000	0.047	0.196
-478.332	-44.240	-0.116	-0.058
-477.318	-59.555	-0.365	-0.156
-476.303	141.618	-0.162	-0.213
-475.289	18.371	0.147	-0.117
-474.274	-5.822	-0.146	0.099
-473.259	69.959	0.017	-0.017
-472.245	209.468	-0.134	-0.209
-471.230	158.472	-0.118	0.163
-470.216	271.438	-0.070	-0.123
-469.201	1.681	0.178	0.128
-468.186	-22.304	-0.101	-0.061
-467.172	516.775	0.032	0.073
-466.157	593.725	0.176	-0.433
-465.143	800.000	-0.053	-0.206
-464.128	-200.000	0.024	-0.330
-463.113	800.000	0.040	0.152
-462.099	-154.846	-0.170	-0.011
-461.084	253.508	-0.083	0.141
-460.070	20.303	0.097	-0.078
-459.055	-200.000	0.040	0.173
-458.040	556.436	0.032	-0.076
-457.026	-143.393	0.219	-0.021
-456.011	-11.873	0.199	-0.130
-454.997	-111.251	-0.069	-0.014
-453.982	162.026	-0.273	-0.380
-452.968	-164.080	0.243	-0.011
-451.953	68.563	0.066	0.067
-450.938	-88.505	-0.196	-0.058
-449.924	655.592	-0.047	-0.119
-448.909	-79.554	-0.278	-0.093
-447.895	143.102	0.075	0.100
-446.880	27.560	-0.014	-0.011
-445.865	-139.097	-0.150	0.016
-444.851	-156.300	0.329	-0.021
-443.836	86.905	0.131	-0.144
-442.822	-200.000	0.017	-0.273
-441.807	-113.965	0.324	0.062
-440.792	-108.506	0.022	-0.005
-439.778	800.000	-0.019	-0.077
-438.763	-155.290	0.256	-0.017
-437.749	-70.535	0.356	0.134
-436.734	-46.962	-0.154	0.075
-435.719	-114.195	0.229	-0.044
-434.705	86.503	-0.029	-0.032
-433.690	-54.640	-0.120	0.054
-432.676	-72.026	0.101	0.037
-431.661	501.762	0.139	0.319
-430.646	-66.273	-0.261	-0.103
-429.632	-200.000	0.045	0.449
-428.617	-200.000	-0.012	-0.147
-427.603	-169.304	-0.145	0.005
-426.588	-93.542	0.219	0.060
-425.573	61.394	-0.114	-0.112
-424.559	-5.252	0.141	-0.096
-423.544	800.000	0.068	-0.188
-422.530	19.861	0.050	-0.040
-421.515	-39.793	0.364	-0.189
-420.500	0.748	-0.133	0.094
-419.486	770.719	-0.141	0.381
-418.471	-22.863	-0.128	-0.077
-417.457	-154.319	-0.120	0.008
-416.442	800.000	0.059	-0.184
-415.428	800.000	0.075	-0.219
-414.413	-63.494	-0.075	0.030
-413.398	-129.975	-0.080	0.011
-412.384	-200.000	-0.019	0.275
-411.369	-200.000	0.027	0.195
-410.355	-200.000	-0.030	0.217
-409.340	-110.208	-0.054	-0.011
-408.325	121.249	0.109	-0.135
-407.311	800.000	0.149	0.477
-406.296	800.000	-0.045	0.157
-405.282	609.045	-0.094	-0.233
-404.267	-0.371	-0.070	-0.050
-403.252	8.750	0.160	-0.120
-402.238	-200.000	0.001	-0.130
-401.223	385.545	0.056	-0.115
-400.209	-67.429	-0.033	0.013
-399.194	-49.552	0.167	0.079
-398.179	-200.000	-0.041	-0.257
-397.165	800.000	-0.073	0.245
-396.150	800.000	-0.082	-0.303
-395.136	-200.000	-0.004	0.126
-394.121	213.285	-0.018	0.028
-393.106	462.527	-0.112	0.249
-392.092	15.638	0.084	0.065
-391.077	-9.965	0.139	-0.092
-390.063	-70.926	0.076	0.028
-389.048	438.327	0.133	-0.288
-388.033	-120.112	-0.337	0.057
-387.019	-29.961	-0.174	-0.098
-386.004	376.560	0.090	0.182
-384.990	-39.699	-0.091	0.047
-383.975	149.843	0.112	0.150
-382.960	322.650	0.020	-0.037
-381.946	197.410	-0.065	0.098
-380.931	800.000	-0.125	0.487
-379.917	-200.000	0.008	0.099
-378.902	800.000	0.123	0.338
-377.888	-165.679	-0.179	0.008
-376.873	625.676	-0.059	-0.148
-375.858	-156.645	-0.359	0.022
-374.844	-147.293	-0.242	-0.020
-373.829	-60.863	0.164	0.069
-372.815	-105.709	0.167	0.037
-371.800	367.987	-0.031	-0.062
-370.785	800.000	-0.039	-0.110
-369.771	276.279	0.147	-0.259
-368.756	-116.716	0.199	-0.036
-367.742	-27.543	0.235	-0.135
-366.727	748.296	-0.130	-0.346
-365.712	-200.000	0.028	-0.160
-364.698	-66.198	0.028	-0.011
-363.683	-200.000	0.005	0.291
-362.669	-120.058	0.069	-0.012
-361.654	449.653	0.062	0.136
-360.639	-200.000	-0.011	0.156
-359.625	178.575	-0.082	-0.119
-358.610	-146.655	-0.364	0.031
-357.596	-122.037	0.442	-0.072
-356.581	800.000	-0.024	-0.090
-355.566	800.000	-0.065	0.180
-354.552	-19.278	0.344	-0.211
-353.537	321.548	0.084	-0.158
-352.523	-7.892	-0.118	0.079
-351.508	6.171	-0.278	-0.204
-350.493	-200.000	0.010	-0.387
-349.479	522.352	-0.014	-0.033
-348.464	800.000	-0.032	-0.137
-347.450	-40.975	0.106	-0.054
-346.435	-200.000	0.001	-0.007
-345.420	-200.000	-0.011	-0.311
-344.406	-146.404	0.283	0.024
-343.391	-33.653	0.150	0.082
-342.377	-73.109	-0.227	-0.082
-341.362	-96.701	-0.172	-0.045
-340.348	-87.557	-0.088	0.026
-339.333	800.000	0.074	0.239
-338.318	-200.000	-0.081	0.356
-337.304	91.197	0.273	0.303
-336.289	18.514	-0.199	0.157
-335.275	134.786	0.060	-0.076
-334.260	16.659	-0.122	0.095
-333.245	112.346	0.061	0.073
-332.231	-200.000	0.045	-0.202
-331.216	54.166	0.151	0.144
-330.202	-141.328	0.309	-0.031
-329.187	-200.000	0.021	-0.171
-328.172	-89.431	-0.145	-0.042
-327.158	-17.324	0.160	-0.100
-326.143	-28.511	0.079	0.045
-325.129	137.338	-0.277	-0.358
-324.114	322.716	-0.110	-0.208
-323.099	125.542	0.140	0.175
-322.085	-60.580	0.149	-0.062
-321.070	-125.171	0.549	-0.083
-320.056	21.727	0.022	-0.018
-319.041	-200.000	-0.002	-0.280
-318.026	-22.157	-0.349	-0.209
-317.012	-128.785	0.325	-0.045
-315.997	591.914	0.134	-0.328
-314.983	51.976	-0.053	-0.050
-313.968	-18.928	-0.141	-0.087
-312.953	-44.153	0.066	-0.033
-311.939	-89.573	0.054	-0.016
-310.924	213.666	-0.151	0.237
-309.910	-81.240	0.103	0.033
-308.895	-57.137	0.190	-0.083
-307.880	191.716	-0.071	-0.106
-306.866	-200.000	-0.021	-0.165
-305.851	149.901	-0.138	-0.185
-304.837	-40.329	-0.108	0.055
-303.822	342.465	-0.254	0.490
-302.807	9.991	0.207	0.155
-301.793	176.546	-0.116	0.166
-300.778	476.120	-0.148	-0.331
-299.764	58.995	0.100	-0.097
-298.749	-133.172	-0.268	0.033
-297.735	28.454	0.107	0.089
-296.720	800.000	0.056	-0.156
-295.705	646.973	-0.026	-0.065
-294.691	754.811	0.096	-0.256
-293.676	-200.000	0.056	-0.296
-292.662	-175.760	0.209	-0.006
-291.647	754.146	0.120	-0.322
-290.632	800.000	-0.032	-0.124
-289.618	-71.882	-0.068	0.025
-288.603	-50.197	-0.106	-0.049
-287.589	800.000	-0.035	0.149
-286.574	579.313	-0.129	0.311
-285.559	-67.649	-0.103	0.040
-284.545	-200.000	-0.006	0.153
-283.530	603.782	0.085	0.208
-282.516	5.615	0.282	0.205
-281.501	800.000	-0.068	-0.229
-280.486	365.800	0.163	-0.325
-279.472	-200.000	0.001	-0.185
-278.457	0.998	0.136	0.096
-277.443	-159.197	0.088	0.005
-276.428	629.642	-0.095	0.238
-275.413	76.478	0.115	0.120
-274.399	56.323	0.119	-0.114
-273.384	194.362	-0.195	-0.291
-272.370	459.803	-0.153	-0.336
-271.355	167.798	-0.095	-0.133
-270.340	-79.195	-0.283	0.095
-269.326	800.000	0.036	-0.097
-268.311	8.418	-0.154	-0.114
-267.297	-100.994	0.268	-0.065
-266.282	-200.000	0.010	0.052
-265.267	-67.806	-0.166	0.064
-264.253	53.574	0.177	-0.167
-263.238	131.576	0.174	-0.221
-262.224	-200.000	-0.009	0.042
-261.209	412.386	0.165	0.347
-260.195	-48.550	-0.191	0.090
-259.180	-64.250	-0.077	0.031
-258.165	361.127	0.238	0.470
-257.151	93.268	0.272	0.304
-256.136	92.238	0.121	0.134
-255.122	-200.000	0.048	0.230
-254.107	39.940	-0.142	-0.126
-253.092	-137.604	-0.176	0.020
-252.078	-200.000	0.025	-0.184
-251.063	333.792	-0.162	0.309
-250.049	-134.583	-0.181	0.022
-249.034	57.675	0.091	-0.088
-248.019	217.724	0.042	0.065
-247.005	-200.000	-0.000	0.121
-245.990	159.175	0.117	0.160
-244.976	85.792	0.111	-0.120
-243.961	340.626	-0.034	-0.066
-242.946	145.804	-0.076	-0.101
-241.932	198.323	0.068	-0.103
-240.917	-200.000	-0.031	-0.136
-239.903	-90.002	0.260	-0.075
-238.888	800.000	-0.064	0.253
-237.873	205.156	0.151	0.231
-236.859	-16.617	-0.275	-0.171
-235.844	23.280	-0.156	-0.126
-234.830	19.666	0.115	-0.091
-233.815	400.991	-0.067	0.139
-232.800	-89.474	0.077	-0.022
-231.786	-200.000	0.015	0.308
-230.771	-91.780	-0.295	0.083
-229.757	97.254	-0.203	0.229
-228.742	307.437	0.102	0.187
-227.727	800.000	-0.089	0.331
-226.713	378.420	-0.091	0.183
-225.698	-18.656	0.154	-0.095
-224.684	-6.603	-0.047	0.032
-223.669	117.487	0.284	0.344
-222.655	-200.000	-0.014	-0.178
-221.640	314.377	0.167	-0.309
-220.625	-72.598	-0.049	-0.018
-219.611	16.377	0.258	-0.200
-218.596	19.196	-0.235	-0.185
-217.582	107.528	-0.162	-0.189
-216.567	-200.000	0.016	-0.203
-215.552	223.851	-0.042	-0.068
-214.538	88.254	0.162	0.177
-213.523	-130.258	-0.033	0.004
-212.509	123.002	-0.154	-0.189
-211.494	-60.869	-0.415	0.173
-210.479	-49.048	0.138	0.065
-209.465	202.201	-0.163	0.248
-208.450	19.410	-0.132	0.105
-207.436	800.000	-0.038	0.107
-206.421	97.160	-0.039	-0.044
-205.406	800.000	0.025	0.088
-204.392	-62.365	0.152	0.062
-203.377	-109.576	0.021	-0.004
-202.363	232.968	0.042	0.068
-201.348	439.245	-0.100	0.215
-200.333	208.918	0.331	0.510
-199.319	800.000	0.028	-0.097
-198.304	520.812	0.116	-0.268
-197.290	-6.044	-0.129	0.086
-196.275	-200.000	-0.045	0.293
-195.260	-156.563	0.184	0.011
-194.246	82.125	0.061	0.065
-193.231	-135.971	0.414	-0.048
-192.217	318.054	-0.157	0.293
-191.202	22.143	-0.388	-0.311
-190.187	-200.000	0.001	0.041
-189.173	-200.000	0.055	0.403
-188.158	-108.587	-0.153	0.032
-187.144	-83.904	-0.453	0.142
-186.129	-200.000	0.031	0.167
-185.114	-200.000	-0.010	0.420
-184.100	800.000	0.067	0.258
-183.085	61.553	0.155	-0.152
-182.071	418.390	-0.066	0.138
-181.056	203.322	0.212	-0.323
-180.042	11.508	0.321	-0.242
-179.027	72.035	0.194	-0.199
-178.012	-32.772	-0.114	0.062
-176.998	-70.527	-0.272	0.101
-175.983	-148.138	0.253	0.021
-174.969	286.387	-0.152	0.270
-173.954	118.014	0.083	-0.101
-172.939	392.086	-0.072	0.148
-171.925	-81.542	0.308	-0.100
-170.910	-109.644	0.127	0.026
-169.896	-200.000	0.013	0.233
-168.881	-200.000	0.024	-0.120
-167.866	-200.000	-0.007	-0.194
-166.852	-38.415	0.192	-0.100
-165.837	47.918	0.150	-0.138
-164.823	800.000	0.050	0.138
-163.808	451.700	0.085	-0.185
-162.793	-75.417	0.249	-0.087
-161.779	-200.000	-0.068	0.343
-160.764	280.984	0.052	0.092
-159.750	37.699	0.067	0.058
-158.735	-44.444	0.293	-0.144
-157.720	-200.000	0.008	-0.117
-156.706	-200.000	0.032	0.375
-155.691	64.677	0.134	0.132
-154.677	30.732	0.145	-0.122
-153.662	300.616	-0.083	-0.150
-152.647	86.629	0.189	-0.205
-151.633	-156.329	0.169	-0.010
-150.618	-53.791	-0.146	-0.066
-149.604	-18.642	0.392	0.240
-148.589	-3.499	0.176	0.120
-147.574	-200.000	-0.042	0.356
-146.560	-134.482	0.468	0.056
-145.545	800.000	0.138	-0.437
-144.531	-107.759	-0.343	0.074
-143.516	-109.542	0.138	-0.028
-142.502	-185.265	-0.026	0.000
-141.487	61.379	0.337	-0.328
-140.472	-160.942	0.262	-0.014
-139.458	86.641	-0.139	-0.151
-138.443	300.341	0.165	-0.299
-137.429	26.281	0.218	0.179
-136.414	-37.328	0.105	-0.055
-135.399	700.965	0.088	-0.227
-134.385	800.000	0.036	-0.100
-133.370	-173.815	0.188	0.005
-132.356	30.698	-0.230	-0.193
-131.341	-66.418	0.183	0.071
-130.326	436.346	0.083	0.177
-129.312	140.987	0.139	0.180
-128.297	-95.749	-0.214	-0.056
-127.283	-200.000	0.028	0.166
-126.268	25.608	-0.061	-0.050
-125.253	800.000	-0.036	-0.115
-124.239	-200.000	-0.021	-0.229
-123.224	27.076	0.410	-0.337
-122.210	-28.251	-0.122	0.069
-121.195	-200.000	-0.026	0.236
-120.180	139.362	0.123	-0.158
-119.166	92.901	0.111	-0.123
-118.151	506.661	-0.045	0.102
-117.137	384.332	0.114	-0.229
-116.122	43.561	0.071	0.064
-115.107	-200.000	-0.029	-0.319
-114.093	608.258	-0.093	0.228
-113.078	110.318	0.168	-0.197
-112.064	800.000	-0.041	0.130
-111.049	800.000	0.041	0.156
-110.034	-200.000	-0.068	-0.479
-109.020	204.460	0.094	-0.143
-108.005	-38.070	-0.243	-0.126
-106.991	264.559	0.202	0.345
-105.976	-142.803	0.296	0.028
-104.962	-200.000	-0.003	-0.392
-103.947	711.038	-0.075	-0.193
-102.932	800.000	0.088	0.241
-101.918	-1.396	-0.398	-0.275
-100.903	-89.779	0.479	-0.137
-99.889	-200.000	0.003	0.446
-98.874	-200.000	0.004	0.248
-97.859	800.000	0.090	0.254
-96.845	-108.110	0.184	-0.039
-95.830	90.994	-0.170	0.187
-94.816	388.374	-0.159	-0.322
-93.801	-128.696	0.297	0.041
-92.786	227.933	-0.042	-0.066
-91.772	-10.685	0.369	-0.239
-90.757	800.000	-0.108	-0.375
-89.743	-40.230	0.410	0.209
-88.728	-200.000	-0.040	-0.257
-87.713	316.781	-0.065	-0.121
-86.699	-145.255	-0.052	-0.005
-85.684	625.806	0.160	-0.395
-84.670	149.762	0.223	-0.296
-83.655	-141.100	-0.252	-0.025
-82.640	-200.000	0.021	0.233
-81.626	-161.099	-0.227	-0.012
-80.611	36.946	-0.109	0.094
-79.597	364.354	0.120	-0.236
-78.582	106.407	0.173	0.201
-77.567	35.989	-0.252	0.217
-76.553	-55.609	0.375	-0.164
-75.538	-200.000	-0.013	0.273
-74.524	62.235	0.176	0.172
-73.509	-113.555	-0.070	0.013
-72.494	56.013	0.190	-0.180
-71.480	-200.000	-0.024	-0.330
-70.465	50.916	-0.207	-0.192
-69.451	-200.000	0.015	-0.132
-68.436	-100.392	-0.154	-0.037
-67.422	-200.000	-0.023	-0.183
-66.407	35.301	-0.253	-0.217
-65.392	-200.000	-0.029	-0.163
-64.378	-64.653	-0.324	-0.129
-63.363	87.880	-0.069	0.074
-62.349	-55.350	-0.212	-0.093
-61.334	30.995	-1.083	-0.908
-60.319	203.425	0.461	0.698
-59.305	-200.000	-0.239	-1.061
-58.290	170.670	0.774	1.085
-57.276	403.943	0.690	1.421
-56.261	-200.000	113.281	640.195
-55.246	466.395	1509.646	3307.355
-54.232	147.087	2678.261	3523.915
-53.217	102.510	2177.812	2490.713
-52.203	37.759	1704.229	1480.260
-51.188	30.439	1520.959	1271.152
-50.173	28.133	1496.903	1235.445
-49.159	52.180	1553.858	1448.422
-48.144	50.799	1569.659	1453.611
-47.130	30.619	1526.441	1276.769
-46.115	27.562	1511.569	1243.459
-45.100	27.422	1507.723	1239.294
-44.086	27.294	1506.160	1237.090
-43.071	27.298	1504.107	1235.377
-42.057	27.278	1502.152	1233.585
-41.042	27.363	1500.758	1232.970
-40.027	27.320	1499.498	1231.593
-39.013	27.273	1498.267	1230.215
-37.998	27.269	1496.675	1228.833
-36.984	27.231	1496.240	1228.175
-35.969	27.250	1494.155	1226.541
-34.954	27.280	1492.797	1225.581
-33.940	27.322	1491.418	1224.684
-32.925	27.283	1490.295	1223.447
-31.911	27.376	1488.364	1222.440
-30.896	27.351	1487.237	1221.293
-29.881	27.316	1486.475	1220.391
-28.867	27.251	1485.329	1218.965
-27.852	27.365	1483.593	1218.255
-26.838	27.345	1482.374	1217.067
-25.823	27.346	1480.683	1215.642
-24.809	27.404	1478.726	1214.372
-23.794	27.285	1478.011	1212.944
-22.779	27.335	1476.677	1212.134
-21.765	27.413	1475.470	1211.613
-20.750	27.326	1474.468	1210.161
-19.736	27.376	1473.299	1209.486
-18.721	27.345	1472.097	1208.249
-17.706	27.296	1471.576	1207.449
-16.692	27.364	1469.603	1206.229
-15.677	27.395	1468.529	1205.506
-14.663	27.306	1468.097	1204.512
-13.648	27.337	1467.212	1203.947
-12.633	27.406	1466.038	1203.395
-11.619	27.270	1465.761	1202.219
-10.604	27.248	1464.794	1201.233
-9.590	27.295	1463.700	1200.595
-8.575	27.281	1462.922	1199.821
-7.560	27.407	1461.923	1199.785
-6.546	27.265	1461.429	1198.393
-5.531	27.236	1460.167	1197.121
-4.517	27.352	1459.201	1197.044
-3.502	27.224	1458.529	1195.604
-2.487	27.248	1457.139	1194.572
-1.473	27.195	1456.648	1193.776
-0.458	27.200	1455.188	1192.563
0.556	25.901	1444.845	1182.340
1.571	23.004	1421.244	1144.195
2.586	19.835	1361.826	1076.577
3.600	18.406	1279.982	1003.420
4.615	17.330	1235.321	962.238
5.629	16.869	1182.462	918.485
6.644	14.177	1106.588	845.807
7.659	11.579	1072.180	806.623
8.673	11.351	1066.478	801.143
9.688	11.117	1063.679	797.822
10.702	11.037	1062.109	796.182
11.717	11.126	1060.157	795.083
12.731	12.164	1059.971	799.938
13.746	15.077	1063.090	816.449
14.761	17.541	1065.378	830.160
15.775	17.932	1065.215	831.863
16.790	16.985	1063.905	826.158
17.804	16.059	1061.145	819.440
18.819	15.091	1059.696	813.550
19.834	14.532	1057.949	809.425
20.848	14.167	1057.076	806.913
21.863	14.092	1056.218	805.822
22.877	13.830	1055.200	803.705
23.892	13.579	1054.458	801.858
24.907	13.602	1053.469	801.143
25.921	13.562	1052.697	800.294
26.936	13.610	1051.897	799.843
27.950	13.687	1050.910	799.396
28.965	13.528	1050.271	798.073
29.980	13.544	1049.323	797.361
30.994	13.769	1047.698	797.135
32.009	13.739	1046.929	796.336
33.023	13.840	1045.963	796.013
34.038	13.839	1045.080	795.266
35.053	13.737	1044.560	794.313
36.067	13.758	1043.528	793.558
37.082	13.698	1042.818	792.659
38.096	13.779	1041.473	791.953
39.111	13.740	1040.998	791.339
40.126	13.855	1040.065	791.109
41.140	13.814	1038.401	789.575
42.155	13.712	1037.590	788.403
43.169	13.618	1037.074	787.497
44.184	13.544	1036.112	786.345
45.199	13.424	1035.526	785.261
46.213	13.444	1034.274	784.335
47.228	13.608	1032.946	784.036
48.242	13.610	1032.246	783.444
49.257	13.677	1031.060	782.795
50.271	13.663	1030.088	781.917
51.286	13.702	1029.163	781.329
52.301	13.738	1028.107	780.629
53.315	13.752	1027.304	780.016
54.330	13.693	1026.627	779.156
55.344	13.693	1025.598	778.305
56.359	13.643	1024.524	777.190
57.374	13.671	1023.906	776.781
58.388	13.536	1023.152	775.510
59.403	13.487	1022.498	774.716
60.417	13.440	1021.731	773.846
61.432	13.585	1020.758	773.718
62.447	13.657	1019.670	773.160
63.461	13.574	1019.461	772.549
64.476	13.358	1018.061	770.413
65.490	13.380	1017.639	770.125
66.505	13.498	1016.841	770.005
67.520	13.613	1015.365	769.352
68.534	13.539	1014.995	768.658
69.549	13.504	1014.312	767.911
70.563	13.498	1013.332	767.073
71.578	13.540	1012.823	766.815
72.593	13.450	1011.969	765.684
73.607	13.463	1010.730	764.740
74.622	13.410	1010.058	763.919
75.636	13.423	1009.240	763.292
76.651	13.398	1008.056	762.215
77.666	13.431	1008.036	762.283
78.680	13.384	1007.092	761.285
79.695	13.385	1006.439	760.729
80.709	13.564	1005.760	760.974
81.724	13.530	1004.851	760.059
82.739	13.596	1004.000	759.654
83.753	13.488	1003.779	758.922
84.768	13.645	1002.460	758.578
85.782	13.715	1001.953	758.449
86.797	13.892	1000.864	758.366
87.812	13.896	1000.112	757.748
88.826	13.638	999.527	756.057
89.841	13.665	998.901	755.640
90.855	13.657	997.834	754.729
91.870	13.778	996.890	754.500
92.884	13.828	996.245	754.174
93.899	13.777	995.845	753.570
94.914	13.918	994.485	753.113
95.928	13.819	993.963	752.204
96.943	13.776	993.404	751.520
97.957	13.788	992.527	750.843
98.972	13.763	991.523	749.906
99.987	13.778	990.519	749.147
101.001	13.804	990.071	748.858
102.016	13.840	989.259	748.341
103.030	13.813	988.583	747.640
104.045	13.723	987.406	746.280
105.060	13.785	986.435	745.758
106.074	13.760	985.444	744.832
107.089	13.696	984.915	744.078
108.103	13.668	983.832	743.070
109.118	13.462	983.280	741.664
110.133	13.461	982.066	740.681
111.147	13.518	981.405	740.367
112.162	13.470	980.432	739.353
113.176	13.517	979.732	738.970
114.191	13.720	978.425	738.824
115.206	13.577	978.045	737.837
116.220	13.732	977.044	737.705
117.235	13.643	976.047	736.493
118.249	13.627	975.427	735.887
119.264	13.458	974.834	734.624
120.279	13.628	973.680	734.444
121.293	13.518	973.212	733.541
122.308	13.658	972.202	733.331
123.322	13.646	971.378	732.594
124.337	13.519	970.476	731.286
125.352	13.503	969.033	730.064
126.366	13.611	967.663	729.444
127.381	13.613	966.573	728.566
128.395	13.648	966.143	728.329
129.410	13.554	965.127	727.088
130.424	13.483	963.917	725.802
131.439	13.332	963.585	724.823
132.454	13.712	962.416	725.544
133.468	13.617	961.694	724.519
134.483	13.619	961.795	724.540
135.497	13.594	960.678	723.528
136.512	13.675	959.729	723.103
137.527	13.526	959.018	721.851
138.541	13.705	958.137	721.904
139.556	13.721	957.596	721.503
140.570	13.726	956.973	720.992
141.585	13.681	956.354	720.266
142.600	13.803	955.792	720.306
143.614	13.735	954.975	719.332
144.629	13.863	953.792	718.932
145.643	13.929	953.192	718.703
146.658	13.861	952.701	717.975
147.673	13.820	951.660	716.950
148.687	13.812	950.736	716.157
149.702	13.713	949.984	715.098
150.716	13.662	948.962	714.049
151.731	13.781	948.056	713.814
152.746	13.801	947.160	713.161
153.760	13.900	946.246	712.835
154.775	13.747	946.126	712.024
155.789	13.853	945.071	711.622
156.804	13.864	944.095	710.875
157.819	13.842	944.103	710.720
158.833	13.846	943.115	709.933
159.848	13.965	942.442	709.869
160.862	13.987	941.468	709.168
161.877	13.887	940.963	708.298
162.892	13.964	940.092	707.909
163.906	13.820	939.265	706.612
164.921	13.879	938.306	706.077
165.935	13.931	937.396	705.553
166.950	13.839	936.462	704.396
167.964	13.899	935.429	703.810
168.979	14.049	934.397	703.605
169.994	13.916	933.363	702.203
171.008	13.883	933.023	701.744
172.023	13.874	931.983	700.866
173.037	14.036	931.085	700.808
174.052	14.046	930.307	700.205
175.067	14.035	930.159	699.983
176.081	13.927	929.397	698.897
177.096	14.057	927.980	698.314
178.110	13.952	927.306	697.303
179.125	13.988	926.826	697.031
180.140	14.067	925.763	696.503
181.154	13.993	925.528	695.952
182.169	14.085	924.916	695.818
183.183	14.050	924.446	695.255
184.198	14.033	923.628	694.505
185.213	14.144	922.835	694.313
186.227	14.163	922.055	693.744
187.242	14.172	921.859	693.573
188.256	14.398	920.531	693.452
189.271	14.380	920.111	692.999
190.286	14.238	919.412	691.824
191.300	14.118	918.555	690.616
192.315	14.038	917.931	689.756
193.329	13.964	917.159	688.809
194.344	13.918	916.266	687.885
195.359	14.101	915.821	688.246
196.373	14.127	915.281	687.889
197.388	14.183	914.840	687.728
198.402	14.276	914.136	687.522
199.417	14.297	914.114	687.529
200.432	14.302	913.574	687.086
201.446	14.320	913.270	686.870
202.461	14.557	912.469	687.182
203.475	14.648	911.467	686.742
204.490	14.577	910.995	686.034
205.504	14.490	910.619	685.333
206.519	14.447	909.388	684.167
207.534	14.476	908.719	683.722
208.548	14.483	907.870	683.054
209.563	14.389	907.614	682.414
210.577	14.414	907.166	682.121
211.592	14.458	906.146	681.475
212.607	14.508	905.906	681.436
213.621	14.582	905.267	681.198
214.636	14.623	904.000	680.353
215.650	14.589	903.805	680.005
216.665	14.656	903.127	679.706
217.680	14.664	902.520	679.222
218.694	14.649	902.058	678.757
219.709	14.625	901.549	678.213
220.723	14.694	900.802	677.873
221.738	14.685	900.110	677.255
222.753	14.724	899.133	676.618
223.767	14.677	898.620	675.984
224.782	14.627	897.895	675.176
225.796	14.774	897.205	675.192
226.811	14.794	896.464	674.655
227.826	14.763	895.553	673.785
228.840	14.748	895.067	673.297
229.855	14.697	894.884	672.893
230.869	14.668	894.120	672.142
231.884	14.682	893.567	671.726
232.899	14.786	892.475	671.263
233.913	14.660	892.053	670.378
234.928	14.746	891.263	670.074
235.942	14.826	889.936	669.337
236.957	14.738	889.567	668.645
237.972	14.690	889.080	668.030
238.986	14.657	888.618	667.492
240.001	14.739	888.069	667.347
241.015	14.767	887.154	666.714
242.030	14.766	886.460	666.129
243.045	14.703	885.782	665.307
244.059	14.804	885.343	665.322
245.074	14.985	884.302	665.199
246.088	14.882	884.061	664.549
247.103	14.994	883.389	664.434
248.117	14.988	882.828	663.929
249.132	15.110	881.831	663.603
250.147	15.103	882.094	663.713
251.161	14.967	881.496	662.667
252.176	15.210	880.409	662.753
253.190	15.515	879.482	663.201
254.205	15.210	879.619	662.041
255.220	15.359	878.509	661.733
256.234	15.295	877.909	660.969
257.249	15.320	877.232	660.502
258.263	15.341	876.646	660.084
259.278	15.289	876.500	659.712
260.293	15.374	875.780	659.445
261.307	15.409	875.568	659.366
262.322	15.400	874.980	658.826
263.336	15.459	874.137	658.366
264.351	15.487	873.573	657.993
265.366	15.429	872.843	657.159
266.380	15.425	872.401	656.752
267.395	15.402	871.509	655.932
268.409	15.636	870.716	656.192
269.424	15.369	870.310	654.785
270.439	15.540	869.350	654.671
271.453	15.585	868.544	654.183
272.468	15.442	867.815	653.018
273.482	15.429	867.375	652.579
274.497	15.661	866.544	652.797
275.512	15.494	866.026	651.702
276.526	15.530	865.182	651.147
277.541	15.539	864.504	650.615
278.555	15.392	864.398	649.908
279.570	15.629	863.566	650.142
280.585	15.675	863.815	650.448
281.599	15.730	862.744	649.800
282.614	15.779	862.024	649.388
283.628	15.568	861.348	648.007
284.643	15.615	860.773	647.698
285.657	15.574	859.988	646.894
286.672	15.684	859.713	647.053
287.687	15.691	859.014	646.497
288.701	15.679	858.525	646.024
289.716	15.888	857.796	646.222
290.730	15.695	857.521	645.216
291.745	15.793	857.025	645.161
292.760	15.727	856.392	644.375
293.774	15.875	855.338	644.092
294.789	15.809	855.273	643.733
295.803	15.906	854.374	643.368
296.818	15.826	853.941	642.681
297.833	15.720	853.335	641.764
298.847	15.906	852.023	641.428
299.862	15.959	851.352	641.069
300.876	15.743	851.203	640.077
301.891	15.985	850.041	640.066
302.906	15.979	849.585	639.644
303.920	16.219	848.834	639.931
304.935	16.010	848.640	638.938
305.949	16.114	847.778	638.624
306.964	16.044	847.448	638.054
307.979	16.085	846.670	637.569
308.993	16.027	846.577	637.221
310.008	16.214	845.484	637.050
311.022	16.100	845.166	636.323
312.037	16.164	844.425	635.951
313.052	16.080	844.596	635.704
314.066	16.061	843.550	634.792
315.081	15.965	843.123	634.052
316.095	15.957	842.633	633.598
317.110	16.148	841.896	633.705
318.125	16.096	841.533	633.181
319.139	16.035	841.165	632.617
320.154	15.987	840.358	631.774
321.168	16.150	839.789	631.901
322.183	16.177	839.634	631.831
323.197	16.298	838.894	631.670
324.212	16.231	838.293	630.912
325.227	16.260	837.465	630.342
326.241	16.309	837.148	630.231
327.256	16.041	836.682	628.824
328.270	16.223	836.309	629.165
329.285	16.217	835.578	628.539
330.300	16.227	834.733	627.885
331.314	16.163	834.646	627.524
332.329	16.295	833.808	627.331
333.343	16.131	833.691	626.576
334.358	16.246	832.766	626.255
335.373	16.278	832.394	626.037
336.387	16.323	831.373	625.379
337.402	16.508	831.191	625.871
338.416	16.473	830.469	625.145
339.431	16.367	829.962	624.315
340.446	16.634	829.110	624.605
341.460	16.678	828.736	624.430
342.475	16.484	828.545	623.515
343.489	16.621	827.868	623.457
344.504	16.708	827.293	623.290
345.519	16.760	826.864	623.102
346.533	16.631	826.168	622.047
347.548	16.687	826.143	622.178
348.562	16.741	824.940	621.416
349.577	16.651	824.968	621.050
350.592	16.521	824.162	619.913
351.606	16.590	823.618	619.703
352.621	16.561	823.154	619.191
353.635	16.580	823.205	619.244
354.650	16.663	822.336	618.841
355.665	16.642	822.227	618.628
356.679	16.611	821.806	618.141
357.694	16.724	820.989	617.886
358.708	16.742	820.103	617.230
359.723	16.640	820.075	616.781
360.738	16.708	819.287	616.381
361.752	16.705	818.943	616.057
362.767	16.711	818.271	615.519
363.781	16.892	817.905	615.848
364.796	16.779	817.846	615.340
365.810	16.826	817.497	615.191
366.825	16.858	817.078	614.939
367.840	17.124	816.428	615.358
368.854	17.094	816.050	614.912
369.869	16.949	815.939	614.248
370.883	16.972	814.984	613.559
371.898	17.023	814.338	613.200
372.913	17.052	813.659	612.741
373.927	16.990	813.166	612.090
374.942	17.047	812.032	611.389
375.956	16.929	811.906	610.814
376.971	17.167	810.968	610.911
377.986	17.171	810.693	610.664
379.000	17.202	810.121	610.291
380.015	17.313	809.937	610.495
381.029	17.284	809.228	609.805
382.044	17.192	808.775	609.081
383.059	17.171	808.343	608.625
384.073	17.260	807.450	608.218
385.088	17.307	807.054	608.033
386.102	17.249	806.429	607.299
387.117	17.238	805.635	606.612
388.132	17.116	805.681	606.156
389.146	17.243	805.016	606.053
390.161	17.255	804.998	606.032
391.175	17.248	804.376	605.482
392.190	17.200	804.103	605.052
393.205	17.289	803.440	604.818
394.219	17.182	803.199	604.202
395.234	17.188	802.715	603.807
396.248	17.170	802.173	603.282
397.263	17.237	801.666	603.085
398.278	17.307	800.888	602.695
399.292	17.318	800.519	602.402
400.307	17.389	800.014	602.220
401.321	17.189	800.112	601.530
402.336	17.366	799.512	601.655
403.350	17.223	799.454	601.051
404.365	17.362	798.547	600.807
405.380	17.335	798.168	600.371
406.394	17.636	797.410	600.813
407.409	17.561	797.089	600.251
408.423	17.551	796.967	600.072
409.438	17.568	796.113	599.437
410.453	17.560	796.158	599.388
411.467	17.751	795.325	599.378
412.482	17.723	795.113	599.068
413.496	17.618	794.800	598.410
414.511	17.894	793.971	598.701
415.526	17.744	793.782	597.981
416.540	17.818	793.024	597.616
417.555	17.650	793.147	597.067
418.569	17.795	792.459	597.005
419.584	17.662	791.994	596.137
420.599	17.845	791.564	596.397
421.613	111.660	1292.957	1476.207
422.628	95.977	1365.987	1476.308
