DTS Sentinel unit serial number:	SN413079Multiplexer serial number:	ORYXHardware model number:	OX4-SRSoftware version number:	ORYX F/W v4.00 Oryx Data Collector v3.7.2.0data status	okinstallation	princeton_trtdifferential loss correction	single-endedforward channel	channel 3reverse channel	N/Adate	2019/09/19time	12:20:34forward acquisition time	60.00reverse acquisition time	0.00gamma	496.2192k internal	0.2337k external	0.2337temperature offset calibration	0.9988default loss term (dB/km)	0.3790temperature slope calibration	1.0000multiplexer offset coefficient	1.0000multiplexer slope coefficient	1.0000fibre end	0.00T internal ref (°C)	26.64T ext. ref 1 (°C)	0.87T ext. ref 2 (°C)	23.82length (m)	temperature (°C)	Stokes	anti-Stokes-747.200	800.000	-0.071	0.242
-746.185	-69.125	0.483	0.187
-745.171	660.260	-0.100	0.259
-744.156	241.642	-0.063	0.106
-743.142	800.000	-0.086	-0.315
-742.127	-6.225	-0.297	0.203
-741.112	-149.253	-0.112	-0.009
-740.098	-161.266	-0.455	-0.024
-739.083	-122.010	-0.127	-0.021
-738.069	-200.000	-0.018	0.120
-737.054	-159.053	0.127	0.007
-736.039	257.745	-0.344	-0.594
-735.025	-148.114	0.258	-0.021
-734.010	-150.377	-0.165	-0.013
-732.996	-200.000	0.009	0.152
-731.981	131.548	-0.133	0.171
-730.966	-173.650	0.072	-0.002
-729.952	-200.000	-0.005	-0.086
-728.937	-200.000	0.029	0.288
-727.923	-136.770	-0.287	-0.033
-726.908	-200.000	0.014	-0.149
-725.894	-30.831	0.143	-0.081
-724.879	326.647	0.126	-0.241
-723.864	86.021	-0.536	0.591
-722.850	208.388	-0.188	-0.295
-721.835	3.125	0.114	0.083
-720.821	-116.308	-0.200	-0.037
-719.806	-71.323	0.363	0.136
-718.791	800.000	0.010	-0.035
-717.777	-200.000	0.035	-0.198
-716.762	800.000	-0.065	0.235
-715.748	92.464	-0.089	-0.101
-714.733	38.503	-0.061	0.054
-713.718	32.168	0.059	0.051
-712.704	-64.508	-0.308	-0.125
-711.689	-43.221	-0.226	0.115
-710.675	537.979	-0.083	-0.197
-709.660	652.553	0.111	0.284
-708.645	-170.977	0.128	0.004
-707.631	-139.935	0.038	-0.004
-706.616	91.446	0.068	-0.076
-705.602	25.841	-0.135	-0.113
-704.587	-200.000	0.013	0.157
-703.572	-200.000	-0.014	-0.166
-702.558	800.000	-0.042	0.130
-701.543	-195.068	0.273	0.002
-700.529	584.288	0.092	-0.227
-699.514	-108.389	0.229	0.049
-698.499	5.344	0.192	-0.142
-697.485	35.936	0.038	0.034
-696.470	-109.379	-0.269	0.057
-695.456	-113.631	0.202	-0.040
-694.441	134.675	0.098	0.127
-693.426	-200.000	-0.019	0.210
-692.412	130.394	-0.147	-0.189
-691.397	116.586	-0.153	-0.188
-690.383	-132.770	0.036	-0.005
-689.368	800.000	-0.112	-0.334
-688.354	57.410	-0.145	-0.141
-687.339	-163.088	0.098	0.005
-686.324	-48.400	-0.084	0.040
-685.310	-200.000	-0.012	-0.284
-684.295	800.000	-0.096	-0.298
-683.281	159.443	0.095	0.133
-682.266	1.857	-0.118	0.085
-681.251	331.342	-0.134	-0.258
-680.237	75.395	0.140	0.148
-679.222	-200.000	-0.039	-0.323
-678.208	335.632	-0.148	0.287
-677.193	-148.228	-0.151	0.012
-676.178	11.436	0.167	-0.128
-675.164	-63.753	-0.234	0.096
-674.149	-200.000	-0.035	0.157
-673.135	-189.395	-0.279	0.003
-672.120	59.226	0.118	0.116
-671.105	800.000	-0.013	0.048
-670.091	101.739	0.086	0.101
-669.076	800.000	0.102	-0.307
-668.062	-64.441	0.535	0.217
-667.047	-200.000	0.013	0.181
-666.032	106.811	-0.049	0.058
-665.018	-111.685	-0.120	-0.024
-664.003	-130.151	-0.064	0.009
-662.989	800.000	0.076	-0.250
-661.974	-105.787	-0.387	-0.087
-660.959	-177.374	0.349	0.009
-659.945	15.894	-0.048	0.038
-658.930	-200.000	0.023	0.186
-657.916	-1.464	-0.288	-0.203
-656.901	-84.283	0.175	-0.055
-655.886	106.091	-0.076	-0.090
-654.872	-175.891	0.206	0.005
-653.857	-200.000	0.096	0.465
-652.843	-178.257	-0.139	0.003
-651.828	-200.000	-0.012	0.209
-650.814	657.745	0.071	-0.183
-649.799	-157.791	0.086	-0.005
-648.784	163.768	0.153	0.215
-647.770	-200.000	-0.098	0.480
-646.755	-25.381	0.323	0.191
-645.741	517.107	0.095	-0.222
-644.726	8.139	-0.123	-0.093
-643.711	18.921	0.311	-0.249
-642.697	-145.077	0.290	-0.026
-641.682	-200.000	-0.004	-0.042
-640.668	-182.507	-0.315	0.006
-639.653	-200.000	0.097	0.446
-638.638	16.026	0.188	-0.148
-637.624	-30.015	-0.164	-0.093
-636.609	-44.270	0.101	0.051
-635.595	-42.525	0.240	-0.122
-634.580	18.755	0.257	-0.206
-633.565	588.230	0.071	-0.176
-632.551	52.982	0.144	0.138
-631.536	111.938	-0.286	0.345
-630.522	-12.885	0.090	0.058
-629.507	-200.000	-0.297	-0.001
-628.492	403.189	0.103	0.216
-627.478	-200.000	-0.051	-0.320
-626.463	-2.644	0.230	0.160
-625.449	257.741	0.138	0.237
-624.434	100.182	-0.167	-0.194
-623.419	-97.911	-0.325	-0.084
-622.405	368.915	-0.167	-0.337
-621.390	-9.282	-0.162	-0.108
-620.376	204.909	0.043	0.067
-619.361	-200.000	-0.021	-0.177
-618.346	-200.000	-0.024	-0.131
-617.332	-143.331	-0.301	0.029
-616.317	800.000	-0.034	-0.096
-615.303	-66.867	-0.297	-0.117
-614.288	800.000	-0.077	0.328
-613.273	0.954	0.116	0.083
-612.259	94.361	-0.118	-0.134
-611.244	-181.129	0.153	0.003
-610.230	12.301	0.340	0.261
-609.215	800.000	0.121	-0.507
-608.201	377.970	-0.098	0.200
-607.186	80.177	-0.017	0.018
-606.171	-79.658	0.127	0.043
-605.157	-88.771	-0.144	-0.043
-604.142	-8.684	0.055	-0.037
-603.128	-200.000	0.008	0.122
-602.113	-200.000	0.049	0.239
-601.098	-200.000	0.016	0.137
-600.084	153.766	-0.194	-0.265
-599.069	204.609	-0.069	-0.106
-598.055	-200.000	-0.006	0.052
-597.040	78.662	0.125	-0.133
-596.025	183.098	-0.196	-0.289
-595.011	15.015	-0.115	-0.090
-593.996	-46.753	-0.072	0.035
-592.982	60.009	0.247	-0.243
-591.967	594.620	-0.086	-0.213
-590.952	1.092	0.030	-0.021
-589.938	-155.621	-0.356	0.023
-588.923	-88.651	-0.296	-0.088
-587.909	373.383	-0.100	0.203
-586.894	175.592	-0.124	0.180
-585.879	-57.928	-0.119	0.052
-584.865	-62.814	0.115	0.048
-583.850	155.219	-0.230	-0.315
-582.836	502.558	-0.096	-0.221
-581.821	-11.266	-0.090	0.059
-580.806	-200.000	-0.065	-0.327
-579.792	769.542	0.069	0.188
-578.777	-200.000	0.013	0.354
-577.763	-100.498	0.347	-0.086
-576.748	-74.941	0.492	-0.176
-575.733	-126.643	0.559	-0.083
-574.719	-200.000	0.006	-0.132
-573.704	68.225	0.023	-0.024
-572.690	-1.744	-0.042	-0.029
-571.675	-200.000	0.005	0.164
-570.661	-127.859	-0.411	-0.059
-569.646	-127.512	0.176	0.026
-568.631	-16.532	-0.077	0.048
-567.617	16.977	-0.087	-0.069
-566.602	-38.775	-0.107	0.056
-565.588	165.344	0.314	-0.443
-564.573	-200.000	0.013	0.060
-563.558	-158.664	0.140	-0.008
-562.544	-200.000	-0.074	0.370
-561.529	-48.918	0.151	0.072
-560.515	-200.000	0.008	0.211
-559.500	800.000	-0.084	0.241
-558.485	800.000	-0.069	-0.246
-557.471	-0.674	0.225	0.159
-556.456	116.761	0.188	0.230
-555.442	-40.654	-0.133	-0.069
-554.427	800.000	-0.069	-0.238
-553.412	348.179	-0.109	0.215
-552.398	-200.000	-0.022	-0.120
-551.383	800.000	0.025	0.072
-550.369	376.029	-0.040	0.081
-549.354	28.761	-0.079	0.067
-548.339	800.000	-0.033	-0.102
-547.325	-149.293	-0.142	0.011
-546.310	-49.601	-0.383	0.182
-545.296	-9.115	0.161	0.107
-544.281	-56.423	0.500	-0.221
-543.266	2.898	-0.188	-0.136
-542.252	-200.000	0.007	-0.041
-541.237	-93.613	-0.094	0.026
-540.223	-200.000	-0.021	-0.316
-539.208	-200.000	0.044	-0.531
-538.193	-154.829	-0.238	0.016
-537.179	-200.000	-0.037	-0.196
-536.164	800.000	-0.060	0.173
-535.150	-43.452	0.135	-0.068
-534.135	-50.619	-0.136	0.064
-533.121	148.036	-0.115	-0.154
-532.106	21.767	-0.432	0.350
-531.091	-25.503	0.186	0.109
-530.077	-51.620	0.262	-0.122
-529.062	5.980	0.259	-0.191
-528.048	98.370	-0.139	-0.159
-527.033	-136.443	-0.040	0.005
-526.018	123.839	-0.197	0.246
-525.004	-139.769	0.129	-0.014
-523.989	-24.061	-0.277	-0.165
-522.975	280.495	-0.104	-0.185
-521.960	182.669	-0.149	0.219
-520.945	117.071	-0.120	-0.147
-519.931	377.357	0.132	-0.269
-518.916	574.819	-0.040	0.096
-517.902	800.000	-0.137	0.512
-516.887	133.237	0.101	0.130
-515.872	57.287	0.049	0.047
-514.858	-34.591	-0.156	0.085
-513.843	185.454	-0.151	0.223
-512.829	-146.931	0.189	-0.016
-511.814	365.978	-0.080	0.160
-510.799	-70.790	0.169	0.063
-509.785	-56.381	-0.207	0.091
-508.770	796.483	0.110	0.300
-507.756	-200.000	-0.049	0.317
-506.741	-115.443	-0.104	0.019
-505.726	-200.000	0.063	-0.286
-504.712	227.336	-0.076	-0.124
-503.697	401.478	0.056	0.118
-502.683	-200.000	0.002	-0.025
-501.668	800.000	0.024	-0.100
-500.653	40.195	0.170	0.152
-499.639	739.954	-0.063	0.168
-498.624	-200.000	0.021	0.328
-497.610	89.690	0.293	0.325
-496.595	-96.556	0.067	-0.018
-495.581	800.000	-0.128	-0.396
-494.566	-46.469	0.095	0.047
-493.551	638.927	-0.031	0.077
-492.537	800.000	0.025	0.089
-491.522	-149.244	-0.081	-0.006
-490.508	-122.518	-0.195	-0.031
-489.493	800.000	0.088	-0.304
-488.478	50.439	0.102	-0.096
-487.464	-200.000	0.032	-0.168
-486.449	-4.609	0.177	-0.122
-485.435	-110.969	0.399	-0.081
-484.420	-200.000	0.002	-0.115
-483.405	28.642	0.088	0.074
-482.391	-200.000	-0.007	-0.233
-481.376	800.000	0.106	0.394
-480.362	-200.000	-0.043	-0.235
-479.347	-13.606	0.206	-0.133
-478.332	-4.651	-0.142	-0.097
-477.318	202.450	-0.124	0.190
-476.303	-189.718	-0.509	0.006
-475.289	32.240	0.127	0.109
-474.274	-68.362	-0.212	-0.082
-473.259	-73.393	0.158	0.057
-472.245	-43.384	-0.326	-0.164
-471.230	800.000	0.078	-0.305
-470.216	70.101	0.215	0.221
-469.201	-28.457	-0.143	0.082
-468.186	-110.924	-0.116	-0.024
-467.172	-93.708	-0.255	-0.070
-466.157	86.976	-0.283	0.311
-465.143	153.436	-0.060	-0.082
-464.128	-200.000	-0.034	0.252
-463.113	-200.000	-0.009	-0.075
-462.099	334.787	-0.105	-0.202
-461.084	-167.800	-0.138	-0.005
-460.070	-57.529	0.101	-0.044
-459.055	81.083	-0.182	0.194
-458.040	800.000	0.079	0.248
-457.026	-200.000	-0.008	0.383
-456.011	-200.000	0.064	-0.293
-454.997	800.000	0.071	-0.248
-453.982	293.358	0.105	-0.191
-452.968	250.661	-0.097	-0.163
-451.953	-200.000	0.046	0.214
-450.938	-200.000	-0.033	-0.392
-449.924	158.698	0.158	-0.218
-448.909	-4.637	0.411	0.281
-447.895	-54.871	-0.255	0.114
-446.880	-87.992	-0.391	0.117
-445.865	-74.553	0.281	0.101
-444.851	800.000	-0.026	0.087
-443.836	-24.989	0.219	-0.129
-442.822	-200.000	0.038	0.235
-441.807	-200.000	-0.022	-0.165
-440.792	-88.729	0.351	0.103
-439.778	76.491	-0.329	0.346
-438.763	121.779	0.211	0.261
-437.749	-54.752	0.109	0.049
-436.734	27.843	-0.046	-0.038
-435.719	108.741	-0.245	-0.291
-434.705	800.000	-0.050	-0.216
-433.690	-85.583	-0.295	0.091
-432.676	188.238	0.289	0.429
-431.661	-63.693	0.240	-0.098
-430.646	-119.246	-0.433	0.075
-429.632	-85.244	0.226	0.070
-428.617	146.846	-0.106	0.141
-427.603	-55.676	0.106	-0.047
-426.588	-200.000	0.026	0.208
-425.573	-20.391	-0.146	0.089
-424.559	-200.000	0.083	0.366
-423.544	47.837	0.145	-0.134
-422.530	79.120	0.347	-0.369
-421.515	-200.000	0.000	-0.132
-420.500	41.878	-0.305	-0.274
-419.486	-200.000	-0.002	-0.272
-418.471	-29.685	0.226	-0.128
-417.457	-40.761	-0.222	0.114
-416.442	21.692	-0.060	-0.049
-415.428	-2.934	0.148	0.102
-414.413	-200.000	0.052	0.300
-413.398	-200.000	0.025	-0.223
-412.384	-100.445	0.215	-0.053
-411.369	-200.000	-0.023	-0.125
-410.355	800.000	-0.075	0.208
-409.340	-200.000	0.012	-0.174
-408.325	28.853	0.156	0.131
-407.311	-151.743	0.147	0.011
-406.296	149.803	-0.174	-0.233
-405.282	86.413	-0.116	-0.126
-404.267	24.345	0.352	-0.288
-403.252	800.000	0.178	0.504
-402.238	-200.000	0.003	-0.018
-401.223	7.440	0.250	0.185
-400.209	-200.000	0.030	0.132
-399.194	-200.000	-0.011	0.155
-398.179	-200.000	0.013	0.070
-397.165	-43.675	-0.199	-0.099
-396.150	-200.000	0.035	0.225
-395.136	-200.000	-0.027	0.400
-394.121	441.736	0.024	-0.053
-393.106	800.000	-0.032	0.114
-392.092	-165.467	0.177	0.008
-391.077	-200.000	-0.029	0.191
-390.063	-48.378	-0.337	0.161
-389.048	800.000	0.065	-0.222
-388.033	800.000	0.101	0.304
-387.019	465.293	0.218	-0.483
-386.004	-127.083	0.302	-0.044
-384.990	66.999	0.096	0.097
-383.975	-30.554	-0.157	-0.088
-382.960	87.162	-0.241	0.264
-381.946	418.239	0.107	-0.227
-380.931	-200.000	-0.008	0.228
-379.917	-200.000	-0.045	-0.248
-378.902	-88.942	-0.322	-0.094
-377.888	-107.691	-0.212	-0.046
-376.873	800.000	0.075	0.280
-375.858	-17.966	-0.143	-0.088
-374.844	800.000	0.052	0.170
-373.829	-6.008	-0.155	0.105
-372.815	-84.803	-0.134	-0.042
-371.800	800.000	-0.027	-0.109
-370.785	-200.000	0.038	-0.352
-369.771	191.353	0.090	-0.133
-368.756	-200.000	-0.045	-0.210
-367.742	180.058	0.359	-0.521
-366.727	278.495	0.109	-0.192
-365.712	-91.056	-0.509	0.145
-364.698	13.989	0.212	0.163
-363.683	-200.000	-0.066	-0.382
-362.669	73.919	-0.027	0.028
-361.654	-200.000	0.011	-0.214
-360.639	13.385	-0.092	0.070
-359.625	-56.889	0.517	0.226
-358.610	182.764	0.176	0.257
-357.596	-64.669	-0.059	0.024
-356.581	186.625	0.228	-0.336
-355.566	-33.759	0.268	-0.146
-354.552	-3.750	-0.284	-0.195
-353.537	-200.000	-0.009	0.060
-352.523	-139.522	-0.223	0.024
-351.508	37.105	-0.246	-0.215
-350.493	43.144	0.207	-0.187
-349.479	34.810	-0.078	0.068
-348.464	122.783	-0.093	-0.114
-347.450	-109.559	0.197	0.041
-346.435	-56.762	-0.228	0.100
-345.420	191.814	0.077	-0.115
-344.406	-9.470	-0.275	0.181
-343.391	-67.833	-0.254	0.098
-342.377	-200.000	0.058	-0.320
-341.362	-200.000	-0.039	-0.398
-340.348	214.761	-0.096	-0.151
-339.333	-200.000	-0.027	0.160
-338.318	-32.977	-0.234	-0.128
-337.304	-82.712	-0.117	0.037
-336.289	-64.129	0.247	0.100
-335.275	-200.000	0.014	-0.100
-334.260	-183.695	-0.325	-0.005
-333.245	-200.000	0.002	-0.259
-332.231	193.724	0.017	-0.025
-331.216	-200.000	0.031	-0.225
-330.202	20.353	0.079	0.063
-329.187	800.000	0.031	-0.089
-328.172	-88.754	0.325	0.095
-327.158	85.748	-0.020	-0.022
-326.143	-200.000	-0.068	0.416
-325.129	13.961	0.446	-0.343
-324.114	742.488	0.084	-0.224
-323.099	682.083	-0.093	-0.238
-322.085	42.681	0.074	-0.067
-321.070	-122.468	0.135	0.022
-320.056	276.473	0.042	-0.073
-319.041	800.000	0.050	-0.162
-318.026	-200.000	0.007	0.281
-317.012	153.519	0.286	0.387
-315.997	-106.924	-0.206	0.045
-314.983	13.884	0.196	0.150
-313.968	-47.507	-0.466	-0.223
-312.953	-164.372	0.120	-0.005
-311.939	-200.000	-0.073	-0.368
-310.924	-200.000	-0.014	-0.130
-309.910	-200.000	0.037	-0.176
-308.895	-200.000	0.068	-0.402
-307.880	-64.508	-0.434	0.174
-306.866	-59.608	-0.156	0.066
-305.851	106.663	-0.133	-0.155
-304.837	-39.214	-0.094	0.049
-303.822	800.000	0.098	0.298
-302.807	374.103	-0.085	0.172
-301.793	800.000	0.005	-0.020
-300.778	-56.364	0.213	-0.093
-299.764	95.244	0.139	0.157
-298.749	141.130	0.147	0.192
-297.735	22.747	0.156	0.126
-296.720	-133.287	0.274	0.034
-295.705	-26.126	-0.022	-0.013
-294.691	620.029	0.022	0.056
-293.676	800.000	0.131	0.424
-292.662	-47.700	-0.092	-0.044
-291.647	800.000	0.016	0.058
-290.632	501.784	0.132	0.301
-289.618	800.000	-0.008	-0.030
-288.603	-200.000	-0.008	-0.206
-287.589	17.074	-0.268	0.209
-286.574	-14.496	-0.013	0.008
-285.559	-200.000	-0.046	-0.262
-284.545	-185.857	-0.116	-0.002
-283.530	9.330	0.153	-0.114
-282.516	-200.000	-0.041	0.274
-281.501	-200.000	0.011	-0.257
-280.486	-43.322	-0.295	-0.147
-279.472	206.187	-0.011	0.017
-278.457	800.000	-0.073	-0.229
-277.443	-200.000	-0.008	-0.066
-276.428	427.035	-0.087	0.185
-275.413	-183.530	0.087	0.001
-274.399	800.000	-0.077	-0.258
-273.384	-152.087	-0.159	0.011
-272.370	800.000	-0.130	-0.356
-271.355	-20.021	-0.128	-0.078
-270.340	-88.146	-0.237	0.070
-269.326	140.243	0.091	0.118
-268.311	-47.498	0.035	-0.017
-267.297	366.783	0.113	0.225
-266.282	-200.000	-0.036	0.165
-265.267	-200.000	0.041	0.272
-264.253	-100.737	-0.184	-0.045
-263.238	368.802	0.104	-0.207
-262.224	-26.378	-0.156	-0.090
-261.209	167.936	-0.051	-0.071
-260.195	-143.931	0.157	-0.015
-259.180	143.670	-0.064	-0.083
-258.165	685.851	-0.128	0.330
-257.151	-200.000	-0.007	0.245
-256.136	221.903	0.140	-0.222
-255.122	49.692	-0.331	-0.307
-254.107	-159.792	0.089	0.005
-253.092	230.618	0.117	-0.188
-252.078	262.918	-0.187	-0.320
-251.063	-10.327	-0.172	-0.112
-250.049	800.000	-0.100	0.337
-249.034	27.978	0.188	0.156
-248.019	-108.715	0.161	-0.034
-247.005	-195.141	0.238	-0.002
-245.990	113.017	0.190	0.227
-244.976	7.896	-0.340	0.251
-243.961	-200.000	-0.054	0.264
-242.946	800.000	0.032	-0.136
-241.932	54.111	0.110	0.104
-240.917	-200.000	-0.032	0.263
-239.903	800.000	-0.109	0.388
-238.888	154.822	0.125	-0.169
-237.873	-200.000	-0.005	0.400
-236.859	-50.797	-0.355	0.164
-235.844	-77.693	0.073	0.025
-234.830	-24.663	-0.214	0.125
-233.815	-200.000	0.002	0.260
-232.800	25.443	0.138	0.113
-231.786	42.287	-0.292	-0.261
-230.771	-90.973	-0.018	0.005
-229.757	-64.452	0.273	-0.109
-228.742	-146.586	0.115	0.010
-227.727	-200.000	0.012	-0.382
-226.713	-57.796	0.197	-0.085
-225.698	800.000	0.113	0.485
-224.684	199.342	0.155	0.234
-223.669	-2.497	-0.179	-0.124
-222.655	-75.835	0.328	0.114
-221.640	-34.605	0.116	0.063
-220.625	771.575	-0.064	0.172
-219.611	298.981	0.030	0.054
-218.596	-112.088	0.008	0.001
-217.582	471.083	-0.087	0.193
-216.567	-122.224	-0.193	-0.031
-215.552	-164.374	-0.354	0.016
-214.538	-1.871	0.148	0.103
-213.523	559.936	-0.043	0.103
-212.509	-42.559	0.325	-0.163
-211.494	130.433	0.151	-0.190
-210.479	27.534	0.255	-0.211
-209.465	21.528	0.397	-0.317
-208.450	-59.987	-0.154	-0.065
-207.436	-142.345	0.068	0.007
-206.421	-110.766	0.124	0.025
-205.406	-200.000	-0.018	-0.152
-204.392	-200.000	-0.012	-0.102
-203.377	-200.000	-0.008	0.202
-202.363	-67.395	-0.169	-0.065
-201.348	40.041	-0.280	-0.248
-200.333	-161.889	-0.259	0.013
-199.319	273.968	0.114	-0.197
-198.304	6.355	0.099	-0.072
-197.290	-91.501	0.196	0.055
-196.275	164.243	-0.034	0.047
-195.260	516.462	0.057	0.130
-194.246	-105.914	-0.207	-0.046
-193.231	-99.452	0.137	-0.034
-192.217	-22.434	-0.101	-0.060
-191.202	-53.054	-0.255	0.115
-190.187	-75.322	-0.224	0.078
-189.173	-9.414	-0.042	0.028
-188.158	360.217	-0.068	-0.133
-187.144	800.000	-0.047	0.152
-186.129	800.000	-0.084	-0.311
-185.114	-66.704	0.250	-0.097
-184.100	800.000	-0.034	-0.104
-183.085	-200.000	0.003	-0.177
-182.071	-17.221	0.314	0.194
-181.056	-119.880	0.299	-0.050
-180.042	-118.453	0.062	0.011
-179.027	142.671	-0.051	-0.067
-178.012	-200.000	0.041	-0.178
-176.998	275.647	-0.054	0.094
-175.983	88.664	0.204	0.222
-174.969	-200.000	0.013	-0.303
-173.954	274.484	-0.202	-0.352
-172.939	334.936	-0.169	0.322
-171.925	-41.202	0.181	0.092
-170.910	-200.000	0.051	0.368
-169.896	-200.000	-0.060	0.335
-168.881	6.367	0.412	-0.300
-167.866	86.439	0.044	0.048
-166.852	264.855	0.115	-0.196
-165.837	-174.427	0.589	-0.017
-164.823	62.753	-0.122	0.120
-163.808	-48.340	-0.362	-0.171
-162.793	76.849	-0.142	0.148
-161.779	-10.673	-0.145	0.094
-160.764	-156.450	0.176	0.011
-159.750	-107.884	-0.361	-0.077
-158.735	-200.000	-0.023	0.287
-157.720	328.169	-0.033	-0.061
-156.706	-200.000	-0.006	0.036
-155.691	575.256	0.082	0.196
-154.677	-1.650	0.162	-0.112
-153.662	800.000	0.092	0.362
-152.647	-200.000	0.025	0.191
-151.633	56.086	-0.112	0.106
-150.618	-48.071	0.239	0.113
-149.604	-56.896	-0.254	0.110
-148.589	464.701	-0.273	0.599
-147.574	-200.000	0.037	0.331
-146.560	-200.000	-0.013	-0.136
-145.545	-23.719	-0.167	0.098
-144.531	-200.000	0.010	-0.228
-143.516	-149.056	0.386	0.030
-142.502	66.605	-0.122	-0.122
-141.487	-119.744	-0.197	-0.033
-140.472	-200.000	-0.014	-0.135
-139.458	-200.000	0.038	0.200
-138.443	-200.000	0.001	-0.152
-137.429	85.245	0.105	-0.113
-136.414	-78.120	0.184	0.062
-135.399	98.088	0.280	0.316
-134.385	209.655	0.142	-0.219
-133.370	-198.854	-0.164	-0.001
-132.356	-53.809	0.232	-0.104
-131.341	165.042	0.065	-0.090
-130.326	87.232	0.163	0.176
-129.312	-13.652	-0.148	-0.094
-128.297	-20.196	0.172	0.104
-127.283	-130.235	-0.563	0.075
-126.268	-200.000	0.030	-0.259
-125.253	61.104	-0.110	0.107
-124.239	643.307	0.106	0.264
-123.224	-96.043	0.286	-0.074
-122.210	729.946	0.024	0.063
-121.195	124.721	-0.181	-0.223
-120.180	-129.929	-0.242	-0.033
-119.166	-200.000	0.029	-0.348
-118.151	145.008	0.082	-0.107
-117.137	-12.193	-0.053	-0.034
-116.122	423.931	0.109	0.229
-115.107	54.510	-0.169	-0.160
-114.093	-160.657	-0.357	-0.019
-113.078	-3.572	0.277	0.188
-112.064	-106.642	0.097	0.021
-111.049	-147.266	-0.142	-0.012
-110.034	85.647	0.278	0.299
-109.020	-73.778	-0.232	-0.083
-108.005	-146.829	-0.275	-0.023
-106.991	3.768	0.118	0.084
-105.976	-144.724	0.264	0.024
-104.962	645.888	-0.111	-0.277
-103.947	800.000	-0.071	-0.268
-102.932	15.852	-0.238	-0.183
-101.918	202.866	-0.215	-0.326
-100.903	47.854	-0.413	0.377
-99.889	69.968	0.205	-0.207
-98.874	-47.463	-0.105	-0.050
-97.859	-53.789	0.227	0.102
-96.845	102.113	0.133	-0.152
-95.830	-43.231	-0.189	0.094
-94.816	-51.613	-0.113	-0.052
-93.801	-0.315	0.275	0.191
-92.786	44.581	-0.030	0.027
-91.772	12.530	-0.183	0.138
-90.757	-47.141	0.187	0.089
-89.743	-41.112	-0.191	-0.096
-88.728	-88.463	-0.200	-0.058
-87.713	277.310	0.162	-0.283
-86.699	-76.288	0.172	-0.059
-85.684	78.256	0.233	-0.243
-84.670	55.232	0.005	0.004
-83.655	27.404	0.238	-0.196
-82.640	21.768	0.122	-0.097
-81.626	-172.204	0.248	-0.008
-80.611	709.551	-0.169	-0.437
-79.597	10.410	0.194	-0.145
-78.582	-87.595	-0.272	-0.080
-77.567	-200.000	-0.064	0.420
-76.553	30.307	0.221	-0.184
-75.538	-110.236	0.091	0.019
-74.524	-6.664	-0.243	-0.161
-73.509	-200.000	0.014	-0.303
-72.494	-117.413	-0.261	-0.046
-71.480	216.397	0.036	-0.057
-70.465	-200.000	-0.021	0.454
-69.451	12.948	0.192	0.145
-68.436	198.265	-0.072	-0.107
-67.422	335.077	-0.141	0.266
-66.407	-73.955	0.253	0.090
-65.392	-200.000	-0.105	0.550
-64.378	70.095	0.056	0.056
-63.363	297.705	0.165	0.296
-62.349	125.881	0.047	0.058
-61.334	33.379	-1.206	-1.023
-60.319	162.330	0.458	0.628
-59.305	276.535	-0.531	-0.923
-58.290	800.000	0.417	1.289
-57.276	800.000	0.522	1.636
-56.261	-200.000	112.840	616.848
-55.246	441.033	1520.362	3248.730
-54.232	143.319	2713.660	3528.559
-53.217	100.858	2211.105	2511.235
-52.203	37.527	1726.293	1495.952
-51.188	29.640	1539.392	1279.576
-50.173	27.462	1513.581	1243.223
-49.159	51.110	1571.746	1456.097
-48.144	49.333	1587.423	1458.213
-47.130	30.040	1543.606	1285.653
-46.115	26.968	1528.555	1251.915
-45.100	26.759	1524.941	1247.468
-44.086	26.706	1522.445	1245.013
-43.071	26.679	1520.729	1243.374
-42.057	26.641	1518.850	1241.527
-41.042	26.598	1518.119	1240.583
-40.027	26.697	1515.919	1239.415
-39.013	26.611	1514.369	1237.512
-37.998	26.558	1513.716	1236.571
-36.984	26.592	1512.706	1235.925
-35.969	26.532	1510.969	1234.051
-34.954	26.595	1509.894	1233.547
-33.940	26.583	1508.119	1231.969
-32.925	26.731	1506.504	1231.609
-31.911	26.698	1505.319	1230.366
-30.896	26.626	1504.148	1228.873
-29.881	26.719	1502.701	1228.269
-28.867	26.668	1501.196	1226.645
-27.852	26.716	1499.941	1225.894
-26.838	26.670	1498.967	1224.740
-25.823	26.696	1497.235	1223.451
-24.809	26.759	1495.081	1222.068
-23.794	26.745	1493.489	1220.623
-22.779	26.676	1492.601	1219.386
-21.765	26.708	1491.526	1218.673
-20.750	26.679	1490.365	1217.485
-19.736	26.694	1489.553	1216.871
-18.721	26.651	1488.360	1215.562
-17.706	26.591	1487.445	1214.363
-16.692	26.739	1485.677	1213.865
-15.677	26.767	1484.845	1213.322
-14.663	26.694	1483.988	1212.085
-13.648	26.631	1482.931	1210.756
-12.633	26.706	1482.010	1210.454
-11.619	26.607	1481.544	1209.364
-10.604	26.600	1480.343	1208.288
-9.590	26.578	1479.348	1207.283
-8.575	26.581	1478.388	1206.471
-7.560	26.542	1477.934	1205.791
-6.546	26.544	1477.255	1205.207
-5.531	26.527	1476.170	1204.160
-4.517	26.580	1475.076	1203.566
-3.502	26.659	1473.882	1203.073
-2.487	26.569	1473.279	1201.935
-1.473	26.631	1472.007	1201.263
-0.458	26.656	1470.522	1200.168
0.556	25.891	1461.748	1191.124
1.571	23.596	1436.931	1155.869
2.586	20.432	1374.332	1085.674
3.600	18.686	1288.122	1007.245
4.615	17.322	1242.219	963.537
5.629	14.795	1184.776	905.228
6.644	7.612	1099.593	803.834
7.659	1.790	1060.918	747.008
8.673	1.011	1055.559	739.367
9.688	0.805	1051.945	735.771
10.702	0.866	1050.728	735.148
11.717	0.778	1049.091	733.511
12.731	2.975	1050.071	744.789
13.746	9.904	1059.357	785.098
14.761	15.533	1066.776	818.016
15.775	17.251	1068.273	827.463
16.790	16.937	1067.594	825.337
17.804	16.086	1064.760	818.941
18.819	15.090	1063.099	812.760
19.834	14.712	1061.877	809.917
20.848	14.559	1060.465	808.027
21.863	14.171	1060.226	805.896
22.877	13.887	1059.201	803.673
23.892	13.730	1058.129	802.028
24.907	13.697	1057.207	801.101
25.921	13.744	1056.488	800.710
26.936	13.669	1055.684	799.669
27.950	13.770	1055.458	799.915
28.965	13.778	1054.270	798.980
29.980	13.728	1053.746	798.274
30.994	13.746	1052.956	797.690
32.009	13.908	1051.762	797.495
33.023	13.804	1051.626	796.819
34.038	13.865	1050.294	796.032
35.053	13.881	1049.325	795.305
36.067	13.813	1048.809	794.515
37.082	14.019	1047.483	794.426
38.096	13.904	1046.648	793.173
39.111	13.806	1046.181	792.283
40.126	13.799	1045.492	791.655
41.140	13.822	1044.269	790.773
42.155	13.650	1043.473	789.277
43.169	13.827	1042.183	789.074
44.184	13.622	1041.627	787.611
45.199	13.669	1040.353	786.802
46.213	13.765	1039.068	786.214
47.228	13.581	1038.554	784.886
48.242	13.737	1037.052	784.418
49.257	13.800	1036.160	783.970
50.271	13.828	1035.075	783.215
51.286	13.801	1033.966	782.178
52.301	13.776	1033.418	781.576
53.315	13.698	1032.508	780.452
54.330	13.773	1031.709	780.128
55.344	13.786	1030.647	779.318
56.359	13.731	1029.866	778.403
57.374	13.681	1029.013	777.452
58.388	13.819	1027.773	777.094
59.403	13.710	1027.187	776.073
60.417	13.756	1026.584	775.764
61.432	13.714	1025.977	775.038
62.447	13.536	1025.645	773.889
63.461	13.603	1024.552	773.306
64.476	13.582	1023.618	772.436
65.490	13.686	1022.547	772.043
66.505	13.654	1021.859	771.309
67.520	13.750	1020.853	770.925
68.534	13.719	1020.370	770.350
69.549	13.690	1019.338	769.369
70.563	13.749	1018.460	768.910
71.578	13.702	1018.061	768.326
72.593	13.705	1017.070	767.522
73.607	13.588	1016.172	766.234
74.622	13.560	1015.175	765.286
75.636	13.528	1014.409	764.494
76.651	13.697	1013.717	764.683
77.666	13.580	1013.037	763.566
78.680	13.533	1012.163	762.619
79.695	13.523	1011.305	761.862
80.709	13.728	1010.798	762.354
81.724	13.646	1009.854	761.199
82.739	13.651	1009.402	760.811
83.753	13.617	1008.262	759.729
84.768	13.682	1007.958	759.734
85.782	13.908	1006.662	759.724
86.797	13.864	1006.072	759.008
87.812	13.895	1005.364	758.550
88.826	13.777	1004.206	757.071
89.841	13.816	1003.831	756.898
90.855	13.767	1002.573	755.658
91.870	13.737	1002.422	755.342
92.884	13.870	1001.163	754.932
93.899	13.876	1001.120	754.861
94.914	13.920	999.652	753.886
95.928	14.056	998.939	753.897
96.943	14.013	998.492	753.299
97.957	13.889	997.422	751.865
98.972	13.979	996.697	751.659
99.987	13.922	996.255	751.001
101.001	13.773	995.875	749.974
102.016	13.900	994.470	749.422
103.030	13.896	993.868	748.885
104.045	13.914	992.724	748.038
105.060	13.876	991.526	746.897
106.074	13.963	990.610	746.531
107.089	13.800	990.003	745.278
108.103	13.779	989.462	744.709
109.118	13.816	988.628	744.181
110.133	13.768	987.689	743.194
111.147	13.712	986.976	742.340
112.162	13.796	985.905	741.846
113.176	13.749	985.241	741.072
114.191	13.839	984.447	740.809
115.206	13.918	983.190	740.150
116.220	13.905	982.314	739.369
117.235	13.880	981.861	738.848
118.249	13.819	981.486	738.231
119.264	13.791	980.363	737.195
120.279	13.792	979.342	736.370
121.293	13.769	978.431	735.517
122.308	13.862	977.623	735.255
123.322	13.725	977.000	734.115
124.337	13.836	975.561	733.461
125.352	13.741	974.750	732.363
126.366	13.872	973.292	731.781
127.381	13.640	972.542	730.132
128.395	13.724	971.702	729.808
129.410	13.684	970.830	728.912
130.424	13.791	969.624	728.411
131.439	13.761	968.841	727.629
132.454	13.938	967.828	727.577
133.468	13.838	967.109	726.535
134.483	13.818	966.921	726.242
135.497	13.733	965.812	724.970
136.512	13.866	964.959	724.850
137.527	13.834	963.967	723.899
138.541	13.945	963.235	723.768
139.556	13.808	962.911	722.865
140.570	13.827	962.066	722.250
141.585	13.903	960.996	721.714
142.600	13.929	960.456	721.358
143.614	13.962	959.479	720.702
144.629	13.870	959.159	720.000
145.643	14.035	958.237	719.957
146.658	13.946	957.323	718.824
147.673	14.016	956.534	718.469
148.687	13.959	955.709	717.542
149.702	13.879	954.982	716.584
150.716	13.954	953.736	715.911
151.731	14.057	953.008	715.744
152.746	13.874	952.370	714.412
153.760	14.077	951.506	714.576
154.775	14.042	950.881	713.891
155.789	14.047	950.146	713.299
156.804	13.954	949.432	712.300
157.819	13.990	948.691	711.834
158.833	13.972	947.804	711.032
159.848	14.094	946.915	710.822
160.862	14.002	947.066	710.478
161.877	14.103	945.789	709.889
162.892	14.124	945.059	709.368
163.906	14.154	944.068	708.689
164.921	14.070	943.549	707.882
165.935	13.899	942.766	706.504
166.950	14.021	941.519	706.025
167.964	14.055	940.314	705.202
168.979	14.144	939.665	705.031
169.994	14.114	938.248	703.778
171.008	14.196	937.309	703.359
172.023	14.172	936.621	702.676
173.037	14.128	936.294	702.185
174.052	14.213	935.681	702.020
175.067	14.245	934.800	701.434
176.081	14.215	934.067	700.694
177.096	14.190	932.948	699.687
178.110	14.158	932.264	698.980
179.125	14.163	931.588	698.432
180.140	14.205	930.830	697.980
181.154	14.249	929.609	697.183
182.169	14.234	929.367	696.880
183.183	14.325	928.741	696.728
184.198	14.303	928.070	696.071
185.213	14.304	927.204	695.365
186.227	14.410	926.672	695.347
187.242	14.275	926.262	694.414
188.256	14.408	925.616	694.422
189.271	14.333	924.768	693.412
190.286	14.343	924.038	692.845
191.300	14.326	923.605	692.389
192.315	14.259	922.649	691.331
193.329	14.185	922.058	690.519
194.344	14.152	921.545	689.938
195.359	14.139	920.824	689.285
196.373	14.415	919.914	689.684
197.388	14.524	919.328	689.635
198.402	14.407	919.575	689.275
199.417	14.499	918.581	688.848
200.432	14.485	918.359	688.565
201.446	14.479	918.196	688.356
202.461	14.537	917.261	687.835
203.475	14.711	917.019	688.307
204.490	14.632	916.428	687.478
205.504	14.591	915.437	686.506
206.519	14.550	914.380	685.483
207.534	14.601	913.698	685.124
208.548	14.638	912.869	684.591
209.563	14.483	912.491	683.614
210.577	14.616	911.563	683.400
211.592	14.687	910.631	682.930
212.607	14.701	910.316	682.693
213.621	14.690	910.032	682.374
214.636	14.753	909.032	681.821
215.650	14.739	908.465	681.279
216.665	14.665	908.031	680.591
217.680	14.604	907.759	680.077
218.694	14.767	906.888	680.029
219.709	14.855	906.458	680.004
220.723	14.769	905.833	679.126
221.738	14.703	905.354	678.437
222.753	14.814	904.312	678.047
223.767	14.751	904.106	677.578
224.782	14.926	902.833	677.274
225.796	14.961	901.929	676.678
226.811	14.914	901.561	676.151
227.826	14.992	900.630	675.707
228.840	15.035	899.749	675.160
229.855	14.822	899.362	673.950
230.869	14.937	898.664	673.832
231.884	14.921	897.988	673.201
232.899	14.921	897.400	672.701
233.913	15.006	896.808	672.539
234.928	14.842	896.152	671.330
235.942	14.913	895.429	671.012
236.957	14.999	894.207	670.384
237.972	15.130	893.860	670.585
238.986	14.887	893.060	668.954
240.001	15.021	892.325	668.883
241.015	15.031	891.791	668.462
242.030	15.023	891.131	667.876
243.045	15.157	890.399	667.803
244.059	15.061	890.249	667.249
245.074	15.217	889.105	666.951
246.088	15.081	888.924	666.218
247.103	15.079	888.290	665.677
248.117	15.161	887.219	665.139
249.132	15.190	886.929	664.977
250.147	15.200	886.484	664.625
251.161	15.302	885.636	664.334
252.176	15.273	885.076	663.740
253.190	15.332	884.051	663.147
254.205	15.482	883.309	663.123
255.220	15.483	882.880	662.748
256.234	15.472	882.155	662.102
257.249	15.543	881.292	661.674
258.263	15.474	881.053	661.166
259.278	15.468	880.538	660.695
260.293	15.550	879.927	660.502
261.307	15.598	879.441	660.265
262.322	15.402	879.091	659.178
263.336	15.436	878.557	658.849
264.351	15.641	877.554	658.844
265.366	15.662	877.067	658.502
266.380	15.747	876.162	658.099
267.395	15.624	875.589	657.128
268.409	15.725	874.650	656.761
269.424	15.711	874.120	656.249
270.439	15.521	873.911	655.293
271.453	15.612	872.651	654.646
272.468	15.667	872.136	654.415
273.482	15.696	871.158	653.734
274.497	15.736	870.938	653.669
275.512	15.617	870.372	652.721
276.526	15.662	869.544	652.218
277.541	15.674	868.866	651.698
278.555	15.691	868.244	651.240
279.570	15.872	867.394	651.244
280.585	15.905	867.039	651.047
281.599	15.816	866.343	650.124
282.614	15.827	866.185	649.990
283.628	15.839	865.142	649.197
284.643	15.935	864.922	649.346
285.657	15.808	864.119	648.197
286.672	15.833	863.817	648.007
287.687	15.955	863.240	647.986
288.701	15.942	862.645	647.433
289.716	15.859	862.566	646.997
290.730	15.853	861.759	646.312
291.745	16.066	860.655	646.245
292.760	16.046	859.778	645.449
293.774	16.015	859.290	644.907
294.789	16.001	858.982	644.568
295.803	15.947	858.391	643.858
296.818	16.018	857.605	643.483
297.833	16.170	856.756	643.370
298.847	15.992	856.358	642.337
299.862	16.057	855.390	641.800
300.876	16.085	854.622	641.273
301.891	16.122	854.060	640.938
302.906	16.093	853.608	640.429
303.920	16.166	852.697	639.968
304.935	16.207	852.204	639.694
305.949	16.284	851.608	639.484
306.964	16.340	850.884	639.096
307.979	16.334	850.494	638.725
308.993	16.248	849.941	637.928
310.008	16.260	849.201	637.359
311.022	16.185	849.284	637.082
312.037	16.384	848.241	636.995
313.052	16.227	848.462	636.512
314.066	16.261	847.407	635.792
315.081	16.301	846.294	635.049
316.095	16.373	846.042	635.078
317.110	16.462	845.394	634.867
318.125	16.316	845.188	634.107
319.139	16.345	844.714	633.806
320.154	16.348	844.257	633.418
321.168	16.478	843.389	633.199
322.183	16.378	842.904	632.404
323.197	16.402	842.483	632.121
324.212	16.506	841.633	631.815
325.227	16.521	841.488	631.707
326.241	16.589	840.859	631.433
327.256	16.398	840.182	630.158
328.270	16.439	839.629	629.840
329.285	16.534	839.137	629.769
330.300	16.447	838.645	629.018
331.314	16.552	837.905	628.798
332.329	16.675	836.989	628.514
333.343	16.420	836.886	627.435
334.358	16.500	836.082	627.073
335.373	16.532	835.722	626.863
336.387	16.722	834.887	626.886
337.402	16.667	834.676	626.470
338.416	16.834	833.896	626.447
339.431	16.634	833.858	625.623
340.446	16.631	832.618	624.625
341.460	16.664	832.402	624.531
342.475	16.891	831.924	624.952
343.489	16.857	831.052	624.119
344.504	16.907	830.523	623.850
345.519	16.825	830.232	623.274
346.533	16.956	829.713	623.311
347.548	16.739	829.128	622.018
348.562	16.841	828.628	621.961
349.577	16.751	827.973	621.087
350.592	16.816	827.481	620.900
351.606	16.964	826.941	620.983
352.621	16.798	826.568	620.038
353.635	16.882	826.111	619.949
354.650	16.940	825.785	619.860
355.665	16.919	825.565	619.565
356.679	16.777	825.163	618.691
357.694	16.925	824.193	618.448
358.708	16.961	823.725	618.172
359.723	16.862	823.219	617.379
360.738	16.892	822.654	617.009
361.752	16.853	822.764	616.894
362.767	16.908	821.834	616.344
363.781	17.045	821.500	616.534
364.796	17.125	821.022	616.411
365.810	17.236	819.965	615.968
366.825	17.186	819.776	615.589
367.840	17.234	819.788	615.719
368.854	17.286	819.116	615.346
369.869	17.137	818.850	614.552
370.883	17.190	818.295	614.274
371.898	17.225	817.624	613.842
372.913	17.294	816.955	613.536
373.927	17.193	816.459	612.743
374.942	17.375	815.664	612.748
375.956	17.398	815.015	612.289
376.971	17.444	814.402	611.941
377.986	17.402	814.034	611.458
379.000	17.359	813.537	610.875
380.015	17.385	812.992	610.505
381.029	17.478	812.408	610.347
382.044	17.515	812.047	610.157
383.059	17.587	811.123	609.664
384.073	17.503	810.797	609.066
385.088	17.445	810.537	608.607
386.102	17.439	810.062	608.175
387.117	17.601	809.189	608.046
388.132	17.478	808.735	607.210
389.146	17.548	808.622	607.324
390.161	17.556	808.467	607.181
391.175	17.514	807.992	606.622
392.190	17.627	807.350	606.487
393.205	17.590	806.672	605.795
394.219	17.451	806.660	605.238
395.234	17.621	805.795	605.136
396.248	17.379	805.452	603.966
397.263	17.500	805.196	604.152
398.278	17.471	804.661	603.594
399.292	17.428	804.115	602.977
400.307	17.599	803.583	603.131
401.321	17.546	803.203	602.606
402.336	17.529	802.860	602.234
403.350	17.711	802.507	602.561
404.365	17.757	801.861	602.183
405.380	17.776	801.390	601.844
406.394	17.761	800.836	601.321
407.409	17.866	800.302	601.237
408.423	17.756	800.198	600.720
409.438	17.983	799.645	601.048
410.453	17.895	799.420	600.516
411.467	17.882	798.598	599.801
412.482	18.075	798.151	600.091
413.496	17.812	798.007	599.007
414.511	17.957	797.808	599.313
415.526	18.007	797.399	599.127
416.540	17.908	796.673	598.182
417.555	18.047	796.128	598.205
418.569	17.978	795.777	597.647
419.584	17.983	795.025	597.047
420.599	18.066	794.190	596.660
421.613	113.370	1295.023	1480.833
422.628	97.586	1367.981	1480.923
