DTS Sentinel unit serial number:	SN413079Multiplexer serial number:	ORYXHardware model number:	OX4-SRSoftware version number:	ORYX F/W v4.00 Oryx Data Collector v3.7.2.0data status	okinstallation	princeton_trtdifferential loss correction	single-endedforward channel	channel 3reverse channel	N/Adate	2019/09/13time	05:48:35forward acquisition time	60.00reverse acquisition time	0.00gamma	496.2192k internal	0.2339k external	0.2339temperature offset calibration	1.0137default loss term (dB/km)	0.3790temperature slope calibration	1.0000multiplexer offset coefficient	1.0000multiplexer slope coefficient	1.0000fibre end	0.00T internal ref (°C)	26.19T ext. ref 1 (°C)	4.06T ext. ref 2 (°C)	20.94length (m)	temperature (°C)	Stokes	anti-Stokes-747.200	24.214	0.256	0.212
-746.185	8.587	0.125	0.094
-745.171	-200.000	0.032	0.305
-744.156	218.588	0.215	-0.345
-743.142	-74.941	-0.220	-0.079
-742.127	4.126	0.094	0.069
-741.112	75.232	-0.119	-0.126
-740.098	-123.081	-0.174	0.028
-739.083	130.990	0.095	0.122
-738.069	65.062	-0.197	-0.200
-737.054	174.220	0.192	0.279
-736.039	149.198	0.170	-0.231
-735.025	-101.973	0.188	-0.045
-734.010	-200.000	0.057	0.258
-732.996	-156.680	-0.282	-0.017
-731.981	-171.152	-0.153	0.005
-730.966	-49.990	0.476	-0.226
-729.952	800.000	-0.012	0.051
-728.937	-200.000	0.008	-0.254
-727.923	-79.939	-0.215	-0.072
-726.908	-162.341	-0.067	-0.003
-725.894	-62.625	0.131	0.054
-724.879	16.847	-0.200	-0.159
-723.864	-31.554	0.156	-0.088
-722.850	-200.000	0.017	0.114
-721.835	-174.053	0.191	0.006
-720.821	270.143	-0.131	-0.231
-719.806	-200.000	0.007	-0.134
-718.791	-0.578	0.160	-0.114
-717.777	-29.280	-0.109	-0.063
-716.762	-3.149	0.158	-0.110
-715.748	362.460	-0.040	-0.081
-714.733	-4.665	0.279	-0.193
-713.718	-200.000	0.005	-0.069
-712.704	-15.579	-0.199	0.127
-711.689	-139.247	0.212	0.023
-710.675	8.395	-0.135	-0.102
-709.660	800.000	-0.045	-0.152
-708.645	-58.893	0.224	0.097
-707.631	-59.244	0.229	-0.099
-706.616	-74.677	-0.343	-0.124
-705.602	-81.302	0.523	-0.173
-704.587	-81.528	0.169	0.056
-703.572	81.646	0.074	-0.080
-702.558	134.772	-0.190	0.248
-701.543	-121.418	-0.150	0.025
-700.529	233.142	0.097	-0.160
-699.514	740.132	-0.102	-0.275
-698.499	-54.876	-0.099	-0.045
-697.485	-47.007	-0.203	-0.099
-696.470	-112.798	-0.268	0.053
-695.456	800.000	-0.087	0.284
-694.441	-1.932	-0.265	0.187
-693.426	-25.568	-0.093	0.055
-692.412	-200.000	-0.000	-0.050
-691.397	-200.000	0.007	-0.041
-690.383	-38.931	0.293	-0.155
-689.368	-19.981	0.206	-0.127
-688.354	800.000	0.132	-0.522
-687.339	-147.361	0.245	-0.021
-686.324	-78.723	-0.092	-0.031
-685.310	-200.000	-0.026	-0.234
-684.295	-200.000	0.067	0.296
-683.281	-72.814	-0.403	0.148
-682.266	-58.273	-0.299	0.130
-681.251	71.998	0.075	-0.078
-680.237	-103.341	-0.171	0.040
-679.222	-103.046	0.463	0.110
-678.208	101.159	-0.239	0.279
-677.193	-133.571	-0.058	-0.007
-676.178	-126.650	0.245	-0.036
-675.164	-144.029	-0.181	-0.017
-674.149	-200.000	0.055	-0.262
-673.135	-5.149	-0.123	-0.085
-672.120	145.563	0.094	0.126
-671.105	-84.102	-0.076	0.024
-670.091	-74.865	-0.177	-0.064
-669.076	558.781	-0.091	-0.219
-668.062	415.288	-0.220	0.468
-667.047	696.987	-0.061	-0.160
-666.032	37.045	0.057	-0.050
-665.018	800.000	-0.142	0.510
-664.003	187.221	0.144	0.215
-662.989	-67.017	0.214	0.084
-661.974	-160.118	0.132	0.007
-660.959	768.890	0.077	-0.209
-659.945	-200.000	-0.006	0.093
-658.930	-61.028	-0.150	-0.063
-657.916	-106.815	0.179	-0.040
-656.901	419.579	0.058	-0.123
-655.886	-18.520	0.182	0.114
-654.872	-59.173	0.164	-0.071
-653.857	800.000	0.064	0.190
-652.843	-125.514	-0.308	0.047
-651.828	353.421	-0.048	-0.094
-650.814	-124.366	-0.278	-0.043
-649.799	-23.041	0.175	-0.106
-648.784	73.411	-0.156	0.163
-647.770	-200.000	0.034	-0.227
-646.755	-200.000	-0.010	-0.081
-645.741	95.049	0.161	-0.183
-644.726	-200.000	0.023	-0.168
-643.711	800.000	-0.045	-0.149
-642.697	-50.511	0.099	-0.047
-641.682	-107.000	-0.079	-0.017
-640.668	640.875	-0.021	-0.054
-639.653	-200.000	-0.038	0.197
-638.638	-145.599	0.370	0.033
-637.624	-200.000	-0.019	-0.129
-636.609	269.815	0.063	-0.111
-635.595	15.096	-0.071	0.056
-634.580	20.139	-0.253	-0.204
-633.565	149.441	0.099	-0.133
-632.551	-50.871	-0.336	-0.158
-631.536	590.059	-0.094	-0.231
-630.522	-27.114	-0.252	0.147
-629.507	-200.000	-0.032	-0.172
-628.492	800.000	-0.091	-0.262
-627.478	-54.659	0.258	-0.117
-626.463	128.261	-0.038	0.048
-625.449	33.113	0.298	-0.258
-624.434	-114.621	0.195	-0.037
-623.419	800.000	-0.105	-0.295
-622.405	10.523	0.270	-0.206
-621.390	104.837	-0.070	0.083
-620.376	90.966	-0.177	0.198
-619.361	800.000	-0.091	0.341
-618.346	129.096	0.162	0.206
-617.332	-161.885	-0.113	-0.006
-616.317	-5.913	0.087	-0.059
-615.303	800.000	-0.108	-0.304
-614.288	-107.853	-0.150	0.033
-613.273	332.787	0.069	-0.134
-612.259	-3.474	0.398	-0.277
-611.244	-200.000	-0.007	-0.047
-610.230	-200.000	-0.315	0.000
-609.215	-200.000	0.008	0.245
-608.201	592.104	0.034	0.084
-607.186	85.789	-0.258	-0.284
-606.171	-50.101	0.185	-0.087
-605.157	800.000	0.041	-0.157
-604.142	-146.470	0.067	-0.006
-603.128	-48.290	0.060	-0.029
-602.113	122.794	-0.188	0.235
-601.098	-126.271	-0.343	0.051
-600.084	-61.921	0.239	-0.100
-599.069	89.061	0.132	-0.146
-598.055	-200.000	-0.056	0.246
-597.040	-78.401	-0.290	-0.099
-596.025	15.481	0.152	-0.119
-595.011	-151.881	-0.457	-0.033
-593.996	-8.726	0.135	0.091
-592.982	-12.394	-0.421	-0.274
-591.967	-200.000	-0.004	-0.288
-590.952	-44.345	0.209	-0.105
-589.938	-86.583	-0.102	-0.031
-588.923	-200.000	-0.045	0.244
-587.909	145.740	0.198	-0.264
-586.894	228.690	-0.060	-0.097
-585.879	6.173	-0.060	0.045
-584.865	-40.752	0.120	-0.062
-583.850	-71.261	-0.241	-0.090
-582.836	-200.000	-0.015	0.324
-581.821	800.000	0.007	0.020
-580.806	47.915	-0.293	-0.273
-579.792	14.487	-0.029	0.022
-578.777	-24.543	-0.109	-0.065
-577.763	-157.975	-0.337	-0.020
-576.748	-142.126	0.137	0.014
-575.733	51.506	-0.105	-0.099
-574.719	-89.311	0.318	0.093
-573.704	-149.749	-0.107	-0.008
-572.690	-48.448	0.233	-0.112
-571.675	2.513	0.318	-0.229
-570.661	-200.000	-0.001	0.139
-569.646	3.543	0.041	0.030
-568.631	72.770	-0.078	0.081
-567.617	105.240	-0.247	-0.290
-566.602	-149.863	-0.028	-0.002
-565.588	-100.423	-0.188	0.046
-564.573	800.000	-0.062	-0.249
-563.558	-81.824	-0.148	0.048
-562.544	-13.330	-0.141	0.091
-561.529	800.000	0.097	0.280
-560.515	-200.000	0.012	0.295
-559.500	-83.698	0.241	0.077
-558.485	357.157	-0.131	0.260
-557.471	84.242	-0.016	0.017
-556.456	-103.727	-0.541	0.126
-555.442	48.844	-0.205	-0.191
-554.427	-200.000	0.059	-0.280
-553.412	-109.987	-0.205	-0.043
-552.398	240.010	0.083	-0.138
-551.383	-76.476	-0.030	-0.010
-550.369	-109.304	0.245	-0.052
-549.354	-98.493	0.404	0.103
-548.339	-79.246	0.078	0.026
-547.325	107.354	-0.260	0.308
-546.310	220.629	0.026	0.042
-545.296	800.000	-0.083	0.323
-544.281	743.156	0.052	0.138
-543.266	-118.608	-0.231	-0.041
-542.252	296.894	0.125	0.229
-541.237	-50.000	-0.193	0.091
-540.223	604.914	0.123	0.305
-539.208	362.777	-0.025	0.051
-538.193	-165.513	0.180	-0.008
-537.179	-82.133	-0.209	0.068
-536.164	800.000	0.166	-0.486
-535.150	-200.000	0.003	-0.195
-534.135	131.427	0.232	-0.296
-533.121	-200.000	0.006	0.139
-532.106	-145.447	-0.175	0.016
-531.091	142.893	-0.168	-0.223
-530.077	428.368	0.114	0.245
-529.062	498.744	-0.149	0.343
-528.048	-83.897	-0.385	-0.122
-527.033	82.584	0.131	-0.141
-526.018	297.405	0.032	-0.059
-525.004	255.516	-0.076	-0.130
-523.989	16.880	0.205	-0.161
-522.975	-105.515	-0.149	0.034
-521.960	800.000	0.063	0.222
-520.945	-50.042	-0.090	0.043
-519.931	95.550	-0.286	-0.324
-518.916	-123.305	-0.185	-0.029
-517.902	17.973	0.227	-0.180
-516.887	779.468	0.070	-0.190
-515.872	246.429	-0.159	0.266
-514.858	-58.949	0.148	-0.063
-513.843	-59.009	-0.184	-0.079
-512.829	-179.618	0.406	-0.009
-511.814	800.000	-0.039	0.132
-510.799	-106.584	-0.470	-0.104
-509.785	44.226	-0.280	0.256
-508.770	-57.572	-0.336	-0.146
-507.756	-150.729	0.189	0.014
-506.741	-14.228	0.127	0.081
-505.726	-200.000	0.043	-0.194
-504.712	-127.340	-0.107	0.016
-503.697	800.000	0.051	-0.191
-502.683	-35.557	0.232	-0.125
-501.668	-200.000	-0.022	-0.145
-500.653	43.589	-0.091	0.083
-499.639	-200.000	0.004	-0.272
-498.624	-104.413	-0.230	0.053
-497.610	-136.600	0.111	-0.013
-496.595	-200.000	-0.019	0.343
-495.581	-29.127	0.307	0.175
-494.566	561.705	-0.142	0.340
-493.551	-46.489	-0.239	-0.116
-492.537	800.000	-0.054	-0.169
-491.522	75.455	-0.110	0.116
-490.508	50.015	0.342	0.321
-489.493	242.699	-0.044	-0.073
-488.478	-67.070	0.131	0.052
-487.464	-52.287	-0.362	-0.167
-486.449	149.886	0.134	0.180
-485.435	96.958	0.069	0.079
-484.420	-74.050	-0.270	-0.097
-483.405	800.000	0.006	-0.020
-482.391	158.144	-0.180	-0.248
-481.376	-43.343	0.164	-0.082
-480.362	800.000	-0.019	-0.058
-479.347	800.000	0.041	0.173
-478.332	4.115	-0.134	-0.098
-477.318	-200.000	0.004	0.109
-476.303	-18.003	0.150	-0.093
-475.289	147.269	-0.274	0.366
-474.274	149.203	0.167	0.224
-473.259	-88.503	-0.275	-0.081
-472.245	-94.336	-0.245	0.067
-471.230	800.000	0.045	0.128
-470.216	-168.546	-0.211	0.008
-469.201	20.212	-0.206	0.165
-468.186	-86.645	0.126	0.038
-467.172	-127.697	0.346	-0.050
-466.157	-45.325	0.208	-0.102
-465.143	-96.203	-0.031	0.008
-464.128	74.901	-0.111	-0.116
-463.113	-58.326	0.322	0.139
-462.099	168.606	0.062	-0.088
-461.084	-100.435	0.254	-0.062
-460.070	28.889	-0.342	0.288
-459.055	-83.862	-0.352	0.111
-458.040	-55.109	0.089	-0.040
-457.026	-60.674	0.092	-0.039
-456.011	306.097	-0.171	-0.315
-454.997	446.156	-0.083	-0.181
-453.982	-72.925	0.163	0.060
-452.968	-121.258	-0.269	-0.044
-451.953	256.128	-0.214	0.365
-450.938	-23.919	0.166	0.099
-449.924	-159.358	-0.446	0.025
-448.909	-31.109	0.166	0.093
-447.895	-200.000	-0.134	-0.001
-446.880	-82.016	-0.509	-0.165
-445.865	549.544	0.052	0.123
-444.851	-25.533	0.066	-0.038
-443.836	23.369	0.088	-0.071
-442.822	-93.987	0.210	0.057
-441.807	-150.207	-0.192	-0.015
-440.792	-167.490	0.362	-0.014
-439.778	-113.260	0.334	0.065
-438.763	291.179	0.089	0.161
-437.749	-168.332	-0.229	0.009
-436.734	-99.647	-0.172	-0.043
-435.719	-138.434	-0.171	0.019
-434.705	-65.503	0.231	0.092
-433.690	-124.379	-0.239	0.037
-432.676	-17.725	0.186	0.116
-431.661	800.000	-0.105	0.450
-430.646	-15.321	-0.335	0.212
-429.632	500.298	0.107	0.245
-428.617	-78.816	0.226	0.076
-427.603	210.930	0.042	0.065
-426.588	39.531	-0.139	-0.123
-425.573	800.000	-0.033	-0.115
-424.559	-88.963	-0.205	0.060
-423.544	-98.495	0.288	0.073
-422.530	285.996	-0.116	0.207
-421.515	-200.000	-0.020	0.177
-420.500	-200.000	-0.028	0.203
-419.486	83.077	-0.128	0.138
-418.471	24.171	0.237	0.194
-417.457	-5.134	0.197	0.134
-416.442	800.000	0.012	-0.042
-415.428	-200.000	0.057	0.307
-414.413	338.676	0.089	0.171
-413.398	-34.465	-0.122	-0.066
-412.384	-200.000	0.001	-0.231
-411.369	-11.766	0.200	-0.130
-410.355	-200.000	-0.006	0.422
-409.340	28.476	0.430	-0.360
-408.325	28.457	-0.303	0.253
-407.311	210.243	-0.073	0.113
-406.296	-200.000	-0.023	-0.101
-405.282	95.060	0.350	0.394
-404.267	82.465	-0.178	-0.191
-403.252	-200.000	0.010	0.235
-402.238	-66.407	-0.255	-0.100
-401.223	-16.239	-0.232	0.146
-400.209	-200.000	0.002	0.145
-399.194	8.733	0.187	0.140
-398.179	445.595	0.058	-0.127
-397.165	-200.000	-0.073	0.452
-396.150	-101.453	-0.024	-0.006
-395.136	800.000	-0.056	0.237
-394.121	-195.184	0.107	0.001
-393.106	210.182	-0.160	0.248
-392.092	800.000	-0.052	0.208
-391.077	505.758	0.183	-0.420
-390.063	105.527	0.361	-0.422
-389.048	-134.522	-0.163	0.020
-388.033	-193.103	-0.179	-0.002
-387.019	-165.343	0.257	-0.011
-386.004	60.874	-0.227	-0.223
-384.990	100.956	-0.163	0.188
-383.975	72.381	-0.058	0.059
-382.960	501.145	0.064	0.146
-381.946	800.000	0.119	0.397
-380.931	-132.251	0.031	0.004
-379.917	679.874	-0.117	-0.301
-378.902	69.726	0.211	0.215
-377.888	-200.000	0.061	0.313
-376.873	800.000	0.046	-0.146
-375.858	-54.595	-0.071	0.032
-374.844	39.731	-0.267	0.237
-373.829	16.322	-0.222	0.174
-372.815	800.000	0.081	0.314
-371.800	73.247	0.044	-0.045
-370.785	-75.791	0.147	-0.052
-369.771	35.267	0.161	0.139
-368.756	-58.097	0.170	-0.073
-367.742	-200.000	-0.032	-0.217
-366.727	-88.621	-0.304	0.090
-365.712	-27.613	0.198	-0.114
-364.698	51.366	-0.239	0.224
-363.683	-99.496	0.275	-0.068
-362.669	-115.347	-0.150	-0.028
-361.654	-200.000	0.033	0.217
-360.639	106.734	0.150	-0.176
-359.625	800.000	-0.129	-0.477
-358.610	223.712	-0.102	-0.163
-357.596	-200.000	0.006	0.238
-356.581	86.517	0.174	-0.189
-355.566	42.880	-0.155	-0.140
-354.552	371.924	0.282	-0.566
-353.537	-200.000	-0.005	0.182
-352.523	39.256	-0.248	-0.219
-351.508	109.243	0.074	0.087
-350.493	800.000	0.051	-0.174
-349.479	-134.697	-0.159	0.019
-348.464	74.198	0.083	-0.086
-347.450	8.383	-0.044	-0.033
-346.435	-24.701	-0.032	-0.019
-345.420	281.864	-0.065	0.115
-344.406	145.968	-0.132	-0.175
-343.391	-125.519	0.206	-0.031
-342.377	29.014	0.071	-0.059
-341.362	48.278	-0.138	-0.128
-340.348	695.804	0.068	-0.177
-339.333	-104.043	0.180	0.041
-338.318	-86.032	-0.126	-0.038
-337.304	-76.855	-0.039	-0.013
-336.289	514.832	0.080	0.185
-335.275	-20.478	-0.315	-0.191
-334.260	-63.869	0.168	0.068
-333.245	42.334	0.152	0.137
-332.231	-200.000	0.021	-0.112
-331.216	440.128	0.060	-0.129
-330.202	-115.884	0.187	0.034
-329.187	800.000	-0.039	0.122
-328.172	-197.439	0.140	0.001
-327.158	-200.000	-0.014	-0.347
-326.143	-200.000	0.004	-0.216
-325.129	-200.000	0.011	0.166
-324.114	46.761	-0.140	0.129
-323.099	201.517	0.087	-0.132
-322.085	-103.131	-0.154	0.036
-321.070	-200.000	0.011	0.317
-320.056	449.191	0.057	-0.124
-319.041	-186.569	0.356	-0.005
-318.026	-200.000	-0.042	0.194
-317.012	-15.603	0.255	-0.160
-315.997	11.245	-0.155	-0.117
-314.983	-131.921	0.061	-0.008
-313.968	-78.742	-0.281	0.095
-312.953	800.000	0.068	-0.250
-311.939	754.100	-0.088	-0.234
-310.924	-119.543	-0.107	-0.018
-309.910	362.163	0.099	0.196
-308.895	-91.832	-0.125	0.035
-307.880	-142.023	-0.403	-0.040
-306.866	-24.008	0.212	-0.125
-305.851	19.551	0.111	-0.088
-304.837	-200.000	0.025	0.127
-303.822	-87.120	0.347	-0.104
-302.807	-90.920	-0.538	0.153
-301.793	740.540	-0.201	-0.531
-300.778	-200.000	-0.006	-0.155
-299.764	190.404	0.086	-0.127
-298.749	-9.546	0.159	-0.105
-297.735	-50.953	0.288	0.133
-296.720	173.561	0.178	-0.254
-295.705	286.644	0.092	-0.164
-294.691	-177.941	-0.122	0.003
-293.676	-200.000	0.067	-0.300
-292.662	558.419	0.054	-0.128
-291.647	0.383	-0.106	0.074
-290.632	800.000	-0.059	0.195
-289.618	800.000	0.096	0.286
-288.603	800.000	-0.052	-0.200
-287.589	265.367	0.045	0.078
-286.574	-200.000	-0.011	0.211
-285.559	-58.334	0.185	-0.079
-284.545	-145.499	0.199	0.018
-283.530	77.552	-0.236	-0.248
-282.516	66.344	-0.164	0.164
-281.501	-74.155	0.170	-0.061
-280.486	3.144	-0.108	0.077
-279.472	85.701	-0.094	0.101
-278.457	233.885	-0.103	-0.168
-277.443	-55.013	-0.135	-0.060
-276.428	-126.044	0.659	0.097
-275.413	774.834	-0.044	-0.120
-274.399	-86.989	0.231	0.069
-273.384	162.519	0.266	0.367
-272.370	-41.436	-0.111	0.056
-271.355	133.462	-0.078	0.100
-270.340	-200.000	0.029	0.133
-269.326	-172.965	0.472	0.014
-268.311	-87.248	-0.106	-0.032
-267.297	-22.269	0.283	0.169
-266.282	-200.000	0.022	-0.185
-265.267	158.772	-0.113	0.155
-264.253	-80.420	-0.132	-0.043
-263.238	-169.108	-0.033	-0.001
-262.224	-179.946	-0.151	0.003
-261.209	712.859	0.048	0.125
-260.195	324.379	-0.050	0.094
-259.180	800.000	0.105	-0.449
-258.165	-14.041	0.077	-0.049
-257.151	509.332	-0.175	-0.400
-256.136	437.170	-0.055	-0.119
-255.122	-176.959	0.450	-0.011
-254.107	5.606	-0.189	-0.138
-253.092	43.418	0.070	-0.063
-252.078	-200.000	0.045	0.244
-251.063	-29.004	0.204	0.115
-250.049	-11.894	-0.234	-0.151
-249.034	68.574	0.136	0.137
-248.019	-200.000	0.062	0.288
-247.005	73.827	-0.152	0.157
-245.990	-143.621	0.168	-0.016
-244.976	-9.714	0.225	0.148
-243.961	-149.730	0.283	-0.022
-242.946	49.321	-0.308	-0.285
-241.932	-70.061	0.401	0.150
-240.917	-168.170	-0.198	0.008
-239.903	124.613	0.047	-0.059
-238.888	-93.638	-0.103	-0.028
-237.873	-61.622	0.309	0.127
-236.859	259.131	0.100	0.170
-235.844	50.492	0.104	0.097
-234.830	-55.127	0.275	0.122
-233.815	244.542	-0.024	-0.040
-232.800	532.135	0.128	-0.299
-231.786	4.190	0.071	0.051
-230.771	-0.559	0.162	-0.113
-229.757	-200.000	-0.064	0.297
-228.742	-200.000	0.025	-0.138
-227.727	-106.029	-0.161	-0.036
-226.713	-39.690	0.315	0.162
-225.698	236.536	-0.165	-0.268
-224.684	-200.000	0.024	0.148
-223.669	305.722	0.078	-0.143
-222.655	-200.000	-0.005	0.080
-221.640	-181.490	0.034	0.001
-220.625	263.090	0.216	-0.369
-219.611	47.203	-0.155	0.142
-218.596	34.081	-0.200	0.171
-217.582	-157.103	-0.180	-0.011
-216.567	23.781	-0.348	-0.282
-215.552	-29.018	0.334	0.189
-214.538	300.082	-0.097	0.176
-213.523	144.803	-0.075	0.099
-212.509	-200.000	-0.002	-0.227
-211.494	-200.000	0.031	0.208
-210.479	713.944	-0.090	0.234
-209.465	44.016	0.121	-0.109
-208.450	-200.000	0.001	-0.105
-207.436	-40.162	0.270	0.138
-206.421	-86.946	-0.173	-0.052
-205.406	65.764	-0.322	0.321
-204.392	389.704	0.084	-0.172
-203.377	-70.699	0.428	0.159
-202.363	423.001	0.192	0.405
-201.348	21.677	0.225	0.180
-200.333	204.293	-0.068	0.103
-199.319	-37.035	-0.084	0.044
-198.304	-29.488	0.200	0.112
-197.290	-200.000	-0.006	0.253
-196.275	-200.000	0.010	0.475
-195.260	-200.000	-0.005	-0.123
-194.246	-159.131	0.326	0.018
-193.231	382.989	-0.112	0.226
-192.217	-71.820	0.171	-0.063
-191.202	39.643	0.250	0.220
-190.187	-200.000	0.028	-0.134
-189.173	800.000	-0.043	-0.164
-188.158	164.102	-0.280	-0.388
-187.144	332.694	-0.062	0.118
-186.129	14.158	-0.132	-0.101
-185.114	-113.533	0.043	-0.008
-184.100	-200.000	0.037	0.194
-183.085	82.302	-0.041	0.044
-182.071	367.542	0.072	-0.142
-181.056	-124.925	-0.292	-0.044
-180.042	-3.225	-0.161	-0.110
-179.027	314.982	0.146	-0.271
-178.012	-200.000	-0.041	-0.220
-176.998	133.272	0.205	0.260
-175.983	255.663	-0.102	0.171
-174.969	-55.706	0.090	-0.040
-173.954	-101.894	0.352	0.083
-172.939	-196.966	-0.131	-0.001
-171.925	-25.264	-0.216	-0.126
-170.910	-190.079	-0.321	-0.004
-169.896	326.753	0.067	0.125
-168.881	-200.000	-0.012	-0.326
-167.866	-86.069	-0.150	-0.045
-166.852	38.903	-0.253	0.222
-165.837	800.000	0.073	-0.267
-164.823	80.890	-0.036	0.038
-163.808	150.987	0.391	-0.522
-162.793	209.461	-0.257	-0.395
-161.779	-143.932	0.214	-0.020
-160.764	-120.783	0.392	-0.065
-159.750	-131.208	-0.335	0.044
-158.735	800.000	-0.112	-0.309
-157.720	-200.000	0.030	0.129
-156.706	-200.000	-0.012	0.208
-155.691	-27.480	0.307	0.175
-154.677	-87.535	0.292	-0.087
-153.662	-134.463	0.170	-0.020
-152.647	47.257	-0.060	0.054
-151.633	-147.401	-0.148	0.012
-150.618	24.400	-0.360	0.292
-149.604	229.722	0.083	0.133
-148.589	-147.852	-0.273	-0.022
-147.574	-96.958	-0.332	0.085
-146.560	-94.140	-0.227	-0.061
-145.545	93.026	0.095	0.105
-144.531	-107.370	0.270	-0.058
-143.516	-101.095	0.131	0.031
-142.502	-200.000	-0.002	0.240
-141.487	800.000	0.017	-0.046
-140.472	-90.555	-0.119	-0.034
-139.458	35.334	0.167	0.144
-138.443	254.092	0.125	-0.210
-137.429	63.492	-0.076	0.075
-136.414	-117.990	-0.035	-0.006
-135.399	-170.613	-0.213	0.007
-134.385	-200.000	-0.020	0.144
-133.370	80.891	-0.117	-0.124
-132.356	-62.344	0.135	-0.055
-131.341	800.000	0.040	-0.111
-130.326	80.731	-0.120	-0.127
-129.312	-68.064	0.078	0.030
-128.297	-200.000	0.012	0.108
-127.283	-135.257	-0.291	-0.034
-126.268	26.819	0.200	0.164
-125.253	29.067	0.297	-0.246
-124.239	76.261	0.040	-0.042
-123.224	-43.459	0.367	0.181
-122.210	10.741	-0.121	-0.091
-121.195	251.127	-0.144	-0.240
-120.180	-33.358	-0.117	0.063
-119.166	-151.810	0.337	0.024
-118.151	115.843	-0.137	-0.164
-117.137	800.000	0.044	-0.169
-116.122	-76.745	0.251	-0.086
-115.107	42.020	-0.222	0.197
-114.093	80.474	0.384	0.404
-113.078	341.589	0.087	0.167
-112.064	423.719	-0.089	0.188
-111.049	800.000	-0.063	-0.216
-110.034	68.887	0.207	-0.208
-109.020	800.000	-0.025	0.096
-108.005	115.260	-0.193	0.230
-106.991	-200.000	-0.015	0.072
-105.976	-200.000	0.005	0.331
-104.962	223.080	0.094	-0.149
-103.947	116.344	0.113	-0.136
-102.932	134.345	-0.065	0.083
-101.918	-200.000	-0.044	0.388
-100.903	68.748	-0.155	0.156
-99.889	-200.000	0.002	-0.216
-98.874	-39.394	0.378	0.194
-97.859	800.000	-0.062	0.192
-96.845	232.045	0.138	0.221
-95.830	-200.000	0.041	-0.328
-94.816	800.000	0.034	-0.135
-93.801	219.951	-0.106	0.165
-92.786	-200.000	-0.023	-0.324
-91.772	-17.989	0.040	0.024
-90.757	603.668	0.049	0.120
-89.743	52.399	0.227	0.212
-88.728	800.000	0.122	-0.342
-87.713	43.595	-0.111	-0.099
-86.699	39.753	-0.171	0.150
-85.684	-98.751	-0.069	-0.017
-84.670	-40.417	-0.234	0.119
-83.655	47.998	-0.091	0.083
-82.640	390.841	0.041	0.083
-81.626	-100.159	0.127	-0.031
-80.611	-70.960	0.053	-0.019
-79.597	-139.133	0.701	-0.074
-78.582	203.476	0.064	0.096
-77.567	-151.866	-0.350	-0.025
-76.553	-200.000	-0.049	0.252
-75.538	-200.000	0.041	-0.448
-74.524	-78.645	0.325	0.109
-73.509	800.000	-0.087	0.311
-72.494	-161.216	0.193	-0.010
-71.480	103.138	0.282	0.323
-70.465	144.579	0.205	0.267
-69.451	-200.000	0.020	0.115
-68.436	441.508	-0.092	0.197
-67.422	79.042	-0.155	-0.162
-66.407	82.360	0.196	0.208
-65.392	-18.963	-0.127	-0.077
-64.378	-200.000	0.090	0.405
-63.363	71.331	0.074	0.075
-62.349	258.120	-0.061	0.102
-61.334	56.755	-1.087	-1.034
-60.319	63.215	0.783	0.767
-59.305	193.142	-0.444	-0.655
-58.290	548.829	0.597	1.398
-57.276	229.811	0.911	1.454
-56.261	-200.000	117.743	643.285
-55.246	484.159	1552.579	3449.822
-54.232	174.708	2718.673	3841.130
-53.217	102.681	2173.810	2483.629
-52.203	36.649	1689.107	1456.415
-51.188	29.370	1505.017	1248.579
-50.173	27.116	1481.024	1213.592
-49.159	49.172	1542.050	1414.828
-48.144	47.882	1556.149	1418.902
-47.130	29.352	1511.275	1253.452
-46.115	26.407	1496.168	1221.018
-45.100	26.217	1492.538	1216.726
-44.086	26.193	1490.511	1214.868
-43.071	26.195	1488.875	1213.496
-42.057	26.133	1487.289	1211.743
-41.042	26.115	1486.105	1210.610
-40.027	26.182	1483.870	1209.184
-39.013	26.125	1483.314	1208.306
-37.998	26.078	1482.178	1207.017
-36.984	26.084	1481.146	1206.171
-35.969	26.117	1479.640	1205.112
-34.954	26.102	1478.375	1203.939
-33.940	26.211	1476.545	1203.128
-32.925	26.190	1474.811	1201.522
-31.911	26.197	1473.623	1200.557
-30.896	26.267	1472.084	1199.719
-29.881	26.246	1471.539	1199.090
-28.867	26.234	1469.948	1197.661
-27.852	26.187	1468.912	1196.460
-26.838	26.279	1467.109	1195.552
-25.823	26.184	1466.288	1194.208
-24.809	26.239	1464.388	1192.979
-23.794	26.304	1462.919	1192.162
-22.779	26.188	1461.786	1190.430
-21.765	26.216	1460.644	1189.634
-20.750	26.257	1459.288	1188.753
-19.736	26.244	1458.206	1187.735
-18.721	26.253	1456.870	1186.665
-17.706	26.162	1456.658	1185.844
-16.692	26.194	1455.114	1184.747
-15.677	26.128	1453.996	1183.358
-14.663	26.169	1453.534	1183.203
-13.648	26.184	1452.324	1182.272
-12.633	26.141	1451.106	1180.952
-11.619	26.224	1451.043	1181.400
-10.604	26.123	1450.071	1179.899
-9.590	26.171	1448.656	1179.012
-8.575	26.254	1447.350	1178.447
-7.560	26.190	1446.749	1177.490
-6.546	26.235	1445.861	1177.016
-5.531	26.221	1445.162	1176.311
-4.517	26.177	1444.049	1175.070
-3.502	26.218	1443.182	1174.582
-2.487	26.196	1442.223	1173.617
-1.473	26.179	1440.960	1172.429
-0.458	26.076	1440.123	1171.037
0.556	27.801	1429.893	1159.647
1.571	24.817	1405.637	1121.208
2.586	21.262	1347.872	1053.638
3.600	19.569	1266.419	980.272
4.615	18.526	1221.775	939.917
5.629	16.477	1166.158	886.321
6.644	9.824	1085.202	792.160
7.659	4.907	1048.711	742.080
8.673	4.178	1043.997	735.221
9.688	4.129	1040.185	732.242
10.702	3.905	1038.546	729.964
11.717	4.039	1036.283	728.941
12.731	6.392	1038.303	741.385
13.746	13.532	1047.561	781.739
14.761	20.061	1056.329	819.185
15.775	22.362	1058.453	831.645
16.790	21.904	1057.251	828.463
17.804	20.923	1055.311	822.248
18.819	20.210	1053.354	817.288
19.834	19.848	1052.198	814.618
20.848	19.762	1051.541	813.630
21.863	19.795	1050.989	813.286
22.877	19.592	1050.628	811.982
23.892	19.322	1049.600	809.847
24.907	19.391	1049.015	809.650
25.921	19.341	1048.023	808.576
26.936	19.260	1047.549	807.761
27.950	19.338	1046.154	806.977
28.965	19.281	1045.229	805.926
29.980	19.372	1044.124	805.428
30.994	19.581	1042.813	805.320
32.009	19.762	1041.963	805.434
33.023	19.770	1041.553	805.083
34.038	19.637	1041.156	804.086
35.053	19.553	1039.695	802.498
36.067	19.475	1038.623	801.238
37.082	19.464	1037.599	800.323
38.096	19.447	1037.045	799.750
39.111	19.445	1036.614	799.334
40.126	19.630	1035.660	799.386
41.140	19.474	1034.386	797.609
42.155	19.113	1033.085	794.872
43.169	18.968	1031.869	793.195
44.184	18.890	1030.795	791.941
45.199	18.910	1029.645	791.077
46.213	18.983	1028.682	790.603
47.228	19.083	1027.889	790.386
48.242	19.387	1027.023	791.042
49.257	19.471	1026.661	791.079
50.271	19.298	1025.707	789.482
51.286	19.398	1025.015	789.338
52.301	19.509	1024.547	789.415
53.315	19.562	1023.234	788.577
54.330	19.386	1022.501	787.136
55.344	19.206	1021.180	785.231
56.359	19.125	1020.476	784.251
57.374	19.198	1019.655	783.885
58.388	19.168	1018.519	782.803
59.403	18.913	1018.089	781.243
60.417	18.819	1017.194	780.064
61.432	18.922	1016.719	780.096
62.447	18.930	1015.981	779.498
63.461	18.709	1015.201	777.830
64.476	18.653	1014.151	776.702
65.490	18.789	1013.039	776.396
66.505	18.819	1011.652	775.401
67.520	18.716	1011.713	774.912
68.534	18.873	1010.347	774.508
69.549	18.779	1010.202	773.903
70.563	18.757	1009.213	772.976
71.578	18.690	1008.592	772.134
72.593	18.570	1007.253	770.502
73.607	18.514	1006.231	769.398
74.622	18.357	1005.792	768.289
75.636	18.430	1005.150	768.060
76.651	18.419	1004.375	767.350
77.666	18.587	1003.238	767.165
78.680	18.635	1002.676	766.883
79.695	18.605	1002.341	766.425
80.709	18.647	1001.862	766.177
81.724	18.897	1000.711	766.345
82.739	18.917	1000.209	765.981
83.753	18.924	999.697	765.552
84.768	19.293	998.840	766.470
85.782	19.578	998.718	767.575
86.797	19.914	997.927	768.390
87.812	20.013	997.023	768.068
88.826	19.605	996.429	765.733
89.841	19.568	995.404	764.713
90.855	19.631	994.665	764.356
91.870	19.722	993.920	764.120
92.884	19.755	993.138	763.594
93.899	19.698	992.482	762.770
94.914	19.755	991.481	762.186
95.928	19.814	990.850	761.892
96.943	19.802	989.921	761.057
97.957	19.641	989.113	759.663
98.972	19.575	988.035	758.480
99.987	19.669	987.281	758.244
101.001	19.664	986.980	757.923
102.016	19.506	986.454	756.759
103.030	19.626	985.032	756.126
104.045	19.656	983.959	755.370
105.060	19.656	983.130	754.665
106.074	19.529	982.186	753.322
107.089	19.309	981.169	751.513
108.103	19.013	980.038	749.294
109.118	18.997	978.679	748.116
110.133	18.832	978.110	746.898
111.147	18.777	977.286	745.966
112.162	18.657	976.701	744.930
113.176	18.713	975.653	744.307
114.191	19.094	974.638	745.117
115.206	19.166	973.936	744.826
116.220	19.141	973.693	744.469
117.235	18.823	972.975	742.478
118.249	18.797	971.956	741.522
119.264	18.932	970.792	741.153
120.279	18.733	970.303	739.857
121.293	18.635	969.212	738.535
122.308	18.508	968.735	737.559
123.322	18.482	967.433	736.393
124.337	18.572	966.206	735.781
125.352	18.494	965.003	734.464
126.366	18.505	964.011	733.690
127.381	18.402	963.535	732.823
128.395	18.450	962.629	732.276
129.410	18.651	961.404	732.137
130.424	18.645	960.761	731.555
131.439	18.698	959.886	731.049
132.454	18.892	959.271	731.342
133.468	18.810	959.276	730.932
134.483	18.963	958.386	730.843
135.497	18.917	957.451	729.869
136.512	18.803	957.509	729.362
137.527	18.970	955.842	728.735
138.541	19.012	954.885	728.122
139.556	18.821	954.843	727.216
140.570	18.977	953.977	727.153
141.585	19.118	953.553	727.357
142.600	19.437	952.832	728.093
143.614	19.495	951.887	727.549
144.629	19.598	951.125	727.337
145.643	19.706	950.755	727.443
146.658	19.619	949.550	726.090
147.673	19.326	948.713	724.159
148.687	19.410	946.951	723.099
149.702	19.158	946.847	721.900
150.716	19.113	945.369	720.521
151.731	19.119	944.398	719.744
152.746	19.014	944.142	719.044
153.760	19.104	943.505	718.873
154.775	19.117	942.720	718.264
155.789	19.340	941.704	718.354
156.804	19.344	941.398	718.076
157.819	19.267	940.957	717.357
158.833	19.414	939.947	717.134
159.848	19.483	939.900	717.322
160.862	19.608	938.850	716.974
161.877	19.586	938.474	716.531
162.892	19.292	937.107	714.207
163.906	19.165	935.544	712.426
164.921	19.020	934.845	711.233
165.935	18.941	933.651	709.938
166.950	18.997	933.373	709.895
167.964	19.145	931.920	709.334
168.979	19.390	930.876	709.487
169.994	19.172	929.886	707.774
171.008	19.122	928.956	706.797
172.023	19.045	928.888	706.368
173.037	19.412	927.877	707.041
174.052	19.646	927.244	707.452
175.067	19.357	927.112	706.107
176.081	19.155	925.682	704.128
177.096	19.036	924.584	702.744
178.110	18.961	923.427	701.500
179.125	19.120	922.998	701.760
180.140	19.103	922.504	701.252
181.154	19.165	921.791	700.900
182.169	19.257	921.819	701.232
183.183	19.540	921.087	701.763
184.198	19.646	919.747	701.114
185.213	19.628	919.693	700.936
186.227	19.465	919.277	699.894
187.242	19.583	918.968	700.077
188.256	19.627	918.167	699.581
189.271	19.799	917.372	699.611
190.286	19.912	916.702	699.494
191.300	19.560	915.686	697.237
192.315	19.052	914.711	694.382
193.329	18.634	913.619	691.806
194.344	18.884	913.133	692.384
195.359	18.998	912.701	692.456
196.373	19.306	912.220	693.269
197.388	19.327	911.792	692.968
198.402	19.566	911.372	693.546
199.417	19.758	911.163	694.094
200.432	19.839	910.983	694.222
201.446	19.992	910.563	694.457
202.461	20.076	910.128	694.397
203.475	20.165	910.088	694.662
204.490	20.205	908.763	693.750
205.504	19.729	908.043	691.237
206.519	19.739	907.096	690.492
207.534	19.784	905.859	689.673
208.548	19.649	905.043	688.452
209.563	19.572	904.807	687.902
210.577	19.707	903.959	687.736
211.592	19.662	903.598	687.222
212.607	19.866	903.008	687.520
213.621	20.028	902.516	687.731
214.636	19.984	901.986	687.089
215.650	19.790	901.704	686.046
216.665	19.958	900.486	685.722
217.680	20.086	900.185	685.941
218.694	20.109	899.978	685.812
219.709	20.177	899.543	685.691
220.723	20.127	898.741	684.820
221.738	20.116	897.853	684.039
222.753	20.030	897.177	683.125
223.767	19.844	896.392	681.734
224.782	20.011	895.637	681.756
225.796	20.260	895.009	682.197
226.811	20.194	894.670	681.621
227.826	20.116	893.448	680.323
228.840	20.028	892.545	679.229
229.855	19.813	891.593	677.601
230.869	20.006	891.058	677.892
231.884	19.895	890.542	677.003
232.899	19.872	889.813	676.299
233.913	19.704	889.057	675.010
234.928	19.655	888.303	674.187
235.942	19.645	887.708	673.637
236.957	19.446	887.292	672.485
237.972	19.435	886.570	671.835
238.986	19.540	885.883	671.664
240.001	19.541	885.167	671.067
241.015	19.733	884.381	671.155
242.030	19.746	884.009	670.864
243.045	19.823	883.463	670.690
244.059	19.920	882.671	670.405
245.074	19.993	882.173	670.249
246.088	19.998	881.649	669.812
247.103	20.100	881.373	669.937
248.117	20.059	880.863	669.330
249.132	20.457	880.181	670.290
250.147	20.643	880.276	671.022
251.161	20.984	879.968	672.042
252.176	21.057	879.221	671.691
253.190	20.965	878.409	670.661
254.205	21.062	878.017	670.672
255.220	21.169	877.272	670.455
256.234	21.011	876.834	669.455
257.249	20.924	876.076	668.483
258.263	20.875	875.507	667.804
259.278	20.856	874.983	667.270
260.293	21.042	874.437	667.505
261.307	21.175	874.168	667.750
262.322	21.084	873.614	666.923
263.336	21.144	872.788	666.461
264.351	21.151	872.496	666.206
265.366	21.149	872.108	665.844
266.380	21.290	870.603	665.171
267.395	21.244	870.314	664.716
268.409	20.908	869.812	662.997
269.424	20.950	868.644	662.208
270.439	20.920	868.206	661.703
271.453	20.955	867.360	661.132
272.468	20.835	866.396	659.881
273.482	20.681	865.691	658.705
274.497	20.581	865.744	658.309
275.512	20.832	864.713	658.413
276.526	20.788	863.827	657.517
277.541	20.743	863.378	656.947
278.555	20.770	862.545	656.355
279.570	21.055	862.247	657.144
280.585	21.202	862.545	657.867
281.599	21.133	861.901	657.058
282.614	20.973	860.529	655.351
283.628	20.928	859.831	654.595
284.643	20.851	859.247	653.803
285.657	20.867	858.876	653.524
286.672	20.873	858.469	653.178
287.687	20.921	857.979	652.927
288.701	20.954	857.674	652.761
289.716	20.935	857.072	652.174
290.730	20.969	856.136	651.532
291.745	20.967	855.826	651.230
292.760	20.834	854.851	649.936
293.774	20.998	854.552	650.262
294.789	21.095	854.403	650.453
295.803	21.374	853.472	650.722
296.818	21.132	852.888	649.319
297.833	21.049	851.759	648.097
298.847	21.057	851.387	647.785
299.862	21.026	850.752	647.131
300.876	21.106	850.433	647.128
301.891	21.225	849.778	647.011
302.906	21.270	849.480	646.895
303.920	21.538	848.339	646.957
304.935	21.503	848.177	646.648
305.949	21.689	847.437	646.713
306.964	21.590	846.885	645.871
307.979	21.471	846.057	644.743
308.993	21.258	845.748	643.666
310.008	21.585	845.289	644.462
311.022	21.385	845.252	643.643
312.037	21.505	844.538	643.483
313.052	21.365	843.553	642.161
314.066	21.211	842.701	640.888
315.081	20.850	842.224	639.146
316.095	20.899	841.510	638.727
317.110	21.014	840.796	638.550
318.125	21.078	840.154	638.242
319.139	20.900	840.115	637.505
320.154	20.998	839.586	637.405
321.168	20.945	838.792	636.552
322.183	21.083	838.261	636.595
323.197	21.217	838.214	636.994
324.212	21.154	837.488	636.154
325.227	21.289	836.564	635.888
326.241	21.189	836.400	635.342
327.256	21.158	835.920	634.809
328.270	21.111	834.961	633.856
329.285	21.157	834.613	633.702
330.300	21.112	833.971	632.993
331.314	21.050	833.299	632.203
332.329	21.080	832.945	631.986
333.343	21.143	832.432	631.769
334.358	21.437	832.166	632.576
335.373	21.477	831.393	632.077
336.387	21.403	830.965	631.428
337.402	21.505	830.351	631.273
338.416	21.565	829.925	631.111
339.431	21.734	829.518	631.355
340.446	21.833	829.268	631.463
341.460	21.920	828.668	631.266
342.475	21.999	828.254	631.177
343.489	22.095	827.441	630.847
344.504	22.180	827.004	630.764
345.519	22.175	827.181	630.824
346.533	22.206	826.814	630.599
347.548	22.138	825.793	629.522
348.562	21.998	824.923	628.302
349.577	21.715	824.222	626.701
350.592	21.649	823.666	625.988
351.606	21.479	822.670	624.568
352.621	21.439	822.405	624.166
353.635	21.418	822.344	623.993
354.650	21.707	821.834	624.580
355.665	21.622	821.474	623.949
356.679	21.743	820.879	623.872
357.694	21.929	820.283	624.023
358.708	21.801	820.289	623.517
359.723	21.783	819.431	622.746
360.738	21.779	818.785	622.188
361.752	21.865	818.119	621.932
362.767	21.859	817.681	621.521
363.781	21.983	817.640	621.873
364.796	22.284	817.195	622.546
365.810	22.255	816.858	622.134
366.825	22.488	816.747	622.817
367.840	22.439	816.291	622.241
368.854	22.413	815.890	621.790
369.869	22.199	815.372	620.585
370.883	22.165	814.394	619.664
371.898	22.094	814.192	619.203
372.913	22.290	813.411	619.247
373.927	22.470	812.569	619.185
374.942	22.454	811.805	618.492
375.956	22.321	811.776	617.946
376.971	22.534	811.053	618.088
377.986	22.404	810.900	617.461
379.000	22.677	810.437	618.011
380.015	22.802	809.708	617.840
381.029	22.673	809.036	616.819
382.044	22.783	808.153	616.475
383.059	22.673	807.890	615.839
384.073	22.771	807.500	615.829
385.088	22.559	806.848	614.534
386.102	22.303	806.277	613.155
387.117	22.255	805.409	612.274
388.132	22.197	805.041	611.736
389.146	22.095	804.373	610.822
390.161	22.106	804.587	610.968
391.175	22.507	803.558	611.525
392.190	22.640	803.367	611.785
393.205	22.531	803.260	611.272
394.219	22.245	802.585	609.713
395.234	22.260	801.980	609.254
396.248	22.088	801.298	608.086
397.263	21.986	800.815	607.310
398.278	21.834	800.399	606.417
399.292	21.990	799.389	606.138
400.307	21.895	799.231	605.634
401.321	22.003	798.641	605.506
402.336	22.055	798.473	605.506
403.350	22.145	798.353	605.672
404.365	22.307	797.804	605.760
405.380	22.433	797.336	605.783
406.394	22.708	797.296	606.647
407.409	22.782	796.889	606.538
408.423	22.777	796.464	606.143
409.438	22.912	795.702	605.972
410.453	22.849	795.620	605.639
411.467	22.961	795.269	605.703
412.482	22.921	795.139	605.412
413.496	23.082	794.332	605.296
414.511	23.183	794.316	605.576
415.526	23.203	793.405	604.896
416.540	23.056	793.090	604.099
417.555	22.935	792.867	603.464
418.569	23.140	791.899	603.374
419.584	22.953	791.463	602.348
420.599	22.879	791.400	601.995
421.613	165.312	1370.523	1796.924
422.628	143.371	1454.900	1796.999
