DTS Sentinel unit serial number:	SN413079Multiplexer serial number:	ORYXHardware model number:	OX4-SRSoftware version number:	ORYX F/W v4.00 Oryx Data Collector v3.7.2.0data status	okinstallation	princeton_trtdifferential loss correction	single-endedforward channel	channel 3reverse channel	N/Adate	2019/09/19time	15:16:35forward acquisition time	60.00reverse acquisition time	0.00gamma	496.2192k internal	0.2313k external	0.2313temperature offset calibration	1.0012default loss term (dB/km)	0.3790temperature slope calibration	1.0000multiplexer offset coefficient	1.0000multiplexer slope coefficient	1.0000fibre end	0.00T internal ref (°C)	33.62T ext. ref 1 (°C)	1.14T ext. ref 2 (°C)	30.43length (m)	temperature (°C)	Stokes	anti-Stokes-747.200	-200.000	0.071	0.325
-746.185	-200.000	-0.031	0.229
-745.171	254.874	-0.205	0.355
-744.156	-200.000	-0.004	0.092
-743.142	75.512	-0.138	-0.148
-742.127	-58.682	-0.344	0.151
-741.112	-200.000	-0.037	0.267
-740.098	-200.000	-0.043	0.197
-739.083	236.380	0.047	-0.078
-738.069	-9.113	-0.382	0.259
-737.054	-126.014	-0.183	-0.028
-736.039	800.000	-0.071	-0.259
-735.025	800.000	0.012	0.036
-734.010	266.744	-0.019	-0.033
-732.996	-109.217	-0.211	-0.045
-731.981	-19.548	-0.147	0.092
-730.966	-59.890	-0.281	-0.122
-729.952	172.940	-0.131	-0.192
-728.937	-200.000	-0.034	-0.381
-727.923	-30.748	-0.485	-0.278
-726.908	-200.000	0.011	0.159
-725.894	800.000	-0.089	0.319
-724.879	-155.337	-0.126	0.008
-723.864	186.887	0.175	-0.265
-722.850	-36.708	0.085	-0.046
-721.835	800.000	0.070	0.251
-720.821	-0.212	-0.200	-0.144
-719.806	-54.563	-0.227	0.104
-718.791	-67.307	-0.298	-0.119
-717.777	82.381	-0.134	-0.147
-716.762	-110.351	-0.115	-0.024
-715.748	-82.947	-0.083	-0.027
-714.733	108.497	-0.133	-0.161
-713.718	204.870	-0.177	-0.277
-712.704	43.925	0.185	0.172
-711.689	797.452	0.067	-0.186
-710.675	-200.000	0.056	-0.276
-709.660	-31.320	0.071	0.040
-708.645	178.494	-0.038	-0.056
-707.631	-17.063	0.031	-0.020
-706.616	-160.661	0.214	-0.012
-705.602	-108.698	-0.131	-0.028
-704.587	-200.000	-0.030	0.281
-703.572	378.991	-0.150	0.311
-702.558	-6.323	0.041	-0.028
-701.543	-200.000	0.024	-0.125
-700.529	-200.000	0.025	-0.126
-699.514	-96.474	-0.215	0.057
-698.499	800.000	-0.080	-0.245
-697.485	-80.720	-0.262	-0.088
-696.470	-200.000	0.000	0.077
-695.456	800.000	0.146	0.482
-694.441	-200.000	0.052	0.285
-693.426	29.097	-0.288	0.248
-692.412	-154.029	-0.455	0.031
-691.397	-128.364	-0.110	-0.016
-690.383	-112.311	0.140	-0.028
-689.368	-200.000	-0.023	0.235
-688.354	568.910	-0.131	-0.323
-687.339	615.245	0.114	-0.290
-686.324	-138.763	0.246	0.027
-685.310	285.072	-0.140	-0.255
-684.295	-179.062	-0.134	-0.003
-683.281	-86.293	-0.039	-0.012
-682.266	-99.017	-0.260	0.067
-681.251	-200.000	0.026	-0.203
-680.237	-112.770	-0.105	0.021
-679.222	-84.682	-0.387	0.123
-678.208	236.028	-0.127	-0.213
-677.193	599.876	0.113	-0.284
-676.178	-21.070	0.235	0.146
-675.164	-165.818	-0.185	0.008
-674.149	-200.000	0.013	-0.165
-673.135	-200.000	0.008	0.136
-672.120	506.612	-0.161	0.378
-671.105	-7.721	0.096	0.066
-670.091	-200.000	-0.011	-0.081
-669.076	-57.820	-0.130	-0.057
-668.062	-61.115	-0.106	-0.045
-667.047	-105.213	0.235	0.054
-666.032	-200.000	0.017	-0.136
-665.018	-200.000	-0.062	0.558
-664.003	-200.000	-0.013	0.128
-662.989	109.079	-0.227	0.275
-661.974	-200.000	0.027	-0.188
-660.959	233.421	-0.085	-0.141
-659.945	800.000	0.037	-0.117
-658.930	-200.000	-0.043	-0.256
-657.916	1.609	0.170	0.124
-656.901	-127.823	0.415	0.060
-655.886	-200.000	-0.063	-0.359
-654.872	-182.832	-0.516	0.009
-653.857	181.944	-0.033	0.050
-652.843	-1.048	0.290	0.208
-651.828	80.420	-0.183	-0.199
-650.814	-123.543	0.281	0.045
-649.799	-200.000	0.009	-0.126
-648.784	152.874	0.084	0.115
-647.770	-200.000	0.003	-0.027
-646.755	-200.000	0.017	-0.466
-645.741	60.703	0.370	-0.371
-644.726	284.661	-0.108	-0.196
-643.711	-132.454	-0.423	-0.055
-642.697	-38.223	-0.290	-0.155
-641.682	80.077	0.099	0.107
-640.668	800.000	-0.044	0.124
-639.653	782.458	0.129	-0.356
-638.638	149.180	-0.068	0.092
-637.624	-86.986	0.382	0.117
-636.609	-55.159	0.413	-0.188
-635.595	-134.575	0.321	0.040
-634.580	7.874	-0.201	-0.152
-633.565	113.110	0.147	-0.180
-632.551	-55.388	-0.225	0.102
-631.536	800.000	0.098	0.289
-630.522	46.716	-0.227	0.213
-629.507	800.000	-0.070	-0.200
-628.492	-7.152	0.182	-0.125
-627.478	160.970	-0.235	-0.332
-626.463	-182.598	0.361	-0.007
-625.449	-39.335	-0.548	0.291
-624.434	370.447	0.108	-0.221
-623.419	-200.000	0.031	-0.176
-622.405	47.975	0.131	-0.123
-621.390	-54.002	-0.086	0.039
-620.376	37.432	0.136	0.122
-619.361	67.615	0.170	-0.175
-618.346	-75.815	-0.380	-0.136
-617.332	184.820	-0.147	0.220
-616.317	204.064	0.197	-0.308
-615.303	-147.185	-0.065	0.006
-614.288	800.000	-0.066	-0.207
-613.273	10.867	0.118	-0.091
-612.259	-55.657	0.313	0.141
-611.244	-114.076	0.533	-0.104
-610.230	800.000	-0.085	-0.244
-609.215	800.000	0.095	-0.373
-608.201	-37.020	-0.186	-0.100
-607.186	202.079	0.190	-0.295
-606.171	-148.973	0.232	-0.019
-605.157	126.593	-0.114	-0.145
-604.142	-200.000	0.055	-0.576
-603.128	-200.000	-0.006	-0.077
-602.113	-200.000	0.028	-0.333
-601.098	187.435	0.140	0.210
-600.084	297.770	0.146	-0.270
-599.069	19.356	-0.100	-0.081
-598.055	59.159	0.089	0.088
-597.040	-200.000	0.007	-0.305
-596.025	-69.026	-0.296	-0.115
-595.011	-130.252	0.327	-0.045
-593.996	34.959	0.130	-0.115
-592.982	-68.025	-0.146	0.058
-591.967	748.295	-0.077	-0.209
-590.952	-4.553	0.094	0.066
-589.938	77.752	0.156	0.167
-588.923	32.052	-0.370	-0.322
-587.909	175.618	0.071	-0.104
-586.894	708.932	-0.128	-0.342
-585.879	34.627	-0.203	0.179
-584.865	149.056	-0.091	0.125
-583.850	-200.000	-0.029	0.272
-582.836	-15.379	-0.158	0.102
-581.821	-51.813	-0.093	0.044
-580.806	691.701	-0.142	-0.375
-579.792	-54.048	0.199	-0.091
-578.777	5.805	0.300	0.224
-577.763	-200.000	-0.005	-0.122
-576.748	-20.175	0.195	0.121
-575.733	800.000	-0.041	-0.122
-574.719	-200.000	0.018	-0.098
-573.704	-76.188	-0.327	0.116
-572.690	-200.000	-0.027	-0.216
-571.675	-200.000	-0.040	0.627
-570.661	-38.173	0.312	-0.167
-569.646	-200.000	-0.048	0.308
-568.631	-65.267	-0.113	0.046
-567.617	-23.290	0.037	0.022
-566.602	-67.737	-0.209	-0.082
-565.588	800.000	0.087	-0.270
-564.573	800.000	-0.105	0.313
-563.558	-45.258	-0.215	0.108
-562.544	37.747	-0.110	-0.099
-561.529	82.155	0.071	0.077
-560.515	800.000	0.051	-0.184
-559.500	363.831	-0.065	0.132
-558.485	-21.453	0.273	-0.168
-557.471	-12.771	-0.083	0.054
-556.456	78.248	-0.142	-0.153
-555.442	65.355	-0.085	-0.086
-554.427	193.052	-0.195	-0.297
-553.412	164.298	-0.155	-0.219
-552.398	191.400	0.068	-0.103
-551.383	-200.000	0.005	-0.249
-550.369	800.000	-0.022	0.088
-549.354	-25.407	-0.328	0.195
-548.339	182.423	-0.182	-0.270
-547.325	-200.000	-0.000	0.210
-546.310	-91.851	-0.253	-0.072
-545.296	2.960	0.006	-0.004
-544.281	217.654	-0.124	-0.198
-543.266	-35.008	0.108	0.059
-542.252	800.000	-0.061	0.203
-541.237	-200.000	-0.026	0.404
-540.223	800.000	0.078	-0.226
-539.208	426.422	-0.021	-0.046
-538.193	-126.572	0.380	0.057
-537.179	60.354	0.065	-0.064
-536.164	800.000	-0.018	-0.053
-535.150	-56.921	0.060	-0.027
-534.135	87.516	-0.104	-0.116
-533.121	-147.096	0.108	0.009
-532.106	268.769	-0.112	-0.198
-531.091	-200.000	-0.005	-0.188
-530.077	-137.580	-0.267	0.030
-529.062	800.000	0.094	0.325
-528.048	157.411	-0.114	0.159
-527.033	575.972	-0.074	0.183
-526.018	98.860	-0.260	-0.302
-525.004	106.185	-0.124	0.147
-523.989	800.000	0.038	0.142
-522.975	-127.399	-0.415	0.061
-521.960	-81.409	-0.240	-0.080
-520.945	800.000	0.023	-0.074
-519.931	267.453	-0.012	-0.021
-518.916	-1.033	0.114	0.081
-517.902	-78.240	0.165	-0.057
-516.887	41.313	-0.097	-0.088
-515.872	632.765	-0.070	0.179
-514.858	-24.986	0.258	-0.154
-513.843	-200.000	0.015	-0.282
-512.829	-99.586	0.278	-0.070
-511.814	-200.000	-0.003	-0.178
-510.799	-78.723	0.125	-0.043
-509.785	359.266	-0.081	0.163
-508.770	-18.774	0.276	0.173
-507.756	-148.624	0.204	0.017
-506.741	-200.000	-0.039	-0.335
-505.726	-28.428	0.082	0.048
-504.712	-200.000	-0.033	-0.174
-503.697	72.220	0.059	0.062
-502.683	86.930	0.041	0.046
-501.668	124.695	0.175	-0.222
-500.653	136.370	0.088	0.116
-499.639	79.503	0.104	-0.112
-498.624	234.820	-0.160	-0.265
-497.610	-127.786	-0.314	-0.046
-496.595	800.000	0.044	-0.192
-495.581	-133.234	-0.180	0.023
-494.566	47.551	0.160	0.150
-493.551	-146.657	-0.054	0.005
-492.537	-200.000	0.016	0.223
-491.522	-200.000	-0.024	-0.286
-490.508	-162.886	0.417	0.020
-489.493	31.928	-0.232	0.201
-488.478	-107.374	-0.311	0.069
-487.464	-200.000	0.001	-0.077
-486.449	-88.946	-0.330	-0.098
-485.435	284.648	-0.019	-0.035
-484.420	-200.000	0.015	-0.243
-483.405	-113.121	0.078	0.015
-482.391	5.819	0.041	0.031
-481.376	344.308	-0.168	0.331
-480.362	305.219	0.176	-0.327
-479.347	-88.373	0.082	0.025
-478.332	759.208	0.104	0.283
-477.318	-152.742	0.141	0.010
-476.303	38.505	0.099	-0.088
-475.289	-139.682	0.193	-0.021
-474.274	-200.000	-0.013	-0.070
-473.259	-3.929	-0.094	0.066
-472.245	-57.270	0.230	-0.101
-471.230	-50.198	0.051	-0.024
-470.216	-184.971	-0.124	0.002
-469.201	-200.000	0.008	0.131
-468.186	154.242	0.105	-0.144
-467.172	177.615	-0.049	0.072
-466.157	124.753	-0.218	0.275
-465.143	-81.774	0.125	0.041
-464.128	-200.000	-0.042	0.235
-463.113	-200.000	-0.031	-0.195
-462.099	122.878	0.209	0.263
-461.084	-22.232	-0.288	-0.175
-460.070	-119.224	0.011	0.002
-459.055	692.339	0.093	0.244
-458.040	-95.442	0.234	-0.063
-457.026	800.000	-0.084	0.288
-456.011	-45.781	0.234	0.116
-454.997	-165.216	-0.119	-0.005
-453.982	17.758	-0.289	-0.231
-452.968	-121.372	0.198	-0.033
-451.953	-104.922	0.170	-0.039
-450.938	800.000	-0.087	-0.270
-449.924	-200.000	-0.027	0.252
-448.909	33.809	0.360	0.314
-447.895	-79.385	-0.230	0.078
-446.880	50.552	-0.222	-0.211
-445.865	800.000	0.011	0.032
-444.851	517.837	0.138	0.324
-443.836	-76.393	-0.364	-0.128
-442.822	206.963	-0.007	0.011
-441.807	-46.569	0.402	-0.197
-440.792	-156.890	0.373	0.023
-439.778	800.000	0.044	0.141
-438.763	405.606	-0.120	-0.253
-437.749	57.287	0.125	0.122
-436.734	202.382	-0.062	0.096
-435.719	14.082	-0.127	-0.099
-434.705	800.000	-0.048	0.154
-433.690	800.000	0.054	0.171
-432.676	-191.298	0.256	0.003
-431.661	800.000	0.046	0.142
-430.646	-65.961	0.084	0.034
-429.632	-24.981	0.425	-0.253
-428.617	32.372	-0.165	0.143
-427.603	-200.000	0.034	-0.380
-426.588	133.373	0.105	-0.136
-425.573	-45.763	0.239	-0.119
-424.559	222.748	-0.119	-0.192
-423.544	-19.180	0.046	0.029
-422.530	-30.273	0.210	-0.120
-421.515	76.862	-0.173	-0.184
-420.500	-200.000	0.021	0.262
-419.486	34.148	-0.258	-0.225
-418.471	-80.579	-0.255	0.085
-417.457	-158.139	-0.025	-0.001
-416.442	-83.880	-0.306	-0.098
-415.428	12.081	0.090	-0.069
-414.413	-167.221	0.277	0.011
-413.398	800.000	0.120	-0.503
-412.384	624.149	0.077	-0.194
-411.369	65.443	-0.022	0.023
-410.355	23.175	-0.088	0.072
-409.340	-146.241	-0.331	-0.029
-408.325	800.000	-0.010	0.035
-407.311	-200.000	0.014	0.231
-406.296	-97.593	-0.297	0.077
-405.282	23.060	-0.306	0.251
-404.267	147.529	0.115	0.155
-403.252	-112.857	0.146	-0.029
-402.238	-200.000	0.072	0.371
-401.223	-96.537	-0.060	-0.016
-400.209	-64.415	-0.282	0.115
-399.194	30.633	-0.242	0.208
-398.179	-146.002	0.239	-0.021
-397.165	-152.257	-0.279	-0.020
-396.150	11.164	0.279	-0.214
-395.136	-147.724	0.142	0.012
-394.121	53.537	0.239	-0.229
-393.106	232.646	0.166	-0.272
-392.092	385.855	0.116	-0.239
-391.077	524.603	-0.073	0.171
-390.063	514.272	-0.145	0.339
-389.048	800.000	0.095	0.293
-388.033	-26.604	0.075	0.044
-387.019	-200.000	-0.035	-0.217
-386.004	-200.000	0.057	-0.339
-384.990	-83.956	-0.120	-0.038
-383.975	-117.838	0.192	0.034
-382.960	-200.000	-0.011	0.122
-381.946	-200.000	0.007	0.220
-380.931	-38.954	-0.169	-0.089
-379.917	17.960	-0.287	0.228
-378.902	228.674	0.135	0.220
-377.888	-184.370	-0.176	-0.003
-376.873	273.125	-0.204	-0.360
-375.858	800.000	0.020	-0.083
-374.844	-200.000	0.080	0.371
-373.829	388.096	-0.098	-0.202
-372.815	-55.620	-0.251	-0.112
-371.800	-200.000	-0.018	-0.320
-370.785	-142.767	0.126	-0.012
-369.771	118.620	0.207	0.256
-368.756	703.831	0.069	0.181
-367.742	-200.000	-0.014	-0.130
-366.727	546.275	-0.068	-0.162
-365.712	84.551	-0.162	0.177
-364.698	453.764	-0.090	0.199
-363.683	30.052	0.302	-0.258
-362.669	-200.000	-0.009	0.168
-361.654	476.412	0.146	0.330
-360.639	-200.000	0.032	0.296
-359.625	-37.195	-0.300	-0.160
-358.610	-76.763	0.246	0.086
-357.596	-200.000	-0.030	-0.179
-356.581	89.196	0.206	-0.229
-355.566	99.541	-0.104	-0.120
-354.552	296.378	-0.065	0.120
-353.537	656.554	0.030	-0.077
-352.523	-65.111	0.049	0.020
-351.508	22.230	-0.104	-0.085
-350.493	68.978	-0.171	0.175
-349.479	-200.000	0.008	0.497
-348.464	277.670	0.046	0.082
-347.450	703.686	-0.037	-0.097
-346.435	153.439	-0.255	0.348
-345.420	-200.000	0.009	-0.289
-344.406	42.416	0.364	0.330
-343.391	128.095	0.093	0.118
-342.377	236.234	-0.101	-0.167
-341.362	122.922	0.060	0.075
-340.348	-2.939	-0.212	-0.148
-339.333	-75.721	0.033	-0.012
-338.318	-99.969	-0.231	0.058
-337.304	21.305	-0.434	0.352
-336.289	-152.022	0.106	-0.008
-335.275	-34.232	-0.231	-0.126
-334.260	-10.180	0.156	0.103
-333.245	-114.599	-0.142	0.027
-332.231	12.679	-0.080	-0.062
-331.216	-38.710	-0.229	-0.121
-330.202	-200.000	0.024	-0.232
-329.187	194.080	0.093	0.141
-328.172	-129.411	0.049	0.007
-327.158	-200.000	-0.050	0.281
-326.143	-200.000	0.017	-0.131
-325.129	91.982	0.048	0.053
-324.114	39.994	-0.184	-0.165
-323.099	-90.867	0.128	-0.037
-322.085	202.719	-0.175	0.269
-321.070	292.757	0.127	-0.231
-320.056	640.405	-0.048	0.122
-319.041	-32.248	0.142	0.079
-318.026	-48.700	-0.197	-0.095
-317.012	207.044	-0.116	-0.180
-315.997	429.530	-0.040	-0.086
-314.983	800.000	-0.054	0.163
-313.968	520.247	0.064	0.149
-312.953	800.000	0.047	0.130
-311.939	74.423	0.093	-0.097
-310.924	-200.000	0.009	0.220
-309.910	-200.000	0.043	-0.282
-308.895	-107.828	0.128	0.028
-307.880	-200.000	-0.001	0.169
-306.866	-21.026	0.088	-0.054
-305.851	800.000	0.043	-0.182
-304.837	-38.076	0.097	0.051
-303.822	346.742	0.134	-0.263
-302.807	5.757	0.251	-0.185
-301.793	800.000	0.054	0.151
-300.778	657.640	0.113	0.290
-299.764	-115.633	0.119	0.022
-298.749	-3.988	0.110	0.076
-297.735	146.145	-0.208	-0.278
-296.720	-51.142	0.218	-0.102
-295.705	126.158	-0.126	-0.159
-294.691	-200.000	-0.019	0.165
-293.676	-144.301	-0.429	-0.040
-292.662	-200.000	-0.057	0.263
-291.647	311.010	0.154	0.288
-290.632	800.000	0.026	-0.095
-289.618	-6.115	-0.057	0.039
-288.603	125.489	-0.037	0.047
-287.589	-144.018	0.158	0.015
-286.574	114.385	0.143	0.174
-285.559	-45.491	-0.136	-0.067
-284.545	-75.798	0.393	-0.139
-283.530	-200.000	0.053	-0.309
-282.516	196.089	-0.098	0.148
-281.501	-7.105	-0.330	0.223
-280.486	98.896	0.099	-0.114
-279.472	-9.302	-0.165	-0.110
-278.457	54.525	-0.067	0.065
-277.443	15.640	-0.288	0.225
-276.428	-127.610	0.076	0.011
-275.413	73.576	0.016	0.016
-274.399	-124.471	0.353	0.055
-273.384	274.751	-0.106	-0.187
-272.370	-165.901	-0.158	-0.007
-271.355	153.617	-0.159	0.217
-270.340	28.476	-0.343	-0.289
-269.326	-200.000	0.000	-0.003
-268.311	-107.696	0.460	0.100
-267.297	-45.022	0.166	0.082
-266.282	-24.638	0.301	-0.178
-265.267	-200.000	0.042	-0.235
-264.253	559.462	-0.080	0.191
-263.238	77.276	-0.138	0.146
-262.224	-200.000	0.035	0.206
-261.209	800.000	-0.135	0.399
-260.195	800.000	-0.015	-0.065
-259.180	96.110	-0.338	-0.384
-258.165	227.474	-0.119	0.192
-257.151	265.813	0.051	0.089
-256.136	-78.427	-0.567	-0.193
-255.122	242.450	0.010	-0.016
-254.107	-200.000	0.004	0.063
-253.092	654.024	-0.064	-0.163
-252.078	26.543	0.083	0.069
-251.063	-93.838	0.326	-0.089
-250.049	-41.786	-0.411	0.210
-249.034	20.263	-0.262	-0.210
-248.019	-200.000	-0.031	-0.134
-247.005	-200.000	0.055	0.340
-245.990	-178.298	-0.270	-0.006
-244.976	60.616	-0.066	-0.065
-243.961	-17.745	-0.293	0.183
-242.946	-200.000	-0.013	-0.090
-241.932	-154.828	-0.205	0.013
-240.917	-6.036	0.075	-0.051
-239.903	-200.000	0.007	0.076
-238.888	70.789	0.220	0.227
-237.873	15.461	-0.102	0.079
-236.859	100.674	0.196	-0.227
-235.844	-200.000	0.012	0.270
-234.830	-59.154	0.318	-0.136
-233.815	-24.680	0.103	0.061
-232.800	-200.000	-0.047	0.410
-231.786	-86.598	-0.295	-0.090
-230.771	-53.158	-0.114	0.052
-229.757	-23.435	-0.336	0.200
-228.742	563.348	-0.093	0.223
-227.727	-16.190	-0.109	0.069
-226.713	-200.000	0.117	-0.526
-225.698	-77.415	-0.135	0.046
-224.684	-200.000	0.043	0.202
-223.669	-89.885	0.262	0.076
-222.655	-87.894	0.234	-0.070
-221.640	-18.433	0.275	0.170
-220.625	-143.674	0.548	-0.052
-219.611	800.000	0.052	0.172
-218.596	-113.151	-0.161	-0.031
-217.582	501.413	0.128	-0.293
-216.567	94.483	0.194	-0.219
-215.552	-84.534	-0.206	-0.065
-214.538	363.462	-0.213	0.426
-213.523	263.511	-0.053	0.091
-212.509	800.000	0.110	0.474
-211.494	-127.741	0.177	-0.025
-210.479	777.763	-0.014	-0.037
-209.465	85.673	0.083	0.091
-208.450	-91.861	-0.064	0.018
-207.436	-144.509	0.140	-0.013
-206.421	33.775	0.267	-0.231
-205.406	53.210	0.197	-0.187
-204.392	-200.000	-0.052	0.326
-203.377	191.077	0.053	0.080
-202.363	686.197	-0.069	-0.179
-201.348	-200.000	0.045	0.326
-200.333	-126.539	-0.390	-0.057
-199.319	-87.505	-0.112	-0.034
-198.304	300.688	0.168	0.308
-197.290	57.045	0.284	0.275
-196.275	-114.682	0.310	0.059
-195.260	10.906	-0.105	0.079
-194.246	257.699	-0.146	0.249
-193.231	-82.843	-0.372	-0.119
-192.217	-200.000	0.015	-0.236
-191.202	411.704	0.106	0.223
-190.187	-163.627	-0.020	0.001
-189.173	7.639	-0.285	0.212
-188.158	-130.025	-0.097	0.013
-187.144	623.264	-0.049	-0.123
-186.129	578.538	-0.278	0.675
-185.114	-200.000	0.060	0.280
-184.100	-65.673	-0.158	0.063
-183.085	-3.016	-0.105	-0.072
-182.071	-129.106	0.261	0.036
-181.056	202.703	-0.281	-0.430
-180.042	-61.835	0.234	-0.097
-179.027	142.107	0.211	0.278
-178.012	430.896	0.194	-0.417
-176.998	3.254	0.181	0.131
-175.983	28.265	0.241	0.202
-174.969	17.873	0.198	-0.157
-173.954	-75.581	-0.186	0.066
-172.939	385.197	0.090	0.184
-171.925	56.930	-0.130	-0.126
-170.910	438.793	0.089	0.192
-169.896	-200.000	0.047	0.425
-168.881	-200.000	-0.004	0.236
-167.866	-200.000	0.001	-0.238
-166.852	264.712	0.202	0.349
-165.837	-200.000	0.003	-0.020
-164.823	-34.779	0.208	0.113
-163.808	113.365	0.084	0.102
-162.793	-123.212	0.120	-0.019
-161.779	-41.522	-0.160	0.081
-160.764	-67.396	-0.041	-0.016
-159.750	35.324	0.283	0.246
-158.735	102.037	-0.110	-0.128
-157.720	-158.506	-0.121	-0.007
-156.706	-133.531	-0.221	0.027
-155.691	401.098	0.048	0.099
-154.677	-132.908	0.116	0.015
-153.662	-200.000	0.026	-0.262
-152.647	-51.936	-0.129	-0.059
-151.633	66.805	0.180	0.182
-150.618	123.538	0.068	-0.085
-149.604	13.731	0.063	-0.049
-148.589	0.232	0.488	-0.345
-147.574	50.762	0.034	-0.031
-146.560	-88.024	0.323	-0.096
-145.545	-89.504	0.137	-0.040
-144.531	800.000	-0.069	0.199
-143.516	39.716	0.189	-0.168
-142.502	-176.327	0.015	0.000
-141.487	49.300	0.218	0.203
-140.472	-46.571	0.573	-0.278
-139.458	-111.888	0.062	-0.012
-138.443	800.000	-0.120	-0.336
-137.429	324.873	0.168	0.317
-136.414	789.847	-0.150	-0.408
-135.399	-55.421	0.280	0.124
-134.385	240.239	0.085	-0.140
-133.370	800.000	-0.034	-0.095
-132.356	174.040	-0.069	-0.099
-131.341	369.863	-0.117	-0.235
-130.326	-40.199	-0.211	-0.109
-129.312	218.307	-0.107	0.169
-128.297	-62.297	0.158	0.065
-127.283	-62.644	-0.096	0.040
-126.268	336.517	-0.141	0.271
-125.253	296.701	-0.077	0.140
-124.239	800.000	0.019	0.075
-123.224	589.525	-0.143	0.350
-122.210	-36.726	-0.164	-0.087
-121.195	-200.000	-0.009	0.203
-120.180	304.921	-0.254	0.467
-119.166	-149.276	-0.301	-0.024
-118.151	17.995	-0.024	-0.019
-117.137	-200.000	0.038	0.287
-116.122	32.185	-0.331	0.283
-115.107	-157.798	0.075	-0.004
-114.093	800.000	0.029	0.104
-113.078	-200.000	0.038	0.175
-112.064	146.514	-0.106	0.140
-111.049	373.421	-0.020	0.041
-110.034	82.127	-0.190	-0.204
-109.020	-89.423	-0.213	-0.062
-108.005	-125.492	0.114	0.017
-106.991	-200.000	-0.003	-0.097
-105.976	800.000	-0.047	0.130
-104.962	-151.489	-0.346	-0.025
-103.947	-200.000	0.041	-0.239
-102.932	800.000	0.051	-0.155
-101.918	131.558	0.148	-0.188
-100.903	-200.000	-0.078	0.349
-99.889	-87.682	0.164	-0.049
-98.874	-200.000	0.010	0.064
-97.859	323.805	-0.097	0.184
-96.845	-200.000	-0.092	-0.533
-95.830	59.153	0.231	0.224
-94.816	-200.000	0.017	0.157
-93.801	-10.474	0.284	0.186
-92.786	800.000	0.024	-0.084
-91.772	-136.785	-0.160	0.018
-90.757	-200.000	-0.030	0.222
-89.743	2.314	0.226	0.162
-88.728	-86.990	0.307	-0.092
-87.713	42.905	0.097	-0.088
-86.699	290.817	-0.128	-0.231
-85.684	-70.624	-0.250	-0.093
-84.670	-149.343	-0.179	-0.014
-83.655	-10.986	0.364	-0.237
-82.640	800.000	0.045	0.194
-81.626	1.795	0.107	-0.076
-80.611	207.924	-0.104	0.160
-79.597	-59.767	-0.013	0.006
-78.582	344.364	0.084	-0.162
-77.567	40.771	-0.201	0.179
-76.553	800.000	0.080	0.256
-75.538	-200.000	0.039	0.208
-74.524	-123.220	-0.165	0.026
-73.509	209.145	-0.246	0.380
-72.494	-200.000	0.002	0.383
-71.480	79.515	0.120	0.127
-70.465	45.571	0.220	-0.201
-69.451	167.780	0.085	-0.119
-68.436	8.254	0.085	-0.063
-67.422	528.163	0.096	-0.223
-66.407	149.803	0.072	0.097
-65.392	800.000	-0.120	-0.348
-64.378	-200.000	-0.022	0.255
-63.363	-102.561	0.106	0.025
-62.349	2.906	0.287	0.206
-61.334	40.301	-0.751	-0.668
-60.319	41.982	0.399	0.357
-59.305	652.132	-0.280	-0.709
-58.290	281.611	0.566	1.001
-57.276	466.561	0.598	1.323
-56.261	-200.000	96.919	553.912
-55.246	483.115	1440.847	3233.636
-54.232	142.130	2670.658	3496.995
-53.217	108.368	2248.157	2648.273
-52.203	43.920	1768.089	1598.855
-51.188	36.760	1576.454	1374.881
-50.173	34.412	1549.365	1334.785
-49.159	52.816	1599.425	1509.270
-48.144	55.154	1618.307	1543.666
-47.130	37.075	1574.552	1375.240
-46.115	33.896	1558.913	1339.162
-45.100	33.656	1556.142	1335.039
-44.086	33.644	1554.123	1333.176
-43.071	33.701	1551.480	1331.253
-42.057	33.621	1550.092	1329.450
-41.042	33.660	1548.746	1328.514
-40.027	33.603	1547.427	1326.932
-39.013	33.603	1545.903	1325.569
-37.998	33.610	1544.725	1324.559
-36.984	33.608	1543.708	1323.617
-35.969	33.669	1541.452	1322.055
-34.954	33.656	1540.309	1320.935
-33.940	33.632	1539.195	1319.760
-32.925	33.586	1537.933	1318.301
-31.911	33.700	1536.452	1317.776
-30.896	33.658	1535.343	1316.478
-29.881	33.725	1533.219	1315.071
-28.867	33.724	1532.011	1313.975
-27.852	33.697	1530.785	1312.687
-26.838	33.722	1529.278	1311.510
-25.823	33.676	1528.076	1310.112
-24.809	33.691	1526.199	1308.552
-23.794	33.740	1524.637	1307.499
-22.779	33.708	1523.186	1305.983
-21.765	33.621	1522.180	1304.474
-20.750	33.719	1521.090	1304.160
-19.736	33.654	1520.172	1302.875
-18.721	33.609	1518.949	1301.465
-17.706	33.561	1518.025	1300.294
-16.692	33.632	1516.763	1299.647
-15.677	33.563	1516.055	1298.519
-14.663	33.580	1514.974	1297.653
-13.648	33.604	1514.095	1297.013
-12.633	33.534	1513.338	1295.833
-11.619	33.594	1512.334	1295.335
-10.604	33.567	1511.480	1294.367
-9.590	33.594	1510.207	1293.409
-8.575	33.587	1509.525	1292.730
-7.560	33.548	1509.273	1292.197
-6.546	33.662	1507.658	1291.534
-5.531	33.462	1507.212	1289.742
-4.517	33.481	1506.067	1288.842
-3.502	33.599	1505.289	1288.925
-2.487	33.566	1503.604	1287.210
-1.473	33.504	1502.957	1286.183
-0.458	33.626	1501.100	1285.365
0.556	33.412	1492.330	1276.840
1.571	30.790	1466.059	1236.857
2.586	27.034	1399.823	1156.997
3.600	24.118	1311.870	1066.767
4.615	21.748	1263.403	1013.575
5.629	18.216	1204.626	946.821
6.644	9.476	1115.500	831.715
7.659	2.465	1072.383	764.576
8.673	1.298	1067.136	754.967
9.688	1.167	1063.585	751.735
10.702	1.089	1063.010	750.879
11.717	1.016	1061.265	749.220
12.731	3.455	1063.078	762.504
13.746	11.135	1073.602	808.220
14.761	16.652	1080.474	840.802
15.775	17.715	1080.642	846.138
16.790	17.398	1078.925	843.144
17.804	16.376	1076.838	836.384
18.819	15.392	1075.525	830.423
19.834	15.063	1073.875	827.445
20.848	14.711	1072.939	824.914
21.863	14.383	1072.531	822.906
22.877	14.206	1070.986	820.777
23.892	14.116	1070.144	819.615
24.907	13.834	1069.942	817.999
25.921	13.857	1068.821	817.180
26.936	13.799	1068.332	816.450
27.950	13.866	1067.619	816.162
28.965	13.877	1067.155	815.789
29.980	14.116	1065.658	815.748
30.994	14.029	1064.497	814.357
32.009	14.194	1063.655	814.451
33.023	14.118	1062.939	813.457
34.038	14.052	1062.825	812.978
35.053	14.081	1061.528	812.052
36.067	13.984	1060.468	810.700
37.082	14.097	1059.593	810.506
38.096	14.129	1058.533	809.783
39.111	14.062	1058.507	809.365
40.126	14.045	1057.314	808.298
41.140	14.024	1056.020	807.133
42.155	13.928	1055.125	805.914
43.169	14.060	1054.392	805.922
44.184	13.860	1053.424	804.141
45.199	13.894	1051.982	803.134
46.213	13.804	1051.312	802.117
47.228	13.820	1050.255	801.319
48.242	13.985	1048.875	800.989
49.257	13.988	1048.457	800.612
50.271	14.005	1047.049	799.547
51.286	14.066	1046.260	799.171
52.301	13.942	1045.689	798.066
53.315	14.000	1045.188	797.891
54.330	13.844	1044.329	796.418
55.344	13.860	1043.281	795.623
56.359	13.930	1042.087	794.976
57.374	13.733	1041.821	793.762
58.388	13.893	1040.761	793.651
59.403	13.901	1039.911	792.971
60.417	13.754	1039.153	791.617
61.432	13.759	1038.744	791.261
62.447	13.875	1037.794	791.020
63.461	13.893	1036.599	790.128
64.476	13.760	1036.169	789.096
65.490	13.741	1035.033	788.072
66.505	13.808	1034.403	787.839
67.520	13.868	1033.464	787.337
68.534	14.056	1032.370	787.328
69.549	13.898	1032.115	786.313
70.563	13.842	1031.086	785.194
71.578	13.871	1030.436	784.767
72.593	13.880	1029.507	784.032
73.607	13.800	1028.850	783.087
74.622	13.897	1027.683	782.585
75.636	13.816	1026.948	781.576
76.651	13.784	1025.958	780.600
77.666	13.730	1025.266	779.753
78.680	13.798	1024.694	779.569
79.695	13.774	1024.355	779.128
80.709	13.793	1023.445	778.457
81.724	13.878	1022.243	777.872
82.739	13.906	1021.232	777.165
83.753	13.810	1020.917	776.407
84.768	13.915	1019.861	776.027
85.782	13.946	1019.515	775.841
86.797	14.034	1018.587	775.476
87.812	14.125	1017.327	774.869
88.826	13.960	1017.029	773.806
89.841	14.001	1016.042	773.177
90.855	14.014	1015.058	772.422
91.870	14.069	1014.465	772.159
92.884	14.019	1013.813	771.360
93.899	13.993	1013.029	770.575
94.914	14.013	1012.211	769.978
95.928	14.047	1011.547	769.562
96.943	14.141	1010.930	769.457
97.957	14.040	1009.942	768.174
98.972	14.148	1008.903	767.812
99.987	14.076	1008.118	766.815
101.001	14.245	1007.034	766.701
102.016	14.068	1006.517	765.424
103.030	14.095	1005.493	764.702
104.045	13.990	1004.651	763.511
105.060	13.935	1003.672	762.450
106.074	14.020	1002.619	761.972
107.089	13.985	1002.004	761.275
108.103	13.881	1001.380	760.259
109.118	13.933	1000.176	759.515
110.133	13.939	999.635	759.064
111.147	13.919	998.682	758.181
112.162	13.971	997.750	757.647
113.176	13.906	996.819	756.574
114.191	14.060	995.860	756.480
115.206	13.943	995.176	755.363
116.220	14.000	994.114	754.747
117.235	14.043	993.156	754.150
118.249	14.049	992.312	753.470
119.264	13.983	991.501	752.489
120.279	13.848	990.826	751.298
121.293	14.032	990.049	751.473
122.308	14.005	988.842	750.368
123.322	14.006	987.887	749.584
124.337	14.030	987.208	749.110
125.352	14.042	985.873	748.084
126.366	14.008	984.947	747.160
127.381	13.940	983.873	745.974
128.395	13.894	983.536	745.449
129.410	14.004	982.216	744.874
130.424	13.941	981.511	743.993
131.439	14.066	980.242	743.524
132.454	14.022	979.304	742.548
133.468	14.053	978.688	742.155
134.483	13.974	978.354	741.485
135.497	14.032	977.448	740.988
136.512	14.080	976.653	740.536
137.527	14.105	975.642	739.813
138.541	13.983	975.250	738.911
139.556	13.990	974.598	738.382
140.570	14.010	973.944	737.909
141.585	14.053	972.960	737.291
142.600	14.071	972.562	737.003
143.614	14.179	970.907	736.160
144.629	14.264	970.148	735.894
145.643	14.104	970.053	735.050
146.658	14.160	968.917	734.374
147.673	14.182	967.992	733.706
148.687	14.130	967.079	732.716
149.702	14.213	966.074	732.256
150.716	14.046	965.503	731.024
151.731	14.107	964.600	730.545
152.746	14.128	963.866	730.014
153.760	14.126	963.494	729.662
154.775	14.261	962.029	729.078
155.789	14.294	961.610	728.841
156.804	14.264	960.502	727.806
157.819	14.233	959.918	727.161
158.833	14.140	959.810	726.610
159.848	14.142	958.801	725.792
160.862	14.147	958.236	725.320
161.877	14.131	957.252	724.442
162.892	14.136	956.343	723.711
163.906	14.217	955.848	723.626
164.921	14.112	954.809	722.317
165.935	14.141	953.553	721.432
166.950	14.255	952.940	721.397
167.964	14.288	952.036	720.794
168.979	14.328	950.755	719.932
169.994	14.447	949.282	719.263
171.008	14.350	949.077	718.627
172.023	14.312	948.315	717.822
173.037	14.278	947.240	716.799
174.052	14.376	947.062	717.026
175.067	14.432	945.953	716.361
176.081	14.275	945.695	715.428
177.096	14.444	944.317	715.049
178.110	14.268	943.924	713.932
179.125	14.437	942.994	713.888
180.140	14.292	942.161	712.577
181.154	14.246	941.394	711.734
182.169	14.398	940.824	711.892
183.183	14.403	939.955	711.192
184.198	14.387	939.666	710.841
185.213	14.556	938.754	710.811
186.227	14.445	938.564	710.132
187.242	14.554	937.882	710.014
188.256	14.650	936.757	709.509
189.271	14.579	936.261	708.767
190.286	14.474	935.457	707.651
191.300	14.519	934.692	707.202
192.315	14.431	934.012	706.250
193.329	14.484	932.984	705.636
194.344	14.425	932.403	704.884
195.359	14.464	932.010	704.687
196.373	14.547	931.563	704.642
197.388	14.618	930.601	704.150
198.402	14.726	930.240	704.268
199.417	14.769	929.638	703.933
200.432	14.786	929.454	703.800
201.446	14.768	929.234	703.499
202.461	14.713	928.422	702.589
203.475	14.906	927.859	702.912
204.490	14.853	927.341	702.234
205.504	14.790	926.633	701.372
206.519	14.779	925.816	700.645
207.534	14.739	924.865	699.696
208.548	14.817	924.178	699.442
209.563	14.726	924.108	698.946
210.577	14.861	922.845	698.494
211.592	14.823	922.237	697.810
212.607	14.822	921.832	697.440
213.621	14.801	921.305	696.890
214.636	14.964	920.100	696.598
215.650	14.921	919.371	695.806
216.665	14.924	919.132	695.577
217.680	15.028	918.458	695.434
218.694	15.073	918.066	695.266
219.709	14.982	917.658	694.516
220.723	14.995	916.806	693.864
221.738	14.963	916.520	693.451
222.753	15.098	915.522	693.194
223.767	15.096	914.596	692.426
224.782	15.130	913.754	691.867
225.796	15.012	913.395	691.046
226.811	15.212	912.341	691.010
227.826	15.156	911.764	690.283
228.840	15.213	911.108	689.963
229.855	15.013	910.504	688.617
230.869	15.157	909.673	688.523
231.884	15.011	909.313	687.590
232.899	15.105	908.409	687.231
233.913	15.083	907.885	686.680
234.928	15.034	907.044	685.785
235.942	15.149	906.418	685.723
236.957	15.211	905.316	685.082
237.972	15.069	905.015	684.212
238.986	15.051	904.483	683.677
240.001	15.202	903.630	683.587
241.015	15.223	902.851	683.023
242.030	15.096	901.967	681.778
243.045	15.292	901.356	682.052
244.059	15.295	901.023	681.753
245.074	15.363	900.152	681.309
246.088	15.366	899.463	680.737
247.103	15.162	899.227	679.672
248.117	15.292	898.580	679.651
249.132	15.425	897.710	679.469
250.147	15.406	897.398	679.097
251.161	15.367	896.992	678.572
252.176	15.554	895.818	678.377
253.190	15.470	894.988	677.353
254.205	15.528	894.576	677.213
255.220	15.584	894.015	676.954
256.234	15.807	892.635	676.745
257.249	15.610	892.672	675.921
258.263	15.662	892.353	675.832
259.278	15.618	891.904	675.255
260.293	15.486	891.576	674.416
261.307	15.650	890.592	674.270
262.322	15.765	889.918	674.162
263.336	15.772	888.891	673.350
264.351	15.804	888.567	673.175
265.366	15.808	887.765	672.522
266.380	15.919	887.156	672.447
267.395	15.858	886.652	671.760
268.409	15.864	885.700	671.003
269.424	15.837	885.371	670.587
270.439	15.815	884.818	670.020
271.453	15.844	883.743	669.265
272.468	15.711	883.262	668.312
273.482	15.814	882.659	668.206
274.497	15.869	882.032	667.890
275.512	15.898	880.852	667.050
276.526	15.925	880.317	666.694
277.541	15.794	879.862	665.774
278.555	15.915	879.209	665.699
279.570	15.974	878.525	665.355
280.585	15.950	878.080	664.863
281.599	16.068	876.971	664.430
282.614	16.033	876.809	664.110
283.628	16.020	876.392	663.684
284.643	15.985	875.825	663.058
285.657	16.013	875.239	662.666
286.672	16.149	874.659	662.704
287.687	16.168	873.911	662.152
288.701	16.071	873.776	661.610
289.716	16.223	872.678	661.318
290.730	16.096	871.997	660.244
291.745	16.111	871.689	660.014
292.760	16.206	870.699	659.574
293.774	16.132	870.085	658.765
294.789	16.066	869.658	658.124
295.803	16.093	869.503	658.056
296.818	16.136	868.470	657.379
297.833	16.120	868.083	656.969
298.847	16.184	867.081	656.402
299.862	16.116	866.760	655.836
300.876	16.327	865.715	655.806
301.891	16.176	864.950	654.581
302.906	16.344	864.135	654.561
303.920	16.472	863.202	654.288
304.935	16.289	862.955	653.336
305.949	16.493	862.401	653.648
306.964	16.485	861.789	653.095
307.979	16.506	861.308	652.753
308.993	16.425	860.682	651.908
310.008	16.487	860.389	651.868
311.022	16.454	859.525	651.027
312.037	16.502	859.115	650.848
313.052	16.598	858.783	650.906
314.066	16.495	858.171	649.991
315.081	16.454	857.478	649.250
316.095	16.458	856.957	648.813
317.110	16.565	856.371	648.720
318.125	16.474	855.987	648.024
319.139	16.537	855.428	647.786
320.154	16.671	854.479	647.522
321.168	16.607	853.984	646.845
322.183	16.692	853.591	646.816
323.197	16.675	853.109	646.329
324.212	16.587	852.614	645.559
325.227	16.590	852.073	645.104
326.241	16.695	851.260	644.833
327.256	16.510	851.211	644.032
328.270	16.578	850.518	643.711
329.285	16.664	849.977	643.571
330.300	16.482	849.417	642.398
331.314	16.725	848.666	642.695
332.329	16.671	847.856	641.823
333.343	16.790	847.140	641.673
334.358	16.741	846.894	641.245
335.373	16.740	846.404	640.812
336.387	16.741	845.951	640.418
337.402	16.768	845.271	639.948
338.416	16.789	844.429	639.334
339.431	16.746	844.084	638.852
340.446	16.917	843.480	638.982
341.460	16.898	842.600	638.187
342.475	16.958	842.119	637.992
343.489	16.971	841.689	637.660
344.504	16.920	841.382	637.178
345.519	16.874	840.800	636.510
346.533	17.166	839.654	636.682
347.548	17.024	839.986	636.344
348.562	16.976	839.366	635.639
349.577	17.066	838.716	635.426
350.592	16.936	838.347	634.602
351.606	17.056	837.633	634.454
352.621	17.138	837.113	634.311
353.635	17.179	836.546	633.978
354.650	17.059	836.248	633.251
355.665	16.939	835.879	632.465
356.679	17.076	835.467	632.609
357.694	17.108	834.742	632.124
358.708	17.168	833.726	631.522
359.723	17.080	833.961	631.317
360.738	17.099	833.249	630.793
361.752	16.988	832.784	629.973
362.767	17.214	832.073	630.218
363.781	17.193	831.760	629.845
364.796	17.105	831.590	629.337
365.810	17.232	831.019	629.319
366.825	17.405	830.441	629.464
367.840	17.430	830.134	629.269
368.854	17.468	829.325	628.740
369.869	17.288	829.331	628.024
370.883	17.288	828.668	627.465
371.898	17.342	827.838	626.984
372.913	17.338	827.680	626.794
373.927	17.495	826.924	626.744
374.942	17.369	825.913	625.458
375.956	17.482	825.561	625.551
376.971	17.509	824.876	625.076
377.986	17.462	824.701	624.714
379.000	17.546	823.877	624.343
380.015	17.733	823.271	624.514
381.029	17.640	822.922	623.854
382.044	17.521	822.402	622.967
383.059	17.642	821.792	622.894
384.073	17.662	821.253	622.501
385.088	17.510	820.967	621.675
386.102	17.628	820.374	621.603
387.117	17.697	819.540	621.166
388.132	17.603	819.108	620.442
389.146	17.726	818.816	620.615
390.161	17.576	818.499	619.771
391.175	17.683	818.126	619.826
392.190	17.852	817.477	619.893
393.205	17.786	817.139	619.343
394.219	17.626	816.935	618.551
395.234	17.790	816.097	618.459
396.248	17.764	815.677	617.991
397.263	17.783	815.148	617.603
398.278	17.735	814.617	616.972
399.292	17.822	813.916	616.699
400.307	17.715	814.003	616.327
401.321	17.701	813.570	615.894
402.336	17.713	812.779	615.284
403.350	17.740	812.824	615.359
404.365	17.898	812.177	615.384
405.380	17.894	811.811	615.039
406.394	18.016	810.939	614.763
407.409	18.026	810.697	614.562
408.423	17.929	810.405	613.938
409.438	17.928	809.722	613.362
410.453	17.973	809.323	613.165
411.467	17.972	809.320	613.106
412.482	18.000	808.945	612.867
413.496	18.063	807.803	612.175
414.511	18.108	807.305	611.905
415.526	18.234	807.104	612.148
416.540	18.075	806.972	611.425
417.555	18.233	806.453	611.542
418.569	18.203	806.040	611.068
419.584	18.174	805.647	610.614
420.599	18.161	804.846	609.906
421.613	106.724	1285.534	1448.989
422.628	91.944	1355.576	1449.107
