DTS Sentinel unit serial number:	SN413079Multiplexer serial number:	ORYXHardware model number:	OX4-SRSoftware version number:	ORYX F/W v4.00 Oryx Data Collector v3.7.2.0data status	okinstallation	princeton_trtdifferential loss correction	single-endedforward channel	channel 3reverse channel	N/Adate	2019/09/12time	12:02:10forward acquisition time	60.00reverse acquisition time	0.00gamma	496.2192k internal	0.2293k external	0.2293temperature offset calibration	1.0040default loss term (dB/km)	0.3790temperature slope calibration	1.0000multiplexer offset coefficient	1.0000multiplexer slope coefficient	1.0000fibre end	0.00T internal ref (°C)	40.39T ext. ref 1 (°C)	2.02T ext. ref 2 (°C)	38.36length (m)	temperature (°C)	Stokes	anti-Stokes-747.200	-200.000	-0.122	0.587
-746.185	155.293	0.102	0.143
-745.171	204.078	-0.194	-0.308
-744.156	-143.673	-0.066	-0.006
-743.142	-62.755	0.132	0.056
-742.127	-200.000	-0.057	0.378
-741.112	-200.000	-0.019	-0.097
-740.098	-73.455	-0.367	0.137
-739.083	-108.023	0.057	-0.013
-738.069	-70.270	-0.177	0.069
-737.054	-146.154	-0.298	-0.027
-736.039	-49.462	-0.268	0.131
-735.025	-108.811	-0.255	-0.056
-734.010	-45.175	-0.260	0.132
-732.996	-96.365	-0.395	-0.107
-731.981	-0.438	0.195	-0.142
-730.966	213.468	0.139	-0.225
-729.952	800.000	0.070	-0.215
-728.937	800.000	0.053	0.205
-727.923	55.727	-0.195	-0.194
-726.908	-200.000	-0.064	-0.290
-725.894	800.000	-0.081	-0.231
-724.879	59.115	0.190	-0.192
-723.864	-200.000	-0.002	0.199
-722.850	366.421	0.037	0.077
-721.835	-200.000	0.012	-0.389
-720.821	-50.924	-0.202	0.097
-719.806	-58.659	-0.167	-0.074
-718.791	161.302	-0.092	-0.132
-717.777	-118.135	0.273	-0.050
-716.762	170.787	0.136	-0.199
-715.748	-80.001	-0.588	-0.202
-714.733	71.705	0.144	0.153
-713.718	-200.000	-0.237	0.000
-712.704	-200.000	0.035	0.251
-711.689	-154.895	-0.039	0.003
-710.675	38.541	0.372	0.339
-709.660	800.000	0.065	-0.195
-708.645	536.640	-0.065	-0.157
-707.631	-65.132	0.030	-0.012
-706.616	-76.291	0.274	-0.099
-705.602	-58.789	0.330	0.146
-704.587	91.200	-0.191	-0.219
-703.572	14.787	-0.113	-0.090
-702.558	-141.895	0.208	0.021
-701.543	392.901	-0.037	-0.078
-700.529	-102.213	0.164	-0.040
-699.514	722.203	0.099	0.269
-698.499	-12.013	0.264	-0.177
-697.485	800.000	-0.071	-0.235
-696.470	175.418	0.109	0.162
-695.456	22.032	-0.128	0.106
-694.441	-0.186	0.129	-0.093
-693.426	-62.960	-0.117	-0.049
-692.412	-200.000	-0.033	-0.345
-691.397	-200.000	-0.026	-0.294
-690.383	228.633	-0.218	-0.364
-689.368	-200.000	-0.008	0.180
-688.354	-200.000	0.036	-0.358
-687.339	278.187	0.101	-0.183
-686.324	-200.000	0.007	-0.040
-685.310	-102.347	0.188	0.046
-684.295	-18.729	0.064	-0.040
-683.281	-175.322	0.160	-0.004
-682.266	-200.000	-0.028	-0.158
-681.251	-200.000	0.023	-0.283
-680.237	-149.138	-0.096	-0.008
-679.222	-18.327	-0.025	-0.016
-678.208	800.000	0.108	-0.428
-677.193	-66.425	-0.141	-0.057
-676.178	-19.139	0.257	0.163
-675.164	-106.469	0.185	0.042
-674.149	73.459	0.200	-0.214
-673.135	126.538	-0.033	0.043
-672.120	-146.630	0.397	0.035
-671.105	800.000	0.045	0.157
-670.091	-200.000	0.107	-0.560
-669.076	-62.071	0.062	0.026
-668.062	800.000	-0.074	0.293
-667.047	118.914	-0.066	-0.083
-666.032	534.588	0.104	0.251
-665.018	800.000	-0.035	-0.132
-664.003	-90.918	-0.163	-0.048
-662.989	202.978	0.097	-0.152
-661.974	-77.819	0.204	-0.072
-660.959	-140.991	-0.216	-0.023
-659.945	-139.833	-0.396	-0.043
-658.930	-74.115	-0.269	0.099
-657.916	-98.786	0.389	0.101
-656.901	-200.000	-0.018	-0.119
-655.886	-200.000	0.034	-0.167
-654.872	24.557	0.188	0.159
-653.857	-129.064	0.311	-0.044
-652.843	-157.810	-0.207	-0.013
-651.828	-63.615	0.253	0.106
-650.814	-149.481	0.379	0.031
-649.799	-80.571	-0.135	-0.046
-648.784	98.959	0.147	-0.173
-647.770	-178.934	-0.323	0.007
-646.755	-129.009	0.063	0.009
-645.741	-14.426	0.072	-0.047
-644.726	77.208	-0.178	0.193
-643.711	-76.811	0.399	-0.142
-642.697	-67.983	-0.288	-0.115
-641.682	-200.000	0.008	0.037
-640.668	-48.233	0.305	-0.150
-639.653	-200.000	0.053	0.242
-638.638	101.987	0.015	0.018
-637.624	-200.000	-0.005	-0.130
-636.609	68.568	0.074	-0.078
-635.595	520.097	0.093	-0.223
-634.580	-90.427	0.125	-0.037
-633.565	-156.181	-0.046	-0.003
-632.551	169.227	0.169	0.246
-631.536	-54.414	0.218	-0.101
-630.522	96.377	0.070	-0.081
-629.507	78.712	-0.153	0.166
-628.492	-68.113	0.235	0.093
-627.478	-117.781	-0.067	-0.012
-626.463	71.288	0.083	-0.087
-625.449	-200.000	0.027	-0.386
-624.434	119.415	-0.191	-0.241
-623.419	-200.000	-0.006	-0.180
-622.405	129.559	0.088	-0.115
-621.390	538.227	-0.024	-0.058
-620.376	45.972	-0.265	-0.249
-619.361	-200.000	0.005	-0.024
-618.346	-33.462	-0.181	-0.102
-617.332	2.865	-0.121	0.089
-616.317	3.979	0.232	-0.173
-615.303	262.869	-0.100	0.177
-614.288	322.006	0.221	0.429
-613.273	-200.000	-0.017	0.192
-612.259	-26.077	0.232	0.139
-611.244	498.385	0.133	-0.311
-610.230	-200.000	0.001	-0.110
-609.215	-200.000	0.020	-0.134
-608.201	-133.867	-0.278	-0.035
-607.186	-49.300	-0.136	0.066
-606.171	-118.215	-0.169	-0.031
-605.157	-120.595	-0.155	0.027
-604.142	732.001	0.138	0.376
-603.128	-44.613	-0.214	-0.109
-602.113	40.428	0.166	0.152
-601.098	5.286	-0.047	0.036
-600.084	-93.758	-0.043	0.012
-599.069	124.820	0.118	-0.151
-598.055	-105.850	0.104	0.024
-597.040	520.805	0.106	-0.252
-596.025	-148.545	-0.164	0.014
-595.011	221.441	-0.116	-0.189
-593.996	800.000	0.044	-0.157
-592.982	-153.751	-0.356	-0.025
-591.967	39.477	-0.341	-0.311
-590.952	-120.964	-0.287	0.049
-589.938	-200.000	-0.010	-0.183
-588.923	244.965	-0.147	0.252
-587.909	71.850	0.134	0.141
-586.894	268.523	0.050	-0.090
-585.879	194.280	-0.088	-0.136
-584.865	-84.495	-0.398	-0.128
-583.850	15.087	-0.160	0.127
-582.836	43.255	-0.240	0.223
-581.821	-24.550	0.130	-0.079
-580.806	147.651	0.245	-0.335
-579.792	-200.000	-0.005	-0.042
-578.777	-13.591	0.204	0.135
-577.763	800.000	-0.152	-0.464
-576.748	800.000	-0.028	-0.090
-575.733	800.000	0.058	-0.168
-574.719	800.000	-0.068	-0.271
-573.704	320.856	0.058	0.113
-572.690	-47.026	-0.093	0.046
-571.675	257.368	-0.181	-0.317
-570.661	-43.722	0.176	-0.090
-569.646	-8.075	0.174	-0.119
-568.631	58.565	-0.088	-0.088
-567.617	800.000	0.125	-0.363
-566.602	309.973	-0.156	0.297
-565.588	412.124	-0.044	-0.095
-564.573	-16.992	0.263	-0.169
-563.558	-73.318	0.092	-0.034
-562.544	-200.000	-0.023	0.352
-561.529	800.000	0.087	0.263
-560.515	614.597	-0.163	0.415
-559.500	396.348	-0.109	-0.231
-558.485	-138.374	0.159	0.018
-557.471	-77.291	0.271	0.096
-556.456	-64.141	0.183	-0.076
-555.442	-148.814	0.374	0.031
-554.427	-77.234	0.201	0.071
-553.412	-94.287	-0.503	-0.140
-552.398	173.355	-0.042	0.062
-551.383	-200.000	-0.032	-0.173
-550.369	260.530	0.077	0.135
-549.354	33.667	0.174	0.153
-548.339	-80.080	0.184	-0.063
-547.325	170.586	-0.201	-0.292
-546.310	747.102	0.075	-0.206
-545.296	-200.000	-0.008	-0.161
-544.281	-200.000	-0.022	-0.115
-543.266	368.583	-0.191	0.392
-542.252	-33.189	0.160	0.090
-541.237	324.493	0.103	-0.199
-540.223	-150.096	-0.222	0.018
-539.208	-35.262	-0.129	0.071
-538.193	800.000	0.008	-0.027
-537.179	-25.938	-0.526	-0.315
-536.164	143.642	0.024	-0.032
-535.150	-200.000	0.023	-0.283
-534.135	-200.000	0.012	0.303
-533.121	800.000	0.063	-0.265
-532.106	147.263	-0.155	0.212
-531.091	125.540	-0.193	0.247
-530.077	82.911	-0.220	0.242
-529.062	80.587	0.172	0.188
-528.048	800.000	0.119	0.402
-527.033	-200.000	0.002	0.099
-526.018	120.273	0.179	0.225
-525.004	241.177	-0.067	-0.113
-523.989	121.140	0.262	0.331
-522.975	516.225	-0.058	0.137
-521.960	-70.246	-0.017	0.006
-520.945	-81.416	-0.323	0.108
-519.931	-88.173	-0.324	0.098
-518.916	-10.002	-0.082	0.055
-517.902	-59.146	0.171	-0.075
-516.887	10.113	0.043	0.033
-515.872	-200.000	-0.035	-0.224
-514.858	179.366	-0.028	-0.042
-513.843	-36.880	0.140	-0.076
-512.829	800.000	-0.104	0.320
-511.814	800.000	-0.074	-0.314
-510.799	800.000	-0.077	-0.268
-509.785	-76.255	-0.091	-0.032
-508.770	-17.558	0.346	0.221
-507.756	-123.246	-0.289	-0.047
-506.741	-78.839	-0.201	-0.070
-505.726	-200.000	0.009	0.296
-504.712	-102.317	0.145	-0.035
-503.697	647.498	-0.066	0.172
-502.683	-195.031	0.185	0.001
-501.668	-162.351	0.123	-0.006
-500.653	-182.888	0.247	-0.004
-499.639	-92.151	-0.404	-0.116
-498.624	179.970	-0.052	0.078
-497.610	800.000	0.058	-0.219
-496.595	448.680	0.083	-0.186
-495.581	-179.764	-0.249	-0.005
-494.566	-5.865	-0.299	-0.207
-493.551	48.106	-0.049	-0.047
-492.537	9.876	-0.147	0.113
-491.522	-41.506	0.101	-0.052
-490.508	12.934	0.252	-0.197
-489.493	-85.486	-0.181	0.057
-488.478	-200.000	-0.073	0.343
-487.464	35.128	-0.080	0.071
-486.449	433.882	0.126	-0.277
-485.435	83.232	-0.066	-0.072
-484.420	-200.000	0.004	-0.075
-483.405	104.951	0.114	-0.137
-482.391	453.916	0.067	0.150
-481.376	-68.808	-0.247	-0.097
-480.362	-118.639	0.121	-0.022
-479.347	-200.000	0.016	-0.149
-478.332	253.632	-0.140	-0.242
-477.318	-182.957	0.084	0.002
-476.303	414.484	-0.098	-0.211
-475.289	-200.000	0.039	0.177
-474.274	-41.073	-0.152	0.080
-473.259	-129.454	-0.364	-0.051
-472.245	214.222	0.156	-0.251
-471.230	-137.817	0.363	-0.041
-470.216	-105.703	-0.033	0.008
-469.201	-37.079	0.156	-0.085
-468.186	-89.330	0.084	-0.025
-467.172	-200.000	0.050	-0.637
-466.157	-144.418	-0.626	-0.059
-465.143	735.876	-0.050	-0.135
-464.128	-200.000	0.002	-0.057
-463.113	-51.932	-0.284	-0.134
-462.099	75.908	-0.240	0.257
-461.084	-32.781	-0.460	-0.259
-460.070	-79.140	0.141	-0.049
-459.055	-200.000	-0.051	-0.330
-458.040	-93.704	-0.316	-0.088
-457.026	92.231	0.172	0.196
-456.011	-64.793	-0.136	-0.056
-454.997	46.264	0.050	-0.047
-453.982	673.513	-0.069	-0.181
-452.968	-122.230	-0.321	-0.053
-451.953	-31.490	0.238	-0.136
-450.938	800.000	0.036	-0.110
-449.924	-53.546	-0.135	0.062
-448.909	-200.000	-0.016	-0.077
-447.895	-24.032	0.249	0.151
-446.880	-126.315	-0.259	-0.039
-445.865	-43.164	-0.202	-0.103
-444.851	-110.841	0.318	0.066
-443.836	-200.000	0.060	-0.377
-442.822	-200.000	0.043	-0.214
-441.807	800.000	0.086	0.326
-440.792	391.304	-0.061	0.128
-439.778	-114.772	0.353	0.068
-438.763	14.724	-0.288	-0.228
-437.749	-80.998	-0.121	-0.041
-436.734	241.617	0.062	0.105
-435.719	165.231	0.125	-0.178
-434.705	182.462	0.140	-0.209
-433.690	-200.000	0.031	0.300
-432.676	-200.000	-0.021	0.160
-431.661	79.866	-0.116	0.126
-430.646	95.891	0.195	0.225
-429.632	-47.982	-0.137	-0.067
-428.617	-80.326	-0.046	-0.016
-427.603	-21.872	0.282	0.174
-426.588	-200.000	-0.011	-0.066
-425.573	67.294	0.142	-0.147
-424.559	-51.038	0.116	0.055
-423.544	-48.944	-0.135	0.065
-422.530	-124.127	0.192	0.030
-421.515	-13.767	0.217	-0.142
-420.500	-13.949	-0.306	0.200
-419.486	-79.693	-0.184	-0.063
-418.471	-124.491	-0.262	-0.041
-417.457	-103.125	-0.132	-0.032
-416.442	-200.000	-0.098	-0.474
-415.428	56.254	0.120	0.117
-414.413	-7.375	-0.168	0.115
-413.398	19.029	-0.147	-0.119
-412.384	135.372	-0.118	0.155
-411.369	800.000	-0.024	-0.084
-410.355	800.000	-0.046	0.174
-409.340	-200.000	0.092	-0.461
-408.325	53.227	0.141	-0.137
-407.311	34.073	-0.197	-0.174
-406.296	343.067	0.235	0.464
-405.282	32.293	-0.238	-0.207
-404.267	800.000	0.047	0.182
-403.252	-200.000	-0.024	0.346
-402.238	777.569	0.065	0.178
-401.223	800.000	0.070	-0.288
-400.209	496.762	-0.057	-0.132
-399.194	-101.261	-0.082	0.020
-398.179	-90.837	0.098	-0.029
-397.165	-49.645	0.140	-0.067
-396.150	-10.822	0.239	0.160
-395.136	128.424	0.226	-0.290
-394.121	60.435	-0.074	-0.074
-393.106	-142.864	0.378	0.037
-392.092	-200.000	-0.052	-0.228
-391.077	-125.645	0.225	-0.034
-390.063	-200.000	0.062	-0.292
-389.048	-200.000	0.010	0.367
-388.033	248.977	0.114	0.196
-387.019	-200.000	0.005	0.309
-386.004	-200.000	-0.010	-0.195
-384.990	-200.000	0.069	0.315
-383.975	800.000	0.032	0.128
-382.960	-122.873	-0.114	-0.019
-381.946	-94.394	-0.206	-0.057
-380.931	-200.000	-0.019	0.084
-379.917	164.748	-0.197	0.281
-378.902	177.295	0.014	0.021
-377.888	-200.000	-0.048	0.234
-376.873	206.386	-0.093	-0.146
-375.858	414.498	0.087	0.187
-374.844	630.309	-0.087	0.221
-373.829	-56.290	0.264	0.119
-372.815	-2.778	-0.088	0.062
-371.800	188.844	-0.212	-0.320
-370.785	695.386	0.071	-0.188
-369.771	159.075	0.097	0.135
-368.756	-146.186	0.171	-0.015
-367.742	-106.022	0.112	-0.025
-366.727	-88.580	0.272	-0.082
-365.712	-121.347	-0.141	0.024
-364.698	-147.720	-0.287	0.024
-363.683	143.227	0.161	0.216
-362.669	253.788	0.098	-0.170
-361.654	-200.000	0.044	-0.223
-360.639	-68.333	-0.355	-0.139
-359.625	-93.477	0.159	0.044
-358.610	-74.090	-0.014	0.005
-357.596	-200.000	0.014	0.131
-356.581	-44.331	0.387	0.195
-355.566	-59.575	-0.275	-0.119
-354.552	800.000	0.070	0.265
-353.537	703.537	-0.088	0.233
-352.523	-83.277	-0.487	0.157
-351.508	53.870	0.082	0.079
-350.493	-13.825	0.194	0.126
-349.479	65.139	-0.232	-0.236
-348.464	-88.058	0.158	0.048
-347.450	-200.000	0.007	0.100
-346.435	-200.000	-0.027	0.178
-345.420	-132.777	0.225	0.029
-344.406	220.544	0.125	-0.203
-343.391	-101.172	0.103	0.025
-342.377	-200.000	-0.040	0.326
-341.362	-66.560	0.194	-0.078
-340.348	44.131	0.075	-0.069
-339.333	125.096	0.136	-0.173
-338.318	432.365	-0.050	-0.109
-337.304	-99.909	0.099	-0.025
-336.289	258.169	-0.012	-0.021
-335.275	800.000	-0.072	0.248
-334.260	28.790	0.301	0.256
-333.245	-81.898	0.206	0.068
-332.231	-48.066	0.117	-0.057
-331.216	-15.132	-0.094	0.061
-330.202	-200.000	-0.010	0.137
-329.187	-45.947	-0.127	0.063
-328.172	-95.650	0.186	-0.050
-327.158	-63.329	-0.314	0.130
-326.143	-200.000	-0.047	0.396
-325.129	-9.721	-0.268	-0.180
-324.114	91.310	-0.114	0.129
-323.099	242.090	0.043	0.073
-322.085	-18.971	-0.299	-0.187
-321.070	800.000	-0.011	0.042
-320.056	255.162	0.048	0.082
-319.041	800.000	0.025	0.079
-318.026	-92.955	-0.165	-0.046
-317.012	322.359	0.039	-0.074
-315.997	800.000	-0.047	0.174
-314.983	320.668	0.227	0.434
-313.968	-200.000	0.008	0.185
-312.953	-76.473	-0.139	-0.049
-311.939	-62.310	0.246	-0.103
-310.924	145.998	0.082	0.111
-309.910	-40.571	-0.163	-0.085
-308.895	380.889	0.146	-0.302
-307.880	-200.000	-0.041	0.247
-306.866	-200.000	-0.007	-0.097
-305.851	57.152	-0.334	0.328
-304.837	-200.000	-0.055	0.421
-303.822	96.159	-0.253	0.291
-302.807	-40.904	0.186	-0.097
-301.793	633.482	-0.044	0.112
-300.778	310.330	-0.029	0.055
-299.764	-73.389	-0.170	-0.063
-298.749	141.601	0.049	0.066
-297.735	800.000	0.060	-0.236
-296.720	2.946	0.064	-0.047
-295.705	118.325	0.027	0.034
-294.691	-115.505	0.222	-0.042
-293.676	-200.000	0.019	-0.191
-292.662	800.000	0.139	0.399
-291.647	457.807	0.048	-0.107
-290.632	-200.000	0.013	-0.232
-289.618	-163.850	-0.121	-0.006
-288.603	143.276	0.164	0.219
-287.589	127.918	0.087	-0.111
-286.574	-153.986	-0.197	-0.013
-285.559	0.521	0.165	0.118
-284.545	-106.950	-0.150	0.033
-283.530	76.344	0.094	0.100
-282.516	8.210	0.370	-0.279
-281.501	-91.863	0.352	-0.100
-280.486	-200.000	0.030	0.242
-279.472	-200.000	0.032	0.229
-278.457	800.000	-0.060	0.212
-277.443	-200.000	0.073	0.343
-276.428	-200.000	-0.014	0.096
-275.413	-200.000	-0.021	0.156
-274.399	-200.000	0.019	0.190
-273.384	129.341	0.247	0.317
-272.370	0.501	0.085	0.061
-271.355	53.807	0.187	-0.181
-270.340	55.438	-0.241	-0.235
-269.326	200.331	-0.099	0.153
-268.311	261.417	0.026	-0.045
-267.297	114.507	0.141	0.173
-266.282	-200.000	-0.045	-0.303
-265.267	276.821	0.094	0.167
-264.253	526.680	0.101	-0.239
-263.238	-70.519	0.194	-0.074
-262.224	-80.550	0.194	0.065
-261.209	102.352	-0.109	-0.128
-260.195	95.629	-0.055	0.063
-259.180	27.409	0.047	0.039
-258.165	337.293	0.065	0.127
-257.151	-144.841	-0.127	0.012
-256.136	58.587	0.098	0.097
-255.122	-68.993	0.363	0.141
-254.107	126.148	-0.140	0.178
-253.092	-51.150	0.176	-0.083
-252.078	-200.000	-0.002	-0.014
-251.063	201.597	0.181	0.280
-250.049	124.209	0.175	-0.221
-249.034	218.891	-0.160	-0.257
-248.019	-132.179	-0.265	0.034
-247.005	-96.513	-0.140	0.037
-245.990	-10.591	-0.105	-0.070
-244.976	152.071	0.068	0.094
-243.961	-63.523	0.035	-0.014
-242.946	-200.000	0.010	0.155
-241.932	-200.000	0.073	0.562
-240.917	161.021	-0.077	0.108
-239.903	430.428	-0.183	-0.397
-238.888	-103.105	-0.290	0.069
-237.873	-173.186	0.378	0.012
-236.859	-177.805	-0.440	0.011
-235.844	-47.118	0.410	0.201
-234.830	-129.845	-0.075	-0.010
-233.815	167.462	-0.112	-0.159
-232.800	31.498	0.176	-0.151
-231.786	31.918	0.173	-0.150
-230.771	-103.425	0.223	-0.053
-229.757	32.176	-0.038	0.033
-228.742	170.705	-0.150	0.215
-227.727	-14.848	-0.286	-0.184
-226.713	-18.615	-0.059	0.037
-225.698	-78.479	-0.217	-0.075
-224.684	95.002	0.193	-0.220
-223.669	108.925	-0.237	0.284
-222.655	-64.947	-0.148	0.060
-221.640	800.000	-0.072	0.209
-220.625	102.295	0.138	-0.162
-219.611	-200.000	0.013	-0.225
-218.596	-200.000	-0.022	0.343
-217.582	-38.139	0.163	0.087
-216.567	286.038	0.129	-0.232
-215.552	-106.878	-0.298	-0.066
-214.538	106.034	-0.048	-0.057
-213.523	-4.922	0.108	0.075
-212.509	412.057	-0.116	0.246
-211.494	-77.570	0.254	-0.088
-210.479	-200.000	0.009	-0.248
-209.465	-1.127	0.215	-0.152
-208.450	-200.000	-0.008	-0.329
-207.436	687.704	-0.026	-0.069
-206.421	-150.351	0.239	-0.018
-205.406	-200.000	-0.066	-0.323
-204.392	-200.000	0.033	-0.207
-203.377	-144.664	-0.209	-0.019
-202.363	-200.000	0.057	0.510
-201.348	213.342	0.101	-0.159
-200.333	-110.108	-0.232	0.049
-199.319	-144.566	0.302	0.028
-198.304	571.183	-0.065	0.158
-197.290	800.000	0.158	0.591
-196.275	-82.015	0.159	-0.052
-195.260	-200.000	0.000	0.074
-194.246	-53.916	-0.223	-0.102
-193.231	-118.865	-0.341	-0.060
-192.217	800.000	0.044	-0.165
-191.202	-85.698	0.454	-0.141
-190.187	-141.163	-0.135	-0.014
-189.173	6.003	0.113	0.084
-188.158	-76.079	-0.106	0.038
-187.144	-200.000	0.030	0.142
-186.129	697.414	-0.041	-0.108
-185.114	-197.708	0.092	-0.001
-184.100	-130.520	0.240	0.032
-183.085	190.087	0.032	-0.048
-182.071	-200.000	0.006	-0.174
-181.056	258.990	0.143	-0.247
-180.042	189.607	-0.061	0.092
-179.027	121.260	0.266	-0.332
-178.012	15.784	-0.108	0.085
-176.998	-68.678	0.404	0.156
-175.983	-200.000	-0.005	0.199
-174.969	-109.830	-0.199	-0.042
-173.954	395.915	-0.129	0.270
-172.939	-200.000	-0.011	0.065
-171.925	-200.000	-0.011	-0.198
-170.910	154.008	0.202	-0.277
-169.896	-55.600	0.144	-0.065
-168.881	745.460	0.038	0.102
-167.866	7.532	-0.207	0.155
-166.852	10.517	0.062	0.047
-165.837	-200.000	-0.009	0.057
-164.823	-200.000	-0.044	-0.274
-163.808	-200.000	0.019	0.279
-162.793	537.605	0.079	-0.187
-161.779	110.297	-0.069	-0.082
-160.764	-170.430	-0.160	-0.006
-159.750	-200.000	0.026	-0.188
-158.735	-66.465	-0.026	-0.010
-157.720	-62.535	0.092	0.038
-156.706	-200.000	-0.040	0.372
-155.691	800.000	0.044	0.185
-154.677	-8.224	-0.191	0.129
-153.662	538.617	-0.104	-0.247
-152.647	674.305	0.053	0.137
-151.633	800.000	0.055	0.180
-150.618	-119.027	0.234	-0.041
-149.604	-73.154	0.275	-0.101
-148.589	-131.294	0.380	-0.050
-147.574	-40.653	-0.130	0.068
-146.560	-109.640	0.113	0.024
-145.545	15.015	0.150	-0.117
-144.531	158.668	0.083	-0.115
-143.516	154.950	-0.213	-0.292
-142.502	-200.000	0.008	-0.443
-141.487	-200.000	-0.006	-0.113
-140.472	800.000	0.086	0.359
-139.458	522.209	0.159	0.373
-138.443	-28.089	-0.012	-0.007
-137.429	92.540	-0.123	0.139
-136.414	43.715	0.320	0.293
-135.399	-108.643	0.101	-0.022
-134.385	-59.282	0.098	0.042
-133.370	456.316	-0.064	-0.142
-132.356	-200.000	-0.066	-0.424
-131.341	104.811	-0.096	0.113
-130.326	168.420	0.174	-0.247
-129.312	800.000	0.121	-0.460
-128.297	75.073	0.194	-0.205
-127.283	800.000	-0.049	-0.163
-126.268	-35.242	-0.164	-0.089
-125.253	176.996	-0.097	0.141
-124.239	220.760	0.121	-0.194
-123.224	-21.609	0.288	-0.175
-122.210	800.000	-0.078	0.297
-121.195	800.000	0.076	0.278
-120.180	153.600	-0.220	-0.301
-119.166	800.000	0.086	-0.363
-118.151	-73.995	0.348	-0.126
-117.137	-31.706	0.095	0.053
-116.122	-92.435	0.247	0.069
-115.107	-32.695	0.203	0.113
-114.093	333.227	-0.067	-0.129
-113.078	-200.000	-0.005	-0.103
-112.064	-200.000	-0.020	-0.181
-111.049	-124.024	-0.224	-0.035
-110.034	82.387	-0.275	0.298
-109.020	253.351	-0.090	0.153
-108.005	333.299	0.226	0.436
-106.991	-180.442	0.212	0.004
-105.976	3.613	0.182	-0.133
-104.962	-70.808	0.066	0.025
-103.947	249.659	-0.049	-0.082
-102.932	-200.000	-0.011	0.236
-101.918	123.081	0.237	-0.296
-100.903	-62.942	-0.166	-0.068
-99.889	-92.757	0.138	-0.039
-98.874	-116.063	-0.241	-0.045
-97.859	-200.000	0.011	-0.058
-96.845	-156.263	0.191	0.012
-95.830	-154.070	0.217	0.015
-94.816	-59.560	-0.411	0.176
-93.801	-112.941	0.206	-0.041
-92.786	-78.631	-0.116	0.040
-91.772	234.864	0.065	-0.107
-90.757	508.469	0.129	0.298
-89.743	353.476	-0.099	-0.196
-88.728	240.549	-0.146	0.242
-87.713	22.166	-0.028	0.023
-86.699	-200.000	-0.014	0.129
-85.684	9.325	0.075	0.056
-84.670	-200.000	0.018	0.230
-83.655	-200.000	0.035	0.183
-82.640	800.000	-0.020	-0.079
-81.626	120.863	-0.151	0.188
-80.611	-200.000	0.019	-0.139
-79.597	-150.527	0.280	0.021
-78.582	800.000	-0.038	0.106
-77.567	128.189	0.054	-0.069
-76.553	236.824	0.049	0.081
-75.538	584.289	0.122	-0.298
-74.524	-15.868	0.174	-0.111
-73.509	-17.835	0.039	0.025
-72.494	-200.000	-0.007	-0.077
-71.480	99.883	0.120	0.139
-70.465	-79.308	0.339	0.114
-69.451	169.723	0.063	0.090
-68.436	242.245	-0.077	-0.128
-67.422	-106.795	0.115	-0.025
-66.407	251.497	0.113	0.192
-65.392	-7.180	0.217	0.147
-64.378	-200.000	0.017	0.124
-63.363	-61.687	0.049	-0.020
-62.349	800.000	0.009	0.035
-61.334	-3.486	-0.675	-0.468
-60.319	31.962	0.400	0.343
-59.305	800.000	0.104	-0.348
-58.290	109.737	0.479	0.572
-57.276	800.000	0.530	1.756
-56.261	-200.000	76.572	506.837
-55.246	507.944	1340.267	3098.779
-54.232	144.331	2576.652	3425.596
-53.217	115.310	2254.405	2742.392
-52.203	50.834	1776.151	1675.547
-51.188	43.732	1574.505	1435.144
-50.173	41.059	1543.954	1388.617
-49.159	56.942	1580.960	1534.099
-48.144	62.629	1601.123	1593.667
-47.130	44.307	1564.534	1429.881
-46.115	40.721	1550.091	1391.547
-45.100	40.501	1546.807	1387.003
-44.086	40.464	1544.793	1384.890
-43.071	40.409	1542.406	1382.309
-42.057	40.390	1540.615	1380.515
-41.042	40.337	1539.470	1379.066
-40.027	40.242	1538.202	1377.216
-39.013	40.378	1536.130	1376.249
-37.998	40.297	1535.210	1374.808
-36.984	40.416	1533.480	1374.033
-35.969	40.391	1532.593	1373.005
-34.954	40.435	1531.151	1371.965
-33.940	40.360	1529.777	1370.160
-32.925	40.541	1528.017	1369.782
-31.911	40.470	1526.778	1368.127
-30.896	40.501	1525.649	1367.276
-29.881	40.461	1524.451	1365.870
-28.867	40.501	1522.891	1364.696
-27.852	40.414	1521.244	1362.569
-26.838	40.486	1519.768	1361.683
-25.823	40.385	1518.817	1360.086
-24.809	40.475	1516.177	1358.281
-23.794	40.421	1515.335	1357.106
-22.779	40.535	1513.369	1356.074
-21.765	40.505	1512.709	1355.221
-20.750	40.409	1511.826	1353.717
-19.736	40.384	1510.691	1352.476
-18.721	40.422	1509.604	1351.712
-17.706	40.407	1508.328	1350.412
-16.692	40.254	1507.549	1348.617
-15.677	40.371	1505.908	1347.891
-14.663	40.364	1505.064	1347.036
-13.648	40.306	1504.253	1345.866
-12.633	40.364	1503.201	1345.261
-11.619	40.335	1502.597	1344.474
-10.604	40.391	1501.507	1343.826
-9.590	40.310	1500.723	1342.519
-8.575	40.326	1500.056	1341.977
-7.560	40.321	1498.734	1340.709
-6.546	40.315	1498.108	1340.051
-5.531	40.281	1497.029	1338.806
-4.517	40.211	1496.151	1337.492
-3.502	40.244	1495.037	1336.671
-2.487	40.410	1493.460	1336.325
-1.473	40.407	1492.204	1335.131
-0.458	40.336	1491.451	1333.925
0.556	40.609	1483.056	1324.951
1.571	38.279	1455.409	1284.846
2.586	34.710	1393.184	1207.292
3.600	32.558	1309.382	1121.773
4.615	30.451	1259.793	1067.103
5.629	25.031	1199.785	986.441
6.644	12.958	1105.960	847.562
7.659	3.685	1059.321	765.930
8.673	2.372	1053.161	754.931
9.688	2.110	1050.130	751.407
10.702	1.883	1048.735	749.223
11.717	1.717	1047.039	747.134
12.731	5.249	1051.240	767.443
13.746	16.328	1066.750	833.668
14.761	24.453	1077.449	882.297
15.775	25.509	1077.558	887.526
16.790	25.474	1077.082	886.880
17.804	25.397	1076.281	885.762
18.819	25.234	1075.552	884.283
19.834	25.250	1074.648	883.536
20.848	25.336	1074.473	883.740
21.863	25.509	1074.461	884.504
22.877	25.518	1073.680	883.827
23.892	25.298	1073.158	882.235
24.907	25.328	1072.242	881.555
25.921	25.351	1071.346	880.853
26.936	25.303	1070.623	879.945
27.950	25.275	1069.546	878.843
28.965	25.256	1068.037	877.434
29.980	25.194	1066.996	876.197
30.994	25.139	1066.062	875.087
32.009	25.296	1064.945	874.854
33.023	25.493	1064.419	875.307
34.038	25.172	1063.401	872.829
35.053	25.223	1062.285	872.086
36.067	25.231	1061.975	871.791
37.082	25.403	1060.940	871.698
38.096	25.341	1060.208	870.718
39.111	25.389	1059.835	870.568
40.126	25.489	1059.220	870.470
41.140	25.549	1057.789	869.508
42.155	25.296	1056.160	866.870
43.169	25.012	1054.650	864.183
44.184	24.871	1054.156	863.023
45.199	24.954	1053.210	862.570
46.213	24.814	1052.298	861.077
47.228	24.838	1051.460	860.429
48.242	25.113	1050.849	861.172
49.257	25.119	1050.389	860.752
50.271	25.123	1049.509	859.974
51.286	25.164	1049.034	859.705
52.301	25.326	1048.051	859.598
53.315	25.342	1047.393	859.059
54.330	25.317	1046.741	858.330
55.344	25.324	1045.556	857.313
56.359	25.250	1045.183	856.581
57.374	25.341	1044.166	856.103
58.388	25.204	1043.167	854.558
59.403	25.111	1042.362	853.379
60.417	25.093	1041.841	852.792
61.432	24.965	1040.595	851.086
62.447	24.941	1040.293	850.648
63.461	25.019	1039.765	850.515
64.476	25.180	1038.695	850.328
65.490	25.084	1038.159	849.358
66.505	24.945	1037.276	847.902
67.520	25.026	1036.433	847.523
68.534	25.116	1035.335	846.972
69.549	24.983	1034.770	845.808
70.563	24.732	1033.136	843.213
71.578	24.566	1032.795	842.079
72.593	24.556	1032.352	841.596
73.607	24.420	1031.176	839.922
74.622	24.349	1030.012	838.568
75.636	24.645	1029.514	839.477
76.651	24.921	1028.641	839.985
77.666	24.762	1027.456	838.199
78.680	24.621	1027.008	837.100
79.695	24.503	1026.503	836.064
80.709	24.786	1025.849	836.777
81.724	24.806	1025.103	836.191
82.739	24.886	1023.846	835.465
83.753	24.707	1023.964	834.650
84.768	25.256	1022.399	835.861
85.782	25.473	1022.543	836.913
86.797	25.581	1022.004	836.902
87.812	25.682	1020.778	836.292
88.826	25.440	1019.921	834.394
89.841	25.547	1018.855	833.942
90.855	25.517	1018.325	833.296
91.870	25.525	1017.975	832.972
92.884	25.638	1016.602	832.298
93.899	25.421	1015.868	830.622
94.914	25.344	1014.786	829.306
95.928	25.335	1014.283	828.780
96.943	25.504	1013.417	828.781
97.957	25.226	1012.080	826.335
98.972	24.944	1011.153	824.203
99.987	24.844	1009.788	822.562
101.001	24.856	1009.115	821.993
102.016	25.172	1008.688	823.024
103.030	25.224	1008.155	822.754
104.045	25.125	1007.292	821.523
105.060	25.017	1005.802	819.742
106.074	24.959	1004.852	818.629
107.089	24.931	1004.296	817.976
108.103	25.210	1004.127	819.041
109.118	25.307	1002.746	818.284
110.133	25.036	1001.926	816.308
111.147	25.089	1000.895	815.639
112.162	24.935	999.635	813.839
113.176	24.657	998.745	811.780
114.191	24.700	998.254	811.502
115.206	25.054	997.188	812.172
116.220	24.642	996.396	809.586
117.235	24.374	995.382	807.480
118.249	24.577	994.701	807.772
119.264	24.691	993.875	807.547
120.279	24.503	992.934	805.862
121.293	24.568	992.329	805.594
122.308	24.698	991.370	805.329
123.322	24.653	990.655	804.474
124.337	24.692	989.825	803.904
125.352	24.605	988.369	802.258
126.366	24.150	986.966	799.007
127.381	23.916	985.498	796.700
128.395	24.277	985.433	798.195
129.410	25.014	985.189	801.225
130.424	25.203	984.263	801.244
131.439	25.222	983.561	800.685
132.454	25.092	982.928	799.520
133.468	25.205	981.806	799.043
134.483	25.152	980.841	797.948
135.497	25.096	980.231	797.133
136.512	25.377	980.382	798.437
137.527	25.379	979.513	797.666
138.541	25.259	979.108	796.732
139.556	25.441	977.803	796.408
140.570	25.440	977.028	795.702
141.585	25.504	975.773	794.891
142.600	25.511	975.912	794.964
143.614	25.406	974.618	793.377
144.629	25.338	974.372	792.805
145.643	25.810	973.370	794.001
146.658	25.655	972.393	792.453
147.673	25.444	971.056	790.366
148.687	25.374	969.726	788.903
149.702	25.355	968.777	787.980
150.716	25.199	967.433	786.134
151.731	25.134	966.749	785.221
152.746	25.129	966.230	784.710
153.760	25.432	965.783	785.603
154.775	25.469	964.929	785.001
155.789	25.607	963.720	784.548
156.804	25.620	962.927	783.891
157.819	25.556	962.043	782.822
158.833	25.440	961.290	781.639
159.848	25.620	960.542	781.744
160.862	25.711	960.097	781.708
161.877	25.638	958.844	780.299
162.892	25.497	957.584	778.594
163.906	25.649	956.924	778.649
164.921	25.448	956.360	777.252
165.935	25.507	955.049	776.371
166.950	25.614	953.992	775.906
167.964	25.521	953.179	774.776
168.979	25.549	951.954	773.829
169.994	25.595	950.925	773.123
171.008	25.303	950.252	771.252
172.023	25.502	949.377	771.328
173.037	25.677	948.593	771.372
174.052	25.484	947.631	769.697
175.067	25.215	946.691	767.712
176.081	25.189	945.724	766.752
177.096	25.343	945.282	766.983
178.110	25.370	944.431	766.341
179.125	25.117	943.035	764.062
180.140	24.892	942.248	762.396
181.154	24.870	941.604	761.718
182.169	25.056	941.112	762.042
183.183	25.230	940.618	762.311
184.198	25.677	940.187	763.795
185.213	25.573	939.455	762.689
186.227	25.391	939.208	761.650
187.242	25.502	938.608	761.566
188.256	25.531	937.980	761.113
189.271	25.631	936.880	760.575
190.286	25.660	936.362	760.211
191.300	25.512	935.405	758.742
192.315	24.988	933.829	755.187
193.329	24.145	932.367	750.389
194.344	23.780	931.254	747.889
195.359	24.357	931.327	750.311
196.373	25.235	931.714	754.249
197.388	25.521	931.819	755.468
198.402	25.316	931.351	754.160
199.417	25.315	930.658	753.528
200.432	25.472	930.096	753.666
201.446	25.176	929.724	752.056
202.461	24.969	928.726	750.316
203.475	24.988	928.306	749.992
204.490	24.756	926.278	747.318
205.504	23.661	924.418	741.182
206.519	23.916	924.394	742.161
207.534	24.906	924.824	746.573
208.548	25.062	923.645	746.203
209.563	25.513	923.710	748.068
210.577	25.527	922.589	747.151
211.592	25.083	922.206	744.928
212.607	25.451	922.371	746.528
213.621	25.687	921.810	746.984
214.636	25.538	921.018	745.660
215.650	25.611	920.542	745.511
216.665	25.457	920.107	744.456
217.680	25.519	919.756	744.360
218.694	25.638	919.063	744.229
219.709	25.400	917.888	742.229
220.723	24.970	916.761	739.475
221.738	25.183	916.589	740.149
222.753	25.476	915.907	740.743
223.767	25.287	915.582	739.632
224.782	25.414	914.769	739.435
225.796	25.506	914.153	739.249
226.811	25.607	913.643	739.187
227.826	25.276	912.496	736.833
228.840	24.554	910.415	732.129
229.855	24.329	910.336	731.080
230.869	24.743	909.870	732.339
231.884	24.460	908.802	730.255
232.899	24.281	908.170	728.951
233.913	25.172	908.683	732.940
234.928	25.519	907.899	733.662
235.942	25.256	907.599	732.281
236.957	25.239	906.774	731.480
237.972	24.927	906.034	729.546
238.986	24.827	905.295	728.483
240.001	25.014	904.339	728.407
241.015	25.109	903.671	728.193
242.030	25.228	903.436	728.420
243.045	25.462	902.655	728.677
244.059	25.477	902.171	728.280
245.074	25.536	901.996	728.315
246.088	25.476	901.312	727.455
247.103	25.114	900.265	725.080
248.117	25.050	899.933	724.492
249.132	25.702	900.033	727.141
250.147	26.067	899.771	728.340
251.161	26.239	898.866	728.237
252.176	26.305	898.663	728.272
253.190	26.340	897.833	727.677
254.205	26.281	897.624	727.205
255.220	26.482	897.125	727.545
256.234	26.410	896.045	726.319
257.249	26.363	895.528	725.643
258.263	26.233	895.356	724.918
259.278	26.258	894.257	724.066
260.293	26.349	893.663	723.884
261.307	26.449	893.131	723.790
262.322	26.373	892.660	723.041
263.336	26.247	892.038	721.968
264.351	25.788	890.631	718.935
265.366	24.776	888.589	713.192
266.380	24.105	887.671	709.716
267.395	25.103	888.193	714.050
268.409	25.953	888.048	717.252
269.424	25.831	887.640	716.374
270.439	25.909	887.377	716.409
271.453	26.089	886.740	716.547
272.468	26.062	886.149	715.897
273.482	26.136	885.741	715.799
274.497	26.373	885.234	716.266
275.512	26.063	884.269	714.193
276.526	25.658	882.637	711.214
277.541	25.860	882.288	711.665
278.555	26.147	882.389	712.817
279.570	26.127	881.337	711.825
280.585	25.874	881.052	710.536
281.599	25.826	880.774	710.057
282.614	26.142	879.674	710.353
283.628	25.671	878.767	707.706
284.643	25.186	878.045	705.157
285.657	25.665	877.883	706.844
286.672	25.565	877.250	705.881
287.687	25.035	876.287	702.963
288.701	25.335	876.412	704.177
289.716	25.786	875.976	705.533
290.730	25.462	874.821	703.272
291.745	25.291	874.340	702.154
292.760	25.215	873.241	700.915
293.774	25.119	872.519	699.899
294.789	26.013	873.304	703.957
295.803	26.606	873.378	706.269
296.818	26.727	872.635	706.074
297.833	26.861	872.289	706.256
298.847	26.537	871.315	704.144
299.862	26.135	870.572	701.916
300.876	26.192	869.871	701.512
301.891	26.602	869.753	702.947
302.906	26.595	869.431	702.598
303.920	26.301	868.023	700.260
304.935	26.191	867.248	699.144
305.949	26.621	867.112	700.639
306.964	26.622	866.751	700.287
307.979	26.383	866.045	698.734
308.993	26.373	865.454	698.155
310.008	26.629	865.241	698.910
311.022	26.744	865.296	699.337
312.037	26.613	864.238	697.913
313.052	26.373	863.473	696.312
314.066	26.363	862.270	695.239
315.081	25.588	861.149	691.298
316.095	24.881	860.044	687.636
317.110	25.253	860.233	689.152
318.125	26.133	860.395	692.599
319.139	25.784	859.388	690.390
320.154	24.830	857.207	684.926
321.168	24.232	856.319	681.869
322.183	24.785	856.538	684.099
323.197	25.839	857.099	688.516
324.212	26.174	856.690	689.409
325.227	26.200	856.643	689.409
326.241	26.439	856.144	689.855
327.256	26.321	855.244	688.623
328.270	26.230	854.609	687.703
329.285	26.127	853.982	686.748
330.300	25.934	853.518	685.578
331.314	25.829	852.676	684.441
332.329	25.857	851.783	683.769
333.343	26.211	851.622	684.924
334.358	26.426	851.724	685.763
335.373	26.439	850.927	685.107
336.387	26.615	850.238	685.157
337.402	26.847	849.715	685.555
338.416	26.974	849.417	685.732
339.431	26.924	849.074	685.206
340.446	27.016	848.308	684.874
341.460	27.208	847.790	685.119
342.475	27.166	847.482	684.653
343.489	26.988	847.133	683.637
344.504	26.846	846.206	682.295
345.519	27.098	846.261	683.229
346.533	27.319	845.993	683.782
347.548	27.468	845.489	683.874
348.562	27.268	844.912	682.594
349.577	27.226	844.325	681.902
350.592	27.315	843.332	681.374
351.606	27.306	842.757	680.816
352.621	27.146	842.709	680.118
353.635	27.257	841.756	679.704
354.650	27.145	841.282	678.840
355.665	26.711	840.855	676.817
356.679	25.601	839.364	671.416
357.694	25.632	838.245	670.577
358.708	26.338	838.350	673.233
359.723	26.201	837.623	672.080
360.738	26.393	837.598	672.715
361.752	26.948	837.475	674.621
362.767	26.898	837.052	674.032
363.781	27.295	837.141	675.521
364.796	27.488	836.838	675.933
365.810	27.589	836.433	675.921
366.825	27.833	835.932	676.361
367.840	27.713	836.017	675.922
368.854	27.494	835.124	674.332
369.869	27.122	834.085	672.055
370.883	26.841	833.482	670.471
371.898	26.974	832.861	670.404
372.913	26.946	832.130	669.654
373.927	26.837	831.603	668.770
374.942	27.143	830.894	669.267
375.956	27.133	830.544	668.889
376.971	27.366	829.918	669.182
377.986	27.421	829.537	669.018
379.000	27.658	829.084	669.465
380.015	27.707	828.788	669.343
381.029	27.546	827.943	668.013
382.044	27.432	827.401	667.097
383.059	27.518	827.225	667.214
384.073	27.663	826.261	666.907
385.088	27.642	826.005	666.564
386.102	27.679	825.403	666.155
387.117	27.458	824.919	664.899
388.132	27.236	824.231	663.475
389.146	27.088	823.131	661.991
390.161	26.514	822.461	659.302
391.175	26.456	822.455	659.029
392.190	27.248	822.027	661.512
393.205	27.372	821.291	661.310
394.219	26.372	819.699	656.340
395.234	24.794	817.613	648.894
396.248	23.818	816.773	644.630
397.263	24.755	817.569	648.602
398.278	26.701	818.785	656.569
399.292	27.089	818.836	657.957
400.307	26.793	817.967	656.131
401.321	26.700	817.717	655.535
402.336	26.835	817.119	655.486
403.350	27.224	817.038	656.769
404.365	27.688	817.100	658.437
405.380	27.995	816.647	659.119
406.394	28.223	816.601	659.846
407.409	28.478	816.574	660.686
408.423	28.267	815.879	659.304
409.438	28.333	815.059	658.821
410.453	28.188	814.657	657.917
411.467	28.364	814.232	658.148
412.482	28.241	813.474	657.037
413.496	28.278	813.058	656.774
414.511	28.379	812.857	656.915
415.526	28.455	812.509	656.849
416.540	28.453	812.101	656.453
417.555	28.255	811.660	655.331
418.569	28.026	810.818	653.771
419.584	27.809	810.782	652.910
420.599	27.965	809.980	652.765
421.613	95.373	1264.608	1377.555
422.628	81.945	1330.885	1377.662
