DTS Sentinel unit serial number:	SN413079Multiplexer serial number:	ORYXHardware model number:	OX4-SRSoftware version number:	ORYX F/W v4.00 Oryx Data Collector v3.7.2.0data status	okinstallation	princeton_trtdifferential loss correction	single-endedforward channel	channel 3reverse channel	N/Adate	2019/09/18time	14:56:35forward acquisition time	60.00reverse acquisition time	0.00gamma	496.2192k internal	0.2306k external	0.2306temperature offset calibration	0.9975default loss term (dB/km)	0.3790temperature slope calibration	1.0000multiplexer offset coefficient	1.0000multiplexer slope coefficient	1.0000fibre end	0.00T internal ref (°C)	35.19T ext. ref 1 (°C)	0.72T ext. ref 2 (°C)	30.04length (m)	temperature (°C)	Stokes	anti-Stokes-747.200	-159.661	0.315	-0.018
-746.185	-25.109	0.319	0.192
-745.171	-200.000	-0.028	0.138
-744.156	22.251	-0.137	0.114
-743.142	222.122	-0.138	0.225
-742.127	160.561	-0.136	0.193
-741.112	-55.865	0.249	0.113
-740.098	187.700	-0.222	0.337
-739.083	-35.096	0.231	-0.128
-738.069	-158.186	0.326	0.019
-737.054	608.466	-0.049	-0.126
-736.039	-200.000	0.064	-0.314
-735.025	-146.433	0.221	-0.020
-734.010	-68.961	-0.223	-0.088
-732.996	137.000	0.077	-0.102
-731.981	-111.624	-0.194	0.040
-730.966	-138.713	-0.350	-0.039
-729.952	-41.846	-0.150	0.078
-728.937	-33.838	0.200	-0.112
-727.923	180.420	-0.170	-0.254
-726.908	-200.000	-0.003	0.047
-725.894	548.959	-0.063	0.154
-724.879	446.002	-0.067	0.150
-723.864	393.537	0.107	0.226
-722.850	-200.000	-0.041	0.185
-721.835	314.685	-0.077	0.147
-720.821	-61.195	0.099	0.042
-719.806	181.775	-0.098	0.147
-718.791	141.567	0.027	-0.036
-717.777	209.699	-0.052	0.083
-716.762	-200.000	-0.007	0.087
-715.748	58.889	-0.173	0.173
-714.733	557.516	-0.032	0.079
-713.718	-200.000	0.018	-0.125
-712.704	800.000	0.062	0.200
-711.689	-151.062	-0.294	-0.022
-710.675	443.675	-0.119	-0.265
-709.660	-77.053	-0.253	0.090
-708.645	-34.134	-0.182	-0.102
-707.631	-200.000	-0.016	0.322
-706.616	-185.192	0.332	-0.005
-705.602	-136.813	0.135	-0.016
-704.587	47.277	-0.180	0.170
-703.572	800.000	-0.085	0.336
-702.558	-129.978	-0.091	0.013
-701.543	-98.133	0.271	0.071
-700.529	-200.000	-0.017	-0.219
-699.514	-25.394	-0.226	0.136
-698.499	-86.847	-0.229	0.071
-697.485	-27.570	-0.221	0.130
-696.470	351.987	-0.062	0.125
-695.456	-200.000	0.018	0.343
-694.441	69.117	0.128	-0.134
-693.426	259.489	0.064	-0.112
-692.412	292.888	-0.088	0.163
-691.397	-82.058	-0.216	-0.072
-690.383	-166.265	0.013	0.001
-689.368	-200.000	0.034	0.432
-688.354	237.893	-0.078	-0.131
-687.339	131.394	0.170	-0.222
-686.324	800.000	0.060	0.248
-685.310	24.787	0.123	0.103
-684.295	27.632	-0.154	0.132
-683.281	-59.930	0.098	0.042
-682.266	88.140	-0.263	0.296
-681.251	6.401	0.316	0.238
-680.237	-200.000	-0.036	0.435
-679.222	-200.000	0.041	-0.262
-678.208	37.306	0.157	0.141
-677.193	-45.685	-0.052	0.026
-676.178	-187.550	-0.245	-0.003
-675.164	6.365	-0.162	0.122
-674.149	47.540	0.231	-0.218
-673.135	213.874	-0.179	-0.287
-672.120	-200.000	-0.014	0.131
-671.105	-149.171	0.116	0.009
-670.091	-29.665	-0.280	0.162
-669.076	-141.599	-0.162	0.017
-668.062	-147.210	0.092	0.008
-667.047	800.000	-0.092	0.288
-666.032	-197.351	-0.203	0.001
-665.018	518.445	0.113	0.268
-664.003	286.621	-0.109	-0.199
-662.989	-200.000	-0.021	0.291
-661.974	170.647	0.227	0.330
-660.959	156.261	-0.202	0.282
-659.945	-105.584	0.165	-0.038
-658.930	128.921	0.090	-0.116
-657.916	-124.313	-0.273	-0.043
-656.901	244.474	0.219	0.373
-655.886	-200.000	-0.053	-0.363
-654.872	-160.715	-0.090	-0.005
-653.857	800.000	-0.040	-0.155
-652.843	-178.537	0.459	-0.011
-651.828	-200.000	-0.018	-0.141
-650.814	-200.000	-0.027	0.263
-649.799	-104.809	0.134	0.031
-648.784	-115.867	-0.366	-0.069
-647.770	-24.547	-0.055	-0.033
-646.755	484.238	-0.166	-0.383
-645.741	-200.000	-0.142	-0.000
-644.726	800.000	0.029	0.090
-643.711	-8.321	-0.115	-0.079
-642.697	-22.054	-0.156	0.096
-641.682	-90.028	0.249	-0.073
-640.668	-200.000	0.035	-0.429
-639.653	-134.573	0.287	-0.036
-638.638	39.956	-0.132	-0.120
-637.624	4.204	0.173	0.128
-636.609	392.483	-0.099	-0.209
-635.595	431.188	-0.071	-0.157
-634.580	-151.230	0.118	-0.009
-633.565	-96.003	-0.227	0.061
-632.551	183.133	-0.042	0.062
-631.536	268.655	0.158	0.280
-630.522	172.367	0.085	0.124
-629.507	275.149	-0.149	0.268
-628.492	-110.308	0.273	0.057
-627.478	-72.452	-0.049	0.018
-626.463	209.846	0.158	-0.251
-625.449	66.039	-0.165	0.169
-624.434	274.255	0.128	0.230
-623.419	-47.073	-0.135	-0.067
-622.405	318.190	0.174	-0.334
-621.390	-39.960	-0.293	-0.155
-620.376	142.642	-0.240	-0.323
-619.361	-200.000	0.017	-0.154
-618.346	63.884	0.165	-0.168
-617.332	-42.222	0.212	-0.109
-616.317	-62.162	-0.099	-0.042
-615.303	141.285	0.270	0.362
-614.288	-127.410	-0.171	-0.025
-613.273	800.000	0.120	0.339
-612.259	6.273	-0.162	0.121
-611.244	-120.547	-0.031	-0.005
-610.230	-200.000	0.029	-0.321
-609.215	711.070	0.035	0.094
-608.201	5.694	-0.170	0.127
-607.186	12.713	0.139	-0.109
-606.171	-64.994	0.161	-0.066
-605.157	-200.000	0.045	0.227
-604.142	492.776	0.102	0.236
-603.128	-200.000	-0.066	-0.406
-602.113	508.923	0.114	-0.267
-601.098	-43.215	-0.148	-0.076
-600.084	380.213	-0.058	0.121
-599.069	-62.705	-0.232	-0.097
-598.055	30.174	-0.076	-0.066
-597.040	75.583	0.120	-0.128
-596.025	-167.930	0.305	0.012
-595.011	-54.480	-0.282	0.129
-593.996	-92.710	-0.216	-0.061
-592.982	527.301	0.215	0.512
-591.967	-50.059	0.384	-0.184
-590.952	243.217	0.041	0.070
-589.938	800.000	0.038	0.132
-588.923	-65.232	-0.092	0.037
-587.909	-200.000	-0.011	-0.084
-586.894	-178.001	-0.140	0.003
-585.879	441.523	0.083	0.183
-584.865	800.000	0.039	-0.124
-583.850	31.529	0.202	0.176
-582.836	-15.293	-0.203	-0.131
-581.821	800.000	0.053	0.218
-580.806	41.708	-0.124	-0.113
-579.792	-81.570	-0.142	-0.047
-578.777	108.474	0.190	0.229
-577.763	-124.923	0.269	-0.042
-576.748	-98.962	0.148	-0.038
-575.733	-52.585	0.224	0.104
-574.719	597.441	0.187	0.468
-573.704	-23.623	-0.045	0.027
-572.690	-138.244	0.283	0.032
-571.675	-48.647	0.354	-0.172
-570.661	-200.000	0.000	-0.264
-569.646	363.439	-0.039	0.079
-568.631	-26.287	0.043	-0.026
-567.617	66.309	0.224	0.230
-566.602	-25.631	0.101	-0.060
-565.588	36.905	-0.341	-0.304
-564.573	222.617	0.096	-0.156
-563.558	-122.804	0.057	0.009
-562.544	2.615	-0.103	-0.075
-561.529	-200.000	0.020	0.194
-560.515	366.061	-0.049	0.099
-559.500	20.819	-0.119	0.097
-558.485	-20.039	0.129	-0.080
-557.471	800.000	-0.076	-0.281
-556.456	0.599	-0.248	0.179
-555.442	-128.991	-0.166	0.024
-554.427	800.000	-0.086	-0.271
-553.412	34.232	0.060	-0.053
-552.398	-117.599	0.216	0.039
-551.383	-200.000	0.042	-0.289
-550.369	800.000	0.030	0.083
-549.354	501.230	-0.004	0.008
-548.339	6.553	-0.236	-0.177
-547.325	389.058	-0.108	0.226
-546.310	436.014	-0.015	-0.034
-545.296	800.000	0.079	0.241
-544.281	89.610	-0.147	0.166
-543.266	109.655	0.060	-0.072
-542.252	-200.000	0.012	-0.329
-541.237	100.044	0.185	-0.217
-540.223	207.500	0.187	0.295
-539.208	571.535	-0.081	-0.200
-538.193	52.300	-0.099	-0.096
-537.179	-200.000	-0.008	-0.213
-536.164	232.192	0.027	-0.044
-535.150	85.629	0.213	0.237
-534.135	-112.248	-0.139	-0.028
-533.121	36.390	-0.080	-0.071
-532.106	171.993	-0.112	0.163
-531.091	-137.850	-0.248	-0.028
-530.077	-200.000	-0.027	-0.227
-529.062	125.080	-0.194	0.247
-528.048	86.582	0.052	-0.058
-527.033	248.181	-0.067	-0.115
-526.018	194.440	-0.061	0.094
-525.004	-101.521	0.103	0.025
-523.989	173.394	0.065	0.095
-522.975	-200.000	0.020	0.250
-521.960	-200.000	-0.001	-0.035
-520.945	4.944	-0.043	0.032
-519.931	-200.000	0.036	0.262
-518.916	-146.740	0.263	-0.023
-517.902	90.385	-0.030	-0.034
-516.887	697.661	0.043	0.114
-515.872	-14.143	0.127	-0.083
-514.858	-104.363	-0.173	-0.040
-513.843	75.197	0.258	0.274
-512.829	207.376	-0.097	-0.152
-511.814	-29.697	-0.359	-0.206
-510.799	5.823	-0.280	0.209
-509.785	-110.416	0.379	-0.079
-508.770	310.152	-0.039	-0.074
-507.756	223.423	-0.130	0.212
-506.741	-200.000	0.009	0.308
-505.726	41.698	-0.109	0.099
-504.712	-20.363	0.395	0.245
-503.697	383.592	-0.198	0.411
-502.683	19.627	-0.148	-0.120
-501.668	9.454	0.327	-0.249
-500.653	-6.651	-0.262	-0.180
-499.639	36.280	-0.100	0.089
-498.624	5.716	0.457	-0.341
-497.610	283.931	0.146	-0.265
-496.595	800.000	-0.050	-0.153
-495.581	800.000	0.082	-0.359
-494.566	-114.723	-0.335	0.064
-493.551	-156.597	0.151	0.009
-492.537	-200.000	-0.028	-0.142
-491.522	12.305	-0.085	0.066
-490.508	-120.236	-0.432	0.074
-489.493	104.198	-0.084	0.099
-488.478	-68.452	-0.167	0.065
-487.464	800.000	0.037	-0.159
-486.449	151.273	0.041	0.056
-485.435	83.561	-0.073	-0.080
-484.420	-142.927	-0.100	0.010
-483.405	800.000	0.095	-0.311
-482.391	-26.006	-0.085	0.051
-481.376	-200.000	0.029	0.321
-480.362	640.620	0.148	0.379
-479.347	-58.337	-0.281	0.123
-478.332	-94.601	-0.344	-0.094
-477.318	-200.000	-0.075	-0.379
-476.303	800.000	-0.012	-0.043
-475.289	-200.000	-0.025	-0.372
-474.274	485.224	0.149	-0.342
-473.259	34.609	0.109	0.096
-472.245	56.097	-0.182	-0.178
-471.230	-200.000	-0.002	0.151
-470.216	800.000	0.093	-0.281
-469.201	59.609	0.115	0.114
-468.186	281.368	-0.133	-0.240
-467.172	238.200	0.153	-0.255
-466.157	106.525	0.271	0.324
-465.143	1.808	0.228	0.165
-464.128	-32.814	0.151	0.085
-463.113	38.387	0.119	0.106
-462.099	800.000	-0.088	0.321
-461.084	2.073	0.130	-0.094
-460.070	-48.361	-0.086	0.042
-459.055	-200.000	-0.016	-0.167
-458.040	-62.705	-0.040	0.017
-457.026	-200.000	0.013	-0.088
-456.011	-13.055	-0.110	-0.072
-454.997	639.768	0.040	0.102
-453.982	182.029	0.098	-0.144
-452.968	-58.775	-0.037	-0.016
-451.953	53.039	-0.084	0.081
-450.938	580.862	0.090	0.222
-449.924	-48.938	0.290	0.140
-448.909	144.906	-0.109	0.146
-447.895	52.773	0.182	0.175
-446.880	218.656	0.073	-0.118
-445.865	-21.929	-0.107	0.065
-444.851	-77.497	-0.047	0.016
-443.836	-200.000	-0.010	0.046
-442.822	-200.000	-0.019	0.101
-441.807	573.349	0.051	0.125
-440.792	-200.000	-0.017	0.255
-439.778	-42.231	0.163	-0.084
-438.763	-200.000	-0.038	-0.187
-437.749	77.318	-0.055	-0.059
-436.734	205.272	0.076	-0.118
-435.719	-184.382	-0.158	0.003
-434.705	161.691	0.196	-0.276
-433.690	-18.134	-0.183	0.115
-432.676	94.780	-0.080	0.092
-431.661	800.000	-0.057	-0.248
-430.646	115.387	-0.186	0.228
-429.632	160.012	-0.162	-0.226
-428.617	-148.720	-0.401	-0.033
-427.603	-52.980	0.175	-0.081
-426.588	-103.786	0.081	0.019
-425.573	62.159	0.164	-0.164
-424.559	-90.296	-0.232	-0.068
-423.544	-70.170	-0.278	-0.106
-422.530	65.778	0.238	-0.242
-421.515	138.688	0.133	-0.175
-420.500	526.880	-0.026	-0.062
-419.486	800.000	-0.097	-0.323
-418.471	-145.456	0.170	-0.015
-417.457	55.078	-0.116	0.113
-416.442	-200.000	-0.022	0.177
-415.428	800.000	-0.078	0.315
-414.413	-185.426	0.109	-0.002
-413.398	-96.777	0.358	0.095
-412.384	-108.211	0.119	-0.026
-411.369	800.000	-0.030	-0.098
-410.355	-200.000	0.046	0.314
-409.340	196.565	-0.228	0.349
-408.325	800.000	0.022	0.068
-407.311	-35.088	0.244	0.133
-406.296	356.619	0.121	-0.242
-405.282	105.507	0.098	0.116
-404.267	800.000	0.060	0.206
-403.252	153.829	0.224	0.308
-402.238	-200.000	0.004	-0.078
-401.223	-63.188	-0.290	0.120
-400.209	-200.000	-0.024	0.185
-399.194	800.000	-0.063	0.187
-398.179	-158.326	-0.449	0.026
-397.165	-88.639	-0.080	0.024
-396.150	322.261	-0.066	-0.126
-395.136	11.990	-0.144	-0.111
-394.121	129.282	0.031	0.040
-393.106	800.000	0.084	0.260
-392.092	-87.187	-0.140	-0.043
-391.077	-174.850	-0.034	-0.001
-390.063	-118.147	-0.244	0.044
-389.048	800.000	-0.075	0.275
-388.033	-200.000	-0.002	-0.209
-387.019	-87.957	-0.223	-0.067
-386.004	179.663	-0.053	0.077
-384.990	-88.591	-0.315	0.094
-383.975	-97.210	0.178	-0.046
-382.960	24.192	0.119	0.098
-381.946	40.476	-0.043	0.038
-380.931	133.132	0.311	0.403
-379.917	-200.000	-0.008	-0.113
-378.902	-35.280	-0.088	0.048
-377.888	-29.330	0.267	0.154
-376.873	44.891	0.252	0.232
-375.858	-118.006	-0.274	0.049
-374.844	-74.874	0.119	-0.043
-373.829	800.000	0.052	0.219
-372.815	-200.000	0.022	-0.274
-371.800	152.744	-0.211	-0.289
-370.785	-14.156	0.258	0.167
-369.771	162.609	0.045	0.064
-368.756	-50.642	0.094	0.044
-367.742	-46.905	-0.360	0.176
-366.727	-130.779	-0.113	0.015
-365.712	800.000	-0.048	-0.136
-364.698	69.895	0.182	-0.188
-363.683	-200.000	0.014	-0.073
-362.669	83.039	0.035	-0.038
-361.654	-200.000	-0.010	0.076
-360.639	-19.136	0.181	0.113
-359.625	-116.933	0.136	-0.025
-358.610	158.463	-0.151	0.210
-357.596	25.239	-0.068	0.056
-356.581	-5.076	-0.220	-0.152
-355.566	-30.926	0.234	0.132
-354.552	141.838	-0.112	0.149
-353.537	-50.655	0.150	-0.071
-352.523	-146.050	0.165	-0.015
-351.508	108.220	0.173	0.207
-350.493	-200.000	0.001	0.074
-349.479	-3.008	-0.127	0.089
-348.464	-200.000	-0.002	0.359
-347.450	-126.124	0.225	0.034
-346.435	-106.259	-0.327	-0.073
-345.420	697.628	-0.064	-0.168
-344.406	-200.000	0.056	-0.250
-343.391	-69.215	-0.098	-0.038
-342.377	277.081	0.046	-0.082
-341.362	147.827	-0.063	-0.085
-340.348	249.609	0.186	0.316
-339.333	45.236	-0.073	0.067
-338.318	-200.000	-0.027	0.167
-337.304	-200.000	0.060	0.323
-336.289	-200.000	-0.030	-0.326
-335.275	-167.475	0.164	-0.007
-334.260	456.076	0.141	0.313
-333.245	134.625	-0.053	-0.069
-332.231	218.643	0.219	-0.350
-331.216	-166.364	0.086	-0.004
-330.202	-200.000	0.049	-0.389
-329.187	-37.499	-0.114	-0.061
-328.172	-200.000	0.019	0.117
-327.158	59.257	0.135	-0.133
-326.143	25.015	0.045	0.037
-325.129	-9.928	-0.216	0.143
-324.114	800.000	-0.011	-0.039
-323.099	300.577	-0.063	-0.117
-322.085	-73.450	-0.270	0.099
-321.070	-200.000	0.012	0.118
-320.056	-200.000	0.044	0.326
-319.041	-34.905	0.391	-0.214
-318.026	-200.000	0.011	0.271
-317.012	-7.955	0.097	-0.065
-315.997	800.000	0.123	-0.375
-314.983	120.352	0.223	0.277
-313.968	105.508	0.172	0.203
-312.953	-160.077	0.152	0.008
-311.939	81.035	0.172	0.186
-310.924	-71.389	0.143	-0.054
-309.910	72.129	-0.241	0.251
-308.895	741.743	0.081	-0.218
-307.880	130.129	0.188	0.240
-306.866	-87.433	0.044	0.013
-305.851	501.840	-0.083	-0.193
-304.837	-200.000	-0.015	0.107
-303.822	-105.730	-0.206	-0.047
-302.807	70.030	0.420	-0.433
-301.793	-200.000	0.039	-0.370
-300.778	-200.000	0.011	0.058
-299.764	-97.625	-0.234	0.061
-298.749	93.059	-0.231	-0.261
-297.735	-200.000	0.010	0.114
-296.720	140.670	0.213	-0.281
-295.705	774.826	-0.040	-0.108
-294.691	1.484	-0.163	-0.117
-293.676	360.866	-0.064	0.128
-292.662	165.233	0.249	0.352
-291.647	-200.000	0.013	-0.138
-290.632	-200.000	-0.012	0.434
-289.618	-200.000	0.022	0.232
-288.603	-105.339	-0.103	0.024
-287.589	-200.000	0.014	0.205
-286.574	-200.000	-0.020	0.172
-285.559	800.000	0.046	0.140
-284.545	-95.090	-0.050	-0.014
-283.530	32.217	-0.210	-0.181
-282.516	-53.487	0.191	-0.087
-281.501	-200.000	0.075	-0.373
-280.486	-120.701	-0.499	-0.084
-279.472	-99.402	0.062	-0.016
-278.457	105.566	0.121	-0.143
-277.443	-149.614	0.093	0.007
-276.428	-46.933	-0.186	0.091
-275.413	-140.144	0.241	-0.025
-274.399	507.524	-0.044	0.102
-273.384	173.931	-0.094	-0.136
-272.370	-22.487	-0.165	-0.100
-271.355	75.375	-0.171	0.180
-270.340	-103.750	0.116	0.027
-269.326	-200.000	-0.005	0.089
-268.311	-63.673	-0.257	0.105
-267.297	322.955	-0.054	-0.102
-266.282	225.464	0.084	-0.136
-265.267	-94.170	-0.155	-0.043
-264.253	-133.083	0.319	-0.040
-263.238	202.107	0.068	-0.105
-262.224	-28.534	0.150	-0.086
-261.209	-200.000	-0.011	-0.194
-260.195	800.000	0.021	0.070
-259.180	31.927	-0.093	0.080
-258.165	508.049	0.128	0.297
-257.151	191.575	0.217	-0.326
-256.136	-48.263	0.079	-0.038
-255.122	-3.808	-0.189	-0.131
-254.107	166.959	0.272	-0.385
-253.092	-200.000	0.069	-0.331
-252.078	36.270	-0.213	0.187
-251.063	-137.245	0.211	0.024
-250.049	274.305	-0.194	0.343
-249.034	-63.924	-0.213	0.087
-248.019	-107.891	0.186	-0.040
-247.005	-200.000	-0.003	-0.082
-245.990	54.802	-0.032	-0.031
-244.976	-20.798	0.225	-0.138
-243.961	-200.000	0.047	-0.333
-242.946	350.820	-0.072	0.143
-241.932	203.640	-0.285	-0.440
-240.917	-200.000	-0.035	0.283
-239.903	47.864	0.189	-0.176
-238.888	171.679	-0.103	-0.148
-237.873	19.952	-0.376	-0.302
-236.859	-23.737	-0.311	0.186
-235.844	-200.000	0.012	-0.063
-234.830	-4.643	0.145	0.099
-233.815	38.684	0.156	0.139
-232.800	92.204	-0.102	-0.114
-231.786	-200.000	0.021	-0.159
-230.771	-200.000	-0.012	-0.171
-229.757	123.684	-0.102	0.127
-228.742	-22.937	0.207	0.125
-227.727	288.377	-0.061	-0.111
-226.713	-15.269	0.228	-0.145
-225.698	144.685	0.099	0.132
-224.684	-200.000	0.035	0.217
-223.669	-66.593	0.116	0.046
-222.655	290.684	-0.061	-0.111
-221.640	147.163	-0.163	0.219
-220.625	-200.000	0.042	0.421
-219.611	-89.401	-0.350	-0.103
-218.596	-157.517	0.076	-0.005
-217.582	-2.861	-0.057	-0.040
-216.567	-130.877	0.110	0.015
-215.552	-143.283	-0.124	0.012
-214.538	15.499	-0.170	-0.133
-213.523	-200.000	-0.039	-0.180
-212.509	-13.929	0.223	-0.144
-211.494	-153.642	-0.377	-0.026
-210.479	-36.336	0.166	-0.089
-209.465	-94.413	-0.175	-0.048
-208.450	-87.202	0.158	-0.048
-207.436	230.740	0.081	-0.132
-206.421	800.000	0.095	0.287
-205.406	40.307	-0.344	-0.309
-204.392	800.000	-0.074	0.207
-203.377	94.746	0.108	0.122
-202.363	-32.906	-0.164	0.091
-201.348	-16.424	-0.372	0.235
-200.333	-87.695	-0.253	-0.076
-199.319	-200.000	-0.057	-0.396
-198.304	800.000	0.052	-0.153
-197.290	-87.810	-0.224	-0.067
-196.275	140.010	0.210	-0.276
-195.260	413.239	0.090	0.190
-194.246	198.083	-0.043	-0.065
-193.231	181.599	0.194	-0.284
-192.217	41.559	-0.142	-0.128
-191.202	-111.511	-0.336	0.068
-190.187	82.364	-0.133	0.144
-189.173	800.000	-0.098	0.427
-188.158	-113.771	-0.088	-0.017
-187.144	-23.786	0.238	0.142
-186.129	-127.175	-0.397	0.058
-185.114	176.455	0.171	0.247
-184.100	118.017	0.067	-0.082
-183.085	616.757	-0.037	-0.092
-182.071	800.000	-0.116	0.343
-181.056	-82.789	-0.238	0.077
-180.042	-16.380	-0.147	-0.093
-179.027	800.000	0.008	-0.030
-178.012	579.165	-0.021	0.051
-176.998	-101.995	-0.181	0.043
-175.983	420.763	0.083	-0.178
-174.969	-200.000	0.009	-0.057
-173.954	-200.000	-0.004	0.049
-172.939	-103.056	0.195	-0.046
-171.925	-26.630	0.428	-0.249
-170.910	800.000	-0.069	-0.262
-169.896	705.402	-0.074	0.194
-168.881	800.000	0.064	0.194
-167.866	-149.932	-0.135	0.010
-166.852	32.902	0.158	0.136
-165.837	-127.648	0.290	0.042
-164.823	-21.809	0.266	0.161
-163.808	800.000	0.070	-0.282
-162.793	-36.502	0.099	0.053
-161.779	-76.111	0.140	-0.049
-160.764	-89.379	0.245	0.072
-159.750	142.783	-0.113	-0.150
-158.735	-151.828	0.255	-0.019
-157.720	800.000	-0.061	0.166
-156.706	-82.156	-0.293	-0.095
-155.691	800.000	-0.091	0.251
-154.677	800.000	-0.056	0.194
-153.662	800.000	-0.057	-0.161
-152.647	-14.056	-0.183	-0.117
-151.633	55.455	0.108	-0.104
-150.618	-71.497	-0.130	0.048
-149.604	-117.314	-0.209	-0.038
-148.589	800.000	-0.060	0.212
-147.574	12.256	-0.232	-0.178
-146.560	-200.000	-0.094	-0.583
-145.545	-200.000	-0.054	-0.332
-144.531	-89.087	0.068	-0.020
-143.516	380.102	-0.016	-0.032
-142.502	-124.880	0.293	0.045
-141.487	108.151	-0.121	-0.143
-140.472	181.862	0.302	-0.442
-139.458	363.846	-0.116	0.231
-138.443	-74.524	0.172	0.062
-137.429	-73.472	0.058	-0.021
-136.414	69.499	-0.113	0.115
-135.399	344.756	-0.039	0.075
-134.385	-191.359	-0.290	0.003
-133.370	-200.000	-0.021	0.357
-132.356	-22.463	-0.056	0.033
-131.341	-200.000	-0.009	-0.110
-130.326	-200.000	-0.030	0.156
-129.312	-200.000	-0.066	-0.324
-128.297	-70.488	-0.369	-0.139
-127.283	18.236	-0.058	-0.046
-126.268	-42.251	0.369	0.187
-125.253	-112.247	-0.186	-0.037
-124.239	419.911	0.134	0.285
-123.224	-200.000	0.018	0.089
-122.210	200.412	0.172	0.262
-121.195	-105.326	-0.240	-0.054
-120.180	-146.475	-0.170	-0.015
-119.166	-50.254	-0.269	0.126
-118.151	-24.080	-0.159	0.094
-117.137	366.303	-0.086	0.172
-116.122	318.791	0.059	0.111
-115.107	64.516	-0.364	-0.364
-114.093	161.277	0.218	-0.302
-113.078	800.000	0.057	-0.200
-112.064	99.343	0.013	-0.015
-111.049	-200.000	-0.005	-0.042
-110.034	7.648	-0.193	-0.143
-109.020	-63.835	-0.077	-0.031
-108.005	-135.027	-0.156	0.019
-106.991	-16.707	0.113	0.071
-105.976	-103.527	0.318	-0.074
-104.962	-53.025	0.170	0.077
-103.947	800.000	-0.093	-0.382
-102.932	-21.268	-0.150	-0.091
-101.918	-200.000	0.058	0.262
-100.903	-179.812	0.233	-0.005
-99.889	78.384	-0.128	0.136
-98.874	46.188	0.118	0.109
-97.859	487.038	0.116	-0.261
-96.845	800.000	-0.058	0.166
-95.830	-103.621	0.186	0.043
-94.816	-0.265	-0.300	0.211
-93.801	-200.000	0.003	-0.244
-92.786	21.534	0.089	0.072
-91.772	100.481	-0.209	-0.240
-90.757	-10.549	0.087	0.057
-89.743	-200.000	-0.060	0.309
-88.728	-39.810	-0.195	0.101
-87.713	311.647	0.145	0.269
-86.699	-116.088	-0.229	-0.042
-85.684	31.683	-0.078	0.067
-84.670	259.600	-0.148	-0.253
-83.655	800.000	-0.019	0.065
-82.640	-200.000	0.006	0.258
-81.626	312.015	0.193	0.359
-80.611	-31.630	0.432	0.240
-79.597	800.000	0.034	-0.095
-78.582	-10.425	0.200	0.131
-77.567	69.936	0.238	-0.244
-76.553	-200.000	-0.033	-0.168
-75.538	800.000	0.023	0.097
-74.524	800.000	0.043	-0.126
-73.509	43.536	-0.165	0.150
-72.494	51.790	0.235	-0.222
-71.480	99.274	0.066	-0.076
-70.465	234.679	-0.223	-0.364
-69.451	-125.670	-0.275	0.041
-68.436	36.830	0.137	-0.120
-67.422	65.732	-0.171	0.171
-66.407	-82.587	0.092	-0.029
-65.392	-97.352	-0.351	-0.091
-64.378	159.013	0.140	0.193
-63.363	-108.807	-0.167	0.035
-62.349	-200.000	-0.041	0.180
-61.334	-24.786	-1.122	-0.660
-60.319	324.925	-0.090	0.170
-59.305	625.475	-0.447	-1.117
-58.290	157.467	0.706	0.967
-57.276	162.049	1.053	1.461
-56.261	-200.000	94.701	550.147
-55.246	518.256	1406.950	3260.558
-54.232	145.688	2629.580	3488.650
-53.217	111.620	2241.291	2677.289
-52.203	45.552	1766.574	1615.114
-51.188	38.303	1573.552	1387.385
-50.173	35.859	1545.442	1345.485
-49.159	52.474	1595.241	1507.369
-48.144	55.783	1614.134	1548.722
-47.130	38.623	1569.743	1386.070
-46.115	35.488	1554.178	1350.266
-45.100	35.250	1551.140	1345.903
-44.086	35.282	1548.898	1344.128
-43.071	35.278	1547.011	1342.408
-42.057	35.226	1545.251	1340.466
-41.042	35.108	1544.207	1338.679
-40.027	35.260	1542.537	1338.243
-39.013	35.148	1541.299	1336.335
-37.998	35.130	1539.984	1335.017
-36.984	35.222	1538.716	1334.506
-35.969	35.265	1537.052	1333.309
-34.954	35.234	1535.847	1331.992
-33.940	35.108	1534.793	1330.152
-32.925	35.230	1532.556	1329.002
-31.911	35.250	1532.079	1328.675
-30.896	35.271	1530.246	1327.183
-29.881	35.262	1529.170	1326.129
-28.867	35.223	1527.646	1324.486
-27.852	35.336	1525.597	1323.437
-26.838	35.217	1524.742	1321.827
-25.823	35.301	1522.805	1320.673
-24.809	35.302	1520.917	1318.988
-23.794	35.241	1519.813	1317.559
-22.779	35.225	1518.866	1316.573
-21.765	35.269	1517.463	1315.608
-20.750	35.250	1516.737	1314.797
-19.736	35.210	1515.331	1313.255
-18.721	35.223	1513.994	1312.128
-17.706	35.226	1513.349	1311.539
-16.692	35.197	1511.995	1310.119
-15.677	35.140	1511.029	1308.840
-14.663	35.136	1509.996	1307.865
-13.648	35.161	1509.282	1307.363
-12.633	35.043	1508.154	1305.532
-11.619	35.165	1506.996	1305.307
-10.604	35.119	1506.423	1304.447
-9.590	35.215	1505.432	1304.189
-8.575	35.091	1504.794	1302.742
-7.560	35.048	1503.960	1301.673
-6.546	35.107	1502.924	1301.129
-5.531	35.037	1502.125	1299.908
-4.517	35.156	1500.533	1299.289
-3.502	35.078	1500.102	1298.333
-2.487	35.158	1498.602	1297.523
-1.473	35.109	1497.711	1296.370
-0.458	35.068	1496.430	1294.934
0.556	34.028	1486.805	1284.687
1.571	30.730	1458.924	1238.577
2.586	26.448	1392.822	1155.083
3.600	23.762	1305.162	1066.189
4.615	21.460	1257.670	1013.978
5.629	18.216	1200.101	949.500
6.644	9.522	1111.490	834.441
7.659	2.154	1067.071	764.261
8.673	0.913	1061.220	753.825
9.688	0.763	1058.116	750.812
10.702	0.619	1056.869	749.143
11.717	0.586	1055.216	747.742
12.731	3.120	1057.929	762.166
13.746	11.458	1069.253	811.876
14.761	17.276	1075.921	845.901
15.775	17.671	1075.442	847.410
16.790	16.821	1074.018	841.992
17.804	15.912	1071.604	835.518
18.819	14.906	1070.077	829.269
19.834	14.435	1068.384	825.550
20.848	14.280	1067.684	824.170
21.863	13.898	1067.000	821.676
22.877	13.670	1065.856	819.599
23.892	13.499	1064.574	817.693
24.907	13.386	1064.120	816.713
25.921	13.364	1063.809	816.295
26.936	13.379	1062.885	815.587
27.950	13.470	1061.824	815.150
28.965	13.537	1061.392	815.076
29.980	13.574	1060.219	814.286
30.994	13.697	1059.432	814.211
32.009	13.665	1058.406	813.196
33.023	13.720	1057.860	812.971
34.038	13.656	1057.032	811.953
35.053	13.663	1055.996	811.116
36.067	13.565	1055.070	809.854
37.082	13.542	1054.393	809.152
38.096	13.668	1053.655	809.131
39.111	13.750	1052.751	808.764
40.126	13.622	1052.154	807.609
41.140	13.592	1050.802	806.354
42.155	13.602	1049.773	805.543
43.169	13.474	1049.316	804.499
44.184	13.541	1047.675	803.493
45.199	13.380	1046.741	801.926
46.213	13.385	1046.144	801.422
47.228	13.369	1044.757	800.209
48.242	13.430	1043.719	799.638
49.257	13.525	1042.852	799.365
50.271	13.605	1041.717	798.809
51.286	13.538	1041.112	797.954
52.301	13.466	1040.296	796.908
53.315	13.626	1039.062	796.661
54.330	13.703	1038.104	796.225
55.344	13.510	1038.074	795.209
56.359	13.482	1036.554	793.836
57.374	13.532	1035.733	793.380
58.388	13.501	1035.265	792.801
59.403	13.656	1033.738	792.302
60.417	13.324	1034.007	790.854
61.432	13.367	1032.996	790.214
62.447	13.449	1032.142	789.883
63.461	13.440	1031.254	789.092
64.476	13.371	1030.572	788.171
65.490	13.393	1029.548	787.422
66.505	13.389	1028.408	786.461
67.520	13.370	1028.010	785.997
68.534	13.428	1026.968	785.406
69.549	13.407	1026.552	784.920
70.563	13.530	1025.556	784.669
71.578	13.354	1025.350	783.608
72.593	13.324	1024.601	782.826
73.607	13.378	1023.120	781.878
74.622	13.369	1022.328	781.164
75.636	13.470	1021.096	780.627
76.651	13.374	1020.598	779.724
77.666	13.321	1020.230	779.129
78.680	13.322	1019.333	778.379
79.695	13.318	1018.919	777.972
80.709	13.332	1018.166	777.395
81.724	13.417	1017.248	777.026
82.739	13.404	1016.809	776.558
83.753	13.518	1015.531	776.048
84.768	13.576	1014.752	775.657
85.782	13.599	1013.912	775.055
86.797	13.629	1013.325	774.678
87.812	13.594	1012.604	773.894
88.826	13.564	1011.405	772.771
89.841	13.704	1010.328	772.531
90.855	13.552	1010.168	771.630
91.870	13.538	1009.413	770.921
92.884	13.699	1008.278	770.733
93.899	13.622	1007.398	769.635
94.914	13.634	1006.777	769.150
95.928	13.572	1006.611	768.665
96.943	13.681	1005.414	768.192
97.957	13.657	1004.514	767.325
98.972	13.566	1004.045	766.475
99.987	13.759	1002.632	766.222
101.001	13.734	1002.299	765.783
102.016	13.605	1001.999	764.888
103.030	13.694	1000.828	764.338
104.045	13.636	999.641	763.099
105.060	13.684	998.674	762.514
106.074	13.533	998.103	761.316
107.089	13.625	997.272	761.039
108.103	13.493	996.467	759.748
109.118	13.454	995.571	758.822
110.133	13.534	994.545	758.337
111.147	13.530	993.823	757.701
112.162	13.594	992.684	757.060
113.176	13.570	991.786	756.199
114.191	13.688	991.058	756.114
115.206	13.530	990.957	755.249
116.220	13.671	989.379	754.620
117.235	13.591	988.911	753.835
118.249	13.563	987.930	752.893
119.264	13.598	986.855	752.165
120.279	13.555	986.206	751.410
121.293	13.497	985.527	750.564
122.308	13.562	984.559	750.055
123.322	13.546	983.802	749.337
124.337	13.563	982.719	748.521
125.352	13.506	981.573	747.329
126.366	13.500	980.757	746.613
127.381	13.626	979.261	745.976
128.395	13.447	978.582	744.584
129.410	13.443	977.225	743.469
130.424	13.511	976.720	743.325
131.439	13.631	975.674	743.001
132.454	13.549	974.828	741.925
133.468	13.663	974.183	741.877
134.483	13.619	973.492	741.089
135.497	13.712	972.782	740.897
136.512	13.706	971.710	739.988
137.527	13.779	971.071	739.761
138.541	13.667	970.136	738.488
139.556	13.684	969.438	737.964
140.570	13.601	968.641	736.926
141.585	13.638	968.226	736.710
142.600	13.818	967.287	736.726
143.614	13.793	966.403	735.880
144.629	13.757	965.895	735.266
145.643	13.661	964.883	734.007
146.658	13.719	964.250	733.715
147.673	13.714	962.980	732.663
148.687	13.730	962.301	732.153
149.702	13.583	961.541	730.862
150.716	13.698	960.581	730.575
151.731	13.598	959.610	729.332
152.746	13.670	958.859	729.013
153.760	13.667	957.874	728.185
154.775	13.790	957.389	728.291
155.789	13.792	956.421	727.498
156.804	13.710	955.878	726.663
157.819	13.755	954.734	725.925
158.833	13.734	954.762	725.789
159.848	13.839	953.833	725.478
160.862	13.825	953.137	724.825
161.877	13.790	952.631	724.224
162.892	13.736	951.685	723.205
163.906	13.695	950.748	722.250
164.921	13.756	949.708	721.661
165.935	13.724	948.836	720.797
166.950	13.897	947.636	720.569
167.964	13.886	946.651	719.713
168.979	13.721	945.912	718.371
169.994	13.662	944.839	717.235
171.008	13.881	943.883	717.394
172.023	13.927	943.097	716.933
173.037	13.765	942.739	715.897
174.052	13.886	941.662	715.539
175.067	13.886	940.873	714.874
176.081	13.916	940.194	714.426
177.096	13.833	939.745	713.665
178.110	13.951	938.405	713.091
179.125	13.919	938.110	712.665
180.140	13.814	937.638	711.795
181.154	13.998	936.600	711.728
182.169	13.896	935.961	710.745
183.183	14.004	934.930	710.363
184.198	14.084	934.721	710.483
185.213	14.160	933.986	710.183
186.227	13.997	933.122	708.767
187.242	14.136	932.726	708.996
188.256	14.125	931.875	708.239
189.271	14.195	931.142	707.922
190.286	14.027	930.906	706.961
191.300	13.987	930.060	706.088
192.315	14.024	929.348	705.642
193.329	13.961	928.423	704.609
194.344	13.957	927.720	703.996
195.359	13.876	927.379	703.333
196.373	13.984	926.788	703.282
197.388	14.027	926.158	702.922
198.402	14.175	925.726	703.156
199.417	14.206	925.014	702.683
200.432	14.232	924.646	702.455
201.446	14.344	923.955	702.338
202.461	14.355	923.829	702.229
203.475	14.306	923.562	701.756
204.490	14.379	922.538	701.221
205.504	14.469	921.274	700.579
206.519	14.435	920.532	699.809
207.534	14.277	920.220	698.845
208.548	14.327	919.625	698.543
209.563	14.387	918.723	698.047
210.577	14.271	918.353	697.219
211.592	14.433	917.412	697.118
212.607	14.392	917.123	696.666
213.621	14.406	916.403	696.116
214.636	14.448	915.554	695.585
215.650	14.457	915.106	695.220
216.665	14.364	914.636	694.416
217.680	14.618	913.695	694.699
218.694	14.620	913.172	694.244
219.709	14.631	912.525	693.737
220.723	14.523	912.172	692.961
221.738	14.625	911.338	692.689
222.753	14.549	910.656	691.791
223.767	14.492	909.930	690.944
224.782	14.606	908.963	690.621
225.796	14.569	908.398	689.977
226.811	14.619	907.832	689.693
227.826	14.787	906.631	689.413
228.840	14.666	906.345	688.636
229.855	14.620	905.760	687.939
230.869	14.658	905.216	687.624
231.884	14.706	904.202	686.990
232.899	14.615	903.805	686.252
233.913	14.676	902.835	685.707
234.928	14.593	902.387	684.966
235.942	14.726	901.305	684.628
236.957	14.706	900.943	684.210
237.972	14.638	900.323	683.402
238.986	14.620	899.479	682.625
240.001	14.669	899.055	682.446
241.015	14.799	897.867	682.012
242.030	14.918	897.299	682.005
243.045	14.769	896.812	680.967
244.059	14.712	896.291	680.282
245.074	14.937	895.317	680.395
246.088	14.763	895.102	679.466
247.103	14.840	894.722	679.430
248.117	14.849	893.924	678.799
249.132	14.972	893.470	678.894
250.147	14.838	892.875	677.840
251.161	15.014	891.989	677.821
252.176	15.035	891.226	677.264
253.190	15.061	890.546	676.792
254.205	15.106	890.196	676.647
255.220	15.235	889.572	676.635
256.234	15.110	888.855	675.526
257.249	15.196	888.275	675.373
258.263	15.195	887.738	674.901
259.278	15.127	887.428	674.328
260.293	15.201	886.570	673.918
261.307	15.148	886.044	673.245
262.322	15.279	885.334	673.172
263.336	15.268	884.536	672.459
264.351	15.320	883.875	672.106
265.366	15.240	883.596	671.514
266.380	15.399	882.760	671.458
267.395	15.334	882.308	670.792
268.409	15.374	881.395	670.200
269.424	15.282	880.416	669.030
270.439	15.439	879.961	669.249
271.453	15.345	879.292	668.309
272.468	15.426	878.345	667.852
273.482	15.337	877.806	667.028
274.497	15.236	877.799	666.561
275.512	15.344	876.690	666.088
276.526	15.543	875.453	665.879
277.541	15.600	875.046	665.736
278.555	15.573	874.398	665.078
279.570	15.406	874.322	664.300
280.585	15.556	873.466	664.184
281.599	15.611	873.177	664.123
282.614	15.418	872.812	663.027
283.628	15.471	871.970	662.536
284.643	15.594	871.030	662.249
285.657	15.566	870.585	661.741
286.672	15.594	870.052	661.385
287.687	15.684	869.687	661.407
288.701	15.731	869.215	661.174
289.716	15.717	868.639	660.619
290.730	15.772	867.822	660.157
291.745	15.495	867.469	658.742
292.760	15.787	866.180	658.851
293.774	15.737	866.092	658.527
294.789	15.734	865.189	657.771
295.803	15.790	864.586	657.475
296.818	15.799	864.189	657.148
297.833	15.932	863.184	656.844
298.847	15.779	862.641	655.778
299.862	15.814	861.771	655.195
300.876	15.794	861.413	654.789
301.891	15.794	861.035	654.442
302.906	15.881	860.110	654.021
303.920	15.914	859.444	653.584
304.935	15.884	858.685	652.833
305.949	16.046	858.165	653.006
306.964	16.018	857.607	652.414
307.979	15.895	857.054	651.459
308.993	16.063	856.320	651.496
310.008	16.082	855.629	650.985
311.022	16.068	855.221	650.565
312.037	16.179	855.078	650.824
313.052	16.128	854.166	649.878
314.066	15.958	853.562	648.703
315.081	15.987	853.115	648.417
316.095	15.965	852.182	647.568
317.110	15.869	852.376	647.287
318.125	15.902	851.494	646.689
319.139	16.078	850.821	646.797
320.154	16.034	850.728	646.499
321.168	16.080	849.974	646.047
322.183	16.140	849.400	645.782
323.197	16.015	848.638	644.665
324.212	16.212	847.971	644.855
325.227	16.347	847.620	645.049
326.241	16.137	847.257	643.912
327.256	16.143	846.630	643.403
328.270	16.183	845.731	642.814
329.285	16.182	845.181	642.336
330.300	16.126	844.666	641.674
331.314	16.255	843.938	641.555
332.329	16.319	843.035	641.055
333.343	16.358	842.723	640.908
334.358	16.205	842.324	639.967
335.373	16.257	841.563	639.531
336.387	16.360	840.901	639.359
337.402	16.402	840.800	639.385
338.416	16.407	840.166	638.866
339.431	16.477	839.434	638.518
340.446	16.341	838.907	637.546
341.460	16.524	838.403	637.798
342.475	16.605	837.516	637.372
343.489	16.580	837.123	636.923
344.504	16.506	836.778	636.324
345.519	16.567	835.942	635.862
346.533	16.547	835.606	635.474
347.548	16.580	835.553	635.503
348.562	16.744	834.804	635.491
349.577	16.560	833.886	634.047
350.592	16.514	833.690	633.668
351.606	16.556	833.518	633.640
352.621	16.665	832.906	633.526
353.635	16.668	832.307	633.026
354.650	16.567	832.038	632.389
355.665	16.706	830.946	632.020
356.679	16.700	830.595	631.675
357.694	16.642	830.312	631.189
358.708	16.602	829.784	630.581
359.723	16.624	829.302	630.242
360.738	16.742	828.829	630.267
361.752	16.650	828.400	629.542
362.767	16.658	827.646	628.942
363.781	16.733	827.555	629.098
364.796	16.779	826.830	628.661
365.810	16.725	826.697	628.305
366.825	16.862	826.119	628.315
367.840	16.819	825.934	627.963
368.854	16.897	825.373	627.769
369.869	16.746	824.817	626.730
370.883	16.794	824.617	626.700
371.898	16.945	824.024	626.751
372.913	17.103	823.044	626.534
373.927	17.004	822.569	625.752
374.942	17.150	821.649	625.536
375.956	17.012	821.242	624.663
376.971	17.049	820.839	624.435
377.986	17.137	820.193	624.215
379.000	17.090	819.658	623.579
380.015	17.040	819.400	623.142
381.029	17.133	818.750	622.936
382.044	17.068	818.017	622.083
383.059	17.262	817.529	622.369
384.073	17.227	817.256	621.976
385.088	17.212	816.431	621.241
386.102	17.069	816.214	620.497
387.117	17.165	815.455	620.214
388.132	17.158	815.029	619.810
389.146	17.085	814.742	619.271
390.161	17.097	814.173	618.827
391.175	17.181	813.697	618.719
392.190	17.360	813.581	619.226
393.205	17.313	812.826	618.425
394.219	17.238	812.562	617.899
395.234	17.177	811.977	617.175
396.248	17.346	811.457	617.339
397.263	17.308	810.699	616.570
398.278	17.151	810.547	615.831
399.292	17.299	810.034	615.924
400.307	17.237	809.736	615.417
401.321	17.158	809.646	615.007
402.336	17.241	809.133	614.863
403.350	17.240	808.854	614.594
404.365	17.357	807.925	614.258
405.380	17.378	807.442	613.913
406.394	17.291	807.441	613.542
407.409	17.346	806.706	613.127
408.423	17.471	805.902	612.911
409.438	17.359	805.748	612.337
410.453	17.434	805.334	612.239
411.467	17.527	804.839	612.145
412.482	17.554	804.170	611.679
413.496	17.808	803.428	611.969
414.511	17.561	803.356	610.974
415.526	17.631	803.213	611.063
416.540	17.670	802.521	610.624
417.555	17.661	802.037	610.169
418.569	17.670	801.659	609.857
419.584	17.560	801.219	609.076
420.599	17.698	800.613	609.055
421.613	103.705	1283.058	1440.605
422.628	89.077	1353.356	1440.719
