DTS Sentinel unit serial number:	SN413079Multiplexer serial number:	ORYXHardware model number:	OX4-SRSoftware version number:	ORYX F/W v4.00 Oryx Data Collector v3.7.2.0data status	okinstallation	princeton_trtdifferential loss correction	single-endedforward channel	channel 3reverse channel	N/Adate	2019/09/13time	07:20:34forward acquisition time	60.00reverse acquisition time	0.00gamma	496.2192k internal	0.2338k external	0.2338temperature offset calibration	1.0138default loss term (dB/km)	0.3790temperature slope calibration	1.0000multiplexer offset coefficient	1.0000multiplexer slope coefficient	1.0000fibre end	0.00T internal ref (°C)	26.08T ext. ref 1 (°C)	4.17T ext. ref 2 (°C)	21.61length (m)	temperature (°C)	Stokes	anti-Stokes-747.200	-91.345	0.113	0.033
-746.185	49.042	-0.056	0.052
-745.171	-136.582	-0.056	0.007
-744.156	-110.609	-0.121	-0.025
-743.142	327.212	-0.055	0.105
-742.127	19.429	-0.189	0.152
-741.112	-24.081	0.328	0.197
-740.098	202.680	0.193	0.299
-739.083	193.136	0.026	0.040
-738.069	-143.653	-0.324	0.031
-737.054	-33.070	0.226	-0.126
-736.039	-110.908	0.074	0.015
-735.025	800.000	0.029	0.116
-734.010	79.188	-0.160	0.172
-732.996	20.672	-0.270	0.219
-731.981	-123.312	-0.253	0.040
-730.966	-200.000	0.018	0.224
-729.952	196.647	-0.117	0.179
-728.937	-33.102	-0.261	0.145
-727.923	-19.205	0.085	-0.053
-726.908	13.470	-0.098	-0.076
-725.894	-146.661	-0.232	0.020
-724.879	248.881	-0.241	-0.410
-723.864	-200.000	-0.015	-0.071
-722.850	96.709	0.197	0.227
-721.835	33.726	-0.200	0.174
-720.821	-42.779	0.332	-0.169
-719.806	-27.398	0.218	-0.127
-718.791	36.299	-0.175	-0.155
-717.777	-88.486	0.422	0.126
-716.762	-200.000	0.018	0.273
-715.748	364.052	-0.179	-0.360
-714.733	-152.196	-0.069	-0.005
-713.718	-101.858	0.042	-0.010
-712.704	800.000	0.110	0.308
-711.689	128.939	0.124	-0.159
-710.675	229.084	-0.173	-0.283
-709.660	-149.286	-0.419	0.034
-708.645	800.000	0.024	-0.093
-707.631	-155.615	0.217	0.014
-706.616	-200.000	0.006	0.419
-705.602	-123.681	0.361	0.057
-704.587	316.092	-0.105	-0.199
-703.572	-84.194	-0.053	-0.017
-702.558	-200.000	0.047	-0.366
-701.543	-200.000	-0.034	-0.148
-700.529	-144.274	0.027	0.003
-699.514	800.000	0.103	0.353
-698.499	-200.000	0.009	-0.363
-697.485	83.040	0.090	-0.098
-696.470	423.558	0.031	-0.067
-695.456	146.211	-0.086	-0.116
-694.441	-200.000	0.041	-0.422
-693.426	-70.496	0.253	-0.096
-692.412	800.000	0.022	-0.070
-691.397	800.000	0.050	0.200
-690.383	-160.154	-0.175	0.010
-689.368	-124.135	-0.070	0.011
-688.354	-200.000	0.029	-0.155
-687.339	-99.280	-0.280	0.071
-686.324	-88.272	-0.182	0.055
-685.310	-80.933	-0.246	0.082
-684.295	319.170	0.047	0.089
-683.281	800.000	-0.045	-0.150
-682.266	-200.000	0.005	-0.240
-681.251	-200.000	0.042	-0.343
-680.237	-34.619	-0.218	0.119
-679.222	188.124	-0.131	-0.195
-678.208	-93.945	-0.174	-0.048
-677.193	-200.000	-0.007	0.185
-676.178	587.257	-0.164	-0.404
-675.164	-200.000	0.004	-0.358
-674.149	375.178	-0.138	-0.281
-673.135	-200.000	0.014	0.074
-672.120	-85.462	-0.077	0.024
-671.105	-200.000	-0.043	-0.199
-670.091	-22.796	-0.297	-0.179
-669.076	5.431	-0.312	0.230
-668.062	-200.000	0.007	-0.261
-667.047	-109.335	0.416	-0.088
-666.032	-40.322	-0.134	-0.070
-665.018	-200.000	-0.005	-0.373
-664.003	-34.531	-0.131	-0.072
-662.989	-86.457	-0.198	-0.061
-661.974	800.000	-0.039	-0.150
-660.959	62.331	-0.142	0.141
-659.945	-200.000	0.472	-0.001
-658.930	-46.071	-0.160	-0.079
-657.916	-200.000	0.068	0.323
-656.901	218.955	0.057	-0.091
-655.886	800.000	-0.086	-0.372
-654.872	6.247	-0.039	0.029
-653.857	-200.000	0.025	0.185
-652.843	62.151	0.130	-0.130
-651.828	800.000	-0.085	-0.369
-650.814	305.709	0.193	0.358
-649.799	36.879	-0.158	0.140
-648.784	-44.451	0.272	0.136
-647.770	515.333	-0.026	-0.061
-646.755	-24.681	-0.322	0.191
-645.741	48.723	0.132	-0.124
-644.726	-149.674	0.120	-0.009
-643.711	1.279	0.203	0.146
-642.697	-200.000	-0.022	0.103
-641.682	-92.738	-0.248	-0.069
-640.668	-50.105	0.065	0.031
-639.653	294.181	-0.045	-0.082
-638.638	358.282	-0.099	0.197
-637.624	553.537	0.118	-0.285
-636.609	800.000	0.006	0.018
-635.595	-55.273	0.168	-0.076
-634.580	261.062	0.050	0.087
-633.565	-163.191	0.086	-0.004
-632.551	-185.449	-0.146	0.002
-631.536	95.489	-0.142	0.162
-630.522	-200.000	-0.021	-0.166
-629.507	17.125	-0.208	-0.165
-628.492	-30.238	-0.156	0.088
-627.478	-200.000	0.018	0.118
-626.463	142.159	-0.196	-0.260
-625.449	-45.119	0.263	-0.131
-624.434	-11.395	0.134	0.088
-623.419	203.913	0.178	-0.275
-622.405	787.936	-0.161	-0.441
-621.390	419.757	0.111	0.238
-620.376	0.480	-0.175	-0.125
-619.361	800.000	-0.031	0.115
-618.346	-3.833	-0.291	0.201
-617.332	79.823	-0.156	0.167
-616.317	12.114	-0.084	-0.064
-615.303	-200.000	0.009	-0.060
-614.288	-93.409	0.178	0.049
-613.273	28.766	0.092	0.078
-612.259	290.174	-0.043	-0.078
-611.244	-200.000	-0.054	-0.305
-610.230	-49.532	-0.231	0.110
-609.215	483.630	-0.112	0.254
-608.201	800.000	-0.069	-0.221
-607.186	-81.551	-0.326	0.107
-606.171	-200.000	0.064	-0.327
-605.157	-55.228	-0.197	-0.088
-604.142	-8.527	0.336	-0.225
-603.128	-200.000	-0.009	-0.351
-602.113	-200.000	0.002	0.445
-601.098	512.157	-0.045	0.105
-600.084	-200.000	0.023	0.202
-599.069	-71.528	-0.177	-0.066
-598.055	-51.652	-0.083	-0.038
-597.040	556.830	-0.093	-0.223
-596.025	-9.513	-0.181	-0.121
-595.011	169.921	-0.160	-0.229
-593.996	294.222	0.134	-0.245
-592.982	664.765	0.145	-0.374
-591.967	-200.000	-0.008	-0.305
-590.952	0.065	0.168	-0.120
-589.938	-113.778	-0.219	-0.043
-588.923	55.735	-0.249	-0.241
-587.909	359.709	-0.094	-0.187
-586.894	-200.000	-0.005	-0.027
-585.879	41.391	-0.071	0.064
-584.865	669.679	0.070	-0.181
-583.850	-78.506	-0.152	0.052
-582.836	183.779	0.178	-0.263
-581.821	-200.000	0.024	-0.216
-580.806	113.909	0.197	-0.239
-579.792	-141.903	0.223	-0.022
-578.777	-200.000	-0.002	0.049
-577.763	-112.962	-0.089	0.018
-576.748	-130.583	0.146	0.020
-575.733	-128.874	0.138	-0.019
-574.719	249.708	0.112	0.190
-573.704	-49.840	-0.133	-0.063
-572.690	-101.351	-0.260	0.063
-571.675	55.714	-0.081	-0.078
-570.661	800.000	0.050	0.151
-569.646	-200.000	-0.011	-0.118
-568.631	-200.000	-0.021	0.198
-567.617	-106.094	-0.218	0.049
-566.602	-19.608	0.107	0.066
-565.588	-92.891	0.115	-0.032
-564.573	-200.000	0.029	-0.172
-563.558	800.000	-0.115	-0.320
-562.544	-162.134	0.190	0.010
-561.529	-200.000	0.020	0.205
-560.515	-106.359	0.084	-0.019
-559.500	-160.966	-0.326	-0.017
-558.485	81.776	0.020	0.021
-557.471	-200.000	0.030	0.148
-556.456	4.001	-0.138	0.101
-555.442	264.607	-0.036	0.062
-554.427	-4.647	0.090	0.062
-553.412	132.561	-0.165	0.211
-552.398	-15.573	-0.354	0.225
-551.383	-48.885	-0.350	-0.167
-550.369	-200.000	-0.026	0.153
-549.354	-46.792	0.193	0.094
-548.339	800.000	-0.050	-0.153
-547.325	-123.276	-0.156	0.025
-546.310	-45.286	0.170	-0.084
-545.296	-74.862	-0.310	0.111
-544.281	-200.000	0.001	0.321
-543.266	-103.207	0.161	0.038
-542.252	-200.000	-0.013	-0.092
-541.237	-200.000	0.010	0.052
-540.223	-124.985	-0.253	-0.039
-539.208	-92.956	-0.195	-0.054
-538.193	-9.462	0.104	0.069
-537.179	-167.016	0.219	0.009
-536.164	800.000	0.076	-0.278
-535.150	800.000	-0.142	-0.435
-534.135	334.931	0.107	-0.206
-533.121	-105.879	-0.112	0.025
-532.106	-156.762	-0.312	0.019
-531.091	-38.942	-0.171	-0.090
-530.077	22.780	0.199	0.163
-529.062	-200.000	-0.013	0.061
-528.048	28.467	0.081	0.068
-527.033	23.076	-0.148	0.121
-526.018	233.746	-0.120	-0.196
-525.004	-200.000	0.023	-0.298
-523.989	238.091	-0.202	-0.334
-522.975	-115.843	0.108	0.020
-521.960	39.920	0.076	0.068
-520.945	-80.819	-0.265	-0.088
-519.931	253.203	0.016	0.028
-518.916	-200.000	0.050	0.283
-517.902	266.072	0.078	0.135
-516.887	226.669	0.112	-0.181
-515.872	-85.513	-0.248	0.077
-514.858	-10.841	-0.294	0.193
-513.843	139.361	-0.040	0.052
-512.829	123.396	0.222	-0.276
-511.814	-68.277	-0.334	-0.129
-510.799	800.000	-0.087	-0.271
-509.785	89.925	-0.090	0.100
-508.770	421.491	-0.030	0.064
-507.756	-27.474	-0.269	0.156
-506.741	-93.816	0.151	-0.041
-505.726	9.292	-0.155	-0.116
-504.712	533.867	0.106	-0.250
-503.697	-109.438	-0.111	-0.023
-502.683	-191.720	0.122	0.001
-501.668	438.276	0.083	0.181
-500.653	-66.524	0.367	-0.145
-499.639	-131.533	0.135	0.018
-498.624	275.223	0.163	-0.288
-497.610	-82.061	-0.342	0.111
-496.595	259.344	0.068	0.117
-495.581	-34.806	-0.174	-0.094
-494.566	-200.000	0.035	0.215
-493.551	-131.178	-0.046	-0.006
-492.537	-137.718	0.290	0.032
-491.522	-2.432	0.177	-0.123
-490.508	70.699	-0.203	-0.208
-489.493	233.797	-0.091	0.148
-488.478	54.405	0.122	-0.116
-487.464	-153.418	-0.346	-0.024
-486.449	-16.532	-0.256	0.161
-485.435	-200.000	-0.029	0.426
-484.420	160.115	0.173	-0.239
-483.405	-106.971	-0.396	-0.087
-482.391	-200.000	0.038	0.210
-481.376	-87.664	-0.429	-0.129
-480.362	57.187	0.116	-0.112
-479.347	354.956	0.050	0.098
-478.332	-93.141	-0.162	0.045
-477.318	-60.321	0.116	0.049
-476.303	-200.000	0.079	0.351
-475.289	-200.000	-0.046	0.339
-474.274	-16.646	0.124	0.078
-473.259	316.815	-0.092	0.173
-472.245	-200.000	0.021	0.234
-471.230	-165.376	0.163	-0.007
-470.216	14.963	-0.042	0.032
-469.201	-200.000	-0.022	0.229
-468.186	-63.959	0.201	0.081
-467.172	-192.478	0.093	-0.001
-466.157	524.836	0.106	0.247
-465.143	800.000	0.103	0.294
-464.128	800.000	0.073	-0.226
-463.113	-172.036	0.230	-0.007
-462.099	613.626	-0.064	-0.159
-461.084	-13.165	-0.162	0.104
-460.070	161.316	-0.056	-0.078
-459.055	-116.748	0.191	0.035
-458.040	2.563	0.249	0.179
-457.026	800.000	-0.106	-0.326
-456.011	89.095	0.161	0.178
-454.997	-200.000	0.000	0.025
-453.982	255.497	0.024	0.041
-452.968	-23.719	0.265	-0.158
-451.953	-200.000	0.004	-0.021
-450.938	124.829	0.035	-0.043
-449.924	-44.080	-0.097	0.048
-448.909	800.000	-0.088	0.303
-447.895	800.000	0.138	-0.426
-446.880	-113.568	-0.109	0.021
-445.865	800.000	-0.091	0.370
-444.851	-105.228	-0.155	0.035
-443.836	33.412	0.238	0.205
-442.822	-73.147	0.398	0.145
-441.807	33.667	0.379	0.327
-440.792	755.414	0.102	0.273
-439.778	437.112	-0.053	0.114
-438.763	200.522	0.044	-0.067
-437.749	7.224	0.066	0.049
-436.734	-40.875	-0.127	0.065
-435.719	-125.985	0.361	-0.054
-434.705	-200.000	0.011	0.295
-433.690	-126.530	0.225	-0.033
-432.676	-17.681	0.027	-0.017
-431.661	-18.718	-0.108	0.067
-430.646	-30.747	-0.141	0.079
-429.632	-200.000	0.001	0.075
-428.617	-200.000	-0.019	0.273
-427.603	207.342	-0.231	-0.357
-426.588	-200.000	0.004	0.128
-425.573	800.000	0.100	-0.283
-424.559	-200.000	0.093	-0.424
-423.544	-193.266	-0.154	0.001
-422.530	52.320	-0.249	-0.236
-421.515	-43.536	-0.265	-0.132
-420.500	565.766	0.053	0.128
-419.486	-113.136	0.156	-0.031
-418.471	71.167	-0.026	-0.026
-417.457	350.234	-0.107	0.209
-416.442	-164.589	-0.182	0.008
-415.428	-200.000	-0.021	0.117
-414.413	488.003	-0.059	-0.134
-413.398	45.592	-0.212	-0.194
-412.384	800.000	-0.034	0.111
-411.369	31.031	0.065	0.055
-410.355	800.000	-0.053	0.215
-409.340	-200.000	-0.005	-0.161
-408.325	800.000	-0.051	-0.201
-407.311	-159.758	0.267	0.015
-406.296	-60.252	0.101	0.043
-405.282	-9.860	-0.248	0.163
-404.267	-43.495	0.181	-0.091
-403.252	119.337	0.153	-0.187
-402.238	-200.000	0.030	-0.346
-401.223	639.027	0.114	-0.287
-400.209	95.583	0.117	0.133
-399.194	-200.000	-0.043	-0.463
-398.179	-200.000	0.027	-0.168
-397.165	-30.549	-0.221	0.124
-396.150	104.361	-0.144	-0.167
-395.136	800.000	0.068	-0.278
-394.121	629.590	0.069	-0.173
-393.106	89.091	0.143	-0.158
-392.092	-200.000	-0.009	0.222
-391.077	-161.445	0.299	-0.015
-390.063	-200.000	0.012	0.137
-389.048	630.770	-0.037	0.092
-388.033	800.000	0.075	0.269
-387.019	-200.000	-0.019	-0.296
-386.004	137.673	-0.236	-0.306
-384.990	391.595	0.077	0.157
-383.975	81.686	0.170	-0.182
-382.960	33.409	0.065	-0.055
-381.946	-56.267	0.420	0.185
-380.931	552.996	0.103	-0.245
-379.917	-35.067	-0.099	0.053
-378.902	800.000	0.132	0.412
-377.888	-26.032	-0.146	-0.085
-376.873	-200.000	-0.013	0.138
-375.858	48.042	0.231	-0.214
-374.844	355.186	0.035	0.068
-373.829	-16.299	0.241	0.151
-372.815	92.789	-0.307	0.343
-371.800	-160.075	0.278	-0.015
-370.785	51.762	0.201	-0.189
-369.771	-200.000	-0.047	-0.255
-368.756	-200.000	0.013	-0.186
-367.742	-141.768	-0.229	-0.023
-366.727	51.001	-0.108	0.101
-365.712	-83.546	-0.268	-0.085
-364.698	318.349	0.126	-0.236
-363.683	745.357	0.036	-0.095
-362.669	54.416	-0.045	-0.043
-361.654	-89.031	-0.422	0.123
-360.639	245.406	-0.078	-0.129
-359.625	-200.000	-0.003	-0.170
-358.610	-100.871	-0.328	-0.080
-357.596	111.794	0.102	-0.122
-356.581	-200.000	-0.006	0.359
-355.566	-60.296	-0.204	0.086
-354.552	113.997	0.303	-0.365
-353.537	800.000	-0.066	0.204
-352.523	-87.586	-0.056	0.017
-351.508	130.004	0.148	-0.187
-350.493	-66.134	0.233	-0.092
-349.479	306.816	-0.130	-0.239
-348.464	-200.000	0.019	-0.115
-347.450	-92.571	0.137	0.038
-346.435	-138.967	0.245	-0.026
-345.420	-112.012	0.122	0.024
-344.406	52.959	0.255	-0.241
-343.391	-163.920	0.142	0.007
-342.377	266.587	0.030	0.051
-341.362	-115.512	-0.302	-0.056
-340.348	800.000	-0.054	-0.158
-339.333	800.000	0.060	-0.220
-338.318	-116.550	0.225	-0.041
-337.304	-18.698	-0.070	-0.043
-336.289	-111.383	0.339	-0.068
-335.275	-111.030	-0.051	0.010
-334.260	-85.327	0.076	-0.023
-333.245	-7.869	0.208	0.139
-332.231	-75.506	-0.262	-0.092
-331.216	-200.000	-0.006	0.033
-330.202	258.349	-0.242	-0.412
-329.187	0.371	0.154	0.108
-328.172	800.000	0.068	0.253
-327.158	800.000	0.076	0.279
-326.143	-121.133	-0.146	-0.024
-325.129	-90.660	-0.376	-0.107
-324.114	-75.645	-0.221	-0.078
-323.099	289.356	0.135	-0.241
-322.085	-140.646	0.189	-0.019
-321.070	800.000	0.012	-0.044
-320.056	-104.338	-0.255	0.058
-319.041	741.157	-0.052	0.139
-318.026	451.748	-0.055	-0.120
-317.012	106.386	0.106	-0.124
-315.997	390.793	0.110	0.226
-314.983	15.795	-0.238	-0.185
-313.968	-200.000	0.073	0.401
-312.953	-176.987	-0.132	0.003
-311.939	74.900	-0.070	-0.073
-310.924	57.085	0.284	-0.273
-309.910	234.184	-0.033	-0.053
-308.895	-200.000	0.002	-0.173
-307.880	800.000	-0.101	0.348
-306.866	143.289	0.200	0.263
-305.851	-149.198	-0.186	0.015
-304.837	-32.055	0.042	0.023
-303.822	-200.000	0.054	0.238
-302.807	-200.000	0.011	-0.195
-301.793	-128.554	0.079	-0.011
-300.778	-200.000	-0.017	0.144
-299.764	756.734	-0.084	0.224
-298.749	800.000	0.031	-0.100
-297.735	-200.000	0.004	-0.232
-296.720	-99.448	0.025	0.006
-295.705	-42.820	0.209	0.105
-294.691	386.408	0.194	0.394
-293.676	-83.919	0.450	0.141
-292.662	-137.066	0.199	-0.022
-291.647	-96.064	0.064	0.017
-290.632	-200.000	-0.051	-0.293
-289.618	335.794	-0.066	0.126
-288.603	83.740	0.176	0.189
-287.589	-51.985	-0.183	0.084
-286.574	174.713	0.232	-0.331
-285.559	-200.000	0.015	-0.253
-284.545	-60.530	0.194	0.081
-283.530	-200.000	-0.011	0.241
-282.516	-200.000	-0.033	0.292
-281.501	15.758	0.118	0.091
-280.486	-200.000	0.039	-0.185
-279.472	-41.590	0.064	-0.032
-278.457	7.894	0.254	0.188
-277.443	-26.506	0.127	-0.073
-276.428	311.664	-0.056	0.103
-275.413	13.543	0.291	0.222
-274.399	-130.219	-0.406	-0.054
-273.384	-27.073	-0.252	0.145
-272.370	-93.232	-0.277	-0.076
-271.355	-168.114	-0.198	0.008
-270.340	-65.133	-0.154	0.061
-269.326	209.759	0.082	-0.126
-268.311	-197.545	0.247	0.002
-267.297	800.000	0.005	0.019
-266.282	-5.864	0.288	-0.194
-265.267	-101.377	-0.046	0.011
-264.253	-93.204	0.417	-0.114
-263.238	51.826	0.234	0.219
-262.224	51.770	0.274	0.256
-261.209	66.437	-0.080	-0.081
-260.195	156.084	-0.083	-0.113
-259.180	-53.876	-0.610	-0.274
-258.165	-37.099	0.114	0.060
-257.151	6.097	0.205	0.149
-256.136	-91.188	0.129	-0.036
-255.122	800.000	-0.059	-0.217
-254.107	-69.185	-0.074	-0.028
-253.092	800.000	-0.048	0.137
-252.078	-99.621	-0.275	-0.068
-251.063	175.204	0.270	0.384
-250.049	113.574	-0.194	-0.231
-249.034	-119.301	0.137	0.023
-248.019	20.185	0.342	-0.272
-247.005	134.146	-0.147	0.187
-245.990	138.313	0.097	-0.126
-244.976	-160.194	-0.028	-0.001
-243.961	-60.657	-0.109	0.046
-242.946	-133.243	-0.240	-0.030
-241.932	158.435	-0.132	0.180
-240.917	-150.297	0.023	-0.002
-239.903	46.815	0.305	0.279
-238.888	-200.000	0.008	0.132
-237.873	800.000	-0.054	0.174
-236.859	208.250	0.087	-0.133
-235.844	-64.132	0.301	-0.121
-234.830	-15.515	0.235	0.147
-233.815	-131.358	0.045	0.006
-232.800	3.778	-0.090	0.065
-231.786	227.235	-0.205	-0.328
-230.771	-200.000	0.026	-0.562
-229.757	800.000	0.051	0.190
-228.742	-200.000	0.038	-0.243
-227.727	-85.887	-0.184	-0.056
-226.713	-100.928	0.396	-0.096
-225.698	-150.509	-0.248	-0.019
-224.684	-64.364	0.192	-0.077
-223.669	-119.763	0.191	-0.032
-222.655	25.128	-0.241	-0.196
-221.640	-200.000	0.001	-0.278
-220.625	-45.270	-0.185	-0.090
-219.611	-120.000	-0.184	0.031
-218.596	56.661	-0.108	-0.104
-217.582	800.000	0.068	0.232
-216.567	-112.639	0.349	0.068
-215.552	-126.644	0.497	-0.072
-214.538	148.673	-0.196	0.260
-213.523	800.000	-0.067	0.262
-212.509	579.923	-0.032	-0.077
-211.494	-52.748	-0.231	0.105
-210.479	-141.425	0.027	0.003
-209.465	-77.304	0.105	0.036
-208.450	46.238	0.197	0.180
-207.436	170.326	-0.072	0.101
-206.421	-44.367	-0.276	-0.136
-205.406	-133.928	-0.405	0.049
-204.392	-196.484	-0.046	0.000
-203.377	800.000	-0.154	-0.488
-202.363	-200.000	0.019	0.192
-201.348	179.037	0.145	-0.209
-200.333	800.000	-0.082	0.324
-199.319	-113.724	0.305	0.058
-198.304	-128.465	0.275	-0.038
-197.290	99.097	0.102	0.115
-196.275	-193.294	-0.240	-0.002
-195.260	-36.387	0.075	0.040
-194.246	-7.600	-0.245	0.163
-193.231	44.695	0.267	0.241
-192.217	59.161	-0.145	-0.140
-191.202	182.858	0.099	-0.143
-190.187	-71.736	0.239	0.088
-189.173	102.198	-0.064	0.073
-188.158	-200.000	-0.012	0.298
-187.144	-200.000	-0.000	0.057
-186.129	-70.176	-0.043	-0.016
-185.114	-34.593	0.277	0.149
-184.100	-42.318	-0.280	-0.140
-183.085	364.691	-0.152	0.300
-182.071	224.997	0.263	0.418
-181.056	800.000	0.048	0.174
-180.042	-29.932	-0.116	-0.065
-179.027	-185.433	0.314	-0.005
-178.012	320.301	-0.062	-0.116
-176.998	53.426	-0.236	0.222
-175.983	223.829	-0.154	0.245
-174.969	47.715	-0.152	-0.139
-173.954	133.034	-0.082	0.104
-172.939	590.801	-0.108	-0.262
-171.925	-86.692	-0.173	-0.052
-170.910	-200.000	-0.025	0.253
-169.896	-200.000	-0.044	0.295
-168.881	31.840	0.180	0.152
-167.866	799.524	0.046	-0.125
-166.852	25.892	0.260	0.213
-165.837	470.663	-0.104	0.229
-164.823	125.700	-0.149	0.185
-163.808	179.986	-0.073	0.105
-162.793	-107.223	-0.118	0.026
-161.779	-18.805	-0.144	0.088
-160.764	-41.252	-0.133	0.067
-159.750	113.323	-0.110	0.131
-158.735	-200.000	-0.037	-0.250
-157.720	-41.291	0.367	0.185
-156.706	43.952	0.065	0.059
-155.691	406.515	0.113	0.233
-154.677	-29.199	-0.059	0.033
-153.662	0.528	0.073	0.051
-152.647	-200.000	0.007	0.162
-151.633	634.383	-0.028	-0.070
-150.618	-200.000	-0.067	0.327
-149.604	-67.622	-0.146	-0.056
-148.589	145.344	0.091	0.119
-147.574	197.416	0.175	-0.262
-146.560	235.068	-0.028	-0.046
-145.545	346.448	-0.027	-0.053
-144.531	-51.796	-0.350	0.160
-143.516	-15.011	-0.243	-0.152
-142.502	-200.000	0.003	-0.037
-141.487	418.377	0.111	0.233
-140.472	-200.000	0.023	0.251
-139.458	240.291	0.084	0.137
-138.443	97.791	0.161	0.181
-137.429	-200.000	-0.011	0.116
-136.414	-187.372	-0.189	-0.002
-135.399	325.008	0.061	-0.115
-134.385	30.597	0.175	0.147
-133.370	-86.639	-0.108	-0.032
-132.356	-71.083	0.157	-0.058
-131.341	116.973	-0.145	0.174
-130.326	659.510	-0.083	0.209
-129.312	-61.214	0.150	-0.062
-128.297	-46.476	0.235	-0.113
-127.283	800.000	0.006	-0.020
-126.268	-200.000	-0.035	0.218
-125.253	800.000	0.125	-0.390
-124.239	366.814	-0.139	-0.275
-123.224	-124.013	-0.110	0.017
-122.210	-53.905	-0.118	0.053
-121.195	529.683	0.050	0.117
-120.180	151.286	-0.083	-0.111
-119.166	-77.881	0.299	0.101
-118.151	-200.000	0.021	0.144
-117.137	800.000	0.032	-0.091
-116.122	164.311	-0.349	0.481
-115.107	800.000	0.134	0.493
-114.093	288.947	-0.200	0.354
-113.078	-80.490	-0.298	-0.097
-112.064	-200.000	0.057	-0.445
-111.049	754.865	0.094	-0.248
-110.034	-200.000	0.017	0.077
-109.020	-200.000	0.042	0.204
-108.005	-76.908	0.089	-0.030
-106.991	688.569	-0.025	0.064
-105.976	-60.305	-0.352	-0.146
-104.962	45.016	-0.202	-0.182
-103.947	-97.580	0.186	0.047
-102.932	177.762	-0.114	-0.162
-101.918	-200.000	0.036	0.184
-100.903	-200.000	-0.002	-0.178
-99.889	274.295	-0.153	0.264
-98.874	86.677	0.171	0.185
-97.859	800.000	-0.084	-0.335
-96.845	43.688	-0.120	0.107
-95.830	-143.239	0.278	0.026
-94.816	-173.423	0.161	0.005
-93.801	93.595	-0.153	0.169
-92.786	-200.000	0.042	0.229
-91.772	52.795	0.034	-0.032
-90.757	-91.709	0.176	-0.049
-89.743	-200.000	-0.013	0.207
-88.728	-200.000	0.010	-0.390
-87.713	176.183	-0.118	0.167
-86.699	-81.763	0.070	0.023
-85.684	-118.171	0.191	-0.033
-84.670	-163.547	0.442	0.020
-83.655	-155.837	0.138	0.009
-82.640	-200.000	0.045	0.245
-81.626	227.764	-0.067	-0.107
-80.611	-111.214	0.150	0.030
-79.597	-66.933	0.208	-0.081
-78.582	-120.231	-0.413	-0.069
-77.567	13.252	-0.158	0.119
-76.553	-154.947	0.184	-0.012
-75.538	-79.213	0.144	-0.048
-74.524	165.368	-0.143	-0.197
-73.509	-85.847	-0.291	0.088
-72.494	542.970	-0.182	-0.425
-71.480	37.145	-0.139	-0.120
-70.465	676.207	0.098	0.249
-69.451	-6.548	-0.091	0.061
-68.436	-165.207	0.196	-0.008
-67.422	-132.163	0.162	0.020
-66.407	31.366	-0.115	0.096
-65.392	-32.250	-0.071	-0.039
-64.378	91.140	-0.119	-0.130
-63.363	800.000	-0.036	0.125
-62.349	800.000	-0.061	0.194
-61.334	98.340	-0.889	-1.001
-60.319	-9.992	0.567	0.368
-59.305	800.000	-0.248	-0.798
-58.290	199.418	0.760	1.138
-57.276	601.527	0.588	1.426
-56.261	-200.000	117.818	648.129
-55.246	491.985	1554.136	3476.922
-54.232	173.816	2725.033	3842.075
-53.217	104.746	2179.366	2508.311
-52.203	36.763	1692.223	1460.139
-51.188	29.214	1507.631	1249.837
-50.173	27.082	1482.541	1214.753
-49.159	50.064	1544.562	1423.333
-48.144	48.224	1559.038	1424.045
-47.130	29.448	1513.141	1255.803
-46.115	26.327	1498.299	1222.367
-45.100	26.143	1494.848	1218.261
-44.086	26.146	1492.888	1216.634
-43.071	26.039	1490.814	1214.172
-42.057	25.974	1489.491	1212.611
-41.042	26.033	1488.131	1211.854
-40.027	26.031	1486.257	1210.266
-39.013	25.945	1485.422	1208.957
-37.998	25.910	1484.436	1207.875
-36.984	26.042	1483.366	1207.838
-35.969	26.185	1481.825	1207.491
-34.954	26.060	1480.050	1205.163
-33.940	26.030	1478.856	1203.948
-32.925	26.140	1477.119	1203.219
-31.911	26.108	1475.800	1201.881
-30.896	26.139	1474.593	1201.054
-29.881	26.212	1473.188	1200.352
-28.867	26.090	1472.082	1198.592
-27.852	26.211	1470.345	1197.931
-26.838	26.142	1469.315	1196.589
-25.823	26.152	1468.010	1195.540
-24.809	26.105	1466.839	1194.233
-23.794	26.179	1465.058	1193.225
-22.779	26.089	1464.489	1192.118
-21.765	26.100	1463.016	1190.943
-20.750	26.185	1461.463	1190.190
-19.736	26.108	1460.670	1188.995
-18.721	26.025	1459.972	1187.833
-17.706	26.038	1458.301	1186.512
-16.692	26.076	1457.336	1185.926
-15.677	26.147	1456.209	1185.429
-14.663	26.032	1455.180	1183.789
-13.648	25.971	1454.520	1182.809
-12.633	25.977	1453.690	1182.120
-11.619	26.024	1452.981	1181.805
-10.604	26.091	1451.858	1181.289
-9.590	25.992	1450.933	1179.838
-8.575	26.149	1449.703	1179.815
-7.560	26.093	1448.763	1178.641
-6.546	26.050	1448.231	1177.880
-5.531	26.083	1447.103	1177.128
-4.517	26.094	1446.552	1176.705
-3.502	26.056	1445.503	1175.562
-2.487	26.090	1444.714	1175.091
-1.473	25.980	1443.488	1173.334
-0.458	26.110	1441.903	1172.844
0.556	27.748	1432.649	1161.671
1.571	24.886	1408.074	1123.709
2.586	21.631	1350.063	1057.690
3.600	20.139	1268.756	985.428
4.615	19.124	1224.252	945.210
5.629	16.796	1168.139	889.597
6.644	10.011	1086.117	793.831
7.659	4.942	1049.812	743.104
8.673	4.455	1044.325	736.845
9.688	4.100	1041.128	732.845
10.702	3.977	1039.584	731.113
11.717	4.150	1037.649	730.502
12.731	6.491	1039.448	742.748
13.746	13.507	1048.809	782.635
14.761	19.944	1057.586	819.694
15.775	22.011	1059.531	830.921
16.790	21.862	1057.834	828.811
17.804	20.836	1056.187	822.608
18.819	20.045	1054.127	817.197
19.834	19.539	1053.069	813.920
20.848	19.588	1052.704	813.801
21.863	19.618	1051.976	813.303
22.877	19.453	1050.947	811.662
23.892	19.274	1050.150	810.133
24.907	19.108	1049.601	808.858
25.921	19.087	1048.837	808.100
26.936	19.012	1048.281	807.246
27.950	19.087	1046.958	806.509
28.965	19.057	1045.936	805.511
29.980	19.127	1044.630	804.760
30.994	19.363	1043.820	805.168
32.009	19.447	1042.980	804.837
33.023	19.549	1042.706	805.031
34.038	19.466	1041.242	803.441
35.053	19.364	1040.340	802.200
36.067	19.324	1039.009	800.917
37.082	19.151	1038.572	799.710
38.096	19.143	1038.429	799.488
39.111	19.259	1037.059	798.905
40.126	19.494	1035.865	798.998
41.140	19.337	1035.010	797.544
42.155	19.010	1033.333	794.672
43.169	18.819	1032.188	792.836
44.184	18.649	1031.352	791.343
45.199	18.692	1030.474	790.798
46.213	18.643	1029.397	789.675
47.228	18.701	1029.209	789.727
48.242	19.095	1028.132	790.642
49.257	19.148	1027.505	790.332
50.271	19.192	1026.263	789.507
51.286	19.167	1025.773	788.945
52.301	19.297	1024.941	788.830
53.315	19.300	1024.338	788.311
54.330	19.062	1023.512	786.518
55.344	18.948	1022.280	784.981
56.359	18.896	1020.761	783.509
57.374	18.911	1020.577	783.366
58.388	18.903	1019.458	782.401
59.403	18.756	1018.692	781.077
60.417	18.603	1018.001	779.782
61.432	18.747	1016.890	779.515
62.447	18.818	1016.510	779.478
63.461	18.611	1015.881	777.990
64.476	18.494	1014.816	776.574
65.490	18.469	1013.861	775.663
66.505	18.399	1012.912	774.549
67.520	18.502	1012.273	774.458
68.534	18.605	1011.277	774.091
69.549	18.619	1010.830	773.748
70.563	18.437	1010.281	772.439
71.578	18.457	1009.436	771.811
72.593	18.323	1008.152	770.160
73.607	18.266	1007.123	769.047
74.622	18.277	1006.152	768.286
75.636	18.193	1005.621	767.440
76.651	18.374	1005.219	767.876
77.666	18.309	1004.072	766.640
78.680	18.436	1003.325	766.570
79.695	18.333	1003.182	765.935
80.709	18.494	1002.207	765.838
81.724	18.521	1001.988	765.724
82.739	18.765	1000.657	765.730
83.753	18.764	1000.519	765.550
84.768	19.136	999.705	766.515
85.782	19.457	998.964	767.306
86.797	19.631	998.701	767.812
87.812	19.656	997.869	767.216
88.826	19.373	996.583	764.905
89.841	19.318	995.726	763.936
90.855	19.402	994.839	763.556
91.870	19.442	994.441	763.364
92.884	19.478	994.067	763.165
93.899	19.521	993.225	762.641
94.914	19.466	992.316	761.633
95.928	19.623	991.340	761.512
96.943	19.549	990.855	760.745
97.957	19.411	989.913	759.348
98.972	19.298	988.942	758.037
99.987	19.298	988.194	757.397
101.001	19.442	987.712	757.593
102.016	19.284	986.835	756.159
103.030	19.324	985.633	755.347
104.045	19.471	984.731	755.231
105.060	19.365	984.068	754.192
106.074	19.273	983.149	753.021
107.089	18.972	982.146	750.870
108.103	18.876	980.641	749.237
109.118	18.678	979.645	747.549
110.133	18.653	978.956	746.848
111.147	18.444	977.983	745.127
112.162	18.510	977.334	744.855
113.176	18.648	976.287	744.592
114.191	18.727	975.586	744.331
115.206	18.818	975.316	744.455
116.220	18.789	973.923	743.201
117.235	18.754	973.214	742.441
118.249	18.745	972.538	741.822
119.264	18.689	971.466	740.697
120.279	18.634	970.699	739.811
121.293	18.547	969.683	738.596
122.308	18.377	969.047	737.312
123.322	18.392	967.970	736.491
124.337	18.278	966.802	735.051
125.352	18.277	965.611	734.075
126.366	18.204	964.585	732.917
127.381	18.345	963.755	732.827
128.395	18.433	962.157	731.920
129.410	18.349	961.902	731.305
130.424	18.361	961.241	730.786
131.439	18.520	960.127	730.554
132.454	18.599	959.636	730.454
133.468	18.781	959.039	730.706
134.483	18.759	958.577	730.198
135.497	18.768	957.604	729.430
136.512	18.762	956.999	728.879
137.527	18.815	956.088	728.346
138.541	18.795	955.712	727.911
139.556	18.867	954.878	727.514
140.570	18.802	954.266	726.711
141.585	18.905	953.678	726.632
142.600	19.184	953.295	727.454
143.614	19.194	952.224	726.614
144.629	19.313	951.965	726.857
145.643	19.476	951.117	726.831
146.658	19.414	950.161	725.773
147.673	19.245	948.769	723.936
148.687	19.029	947.954	722.343
149.702	18.982	947.213	721.520
150.716	18.858	946.042	720.042
151.731	18.887	945.056	719.353
152.746	18.787	944.929	718.771
153.760	18.929	944.150	718.709
154.775	18.919	943.341	717.988
155.789	18.993	943.024	717.994
156.804	19.170	941.589	717.573
157.819	19.167	940.677	716.802
158.833	19.242	940.293	716.759
159.848	19.311	939.814	716.619
160.862	19.462	939.207	716.719
161.877	19.544	938.071	716.126
162.892	19.175	937.284	713.933
163.906	18.852	936.223	711.727
164.921	18.782	935.540	710.851
165.935	18.755	934.143	709.616
166.950	18.833	933.498	709.389
167.964	18.955	932.699	709.220
168.979	18.882	931.728	708.117
169.994	18.919	930.939	707.607
171.008	18.922	929.403	706.391
172.023	18.959	928.967	706.148
173.037	19.218	928.829	707.044
174.052	19.400	927.516	706.729
175.067	19.293	927.021	705.850
176.081	18.969	926.244	703.870
177.096	18.896	924.884	702.475
178.110	18.853	923.761	701.387
179.125	18.833	923.225	700.835
180.140	18.885	922.749	700.623
181.154	18.981	922.117	700.475
182.169	19.145	921.926	700.933
183.183	19.216	921.219	700.621
184.198	19.414	920.423	700.761
185.213	19.343	919.855	699.976
186.227	19.295	919.088	699.135
187.242	19.401	918.920	699.378
188.256	19.618	917.889	699.408
189.271	19.716	917.427	699.392
190.286	19.643	916.615	698.416
191.300	19.398	915.847	696.780
192.315	18.840	914.522	693.457
193.329	18.760	913.433	692.250
194.344	18.655	913.046	691.470
195.359	18.843	913.209	692.289
196.373	18.981	912.398	692.169
197.388	19.150	912.106	692.569
198.402	19.350	911.669	692.978
199.417	19.474	911.705	693.441
200.432	19.675	910.879	693.558
201.446	19.718	910.289	693.220
202.461	19.887	910.037	693.644
203.475	19.956	909.581	693.513
204.490	19.903	909.273	693.006
205.504	19.564	907.997	690.617
206.519	19.491	906.915	689.438
207.534	19.325	906.410	688.332
208.548	19.463	905.326	687.998
209.563	19.431	904.683	687.321
210.577	19.498	903.770	686.834
211.592	19.645	903.097	686.848
212.607	19.886	902.787	687.508
213.621	20.004	902.622	687.790
214.636	19.710	902.072	686.141
215.650	19.823	900.971	685.691
216.665	19.628	900.953	684.843
217.680	19.835	900.331	685.132
218.694	19.890	899.897	684.957
219.709	19.781	899.784	684.379
220.723	19.904	898.614	683.914
221.738	19.908	897.897	683.323
222.753	19.956	897.025	682.791
223.767	19.912	896.305	682.009
224.782	19.848	895.664	681.207
225.796	19.989	895.574	681.634
226.811	20.086	894.428	681.082
227.826	19.898	894.015	679.969
228.840	19.788	893.441	679.040
229.855	19.798	892.576	678.365
230.869	19.702	891.909	677.419
231.884	19.742	891.092	676.896
232.899	19.707	890.333	676.123
233.913	19.483	889.584	674.617
234.928	19.587	888.862	674.417
235.942	19.557	888.212	673.749
236.957	19.387	887.268	672.307
237.972	19.276	886.995	671.610
238.986	19.369	886.405	671.465
240.001	19.597	885.328	671.476
241.015	19.452	885.176	670.740
242.030	19.526	884.203	670.228
243.045	19.770	883.564	670.632
244.059	19.651	883.162	669.808
245.074	19.797	882.617	669.898
246.088	19.950	881.469	669.561
247.103	19.998	881.298	669.558
248.117	20.132	881.150	669.902
249.132	20.212	881.160	670.159
250.147	20.491	880.430	670.622
251.161	20.684	880.088	671.050
252.176	20.795	879.631	671.067
253.190	20.832	878.753	670.481
254.205	20.906	878.476	670.496
255.220	20.824	878.219	669.926
256.234	20.903	877.103	669.318
257.249	20.736	876.621	668.248
258.263	20.785	876.010	667.912
259.278	20.707	875.523	667.183
260.293	20.681	874.823	666.492
261.307	20.870	874.282	666.743
262.322	20.781	873.994	666.125
263.336	20.903	873.293	665.997
264.351	21.004	872.644	665.830
265.366	20.799	872.029	664.517
266.380	20.913	871.335	664.366
267.395	20.925	870.909	664.027
268.409	20.814	869.886	662.767
269.424	20.688	869.396	661.855
270.439	20.667	868.314	660.893
271.453	20.739	867.480	660.475
272.468	20.452	866.660	658.703
273.482	20.637	865.905	658.771
274.497	20.552	865.732	658.261
275.512	20.506	865.159	657.593
276.526	20.592	864.049	657.016
277.541	20.537	863.593	656.401
278.555	20.628	862.721	656.024
279.570	20.824	862.599	656.613
280.585	20.985	862.584	657.148
281.599	21.072	861.747	656.783
282.614	20.903	861.129	655.616
283.628	20.714	860.075	654.045
284.643	20.631	859.916	653.555
285.657	20.819	859.220	653.674
286.672	20.762	858.926	653.180
287.687	20.654	858.458	652.359
288.701	20.836	857.735	652.433
289.716	20.790	857.096	651.720
290.730	20.724	856.648	651.075
291.745	20.838	856.010	650.959
292.760	20.856	855.512	650.590
293.774	20.990	854.831	650.511
294.789	21.023	854.640	650.431
295.803	21.086	853.898	650.047
296.818	20.663	853.455	648.077
297.833	20.858	852.248	647.828
298.847	20.605	851.885	646.554
299.862	20.809	850.959	646.550
300.876	20.836	850.352	646.132
301.891	20.959	849.805	646.116
302.906	21.190	849.708	646.839
303.920	21.188	849.211	646.396
304.935	21.507	848.308	646.833
305.949	21.643	847.782	646.875
306.964	21.516	847.474	646.114
307.979	21.211	846.336	644.067
308.993	21.293	845.753	643.867
310.008	21.263	845.655	643.626
311.022	21.369	845.188	643.604
312.037	21.381	844.484	643.055
313.052	21.107	843.999	641.621
314.066	20.898	843.379	640.324
315.081	20.825	842.269	639.158
316.095	20.857	841.821	638.879
317.110	20.867	841.317	638.476
318.125	20.904	840.419	637.872
319.139	20.734	840.269	637.081
320.154	20.789	839.553	636.684
321.168	20.889	839.320	636.817
322.183	20.958	838.794	636.611
323.197	21.021	837.978	636.166
324.212	21.097	837.832	636.276
325.227	20.930	837.370	635.261
326.241	20.991	836.647	634.879
327.256	20.970	835.958	634.220
328.270	20.954	835.477	633.741
329.285	20.818	835.029	632.854
330.300	20.808	834.361	632.253
331.314	20.994	833.486	632.209
332.329	20.975	833.033	631.741
333.343	21.102	832.599	631.816
334.358	21.255	831.920	631.797
335.373	21.376	831.581	631.921
336.387	21.396	830.947	631.458
337.402	21.555	830.649	631.747
338.416	21.401	830.348	630.908
339.431	21.582	829.725	631.031
340.446	21.765	829.230	631.257
341.460	21.851	828.876	631.244
342.475	21.888	828.219	630.821
343.489	21.965	827.669	630.620
344.504	21.920	827.321	630.138
345.519	21.905	827.274	629.994
346.533	22.268	826.410	630.581
347.548	22.044	825.798	629.256
348.562	21.965	824.933	628.257
349.577	21.582	824.447	626.463
350.592	21.510	823.697	625.579
351.606	21.487	822.985	624.902
352.621	21.316	822.867	624.145
353.635	21.370	822.293	623.849
354.650	21.241	822.335	623.364
355.665	21.453	821.762	623.632
356.679	21.521	821.326	623.487
357.694	21.487	820.857	622.956
358.708	21.603	819.894	622.581
359.723	21.650	819.342	622.275
360.738	21.769	818.861	622.277
361.752	21.563	818.990	621.586
362.767	21.807	818.295	621.872
363.781	21.879	817.947	621.808
364.796	21.995	817.769	622.026
365.810	22.203	817.034	622.149
366.825	22.272	816.874	622.217
367.840	22.274	816.670	622.012
368.854	22.419	816.018	621.973
369.869	22.187	815.383	620.617
370.883	21.953	814.740	619.246
371.898	22.180	814.060	619.473
372.913	22.176	813.832	619.231
373.927	22.216	813.513	619.075
374.942	22.064	812.451	617.679
375.956	22.072	811.777	617.140
376.971	22.168	811.272	617.038
377.986	22.293	810.849	617.100
379.000	22.499	810.571	617.556
380.015	22.510	810.333	617.359
381.029	22.464	809.459	616.476
382.044	22.422	808.841	615.806
383.059	22.431	808.552	615.562
384.073	22.425	807.948	615.027
385.088	22.360	807.215	614.185
386.102	22.249	806.548	613.238
387.117	22.057	805.793	611.942
388.132	21.965	805.156	611.083
389.146	22.009	805.036	611.092
390.161	22.000	804.645	610.707
391.175	22.287	804.260	611.360
392.190	22.349	804.361	611.598
393.205	22.312	803.752	610.953
394.219	22.194	802.926	609.862
395.234	22.129	802.378	609.164
396.248	21.865	801.968	607.884
397.263	21.833	801.054	607.028
398.278	21.721	800.736	606.345
399.292	21.780	800.333	606.192
400.307	21.828	799.634	605.774
401.321	21.850	799.313	605.554
402.336	21.805	798.948	605.067
403.350	21.942	798.650	605.261
404.365	22.219	798.323	605.914
405.380	22.359	798.054	606.137
406.394	22.386	797.832	606.009
407.409	22.560	797.051	605.961
408.423	22.628	797.209	606.261
409.438	22.702	796.458	605.893
410.453	22.668	796.200	605.524
411.467	22.801	795.681	605.534
412.482	22.663	795.602	604.947
413.496	22.921	794.774	605.146
414.511	22.985	794.376	605.010
415.526	23.022	794.064	604.843
416.540	22.769	793.694	603.643
417.555	22.837	793.424	603.616
418.569	22.776	792.597	602.726
419.584	22.906	792.083	602.724
420.599	22.836	791.601	602.066
421.613	165.404	1369.960	1796.804
422.628	143.478	1454.217	1796.895
