DTS Sentinel unit serial number:	SN413079Multiplexer serial number:	ORYXHardware model number:	OX4-SRSoftware version number:	ORYX F/W v4.00 Oryx Data Collector v3.7.2.0data status	okinstallation	princeton_trtdifferential loss correction	single-endedforward channel	channel 3reverse channel	N/Adate	2019/09/13time	21:12:35forward acquisition time	60.00reverse acquisition time	0.00gamma	496.2192k internal	0.2333k external	0.2333temperature offset calibration	1.0057default loss term (dB/km)	0.3790temperature slope calibration	1.0000multiplexer offset coefficient	1.0000multiplexer slope coefficient	1.0000fibre end	0.00T internal ref (°C)	28.50T ext. ref 1 (°C)	3.16T ext. ref 2 (°C)	23.04length (m)	temperature (°C)	Stokes	anti-Stokes-747.200	800.000	-0.027	0.111
-746.185	-58.971	-0.232	0.101
-745.171	283.681	-0.202	0.365
-744.156	800.000	-0.104	0.339
-743.142	800.000	-0.114	0.472
-742.127	800.000	0.067	0.224
-741.112	73.416	-0.142	0.149
-740.098	59.566	-0.223	0.221
-739.083	11.550	0.052	-0.040
-738.069	-24.626	-0.158	0.095
-737.054	800.000	0.040	-0.164
-736.039	-55.764	-0.173	0.078
-735.025	800.000	-0.134	0.375
-734.010	-200.000	0.008	-0.244
-732.996	-55.509	-0.326	-0.147
-731.981	98.635	0.247	0.286
-730.966	-200.000	0.010	-0.057
-729.952	-56.204	-0.505	0.226
-728.937	800.000	-0.036	-0.137
-727.923	-92.179	0.193	-0.055
-726.908	-200.000	-0.000	-0.215
-725.894	427.235	-0.128	0.277
-724.879	800.000	-0.025	0.108
-723.864	-65.599	-0.168	0.068
-722.850	-200.000	-0.005	0.161
-721.835	-59.260	-0.238	-0.103
-720.821	-200.000	-0.021	0.213
-719.806	-1.736	0.480	0.340
-718.791	-131.042	0.130	-0.017
-717.777	-109.886	0.209	0.044
-716.762	26.474	-0.279	0.234
-715.748	-200.000	0.003	0.094
-714.733	82.154	-0.287	-0.313
-713.718	287.087	0.106	-0.193
-712.704	800.000	-0.084	-0.334
-711.689	-42.694	-0.169	-0.086
-710.675	89.122	0.112	0.126
-709.660	-86.184	-0.309	-0.096
-708.645	96.256	-0.130	0.149
-707.631	-80.777	-0.351	-0.117
-706.616	800.000	0.091	-0.260
-705.602	-122.300	0.064	-0.010
-704.587	-200.000	0.014	0.154
-703.572	207.247	0.126	0.197
-702.558	69.203	-0.224	0.232
-701.543	-51.865	-0.053	0.025
-700.529	93.753	0.191	0.217
-699.514	-3.585	0.189	-0.132
-698.499	-83.487	0.263	-0.085
-697.485	-81.004	-0.116	0.038
-696.470	-58.802	-0.079	-0.034
-695.456	538.188	-0.133	-0.317
-694.441	-200.000	0.033	-0.460
-693.426	-41.087	-0.187	-0.097
-692.412	-41.892	0.207	-0.107
-691.397	518.777	0.081	0.189
-690.383	315.292	0.062	-0.117
-689.368	322.737	0.100	-0.192
-688.354	-200.000	0.042	0.508
-687.339	-127.802	0.141	0.020
-686.324	120.649	0.198	-0.246
-685.310	-100.012	0.306	-0.077
-684.295	800.000	-0.077	-0.294
-683.281	-200.000	-0.028	-0.255
-682.266	-177.371	-0.275	0.007
-681.251	-17.807	-0.114	0.072
-680.237	-97.923	0.202	0.052
-679.222	42.238	0.087	0.080
-678.208	97.484	0.180	-0.208
-677.193	-200.000	0.010	0.197
-676.178	-43.935	-0.387	-0.195
-675.164	-9.589	0.291	-0.194
-674.149	800.000	-0.085	-0.292
-673.135	800.000	0.021	-0.082
-672.120	800.000	0.127	-0.363
-671.105	335.899	0.164	-0.319
-670.091	-200.000	-0.019	0.152
-669.076	-114.549	-0.209	0.040
-668.062	-32.659	0.031	-0.017
-667.047	-200.000	0.007	0.286
-666.032	0.485	-0.355	0.254
-665.018	-200.000	0.018	0.329
-664.003	-155.025	-0.389	0.026
-662.989	-15.411	-0.248	0.159
-661.974	-27.471	-0.208	0.121
-660.959	-200.000	-0.034	0.158
-659.945	-168.620	-0.116	0.004
-658.930	-45.808	-0.427	0.211
-657.916	267.210	0.205	-0.359
-656.901	-166.780	0.267	0.011
-655.886	-10.738	-0.124	0.082
-654.872	91.310	0.162	0.182
-653.857	-26.361	0.334	0.196
-652.843	-53.300	-0.414	0.190
-651.828	617.524	-0.055	-0.138
-650.814	317.912	-0.071	-0.135
-649.799	-200.000	0.004	0.102
-648.784	-75.492	0.191	0.068
-647.770	-108.270	-0.268	0.058
-646.755	-123.843	-0.363	-0.057
-645.741	479.558	0.045	-0.102
-644.726	573.592	0.064	-0.157
-643.711	56.248	0.126	-0.122
-642.697	504.546	0.032	-0.075
-641.682	800.000	0.129	-0.399
-640.668	-29.490	0.152	0.087
-639.653	-59.123	-0.229	0.099
-638.638	-18.635	0.108	0.067
-637.624	182.898	0.228	0.336
-636.609	-7.686	-0.139	-0.094
-635.595	-5.231	-0.166	0.114
-634.580	11.330	0.272	-0.209
-633.565	58.399	-0.108	0.106
-632.551	133.399	-0.169	0.218
-631.536	116.108	0.157	-0.193
-630.522	411.040	-0.200	-0.425
-629.507	-47.728	0.187	-0.091
-628.492	-200.000	-0.001	0.027
-627.478	53.409	0.132	-0.127
-626.463	-22.046	-0.098	0.060
-625.449	97.027	-0.056	-0.065
-624.434	800.000	0.051	0.164
-623.419	-105.255	0.134	-0.031
-622.405	-163.786	-0.861	-0.040
-621.390	696.477	-0.060	-0.158
-620.376	720.986	-0.077	-0.206
-619.361	800.000	0.021	0.080
-618.346	-181.211	0.130	0.003
-617.332	-56.499	0.066	0.029
-616.317	171.497	-0.051	0.074
-615.303	243.515	-0.192	-0.322
-614.288	-53.754	-0.176	-0.080
-613.273	180.257	-0.104	0.152
-612.259	-200.000	0.006	-0.084
-611.244	295.891	0.098	0.179
-610.230	-58.230	0.107	-0.047
-609.215	-125.750	-0.147	0.022
-608.201	-200.000	0.001	0.115
-607.186	8.186	-0.100	-0.075
-606.171	169.428	-0.197	0.281
-605.157	-102.048	-0.234	0.056
-604.142	-152.668	-0.417	0.030
-603.128	-37.809	-0.289	0.154
-602.113	-73.850	0.190	0.069
-601.098	-57.398	0.177	0.078
-600.084	758.083	-0.086	0.233
-599.069	58.398	-0.069	0.068
-598.055	142.389	-0.170	0.226
-597.040	-1.904	-0.073	-0.051
-596.025	292.650	0.127	-0.231
-595.011	-136.573	-0.297	0.034
-593.996	-200.000	0.015	-0.140
-592.982	434.283	-0.180	-0.391
-591.967	-92.111	0.312	-0.088
-590.952	127.966	0.233	-0.296
-589.938	-200.000	-0.018	-0.157
-588.923	34.323	-0.183	-0.159
-587.909	31.258	-0.371	0.319
-586.894	414.224	0.030	0.063
-585.879	132.217	0.190	0.244
-584.865	129.125	-0.198	-0.253
-583.850	-200.000	-0.026	-0.147
-582.836	-54.890	-0.496	-0.223
-581.821	800.000	-0.119	0.329
-580.806	-51.604	0.295	-0.138
-579.792	-58.245	0.380	-0.165
-578.777	800.000	0.040	-0.144
-577.763	-200.000	-0.020	0.103
-576.748	71.044	0.038	-0.039
-575.733	-95.855	0.335	0.089
-574.719	-200.000	-0.008	-0.058
-573.704	-26.850	-0.358	0.209
-572.690	116.500	0.078	-0.095
-571.675	16.987	0.117	-0.093
-570.661	-191.752	0.077	-0.001
-569.646	17.876	-0.123	-0.098
-568.631	237.423	0.068	-0.113
-567.617	-200.000	-0.017	0.076
-566.602	44.816	-0.356	0.327
-565.588	-200.000	0.044	-0.237
-564.573	437.170	-0.105	0.228
-563.558	-126.717	0.203	0.030
-562.544	-200.000	-0.083	-0.424
-561.529	142.043	0.025	-0.033
-560.515	-200.000	-0.029	0.230
-559.500	-69.774	-0.180	0.069
-558.485	-88.547	-0.344	-0.102
-557.471	800.000	0.025	-0.100
-556.456	39.800	-0.227	-0.204
-555.442	43.484	-0.068	0.062
-554.427	-160.467	0.238	0.013
-553.412	31.793	-0.133	0.114
-552.398	262.280	-0.137	-0.237
-551.383	17.447	0.240	-0.191
-550.369	142.968	-0.176	0.233
-549.354	689.549	0.096	0.250
-548.339	-62.576	0.036	-0.015
-547.325	89.914	0.062	0.069
-546.310	-200.000	0.001	0.115
-545.296	738.113	0.136	-0.365
-544.281	-200.000	-0.017	-0.144
-543.266	184.036	0.103	-0.153
-542.252	-74.036	-0.195	0.071
-541.237	480.810	-0.079	0.179
-540.223	-22.423	0.096	0.058
-539.208	-60.275	0.065	-0.028
-538.193	-23.248	-0.096	-0.058
-537.179	-200.000	0.049	-0.218
-536.164	-200.000	0.019	-0.136
-535.150	109.431	-0.161	-0.192
-534.135	800.000	0.143	-0.490
-533.121	211.264	-0.227	-0.355
-532.106	-200.000	0.005	-0.168
-531.091	800.000	-0.023	-0.086
-530.077	185.839	0.176	0.261
-529.062	-189.640	-0.085	-0.001
-528.048	-146.688	0.277	-0.024
-527.033	61.085	0.161	-0.159
-526.018	7.906	0.098	0.073
-525.004	-200.000	-0.036	-0.183
-523.989	71.009	-0.194	-0.201
-522.975	-95.566	-0.487	-0.130
-521.960	-128.687	0.143	-0.020
-520.945	-153.671	-0.090	-0.006
-519.931	124.269	-0.076	0.095
-518.916	190.381	0.046	-0.068
-517.902	-98.597	-0.290	-0.074
-516.887	-122.718	-0.375	-0.060
-515.872	29.572	-0.198	-0.168
-514.858	-130.254	0.298	-0.040
-513.843	-200.000	0.003	-0.172
-512.829	-147.853	0.097	0.008
-511.814	592.756	0.076	-0.187
-510.799	-119.505	0.400	0.069
-509.785	800.000	-0.096	0.322
-508.770	658.015	-0.068	-0.173
-507.756	-53.664	0.087	-0.040
-506.741	-36.189	-0.184	0.099
-505.726	41.951	0.032	-0.029
-504.712	43.133	-0.198	-0.180
-503.697	-200.000	0.011	-0.147
-502.683	119.446	-0.130	-0.160
-501.668	-4.783	0.260	0.179
-500.653	-105.851	-0.205	0.046
-499.639	-160.644	0.212	0.011
-498.624	-200.000	0.027	-0.221
-497.610	8.422	-0.367	0.275
-496.595	235.943	0.020	0.032
-495.581	-101.428	-0.366	0.089
-494.566	290.175	0.257	-0.465
-493.551	-146.430	0.394	-0.034
-492.537	58.215	0.180	0.175
-491.522	12.605	-0.250	-0.192
-490.508	-25.401	0.400	0.235
-489.493	-28.812	0.164	0.094
-488.478	800.000	-0.076	0.289
-487.464	615.709	-0.072	-0.179
-486.449	-117.782	-0.395	-0.071
-485.435	-200.000	-0.008	0.111
-484.420	-18.883	0.201	-0.124
-483.405	-56.016	-0.251	-0.111
-482.391	800.000	0.088	0.249
-481.376	-200.000	-0.012	0.167
-480.362	26.289	0.197	0.164
-479.347	-100.765	0.339	-0.083
-478.332	-200.000	0.040	0.294
-477.318	-143.809	0.256	-0.024
-476.303	-135.043	-0.263	-0.032
-475.289	85.525	-0.110	-0.121
-474.274	-200.000	-0.013	0.101
-473.259	21.115	-0.201	0.162
-472.245	-174.400	-0.402	-0.012
-471.230	800.000	0.045	-0.149
-470.216	-200.000	0.032	-0.165
-469.201	-95.521	0.052	0.014
-468.186	800.000	-0.025	0.099
-467.172	-84.776	-0.261	-0.082
-466.157	-50.092	0.349	0.164
-465.143	-29.443	-0.127	0.072
-464.128	24.108	0.101	0.083
-463.113	136.303	0.060	-0.078
-462.099	-200.000	0.000	0.213
-461.084	112.080	-0.254	-0.305
-460.070	115.840	0.085	-0.104
-459.055	-200.000	0.104	-0.518
-458.040	-200.000	-0.021	-0.163
-457.026	-141.207	-0.306	0.031
-456.011	800.000	-0.087	-0.257
-454.997	143.593	-0.197	0.260
-453.982	800.000	-0.029	0.098
-452.968	-38.743	0.150	0.079
-451.953	765.138	-0.063	0.170
-450.938	800.000	0.039	0.127
-449.924	268.690	-0.047	-0.083
-448.909	-127.550	-0.130	-0.019
-447.895	-151.753	-0.315	0.023
-446.880	652.004	0.059	-0.151
-445.865	18.920	0.126	-0.100
-444.851	291.720	-0.182	-0.329
-443.836	800.000	-0.032	-0.131
-442.822	523.409	0.041	0.096
-441.807	-65.226	0.234	0.094
-440.792	257.906	-0.050	-0.085
-439.778	-42.568	0.201	-0.102
-438.763	691.485	0.065	-0.170
-437.749	-200.000	0.000	0.167
-436.734	-130.779	0.139	-0.019
-435.719	-86.043	-0.483	-0.148
-434.705	-103.394	0.366	-0.086
-433.690	-200.000	0.060	-0.318
-432.676	12.965	0.019	-0.014
-431.661	53.609	-0.241	0.229
-430.646	800.000	0.081	0.262
-429.632	-200.000	0.031	0.275
-428.617	800.000	0.010	0.030
-427.603	-23.455	0.124	-0.074
-426.588	-143.789	-0.178	0.017
-425.573	10.222	0.152	0.115
-424.559	158.132	0.053	0.074
-423.544	48.910	-0.095	-0.089
-422.530	90.215	0.138	-0.154
-421.515	-200.000	0.003	-0.036
-420.500	-158.392	-0.365	0.021
-419.486	-200.000	-0.004	-0.241
-418.471	399.125	0.166	-0.345
-417.457	-200.000	0.038	-0.229
-416.442	-97.701	0.122	-0.031
-415.428	-200.000	-0.058	-0.319
-414.413	525.218	0.081	-0.190
-413.398	-200.000	0.057	0.290
-412.384	101.212	-0.095	-0.109
-411.369	-200.000	0.027	-0.144
-410.355	-38.199	-0.106	-0.056
-409.340	-87.771	0.063	-0.019
-408.325	-120.795	0.100	0.017
-407.311	0.696	0.268	0.190
-406.296	-110.153	-0.075	-0.015
-405.282	-11.674	0.133	0.087
-404.267	800.000	-0.030	-0.088
-403.252	-123.215	0.107	-0.017
-402.238	-156.650	0.121	-0.007
-401.223	-200.000	0.008	-0.159
-400.209	800.000	-0.007	-0.025
-399.194	114.491	-0.049	-0.060
-398.179	800.000	0.042	-0.123
-397.165	-49.343	-0.180	0.085
-396.150	72.829	0.190	0.197
-395.136	-127.898	0.185	-0.026
-394.121	-200.000	-0.031	0.181
-393.106	-41.405	0.230	0.118
-392.092	69.374	0.108	-0.110
-391.077	109.735	0.048	0.058
-390.063	211.110	0.114	-0.179
-389.048	-77.459	-0.054	0.019
-388.033	798.164	-0.044	0.122
-387.019	-72.358	0.310	0.114
-386.004	-188.982	-0.284	0.003
-384.990	387.140	0.015	0.031
-383.975	-38.926	0.111	-0.058
-382.960	-65.570	0.318	-0.127
-381.946	759.895	0.187	0.502
-380.931	800.000	0.061	-0.207
-379.917	800.000	-0.068	0.220
-378.902	-169.101	0.131	-0.005
-377.888	-92.455	0.122	-0.034
-376.873	800.000	-0.023	0.069
-375.858	731.212	0.028	-0.074
-374.844	72.498	0.203	0.210
-373.829	-131.814	-0.261	-0.034
-372.815	274.119	-0.217	-0.381
-371.800	792.813	0.035	0.097
-370.785	82.481	0.387	0.417
-369.771	97.396	-0.285	0.324
-368.756	-136.196	0.189	0.022
-367.742	119.116	-0.111	-0.136
-366.727	-73.510	0.252	0.091
-365.712	-16.857	0.127	-0.079
-364.698	100.034	-0.208	-0.239
-363.683	33.214	-0.197	-0.169
-362.669	8.846	0.129	0.096
-361.654	-200.000	-0.006	-0.056
-360.639	-86.963	0.566	-0.171
-359.625	800.000	0.054	0.191
-358.610	-200.000	0.032	0.230
-357.596	-200.000	-0.034	0.195
-356.581	52.538	-0.175	0.165
-355.566	800.000	-0.024	-0.097
-354.552	244.717	0.097	-0.162
-353.537	-135.753	-0.315	-0.037
-352.523	25.439	-0.101	0.083
-351.508	-70.775	0.320	-0.120
-350.493	800.000	-0.067	-0.193
-349.479	-109.187	0.284	0.060
-348.464	-200.000	0.004	0.100
-347.450	-64.785	-0.121	0.049
-346.435	-81.098	-0.153	0.050
-345.420	-138.641	-0.334	-0.036
-344.406	-200.000	0.011	-0.370
-343.391	-189.748	-0.221	0.003
-342.377	800.000	0.026	0.072
-341.362	-128.026	0.241	0.034
-340.348	-200.000	-0.028	0.160
-339.333	-106.187	-0.164	0.036
-338.318	-100.523	-0.048	0.012
-337.304	-30.789	0.105	0.059
-336.289	-200.000	-0.013	-0.179
-335.275	301.640	-0.146	0.267
-334.260	800.000	0.045	-0.127
-333.245	84.665	0.077	-0.083
-332.231	-166.063	-0.332	0.014
-331.216	-7.216	-0.411	0.276
-330.202	4.411	0.163	0.118
-329.187	302.134	0.108	0.198
-328.172	547.349	0.100	0.238
-327.158	-6.161	0.073	0.049
-326.143	-21.462	-0.304	0.183
-325.129	-70.957	-0.127	-0.047
-324.114	20.916	0.194	-0.156
-323.099	-45.887	0.216	0.106
-322.085	800.000	0.110	0.323
-321.070	-200.000	-0.028	0.143
-320.056	-97.057	0.239	-0.062
-319.041	60.747	0.075	-0.074
-318.026	800.000	0.043	-0.164
-317.012	587.859	-0.028	0.068
-315.997	-68.446	-0.169	0.065
-314.983	306.768	-0.064	0.118
-313.968	18.225	0.294	0.232
-312.953	800.000	0.032	0.096
-311.939	6.911	-0.265	-0.196
-310.924	-68.028	0.338	0.130
-309.910	-200.000	0.007	0.072
-308.895	-136.114	-0.126	-0.015
-307.880	-113.115	-0.304	0.059
-306.866	634.570	0.084	0.211
-305.851	-50.146	0.105	-0.049
-304.837	-200.000	-0.004	0.267
-303.822	-162.697	-0.213	-0.010
-302.807	-153.708	0.282	-0.019
-301.793	738.363	0.146	-0.386
-300.778	-58.646	0.047	-0.020
-299.764	25.828	0.200	-0.165
-298.749	-200.000	-0.026	0.178
-297.735	-200.000	0.027	0.293
-296.720	-200.000	0.004	0.298
-295.705	-127.767	0.229	0.033
-294.691	-12.535	0.258	0.166
-293.676	645.135	-0.141	0.355
-292.662	800.000	0.075	-0.264
-291.647	-10.047	0.070	-0.046
-290.632	310.403	-0.039	-0.072
-289.618	-18.672	0.237	-0.146
-288.603	-19.980	-0.232	-0.141
-287.589	-129.609	-0.254	-0.035
-286.574	366.926	0.118	0.236
-285.559	-30.135	0.104	-0.059
-284.545	-200.000	-0.060	0.472
-283.530	187.039	-0.081	-0.120
-282.516	56.315	-0.136	0.130
-281.501	-40.610	0.293	0.150
-280.486	491.608	0.041	-0.092
-279.472	33.847	0.053	-0.045
-278.457	-8.157	0.204	0.136
-277.443	18.645	0.160	0.126
-276.428	523.722	0.014	-0.032
-275.413	-132.936	0.185	-0.023
-274.399	-200.000	-0.005	0.215
-273.384	-45.605	-0.276	0.135
-272.370	-144.807	0.615	0.056
-271.355	-51.107	-0.280	0.130
-270.340	83.357	-0.107	-0.115
-269.326	628.919	0.044	-0.110
-268.311	92.988	-0.211	0.235
-267.297	-19.862	-0.067	0.041
-266.282	-200.000	-0.002	0.121
-265.267	-78.767	0.180	-0.061
-264.253	229.708	0.107	-0.173
-263.238	260.068	0.021	0.035
-262.224	-200.000	-0.046	0.396
-261.209	138.207	-0.361	0.467
-260.195	-100.429	-0.227	-0.055
-259.180	249.870	-0.159	0.267
-258.165	-49.108	-0.117	0.055
-257.151	68.448	-0.171	0.173
-256.136	800.000	0.010	-0.040
-255.122	-52.617	0.290	0.132
-254.107	-97.605	0.342	0.087
-253.092	-116.952	-0.256	-0.046
-252.078	133.399	-0.177	-0.226
-251.063	363.023	-0.143	0.283
-250.049	-17.217	0.138	-0.086
-249.034	-200.000	-0.059	-0.267
-248.019	39.745	-0.015	-0.013
-247.005	-200.000	0.014	-0.281
-245.990	-28.356	0.169	0.096
-244.976	-200.000	0.041	0.320
-243.961	-62.132	0.178	-0.073
-242.946	800.000	0.045	-0.183
-241.932	800.000	0.057	0.164
-240.917	-111.780	0.286	-0.057
-239.903	-200.000	-0.050	-0.259
-238.888	108.672	0.179	0.211
-237.873	-78.355	-0.049	0.016
-236.859	23.080	-0.115	0.093
-235.844	20.364	0.202	0.161
-234.830	-62.486	-0.081	-0.033
-233.815	171.580	0.112	-0.158
-232.800	91.856	0.177	0.196
-231.786	800.000	0.075	0.234
-230.771	-22.483	-0.151	0.090
-229.757	-103.453	-0.105	0.024
-228.742	800.000	-0.109	0.394
-227.727	-75.172	0.456	0.161
-226.713	-200.000	-0.054	0.350
-225.698	-44.143	0.200	-0.099
-224.684	364.919	-0.075	0.149
-223.669	30.748	0.175	0.148
-222.655	196.975	0.219	0.329
-221.640	-200.000	-0.083	0.401
-220.625	-200.000	0.011	-0.089
-219.611	59.392	0.234	0.227
-218.596	20.796	-0.034	0.027
-217.582	-103.576	-0.044	-0.010
-216.567	-92.087	-0.230	-0.064
-215.552	675.456	-0.017	-0.042
-214.538	-30.534	0.096	-0.054
-213.523	52.733	-0.151	-0.142
-212.509	-123.562	-0.196	0.031
-211.494	354.018	-0.022	-0.043
-210.479	-20.091	0.045	0.027
-209.465	800.000	-0.055	-0.168
-208.450	-200.000	0.036	-0.157
-207.436	-34.747	-0.059	-0.032
-206.421	800.000	0.051	-0.162
-205.406	-31.902	0.166	-0.091
-204.392	800.000	-0.042	0.153
-203.377	-77.943	0.180	0.061
-202.363	93.269	0.077	-0.086
-201.348	-29.400	-0.187	-0.105
-200.333	-54.464	0.084	-0.038
-199.319	482.685	0.007	-0.017
-198.304	-14.001	-0.087	0.055
-197.290	-89.682	0.221	0.064
-196.275	254.322	0.053	0.090
-195.260	527.476	-0.039	0.091
-194.246	-48.451	-0.222	0.105
-193.231	-158.526	0.107	0.006
-192.217	133.574	0.101	0.128
-191.202	-147.114	0.122	-0.010
-190.187	308.521	0.077	-0.142
-189.173	-200.000	-0.027	-0.126
-188.158	-30.690	0.218	-0.122
-187.144	408.860	0.161	0.336
-186.129	253.674	0.180	0.303
-185.114	11.568	0.236	-0.178
-184.100	302.199	-0.137	-0.250
-183.085	258.857	-0.220	-0.373
-182.071	-198.087	-0.317	0.002
-181.056	-200.000	-0.037	0.213
-180.042	210.805	0.177	-0.274
-179.027	131.721	0.112	-0.142
-178.012	-200.000	-0.007	0.036
-176.998	-5.905	0.198	-0.133
-175.983	-118.513	-0.137	0.024
-174.969	96.596	-0.190	-0.214
-173.954	-61.735	-0.249	-0.103
-172.939	-58.705	0.059	0.025
-171.925	109.164	-0.178	-0.210
-170.910	800.000	-0.066	-0.261
-169.896	218.643	0.146	-0.230
-168.881	57.969	-0.051	0.050
-167.866	-200.000	-0.000	-0.146
-166.852	800.000	0.041	-0.156
-165.837	800.000	0.084	-0.244
-164.823	-1.907	0.350	0.242
-163.808	800.000	-0.008	-0.025
-162.793	129.827	-0.137	-0.173
-161.779	6.615	-0.133	-0.097
-160.764	800.000	0.033	-0.116
-159.750	800.000	0.037	0.112
-158.735	615.394	-0.064	0.158
-157.720	-10.713	-0.218	-0.142
-156.706	-200.000	0.010	0.475
-155.691	800.000	-0.041	0.120
-154.677	-35.627	0.081	-0.043
-153.662	-15.433	-0.218	-0.137
-152.647	246.232	-0.151	0.250
-151.633	-200.000	0.015	-0.140
-150.618	-0.667	0.280	-0.195
-149.604	-200.000	-0.073	0.319
-148.589	-43.997	-0.148	-0.073
-147.574	157.716	0.317	0.431
-146.560	135.365	0.077	0.098
-145.545	-90.458	-0.331	-0.094
-144.531	-9.016	-0.033	0.022
-143.516	-128.447	0.213	0.030
-142.502	317.962	0.069	-0.129
-141.487	-36.540	-0.145	0.076
-140.472	162.424	0.122	0.168
-139.458	-30.459	-0.109	0.061
-138.443	-50.238	0.224	0.104
-137.429	-36.559	0.174	0.092
-136.414	-56.904	-0.144	0.063
-135.399	72.502	-0.083	-0.085
-134.385	-167.458	-0.453	-0.018
-133.370	748.823	0.033	0.087
-132.356	-97.033	0.313	0.080
-131.341	-44.754	-0.310	0.152
-130.326	-200.000	-0.030	0.374
-129.312	308.298	-0.098	-0.180
-128.297	-120.495	-0.445	-0.074
-127.283	203.772	0.129	0.196
-126.268	-200.000	0.044	0.337
-125.253	78.445	-0.077	0.080
-124.239	64.435	0.136	0.134
-123.224	-200.000	-0.034	-0.425
-122.210	-200.000	0.058	0.304
-121.195	-122.235	-0.064	0.010
-120.180	800.000	0.035	0.145
-119.166	-3.075	-0.303	-0.208
-118.151	8.527	0.137	-0.101
-117.137	234.725	0.146	0.236
-116.122	-200.000	0.065	0.369
-115.107	-200.000	-0.005	-0.113
-114.093	91.227	0.148	0.162
-113.078	-109.137	-0.233	0.049
-112.064	206.373	0.160	0.244
-111.049	-200.000	0.001	0.199
-110.034	800.000	-0.144	0.472
-109.020	-12.050	-0.312	-0.201
-108.005	-200.000	0.036	-0.170
-106.991	-13.442	0.098	0.062
-105.976	-56.648	0.265	-0.115
-104.962	317.265	0.084	0.156
-103.947	272.451	0.073	-0.126
-102.932	11.778	0.157	0.119
-101.918	-200.000	0.028	0.292
-100.903	-0.788	0.297	0.206
-99.889	-200.000	-0.028	-0.258
-98.874	-33.367	0.097	-0.053
-97.859	-143.161	-0.209	0.020
-96.845	-30.236	0.243	-0.135
-95.830	-60.356	0.348	0.145
-94.816	147.221	0.103	0.136
-93.801	-12.640	-0.234	-0.149
-92.786	-200.000	-0.030	-0.189
-91.772	-170.917	0.398	0.013
-90.757	17.284	-0.208	-0.162
-89.743	148.463	-0.102	-0.135
-88.728	583.576	-0.047	0.112
-87.713	-200.000	0.004	-0.067
-86.699	-136.039	0.160	0.018
-85.684	-103.693	-0.205	-0.047
-84.670	21.956	0.080	0.064
-83.655	11.199	-0.158	0.118
-82.640	-45.860	-0.135	0.065
-81.626	-125.805	0.128	0.019
-80.611	47.086	-0.163	0.148
-79.597	800.000	0.061	0.250
-78.582	312.976	0.023	0.043
-77.567	-35.610	0.172	-0.092
-76.553	-133.199	0.182	0.023
-75.538	-144.384	0.208	0.019
-74.524	341.945	-0.150	0.287
-73.509	55.209	0.171	0.162
-72.494	-123.556	0.161	-0.025
-71.480	32.557	0.186	-0.157
-70.465	12.336	-0.101	-0.076
-69.451	144.443	-0.237	-0.310
-68.436	37.344	0.127	-0.110
-67.422	325.889	-0.091	-0.171
-66.407	-45.753	-0.176	-0.085
-65.392	103.807	-0.178	-0.205
-64.378	338.249	0.097	0.185
-63.363	-17.247	0.094	-0.058
-62.349	800.000	0.039	-0.114
-61.334	35.027	-0.855	-0.733
-60.319	800.000	0.255	0.825
-59.305	681.157	-0.389	-0.992
-58.290	344.323	0.613	1.177
-57.276	423.831	0.702	1.477
-56.261	-200.000	112.451	655.686
-55.246	541.760	1515.576	3535.389
-54.232	178.836	2686.873	3843.671
-53.217	111.612	2170.467	2562.892
-52.203	39.283	1699.161	1488.439
-51.188	31.747	1518.094	1278.584
-50.173	29.365	1493.676	1241.949
-49.159	52.671	1551.835	1450.883
-48.144	52.094	1567.191	1461.228
-47.130	31.819	1523.190	1283.161
-46.115	28.812	1508.278	1250.133
-45.100	28.593	1505.152	1246.003
-44.086	28.624	1503.087	1244.454
-43.071	28.604	1500.920	1242.471
-42.057	28.571	1499.188	1240.766
-41.042	28.530	1498.030	1239.484
-40.027	28.536	1496.097	1237.872
-39.013	28.449	1495.005	1236.339
-37.998	28.421	1493.701	1235.023
-36.984	28.431	1493.067	1234.515
-35.969	28.453	1491.464	1233.285
-34.954	28.589	1489.410	1232.457
-33.940	28.568	1488.586	1231.578
-32.925	28.454	1487.480	1229.853
-31.911	28.420	1486.376	1228.666
-30.896	28.517	1484.707	1227.884
-29.881	28.591	1483.375	1227.229
-28.867	28.551	1482.297	1226.022
-27.852	28.460	1480.768	1224.103
-26.838	28.440	1479.672	1223.011
-25.823	28.566	1477.997	1222.422
-24.809	28.538	1476.629	1221.054
-23.794	28.581	1475.246	1220.147
-22.779	28.569	1474.181	1219.138
-21.765	28.475	1473.515	1217.913
-20.750	28.503	1472.239	1216.995
-19.736	28.534	1470.980	1216.113
-18.721	28.525	1470.095	1215.273
-17.706	28.555	1469.307	1214.773
-16.692	28.554	1467.687	1213.381
-15.677	28.518	1466.616	1212.205
-14.663	28.453	1465.288	1210.632
-13.648	28.380	1464.838	1209.730
-12.633	28.522	1463.870	1209.820
-11.619	28.521	1462.967	1209.022
-10.604	28.587	1461.695	1208.355
-9.590	28.555	1460.977	1207.501
-8.575	28.421	1460.355	1206.056
-7.560	28.515	1459.131	1205.616
-6.546	28.519	1458.367	1204.964
-5.531	28.509	1457.552	1204.177
-4.517	28.473	1456.532	1203.050
-3.502	28.465	1455.476	1202.080
-2.487	28.410	1454.965	1201.252
-1.473	28.454	1453.805	1200.533
-0.458	28.511	1451.831	1199.226
0.556	28.762	1442.236	1187.901
1.571	25.521	1416.707	1146.143
2.586	21.872	1354.452	1073.395
3.600	20.080	1270.744	996.672
4.615	18.877	1225.705	954.581
5.629	16.124	1169.894	896.421
6.644	9.317	1088.192	799.982
7.659	3.904	1050.682	746.279
8.673	3.195	1044.724	738.581
9.688	3.083	1042.404	736.340
10.702	3.150	1040.612	735.327
11.717	3.221	1038.754	734.289
12.731	5.039	1039.902	743.712
13.746	11.982	1049.721	783.989
14.761	18.546	1057.813	821.513
15.775	19.964	1058.959	829.125
16.790	19.510	1057.384	825.646
17.804	18.479	1055.432	819.126
18.819	17.579	1053.429	813.205
19.834	17.131	1052.198	810.043
20.848	16.955	1051.749	808.787
21.863	16.953	1051.008	808.139
22.877	16.646	1050.186	805.972
23.892	16.488	1049.169	804.369
24.907	16.378	1048.556	803.306
25.921	16.441	1047.996	803.104
26.936	16.309	1047.090	801.714
27.950	16.406	1045.807	801.119
28.965	16.443	1044.766	800.424
29.980	16.606	1043.834	800.411
30.994	16.652	1042.714	799.699
32.009	16.684	1041.914	799.165
33.023	16.854	1041.165	799.324
34.038	16.813	1040.690	798.697
35.053	16.732	1039.248	797.134
36.067	16.598	1038.241	795.661
37.082	16.509	1037.986	794.981
38.096	16.622	1036.563	794.347
39.111	16.704	1036.267	794.439
40.126	16.708	1035.688	793.943
41.140	16.628	1034.393	792.505
42.155	16.385	1033.064	790.277
43.169	16.332	1031.891	789.064
44.184	16.249	1030.743	787.728
45.199	16.147	1029.567	786.284
46.213	16.205	1028.982	786.039
47.228	16.271	1027.517	785.156
48.242	16.551	1026.972	785.971
49.257	16.538	1026.301	785.330
50.271	16.630	1024.986	784.678
51.286	16.511	1024.339	783.561
52.301	16.638	1023.491	783.433
53.315	16.611	1022.689	782.624
54.330	16.508	1021.940	781.506
55.344	16.308	1021.132	779.896
56.359	16.303	1019.534	778.583
57.374	16.335	1018.702	778.026
58.388	16.341	1018.180	777.587
59.403	16.271	1017.170	776.427
60.417	16.306	1016.132	775.726
61.432	16.207	1015.943	775.058
62.447	16.215	1015.027	774.328
63.461	16.186	1014.509	773.731
64.476	16.126	1013.083	772.299
65.490	16.101	1012.624	771.768
66.505	15.945	1011.755	770.322
67.520	16.094	1010.862	770.254
68.534	16.175	1010.205	770.055
69.549	16.179	1009.570	769.521
70.563	16.146	1008.426	768.430
71.578	16.085	1008.354	768.031
72.593	15.999	1007.207	766.697
73.607	15.909	1006.014	765.313
74.622	15.881	1005.141	764.454
75.636	15.964	1004.180	764.031
76.651	15.967	1003.350	763.348
77.666	15.960	1002.837	762.855
78.680	16.020	1002.339	762.684
79.695	15.987	1001.674	761.961
80.709	16.135	1000.351	761.554
81.724	16.117	1000.144	761.249
82.739	16.173	999.298	760.789
83.753	16.209	998.994	760.653
84.768	16.402	998.159	760.818
85.782	16.601	997.570	761.198
86.797	16.736	996.962	761.274
87.812	16.850	995.829	760.854
88.826	16.609	995.419	759.390
89.841	16.516	994.531	758.230
90.855	16.648	993.332	757.839
91.870	16.773	992.555	757.738
92.884	16.771	992.118	757.327
93.899	16.788	991.303	756.718
94.914	16.727	990.220	755.551
95.928	16.709	989.918	755.173
96.943	16.924	989.183	755.501
97.957	16.857	988.221	754.401
98.972	16.637	987.401	752.734
99.987	16.678	986.570	752.215
101.001	16.812	986.509	752.695
102.016	16.625	985.402	750.955
103.030	16.568	984.473	749.927
104.045	16.673	983.247	749.395
105.060	16.782	982.103	748.937
106.074	16.697	981.178	747.790
107.089	16.395	980.327	745.743
108.103	16.078	979.444	743.608
109.118	16.259	977.817	743.101
110.133	16.162	977.505	742.373
111.147	16.232	976.729	742.027
112.162	16.131	975.837	740.839
113.176	16.099	974.709	739.776
114.191	16.191	974.297	739.802
115.206	16.397	973.423	739.973
116.220	16.274	972.552	738.707
117.235	16.267	971.470	737.793
118.249	16.287	970.740	737.260
119.264	16.368	969.906	736.913
120.279	16.219	969.178	735.646
121.293	16.138	968.582	734.774
122.308	15.996	967.773	733.478
123.322	16.068	966.906	733.070
124.337	16.115	965.381	732.053
125.352	15.855	964.573	730.249
126.366	15.904	963.312	729.440
127.381	16.070	962.182	729.239
128.395	15.860	961.732	727.925
129.410	15.897	960.865	727.365
130.424	15.993	959.754	726.874
131.439	16.175	958.662	726.768
132.454	16.282	958.102	726.735
133.468	16.229	957.848	726.251
134.483	16.139	956.787	724.997
135.497	16.309	956.028	725.088
136.512	16.197	955.706	724.297
137.527	16.269	954.327	723.497
138.541	16.334	953.702	723.238
139.556	16.330	952.924	722.568
140.570	16.285	952.498	721.988
141.585	16.431	951.746	721.980
142.600	16.492	951.654	722.103
143.614	16.721	950.391	722.059
144.629	16.740	949.747	721.585
145.643	16.731	949.191	721.063
146.658	16.674	948.422	720.170
147.673	16.648	947.144	719.026
148.687	16.587	946.102	717.912
149.702	16.450	945.248	716.622
150.716	16.379	944.160	715.432
151.731	16.288	943.704	714.639
152.746	16.409	942.747	714.362
153.760	16.448	941.822	713.763
154.775	16.311	941.266	712.700
155.789	16.511	940.732	713.074
156.804	16.543	939.942	712.548
157.819	16.610	939.206	712.212
158.833	16.727	938.571	712.157
159.848	16.590	938.444	711.421
160.862	16.792	937.615	711.578
161.877	16.834	936.450	710.808
162.892	16.489	935.598	708.652
163.906	16.488	934.527	707.774
164.921	16.328	933.621	706.357
165.935	16.436	932.577	705.954
166.950	16.530	931.208	705.248
167.964	16.519	931.087	705.050
168.979	16.513	929.970	704.117
169.994	16.477	928.871	703.072
171.008	16.340	928.188	701.921
172.023	16.568	926.953	701.872
173.037	16.576	926.647	701.613
174.052	16.783	926.028	701.940
175.067	16.763	925.362	701.290
176.081	16.632	924.364	699.928
177.096	16.405	923.367	698.175
178.110	16.374	922.403	697.257
179.125	16.498	921.811	697.261
180.140	16.588	921.353	697.223
181.154	16.552	920.455	696.332
182.169	16.703	919.890	696.464
183.183	16.708	919.497	696.127
184.198	16.704	918.735	695.469
185.213	16.802	918.350	695.522
186.227	16.746	917.858	694.857
187.242	16.780	917.047	694.322
188.256	16.879	916.379	694.157
189.271	17.059	915.749	694.356
190.286	17.093	915.135	693.970
191.300	16.920	913.961	692.310
192.315	16.405	913.430	689.744
193.329	16.347	912.328	688.615
194.344	16.217	911.958	687.745
195.359	16.400	911.580	688.143
196.373	16.677	910.749	688.585
197.388	16.834	910.708	689.132
198.402	16.817	910.271	688.671
199.417	17.033	910.044	689.315
200.432	17.008	909.434	688.691
201.446	17.218	908.805	689.005
202.461	17.284	908.595	689.052
203.475	17.200	908.355	688.468
204.490	17.247	907.425	687.891
205.504	17.107	906.584	686.627
206.519	17.003	905.447	685.286
207.534	16.982	904.865	684.700
208.548	17.017	903.662	683.869
209.563	16.908	903.380	683.157
210.577	16.940	902.606	682.639
211.592	17.109	901.752	682.613
212.607	17.141	901.369	682.394
213.621	17.339	900.983	682.833
214.636	17.279	900.168	681.916
215.650	17.173	899.863	681.200
216.665	17.264	899.181	680.989
217.680	17.231	898.875	680.565
218.694	17.320	898.301	680.423
219.709	17.473	897.427	680.314
220.723	17.234	897.255	679.167
221.738	17.379	896.325	678.981
222.753	17.283	895.450	677.879
223.767	17.222	894.841	677.112
224.782	17.367	894.155	677.110
225.796	17.494	893.497	677.059
226.811	17.511	892.701	676.461
227.826	17.507	892.406	676.162
228.840	17.422	891.243	674.887
229.855	17.315	890.961	674.189
230.869	17.358	890.097	673.647
231.884	17.257	889.453	672.700
232.899	17.239	888.510	671.855
233.913	17.193	887.721	671.017
234.928	17.122	887.028	670.152
235.942	17.170	886.340	669.762
236.957	17.077	885.583	668.764
237.972	17.049	885.185	668.294
238.986	17.057	884.465	667.722
240.001	17.279	883.571	667.862
241.015	17.194	882.964	667.013
242.030	17.296	882.458	666.971
243.045	17.253	881.868	666.295
244.059	17.243	881.564	665.969
245.074	17.351	880.480	665.514
246.088	17.407	879.861	665.204
247.103	17.515	879.186	665.058
248.117	17.513	878.910	664.784
249.132	17.659	878.658	665.105
250.147	17.878	878.135	665.502
251.161	17.947	877.464	665.205
252.176	18.064	876.717	665.035
253.190	17.962	876.373	664.316
254.205	17.973	876.206	664.175
255.220	18.255	875.102	664.376
256.234	18.127	874.423	663.302
257.249	18.065	873.946	662.643
258.263	17.944	873.512	661.788
259.278	18.026	872.802	661.509
260.293	17.951	872.518	660.945
261.307	18.170	871.481	660.943
262.322	18.129	871.161	660.487
263.336	18.165	870.802	660.293
264.351	18.211	869.907	659.735
265.366	18.138	869.553	659.126
266.380	18.238	868.784	658.872
267.395	18.412	867.703	658.662
268.409	18.227	867.039	657.389
269.424	18.211	866.432	656.809
270.439	18.187	865.713	656.114
271.453	18.092	865.209	655.308
272.468	18.106	864.179	654.525
273.482	17.990	863.506	653.513
274.497	18.036	863.284	653.464
275.512	17.910	862.895	652.629
276.526	17.954	861.447	651.646
277.541	18.049	861.274	651.818
278.555	18.102	860.782	651.590
279.570	18.130	860.026	651.068
280.585	18.395	859.739	651.801
281.599	18.472	859.040	651.506
282.614	18.331	858.383	650.412
283.628	18.118	857.715	649.043
284.643	18.086	857.307	648.553
285.657	18.242	856.480	648.460
286.672	18.216	856.340	648.199
287.687	18.147	855.886	647.538
288.701	18.224	855.519	647.494
289.716	18.305	854.515	646.984
290.730	18.218	853.991	646.202
291.745	18.328	853.685	646.330
292.760	18.324	852.774	645.567
293.774	18.426	852.426	645.629
294.789	18.441	851.800	645.155
295.803	18.486	851.037	644.688
296.818	18.187	850.322	642.965
297.833	18.294	849.726	642.863
298.847	18.333	849.398	642.702
299.862	18.279	848.639	641.870
300.876	18.414	847.798	641.680
301.891	18.383	847.425	641.225
302.906	18.542	846.666	641.190
303.920	18.725	846.014	641.323
304.935	18.747	845.066	640.630
305.949	18.742	845.083	640.569
306.964	18.877	844.547	640.606
307.979	18.677	843.697	639.161
308.993	18.649	843.387	638.767
310.008	18.867	842.497	638.845
311.022	18.855	841.959	638.338
312.037	18.764	841.484	637.582
313.052	18.683	840.901	636.785
314.066	18.464	840.241	635.417
315.081	18.368	839.816	634.684
316.095	18.383	838.970	634.042
317.110	18.525	838.613	634.240
318.125	18.457	838.118	633.560
319.139	18.391	837.727	632.963
320.154	18.407	837.187	632.558
321.168	18.558	836.443	632.499
322.183	18.573	835.933	632.112
323.197	18.524	835.649	631.659
324.212	18.607	834.769	631.245
325.227	18.636	834.411	631.027
326.241	18.673	833.583	630.480
327.256	18.580	833.072	629.695
328.270	18.470	832.706	628.959
329.285	18.670	831.853	628.991
330.300	18.622	831.510	628.502
331.314	18.555	831.058	627.858
332.329	18.615	830.646	627.714
333.343	18.659	830.235	627.505
334.358	18.795	829.480	627.375
335.373	18.701	829.047	626.652
336.387	18.843	828.391	626.618
337.402	18.987	827.755	626.605
338.416	18.995	827.103	626.086
339.431	19.123	827.025	626.439
340.446	19.150	826.430	626.029
341.460	19.324	825.747	626.087
342.475	19.309	825.145	625.523
343.489	19.356	824.587	625.215
344.504	19.351	824.269	624.898
345.519	19.346	823.799	624.471
346.533	19.458	823.236	624.393
347.548	19.416	823.016	624.018
348.562	19.349	822.150	623.064
349.577	19.099	821.250	621.426
350.592	19.073	820.621	620.800
351.606	18.933	820.460	620.120
352.621	18.904	820.094	619.685
353.635	19.004	819.621	619.631
354.650	19.019	819.163	619.283
355.665	19.008	819.052	619.107
356.679	19.037	818.602	618.813
357.694	19.101	818.209	618.693
358.708	19.196	817.417	618.380
359.723	19.261	816.749	618.053
360.738	19.203	816.203	617.377
361.752	19.173	816.013	617.074
362.767	19.247	815.514	616.905
363.781	19.298	815.036	616.671
364.796	19.447	814.562	616.790
365.810	19.586	814.279	617.017
366.825	19.467	814.504	616.708
367.840	19.816	813.282	616.976
368.854	19.689	812.929	616.198
369.869	19.440	812.852	615.199
370.883	19.476	811.830	614.501
371.898	19.367	811.640	613.912
372.913	19.580	811.120	614.224
373.927	19.535	810.652	613.655
374.942	19.695	809.414	613.230
375.956	19.444	809.146	612.081
376.971	19.893	807.959	612.722
377.986	19.764	807.901	612.167
379.000	19.942	807.509	612.443
380.015	19.980	807.009	612.146
381.029	20.002	806.496	611.781
382.044	19.905	805.552	610.667
383.059	19.980	805.140	610.565
384.073	19.879	804.844	609.930
385.088	19.870	804.025	609.225
386.102	19.637	803.718	608.117
387.117	19.550	803.270	607.421
388.132	19.640	802.742	607.284
389.146	19.685	801.894	606.744
390.161	19.684	801.761	606.588
391.175	19.734	801.609	606.596
392.190	19.850	801.161	606.610
393.205	19.850	800.723	606.222
394.219	19.600	800.463	605.098
395.234	19.706	799.697	604.835
396.248	19.625	798.812	603.831
397.263	19.512	798.765	603.345
398.278	19.530	797.784	602.613
399.292	19.464	797.789	602.334
400.307	19.502	797.474	602.177
401.321	19.513	796.682	601.563
402.336	19.559	796.650	601.645
403.350	19.653	796.112	601.514
404.365	19.782	795.658	601.566
405.380	19.782	795.211	601.173
406.394	19.860	795.104	601.313
407.409	19.904	794.494	600.949
408.423	20.043	793.968	600.980
409.438	20.246	793.259	601.093
410.453	20.073	793.338	600.500
411.467	20.301	792.828	600.851
412.482	20.176	792.541	600.148
413.496	20.320	791.668	599.931
414.511	20.409	791.568	600.110
415.526	20.357	791.364	599.725
416.540	20.327	790.661	599.034
417.555	20.090	790.563	598.089
418.569	20.257	789.787	598.026
419.584	20.233	789.412	597.604
420.599	20.331	789.003	597.579
421.613	161.222	1371.136	1796.954
422.628	139.589	1455.952	1797.054
