DTS Sentinel unit serial number:	SN413079Multiplexer serial number:	ORYXHardware model number:	OX4-SRSoftware version number:	ORYX F/W v4.00 Oryx Data Collector v3.7.2.0data status	okinstallation	princeton_trtdifferential loss correction	single-endedforward channel	channel 3reverse channel	N/Adate	2019/09/17time	00:32:35forward acquisition time	60.00reverse acquisition time	0.00gamma	496.2192k internal	0.2325k external	0.2325temperature offset calibration	0.9941default loss term (dB/km)	0.3790temperature slope calibration	1.0000multiplexer offset coefficient	1.0000multiplexer slope coefficient	1.0000fibre end	0.00T internal ref (°C)	29.45T ext. ref 1 (°C)	0.09T ext. ref 2 (°C)	23.86length (m)	temperature (°C)	Stokes	anti-Stokes-747.200	-33.918	-0.119	-0.066
-746.185	207.180	-0.234	0.368
-745.171	-200.000	-0.009	0.049
-744.156	-200.000	0.048	0.407
-743.142	-200.000	0.011	0.268
-742.127	202.285	-0.055	-0.085
-741.112	-40.501	-0.255	0.133
-740.098	-142.095	-0.184	0.018
-739.083	-200.000	-0.011	0.368
-738.069	268.260	-0.221	0.390
-737.054	-131.717	0.201	0.027
-736.039	800.000	-0.030	0.118
-735.025	-166.387	-0.082	0.003
-734.010	-75.065	0.130	-0.047
-732.996	-134.387	-0.110	-0.014
-731.981	294.392	0.021	-0.038
-730.966	10.145	0.223	0.171
-729.952	343.011	0.117	-0.232
-728.937	-117.455	-0.238	-0.043
-727.923	-54.023	-0.214	-0.098
-726.908	-114.275	-0.171	0.033
-725.894	-65.062	-0.170	0.069
-724.879	800.000	0.079	-0.238
-723.864	-120.555	0.063	0.011
-722.850	-104.591	0.316	0.073
-721.835	72.064	0.043	0.045
-720.821	-113.185	-0.204	-0.041
-719.806	45.239	0.069	0.064
-718.791	-35.278	-0.284	0.156
-717.777	-32.633	0.255	-0.143
-716.762	20.317	-0.450	0.366
-715.748	471.354	0.106	-0.240
-714.733	-200.000	0.044	-0.220
-713.718	-113.857	-0.095	-0.019
-712.704	255.832	0.121	-0.208
-711.689	-200.000	-0.004	0.061
-710.675	495.321	0.016	-0.036
-709.660	-200.000	0.002	-0.176
-708.645	-53.881	-0.323	0.148
-707.631	-200.000	-0.007	0.148
-706.616	146.646	-0.139	0.189
-705.602	-34.731	0.279	0.154
-704.587	125.164	-0.100	-0.127
-703.572	-50.406	-0.186	0.089
-702.558	800.000	-0.067	0.195
-701.543	-119.164	-0.116	0.020
-700.529	165.807	0.096	-0.136
-699.514	-200.000	0.005	-0.205
-698.499	-200.000	0.084	-0.379
-697.485	-163.990	-0.200	0.009
-696.470	103.508	0.127	-0.151
-695.456	-14.904	0.113	0.073
-694.441	14.810	-0.125	-0.099
-693.426	-165.063	-0.136	0.006
-692.412	63.356	-0.218	0.220
-691.397	-42.586	-0.646	0.331
-690.383	217.227	-0.222	-0.357
-689.368	-65.353	-0.077	0.031
-688.354	-33.574	-0.264	-0.147
-687.339	-71.143	-0.307	-0.116
-686.324	-200.000	0.003	0.200
-685.310	37.770	0.050	-0.045
-684.295	-28.636	-0.088	0.051
-683.281	800.000	-0.144	-0.530
-682.266	174.363	-0.144	0.209
-681.251	52.437	0.176	0.169
-680.237	-200.000	0.030	-0.393
-679.222	-200.000	0.022	0.117
-678.208	800.000	0.069	-0.283
-677.193	296.300	-0.187	0.345
-676.178	800.000	-0.095	-0.289
-675.164	800.000	0.070	0.294
-674.149	800.000	0.022	-0.088
-673.135	18.928	0.242	-0.195
-672.120	-58.096	-0.297	0.130
-671.105	337.279	0.116	-0.227
-670.091	78.550	-0.110	-0.118
-669.076	141.562	0.091	-0.121
-668.062	-164.915	0.061	0.003
-667.047	460.287	0.160	-0.358
-666.032	15.177	-0.256	-0.202
-665.018	-200.000	-0.001	-0.111
-664.003	-185.378	0.025	-0.000
-662.989	284.446	0.049	0.088
-661.974	800.000	-0.038	0.129
-660.959	355.451	0.061	0.122
-659.945	-200.000	-0.092	0.409
-658.930	-130.933	-0.329	0.044
-657.916	-200.000	0.070	-0.471
-656.901	350.897	-0.051	-0.102
-655.886	-200.000	-0.011	0.106
-654.872	-118.050	-0.329	-0.059
-653.857	-75.976	-0.235	-0.083
-652.843	-43.282	-0.292	-0.148
-651.828	-131.669	0.125	-0.017
-650.814	-11.087	0.144	-0.095
-649.799	-90.458	-0.117	0.034
-648.784	35.618	-0.141	0.124
-647.770	-82.909	0.218	0.071
-646.755	-57.284	-0.198	-0.088
-645.741	-44.860	-0.442	-0.222
-644.726	-200.000	-0.016	-0.263
-643.711	-200.000	-0.016	-0.129
-642.697	-83.222	0.217	0.070
-641.682	-53.331	-0.200	0.092
-640.668	57.875	-0.130	-0.128
-639.653	-41.584	-0.149	-0.077
-638.638	-60.678	-0.134	0.057
-637.624	-94.194	-0.346	0.095
-636.609	156.708	-0.053	-0.074
-635.595	-12.495	0.213	-0.140
-634.580	-5.903	-0.184	0.127
-633.565	-200.000	-0.028	0.138
-632.551	800.000	-0.038	0.139
-631.536	-13.814	-0.313	-0.203
-630.522	23.701	-0.083	0.069
-629.507	-42.745	0.280	-0.143
-628.492	170.591	0.097	0.139
-627.478	800.000	-0.067	-0.212
-626.463	-121.949	-0.366	-0.060
-625.449	-200.000	0.012	0.216
-624.434	-94.906	-0.146	-0.040
-623.419	-200.000	0.007	-0.285
-622.405	-200.000	0.025	-0.164
-621.390	237.598	0.091	0.152
-620.376	18.080	-0.055	-0.044
-619.361	-20.080	-0.162	0.100
-618.346	-200.000	-0.012	-0.263
-617.332	77.795	-0.154	-0.165
-616.317	-69.649	-0.197	0.076
-615.303	156.086	0.207	-0.287
-614.288	-150.056	-0.240	0.019
-613.273	-28.693	-0.184	0.106
-612.259	182.543	0.121	-0.179
-611.244	-94.585	-0.348	0.095
-610.230	-200.000	-0.044	0.445
-609.215	3.945	-0.246	-0.181
-608.201	-138.400	-0.165	-0.018
-607.186	181.898	-0.133	0.197
-606.171	-135.208	-0.181	0.022
-605.157	-200.000	0.015	-0.189
-604.142	705.648	0.076	-0.202
-603.128	-64.337	-0.166	0.068
-602.113	-89.858	-0.148	-0.043
-601.098	108.930	0.230	-0.275
-600.084	174.002	-0.128	0.186
-599.069	-142.707	-0.370	0.036
-598.055	100.048	-0.173	-0.202
-597.040	800.000	0.046	0.141
-596.025	57.114	0.254	-0.249
-595.011	113.130	0.033	0.040
-593.996	287.109	0.144	0.261
-592.982	-87.163	-0.158	0.048
-591.967	91.028	0.064	-0.072
-590.952	-83.630	0.133	-0.043
-589.938	-94.113	-0.054	0.015
-588.923	-39.625	-0.152	0.080
-587.909	800.000	-0.133	-0.369
-586.894	3.745	-0.137	0.100
-585.879	-39.739	0.018	-0.009
-584.865	284.385	-0.093	0.167
-583.850	-162.437	-0.326	0.016
-582.836	-36.825	0.121	0.065
-581.821	158.536	-0.186	0.259
-580.806	-121.283	-0.182	0.030
-579.792	-200.000	0.040	0.189
-578.777	347.240	-0.030	0.059
-577.763	139.978	0.337	-0.445
-576.748	32.086	0.164	-0.141
-575.733	20.693	-0.272	0.220
-574.719	129.899	0.214	-0.275
-573.704	124.911	0.189	0.238
-572.690	524.144	-0.113	-0.267
-571.675	192.327	0.113	0.171
-570.661	-153.883	0.136	-0.009
-569.646	148.879	0.078	-0.106
-568.631	213.010	0.094	0.150
-567.617	-46.845	0.259	0.127
-566.602	405.218	0.047	-0.100
-565.588	356.067	-0.142	0.283
-564.573	334.712	0.173	0.337
-563.558	-200.000	0.027	-0.240
-562.544	-200.000	0.001	-0.158
-561.529	-12.130	-0.119	-0.078
-560.515	-154.128	0.075	0.005
-559.500	333.142	0.111	0.214
-558.485	-76.836	-0.337	-0.118
-557.471	-200.000	0.009	0.099
-556.456	32.164	0.105	0.090
-555.442	34.971	-0.228	0.200
-554.427	-63.230	0.304	0.126
-553.412	186.181	0.093	-0.139
-552.398	800.000	-0.023	0.093
-551.383	353.935	-0.062	-0.124
-550.369	49.936	0.147	0.139
-549.354	408.969	-0.178	-0.378
-548.339	-79.637	-0.146	-0.049
-547.325	-28.828	0.303	-0.174
-546.310	-155.711	-0.260	-0.017
-545.296	-200.000	-0.003	-0.021
-544.281	219.127	0.143	-0.230
-543.266	-137.453	0.212	0.024
-542.252	-123.130	0.314	-0.050
-541.237	82.674	0.058	-0.063
-540.223	109.906	0.086	-0.103
-539.208	-79.193	-0.160	-0.054
-538.193	-140.141	0.115	-0.012
-537.179	800.000	0.048	-0.167
-536.164	-30.423	0.429	0.244
-535.150	342.407	0.105	0.206
-534.135	-164.821	-0.219	0.010
-533.121	76.211	0.028	-0.029
-532.106	-200.000	-0.013	-0.105
-531.091	-73.567	-0.174	-0.064
-530.077	-200.000	-0.008	-0.089
-529.062	38.972	0.183	0.164
-528.048	-112.707	0.142	-0.028
-527.033	65.849	-0.206	0.209
-526.018	188.796	0.146	0.219
-525.004	-110.491	0.234	0.049
-523.989	800.000	0.076	-0.215
-522.975	-200.000	-0.070	-0.311
-521.960	252.143	-0.067	0.115
-520.945	-200.000	0.026	0.454
-519.931	-200.000	0.011	0.202
-518.916	-2.259	-0.099	-0.069
-517.902	-127.027	0.265	-0.039
-516.887	328.341	-0.066	-0.128
-515.872	73.620	0.202	0.212
-514.858	-180.146	0.146	-0.003
-513.843	305.159	0.094	-0.174
-512.829	-195.192	0.154	-0.001
-511.814	46.705	0.172	0.160
-510.799	-178.027	-0.230	-0.005
-509.785	54.766	0.180	0.174
-508.770	-200.000	-0.038	0.226
-507.756	800.000	0.047	-0.130
-506.741	-200.000	-0.009	-0.171
-505.726	-200.000	0.032	-0.149
-504.712	9.322	-0.192	-0.145
-503.697	-200.000	0.016	0.261
-502.683	-200.000	-0.040	0.530
-501.668	82.086	-0.058	-0.063
-500.653	-200.000	-0.019	-0.211
-499.639	-200.000	0.034	-0.223
-498.624	271.371	-0.109	-0.191
-497.610	428.137	-0.083	-0.178
-496.595	70.333	0.265	0.273
-495.581	-47.478	0.140	-0.068
-494.566	18.659	-0.222	-0.178
-493.551	-104.330	-0.291	-0.067
-492.537	121.295	0.154	0.192
-491.522	1.761	-0.134	-0.096
-490.508	41.351	0.180	-0.163
-489.493	113.399	0.100	-0.121
-488.478	-120.205	-0.127	0.022
-487.464	234.542	0.216	-0.356
-486.449	800.000	0.054	-0.163
-485.435	-80.366	0.266	0.089
-484.420	-200.000	0.023	-0.162
-483.405	-200.000	-0.019	-0.139
-482.391	-52.785	-0.099	0.046
-481.376	-44.203	-0.147	0.074
-480.362	327.393	-0.107	0.206
-479.347	-158.918	0.098	-0.006
-478.332	-200.000	-0.017	0.084
-477.318	-12.715	-0.065	-0.042
-476.303	188.363	0.092	-0.138
-475.289	331.887	0.077	0.149
-474.274	-101.661	-0.195	0.047
-473.259	-200.000	0.047	0.476
-472.245	800.000	0.048	0.186
-471.230	-200.000	0.084	0.409
-470.216	9.538	0.201	-0.152
-469.201	-200.000	-0.001	0.169
-468.186	51.669	0.161	-0.153
-467.172	67.014	-0.025	-0.025
-466.157	800.000	-0.157	-0.550
-465.143	-96.945	-0.138	0.036
-464.128	168.853	-0.036	0.051
-463.113	494.220	-0.047	-0.108
-462.099	108.194	0.189	-0.224
-461.084	228.797	0.101	0.165
-460.070	59.647	0.114	-0.112
-459.055	-63.677	-0.243	0.099
-458.040	-108.780	-0.246	-0.053
-457.026	-73.339	0.216	-0.079
-456.011	-124.777	0.038	0.006
-454.997	-41.114	0.211	-0.109
-453.982	800.000	-0.003	-0.013
-452.968	-0.728	-0.052	0.037
-451.953	-31.217	0.233	0.131
-450.938	169.990	0.144	0.206
-449.924	162.844	-0.145	-0.204
-448.909	637.448	-0.074	-0.187
-447.895	15.120	0.203	0.159
-446.880	111.535	-0.040	0.048
-445.865	800.000	-0.075	-0.314
-444.851	475.852	-0.128	-0.288
-443.836	-19.647	0.045	-0.028
-442.822	-58.978	0.154	0.066
-441.807	381.852	0.191	-0.390
-440.792	-32.210	0.174	0.097
-439.778	-2.298	-0.162	-0.113
-438.763	-98.834	-0.195	-0.049
-437.749	-27.293	0.251	0.146
-436.734	452.642	0.153	-0.338
-435.719	106.682	0.052	0.062
-434.705	800.000	0.077	0.236
-433.690	41.775	0.319	-0.288
-432.676	-31.593	-0.390	-0.219
-431.661	437.640	-0.119	0.258
-430.646	365.675	-0.185	0.372
-429.632	80.409	-0.085	0.091
-428.617	-119.319	0.116	0.020
-427.603	-200.000	0.021	0.163
-426.588	63.358	-0.113	0.112
-425.573	165.792	0.059	-0.083
-424.559	504.840	-0.070	-0.161
-423.544	-200.000	-0.035	-0.199
-422.530	544.370	0.058	0.138
-421.515	800.000	-0.022	-0.075
-420.500	339.776	0.093	-0.181
-419.486	-146.869	-0.335	-0.029
-418.471	-12.371	0.122	0.079
-417.457	-200.000	-0.074	0.409
-416.442	-200.000	-0.017	0.235
-415.428	-76.833	0.165	-0.058
-414.413	36.915	0.085	-0.075
-413.398	103.990	0.146	0.171
-412.384	-200.000	0.061	0.305
-411.369	-25.557	-0.214	0.126
-410.355	-128.202	-0.116	0.017
-409.340	-150.574	0.285	0.022
-408.325	171.883	-0.105	0.150
-407.311	172.127	0.100	0.143
-406.296	-136.548	-0.344	0.040
-405.282	-200.000	-0.026	-0.268
-404.267	-62.162	-0.403	0.167
-403.252	-13.204	-0.122	0.079
-402.238	-79.203	0.244	0.082
-401.223	-158.900	-0.183	-0.010
-400.209	-200.000	-0.044	0.326
-399.194	-200.000	-0.012	0.121
-398.179	-195.082	-0.321	0.002
-397.165	-14.166	0.199	-0.128
-396.150	25.213	-0.305	-0.252
-395.136	-99.620	0.429	0.107
-394.121	55.023	0.265	0.255
-393.106	-200.000	0.015	0.411
-392.092	246.900	-0.084	-0.141
-391.077	63.448	-0.133	-0.133
-390.063	-15.143	-0.303	-0.193
-389.048	-98.739	-0.153	0.039
-388.033	20.069	-0.226	0.181
-387.019	450.343	0.059	0.131
-386.004	-190.977	-0.180	-0.002
-384.990	-3.096	0.201	-0.140
-383.975	104.897	-0.176	-0.207
-382.960	-93.784	-0.323	-0.089
-381.946	-12.019	-0.062	-0.041
-380.931	-116.711	0.146	0.027
-379.917	-59.832	0.077	-0.033
-378.902	-44.581	0.532	-0.265
-377.888	333.554	0.082	0.158
-376.873	-6.535	-0.081	-0.055
-375.858	-87.712	0.202	-0.061
-374.844	65.557	0.029	0.029
-373.829	-40.958	-0.219	0.112
-372.815	80.778	-0.069	-0.074
-371.800	-200.000	-0.014	0.106
-370.785	-200.000	0.018	-0.105
-369.771	-200.000	0.004	0.053
-368.756	655.838	-0.037	-0.093
-367.742	412.843	0.160	0.339
-366.727	-200.000	-0.002	-0.068
-365.712	-200.000	-0.002	-0.049
-364.698	133.470	0.205	0.264
-363.683	-62.232	-0.092	-0.038
-362.669	-200.000	-0.041	-0.450
-361.654	159.934	0.183	0.253
-360.639	77.120	-0.076	0.080
-359.625	502.624	0.135	0.309
-358.610	800.000	-0.045	0.166
-357.596	-138.121	0.305	0.034
-356.581	392.957	0.063	0.130
-355.566	-200.000	0.028	-0.152
-354.552	800.000	-0.024	0.091
-353.537	-4.124	0.156	0.107
-352.523	-85.161	0.172	0.054
-351.508	-200.000	-0.026	-0.164
-350.493	-4.708	0.091	0.062
-349.479	-66.744	-0.177	0.070
-348.464	8.552	-0.217	-0.163
-347.450	110.279	0.043	0.051
-346.435	93.693	-0.273	0.307
-345.420	800.000	-0.080	-0.271
-344.406	800.000	0.125	-0.351
-343.391	395.750	-0.061	0.126
-342.377	84.055	-0.324	0.352
-341.362	-200.000	0.003	0.141
-340.348	-136.087	0.125	-0.015
-339.333	-19.035	0.231	0.142
-338.318	-200.000	0.011	0.261
-337.304	65.247	0.110	0.111
-336.289	167.475	-0.078	0.110
-335.275	-150.969	-0.226	0.017
-334.260	-200.000	0.028	0.413
-333.245	-143.035	-0.339	0.033
-332.231	-200.000	-0.034	-0.170
-331.216	-127.691	0.194	0.028
-330.202	129.756	0.222	0.282
-329.187	-165.581	-0.211	0.009
-328.172	-99.552	0.339	-0.085
-327.158	-63.367	-0.345	0.141
-326.143	800.000	0.040	-0.162
-325.129	400.864	0.109	-0.227
-324.114	-110.766	-0.102	0.021
-323.099	600.035	0.177	-0.435
-322.085	47.514	-0.017	-0.015
-321.070	-200.000	0.017	-0.115
-320.056	-17.761	0.152	0.095
-319.041	206.859	-0.144	0.222
-318.026	180.792	-0.037	0.054
-317.012	-10.780	0.174	0.114
-315.997	-179.855	-0.224	0.005
-314.983	444.427	-0.153	0.333
-313.968	800.000	-0.033	0.135
-312.953	-46.676	-0.394	0.191
-311.939	528.799	0.186	-0.435
-310.924	299.083	0.075	-0.137
-309.910	-145.420	-0.323	-0.029
-308.895	323.197	-0.104	-0.196
-307.880	23.170	-0.108	0.088
-306.866	-47.148	-0.132	0.064
-305.851	14.682	-0.185	-0.143
-304.837	199.933	0.138	0.210
-303.822	58.302	-0.148	-0.144
-302.807	39.133	0.218	-0.193
-301.793	-200.000	-0.055	0.256
-300.778	-200.000	-0.023	-0.331
-299.764	260.162	-0.180	-0.309
-298.749	-109.552	0.200	0.042
-297.735	-5.429	0.241	0.164
-296.720	-200.000	0.004	0.195
-295.705	-82.104	0.132	-0.043
-294.691	800.000	0.127	-0.434
-293.676	800.000	0.033	0.113
-292.662	800.000	-0.012	0.047
-291.647	137.494	0.097	-0.126
-290.632	-200.000	0.004	0.043
-289.618	668.934	0.104	0.267
-288.603	800.000	-0.056	0.212
-287.589	355.379	-0.114	0.224
-286.574	-66.504	0.190	0.075
-285.559	494.393	-0.132	0.300
-284.545	-200.000	-0.067	0.311
-283.530	45.531	0.037	-0.033
-282.516	-200.000	-0.032	-0.239
-281.501	108.600	-0.110	-0.131
-280.486	175.704	0.255	0.366
-279.472	-152.383	-0.212	0.015
-278.457	251.110	-0.081	-0.136
-277.443	94.464	0.334	-0.376
-276.428	-200.000	0.006	0.168
-275.413	-91.677	-0.163	0.046
-274.399	81.412	0.375	-0.401
-273.384	170.081	-0.149	0.211
-272.370	-45.979	0.146	0.071
-271.355	800.000	0.055	-0.217
-270.340	279.153	-0.188	0.331
-269.326	466.213	0.118	0.261
-268.311	-62.696	0.243	0.100
-267.297	105.436	0.173	0.202
-266.282	88.568	0.117	-0.129
-265.267	105.460	0.003	0.003
-264.253	-200.000	0.040	0.181
-263.238	54.345	0.123	0.118
-262.224	159.316	-0.193	0.266
-261.209	800.000	0.109	0.299
-260.195	-149.330	0.323	-0.025
-259.180	-35.888	0.016	0.008
-258.165	-68.819	0.492	-0.188
-257.151	-200.000	0.002	-0.010
-256.136	219.008	0.209	-0.331
-255.122	800.000	0.074	-0.213
-254.107	-86.067	0.411	-0.126
-253.092	-51.382	-0.167	-0.077
-252.078	111.316	0.187	-0.223
-251.063	-200.000	-0.004	0.109
-250.049	-61.539	0.381	-0.158
-249.034	-92.956	-0.241	0.067
-248.019	-56.789	-0.122	-0.053
-247.005	39.078	0.083	0.074
-245.990	-200.000	0.004	-0.156
-244.976	257.869	-0.189	-0.321
-243.961	-200.000	-0.032	0.230
-242.946	800.000	0.174	-0.528
-241.932	26.523	-0.232	-0.192
-240.917	-147.971	0.085	0.007
-239.903	439.311	0.114	0.245
-238.888	104.241	0.201	0.234
-237.873	676.889	-0.137	0.353
-236.859	-174.862	-0.143	-0.004
-235.844	-200.000	0.030	-0.248
-234.830	635.399	-0.073	0.184
-233.815	646.529	-0.139	-0.351
-232.800	584.744	-0.025	-0.061
-231.786	229.467	-0.062	0.100
-230.771	800.000	0.016	0.052
-229.757	51.804	-0.157	-0.147
-228.742	-181.545	-0.261	-0.005
-227.727	-200.000	0.013	-0.278
-226.713	-69.830	0.127	0.048
-225.698	-200.000	0.007	-0.196
-224.684	-200.000	0.020	0.351
-223.669	-38.478	0.049	-0.025
-222.655	-8.325	-0.136	0.090
-221.640	20.323	-0.095	0.076
-220.625	800.000	-0.071	0.200
-219.611	-200.000	0.026	0.267
-218.596	289.839	0.027	0.048
-217.582	113.272	0.114	0.137
-216.567	-200.000	-0.020	-0.095
-215.552	-18.347	-0.084	0.052
-214.538	-194.401	-0.040	0.000
-213.523	265.205	-0.153	0.264
-212.509	232.363	0.051	-0.083
-211.494	61.990	0.198	0.195
-210.479	61.308	0.124	-0.122
-209.465	-200.000	-0.085	-0.464
-208.450	-103.467	0.281	-0.065
-207.436	-134.897	-0.383	-0.046
-206.421	-200.000	-0.020	-0.315
-205.406	-65.551	0.258	0.102
-204.392	476.701	-0.110	-0.246
-203.377	704.128	0.076	0.197
-202.363	219.931	0.161	0.255
-201.348	-32.154	-0.215	-0.119
-200.333	9.394	-0.135	0.101
-199.319	-200.000	-0.246	0.001
-198.304	-200.000	0.015	0.161
-197.290	511.088	0.044	0.100
-196.275	-158.446	0.223	0.013
-195.260	-39.401	-0.219	0.113
-194.246	-200.000	0.023	-0.137
-193.231	749.589	0.065	0.174
-192.217	-69.990	0.221	-0.083
-191.202	262.923	0.146	-0.250
-190.187	230.703	-0.090	0.146
-189.173	-173.088	0.106	-0.003
-188.158	61.909	-0.157	0.155
-187.144	136.707	0.149	-0.192
-186.129	48.465	0.134	-0.124
-185.114	391.672	-0.091	-0.186
-184.100	72.868	0.130	-0.134
-183.085	189.992	0.264	-0.391
-182.071	-144.310	0.145	0.013
-181.056	-200.000	-0.014	0.104
-180.042	-18.805	0.257	-0.158
-179.027	-114.368	0.120	0.023
-178.012	587.095	-0.051	0.124
-176.998	-200.000	-0.011	-0.098
-175.983	-60.634	0.073	0.031
-174.969	-135.537	-0.270	-0.032
-173.954	-7.296	-0.120	-0.080
-172.939	-155.519	0.150	0.010
-171.925	367.484	0.050	0.099
-170.910	179.351	0.191	-0.277
-169.896	-27.915	0.146	-0.083
-168.881	-78.009	-0.217	-0.074
-167.866	75.492	-0.156	-0.162
-166.852	-200.000	-0.002	-0.125
-165.837	-166.018	-0.077	-0.003
-164.823	-40.766	-0.281	-0.144
-163.808	-101.409	-0.053	0.013
-162.793	-76.769	-0.063	0.022
-161.779	-69.928	-0.162	-0.061
-160.764	-26.676	-0.171	-0.098
-159.750	-15.928	0.171	-0.107
-158.735	541.364	0.126	-0.296
-157.720	-15.017	0.056	0.035
-156.706	66.031	-0.167	0.167
-155.691	-34.611	-0.098	-0.053
-154.677	-39.302	-0.326	-0.169
-153.662	-200.000	-0.016	0.260
-152.647	-54.945	0.255	0.113
-151.633	-26.772	0.195	-0.112
-150.618	268.317	-0.135	-0.233
-149.604	45.627	0.176	0.160
-148.589	-58.270	-0.085	-0.037
-147.574	21.315	0.180	0.144
-146.560	-3.493	0.089	0.061
-145.545	-69.812	-0.174	0.065
-144.531	-200.000	0.000	0.165
-143.516	-20.555	-0.185	0.112
-142.502	-85.022	0.083	0.026
-141.487	366.671	0.147	0.292
-140.472	-7.981	0.059	0.039
-139.458	368.615	-0.055	-0.109
-138.443	-3.032	-0.219	0.150
-137.429	158.424	-0.105	-0.144
-136.414	-200.000	0.025	-0.141
-135.399	-76.607	0.194	-0.067
-134.385	-200.000	-0.033	-0.161
-133.370	-200.000	-0.011	0.105
-132.356	-9.065	-0.242	-0.160
-131.341	71.467	0.124	-0.126
-130.326	-42.835	0.200	0.100
-129.312	800.000	-0.130	-0.384
-128.297	143.948	0.065	-0.085
-127.283	-47.592	0.120	-0.057
-126.268	193.828	0.051	0.077
-125.253	-99.758	-0.086	0.021
-124.239	-60.486	-0.113	-0.047
-123.224	-200.000	0.074	0.339
-122.210	123.180	0.082	0.101
-121.195	800.000	0.093	0.322
-120.180	-98.477	-0.132	-0.033
-119.166	173.528	0.137	0.194
-118.151	135.074	0.135	-0.173
-117.137	47.481	0.191	0.175
-116.122	537.826	-0.059	0.139
-115.107	97.975	-0.171	0.193
-114.093	-32.922	-0.171	0.094
-113.078	-124.041	-0.164	-0.025
-112.064	531.309	-0.058	-0.136
-111.049	-68.689	0.039	-0.015
-110.034	-12.159	-0.105	0.068
-109.020	-92.168	0.249	-0.069
-108.005	-200.000	-0.030	-0.274
-106.991	800.000	-0.068	-0.212
-105.976	-67.845	-0.149	-0.057
-104.962	-200.000	0.032	0.372
-103.947	184.425	-0.191	0.279
-102.932	258.252	-0.146	-0.248
-101.918	-187.568	0.132	-0.002
-100.903	111.327	0.069	-0.082
-99.889	-28.180	-0.272	0.155
-98.874	800.000	0.083	0.321
-97.859	-200.000	-0.053	0.407
-96.845	-200.000	0.036	-0.180
-95.830	-179.758	-0.158	-0.003
-94.816	83.163	-0.171	-0.183
-93.801	800.000	0.021	0.079
-92.786	73.622	0.177	0.182
-91.772	800.000	-0.077	0.240
-90.757	800.000	-0.026	-0.077
-89.743	137.695	0.143	0.184
-88.728	800.000	0.079	-0.334
-87.713	448.196	0.075	0.162
-86.699	-200.000	-0.113	-0.655
-85.684	-200.000	0.052	-0.313
-84.670	-200.000	0.058	0.356
-83.655	126.053	0.117	0.146
-82.640	-93.837	-0.222	-0.060
-81.626	68.849	0.113	-0.114
-80.611	42.074	0.201	0.179
-79.597	-14.338	-0.130	0.082
-78.582	-200.000	0.051	0.252
-77.567	327.377	-0.130	0.244
-76.553	-200.000	0.037	0.227
-75.538	13.407	-0.231	0.176
-74.524	800.000	-0.115	-0.347
-73.509	97.098	-0.315	0.355
-72.494	101.000	-0.011	0.013
-71.480	259.177	0.042	-0.072
-70.465	51.733	-0.103	0.096
-69.451	17.910	0.144	0.113
-68.436	44.526	0.220	0.198
-67.422	-69.787	-0.103	0.039
-66.407	-200.000	0.005	-0.070
-65.392	54.171	-0.028	0.027
-64.378	643.056	0.064	0.162
-63.363	14.871	0.217	-0.167
-62.349	647.423	0.202	-0.508
-61.334	118.833	-0.867	-1.053
-60.319	-21.415	0.684	0.410
-59.305	490.412	-0.534	-1.201
-58.290	800.000	0.427	1.185
-57.276	333.669	0.837	1.591
-56.261	-200.000	109.097	594.923
-55.246	442.934	1488.978	3204.901
-54.232	146.289	2667.788	3517.350
-53.217	104.698	2175.955	2518.501
-52.203	39.562	1708.063	1503.757
-51.188	32.610	1523.741	1293.899
-50.173	30.212	1497.795	1255.601
-49.159	51.462	1554.137	1450.029
-48.144	51.536	1570.575	1465.815
-47.130	32.794	1526.167	1297.015
-46.115	29.656	1511.640	1263.206
-45.100	29.641	1507.713	1259.777
-44.086	29.459	1505.913	1256.980
-43.071	29.418	1504.002	1255.053
-42.057	29.438	1502.648	1254.014
-41.042	29.331	1501.095	1251.942
-40.027	29.438	1499.186	1251.022
-39.013	29.478	1497.562	1249.891
-37.998	29.414	1496.207	1248.278
-36.984	29.404	1495.117	1247.248
-35.969	29.401	1493.950	1246.210
-34.954	29.403	1492.531	1244.989
-33.940	29.410	1491.620	1244.228
-32.925	29.443	1490.307	1243.301
-31.911	29.421	1488.958	1241.982
-30.896	29.462	1487.667	1241.128
-29.881	29.510	1486.213	1240.189
-28.867	29.539	1485.142	1239.444
-27.852	29.500	1483.845	1238.051
-26.838	29.531	1482.476	1237.066
-25.823	29.512	1481.064	1235.712
-24.809	29.573	1479.137	1234.460
-23.794	29.509	1478.032	1233.063
-22.779	29.464	1476.861	1231.738
-21.765	29.522	1475.568	1230.999
-20.750	29.559	1474.379	1230.201
-19.736	29.551	1473.361	1229.249
-18.721	29.466	1472.344	1227.787
-17.706	29.475	1470.501	1226.258
-16.692	29.359	1470.333	1225.303
-15.677	29.375	1468.840	1224.117
-14.663	29.499	1467.480	1223.756
-13.648	29.511	1466.346	1222.840
-12.633	29.434	1465.982	1221.981
-11.619	29.433	1465.440	1221.470
-10.604	29.455	1464.306	1220.624
-9.590	29.361	1463.923	1219.632
-8.575	29.381	1462.829	1218.806
-7.560	29.404	1461.991	1218.209
-6.546	29.475	1460.746	1217.597
-5.531	29.401	1460.090	1216.514
-4.517	29.461	1459.285	1216.188
-3.502	29.388	1458.050	1214.631
-2.487	29.461	1456.753	1213.981
-1.473	29.438	1455.798	1212.984
-0.458	29.465	1454.137	1211.729
0.556	27.670	1444.504	1200.840
1.571	24.694	1420.173	1161.207
2.586	21.443	1360.228	1091.838
3.600	19.823	1278.118	1016.327
4.615	18.770	1232.218	973.771
5.629	16.212	1175.232	914.807
6.644	8.080	1089.566	807.024
7.659	1.301	1049.286	743.977
8.673	0.298	1043.486	734.909
9.688	0.080	1040.594	731.747
10.702	0.020	1039.148	730.378
11.717	-0.028	1036.738	728.386
12.731	2.685	1039.222	743.230
13.746	10.865	1050.051	790.840
14.761	16.991	1058.083	826.760
15.775	17.421	1057.677	828.463
16.790	16.444	1055.297	821.780
17.804	15.404	1052.900	814.790
18.819	14.492	1051.316	809.071
19.834	14.191	1049.843	806.406
20.848	13.768	1048.679	803.391
21.863	13.618	1048.234	802.256
22.877	13.409	1047.395	800.533
23.892	13.175	1046.449	798.605
24.907	12.985	1046.002	797.278
25.921	13.008	1045.159	796.673
26.936	12.980	1044.862	796.242
27.950	13.129	1044.047	796.267
28.965	13.073	1043.328	795.380
29.980	13.193	1042.128	794.972
30.994	13.323	1040.813	794.523
32.009	13.281	1040.570	794.068
33.023	13.346	1040.090	793.942
34.038	13.368	1039.070	793.197
35.053	13.281	1038.153	792.013
36.067	13.235	1037.604	791.302
37.082	13.269	1036.316	790.411
38.096	13.296	1035.542	789.882
39.111	13.193	1035.075	788.965
40.126	13.273	1034.463	788.812
41.140	13.189	1033.252	787.417
42.155	13.114	1032.022	786.051
43.169	13.080	1031.212	785.204
44.184	13.120	1029.895	784.322
45.199	13.044	1029.086	783.275
46.213	13.097	1028.201	782.782
47.228	13.047	1027.292	781.785
48.242	13.109	1025.888	780.943
49.257	13.212	1025.315	780.924
50.271	13.205	1024.282	780.032
51.286	13.260	1023.519	779.644
52.301	13.230	1022.291	778.499
53.315	13.210	1022.160	778.232
54.330	13.085	1021.276	776.903
55.344	13.144	1019.946	776.102
56.359	13.196	1018.899	775.479
57.374	13.106	1018.317	774.548
58.388	13.088	1017.325	773.639
59.403	13.013	1016.957	772.937
60.417	12.935	1016.280	771.991
61.432	12.942	1015.381	771.270
62.447	13.055	1014.588	771.132
63.461	13.032	1013.614	770.215
64.476	12.970	1012.806	769.241
65.490	12.937	1012.265	768.612
66.505	12.913	1011.304	767.701
67.520	13.032	1010.509	767.584
68.534	13.012	1009.898	766.956
69.549	13.084	1008.898	766.464
70.563	12.953	1008.634	765.589
71.578	13.058	1007.474	765.126
72.593	13.043	1006.795	764.475
73.607	12.857	1005.418	762.501
74.622	13.012	1004.570	762.506
75.636	13.010	1003.727	761.791
76.651	12.968	1002.998	760.975
77.666	13.011	1002.185	760.488
78.680	12.955	1001.567	759.696
79.695	13.040	1000.670	759.338
80.709	13.027	1000.631	759.181
81.724	13.007	999.745	758.353
82.739	13.150	998.728	758.167
83.753	13.169	998.084	757.698
84.768	13.175	997.659	757.335
85.782	13.227	996.805	756.860
86.797	13.261	995.990	756.328
87.812	13.162	995.455	755.406
88.826	13.150	994.429	754.503
89.841	13.224	993.827	754.317
90.855	13.208	993.218	753.714
91.870	13.243	992.236	753.063
92.884	13.113	992.017	752.241
93.899	13.340	990.909	752.365
94.914	13.431	989.786	751.859
95.928	13.211	989.568	750.625
96.943	13.294	988.646	750.239
97.957	13.371	987.384	749.564
98.972	13.277	986.839	748.657
99.987	13.320	986.395	748.449
101.001	13.307	985.507	747.650
102.016	13.357	984.494	747.043
103.030	13.241	983.780	745.909
104.045	13.259	982.840	745.215
105.060	13.293	981.832	744.534
106.074	13.337	980.756	743.854
107.089	13.247	979.922	742.748
108.103	13.117	979.129	741.497
109.118	13.136	978.168	740.789
110.133	13.119	977.674	740.274
111.147	13.148	976.363	739.345
112.162	13.105	975.649	738.546
113.176	13.062	975.435	738.127
114.191	13.136	974.329	737.555
115.206	13.127	973.367	736.722
116.220	13.298	972.120	736.476
117.235	13.222	971.825	735.849
118.249	13.210	970.906	735.032
119.264	13.323	969.489	734.397
120.279	13.090	969.371	733.208
121.293	13.111	969.013	732.966
122.308	13.217	967.838	732.484
123.322	13.192	967.093	731.746
124.337	13.083	966.047	730.405
125.352	13.112	964.630	729.399
126.366	12.948	964.021	728.148
127.381	13.035	962.311	727.177
128.395	13.040	961.766	726.723
129.410	13.184	960.615	726.422
130.424	13.178	959.869	725.767
131.439	13.135	959.133	724.955
132.454	13.171	958.421	724.511
133.468	13.286	957.281	724.092
134.483	13.292	956.635	723.562
135.497	13.194	956.138	722.696
136.512	13.290	955.290	722.408
137.527	13.247	954.637	721.663
138.541	13.231	953.690	720.813
139.556	13.293	953.168	720.627
140.570	13.209	952.352	719.580
141.585	13.255	951.462	719.046
142.600	13.375	950.709	718.933
143.614	13.268	950.082	717.931
144.629	13.317	949.643	717.747
145.643	13.368	948.884	717.331
146.658	13.412	947.694	716.560
147.673	13.295	946.787	715.304
148.687	13.296	946.452	714.991
149.702	13.237	945.347	713.840
150.716	13.157	944.370	712.693
151.731	13.280	943.593	712.575
152.746	13.365	942.560	712.097
153.760	13.400	942.107	711.844
154.775	13.336	941.621	711.139
155.789	13.409	940.289	710.382
156.804	13.399	939.886	709.970
157.819	13.414	939.050	709.340
158.833	13.416	938.251	708.682
159.848	13.395	937.841	708.219
160.862	13.357	937.276	707.570
161.877	13.292	936.794	706.865
162.892	13.433	935.335	706.304
163.906	13.375	934.504	705.368
164.921	13.371	933.743	704.713
165.935	13.350	932.671	703.751
166.950	13.354	931.462	702.796
167.964	13.469	930.783	702.707
168.979	13.557	929.821	702.290
169.994	13.445	928.907	701.064
171.008	13.485	928.244	700.672
172.023	13.469	927.181	699.742
173.037	13.476	926.562	699.239
174.052	13.549	926.375	699.348
175.067	13.573	925.285	698.561
176.081	13.624	924.338	698.002
177.096	13.561	923.643	697.147
178.110	13.460	922.937	696.128
179.125	13.499	922.388	695.816
180.140	13.515	920.995	694.774
181.154	13.532	920.848	694.673
182.169	13.480	920.260	693.946
183.183	13.564	919.559	693.710
184.198	13.599	918.809	693.231
185.213	13.659	918.274	693.017
186.227	13.736	917.374	692.596
187.242	13.639	917.415	692.163
188.256	13.780	916.167	691.746
189.271	13.787	915.734	691.389
190.286	13.824	914.493	690.542
191.300	13.617	914.154	689.364
192.315	13.480	913.591	688.309
193.329	13.534	912.612	687.736
194.344	13.533	912.239	687.391
195.359	13.667	911.462	687.297
196.373	13.628	911.138	686.833
197.388	13.812	910.572	687.105
198.402	13.698	910.379	686.429
199.417	13.787	909.863	686.346
200.432	13.886	909.167	686.170
201.446	14.005	908.553	686.135
202.461	13.872	908.415	685.424
203.475	13.905	908.043	685.218
204.490	13.865	907.201	684.358
205.504	13.819	906.575	683.636
206.519	13.868	905.578	683.025
207.534	13.958	904.239	682.323
208.548	13.893	903.994	681.813
209.563	13.903	903.449	681.382
210.577	14.081	902.108	681.040
211.592	13.844	902.052	679.964
212.607	13.967	901.435	679.942
213.621	13.974	901.152	679.699
214.636	14.073	899.956	679.140
215.650	14.108	899.500	678.878
216.665	14.078	899.084	678.383
217.680	14.051	898.505	677.775
218.694	14.108	897.847	677.450
219.709	14.188	897.304	677.306
220.723	14.150	896.706	676.640
221.738	14.239	895.844	676.293
222.753	14.153	895.226	675.417
223.767	14.164	894.249	674.666
224.782	14.120	893.590	673.932
225.796	14.040	893.621	673.570
226.811	14.211	892.593	673.429
227.826	14.310	891.601	673.021
228.840	14.175	891.269	672.164
229.855	14.120	890.547	671.337
230.869	14.321	889.494	671.295
231.884	14.208	889.374	670.692
232.899	14.245	888.690	670.262
233.913	14.337	887.758	669.872
234.928	14.245	886.890	668.787
235.942	13.992	886.580	667.477
236.957	14.164	886.186	667.812
237.972	14.215	885.436	667.391
238.986	14.304	884.462	666.956
240.001	14.097	884.361	665.991
241.015	14.193	883.231	665.467
242.030	14.314	882.759	665.534
243.045	14.456	881.667	665.221
244.059	14.382	881.133	664.462
245.074	14.312	880.286	663.487
246.088	14.467	880.006	663.833
247.103	14.482	879.577	663.513
248.117	14.481	878.775	662.844
249.132	14.553	877.951	662.452
250.147	14.627	877.742	662.528
251.161	14.627	877.022	661.924
252.176	14.679	876.344	661.562
253.190	14.657	875.681	660.913
254.205	14.720	875.146	660.703
255.220	14.814	874.870	660.808
256.234	14.899	873.552	660.090
257.249	14.816	873.164	659.408
258.263	14.776	872.946	659.026
259.278	14.871	872.073	658.685
260.293	14.815	871.642	658.080
261.307	14.882	871.002	657.805
262.322	14.885	870.551	657.418
263.336	14.945	870.122	657.271
264.351	14.964	869.005	656.444
265.366	14.923	868.883	656.132
266.380	15.113	867.984	656.141
267.395	14.919	867.396	654.877
268.409	14.895	866.862	654.321
269.424	14.985	865.662	653.709
270.439	15.019	865.510	653.670
271.453	14.974	864.635	652.775
272.468	14.984	863.297	651.748
273.482	15.050	862.676	651.477
274.497	15.060	862.498	651.324
275.512	15.010	861.798	650.545
276.526	15.064	860.725	649.884
277.541	15.124	860.355	649.784
278.555	15.002	859.939	648.937
279.570	15.087	859.488	648.870
280.585	15.105	858.804	648.364
281.599	15.228	858.128	648.273
282.614	15.193	857.782	647.820
283.628	15.169	856.858	646.969
284.643	15.122	856.487	646.453
285.657	15.223	855.814	646.278
286.672	15.193	855.635	645.970
287.687	15.182	854.893	645.309
288.701	15.118	854.576	644.765
289.716	15.389	853.766	645.139
290.730	15.234	853.203	644.060
291.745	15.254	852.893	643.848
292.760	15.257	852.129	643.224
293.774	15.380	850.944	642.745
294.789	15.251	850.979	642.221
295.803	15.557	849.893	642.513
296.818	15.349	849.710	641.526
297.833	15.303	849.060	640.802
298.847	15.311	848.481	640.338
299.862	15.233	847.534	639.268
300.876	15.314	846.885	639.031
301.891	15.433	846.137	638.864
302.906	15.538	845.653	638.842
303.920	15.526	844.812	638.102
304.935	15.522	844.507	637.803
305.949	15.508	843.852	637.196
306.964	15.628	843.094	637.024
307.979	15.620	842.416	636.426
308.993	15.520	841.958	635.642
310.008	15.641	840.953	635.287
311.022	15.625	841.001	635.206
312.037	15.681	840.387	634.896
313.052	15.634	839.936	634.324
314.066	15.586	839.188	633.522
315.081	15.566	838.522	632.886
316.095	15.393	838.326	632.031
317.110	15.660	837.378	632.267
318.125	15.629	836.908	631.739
319.139	15.534	836.944	631.351
320.154	15.554	835.975	630.641
321.168	15.568	835.522	630.296
322.183	15.757	834.934	630.503
323.197	15.552	834.451	629.316
324.212	15.703	833.542	629.140
325.227	15.762	833.306	629.126
326.241	15.567	833.051	628.151
327.256	15.649	832.089	627.676
328.270	15.640	831.787	627.356
329.285	15.708	830.751	626.774
330.300	15.520	830.720	625.995
331.314	15.747	829.937	626.195
332.329	15.722	829.374	625.622
333.343	15.689	828.474	624.765
334.358	16.033	827.718	625.417
335.373	15.741	827.691	624.256
336.387	15.727	827.593	624.074
337.402	15.935	826.788	624.183
338.416	15.918	825.803	623.324
339.431	15.855	825.809	623.039
340.446	16.044	824.612	622.780
341.460	16.102	824.079	622.535
342.475	16.081	823.710	622.124
343.489	16.103	823.233	621.788
344.504	16.080	822.854	621.363
345.519	16.185	822.204	621.206
346.533	16.144	821.616	620.555
347.548	16.235	821.212	620.528
348.562	16.155	820.485	619.631
349.577	16.156	820.161	619.333
350.592	16.088	819.463	618.503
351.606	16.090	819.375	618.390
352.621	16.013	818.670	617.520
353.635	16.124	818.146	617.477
354.650	16.162	817.842	617.332
355.665	15.992	817.544	616.431
356.679	16.164	816.659	616.337
357.694	16.209	816.485	616.316
358.708	16.191	815.890	615.747
359.723	16.199	815.515	615.438
360.738	16.283	814.606	615.005
361.752	16.226	813.966	614.259
362.767	16.314	813.628	614.271
363.781	16.421	813.414	614.443
364.796	16.395	812.923	613.925
365.810	16.489	812.730	614.066
366.825	16.522	812.020	613.592
367.840	16.485	811.865	613.289
368.854	16.636	811.453	613.470
369.869	16.501	810.832	612.456
370.883	16.420	810.297	611.704
371.898	16.341	809.824	611.007
372.913	16.485	808.976	610.834
373.927	16.576	808.364	610.646
374.942	16.534	807.610	609.872
375.956	16.530	807.294	609.566
376.971	16.476	806.955	609.062
377.986	16.731	806.164	609.326
379.000	16.628	805.894	608.700
380.015	16.699	805.331	608.476
381.029	16.758	804.817	608.244
382.044	16.741	804.477	607.875
383.059	16.839	803.483	607.419
384.073	16.687	803.140	606.561
385.088	16.660	803.036	606.332
386.102	16.754	802.181	605.971
387.117	16.818	801.295	605.477
388.132	16.692	800.916	604.685
389.146	16.773	800.677	604.740
390.161	16.749	800.402	604.393
391.175	16.843	799.627	604.092
392.190	16.879	799.395	603.990
393.205	16.684	799.304	603.172
394.219	16.882	798.530	603.241
395.234	16.726	798.262	602.430
396.248	16.766	797.913	602.254
397.263	16.839	797.123	601.864
398.278	16.832	796.617	601.404
399.292	16.613	796.544	600.520
400.307	16.696	796.092	600.420
401.321	16.693	795.652	600.022
402.336	16.769	795.062	599.794
403.350	16.836	794.475	599.535
404.365	16.842	794.291	599.365
405.380	16.882	793.837	599.110
406.394	16.969	793.134	598.836
407.409	17.119	792.578	598.891
408.423	17.128	792.407	598.740
409.438	17.123	792.122	598.456
410.453	17.062	791.616	597.805
411.467	17.173	791.037	597.706
412.482	17.246	790.388	597.418
413.496	17.238	790.015	597.054
414.511	17.269	790.138	597.206
415.526	17.241	789.473	596.550
416.540	17.230	788.928	596.046
417.555	17.106	788.720	595.404
418.569	17.217	788.444	595.532
419.584	17.198	787.722	594.867
420.599	17.390	787.018	594.953
421.613	108.920	1291.282	1469.517
422.628	93.346	1364.754	1469.608
