DTS Sentinel unit serial number:	SN413079Multiplexer serial number:	ORYXHardware model number:	OX4-SRSoftware version number:	ORYX F/W v4.00 Oryx Data Collector v3.7.2.0data status	okinstallation	princeton_trtdifferential loss correction	single-endedforward channel	channel 3reverse channel	N/Adate	2019/09/11time	05:18:10forward acquisition time	60.00reverse acquisition time	0.00gamma	496.2192k internal	0.2330k external	0.2330temperature offset calibration	0.9907default loss term (dB/km)	0.3790temperature slope calibration	1.0000multiplexer offset coefficient	1.0000multiplexer slope coefficient	1.0000fibre end	0.00T internal ref (°C)	29.44T ext. ref 1 (°C)	-0.26T ext. ref 2 (°C)	23.34length (m)	temperature (°C)	Stokes	anti-Stokes-747.200	124.940	-0.074	-0.094
-746.185	-200.000	0.090	0.556
-745.171	800.000	0.133	0.391
-744.156	82.864	-0.079	0.087
-743.142	-124.343	0.093	-0.015
-742.127	495.065	0.079	0.183
-741.112	-200.000	-0.009	0.132
-740.098	-200.000	-0.005	0.424
-739.083	-200.000	0.044	0.395
-738.069	-200.000	0.038	0.388
-737.054	-95.643	-0.126	0.034
-736.039	27.119	-0.367	0.310
-735.025	-200.000	0.011	-0.067
-734.010	362.119	-0.063	-0.127
-732.996	203.770	-0.136	-0.213
-731.981	2.974	0.239	-0.175
-730.966	214.514	-0.144	-0.230
-729.952	-171.425	0.109	0.004
-728.937	-200.000	-0.063	0.299
-727.923	13.371	-0.038	0.030
-726.908	288.679	-0.061	0.111
-725.894	9.952	-0.189	0.145
-724.879	-12.021	-0.196	-0.129
-723.864	59.326	0.084	0.083
-722.850	-152.529	-0.291	0.021
-721.835	-4.171	-0.232	-0.162
-720.821	493.701	0.036	-0.083
-719.806	-153.251	-0.171	-0.012
-718.791	-200.000	0.040	-0.177
-717.777	-9.283	0.109	-0.073
-716.762	-200.000	-0.009	-0.086
-715.748	38.912	0.197	0.177
-714.733	-200.000	0.054	0.314
-713.718	-181.777	-0.490	0.009
-712.704	-14.706	-0.250	-0.161
-711.689	-77.284	-0.317	0.111
-710.675	-10.545	-0.284	-0.189
-709.660	-93.480	0.307	-0.085
-708.645	-54.600	0.151	-0.069
-707.631	-66.995	-0.375	0.149
-706.616	-122.461	-0.195	-0.032
-705.602	93.158	0.301	-0.342
-704.587	800.000	-0.017	-0.052
-703.572	-166.351	-0.222	-0.009
-702.558	-2.158	0.033	0.023
-701.543	54.901	0.288	-0.280
-700.529	31.629	-0.175	0.151
-699.514	-25.308	-0.242	0.144
-698.499	-200.000	0.031	-0.139
-697.485	-107.121	-0.453	0.101
-696.470	800.000	0.021	0.084
-695.456	205.608	-0.219	0.342
-694.441	222.444	0.053	0.085
-693.426	-200.000	0.094	0.429
-692.412	-108.573	0.143	-0.031
-691.397	-158.736	-0.235	-0.014
-690.383	-104.318	-0.089	0.021
-689.368	800.000	-0.012	0.045
-688.354	-127.737	-0.356	0.052
-687.339	-64.453	0.262	-0.107
-686.324	-200.000	0.009	0.151
-685.310	14.984	-0.120	-0.094
-684.295	-200.000	-0.024	0.305
-683.281	-64.753	-0.320	0.130
-682.266	153.807	0.083	0.114
-681.251	-31.264	0.258	0.146
-680.237	276.215	-0.207	-0.369
-679.222	-169.306	-0.386	-0.014
-678.208	-200.000	0.004	0.038
-677.193	-200.000	0.016	-0.106
-676.178	-27.595	-0.240	0.140
-675.164	-92.263	0.062	0.017
-674.149	-130.373	-0.141	0.019
-673.135	-141.003	0.145	0.015
-672.120	782.114	0.095	-0.261
-671.105	-50.981	-0.268	0.126
-670.091	800.000	-0.102	-0.322
-669.076	293.981	-0.174	-0.318
-668.062	57.403	-0.208	0.204
-667.047	-110.277	-0.241	-0.050
-666.032	-68.551	-0.393	0.153
-665.018	-45.729	0.220	-0.109
-664.003	129.968	0.059	0.076
-662.989	-114.439	0.208	-0.040
-661.974	-200.000	-0.012	0.234
-660.959	-200.000	-0.032	-0.257
-659.945	178.336	-0.164	0.240
-658.930	-144.809	-0.018	-0.002
-657.916	-148.843	0.251	0.020
-656.901	-108.292	-0.344	0.075
-655.886	27.172	0.185	-0.155
-654.872	-200.000	0.011	-0.515
-653.857	-137.452	-0.295	0.033
-652.843	600.087	0.023	-0.058
-651.828	-56.230	-0.299	0.134
-650.814	-200.000	-0.015	-0.120
-649.799	-136.288	-0.115	0.013
-648.784	-200.000	-0.013	0.277
-647.770	800.000	0.133	-0.400
-646.755	-50.147	0.202	-0.096
-645.741	800.000	0.011	0.044
-644.726	-130.395	-0.289	0.039
-643.711	-200.000	-0.004	-0.078
-642.697	-76.244	-0.372	-0.131
-641.682	-64.817	-0.111	-0.045
-640.668	204.383	-0.037	-0.058
-639.653	306.474	-0.133	-0.248
-638.638	-124.698	0.298	0.046
-637.624	-200.000	-0.000	0.190
-636.609	38.478	0.068	-0.061
-635.595	-104.211	0.352	-0.082
-634.580	-177.887	0.227	0.005
-633.565	-200.000	0.054	-0.264
-632.551	-167.196	-0.193	0.008
-631.536	-82.242	-0.271	-0.088
-630.522	-106.282	0.242	0.054
-629.507	-200.000	0.009	-0.095
-628.492	-200.000	-0.025	-0.278
-627.478	14.738	-0.198	-0.155
-626.463	-83.251	0.171	0.055
-625.449	797.831	0.116	0.321
-624.434	-47.220	-0.105	0.051
-623.419	-24.877	-0.178	-0.106
-622.405	800.000	0.112	-0.356
-621.390	-152.550	-0.030	0.002
-620.376	-200.000	-0.013	0.075
-619.361	-8.605	0.197	-0.132
-618.346	-69.033	0.148	-0.057
-617.332	-36.300	0.222	0.120
-616.317	-138.498	-0.257	0.028
-615.303	718.107	0.078	0.207
-614.288	-42.430	-0.146	-0.075
-613.273	-42.394	-0.275	0.140
-612.259	83.764	0.085	-0.093
-611.244	418.400	0.015	0.031
-610.230	-113.839	-0.218	0.042
-609.215	88.844	0.075	-0.084
-608.201	-200.000	0.036	-0.165
-607.186	-107.720	0.166	0.036
-606.171	-200.000	0.031	-0.339
-605.157	-65.502	-0.266	-0.107
-604.142	27.684	-0.108	-0.091
-603.128	229.835	0.093	-0.153
-602.113	-102.795	0.231	0.055
-601.098	-200.000	-0.029	0.226
-600.084	463.172	-0.101	0.226
-599.069	-108.374	0.117	-0.025
-598.055	-188.678	-0.117	0.001
-597.040	19.658	-0.408	-0.328
-596.025	800.000	-0.082	0.236
-595.011	-13.122	-0.385	0.251
-593.996	800.000	-0.088	-0.289
-592.982	800.000	-0.081	-0.256
-591.967	57.341	-0.202	0.197
-590.952	43.082	-0.063	0.057
-589.938	323.286	-0.136	0.260
-588.923	-200.000	0.068	-0.391
-587.909	13.958	-0.177	-0.138
-586.894	115.990	0.187	-0.229
-585.879	-200.000	-0.016	0.422
-584.865	-84.751	0.054	0.017
-583.850	71.590	0.067	0.070
-582.836	513.790	-0.082	-0.191
-581.821	-78.716	-0.197	-0.067
-580.806	-95.880	0.051	0.014
-579.792	77.076	-0.050	-0.053
-578.777	246.248	0.104	-0.176
-577.763	-200.000	-0.021	-0.227
-576.748	-42.847	0.112	0.057
-575.733	60.772	0.179	0.177
-574.719	333.808	0.205	-0.396
-573.704	-81.327	-0.053	0.017
-572.690	3.294	0.422	-0.307
-571.675	-28.128	0.168	-0.097
-570.661	745.183	0.166	-0.447
-569.646	-23.590	0.206	0.124
-568.631	-200.000	0.020	0.247
-567.617	324.386	0.173	-0.330
-566.602	-200.000	0.008	0.073
-565.588	-124.522	0.109	-0.017
-564.573	106.965	-0.107	-0.127
-563.558	110.888	-0.059	0.071
-562.544	-200.000	0.004	-0.197
-561.529	800.000	-0.041	0.155
-560.515	226.092	0.115	-0.186
-559.500	-119.659	-0.380	-0.066
-558.485	36.956	0.277	0.244
-557.471	790.295	-0.187	-0.514
-556.456	-78.564	-0.268	-0.092
-555.442	73.927	-0.277	-0.291
-554.427	-24.052	0.152	0.091
-553.412	192.262	0.096	0.144
-552.398	-99.987	0.210	-0.052
-551.383	-176.856	-0.221	0.006
-550.369	139.069	-0.174	0.229
-549.354	-60.476	-0.394	-0.167
-548.339	135.238	0.110	-0.142
-547.325	78.504	-0.117	-0.125
-546.310	-200.000	-0.018	0.265
-545.296	45.106	0.223	-0.206
-544.281	-200.000	-0.072	-0.395
-543.266	-75.338	-0.103	-0.037
-542.252	36.194	0.188	0.166
-541.237	75.154	-0.146	-0.154
-540.223	240.466	0.014	0.023
-539.208	9.747	0.294	0.223
-538.193	-200.000	0.024	0.140
-537.179	-36.435	-0.066	0.035
-536.164	-127.119	-0.100	0.015
-535.150	37.980	0.122	0.108
-534.135	-200.000	-0.015	-0.164
-533.121	105.939	-0.123	-0.146
-532.106	800.000	-0.039	-0.122
-531.091	413.220	-0.050	0.106
-530.077	-143.360	0.320	0.031
-529.062	-0.835	-0.211	-0.149
-528.048	-191.940	-0.389	-0.004
-527.033	37.331	-0.235	-0.208
-526.018	800.000	-0.102	0.396
-525.004	-197.863	-0.253	-0.002
-523.989	-44.781	0.240	0.119
-522.975	800.000	-0.037	-0.130
-521.960	-154.785	0.293	-0.019
-520.945	268.575	0.053	-0.093
-519.931	-200.000	0.051	-0.248
-518.916	5.005	-0.306	-0.225
-517.902	41.533	0.240	-0.217
-516.887	-200.000	0.012	0.075
-515.872	-27.260	0.312	0.181
-514.858	-200.000	0.013	-0.189
-513.843	-200.000	0.006	-0.364
-512.829	-150.724	-0.285	0.022
-511.814	-33.524	-0.358	0.197
-510.799	225.224	0.193	-0.312
-509.785	-63.206	-0.362	-0.149
-508.770	170.824	0.137	-0.196
-507.756	104.215	-0.147	-0.173
-506.741	-21.914	-0.130	-0.079
-505.726	-64.082	0.208	0.085
-504.712	-200.000	0.036	0.234
-503.697	131.257	-0.039	-0.050
-502.683	80.471	0.315	-0.338
-501.668	-44.878	0.094	0.046
-500.653	800.000	0.118	0.382
-499.639	36.472	0.293	0.258
-498.624	-200.000	0.079	0.507
-497.610	12.160	0.133	-0.102
-496.595	-200.000	-0.014	0.094
-495.581	186.932	0.121	-0.180
-494.566	-73.088	-0.204	-0.075
-493.551	-54.222	0.050	-0.023
-492.537	12.688	-0.274	0.211
-491.522	-62.833	-0.164	0.068
-490.508	52.490	-0.190	-0.180
-489.493	177.610	-0.111	-0.161
-488.478	-13.534	-0.320	0.207
-487.464	800.000	-0.043	0.133
-486.449	-85.014	0.032	0.010
-485.435	102.420	-0.009	0.011
-484.420	800.000	0.120	0.398
-483.405	-88.033	0.137	0.041
-482.391	19.387	-0.087	-0.070
-481.376	800.000	0.111	0.408
-480.362	-128.631	-0.374	0.053
-479.347	193.486	0.277	0.418
-478.332	-200.000	-0.063	0.391
-477.318	90.133	0.023	-0.026
-476.303	-81.935	-0.170	0.055
-475.289	200.074	-0.131	0.200
-474.274	-89.847	-0.139	-0.041
-473.259	-200.000	0.015	-0.123
-472.245	94.287	0.576	-0.651
-471.230	315.209	-0.186	-0.348
-470.216	-2.694	0.261	-0.182
-469.201	96.268	-0.139	-0.158
-468.186	112.197	0.139	-0.167
-467.172	-24.078	-0.062	-0.037
-466.157	-132.354	0.120	0.015
-465.143	-200.000	0.017	0.268
-464.128	240.595	0.151	-0.251
-463.113	-163.347	-0.370	0.018
-462.099	-123.078	0.245	0.039
-461.084	-41.258	0.273	-0.140
-460.070	800.000	0.057	0.215
-459.055	-92.112	0.153	0.043
-458.040	485.291	-0.087	0.198
-457.026	-200.000	-0.341	-0.000
-456.011	273.933	0.117	0.207
-454.997	-200.000	-0.026	-0.252
-453.982	120.701	0.106	-0.132
-452.968	386.003	0.057	-0.118
-451.953	322.373	0.206	0.390
-450.938	-93.291	0.178	0.049
-449.924	-200.000	-0.012	-0.214
-448.909	-155.958	0.097	-0.006
-447.895	-200.000	-0.004	-0.055
-446.880	-200.000	-0.003	0.017
-445.865	213.299	0.008	0.013
-444.851	107.898	0.060	0.071
-443.836	-117.196	0.194	-0.035
-442.822	800.000	0.082	-0.276
-441.807	-123.640	0.254	-0.040
-440.792	-185.477	0.308	0.005
-439.778	-50.437	-0.368	-0.173
-438.763	2.415	-0.161	-0.116
-437.749	-104.122	0.325	-0.075
-436.734	-200.000	-0.025	-0.306
-435.719	-125.439	-0.261	0.040
-434.705	-200.000	0.008	-0.365
-433.690	54.117	0.139	-0.133
-432.676	-179.804	-0.246	-0.005
-431.661	-200.000	0.026	-0.161
-430.646	41.902	-0.112	0.101
-429.632	-118.381	-0.151	-0.027
-428.617	-138.973	0.115	-0.012
-427.603	-187.346	0.230	0.003
-426.588	86.286	-0.230	0.252
-425.573	194.882	0.204	0.307
-424.559	-200.000	0.002	0.077
-423.544	82.552	0.203	0.219
-422.530	36.132	-0.138	-0.121
-421.515	315.137	0.097	0.181
-420.500	-200.000	0.013	-0.161
-419.486	421.694	0.023	0.050
-418.471	-200.000	0.016	0.083
-417.457	799.255	-0.031	0.086
-416.442	718.840	0.045	0.120
-415.428	-116.487	0.273	-0.050
-414.413	-166.248	-0.154	-0.006
-413.398	93.541	0.073	0.082
-412.384	-107.946	0.209	-0.045
-411.369	800.000	-0.087	-0.308
-410.355	84.168	-0.094	0.102
-409.340	-167.774	0.462	-0.018
-408.325	605.164	0.087	0.215
-407.311	-200.000	-0.040	-0.234
-406.296	-81.192	0.195	-0.064
-405.282	-63.096	-0.218	-0.089
-404.267	-200.000	-0.008	-0.045
-403.252	139.329	0.293	0.382
-402.238	-168.969	0.321	-0.012
-401.223	-145.690	0.334	0.030
-400.209	-106.572	0.325	-0.072
-399.194	-38.744	0.187	0.098
-398.179	175.031	-0.046	0.067
-397.165	-162.283	0.082	-0.004
-396.150	193.794	-0.131	0.198
-395.136	-13.994	-0.085	-0.054
-394.121	-200.000	-0.025	0.259
-393.106	-200.000	-0.003	-0.419
-392.092	800.000	-0.034	0.117
-391.077	-98.673	0.141	-0.036
-390.063	-145.129	-0.259	0.023
-389.048	-83.161	0.115	0.037
-388.033	36.956	0.286	0.251
-387.019	-200.000	-0.024	-0.230
-386.004	-93.881	-0.099	-0.027
-384.990	-114.159	-0.227	0.044
-383.975	109.705	0.057	-0.068
-382.960	800.000	0.097	-0.270
-381.946	-200.000	-0.009	-0.076
-380.931	-98.606	-0.209	-0.053
-379.917	-101.808	0.155	-0.037
-378.902	-62.335	-0.199	-0.082
-377.888	63.739	-0.082	-0.082
-376.873	304.798	-0.055	0.101
-375.858	237.008	0.157	-0.258
-374.844	255.039	0.195	0.331
-373.829	-200.000	-0.001	-0.181
-372.815	113.948	0.094	-0.114
-371.800	173.591	-0.146	0.209
-370.785	-200.000	0.015	-0.328
-369.771	-14.667	0.037	0.024
-368.756	-200.000	-0.006	0.116
-367.742	-49.969	0.344	0.162
-366.727	-199.820	-0.349	0.002
-365.712	-109.494	-0.019	-0.004
-364.698	-103.622	0.494	0.115
-363.683	-80.560	0.176	0.058
-362.669	179.806	0.135	0.196
-361.654	126.252	0.099	-0.124
-360.639	442.268	0.031	-0.068
-359.625	-122.485	-0.084	0.014
-358.610	132.861	-0.257	-0.330
-357.596	82.873	-0.040	0.044
-356.581	-100.246	0.112	-0.028
-355.566	-44.579	0.214	0.106
-354.552	-178.797	-0.238	-0.005
-353.537	-39.160	-0.203	-0.106
-352.523	146.514	0.156	0.208
-351.508	38.517	-0.121	-0.107
-350.493	6.997	-0.340	-0.251
-349.479	-52.622	-0.111	0.051
-348.464	100.043	0.166	-0.191
-347.450	-73.668	0.268	0.097
-346.435	521.980	0.169	0.393
-345.420	690.883	0.058	0.149
-344.406	-53.734	0.260	-0.117
-343.391	673.572	0.024	0.062
-342.377	-34.188	0.026	0.014
-341.362	117.771	0.214	0.261
-340.348	749.947	-0.057	0.151
-339.333	168.672	-0.159	0.225
-338.318	-200.000	0.023	0.148
-337.304	36.028	0.188	0.164
-336.289	-38.932	0.124	0.065
-335.275	77.324	-0.125	-0.132
-334.260	-80.207	0.151	-0.050
-333.245	-200.000	-0.034	-0.234
-332.231	-39.453	-0.428	-0.222
-331.216	-88.230	0.123	-0.036
-330.202	420.653	-0.129	0.273
-329.187	-77.042	0.148	-0.051
-328.172	-200.000	-0.001	-0.059
-327.158	-70.698	-0.408	0.153
-326.143	800.000	-0.101	0.395
-325.129	-76.372	0.207	-0.072
-324.114	548.422	-0.076	0.181
-323.099	-125.242	-0.450	-0.068
-322.085	-12.540	0.171	-0.110
-321.070	282.219	0.043	0.076
-320.056	10.644	0.098	0.074
-319.041	-31.069	-0.384	0.215
-318.026	800.000	0.040	0.172
-317.012	-82.641	0.173	0.056
-315.997	-83.700	0.245	0.077
-314.983	-200.000	0.038	0.345
-313.968	16.588	0.122	-0.096
-312.953	800.000	0.090	-0.337
-311.939	-89.513	-0.501	-0.146
-310.924	-89.114	-0.115	0.034
-309.910	-96.183	0.129	-0.034
-308.895	182.279	0.098	0.142
-307.880	18.638	-0.205	-0.162
-306.866	104.839	-0.300	0.350
-305.851	800.000	0.019	-0.057
-304.837	800.000	-0.166	-0.481
-303.822	5.192	0.101	-0.074
-302.807	38.625	0.174	0.153
-301.793	800.000	-0.055	-0.223
-300.778	-200.000	-0.097	0.436
-299.764	-200.000	0.001	0.051
-298.749	-196.870	-0.217	-0.001
-297.735	-38.184	-0.095	-0.050
-296.720	54.127	-0.183	-0.174
-295.705	800.000	0.019	-0.055
-294.691	-56.532	-0.055	-0.024
-293.676	-146.792	0.194	0.017
-292.662	368.726	-0.013	0.026
-291.647	-119.039	-0.112	0.019
-290.632	525.543	0.116	-0.269
-289.618	-94.032	0.310	0.084
-288.603	383.719	0.112	-0.227
-287.589	-179.592	-0.315	0.007
-286.574	-5.779	-0.010	-0.006
-285.559	51.224	0.163	-0.153
-284.545	189.788	-0.025	0.037
-283.530	-52.850	-0.281	0.128
-282.516	-93.114	0.103	-0.028
-281.501	65.044	-0.160	0.160
-280.486	136.121	0.165	0.213
-279.472	-11.234	-0.090	0.059
-278.457	-85.256	-0.282	0.087
-277.443	800.000	0.026	0.093
-276.428	-88.691	0.197	0.058
-275.413	-200.000	0.000	-0.008
-274.399	23.132	0.113	-0.092
-273.384	76.116	-0.065	-0.068
-272.370	-200.000	0.002	0.037
-271.355	-26.492	0.329	0.191
-270.340	-138.626	-0.161	-0.017
-269.326	-130.074	0.022	-0.003
-268.311	763.766	-0.107	-0.288
-267.297	-168.222	0.075	-0.003
-266.282	-86.851	0.224	0.068
-265.267	-200.000	0.031	0.229
-264.253	-200.000	-0.033	0.319
-263.238	-77.617	0.125	0.043
-262.224	7.429	-0.136	0.101
-261.209	-51.158	-0.296	-0.137
-260.195	575.608	-0.156	0.377
-259.180	-103.982	-0.061	-0.014
-258.165	-110.680	0.272	0.056
-257.151	-15.163	0.221	0.140
-256.136	-110.566	-0.277	-0.057
-255.122	260.596	0.080	0.136
-254.107	-77.356	0.124	-0.042
-253.092	50.062	-0.108	0.100
-252.078	-165.123	0.080	0.003
-251.063	-49.581	0.232	0.109
-250.049	-35.667	-0.290	0.155
-249.034	-200.000	-0.022	0.290
-248.019	-200.000	0.000	-0.139
-247.005	-79.156	-0.472	0.158
-245.990	95.621	0.040	0.045
-244.976	-200.000	0.012	-0.195
-243.961	-151.446	-0.104	0.008
-242.946	138.500	0.243	-0.315
-241.932	434.516	0.119	0.256
-240.917	1.214	0.244	-0.173
-239.903	25.458	0.087	-0.072
-238.888	-200.000	-0.007	-0.073
-237.873	-200.000	0.006	0.208
-236.859	800.000	0.046	-0.155
-235.844	-73.496	-0.111	0.040
-234.830	-33.269	-0.143	-0.078
-233.815	-200.000	-0.009	-0.475
-232.800	-118.567	-0.203	-0.035
-231.786	800.000	0.065	0.188
-230.771	34.983	0.382	-0.330
-229.757	-54.534	-0.011	-0.005
-228.742	543.143	0.081	0.191
-227.727	-55.504	-0.084	-0.037
-226.713	-190.820	-0.039	0.000
-225.698	-12.628	-0.217	0.140
-224.684	32.699	0.218	0.186
-223.669	311.113	-0.036	-0.067
-222.655	284.825	0.192	-0.342
-221.640	800.000	0.125	0.443
-220.625	-122.855	-0.284	0.045
-219.611	375.209	0.144	-0.289
-218.596	-135.810	0.133	0.016
-217.582	800.000	-0.042	0.177
-216.567	-200.000	-0.064	0.484
-215.552	-80.378	-0.269	0.089
-214.538	18.680	0.075	0.059
-213.523	-122.203	-0.071	0.011
-212.509	12.187	-0.278	-0.211
-211.494	66.242	0.331	-0.331
-210.479	-200.000	0.008	0.301
-209.465	-135.269	-0.337	0.040
-208.450	-200.000	-0.026	0.279
-207.436	-109.325	-0.230	-0.048
-206.421	-79.970	-0.393	-0.130
-205.406	-133.658	0.169	0.021
-204.392	800.000	-0.082	-0.254
-203.377	-200.000	0.005	0.136
-202.363	70.114	0.062	-0.063
-201.348	-18.710	-0.166	-0.102
-200.333	799.543	0.058	0.156
-199.319	257.301	-0.034	0.058
-198.304	318.157	0.146	0.272
-197.290	711.801	-0.071	-0.186
-196.275	141.775	0.087	0.113
-195.260	337.391	0.142	0.272
-194.246	-200.000	-0.062	0.272
-193.231	-200.000	0.011	0.256
-192.217	313.982	0.240	0.445
-191.202	347.823	-0.038	0.073
-190.187	-200.000	-0.052	-0.301
-189.173	16.102	0.035	0.027
-188.158	3.318	-0.245	-0.176
-187.144	-200.000	-0.030	0.227
-186.129	-85.071	0.103	0.032
-185.114	308.430	0.081	-0.149
-184.100	663.221	-0.075	-0.192
-183.085	302.269	-0.171	-0.311
-182.071	249.447	0.068	-0.113
-181.056	-1.728	0.168	-0.116
-180.042	-150.026	-0.186	-0.014
-179.027	-24.155	-0.317	0.186
-178.012	-200.000	0.055	0.267
-176.998	-164.366	0.206	-0.009
-175.983	-200.000	-0.030	0.333
-174.969	418.322	0.085	-0.178
-173.954	800.000	0.034	-0.124
-172.939	-130.725	-0.181	0.024
-171.925	800.000	-0.050	0.185
-170.910	515.960	-0.059	-0.137
-169.896	70.041	0.227	-0.230
-168.881	-200.000	-0.061	0.558
-167.866	-6.954	-0.078	0.052
-166.852	-170.666	-0.259	-0.009
-165.837	136.741	0.077	0.099
-164.823	316.087	0.169	0.314
-163.808	-95.495	-0.343	-0.091
-162.793	-155.049	0.123	-0.008
-161.779	63.029	0.195	0.192
-160.764	-106.805	-0.216	0.047
-159.750	2.575	-0.154	0.110
-158.735	800.000	0.039	0.156
-157.720	-85.052	-0.288	-0.089
-156.706	185.630	-0.139	-0.202
-155.691	60.817	0.074	0.072
-154.677	-200.000	-0.014	0.138
-153.662	-200.000	-0.075	0.000
-152.647	-88.496	-0.196	-0.058
-151.633	61.008	0.213	0.208
-150.618	380.092	0.045	-0.091
-149.604	74.725	-0.320	0.331
-148.589	21.641	-0.085	-0.068
-147.574	710.240	-0.112	0.290
-146.560	-200.000	0.020	0.373
-145.545	800.000	0.047	0.190
-144.531	-71.978	-0.318	0.116
-143.516	-200.000	-0.040	-0.389
-142.502	292.652	0.139	-0.250
-141.487	167.501	-0.229	0.320
-140.472	-200.000	-0.033	0.148
-139.458	800.000	0.007	-0.022
-138.443	-36.736	-0.155	-0.082
-137.429	27.995	-0.040	0.033
-136.414	-117.169	-0.430	-0.077
-135.399	-200.000	0.008	0.157
-134.385	-200.000	-0.006	0.146
-133.370	45.000	0.056	-0.051
-132.356	-182.665	0.211	-0.004
-131.341	-200.000	0.021	0.370
-130.326	-200.000	0.015	0.221
-129.312	-13.252	-0.129	-0.082
-128.297	45.113	-0.136	0.123
-127.283	50.509	-0.239	-0.222
-126.268	800.000	-0.047	0.142
-125.253	429.035	-0.126	-0.267
-124.239	-82.438	0.332	0.106
-123.224	596.175	-0.110	0.268
-122.210	-9.143	0.523	-0.344
-121.195	-200.000	-0.032	-0.465
-120.180	-165.859	-0.216	-0.009
-119.166	-12.623	-0.118	-0.075
-118.151	-200.000	-0.009	-0.273
-117.137	90.827	-0.034	-0.037
-116.122	188.881	0.056	0.082
-115.107	-37.209	0.174	-0.091
-114.093	466.186	0.101	-0.222
-113.078	-129.028	0.298	-0.041
-112.064	-200.000	0.061	0.269
-111.049	800.000	0.096	-0.322
-110.034	-128.781	0.355	0.049
-109.020	-26.025	0.245	0.141
-108.005	800.000	-0.036	-0.154
-106.991	186.095	0.074	-0.107
-105.976	66.458	-0.130	-0.130
-104.962	-200.000	-0.005	-0.054
-103.947	72.300	0.225	0.230
-102.932	-0.912	0.133	0.092
-101.918	-165.939	0.072	0.003
-100.903	-41.195	-0.223	-0.113
-99.889	-80.325	-0.101	-0.033
-98.874	704.934	0.032	0.083
-97.859	-109.846	0.422	0.087
-96.845	-155.745	0.162	0.010
-95.830	-96.746	0.174	-0.045
-94.816	-200.000	0.017	0.107
-93.801	-93.940	0.136	-0.037
-92.786	78.463	-0.164	0.172
-91.772	-113.727	0.038	0.007
-90.757	-38.330	0.048	0.025
-89.743	62.688	0.120	0.118
-88.728	198.000	0.065	0.097
-87.713	354.736	0.033	0.065
-86.699	-6.999	0.075	0.050
-85.684	20.109	0.150	-0.119
-84.670	-47.683	0.137	-0.065
-83.655	-73.805	-0.070	-0.025
-82.640	117.132	0.053	-0.064
-81.626	121.206	-0.198	0.242
-80.611	-125.633	-0.116	0.017
-79.597	800.000	0.096	-0.304
-78.582	201.378	-0.115	-0.174
-77.567	168.751	-0.081	0.114
-76.553	-7.372	0.295	-0.196
-75.538	-200.000	-0.002	0.106
-74.524	307.433	-0.053	0.097
-73.509	-200.000	0.058	-0.310
-72.494	-17.866	0.237	0.146
-71.480	-200.000	0.048	0.219
-70.465	769.477	0.071	0.190
-69.451	89.726	-0.063	0.069
-68.436	-74.276	-0.046	-0.016
-67.422	-71.168	-0.272	0.100
-66.407	101.784	0.152	0.173
-65.392	100.537	-0.132	0.150
-64.378	-200.000	-0.031	0.313
-63.363	3.566	0.228	0.163
-62.349	335.851	0.021	0.040
-61.334	171.916	-0.989	-1.393
-60.319	30.047	0.604	0.505
-59.305	-200.000	-0.102	-1.047
-58.290	222.762	0.655	1.035
-57.276	287.242	0.868	1.538
-56.261	-200.000	106.522	620.004
-55.246	506.847	1511.514	3435.355
-54.232	176.147	2701.589	3844.158
-53.217	110.634	2185.452	2575.305
-52.203	40.195	1705.033	1502.357
-51.188	32.645	1515.688	1284.255
-50.173	30.260	1488.700	1245.354
-49.159	51.556	1544.705	1438.459
-48.144	51.641	1561.368	1454.498
-47.130	32.713	1517.238	1285.833
-46.115	29.662	1502.799	1252.899
-45.100	29.480	1499.422	1248.797
-44.086	29.503	1496.840	1246.757
-43.071	29.522	1494.565	1244.937
-42.057	29.365	1493.303	1242.779
-41.042	29.345	1492.360	1241.811
-40.027	29.538	1490.131	1241.204
-39.013	29.447	1488.542	1239.224
-37.998	29.389	1487.598	1237.996
-36.984	29.365	1486.694	1237.032
-35.969	29.417	1484.650	1235.632
-34.954	29.382	1483.293	1234.220
-33.940	29.368	1481.978	1232.985
-32.925	29.426	1480.278	1231.910
-31.911	29.372	1479.844	1231.135
-30.896	29.440	1478.315	1230.267
-29.881	29.525	1477.025	1229.711
-28.867	29.605	1475.420	1228.859
-27.852	29.556	1474.082	1227.372
-26.838	29.456	1472.803	1225.597
-25.823	29.574	1471.282	1225.064
-24.809	29.471	1469.517	1222.863
-23.794	29.422	1468.460	1221.608
-22.779	29.463	1467.331	1220.890
-21.765	29.477	1466.165	1219.964
-20.750	29.455	1465.603	1219.303
-19.736	29.574	1463.827	1218.563
-18.721	29.442	1462.585	1216.615
-17.706	29.442	1461.342	1215.533
-16.692	29.393	1460.581	1214.527
-15.677	29.445	1459.348	1213.796
-14.663	29.475	1458.229	1213.010
-13.648	29.425	1457.732	1212.226
-12.633	29.446	1456.767	1211.508
-11.619	29.377	1456.122	1210.471
-10.604	29.357	1455.539	1209.811
-9.590	29.365	1454.636	1209.065
-8.575	29.468	1452.987	1208.319
-7.560	29.354	1452.491	1207.110
-6.546	29.471	1451.703	1207.172
-5.531	29.457	1450.737	1206.231
-4.517	29.380	1449.747	1204.854
-3.502	29.436	1448.656	1204.268
-2.487	29.423	1447.657	1203.306
-1.473	29.355	1446.494	1201.848
-0.458	29.492	1444.890	1201.359
0.556	26.969	1435.938	1190.437
1.571	24.099	1410.624	1150.827
2.586	20.905	1352.528	1083.506
3.600	19.327	1271.898	1009.592
4.615	18.231	1227.517	968.078
5.629	16.058	1172.864	913.136
6.644	8.141	1088.917	807.739
7.659	1.083	1048.877	743.437
8.673	-0.128	1043.195	733.435
9.688	-0.192	1039.909	730.748
10.702	-0.407	1038.086	728.358
11.717	-0.313	1036.378	727.553
12.731	2.959	1039.888	745.852
13.746	11.587	1052.931	797.406
14.761	18.478	1061.321	837.477
15.775	20.396	1063.338	848.374
16.790	20.812	1062.969	850.033
17.804	20.609	1062.226	848.376
18.819	20.419	1061.463	846.766
19.834	20.537	1060.577	846.555
20.848	20.722	1060.015	846.932
21.863	20.825	1059.752	847.150
22.877	20.756	1059.472	846.512
23.892	20.651	1058.491	845.146
24.907	20.508	1058.061	844.033
25.921	20.611	1057.339	843.885
26.936	20.639	1056.407	843.202
27.950	20.654	1054.973	842.053
28.965	20.579	1053.942	840.791
29.980	20.464	1052.287	838.844
30.994	20.566	1050.577	837.897
32.009	20.714	1049.868	837.969
33.023	20.692	1049.385	837.406
34.038	20.467	1048.018	835.158
35.053	20.610	1047.072	835.019
36.067	20.730	1046.329	834.926
37.082	20.561	1045.648	833.497
38.096	20.837	1044.689	833.981
39.111	20.879	1044.381	833.866
40.126	21.045	1043.052	833.523
41.140	20.913	1041.808	831.824
42.155	20.565	1040.616	829.139
43.169	20.316	1039.095	826.670
44.184	20.431	1037.883	826.181
45.199	20.448	1037.251	825.682
46.213	20.430	1035.761	824.338
47.228	20.269	1035.424	823.233
48.242	20.509	1034.153	823.286
49.257	20.502	1033.608	822.747
50.271	20.528	1032.817	822.168
51.286	20.785	1032.065	822.713
52.301	20.698	1031.104	821.462
53.315	20.694	1030.857	821.175
54.330	20.712	1029.525	820.126
55.344	20.684	1028.631	819.210
56.359	20.785	1027.567	818.766
57.374	20.621	1027.309	817.714
58.388	20.667	1025.959	816.783
59.403	20.502	1025.291	815.404
60.417	20.552	1024.601	815.020
61.432	20.352	1024.155	813.656
62.447	20.357	1023.554	813.130
63.461	20.401	1022.937	812.773
64.476	20.529	1021.948	812.513
65.490	20.448	1021.207	811.472
66.505	20.386	1020.014	810.166
67.520	20.410	1019.124	809.497
68.534	20.585	1018.148	809.468
69.549	20.374	1017.419	807.832
70.563	20.055	1016.269	805.364
71.578	19.945	1015.499	804.173
72.593	20.097	1014.566	804.070
73.607	19.995	1013.003	802.287
74.622	19.965	1012.666	801.811
75.636	20.223	1011.961	802.375
76.651	20.389	1011.116	802.400
77.666	20.214	1010.164	800.767
78.680	20.206	1009.095	799.810
79.695	20.289	1008.707	799.817
80.709	20.331	1007.949	799.339
81.724	20.359	1007.260	798.850
82.739	20.169	1006.499	797.299
83.753	20.366	1004.959	796.916
84.768	20.601	1004.606	797.641
85.782	20.785	1004.321	798.188
86.797	20.825	1004.093	798.118
87.812	21.020	1002.386	797.585
88.826	20.836	1001.452	795.929
89.841	20.772	1000.909	795.136
90.855	20.950	999.914	795.088
91.870	21.062	999.033	794.828
92.884	21.027	998.485	794.160
93.899	20.864	997.375	792.466
94.914	20.701	996.671	791.095
95.928	20.854	995.774	791.007
96.943	20.887	994.986	790.463
97.957	20.600	993.806	788.157
98.972	20.445	992.535	786.375
99.987	20.135	991.375	783.987
101.001	20.375	990.457	784.274
102.016	20.662	990.073	785.195
103.030	20.685	989.397	784.697
104.045	20.653	988.291	783.602
105.060	20.453	987.124	781.708
106.074	20.294	985.565	779.690
107.089	20.322	985.354	779.583
108.103	20.761	984.900	781.121
109.118	20.752	983.809	780.149
110.133	20.555	982.698	778.318
111.147	20.526	981.472	777.147
112.162	20.456	980.400	775.917
113.176	20.077	979.617	773.537
114.191	20.314	978.549	773.683
115.206	20.281	978.366	773.321
116.220	20.107	976.715	771.176
117.235	19.933	976.105	769.852
118.249	20.158	974.888	769.820
119.264	20.120	974.255	769.086
120.279	19.998	973.620	767.973
121.293	20.168	972.545	767.811
122.308	20.218	972.001	767.537
123.322	20.324	970.784	766.976
124.337	20.149	970.152	765.634
125.352	20.158	968.565	764.356
126.366	19.799	966.897	761.391
127.381	19.451	965.195	758.453
128.395	20.064	964.788	760.757
129.410	20.621	964.037	762.543
130.424	20.736	963.754	762.754
131.439	20.622	962.728	761.377
132.454	20.585	961.408	760.105
133.468	20.597	960.910	759.693
134.483	20.416	960.077	758.178
135.497	20.496	959.262	757.819
136.512	20.666	958.984	758.275
137.527	20.828	957.808	757.980
138.541	20.911	957.085	757.701
139.556	20.889	956.155	756.802
140.570	20.889	955.320	756.076
141.585	20.979	954.486	755.737
142.600	21.051	953.494	755.198
143.614	20.774	952.774	753.364
144.629	20.912	952.202	753.441
145.643	21.200	951.248	753.863
146.658	21.012	950.636	752.500
147.673	20.950	948.951	750.833
148.687	20.798	947.934	749.306
149.702	20.630	947.177	747.921
150.716	20.603	946.012	746.819
151.731	20.671	945.081	746.308
152.746	20.770	944.248	746.009
153.760	20.986	943.331	746.142
154.775	21.010	942.940	745.870
155.789	21.079	941.819	745.214
156.804	20.993	941.170	744.266
157.819	20.903	939.994	742.886
158.833	20.977	939.440	742.697
159.848	21.167	938.569	742.752
160.862	21.027	938.231	741.821
161.877	20.932	936.655	740.108
162.892	20.855	936.203	739.359
163.906	21.023	935.139	739.164
164.921	21.127	934.103	738.721
165.935	20.924	933.311	737.173
166.950	21.026	932.318	736.754
167.964	20.917	931.162	735.315
168.979	21.076	929.869	734.896
169.994	20.847	928.980	733.166
171.008	20.810	928.533	732.592
172.023	20.940	927.499	732.258
173.037	21.122	926.782	732.391
174.052	21.000	925.442	730.756
175.067	20.615	924.787	728.561
176.081	20.760	923.711	728.257
177.096	20.766	923.345	727.927
178.110	20.876	922.309	727.505
179.125	20.603	921.316	725.522
180.140	20.433	920.210	723.877
181.154	20.509	919.506	723.574
182.169	20.482	919.037	723.029
183.183	20.731	918.810	723.822
184.198	21.002	918.547	724.678
185.213	20.840	917.912	723.442
186.227	20.811	917.129	722.638
187.242	20.960	916.551	722.736
188.256	21.072	915.614	722.398
189.271	21.120	914.601	721.735
190.286	21.103	914.388	721.434
191.300	20.866	913.585	719.757
192.315	20.490	911.588	716.570
193.329	19.758	910.220	712.416
194.344	19.407	909.413	710.276
195.359	20.044	909.484	712.891
196.373	20.800	909.630	716.050
197.388	20.957	909.379	716.435
198.402	20.884	908.240	715.177
199.417	20.835	908.149	714.840
200.432	20.898	907.472	714.502
201.446	20.668	906.800	712.967
202.461	20.429	906.039	711.326
203.475	20.499	905.581	711.189
204.490	20.003	903.846	707.740
205.504	18.932	902.003	701.865
206.519	19.637	901.820	704.536
207.534	20.415	902.319	708.036
208.548	20.509	901.438	707.663
209.563	20.790	901.490	708.785
210.577	20.799	900.579	708.043
211.592	20.590	899.497	706.282
212.607	21.014	899.433	707.889
213.621	21.086	898.975	707.761
214.636	21.010	898.363	706.905
215.650	21.027	897.804	706.475
216.665	20.952	897.589	705.937
217.680	21.035	897.118	705.841
218.694	21.029	896.519	705.282
219.709	20.747	895.288	703.114
220.723	20.412	894.114	700.777
221.738	20.685	893.615	701.427
222.753	20.875	893.200	701.804
223.767	20.811	892.168	700.675
224.782	20.894	891.501	700.422
225.796	21.047	891.237	700.764
226.811	21.117	891.039	700.829
227.826	20.817	889.404	698.279
228.840	20.020	888.115	694.013
229.855	19.982	887.427	693.262
230.869	20.222	886.873	693.730
231.884	19.958	886.242	692.119
232.899	19.936	885.854	691.666
233.913	20.617	885.994	694.434
234.928	20.934	885.283	695.079
235.942	20.773	884.383	693.670
236.957	20.872	883.974	693.683
237.972	20.628	882.913	691.817
238.986	20.446	882.229	690.496
240.001	20.615	881.790	690.762
241.015	20.663	881.103	690.353
242.030	20.628	880.717	689.851
243.045	20.797	880.137	690.007
244.059	20.849	879.500	689.653
245.074	20.999	878.861	689.681
246.088	20.958	878.394	689.094
247.103	20.480	877.671	686.577
248.117	20.608	876.839	686.371
249.132	21.226	876.576	688.541
250.147	21.526	876.327	689.468
251.161	21.608	875.802	689.315
252.176	21.761	875.409	689.548
253.190	21.714	874.496	688.585
254.205	21.801	873.928	688.416
255.220	21.926	873.834	688.772
256.234	21.976	872.878	688.155
257.249	21.734	872.551	686.887
258.263	21.609	871.911	685.832
259.278	21.728	871.055	685.566
260.293	21.666	871.073	685.277
261.307	21.739	870.188	684.805
262.322	21.804	869.093	684.135
263.336	21.482	868.936	682.694
264.351	21.089	867.106	679.664
265.366	19.949	865.442	673.867
266.380	19.698	864.370	671.997
267.395	20.504	864.984	675.547
268.409	21.231	865.210	678.492
269.424	21.225	864.477	677.834
270.439	21.268	864.299	677.801
271.453	21.493	863.074	677.651
272.468	21.504	862.690	677.332
273.482	21.550	862.363	677.195
274.497	21.859	861.560	677.698
275.512	21.592	860.858	676.056
276.526	21.145	859.092	672.886
277.541	21.282	858.868	673.177
278.555	21.646	858.665	674.361
279.570	21.514	857.971	673.250
280.585	21.310	857.166	671.772
281.599	21.404	856.526	671.573
282.614	21.401	856.473	671.459
283.628	21.069	854.900	668.893
284.643	20.754	854.530	667.340
285.657	21.093	854.510	668.562
286.672	20.943	853.635	667.247
287.687	20.498	852.321	664.459
288.701	20.831	852.520	665.828
289.716	21.179	852.214	666.859
290.730	20.879	851.119	664.798
291.745	20.841	850.362	664.004
292.760	20.675	849.289	662.476
293.774	20.571	849.011	661.805
294.789	21.500	849.687	665.808
295.803	21.992	849.863	667.762
296.818	22.200	849.093	667.886
297.833	22.243	848.516	667.537
298.847	21.812	847.750	665.240
299.862	21.595	846.610	663.464
300.876	21.712	846.243	663.563
301.891	22.139	845.611	664.622
302.906	22.118	844.974	663.984
303.920	21.607	843.939	661.184
304.935	21.574	843.376	660.559
305.949	21.862	842.840	661.167
306.964	22.039	842.535	661.537
307.979	21.926	841.773	660.454
308.993	21.783	841.619	659.734
310.008	22.022	841.557	660.527
311.022	22.211	840.755	660.551
312.037	21.981	840.125	659.133
313.052	21.755	839.382	657.646
314.066	21.785	838.656	657.129
315.081	21.146	837.352	653.658
316.095	20.447	836.223	650.104
317.110	21.040	836.064	652.140
318.125	21.710	836.872	655.218
319.139	21.318	835.530	652.648
320.154	20.236	833.638	647.078
321.168	19.950	832.628	645.170
322.183	20.628	832.620	647.631
323.197	21.363	833.682	651.141
324.212	21.713	833.222	652.026
325.227	21.802	832.780	651.954
326.241	22.016	832.179	652.221
327.256	21.881	831.664	651.256
328.270	21.625	831.384	650.030
329.285	21.689	830.137	649.236
330.300	21.398	829.823	647.855
331.314	21.285	828.751	646.540
332.329	21.272	828.541	646.271
333.343	21.761	827.919	647.539
334.358	22.020	827.518	648.124
335.373	21.915	826.867	647.169
336.387	21.951	826.759	647.158
337.402	22.320	826.104	647.948
338.416	22.427	825.681	647.951
339.431	22.363	824.825	646.988
340.446	22.381	824.638	646.852
341.460	22.458	824.498	646.968
342.475	22.353	823.681	645.883
343.489	22.275	822.810	644.857
344.504	22.186	822.206	644.001
345.519	22.471	822.052	644.867
346.533	22.622	821.718	645.100
347.548	22.736	820.889	644.808
348.562	22.681	820.606	644.329
349.577	22.840	820.063	644.424
350.592	22.665	819.711	643.454
351.606	22.581	819.289	642.759
352.621	22.647	818.810	642.567
353.635	22.683	818.237	642.192
354.650	22.607	817.474	641.261
355.665	22.153	816.818	639.037
356.679	21.197	814.894	634.006
357.694	21.190	814.048	633.266
358.708	21.730	814.551	635.560
359.723	21.577	813.773	634.345
360.738	21.879	813.560	635.215
361.752	22.204	813.469	636.265
362.767	22.395	813.033	636.557
363.781	22.672	813.067	637.528
364.796	22.999	812.631	638.314
365.810	23.044	812.467	638.289
366.825	23.108	811.548	637.743
367.840	22.962	811.619	637.215
368.854	22.780	810.690	635.773
369.869	22.543	809.974	634.302
370.883	22.470	809.180	633.362
371.898	22.374	809.106	632.904
372.913	22.392	808.267	632.255
373.927	22.362	807.696	631.644
374.942	22.499	807.135	631.643
375.956	22.602	806.834	631.720
376.971	22.716	806.291	631.648
377.986	22.862	805.214	631.270
379.000	22.799	805.118	630.913
380.015	22.941	804.996	631.269
381.029	22.921	804.232	630.544
382.044	22.833	803.535	629.625
383.059	23.025	803.237	630.021
384.073	23.112	802.093	629.379
385.088	23.055	802.021	629.065
386.102	23.000	801.433	628.349
387.117	22.861	801.039	627.491
388.132	22.924	800.407	627.165
389.146	22.665	799.669	625.614
390.161	22.063	798.749	622.704
391.175	22.172	798.696	622.994
392.190	22.629	798.517	624.419
393.205	22.603	798.083	623.930
394.219	21.707	796.366	619.367
395.234	20.162	793.960	611.992
396.248	19.558	793.151	609.185
397.263	20.640	793.695	613.367
398.278	22.399	794.766	620.344
399.292	22.740	794.812	621.529
400.307	22.362	794.359	619.786
401.321	22.411	793.919	619.561
402.336	22.248	793.703	618.765
403.350	22.745	793.803	620.536
404.365	23.143	793.411	621.571
405.380	23.412	793.432	622.479
406.394	23.647	793.006	622.915
407.409	23.808	792.459	622.994
408.423	23.611	792.101	621.968
409.438	23.807	791.159	621.857
410.453	23.603	790.857	620.854
411.467	23.826	790.332	621.165
412.482	23.661	790.267	620.483
413.496	23.624	789.298	619.539
414.511	23.930	788.912	620.247
415.526	23.790	788.991	619.764
416.540	23.808	788.355	619.274
417.555	23.737	788.030	618.716
418.569	23.381	786.814	616.468
419.584	23.446	786.414	616.326
420.599	23.464	786.069	616.063
421.613	156.847	1365.376	1797.847
422.628	135.652	1449.765	1797.936
