DTS Sentinel unit serial number:	SN413079Multiplexer serial number:	ORYXHardware model number:	OX4-SRSoftware version number:	ORYX F/W v4.00 Oryx Data Collector v3.7.2.0data status	okinstallation	princeton_trtdifferential loss correction	single-endedforward channel	channel 3reverse channel	N/Adate	2019/09/17time	08:24:35forward acquisition time	60.00reverse acquisition time	0.00gamma	496.2192k internal	0.2332k external	0.2332temperature offset calibration	0.9939default loss term (dB/km)	0.3790temperature slope calibration	1.0000multiplexer offset coefficient	1.0000multiplexer slope coefficient	1.0000fibre end	0.00T internal ref (°C)	27.50T ext. ref 1 (°C)	0.12T ext. ref 2 (°C)	22.89length (m)	temperature (°C)	Stokes	anti-Stokes-747.200	-76.385	0.417	0.148
-746.185	800.000	-0.099	0.386
-745.171	800.000	-0.123	-0.361
-744.156	-178.690	-0.253	-0.006
-743.142	-200.000	-0.030	0.257
-742.127	379.357	-0.135	0.279
-741.112	-26.112	0.159	-0.094
-740.098	50.373	0.273	0.260
-739.083	-119.754	0.108	0.019
-738.069	587.298	0.120	0.298
-737.054	-200.000	0.029	0.286
-736.039	281.697	0.163	-0.294
-735.025	393.627	0.017	0.036
-734.010	-67.066	0.311	0.123
-732.996	-200.000	0.006	0.291
-731.981	305.418	-0.132	0.247
-730.966	-200.000	0.005	-0.071
-729.952	-168.093	-0.297	-0.012
-728.937	-200.000	-0.024	0.366
-727.923	-200.000	0.069	0.340
-726.908	800.000	-0.059	-0.232
-725.894	800.000	0.145	-0.463
-724.879	74.421	-0.200	0.212
-723.864	168.087	-0.196	0.280
-722.850	800.000	-0.009	-0.035
-721.835	-200.000	0.036	-0.270
-720.821	-83.972	0.293	-0.094
-719.806	-200.000	0.034	0.153
-718.791	52.910	0.196	-0.189
-717.777	-123.890	-0.100	-0.016
-716.762	-123.283	-0.219	-0.035
-715.748	-4.016	0.386	-0.269
-714.733	2.732	-0.178	0.129
-713.718	-130.288	-0.100	-0.014
-712.704	-66.699	-0.282	-0.112
-711.689	-67.027	-0.174	-0.069
-710.675	269.051	-0.094	0.166
-709.660	-167.477	-0.294	0.012
-708.645	-111.010	-0.151	0.031
-707.631	-141.323	-0.297	0.030
-706.616	-83.464	-0.159	-0.051
-705.602	-20.259	0.134	-0.083
-704.587	-98.249	-0.161	-0.041
-703.572	-200.000	-0.004	-0.184
-702.558	-31.627	-0.336	0.189
-701.543	-13.040	0.179	-0.117
-700.529	-200.000	-0.045	-0.226
-699.514	-19.315	0.207	0.129
-698.499	-130.898	-0.129	-0.017
-697.485	-200.000	-0.036	0.184
-696.470	-98.299	-0.051	0.013
-695.456	800.000	-0.038	-0.107
-694.441	435.267	0.047	-0.102
-693.426	-16.474	0.074	-0.047
-692.412	-99.933	-0.281	0.071
-691.397	800.000	0.027	0.104
-690.383	587.557	-0.158	0.390
-689.368	362.958	0.207	0.418
-688.354	29.915	-0.211	0.181
-687.339	800.000	0.027	0.108
-686.324	-27.302	0.241	-0.141
-685.310	-200.000	0.049	0.266
-684.295	120.233	0.262	0.327
-683.281	800.000	-0.111	0.338
-682.266	-200.000	0.053	-0.278
-681.251	-200.000	0.005	-0.179
-680.237	-200.000	0.029	-0.129
-679.222	351.903	-0.172	-0.343
-678.208	351.437	0.100	0.198
-677.193	-73.946	-0.203	-0.074
-676.178	354.816	-0.023	-0.046
-675.164	-107.011	0.587	-0.130
-674.149	6.663	0.153	0.114
-673.135	-171.582	-0.122	-0.004
-672.120	-162.004	-0.382	0.019
-671.105	-80.861	-0.141	0.047
-670.091	-96.972	0.395	0.104
-669.076	-172.037	0.254	0.008
-668.062	522.194	0.058	-0.136
-667.047	800.000	0.041	-0.166
-666.032	800.000	0.033	-0.097
-665.018	121.041	-0.108	0.135
-664.003	77.591	-0.148	-0.158
-662.989	-200.000	0.022	0.218
-661.974	-94.723	0.261	0.071
-660.959	-77.364	-0.166	-0.058
-659.945	-83.267	-0.220	-0.071
-658.930	-71.428	0.340	0.128
-657.916	76.345	-0.103	0.110
-656.901	-71.306	-0.076	-0.029
-655.886	-163.147	-0.216	0.010
-654.872	55.395	-0.162	0.157
-653.857	-35.898	-0.047	0.025
-652.843	-200.000	-0.034	0.325
-651.828	800.000	0.010	-0.040
-650.814	-9.130	0.529	0.355
-649.799	66.075	0.251	-0.255
-648.784	195.276	-0.300	-0.456
-647.770	170.160	-0.171	0.245
-646.755	409.559	0.150	0.319
-645.741	-143.300	-0.359	-0.034
-644.726	800.000	0.039	-0.109
-643.711	-200.000	-0.034	0.214
-642.697	800.000	0.044	0.139
-641.682	-200.000	0.003	0.277
-640.668	-200.000	0.011	0.105
-639.653	138.860	-0.057	0.075
-638.638	-95.565	0.130	-0.035
-637.624	-200.000	-0.019	0.126
-636.609	-200.000	0.048	0.270
-635.595	-200.000	-0.006	-0.261
-634.580	800.000	0.115	-0.456
-633.565	-200.000	-0.005	-0.180
-632.551	-116.876	0.189	-0.035
-631.536	-200.000	-0.047	-0.333
-630.522	-136.528	0.189	0.022
-629.507	-200.000	-0.047	-0.367
-628.492	190.504	0.155	-0.233
-627.478	15.763	0.135	-0.106
-626.463	-29.674	-0.259	0.148
-625.449	197.639	0.096	-0.147
-624.434	-200.000	0.005	0.157
-623.419	-10.394	-0.321	0.213
-622.405	-62.635	0.373	-0.155
-621.390	229.093	-0.029	0.048
-620.376	69.891	0.131	-0.135
-619.361	800.000	0.121	0.421
-618.346	-200.000	-0.054	0.259
-617.332	584.068	-0.050	0.123
-616.317	255.659	-0.064	0.110
-615.303	1.534	-0.275	0.198
-614.288	800.000	-0.028	-0.102
-613.273	-74.818	0.301	-0.108
-612.259	-31.369	-0.070	-0.039
-611.244	-75.397	0.080	0.028
-610.230	-156.125	0.182	-0.011
-609.215	-143.375	0.275	-0.026
-608.201	-87.333	-0.125	-0.038
-607.186	-92.079	0.618	-0.175
-606.171	793.327	-0.108	0.297
-605.157	4.153	-0.144	0.106
-604.142	538.363	0.069	0.164
-603.128	70.667	-0.174	0.180
-602.113	-120.384	0.202	0.034
-601.098	206.641	0.136	0.211
-600.084	-96.684	-0.187	0.049
-599.069	-80.447	0.177	0.059
-598.055	512.916	0.031	-0.072
-597.040	-45.573	-0.216	-0.107
-596.025	330.009	-0.097	0.187
-595.011	-16.421	-0.220	0.139
-593.996	-82.567	0.357	-0.116
-592.982	-200.000	0.011	0.073
-591.967	-72.670	0.114	0.042
-590.952	-197.298	0.104	0.001
-589.938	-126.492	-0.224	0.033
-588.923	-66.217	0.046	-0.018
-587.909	-200.000	-0.165	0.000
-586.894	16.487	-0.149	0.118
-585.879	85.125	0.091	0.099
-584.865	-200.000	-0.011	-0.127
-583.850	800.000	-0.048	0.203
-582.836	-200.000	0.024	-0.230
-581.821	-117.160	0.229	0.042
-580.806	800.000	-0.048	0.171
-579.792	-103.773	-0.352	0.082
-578.777	-200.000	0.038	-0.195
-577.763	687.250	-0.102	-0.267
-576.748	-200.000	-0.050	0.310
-575.733	-200.000	-0.036	0.239
-574.719	-200.000	0.053	-0.250
-573.704	-200.000	-0.009	-0.117
-572.690	800.000	-0.104	-0.307
-571.675	-16.737	0.328	-0.208
-570.661	52.470	0.155	-0.147
-569.646	179.965	0.231	-0.338
-568.631	-141.002	0.222	0.023
-567.617	-72.181	0.131	-0.048
-566.602	-200.000	0.018	0.145
-565.588	-148.341	0.416	-0.034
-564.573	8.672	0.241	-0.181
-563.558	-200.000	0.005	0.341
-562.544	213.526	0.133	-0.211
-561.529	142.863	-0.222	0.295
-560.515	15.920	-0.146	0.115
-559.500	-146.142	-0.135	-0.012
-558.485	-120.059	-0.106	-0.018
-557.471	-56.086	-0.380	-0.169
-556.456	-153.467	0.251	0.017
-555.442	-200.000	-0.026	0.221
-554.427	-26.869	0.336	-0.196
-553.412	-101.603	-0.147	0.036
-552.398	11.232	0.097	-0.074
-551.383	103.480	0.253	0.297
-550.369	800.000	-0.056	0.176
-549.354	-119.208	-0.180	-0.031
-548.339	-200.000	-0.046	-0.318
-547.325	-79.177	0.259	0.088
-546.310	-188.194	0.355	0.005
-545.296	-188.305	-0.227	-0.003
-544.281	-39.294	-0.310	-0.162
-543.266	123.832	-0.047	0.059
-542.252	-200.000	-0.015	0.198
-541.237	-4.180	-0.094	-0.065
-540.223	-61.092	0.087	0.037
-539.208	19.641	0.269	0.216
-538.193	-88.399	-0.089	-0.026
-537.179	-129.061	-0.118	0.016
-536.164	343.252	-0.241	-0.471
-535.150	-52.669	-0.227	0.105
-534.135	-200.000	0.002	0.064
-533.121	73.950	-0.081	0.084
-532.106	428.739	0.058	0.125
-531.091	-89.185	-0.369	-0.109
-530.077	46.578	-0.307	-0.285
-529.062	164.969	0.177	0.249
-528.048	446.187	-0.041	-0.090
-527.033	12.553	0.084	-0.065
-526.018	-122.349	0.240	-0.039
-525.004	93.470	0.026	0.030
-523.989	66.763	-0.083	-0.084
-522.975	-52.772	-0.096	0.044
-521.960	-181.245	-0.185	-0.004
-520.945	5.291	0.270	0.199
-519.931	-54.942	0.163	0.073
-518.916	-19.042	-0.167	-0.103
-517.902	445.909	-0.148	-0.323
-516.887	123.471	0.184	-0.230
-515.872	-158.693	-0.097	0.006
-514.858	198.245	0.111	-0.169
-513.843	122.218	0.212	-0.264
-512.829	-200.000	-0.003	0.057
-511.814	193.017	0.099	-0.150
-510.799	-101.957	-0.416	0.100
-509.785	-42.899	-0.370	0.187
-508.770	-29.162	-0.142	-0.081
-507.756	-66.103	-0.205	0.081
-506.741	267.628	0.119	0.208
-505.726	-200.000	-0.022	-0.381
-504.712	570.957	0.030	0.072
-503.697	-200.000	0.037	-0.360
-502.683	151.275	-0.225	-0.305
-501.668	800.000	0.086	0.275
-500.653	423.329	0.035	0.075
-499.639	800.000	0.110	-0.383
-498.624	134.140	-0.085	-0.109
-497.610	677.656	0.112	0.291
-496.595	-51.391	0.293	0.137
-495.581	-200.000	0.044	0.360
-494.566	-200.000	0.029	-0.606
-493.551	-22.160	-0.299	0.181
-492.537	800.000	-0.032	-0.092
-491.522	161.418	-0.132	0.184
-490.508	-53.116	-0.262	0.120
-489.493	-79.539	-0.443	0.149
-488.478	19.124	-0.080	-0.064
-487.464	-77.096	0.014	-0.005
-486.449	-118.409	-0.048	0.009
-485.435	-48.605	-0.081	0.039
-484.420	-6.814	-0.243	0.164
-483.405	137.384	-0.271	-0.353
-482.391	34.189	-0.111	0.096
-481.376	800.000	0.066	-0.218
-480.362	-200.000	0.022	-0.143
-479.347	374.087	0.095	-0.192
-478.332	774.741	-0.109	-0.295
-477.318	-200.000	0.083	0.379
-476.303	-200.000	0.007	-0.186
-475.289	-200.000	0.040	0.308
-474.274	-90.143	-0.239	-0.069
-473.259	-200.000	-0.022	-0.215
-472.245	-9.983	-0.178	-0.118
-471.230	61.651	0.019	-0.019
-470.216	-3.654	0.286	0.198
-469.201	214.875	-0.123	0.194
-468.186	-200.000	-0.033	0.176
-467.172	-200.000	0.107	-0.631
-466.157	-200.000	0.033	-0.236
-465.143	275.835	-0.191	-0.337
-464.128	282.797	0.068	-0.122
-463.113	-9.102	0.045	-0.030
-462.099	246.823	0.065	-0.110
-461.084	-90.499	0.218	-0.063
-460.070	800.000	0.114	-0.322
-459.055	96.461	0.222	0.253
-458.040	605.204	-0.079	-0.197
-457.026	-64.479	-0.168	0.068
-456.011	-92.606	-0.100	-0.028
-454.997	800.000	-0.039	0.157
-453.982	-79.802	-0.307	0.103
-452.968	200.152	0.028	0.043
-451.953	-144.479	-0.286	0.026
-450.938	-39.332	0.144	-0.075
-449.924	90.126	0.051	-0.057
-448.909	701.786	-0.052	0.137
-447.895	-79.140	-0.252	-0.085
-446.880	-11.826	-0.241	-0.157
-445.865	-200.000	-0.019	-0.167
-444.851	-116.298	0.131	-0.024
-443.836	76.925	-0.120	-0.127
-442.822	-200.000	0.021	0.104
-441.807	-105.495	-0.400	0.090
-440.792	75.434	-0.300	-0.315
-439.778	800.000	0.035	-0.097
-438.763	-82.152	0.285	-0.092
-437.749	193.525	0.130	-0.195
-436.734	53.973	-0.248	-0.237
-435.719	6.359	-0.224	0.165
-434.705	181.166	-0.150	-0.220
-433.690	-86.822	-0.112	0.034
-432.676	-192.759	0.138	0.001
-431.661	53.293	-0.210	0.200
-430.646	-106.158	-0.056	-0.013
-429.632	-111.889	0.180	-0.036
-428.617	-28.971	0.123	0.070
-427.603	74.407	-0.149	0.155
-426.588	-56.850	0.040	-0.017
-425.573	99.744	0.077	0.088
-424.559	800.000	0.124	0.356
-423.544	-59.199	-0.225	0.096
-422.530	-55.107	-0.221	-0.099
-421.515	133.492	0.227	0.291
-420.500	146.042	-0.075	0.099
-419.486	-55.709	-0.188	0.083
-418.471	265.309	-0.089	-0.154
-417.457	146.316	-0.190	-0.253
-416.442	800.000	-0.040	-0.123
-415.428	-88.107	0.327	0.097
-414.413	436.535	-0.117	0.253
-413.398	-200.000	0.001	0.106
-412.384	-16.923	0.171	-0.107
-411.369	83.214	-0.158	0.171
-410.355	456.679	-0.061	-0.135
-409.340	10.012	0.069	0.052
-408.325	-200.000	-0.041	-0.281
-407.311	8.218	0.157	0.117
-406.296	327.834	0.109	-0.208
-405.282	26.631	-0.247	-0.206
-404.267	-17.095	0.033	0.021
-403.252	800.000	0.028	-0.089
-402.238	25.074	-0.076	0.062
-401.223	486.655	-0.059	0.134
-400.209	800.000	-0.095	0.345
-399.194	-126.759	0.028	0.004
-398.179	222.051	-0.097	-0.154
-397.165	-200.000	-0.037	-0.249
-396.150	-71.477	0.224	-0.083
-395.136	160.439	-0.151	0.208
-394.121	-200.000	-0.022	0.134
-393.106	168.448	-0.107	-0.152
-392.092	-2.309	-0.264	0.184
-391.077	-71.656	0.331	-0.123
-390.063	616.632	-0.052	-0.129
-389.048	139.771	-0.078	0.102
-388.033	800.000	0.044	0.191
-387.019	127.712	-0.112	0.142
-386.004	162.181	0.126	0.175
-384.990	-200.000	0.025	0.204
-383.975	-200.000	-0.008	0.098
-382.960	43.921	0.123	0.112
-381.946	-200.000	-0.048	-0.267
-380.931	-42.328	0.048	-0.024
-379.917	-112.301	0.413	-0.082
-378.902	800.000	-0.044	0.176
-377.888	-19.406	-0.089	-0.055
-376.873	15.800	-0.166	0.129
-375.858	-108.230	0.235	0.050
-374.844	275.542	-0.026	0.045
-373.829	-50.571	-0.080	0.038
-372.815	144.237	-0.151	-0.200
-371.800	221.119	-0.110	-0.176
-370.785	528.720	-0.036	-0.083
-369.771	-200.000	0.001	-0.135
-368.756	-93.062	0.205	0.057
-367.742	-120.380	0.383	0.065
-366.727	800.000	0.076	0.326
-365.712	-200.000	0.037	-0.250
-364.698	-154.535	0.292	-0.019
-363.683	-200.000	0.003	-0.234
-362.669	-11.124	-0.059	0.039
-361.654	638.166	-0.077	0.195
-360.639	-122.712	0.061	-0.010
-359.625	112.553	0.121	0.145
-358.610	10.197	0.153	-0.115
-357.596	515.352	0.021	0.049
-356.581	-200.000	0.057	0.275
-355.566	800.000	0.054	0.195
-354.552	580.719	0.001	0.002
-353.537	-26.953	0.549	0.317
-352.523	-200.000	-0.001	0.164
-351.508	-200.000	0.021	-0.391
-350.493	800.000	-0.069	-0.279
-349.479	-45.474	0.070	-0.034
-348.464	-48.193	0.136	0.065
-347.450	145.486	0.157	0.209
-346.435	-200.000	-0.004	0.050
-345.420	156.580	-0.171	0.234
-344.406	-179.749	0.185	0.004
-343.391	800.000	0.076	-0.297
-342.377	2.581	0.262	0.188
-341.362	-144.880	-0.267	0.024
-340.348	39.037	-0.120	-0.106
-339.333	-57.345	0.088	-0.038
-338.318	-78.347	0.300	-0.102
-337.304	-78.873	0.180	0.061
-336.289	-29.214	0.273	0.155
-335.275	-108.595	0.221	0.047
-334.260	800.000	-0.109	-0.314
-333.245	4.561	-0.191	-0.139
-332.231	528.629	-0.070	-0.163
-331.216	-137.490	0.046	0.005
-330.202	-200.000	0.039	0.308
-329.187	-160.201	-0.408	-0.022
-328.172	-17.981	-0.253	0.157
-327.158	-96.946	0.182	-0.047
-326.143	-34.922	0.125	0.068
-325.129	-41.718	0.068	-0.034
-324.114	301.974	0.113	0.206
-323.099	800.000	-0.029	0.116
-322.085	-87.664	0.151	-0.045
-321.070	-200.000	0.470	-0.001
-320.056	1.940	-0.264	-0.189
-319.041	198.570	-0.056	-0.084
-318.026	714.596	0.035	0.092
-317.012	-200.000	-0.103	0.450
-315.997	-200.000	-0.001	-0.120
-314.983	20.903	-0.328	0.263
-313.968	-158.267	0.029	-0.002
-312.953	-200.000	0.017	-0.154
-311.939	40.899	-0.094	-0.084
-310.924	11.183	0.293	-0.222
-309.910	418.062	0.150	0.318
-308.895	-200.000	-0.029	0.141
-307.880	-200.000	-0.080	-0.387
-306.866	37.927	0.247	0.217
-305.851	74.572	0.266	-0.277
-304.837	-9.819	-0.042	0.027
-303.822	63.001	-0.312	-0.309
-302.807	178.659	-0.248	0.359
-301.793	6.238	-0.233	0.171
-300.778	-200.000	0.013	0.396
-299.764	-81.174	-0.314	0.103
-298.749	-11.413	-0.178	0.116
-297.735	-105.248	0.246	0.056
-296.720	2.088	-0.264	0.188
-295.705	-200.000	0.016	-0.094
-294.691	81.230	0.083	-0.088
-293.676	-52.367	0.127	-0.058
-292.662	800.000	-0.105	0.319
-291.647	261.464	-0.047	0.081
-290.632	-200.000	-0.029	0.169
-289.618	232.634	-0.106	0.172
-288.603	-127.810	0.096	-0.014
-287.589	-151.938	-0.272	0.020
-286.574	-119.387	0.398	0.068
-285.559	-132.153	0.380	-0.049
-284.545	-20.657	-0.079	0.048
-283.530	-200.000	-0.039	0.185
-282.516	503.478	0.052	0.120
-281.501	800.000	-0.054	0.159
-280.486	-89.682	0.307	0.089
-279.472	-37.872	-0.247	0.130
-278.457	-149.178	0.063	0.005
-277.443	75.497	0.049	0.051
-276.428	-200.000	-0.038	0.203
-275.413	800.000	0.072	-0.227
-274.399	-29.433	-0.338	0.191
-273.384	-110.953	0.236	-0.048
-272.370	-200.000	-0.009	0.220
-271.355	421.585	-0.120	-0.254
-270.340	800.000	0.097	-0.301
-269.326	140.469	-0.235	0.306
-268.311	-92.859	-0.074	-0.021
-267.297	43.358	0.064	-0.058
-266.282	-200.000	0.023	-0.285
-265.267	800.000	0.027	-0.109
-264.253	800.000	-0.035	0.125
-263.238	0.587	0.045	-0.032
-262.224	-92.380	0.099	-0.028
-261.209	37.743	0.004	-0.003
-260.195	35.716	-0.182	0.158
-259.180	-51.528	0.106	-0.049
-258.165	-171.969	0.350	-0.011
-257.151	108.151	0.184	0.217
-256.136	-179.980	0.089	-0.002
-255.122	-142.371	0.241	-0.023
-254.107	-0.462	0.154	-0.108
-253.092	-124.318	-0.391	-0.060
-252.078	-200.000	0.024	0.132
-251.063	-24.680	-0.172	-0.101
-250.049	132.912	-0.097	-0.124
-249.034	117.910	-0.224	-0.273
-248.019	-118.310	0.110	-0.019
-247.005	-82.318	0.326	0.105
-245.990	-128.753	-0.136	-0.019
-244.976	-47.876	0.140	0.067
-243.961	-200.000	-0.017	-0.131
-242.946	41.314	-0.083	0.074
-241.932	25.119	0.174	0.142
-240.917	-200.000	-0.018	-0.449
-239.903	-108.137	-0.074	0.016
-238.888	-42.863	-0.148	0.074
-237.873	31.640	-0.221	-0.187
-236.859	-11.623	-0.092	-0.060
-235.844	262.595	-0.108	0.185
-234.830	185.477	0.082	-0.120
-233.815	-200.000	0.015	-0.136
-232.800	800.000	-0.024	0.085
-231.786	-70.205	0.146	-0.055
-230.771	-41.427	0.331	0.168
-229.757	-32.421	-0.239	-0.132
-228.742	219.679	0.090	0.141
-227.727	56.137	-0.345	-0.330
-226.713	182.636	-0.145	0.211
-225.698	-136.874	-0.446	0.050
-224.684	-200.000	-0.025	-0.206
-223.669	-50.526	0.210	-0.098
-222.655	-68.006	-0.168	-0.065
-221.640	147.963	0.101	-0.134
-220.625	70.989	0.091	0.093
-219.611	-200.000	-0.017	-0.247
-218.596	17.108	0.204	-0.160
-217.582	666.640	0.189	0.482
-216.567	-200.000	-0.007	0.043
-215.552	-142.741	-0.104	-0.010
-214.538	-100.083	0.239	-0.059
-213.523	599.909	-0.060	0.147
-212.509	-200.000	0.165	-0.001
-211.494	-130.213	-0.320	-0.043
-210.479	110.383	-0.124	0.146
-209.465	-106.010	-0.205	0.045
-208.450	-155.171	0.287	-0.018
-207.436	800.000	0.058	0.194
-206.421	-36.239	0.191	0.101
-205.406	112.263	-0.188	-0.224
-204.392	-162.915	0.212	-0.010
-203.377	313.821	-0.120	0.222
-202.363	-50.493	-0.023	0.011
-201.348	-144.336	-0.313	0.029
-200.333	128.176	-0.057	0.071
-199.319	48.729	0.249	-0.230
-198.304	-200.000	0.069	-0.529
-197.290	-137.881	0.301	-0.033
-196.275	142.653	-0.286	-0.374
-195.260	-200.000	0.013	-0.139
-194.246	-46.796	0.038	0.018
-193.231	85.718	-0.132	0.143
-192.217	-9.940	0.130	0.085
-191.202	-49.475	-0.166	-0.078
-190.187	199.398	0.157	0.236
-189.173	-34.750	-0.319	0.172
-188.158	-112.615	-0.083	0.016
-187.144	157.717	-0.044	0.060
-186.129	-200.000	-0.003	0.145
-185.114	800.000	0.041	0.139
-184.100	-22.934	-0.182	0.108
-183.085	180.246	-0.171	0.247
-182.071	117.549	0.092	0.112
-181.056	-125.395	0.048	-0.007
-180.042	-88.696	0.209	-0.061
-179.027	-192.631	0.254	-0.002
-178.012	800.000	-0.071	0.212
-176.998	-33.508	-0.131	-0.071
-175.983	800.000	0.032	0.104
-174.969	-84.289	-0.119	-0.037
-173.954	-73.077	0.270	-0.097
-172.939	-200.000	0.015	-0.235
-171.925	31.322	0.172	-0.145
-170.910	-81.252	0.132	-0.043
-169.896	-84.644	-0.351	-0.109
-168.881	10.101	0.120	-0.090
-167.866	-28.899	-0.090	-0.051
-166.852	-200.000	0.014	0.067
-165.837	-200.000	-0.135	-0.000
-164.823	-113.437	0.147	-0.028
-163.808	59.824	-0.120	0.117
-162.793	89.599	-0.116	0.128
-161.779	319.106	0.252	-0.469
-160.764	-122.688	0.409	0.065
-159.750	239.104	-0.107	-0.174
-158.735	-97.162	0.407	-0.105
-157.720	-148.457	0.215	0.017
-156.706	-23.419	-0.206	0.122
-155.691	50.326	0.074	-0.068
-154.677	6.423	-0.228	0.167
-153.662	192.295	0.141	-0.209
-152.647	220.950	0.199	0.314
-151.633	316.746	-0.038	0.071
-150.618	800.000	0.070	0.208
-149.604	-200.000	0.002	-0.124
-148.589	-112.159	-0.316	0.062
-147.574	-184.769	0.290	0.005
-146.560	55.668	0.109	-0.104
-145.545	129.607	-0.230	0.289
-144.531	121.437	-0.164	-0.200
-143.516	-68.126	-0.081	-0.031
-142.502	209.977	-0.126	0.194
-141.487	800.000	0.030	-0.087
-140.472	144.001	0.285	-0.374
-139.458	-200.000	0.034	0.189
-138.443	45.168	-0.086	-0.078
-137.429	132.587	0.193	-0.245
-136.414	-100.661	0.239	0.058
-135.399	-200.000	0.049	-0.328
-134.385	31.095	-0.151	-0.127
-133.370	-52.136	0.121	0.055
-132.356	800.000	0.096	-0.303
-131.341	209.660	0.145	-0.224
-130.326	-78.849	0.163	0.054
-129.312	-118.052	-0.192	-0.034
-128.297	800.000	0.099	0.268
-127.283	-200.000	0.024	-0.180
-126.268	1.753	0.111	0.078
-125.253	-200.000	0.081	-0.356
-124.239	-200.000	0.009	-0.053
-123.224	-200.000	-0.055	0.514
-122.210	-57.960	0.084	-0.036
-121.195	-112.193	-0.223	-0.044
-120.180	-196.311	0.167	-0.001
-119.166	-176.041	-0.204	0.005
-118.151	-25.805	0.218	0.126
-117.137	-70.775	0.323	-0.120
-116.122	17.544	0.449	0.350
-115.107	-200.000	0.006	0.078
-114.093	204.918	0.169	0.257
-113.078	101.136	0.159	-0.182
-112.064	-117.151	0.065	-0.012
-111.049	-69.031	0.181	-0.069
-110.034	217.038	0.134	0.209
-109.020	5.946	-0.236	0.172
-108.005	-200.000	0.059	0.331
-106.991	-110.362	0.255	-0.052
-105.976	650.549	-0.060	0.151
-104.962	-159.395	0.282	-0.015
-103.947	-69.584	-0.133	-0.050
-102.932	-200.000	0.049	0.394
-101.918	181.178	-0.191	0.276
-100.903	-200.000	-0.029	-0.136
-99.889	-200.000	-0.033	-0.277
-98.874	800.000	-0.116	-0.424
-97.859	22.122	-0.190	0.152
-96.845	-58.316	0.291	0.124
-95.830	401.435	0.119	0.246
-94.816	-136.686	0.275	0.031
-93.801	153.181	-0.088	-0.118
-92.786	-171.298	-0.186	-0.006
-91.772	-130.327	-0.090	0.012
-90.757	-5.704	0.129	0.087
-89.743	-76.574	0.123	-0.042
-88.728	47.557	-0.223	0.204
-87.713	-135.182	-0.192	0.023
-86.699	-200.000	-0.001	-0.123
-85.684	-104.073	-0.128	-0.029
-84.670	-106.101	-0.183	0.040
-83.655	244.291	-0.225	0.370
-82.640	-200.000	0.010	0.080
-81.626	-122.534	0.175	0.028
-80.611	-200.000	-0.004	-0.173
-79.597	-200.000	0.045	0.245
-78.582	130.262	-0.265	0.333
-77.567	27.800	0.076	-0.063
-76.553	20.809	0.217	-0.172
-75.538	60.842	0.160	0.156
-74.524	800.000	-0.070	-0.237
-73.509	-200.000	0.411	-0.000
-72.494	-163.040	0.370	-0.018
-71.480	-200.000	-0.018	0.244
-70.465	310.813	-0.121	-0.222
-69.451	-96.456	0.246	0.064
-68.436	64.168	-0.116	-0.115
-67.422	4.443	0.180	-0.129
-66.407	467.140	0.137	0.300
-65.392	800.000	0.072	0.217
-64.378	-100.889	0.098	-0.023
-63.363	208.511	0.162	0.248
-62.349	150.232	-0.201	0.267
-61.334	38.217	-1.132	-0.987
-60.319	37.293	0.574	0.498
-59.305	800.000	-0.253	-1.061
-58.290	739.568	0.491	1.290
-57.276	800.000	0.474	1.732
-56.261	-200.000	112.696	637.876
-55.246	468.494	1505.090	3307.400
-54.232	148.311	2667.801	3526.216
-53.217	103.126	2173.731	2494.261
-52.203	37.863	1703.186	1481.828
-51.188	30.627	1521.553	1274.387
-50.173	28.292	1497.300	1238.253
-49.159	52.469	1554.384	1452.526
-48.144	51.158	1570.199	1458.237
-47.130	30.892	1526.572	1280.210
-46.115	27.703	1511.796	1246.024
-45.100	27.618	1508.035	1242.296
-44.086	27.526	1506.563	1240.408
-43.071	27.454	1504.781	1238.398
-42.057	27.510	1502.818	1237.113
-41.042	27.455	1501.949	1235.975
-40.027	27.463	1499.986	1234.370
-39.013	27.450	1498.822	1233.271
-37.998	27.452	1497.707	1232.322
-36.984	27.386	1496.284	1230.656
-35.969	27.432	1494.904	1229.777
-34.954	27.396	1493.558	1228.384
-33.940	27.469	1491.940	1227.491
-32.925	27.573	1490.280	1226.780
-31.911	27.432	1489.891	1225.459
-30.896	27.548	1487.848	1224.511
-29.881	27.517	1486.741	1223.341
-28.867	27.594	1485.036	1222.408
-27.852	27.585	1483.858	1221.328
-26.838	27.472	1482.960	1219.787
-25.823	27.574	1480.883	1218.712
-24.809	27.495	1479.644	1217.114
-23.794	27.509	1478.266	1216.025
-22.779	27.428	1477.495	1214.806
-21.765	27.555	1475.630	1214.070
-20.750	27.566	1474.791	1213.407
-19.736	27.579	1473.755	1212.586
-18.721	27.550	1473.130	1211.836
-17.706	27.539	1471.601	1210.457
-16.692	27.537	1470.463	1209.458
-15.677	27.552	1469.598	1208.799
-14.663	27.394	1469.143	1207.330
-13.648	27.475	1467.951	1206.838
-12.633	27.508	1466.723	1205.998
-11.619	27.502	1466.169	1205.458
-10.604	27.554	1465.226	1204.978
-9.590	27.516	1464.428	1204.024
-8.575	27.574	1463.087	1203.252
-7.560	27.537	1462.717	1202.655
-6.546	27.491	1461.420	1201.241
-5.531	27.503	1460.660	1200.645
-4.517	27.460	1459.888	1199.684
-3.502	27.482	1458.821	1198.901
-2.487	27.597	1457.656	1198.653
-1.473	27.576	1456.360	1197.400
-0.458	27.449	1455.435	1195.759
0.556	25.727	1445.668	1185.524
1.571	22.859	1420.613	1146.286
2.586	19.442	1358.936	1075.167
3.600	17.735	1275.781	999.295
4.615	16.668	1231.377	958.388
5.629	14.481	1175.291	902.826
6.644	7.270	1091.474	801.984
7.659	1.200	1051.998	743.234
8.673	0.327	1046.823	735.255
9.688	0.121	1043.902	732.138
10.702	0.062	1042.218	730.603
11.717	-0.029	1040.202	728.687
12.731	2.519	1041.998	742.243
13.746	10.123	1052.143	786.501
14.761	16.014	1060.072	821.144
15.775	17.153	1060.525	826.973
16.790	16.472	1058.864	822.290
17.804	15.368	1056.422	814.964
18.819	14.538	1054.468	809.360
19.834	14.162	1053.049	806.374
20.848	13.896	1051.932	804.160
21.863	13.547	1051.788	802.290
22.877	13.228	1050.855	799.964
23.892	13.234	1049.687	799.029
24.907	13.002	1049.112	797.404
25.921	13.123	1048.443	797.406
26.936	13.170	1047.847	797.108
27.950	13.179	1047.215	796.601
28.965	13.179	1046.259	795.805
29.980	13.338	1045.063	795.590
30.994	13.243	1044.553	794.675
32.009	13.300	1043.540	794.104
33.023	13.447	1043.123	794.425
34.038	13.296	1042.446	793.113
35.053	13.336	1041.354	792.402
36.067	13.272	1040.367	791.278
37.082	13.359	1039.565	791.015
38.096	13.208	1038.618	789.503
39.111	13.249	1038.247	789.347
40.126	13.365	1037.401	789.185
41.140	13.308	1035.882	787.690
42.155	13.148	1035.072	786.240
43.169	13.107	1034.584	785.607
44.184	12.976	1033.426	784.035
45.199	13.004	1032.425	783.339
46.213	13.154	1031.179	783.035
47.228	13.083	1030.023	781.751
48.242	13.175	1029.056	781.386
49.257	13.292	1027.925	781.009
50.271	13.140	1027.506	779.906
51.286	13.170	1026.401	779.139
52.301	13.220	1025.301	778.470
53.315	13.342	1024.618	778.456
54.330	13.114	1023.872	776.749
55.344	13.088	1022.943	775.854
56.359	13.097	1021.954	775.076
57.374	13.195	1020.759	774.561
58.388	13.162	1020.055	773.806
59.403	13.050	1019.236	772.589
60.417	13.141	1018.497	772.388
61.432	12.920	1018.743	771.472
62.447	13.058	1017.535	771.134
63.461	13.110	1016.591	770.591
64.476	13.023	1015.388	769.209
65.490	13.058	1014.650	768.741
66.505	12.880	1014.445	767.692
67.520	13.071	1013.388	767.709
68.534	12.992	1012.377	766.512
69.549	13.061	1011.981	766.462
70.563	13.058	1011.108	765.721
71.578	12.969	1010.366	764.677
72.593	13.140	1009.042	764.398
73.607	12.889	1008.150	762.495
74.622	12.904	1007.496	762.001
75.636	12.976	1006.217	761.301
76.651	13.040	1005.660	761.106
77.666	13.017	1005.089	760.501
78.680	13.014	1004.131	759.695
79.695	13.002	1003.511	759.104
80.709	13.034	1003.130	758.897
81.724	13.137	1001.941	758.403
82.739	13.131	1001.190	757.739
83.753	13.003	1000.938	756.893
84.768	13.223	999.777	756.956
85.782	13.357	998.696	756.686
86.797	13.252	998.081	755.671
87.812	13.225	997.305	754.892
88.826	13.253	996.295	754.192
89.841	13.171	995.962	753.498
90.855	13.223	994.696	752.710
91.870	13.210	994.490	752.427
92.884	13.236	993.560	751.778
93.899	13.290	993.015	751.541
94.914	13.273	992.099	750.708
95.928	13.284	991.475	750.218
96.943	13.355	990.739	749.917
97.957	13.332	989.707	748.962
98.972	13.292	989.143	748.290
99.987	13.334	988.207	747.705
101.001	13.363	987.346	747.118
102.016	13.376	986.475	746.452
103.030	13.381	985.507	745.677
104.045	13.258	985.135	744.774
105.060	13.425	983.712	744.386
106.074	13.355	983.028	743.486
107.089	13.287	982.116	742.427
108.103	13.122	981.567	741.203
109.118	13.076	980.976	740.484
110.133	13.191	980.002	740.201
111.147	13.115	978.798	738.885
112.162	13.058	977.943	737.919
113.176	13.123	977.567	737.859
114.191	13.077	976.848	737.048
115.206	13.216	975.823	736.830
116.220	13.166	974.650	735.658
117.235	13.232	974.099	735.468
118.249	13.194	973.059	734.449
119.264	13.180	972.170	733.649
120.279	13.291	970.991	733.189
121.293	13.246	970.367	732.452
122.308	13.196	969.517	731.527
123.322	13.219	968.960	731.140
124.337	13.048	968.032	729.622
125.352	13.145	966.543	728.862
126.366	13.065	966.100	728.109
127.381	13.105	965.054	727.435
128.395	13.047	963.982	726.309
129.410	13.084	962.945	725.624
130.424	13.213	961.919	725.351
131.439	13.328	960.917	725.039
132.454	13.113	960.474	723.699
133.468	13.161	959.510	723.118
134.483	13.141	959.452	722.924
135.497	13.234	958.375	722.451
136.512	13.287	957.282	721.797
137.527	13.344	956.683	721.529
138.541	13.274	955.882	720.557
139.556	13.239	955.524	720.070
140.570	13.288	954.360	719.341
141.585	13.326	953.272	718.625
142.600	13.309	952.667	718.029
143.614	13.309	952.176	717.597
144.629	13.408	951.173	717.205
145.643	13.455	950.462	716.812
146.658	13.660	949.688	717.051
147.673	13.436	948.847	715.385
148.687	13.483	948.154	715.000
149.702	13.271	947.532	713.555
150.716	13.395	946.189	713.014
151.731	13.213	945.999	712.023
152.746	13.283	945.058	711.553
153.760	13.308	944.326	711.049
154.775	13.362	943.245	710.404
155.789	13.481	942.172	710.041
156.804	13.515	941.953	709.959
157.819	13.482	940.857	708.930
158.833	13.391	940.777	708.417
159.848	13.518	940.044	708.347
160.862	13.609	939.109	707.967
161.877	13.552	938.557	707.244
162.892	13.505	937.981	706.547
163.906	13.394	936.817	705.133
164.921	13.358	936.356	704.573
165.935	13.400	935.055	703.711
166.950	13.446	933.977	703.033
167.964	13.494	933.168	702.565
168.979	13.548	931.953	701.818
169.994	13.509	930.725	700.663
171.008	13.493	930.182	700.124
172.023	13.450	929.350	699.254
173.037	13.564	928.841	699.292
174.052	13.654	927.883	698.890
175.067	13.602	927.474	698.301
176.081	13.713	926.176	697.727
177.096	13.553	925.570	696.535
178.110	13.483	924.947	695.714
179.125	13.616	924.262	695.695
180.140	13.544	923.637	694.859
181.154	13.574	922.761	694.264
182.169	13.651	922.470	694.306
183.183	13.540	921.608	693.131
184.198	13.574	921.069	692.809
185.213	13.796	919.996	692.866
186.227	13.678	919.314	691.799
187.242	13.745	919.174	691.914
188.256	13.801	918.502	691.578
189.271	13.832	917.589	690.958
190.286	13.825	916.825	690.292
191.300	13.777	916.178	689.548
192.315	13.667	915.323	688.383
193.329	13.485	915.088	687.392
194.344	13.470	914.300	686.676
195.359	13.641	913.661	686.845
196.373	13.702	912.857	686.430
197.388	13.733	912.415	686.167
198.402	13.831	911.922	686.142
199.417	13.933	911.380	686.093
200.432	13.886	911.494	685.922
201.446	13.971	910.733	685.641
202.461	14.099	909.750	685.371
203.475	14.025	909.610	684.899
204.490	14.105	908.747	684.515
205.504	13.956	907.901	683.207
206.519	13.964	907.339	682.754
207.534	13.980	906.865	682.402
208.548	13.897	905.954	681.317
209.563	13.910	905.496	680.968
210.577	13.976	904.591	680.496
211.592	13.954	904.197	680.051
212.607	14.128	903.482	680.162
213.621	14.228	902.762	679.968
214.636	14.241	901.865	679.289
215.650	14.049	901.577	678.225
216.665	14.114	901.083	678.058
217.680	14.211	900.126	677.675
218.694	14.183	900.027	677.426
219.709	14.217	899.677	677.239
220.723	14.138	898.584	676.039
221.738	14.140	897.863	675.444
222.753	14.207	897.270	675.210
223.767	14.135	896.683	674.417
224.782	14.287	895.321	673.949
225.796	14.410	894.644	673.877
226.811	14.392	893.808	673.113
227.826	14.438	893.056	672.671
228.840	14.427	892.644	672.259
229.855	14.368	892.628	671.948
230.869	14.195	892.045	670.753
231.884	14.416	890.682	670.560
232.899	14.470	890.221	670.371
233.913	14.399	889.609	669.565
234.928	14.260	888.808	668.344
235.942	14.260	888.258	667.871
236.957	14.468	887.208	667.858
237.972	14.295	887.064	666.995
238.986	14.252	886.279	666.175
240.001	14.423	885.723	666.381
241.015	14.419	884.740	665.566
242.030	14.227	884.548	664.596
243.045	14.360	883.658	664.399
244.059	14.460	883.375	664.528
245.074	14.525	882.223	663.860
246.088	14.486	881.508	663.110
247.103	14.643	881.244	663.473
248.117	14.711	880.583	663.191
249.132	14.457	880.206	661.839
250.147	14.616	879.245	661.686
251.161	14.701	878.604	661.484
252.176	14.934	878.037	661.921
253.190	14.840	877.352	660.972
254.205	14.611	877.280	659.955
255.220	14.967	875.786	660.178
256.234	15.033	875.312	660.024
257.249	14.875	875.101	659.181
258.263	14.946	874.744	659.135
259.278	14.995	873.710	658.491
260.293	14.852	873.254	657.524
261.307	14.841	872.952	657.195
262.322	15.014	872.057	657.144
263.336	14.939	871.788	656.591
264.351	15.077	870.723	656.269
265.366	15.056	870.436	655.915
266.380	15.062	869.883	655.461
267.395	15.018	869.166	654.690
268.409	14.970	868.463	653.916
269.424	15.024	867.810	653.580
270.439	15.019	866.903	652.818
271.453	15.078	866.154	652.424
272.468	14.889	865.624	651.230
273.482	14.887	865.311	650.931
274.497	15.123	864.663	651.304
275.512	15.073	863.857	650.446
276.526	15.152	862.665	649.796
277.541	15.127	862.299	649.366
278.555	15.209	861.547	649.060
279.570	15.254	860.957	648.731
280.585	15.238	860.934	648.595
281.599	15.174	860.541	647.994
282.614	15.124	860.030	647.359
283.628	15.087	858.946	646.345
284.643	15.249	858.637	646.678
285.657	15.253	858.212	646.316
286.672	15.240	857.186	645.438
287.687	15.323	857.209	645.716
288.701	15.324	856.375	645.037
289.716	15.181	856.062	644.192
290.730	15.331	855.075	643.970
291.745	15.214	854.730	643.203
292.760	15.289	853.913	642.819
293.774	15.445	853.092	642.741
294.789	15.485	852.472	642.370
295.803	15.500	852.039	642.045
296.818	15.401	851.451	641.168
297.833	15.502	851.011	641.165
298.847	15.515	850.344	640.655
299.862	15.414	849.192	639.345
300.876	15.597	848.728	639.637
301.891	15.510	847.842	638.580
302.906	15.471	847.729	638.292
303.920	15.405	847.275	637.642
304.935	15.598	846.590	637.803
305.949	15.661	845.756	637.357
306.964	15.571	845.226	636.560
307.979	15.697	844.192	636.202
308.993	15.680	843.935	635.889
310.008	15.573	843.609	635.182
311.022	15.788	842.737	635.282
312.037	15.709	842.364	634.645
313.052	15.644	842.214	634.230
314.066	15.660	841.610	633.780
315.081	15.534	840.728	632.586
316.095	15.844	839.678	632.904
317.110	15.706	839.391	632.115
318.125	15.693	838.664	631.463
319.139	15.801	838.290	631.530
320.154	15.750	838.016	631.076
321.168	15.692	837.215	630.200
322.183	15.627	837.048	629.772
323.197	15.700	836.551	629.619
324.212	15.713	835.523	628.838
325.227	15.841	835.350	629.128
326.241	15.916	834.977	629.075
327.256	15.816	834.231	628.081
328.270	15.693	833.816	627.256
329.285	15.743	833.151	626.884
330.300	15.835	832.525	626.700
331.314	15.818	831.920	626.127
332.329	15.884	831.293	625.846
333.343	15.927	830.599	625.428
334.358	15.969	830.014	625.088
335.373	16.009	829.364	624.691
336.387	15.873	829.011	623.868
337.402	16.002	828.358	623.797
338.416	16.025	827.964	623.530
339.431	15.984	827.394	622.896
340.446	16.115	826.698	622.798
341.460	16.125	826.552	622.670
342.475	16.287	825.651	622.537
343.489	16.077	825.211	621.372
344.504	16.108	824.628	620.995
345.519	16.124	824.157	620.644
346.533	16.262	823.538	620.629
347.548	16.367	822.978	620.539
348.562	16.275	822.144	619.516
349.577	16.284	822.121	619.480
350.592	16.244	821.248	618.618
351.606	16.239	821.368	618.637
352.621	16.179	820.662	617.831
353.635	16.151	820.364	617.449
354.650	16.210	819.718	617.122
355.665	16.287	819.247	616.994
356.679	16.425	818.526	616.901
357.694	16.361	818.409	616.526
358.708	16.204	818.035	615.617
359.723	16.331	817.264	615.445
360.738	16.353	816.661	615.015
361.752	16.430	816.287	614.960
362.767	16.489	815.648	614.641
363.781	16.255	815.465	613.597
364.796	16.410	814.820	613.618
365.810	16.682	814.309	614.168
366.825	16.605	813.969	613.578
367.840	16.543	813.864	613.220
368.854	16.659	812.982	612.920
369.869	16.472	812.735	612.005
370.883	16.510	812.375	611.816
371.898	16.597	811.386	611.329
372.913	16.669	811.135	611.348
373.927	16.794	810.201	611.040
374.942	16.808	809.899	610.808
375.956	16.638	809.458	609.812
376.971	16.692	808.541	609.259
377.986	16.671	808.225	608.893
379.000	16.631	807.720	608.316
380.015	16.703	807.324	608.218
381.029	16.822	806.768	608.175
382.044	16.718	806.101	607.247
383.059	16.940	805.315	607.395
384.073	16.892	805.214	607.091
385.088	16.923	804.166	606.360
386.102	16.760	804.331	605.849
387.117	16.795	803.559	605.338
388.132	16.862	802.798	604.950
389.146	16.816	802.654	604.624
390.161	16.834	802.287	604.358
391.175	16.893	802.054	604.339
392.190	16.919	801.544	603.993
393.205	16.907	801.218	603.653
394.219	16.789	800.844	602.897
395.234	16.803	800.347	602.520
396.248	16.902	799.571	602.234
397.263	16.705	799.281	601.262
398.278	16.698	799.230	601.147
399.292	16.848	798.005	600.702
400.307	16.973	797.685	600.853
401.321	16.847	797.563	600.260
402.336	16.903	797.154	600.098
403.350	16.784	797.146	599.616
404.365	17.007	796.111	599.572
405.380	17.304	795.235	599.910
406.394	17.051	795.147	598.897
407.409	17.061	794.649	598.503
408.423	17.175	794.160	598.485
409.438	17.269	793.804	598.496
410.453	17.204	793.391	597.903
411.467	17.265	793.185	597.908
412.482	17.283	792.612	597.486
413.496	17.383	792.014	597.333
414.511	17.335	791.734	596.901
415.526	17.241	791.679	596.478
416.540	17.492	790.876	596.701
417.555	17.476	790.332	596.181
418.569	17.342	789.754	595.222
419.584	17.414	789.048	594.891
420.599	17.496	789.486	595.453
421.613	111.153	1293.139	1478.463
422.628	95.444	1366.497	1478.554
