DTS Sentinel unit serial number:	SN413079Multiplexer serial number:	ORYXHardware model number:	OX4-SRSoftware version number:	ORYX F/W v4.00 Oryx Data Collector v3.7.2.0data status	okinstallation	princeton_trtdifferential loss correction	single-endedforward channel	channel 3reverse channel	N/Adate	2019/09/11time	21:54:11forward acquisition time	60.00reverse acquisition time	0.00gamma	496.2192k internal	0.2312k external	0.2312temperature offset calibration	1.0039default loss term (dB/km)	0.3790temperature slope calibration	1.0000multiplexer offset coefficient	1.0000multiplexer slope coefficient	1.0000fibre end	0.00T internal ref (°C)	35.62T ext. ref 1 (°C)	1.69T ext. ref 2 (°C)	29.53length (m)	temperature (°C)	Stokes	anti-Stokes-747.200	211.158	0.103	0.164
-746.185	-32.247	-0.115	0.065
-745.171	800.000	-0.030	0.124
-744.156	-200.000	0.011	-0.069
-743.142	449.534	-0.034	-0.075
-742.127	-103.992	-0.516	-0.122
-741.112	122.193	0.128	-0.162
-740.098	-80.096	-0.538	0.183
-739.083	-200.000	-0.005	0.171
-738.069	800.000	0.049	0.211
-737.054	193.151	-0.078	0.120
-736.039	-135.918	-0.366	0.044
-735.025	-63.817	-0.331	0.138
-734.010	114.691	0.072	0.089
-732.996	238.937	-0.129	-0.218
-731.981	-85.879	0.294	0.092
-730.966	-24.048	0.326	0.198
-729.952	-2.720	-0.231	-0.164
-728.937	800.000	0.051	-0.144
-727.923	-200.000	0.035	-0.261
-726.908	-200.000	0.025	-0.401
-725.894	-200.000	-0.035	0.371
-724.879	-95.146	-0.150	0.041
-723.864	-200.000	0.029	-0.149
-722.850	-200.000	0.007	0.246
-721.835	250.012	0.169	0.291
-720.821	-26.352	0.067	-0.040
-719.806	299.037	-0.037	0.069
-718.791	-57.851	0.244	0.108
-717.777	-69.655	0.145	-0.056
-716.762	507.773	-0.157	-0.368
-715.748	-128.027	-0.069	0.010
-714.733	29.975	0.292	-0.252
-713.718	-30.104	-0.242	0.139
-712.704	-125.154	-0.220	-0.034
-711.689	51.312	0.237	0.229
-710.675	-104.203	0.171	-0.040
-709.660	74.637	-0.048	-0.051
-708.645	-81.041	0.095	-0.032
-707.631	-200.000	-0.007	-0.083
-706.616	-129.293	-0.140	0.020
-705.602	32.624	-0.041	0.036
-704.587	-200.000	0.003	0.376
-703.572	-121.127	0.222	0.038
-702.558	-98.141	0.283	-0.074
-701.543	0.520	-0.342	0.248
-700.529	-129.859	-0.209	-0.029
-699.514	17.466	-0.124	0.100
-698.499	-146.776	0.281	-0.025
-697.485	-35.000	-0.190	0.105
-696.470	70.468	0.299	0.313
-695.456	119.668	-0.099	-0.124
-694.441	-123.562	0.072	-0.012
-693.426	-40.225	0.214	-0.113
-692.412	-1.552	0.227	0.162
-691.397	-23.173	-0.158	0.096
-690.383	800.000	-0.105	-0.343
-689.368	-200.000	-0.030	-0.148
-688.354	416.031	-0.068	0.147
-687.339	-4.514	-0.129	0.090
-686.324	191.657	-0.187	-0.286
-685.310	800.000	-0.025	-0.092
-684.295	30.462	0.225	-0.195
-683.281	-151.911	-0.455	0.034
-682.266	-40.715	-0.134	0.070
-681.251	-200.000	-0.032	-0.153
-680.237	80.953	-0.112	-0.122
-679.222	647.403	0.040	0.103
-678.208	160.393	-0.102	0.144
-677.193	14.742	0.081	0.064
-676.178	-200.000	-0.017	-0.307
-675.164	-89.337	-0.193	0.058
-674.149	800.000	-0.091	0.264
-673.135	-200.000	-0.029	-0.433
-672.120	-103.716	0.281	0.067
-671.105	-200.000	0.006	0.051
-670.091	454.570	0.023	0.053
-669.076	140.726	-0.009	-0.011
-668.062	-95.386	0.120	-0.033
-667.047	-179.853	-0.198	-0.004
-666.032	171.787	0.091	0.133
-665.018	-103.146	-0.110	0.026
-664.003	100.586	-0.201	-0.237
-662.989	-200.000	0.034	0.270
-661.974	658.002	-0.058	-0.151
-660.959	-149.450	-0.046	-0.004
-659.945	-200.000	0.020	-0.299
-658.930	93.882	-0.217	0.249
-657.916	-100.240	0.451	0.113
-656.901	23.042	-0.119	-0.099
-655.886	-200.000	-0.031	-0.540
-654.872	3.981	-0.189	-0.140
-653.857	-122.977	-0.548	0.089
-652.843	165.971	-0.070	-0.100
-651.828	52.207	0.114	0.110
-650.814	-200.000	0.051	0.335
-649.799	160.951	-0.148	0.209
-648.784	-200.000	0.040	0.346
-647.770	-97.721	-0.123	0.032
-646.755	147.505	0.152	-0.207
-645.741	44.880	-0.229	-0.213
-644.726	322.365	0.109	-0.209
-643.711	256.161	0.097	-0.168
-642.697	800.000	-0.043	0.125
-641.682	-200.000	-0.015	-0.098
-640.668	-200.000	-0.076	-0.451
-639.653	135.056	-0.037	0.049
-638.638	-200.000	0.045	0.214
-637.624	-115.249	0.415	0.079
-636.609	664.568	-0.025	0.064
-635.595	-52.771	-0.382	0.178
-634.580	-25.317	-0.111	0.066
-633.565	138.971	0.095	-0.126
-632.551	80.131	0.179	0.194
-631.536	-45.038	-0.170	-0.086
-630.522	-21.741	0.082	0.051
-629.507	-200.000	0.009	-0.084
-628.492	-103.843	-0.195	0.046
-627.478	-118.434	0.076	-0.014
-626.463	-56.473	0.394	0.177
-625.449	-126.549	-0.196	-0.029
-624.434	800.000	0.086	0.358
-623.419	800.000	-0.023	-0.084
-622.405	-141.801	0.445	-0.045
-621.390	31.304	0.084	-0.073
-620.376	209.807	-0.121	0.192
-619.361	5.383	0.069	-0.052
-618.346	800.000	0.105	0.308
-617.332	-50.767	0.383	0.182
-616.317	124.675	0.255	0.324
-615.303	-13.067	0.079	0.052
-614.288	-200.000	0.006	-0.060
-613.273	238.469	-0.130	0.219
-612.259	-78.910	-0.110	-0.038
-611.244	538.480	0.135	-0.324
-610.230	195.619	0.117	-0.179
-609.215	62.601	-0.259	-0.261
-608.201	97.712	0.183	0.213
-607.186	19.769	-0.158	0.129
-606.171	-200.000	-0.051	0.336
-605.157	396.852	-0.137	-0.290
-604.142	800.000	0.088	0.257
-603.128	145.814	0.106	-0.144
-602.113	-200.000	0.018	-0.293
-601.098	68.158	-0.240	-0.248
-600.084	225.629	0.155	-0.253
-599.069	9.081	0.030	-0.023
-598.055	-200.000	-0.033	0.155
-597.040	12.988	0.217	0.170
-596.025	-129.340	-0.186	0.026
-595.011	-61.801	0.434	-0.183
-593.996	-200.000	0.011	-0.174
-592.982	-122.682	-0.297	0.049
-591.967	-21.458	0.088	-0.054
-590.952	-2.191	-0.161	0.114
-589.938	207.207	-0.123	-0.193
-588.923	-200.000	-0.004	0.029
-587.909	-47.587	-0.142	0.070
-586.894	-200.000	-0.030	-0.312
-585.879	-166.870	0.397	-0.016
-584.865	800.000	-0.069	-0.235
-583.850	99.279	-0.176	-0.205
-582.836	-200.000	-0.008	-0.036
-581.821	342.409	-0.057	0.112
-580.806	268.367	0.094	-0.166
-579.792	29.855	0.228	-0.196
-578.777	-138.895	0.211	-0.023
-577.763	605.962	0.066	-0.167
-576.748	800.000	0.070	0.283
-575.733	-130.459	-0.150	-0.020
-574.719	-104.473	-0.072	0.017
-573.704	-128.335	0.199	0.029
-572.690	337.109	0.064	0.125
-571.675	42.341	0.114	0.105
-570.661	-180.663	0.160	0.003
-569.646	-50.178	-0.328	-0.157
-568.631	-200.000	0.004	0.052
-567.617	3.252	0.072	-0.053
-566.602	-200.000	0.038	-0.266
-565.588	-31.040	0.068	0.038
-564.573	-13.812	0.144	-0.094
-563.558	182.273	-0.109	0.162
-562.544	-200.000	-0.000	-0.169
-561.529	159.819	0.079	0.110
-560.515	-89.598	-0.221	0.065
-559.500	-200.000	-0.053	-0.517
-558.485	298.494	-0.146	-0.270
-557.471	-200.000	0.003	0.104
-556.456	-113.307	0.509	0.101
-555.442	-71.867	-0.322	-0.121
-554.427	-29.212	-0.192	0.111
-553.412	343.060	0.091	-0.180
-552.398	220.800	-0.106	-0.171
-551.383	-21.532	0.104	-0.064
-550.369	-143.427	0.068	0.007
-549.354	-134.431	-0.290	-0.036
-548.339	140.202	0.091	-0.121
-547.325	-138.536	0.146	0.016
-546.310	-102.991	0.187	-0.045
-545.296	-200.000	0.020	0.223
-544.281	-200.000	-0.002	0.051
-543.266	-200.000	-0.082	-0.515
-542.252	-200.000	-0.014	-0.106
-541.237	-178.240	-0.238	-0.006
-540.223	470.167	0.213	0.483
-539.208	68.035	-0.188	0.194
-538.193	-118.070	-0.137	-0.025
-537.179	-200.000	-0.013	-0.257
-536.164	-90.308	0.131	-0.038
-535.150	119.919	-0.038	-0.047
-534.135	-67.809	0.195	0.077
-533.121	398.597	-0.104	-0.219
-532.106	-61.505	-0.141	-0.060
-531.091	352.575	0.184	0.368
-530.077	27.490	-0.320	-0.271
-529.062	-200.000	0.022	0.154
-528.048	-107.827	-0.281	-0.062
-527.033	-122.490	0.102	0.017
-526.018	698.931	0.035	0.092
-525.004	-200.000	0.037	0.273
-523.989	181.906	-0.074	0.110
-522.975	-70.954	0.288	-0.109
-521.960	513.565	-0.163	0.382
-520.945	-70.372	0.048	0.018
-519.931	-10.027	0.045	0.030
-518.916	-2.797	0.186	-0.131
-517.902	-73.543	-0.223	-0.082
-516.887	-54.722	0.054	0.025
-515.872	-122.085	0.248	0.041
-514.858	-66.273	-0.146	0.059
-513.843	-89.141	-0.161	0.048
-512.829	17.080	0.627	0.500
-511.814	182.577	-0.135	0.199
-510.799	-200.000	0.025	0.208
-509.785	-104.710	-0.093	-0.021
-508.770	-24.250	-0.049	0.030
-507.756	-200.000	0.023	0.145
-506.741	13.738	0.220	-0.172
-505.726	-47.676	-0.112	-0.055
-504.712	-52.981	-0.512	-0.237
-503.697	80.524	-0.195	0.212
-502.683	468.851	-0.127	-0.288
-501.668	18.934	-0.348	0.281
-500.653	-200.000	0.033	-0.237
-499.639	-106.106	0.221	-0.050
-498.624	-166.478	0.208	0.009
-497.610	151.689	0.094	-0.129
-496.595	8.303	0.331	-0.250
-495.581	468.508	0.145	-0.328
-494.566	387.957	-0.080	-0.167
-493.551	-200.000	-0.023	0.279
-492.537	-184.728	-0.249	0.004
-491.522	167.989	0.094	-0.135
-490.508	-116.288	-0.515	-0.096
-489.493	766.567	0.098	0.267
-488.478	-147.314	0.165	-0.014
-487.464	-21.732	-0.062	0.038
-486.449	-142.965	-0.305	0.030
-485.435	-79.219	-0.186	0.064
-484.420	-200.000	0.017	-0.197
-483.405	-157.050	0.126	0.008
-482.391	-134.917	-0.242	-0.029
-481.376	800.000	-0.018	-0.056
-480.362	-68.363	-0.359	0.140
-479.347	302.033	0.143	-0.265
-478.332	-200.000	-0.060	-0.311
-477.318	50.776	0.214	0.204
-476.303	-80.900	-0.117	0.039
-475.289	800.000	0.062	0.215
-474.274	-200.000	0.029	0.239
-473.259	227.443	-0.156	-0.255
-472.245	-200.000	-0.018	0.156
-471.230	46.150	-0.114	0.106
-470.216	169.929	0.168	-0.241
-469.201	-2.555	0.158	-0.111
-468.186	50.245	-0.231	-0.219
-467.172	800.000	-0.114	-0.365
-466.157	-51.483	-0.395	-0.185
-465.143	-136.503	0.287	-0.033
-464.128	-180.363	0.106	0.002
-463.113	-115.949	-0.117	0.022
-462.099	-105.447	-0.194	-0.044
-461.084	540.983	-0.062	0.148
-460.070	9.918	0.249	-0.190
-459.055	109.954	-0.104	0.125
-458.040	-91.904	0.271	0.077
-457.026	23.535	-0.304	-0.251
-456.011	10.094	-0.115	-0.088
-454.997	-200.000	0.001	-0.085
-453.982	-151.420	0.248	0.019
-452.968	-93.142	-0.217	0.061
-451.953	-144.317	-0.387	-0.036
-450.938	-200.000	0.037	-0.208
-449.924	800.000	0.012	-0.050
-448.909	-127.282	0.065	0.010
-447.895	76.737	-0.063	0.067
-446.880	-200.000	0.001	0.135
-445.865	232.735	-0.154	-0.254
-444.851	800.000	0.019	0.069
-443.836	-123.808	0.107	0.017
-442.822	-180.888	0.243	0.005
-441.807	123.378	-0.071	0.089
-440.792	-200.000	0.032	0.141
-439.778	198.722	0.200	-0.307
-438.763	-101.818	-0.116	0.028
-437.749	85.688	0.223	0.246
-436.734	-200.000	0.045	0.213
-435.719	56.166	0.030	-0.030
-434.705	-200.000	-0.018	-0.086
-433.690	-37.316	0.101	0.054
-432.676	30.372	0.139	0.119
-431.661	-50.642	-0.454	-0.214
-430.646	-200.000	0.107	0.000
-429.632	-50.891	-0.276	-0.130
-428.617	130.214	0.246	-0.316
-427.603	-163.365	-0.220	-0.011
-426.588	-98.349	-0.366	0.094
-425.573	755.180	-0.060	-0.162
-424.559	-7.422	0.115	0.078
-423.544	-111.740	-0.134	-0.027
-422.530	-28.906	0.381	-0.219
-421.515	-60.783	0.291	-0.123
-420.500	-66.883	-0.343	0.136
-419.486	-118.815	0.308	-0.054
-418.471	-96.162	-0.040	0.011
-417.457	-78.191	-0.376	-0.129
-416.442	-200.000	-0.009	-0.163
-415.428	3.342	-0.020	-0.014
-414.413	105.862	-0.215	0.255
-413.398	460.172	0.110	-0.245
-412.384	216.852	-0.034	0.055
-411.369	303.919	0.048	-0.089
-410.355	497.387	0.124	-0.286
-409.340	800.000	0.118	0.352
-408.325	-62.655	0.273	-0.114
-407.311	431.195	-0.010	-0.022
-406.296	-200.000	-0.007	-0.074
-405.282	-144.232	-0.260	0.024
-404.267	-200.000	0.009	0.165
-403.252	285.940	-0.190	0.343
-402.238	31.837	-0.137	0.119
-401.223	283.625	0.161	0.290
-400.209	800.000	0.028	-0.091
-399.194	800.000	0.034	0.115
-398.179	-125.832	-0.423	0.064
-397.165	-54.925	0.170	0.077
-396.150	-66.525	0.138	-0.055
-395.136	-142.978	0.173	0.017
-394.121	800.000	0.098	-0.293
-393.106	-20.555	0.002	-0.001
-392.092	71.164	-0.265	-0.275
-391.077	-95.671	0.243	-0.065
-390.063	9.954	0.178	-0.135
-389.048	-58.863	0.063	0.027
-388.033	-112.286	-0.129	-0.026
-387.019	2.524	0.255	0.185
-386.004	-102.402	0.320	-0.077
-384.990	52.062	0.036	-0.035
-383.975	-68.329	0.033	-0.013
-382.960	-200.000	0.017	-0.088
-381.946	-162.099	-0.352	0.018
-380.931	-104.371	-0.152	0.035
-379.917	122.388	0.096	-0.121
-378.902	-200.000	0.001	-0.203
-377.888	-73.391	-0.056	0.021
-376.873	-200.000	0.037	0.355
-375.858	-183.749	0.067	-0.001
-374.844	800.000	-0.039	0.119
-373.829	-32.892	-0.131	-0.073
-372.815	-109.088	-0.084	0.018
-371.800	800.000	0.079	0.306
-370.785	-73.985	0.103	-0.038
-369.771	318.106	0.081	-0.153
-368.756	-5.449	0.021	-0.014
-367.742	-200.000	-0.031	-0.293
-366.727	-170.566	-0.299	0.010
-365.712	436.088	0.064	0.139
-364.698	-200.000	0.009	-0.089
-363.683	292.452	-0.092	0.168
-362.669	-19.167	0.303	0.188
-361.654	800.000	-0.075	0.248
-360.639	800.000	0.094	0.264
-359.625	800.000	0.063	0.233
-358.610	172.215	0.169	-0.242
-357.596	-74.187	-0.268	0.097
-356.581	-115.076	-0.528	0.100
-355.566	-200.000	-0.076	-0.376
-354.552	-117.759	-0.314	-0.056
-353.537	800.000	0.020	-0.072
-352.523	-200.000	-0.003	0.074
-351.508	30.133	-0.052	0.044
-350.493	13.456	0.213	0.165
-349.479	-168.818	0.096	0.004
-348.464	-200.000	-0.035	-0.285
-347.450	-200.000	0.012	0.058
-346.435	-200.000	-0.033	-0.322
-345.420	125.552	0.136	-0.172
-344.406	37.885	-0.156	0.138
-343.391	67.177	-0.138	0.140
-342.377	-67.932	0.410	-0.160
-341.362	57.340	-0.157	-0.154
-340.348	-121.133	0.442	-0.074
-339.333	-200.000	-0.047	0.280
-338.318	-89.364	-0.286	0.084
-337.304	-9.690	-0.290	-0.193
-336.289	285.042	-0.194	-0.349
-335.275	-125.818	0.278	0.042
-334.260	151.807	0.103	-0.141
-333.245	-200.000	-0.018	-0.252
-332.231	-200.000	0.007	-0.078
-331.216	-90.730	0.353	0.102
-330.202	420.413	0.200	-0.428
-329.187	614.036	0.044	0.109
-328.172	-18.882	-0.116	0.072
-327.158	-58.177	-0.050	-0.022
-326.143	341.875	-0.131	0.256
-325.129	318.157	0.133	-0.251
-324.114	22.484	0.265	-0.217
-323.099	-200.000	-0.009	0.236
-322.085	-94.348	0.045	0.012
-321.070	800.000	0.050	-0.186
-320.056	1.100	0.132	0.094
-319.041	-70.732	0.133	0.050
-318.026	-108.935	-0.219	-0.047
-317.012	-137.361	0.221	0.025
-315.997	533.947	-0.158	0.373
-314.983	325.764	-0.203	0.387
-313.968	-200.000	0.029	-0.219
-312.953	589.980	-0.057	0.140
-311.939	-200.000	-0.018	0.159
-310.924	201.381	-0.129	0.198
-309.910	800.000	-0.129	-0.361
-308.895	800.000	-0.020	0.078
-307.880	277.254	-0.163	0.289
-306.866	189.339	0.067	0.100
-305.851	19.695	-0.216	0.173
-304.837	-133.483	0.162	-0.020
-303.822	-121.233	0.256	0.043
-302.807	207.648	0.129	-0.201
-301.793	256.216	-0.158	0.270
-300.778	429.932	0.189	0.408
-299.764	-200.000	-0.039	0.245
-298.749	-124.545	-0.264	-0.041
-297.735	-131.544	-0.103	-0.013
-296.720	-200.000	-0.050	0.266
-295.705	-117.706	-0.117	-0.021
-294.691	427.339	-0.056	-0.122
-293.676	-76.540	-0.166	-0.058
-292.662	-121.896	0.241	0.040
-291.647	-149.189	0.262	0.021
-290.632	305.908	0.119	-0.221
-289.618	16.180	0.236	0.186
-288.603	-200.000	-0.004	0.102
-287.589	-6.104	-0.203	-0.138
-286.574	-32.094	0.063	0.035
-285.559	358.736	0.138	0.274
-284.545	20.645	0.320	0.259
-283.530	347.535	0.060	0.118
-282.516	-200.000	-0.056	0.325
-281.501	153.645	-0.203	0.277
-280.486	-200.000	0.020	-0.129
-279.472	800.000	-0.015	-0.055
-278.457	-81.280	-0.173	-0.057
-277.443	-200.000	-0.026	-0.237
-276.428	205.752	0.105	0.162
-275.413	59.068	-0.110	0.108
-274.399	353.429	0.121	-0.239
-273.384	25.531	-0.259	0.215
-272.370	-165.959	-0.190	-0.008
-271.355	77.539	-0.173	-0.183
-270.340	-129.205	-0.092	0.013
-269.326	-102.679	0.282	-0.067
-268.311	-118.752	0.131	0.023
-267.297	-138.270	-0.085	0.009
-266.282	-19.545	-0.174	0.107
-265.267	-144.619	-0.312	-0.029
-264.253	137.167	-0.143	0.186
-263.238	-200.000	0.003	-0.101
-262.224	44.166	0.232	-0.212
-261.209	-200.000	0.019	-0.184
-260.195	-200.000	-0.008	-0.429
-259.180	-200.000	-0.010	0.062
-258.165	-122.970	-0.051	0.008
-257.151	-22.608	0.158	0.095
-256.136	-42.486	0.161	-0.082
-255.122	-200.000	-0.036	0.304
-254.107	-66.597	0.163	0.064
-253.092	-169.268	-0.258	0.009
-252.078	-30.239	-0.029	-0.016
-251.063	800.000	-0.096	0.279
-250.049	-76.140	-0.137	-0.048
-249.034	128.223	-0.168	0.212
-248.019	63.951	0.053	0.053
-247.005	227.895	0.065	-0.106
-245.990	170.535	0.212	-0.302
-244.976	-200.000	0.021	0.091
-243.961	393.989	-0.031	0.065
-242.946	800.000	0.146	-0.412
-241.932	132.456	0.099	-0.127
-240.917	-17.314	-0.226	-0.142
-239.903	452.399	-0.155	-0.342
-238.888	-57.761	0.268	0.117
-237.873	-110.886	0.231	0.047
-236.859	-47.931	-0.126	-0.061
-235.844	-3.752	0.250	0.173
-234.830	51.483	-0.313	0.296
-233.815	-5.394	-0.084	0.057
-232.800	-24.808	-0.114	-0.068
-231.786	315.407	-0.182	0.342
-230.771	800.000	-0.072	0.250
-229.757	-139.605	0.064	-0.007
-228.742	-200.000	-0.001	-0.032
-227.727	-140.676	0.075	0.008
-226.713	17.234	0.091	-0.072
-225.698	-48.586	0.229	0.109
-224.684	484.527	-0.147	-0.332
-223.669	800.000	0.059	0.234
-222.655	131.274	0.057	-0.073
-221.640	-200.000	0.032	0.162
-220.625	-200.000	-0.027	0.127
-219.611	-27.343	0.214	-0.124
-218.596	-112.801	0.246	-0.048
-217.582	800.000	0.063	0.197
-216.567	-151.716	-0.237	0.017
-215.552	-60.691	-0.136	0.057
-214.538	-200.000	-0.062	0.332
-213.523	650.647	-0.074	-0.189
-212.509	-19.178	0.316	-0.195
-211.494	44.379	-0.225	-0.205
-210.479	-150.913	-0.140	0.011
-209.465	265.558	0.061	0.105
-208.450	-101.579	-0.138	0.033
-207.436	-200.000	0.050	0.336
-206.421	-200.000	0.039	0.180
-205.406	-66.051	-0.278	-0.110
-204.392	9.487	-0.180	0.135
-203.377	-140.082	-0.149	0.016
-202.363	-61.602	0.110	0.046
-201.348	-79.235	-0.332	0.112
-200.333	254.261	0.130	0.221
-199.319	-81.705	-0.206	-0.067
-198.304	-170.074	-0.126	-0.004
-197.290	81.123	-0.090	0.097
-196.275	-16.638	0.454	-0.286
-195.260	308.041	0.161	0.299
-194.246	-110.116	-0.317	-0.066
-193.231	-56.447	0.052	-0.023
-192.217	342.097	0.113	0.220
-191.202	-200.000	-0.015	-0.465
-190.187	-200.000	0.042	-0.480
-189.173	-169.065	0.298	0.011
-188.158	-95.943	0.170	0.045
-187.144	508.122	-0.200	0.460
-186.129	-137.594	-0.308	-0.034
-185.114	-27.278	-0.233	0.135
-184.100	-54.701	-0.232	-0.104
-183.085	-23.754	0.262	0.156
-182.071	424.348	-0.024	0.051
-181.056	800.000	-0.102	0.338
-180.042	-180.623	0.393	0.008
-179.027	-169.797	-0.283	0.010
-178.012	-111.890	0.227	0.046
-176.998	318.290	0.083	0.157
-175.983	800.000	0.055	-0.153
-174.969	123.641	-0.107	0.134
-173.954	400.132	0.132	0.275
-172.939	145.888	-0.110	0.147
-171.925	17.258	-0.063	-0.049
-170.910	48.198	0.321	-0.298
-169.896	-91.646	0.037	-0.011
-168.881	-26.571	0.072	0.042
-167.866	-47.986	0.145	-0.070
-166.852	113.286	0.181	0.218
-165.837	-138.926	-0.202	-0.022
-164.823	-30.573	0.304	-0.171
-163.808	91.734	0.067	0.075
-162.793	-5.835	-0.197	0.134
-161.779	455.948	0.068	-0.150
-160.764	-62.921	-0.114	0.047
-159.750	-92.518	0.173	-0.048
-158.735	-200.000	-0.116	-0.541
-157.720	18.397	0.165	0.130
-156.706	86.858	0.157	-0.172
-155.691	5.636	0.226	0.165
-154.677	116.632	-0.080	-0.097
-153.662	-200.000	0.019	0.110
-152.647	-200.000	-0.051	-0.314
-151.633	-59.133	0.177	0.075
-150.618	79.736	0.256	-0.272
-149.604	-200.000	0.009	-0.068
-148.589	-28.567	0.113	0.065
-147.574	246.317	0.076	-0.126
-146.560	-112.561	0.261	0.052
-145.545	-143.391	-0.155	0.015
-144.531	286.165	-0.099	0.177
-143.516	-200.000	0.019	0.147
-142.502	520.984	0.164	0.382
-141.487	-200.000	0.041	-0.303
-140.472	599.820	0.184	-0.453
-139.458	221.397	-0.102	-0.163
-138.443	263.664	-0.382	-0.659
-137.429	303.590	-0.108	-0.199
-136.414	-22.409	0.319	0.191
-135.399	-127.328	-0.071	-0.010
-134.385	800.000	-0.025	0.090
-133.370	-200.000	-0.002	0.072
-132.356	-200.000	0.193	-0.000
-131.341	800.000	-0.102	-0.279
-130.326	27.328	-0.268	-0.223
-129.312	264.766	-0.142	0.246
-128.297	-80.233	-0.185	-0.061
-127.283	800.000	0.037	-0.109
-126.268	346.281	0.121	-0.236
-125.253	-85.501	0.159	-0.049
-124.239	75.528	-0.053	0.055
-123.224	120.703	0.163	-0.201
-122.210	-16.811	-0.156	-0.098
-121.195	-3.842	-0.137	0.094
-120.180	295.471	0.122	0.221
-119.166	160.308	0.113	0.156
-118.151	254.289	0.147	-0.249
-117.137	48.460	0.148	0.137
-116.122	-135.599	-0.104	-0.012
-115.107	-200.000	-0.010	0.142
-114.093	-200.000	-0.007	0.136
-113.078	-139.533	-0.175	-0.019
-112.064	-68.405	0.174	-0.067
-111.049	-45.966	0.180	0.088
-110.034	-157.941	0.405	-0.024
-109.020	-103.799	0.222	-0.051
-108.005	-200.000	0.070	0.339
-106.991	-63.118	0.288	0.118
-105.976	457.162	0.127	0.280
-104.962	-107.740	-0.174	0.038
-103.947	-101.600	-0.147	-0.035
-102.932	118.176	-0.071	-0.087
-101.918	800.000	0.089	-0.331
-100.903	800.000	0.090	-0.247
-99.889	-71.586	0.200	-0.074
-98.874	800.000	0.023	0.084
-97.859	112.749	0.066	-0.079
-96.845	-79.416	-0.195	-0.065
-95.830	19.766	0.096	0.077
-94.816	-197.380	0.287	0.002
-93.801	-86.863	0.142	-0.043
-92.786	-30.687	0.108	0.061
-91.772	665.331	-0.141	0.360
-90.757	800.000	0.054	-0.153
-89.743	-200.000	0.014	0.251
-88.728	16.083	-0.112	0.087
-87.713	-80.331	0.246	-0.081
-86.699	120.744	0.033	0.040
-85.684	-130.710	-0.411	-0.055
-84.670	-45.519	0.216	0.106
-83.655	199.867	0.198	0.300
-82.640	7.262	0.249	-0.184
-81.626	8.810	0.182	0.136
-80.611	81.996	-0.252	0.270
-79.597	-200.000	-0.088	0.388
-78.582	-138.422	-0.338	-0.037
-77.567	177.649	0.305	-0.439
-76.553	-95.375	0.390	-0.104
-75.538	-200.000	0.003	-0.115
-74.524	440.902	0.059	-0.127
-73.509	800.000	-0.015	-0.059
-72.494	672.359	-0.051	-0.130
-71.480	-13.854	-0.128	-0.082
-70.465	800.000	0.094	-0.367
-69.451	500.553	0.161	-0.367
-68.436	5.699	0.154	0.112
-67.422	-87.478	-0.242	0.072
-66.407	642.953	0.023	-0.058
-65.392	-24.495	0.189	-0.111
-64.378	299.210	-0.019	-0.035
-63.363	-93.564	-0.122	0.033
-62.349	-120.869	0.151	-0.025
-61.334	37.208	-0.962	-0.842
-60.319	-18.551	0.465	0.287
-59.305	304.329	-0.461	-0.845
-58.290	788.090	0.388	1.051
-57.276	762.164	0.510	1.367
-56.261	-200.000	94.704	579.380
-55.246	565.177	1369.382	3279.401
-54.232	153.504	2577.617	3486.834
-53.217	116.108	2182.890	2640.602
-52.203	46.281	1721.856	1576.255
-51.188	38.731	1533.499	1351.966
-50.173	36.326	1505.511	1310.925
-49.159	55.690	1555.943	1488.938
-48.144	59.592	1574.696	1533.724
-47.130	39.081	1530.884	1351.851
-46.115	35.845	1514.933	1315.636
-45.100	35.726	1511.438	1311.736
-44.086	35.775	1509.769	1310.569
-43.071	35.580	1507.555	1307.266
-42.057	35.510	1506.443	1305.773
-41.042	35.537	1505.183	1304.813
-40.027	35.607	1503.756	1304.002
-39.013	35.599	1502.198	1302.542
-37.998	35.573	1500.819	1301.121
-36.984	35.542	1499.678	1299.870
-35.969	35.641	1497.976	1299.013
-34.954	35.680	1496.675	1298.094
-33.940	35.561	1495.097	1295.868
-32.925	35.621	1494.313	1295.545
-31.911	35.677	1493.168	1294.881
-30.896	35.564	1491.862	1292.931
-29.881	35.764	1489.741	1292.388
-28.867	35.711	1488.827	1291.192
-27.852	35.771	1487.226	1290.152
-26.838	35.706	1486.009	1288.610
-25.823	35.743	1484.283	1287.310
-24.809	35.688	1482.715	1285.529
-23.794	35.646	1481.281	1283.953
-22.779	35.683	1480.055	1283.086
-21.765	35.613	1479.167	1281.798
-20.750	35.613	1478.322	1281.017
-19.736	35.594	1477.159	1279.831
-18.721	35.673	1475.658	1279.007
-17.706	35.677	1474.408	1277.901
-16.692	35.638	1474.032	1277.265
-15.677	35.590	1472.741	1275.777
-14.663	35.590	1471.928	1275.018
-13.648	35.553	1471.287	1274.170
-12.633	35.555	1469.950	1272.975
-11.619	35.678	1468.746	1272.693
-10.604	35.549	1468.308	1271.411
-9.590	35.558	1467.791	1270.970
-8.575	35.664	1466.541	1270.544
-7.560	35.725	1465.014	1269.568
-6.546	35.549	1464.862	1268.224
-5.531	35.513	1463.904	1267.111
-4.517	35.662	1462.653	1266.959
-3.502	35.678	1461.403	1265.933
-2.487	35.577	1460.664	1264.577
-1.473	35.510	1460.030	1263.535
-0.458	35.578	1458.412	1262.532
0.556	35.619	1448.759	1251.496
1.571	32.686	1423.436	1210.708
2.586	29.393	1363.311	1139.167
3.600	27.806	1281.999	1061.906
4.615	26.428	1235.895	1015.894
5.629	22.616	1178.237	947.955
6.644	11.902	1089.295	822.766
7.659	3.143	1045.302	747.081
8.673	1.942	1039.001	736.714
9.688	1.631	1035.975	733.001
10.702	1.649	1034.734	732.145
11.717	1.549	1032.820	730.247
12.731	5.439	1037.637	752.327
13.746	15.839	1052.113	813.251
14.761	23.227	1061.506	856.318
15.775	24.565	1062.087	863.179
16.790	24.738	1061.844	863.745
17.804	24.461	1061.196	861.803
18.819	24.466	1059.719	860.549
19.834	24.501	1059.505	860.471
20.848	24.605	1059.460	860.857
21.863	24.529	1059.434	860.395
22.877	24.694	1058.205	860.112
23.892	24.493	1057.692	858.656
24.907	24.498	1056.930	857.984
25.921	24.550	1056.229	857.589
26.936	24.541	1055.013	856.483
27.950	24.534	1053.815	855.401
28.965	24.458	1053.396	854.622
29.980	24.422	1051.913	853.171
30.994	24.411	1050.621	851.993
32.009	24.568	1049.817	852.016
33.023	24.728	1048.948	851.997
34.038	24.433	1048.288	849.981
35.053	24.389	1047.186	848.803
36.067	24.498	1046.856	848.981
37.082	24.483	1045.899	848.056
38.096	24.521	1045.245	847.632
39.111	24.789	1044.601	848.303
40.126	24.782	1043.955	847.673
41.140	24.866	1042.234	846.599
42.155	24.525	1041.315	844.164
43.169	24.244	1039.818	841.550
44.184	24.197	1038.738	840.376
45.199	24.240	1037.562	839.556
46.213	24.058	1036.398	837.685
47.228	24.113	1035.777	837.365
48.242	24.310	1035.144	837.703
49.257	24.459	1034.291	837.642
50.271	24.521	1033.990	837.614
51.286	24.555	1033.165	837.031
52.301	24.653	1032.339	836.745
53.315	24.764	1031.452	836.471
54.330	24.461	1031.161	834.743
55.344	24.421	1030.080	833.609
56.359	24.534	1029.151	833.312
57.374	24.484	1028.651	832.598
58.388	24.428	1026.893	830.842
59.403	24.239	1026.627	829.673
60.417	24.235	1026.332	829.344
61.432	24.121	1025.478	828.051
62.447	24.168	1024.523	827.425
63.461	24.258	1024.096	827.425
64.476	24.322	1023.020	826.779
65.490	24.460	1021.558	826.160
66.505	24.144	1021.306	824.423
67.520	24.172	1020.736	824.019
68.534	24.256	1019.912	823.670
69.549	24.176	1018.751	822.290
70.563	23.921	1017.809	820.282
71.578	23.816	1016.917	819.003
72.593	23.784	1016.656	818.575
73.607	23.722	1014.911	816.813
74.622	23.742	1014.132	816.204
75.636	23.835	1013.722	816.229
76.651	24.137	1012.637	816.669
77.666	24.105	1012.179	816.083
78.680	23.868	1011.135	814.081
79.695	23.983	1010.669	814.159
80.709	23.989	1010.022	813.596
81.724	24.153	1009.556	813.899
82.739	24.197	1008.434	813.121
83.753	24.165	1007.729	812.336
84.768	24.407	1007.151	812.899
85.782	24.671	1006.926	813.848
86.797	24.973	1005.796	814.238
87.812	24.795	1005.047	812.749
88.826	24.631	1003.787	810.912
89.841	24.672	1003.408	810.723
90.855	24.779	1002.532	810.429
91.870	24.796	1001.680	809.745
92.884	24.709	1001.104	808.812
93.899	24.729	1000.028	807.961
94.914	24.549	998.909	806.175
95.928	24.794	997.865	806.364
96.943	24.704	997.497	805.592
97.957	24.389	996.657	803.425
98.972	24.319	995.154	801.824
99.987	24.033	994.350	799.824
101.001	24.125	993.818	799.739
102.016	24.491	993.077	800.712
103.030	24.502	992.226	800.004
104.045	24.471	991.411	799.135
105.060	24.341	990.065	797.402
106.074	24.076	988.927	795.229
107.089	24.032	988.179	794.361
108.103	24.459	987.830	795.917
109.118	24.545	987.011	795.567
110.133	24.137	986.149	792.988
111.147	24.142	985.125	792.117
112.162	24.191	983.681	791.103
113.176	24.016	981.983	788.890
114.191	24.106	981.607	788.918
115.206	24.125	980.820	788.298
116.220	23.900	979.568	786.228
117.235	23.581	979.322	784.550
118.249	23.821	978.579	784.945
119.264	23.884	977.439	784.241
120.279	23.745	976.723	782.983
121.293	23.835	975.809	782.578
122.308	23.787	975.713	782.221
123.322	23.850	974.430	781.402
124.337	23.943	973.044	780.627
125.352	23.796	972.110	779.167
126.366	23.474	970.529	776.420
127.381	23.146	968.972	773.670
128.395	23.568	969.208	775.635
129.410	24.249	969.022	778.394
130.424	24.490	968.239	778.748
131.439	24.478	967.251	777.831
132.454	24.360	966.277	776.467
133.468	24.411	965.314	775.843
134.483	24.513	964.016	775.175
135.497	24.407	964.060	774.681
136.512	24.641	963.612	775.268
137.527	24.773	962.469	774.855
138.541	24.545	962.218	773.593
139.556	24.765	961.178	773.644
140.570	24.744	960.074	772.595
141.585	24.616	960.066	771.966
142.600	24.699	959.029	771.424
143.614	24.717	958.071	770.662
144.629	24.629	957.595	769.831
145.643	24.919	956.862	770.423
146.658	24.807	955.830	769.040
147.673	24.652	954.371	767.133
148.687	24.576	953.038	765.671
149.702	24.502	951.577	764.110
150.716	24.198	951.456	762.644
151.731	24.293	950.341	762.092
152.746	24.454	949.350	761.916
153.760	24.645	948.963	762.353
154.775	24.792	948.324	762.398
155.789	24.933	947.267	762.083
156.804	24.821	946.142	760.633
157.819	24.700	945.464	759.506
158.833	24.773	944.471	758.949
159.848	24.903	944.058	759.104
160.862	24.958	942.982	758.403
161.877	24.858	942.085	757.193
162.892	24.555	941.740	755.567
163.906	24.877	940.467	755.838
164.921	24.840	939.765	755.052
165.935	24.695	938.548	753.395
166.950	24.764	937.563	752.828
167.964	24.809	936.466	752.072
168.979	24.595	935.510	750.336
169.994	24.677	934.535	749.834
171.008	24.471	933.607	748.161
172.023	24.569	933.073	748.076
173.037	24.936	932.011	748.692
174.052	24.664	931.082	746.742
175.067	24.484	930.089	745.128
176.081	24.491	929.198	744.381
177.096	24.403	928.588	743.457
178.110	24.585	927.886	743.589
179.125	24.290	926.890	741.497
180.140	24.173	925.418	739.768
181.154	24.206	925.097	739.582
182.169	24.285	925.005	739.773
183.183	24.414	924.275	739.656
184.198	24.710	924.186	740.745
185.213	24.728	923.153	739.930
186.227	24.569	922.640	738.793
187.242	24.835	921.764	739.128
188.256	24.831	921.490	738.826
189.271	24.713	920.673	737.619
190.286	24.963	919.738	737.835
191.300	24.714	919.135	736.257
192.315	24.200	917.699	732.929
193.329	23.406	916.420	728.582
194.344	23.106	914.978	726.139
195.359	23.617	915.161	728.319
196.373	24.500	915.557	732.191
197.388	24.621	915.544	732.612
198.402	24.650	914.563	731.881
199.417	24.656	913.968	731.366
200.432	24.805	913.364	731.427
201.446	24.485	912.755	729.565
202.461	24.121	912.440	727.760
203.475	24.321	911.673	727.901
204.490	23.838	910.147	724.653
205.504	22.757	908.152	718.601
206.519	23.023	908.006	719.502
207.534	23.996	908.489	723.782
208.548	24.233	907.817	724.144
209.563	24.522	907.696	725.157
210.577	24.543	906.611	724.314
211.592	24.409	905.882	723.122
212.607	24.766	905.967	724.572
213.621	24.846	905.635	724.567
214.636	24.887	904.597	723.840
215.650	24.807	903.909	722.901
216.665	24.706	903.550	722.144
217.680	24.831	903.146	722.259
218.694	24.967	902.583	722.296
219.709	24.570	901.870	720.061
220.723	24.313	900.497	717.866
221.738	24.426	899.966	717.834
222.753	24.597	900.028	718.508
223.767	24.639	898.872	717.688
224.782	24.714	898.458	717.597
225.796	24.931	897.523	717.655
226.811	25.013	897.186	717.650
227.826	24.486	896.271	714.746
228.840	23.822	894.325	710.477
229.855	23.654	893.845	709.363
230.869	23.986	893.520	710.370
231.884	23.726	892.490	708.450
232.899	23.725	891.934	707.941
233.913	24.546	891.998	711.201
234.928	24.728	891.729	711.647
235.942	24.557	891.206	710.488
236.957	24.525	890.664	709.864
237.972	24.259	889.638	707.928
238.986	24.152	888.875	706.832
240.001	24.205	888.437	706.633
241.015	24.232	887.889	706.241
242.030	24.472	887.167	706.555
243.045	24.674	886.659	706.888
244.059	24.566	886.411	706.200
245.074	24.740	885.770	706.312
246.088	24.823	884.992	705.958
247.103	24.368	883.961	703.281
248.117	24.381	883.512	702.913
249.132	24.954	883.394	705.012
250.147	25.202	883.505	706.015
251.161	25.379	882.989	706.234
252.176	25.506	882.386	706.189
253.190	25.530	882.057	705.960
254.205	25.461	881.567	705.232
255.220	25.768	880.713	705.689
256.234	25.692	880.242	704.952
257.249	25.631	879.292	703.890
258.263	25.382	878.767	702.436
259.278	25.372	878.515	702.134
260.293	25.546	877.857	702.223
261.307	25.615	877.261	701.954
262.322	25.544	876.641	701.120
263.336	25.393	876.006	699.959
264.351	24.867	874.718	696.821
265.366	23.948	872.078	691.087
266.380	23.263	871.736	688.098
267.395	24.175	872.060	691.834
268.409	25.051	872.276	695.346
269.424	25.071	871.552	694.786
270.439	25.038	871.311	694.401
271.453	25.313	870.438	694.708
272.468	25.281	869.935	694.122
273.482	25.500	869.891	694.872
274.497	25.614	868.922	694.480
275.512	25.450	868.148	693.164
276.526	24.850	867.104	689.956
277.541	25.118	866.456	690.412
278.555	25.511	866.047	691.538
279.570	25.202	865.724	690.029
280.585	25.075	864.865	688.796
281.599	25.058	864.554	688.423
282.614	25.284	863.793	688.626
283.628	24.889	862.684	686.164
284.643	24.396	862.017	683.686
285.657	24.927	862.116	685.737
286.672	24.754	861.300	684.366
287.687	24.331	860.303	681.894
288.701	24.631	860.348	683.016
289.716	25.129	859.615	684.276
290.730	24.697	858.983	682.066
291.745	24.485	858.817	681.066
292.760	24.297	857.695	679.400
293.774	24.263	856.790	678.492
294.789	25.233	857.505	682.689
295.803	25.836	857.723	685.098
296.818	25.812	857.203	684.532
297.833	25.939	856.662	684.521
298.847	25.660	855.261	682.284
299.862	25.491	854.167	680.709
300.876	25.553	853.799	680.591
301.891	25.696	853.888	681.144
302.906	25.845	853.217	681.110
303.920	25.603	851.721	678.944
304.935	25.444	851.357	677.995
305.949	25.669	851.419	678.831
306.964	25.801	850.890	678.847
307.979	25.590	850.041	677.316
308.993	25.635	849.401	676.916
310.008	25.988	849.307	678.107
311.022	26.093	848.867	678.090
312.037	25.789	848.351	676.477
313.052	25.610	847.611	675.156
314.066	25.524	846.450	673.849
315.081	24.911	845.224	670.516
316.095	24.095	843.832	666.300
317.110	24.621	844.541	668.772
318.125	25.507	844.808	672.239
319.139	25.013	843.734	669.478
320.154	24.014	841.641	664.035
321.168	23.473	840.753	661.257
322.183	24.182	841.096	664.113
323.197	25.107	841.560	667.868
324.212	25.389	841.272	668.630
325.227	25.504	840.817	668.636
326.241	25.582	840.812	668.865
327.256	25.462	839.667	667.450
328.270	25.482	839.035	666.961
329.285	25.420	838.313	666.100
330.300	25.316	837.760	665.215
331.314	24.944	837.185	663.323
332.329	25.073	836.423	663.135
333.343	25.355	836.130	663.887
334.358	25.721	835.885	664.987
335.373	25.674	835.442	664.403
336.387	25.823	834.793	664.379
337.402	25.906	834.544	664.428
338.416	26.048	834.193	664.613
339.431	26.240	833.217	664.483
340.446	26.080	833.273	663.877
341.460	26.374	832.383	664.192
342.475	26.406	831.708	663.712
343.489	26.151	831.166	662.283
344.504	25.997	830.648	661.248
345.519	26.348	830.288	662.189
346.533	26.462	830.026	662.340
347.548	26.640	829.443	662.467
348.562	26.472	829.264	661.651
349.577	26.407	828.466	660.719
350.592	26.605	827.757	660.817
351.606	26.446	827.356	659.858
352.621	26.525	826.861	659.694
353.635	26.275	826.392	658.351
354.650	26.290	825.643	657.751
355.665	26.013	824.553	655.814
356.679	25.071	823.047	651.140
357.694	24.803	822.479	649.661
358.708	25.484	822.565	652.142
359.723	25.318	822.340	651.302
360.738	25.519	821.640	651.419
361.752	26.106	821.943	653.730
362.767	26.139	821.454	653.404
363.781	26.396	821.268	654.125
364.796	26.657	821.275	655.019
365.810	26.884	820.514	655.174
366.825	26.818	820.140	654.580
367.840	27.050	819.697	655.003
368.854	26.799	819.276	653.704
369.869	26.279	818.593	651.229
370.883	26.041	817.628	649.547
371.898	26.233	817.395	649.993
372.913	26.196	816.381	648.996
373.927	26.136	816.031	648.447
374.942	26.305	815.401	648.497
375.956	26.434	814.936	648.530
376.971	26.576	814.403	648.558
377.986	26.585	813.832	648.079
379.000	26.758	813.387	648.285
380.015	26.962	812.905	648.571
381.029	26.607	812.414	646.855
382.044	26.572	811.507	645.952
383.059	26.801	811.073	646.364
384.073	26.748	810.803	645.904
385.088	26.734	810.350	645.437
386.102	26.930	809.534	645.427
387.117	26.584	809.131	643.818
388.132	26.615	808.247	643.167
389.146	26.415	807.850	642.086
390.161	25.860	806.818	639.240
391.175	25.894	806.340	638.925
392.190	26.519	806.269	641.025
393.205	26.523	805.907	640.694
394.219	25.700	803.999	636.214
395.234	23.854	801.971	628.037
396.248	23.018	801.146	624.384
397.263	24.243	801.486	628.921
398.278	25.954	803.202	636.254
399.292	26.450	802.829	637.652
400.307	26.192	802.174	636.168
401.321	26.112	801.903	635.613
402.336	26.028	801.643	635.057
403.350	26.363	801.546	636.101
404.365	26.837	801.497	637.672
405.380	27.163	800.888	638.277
406.394	27.466	801.018	639.387
407.409	27.596	800.524	639.394
408.423	27.532	800.177	638.836
409.438	27.362	799.697	637.799
410.453	27.401	799.234	637.510
411.467	27.513	798.440	637.215
412.482	27.632	797.827	637.081
413.496	27.409	797.509	635.993
414.511	27.528	797.190	636.100
415.526	27.729	796.822	636.450
416.540	27.532	796.428	635.392
417.555	27.658	795.871	635.330
418.569	27.149	795.206	632.972
419.584	27.264	794.691	632.906
420.599	27.257	794.094	632.350
421.613	106.836	1278.497	1438.747
422.628	91.863	1349.079	1438.862
