DTS Sentinel unit serial number:	SN413079Multiplexer serial number:	ORYXHardware model number:	OX4-SRSoftware version number:	ORYX F/W v4.00 Oryx Data Collector v3.7.2.0data status	okinstallation	princeton_trtdifferential loss correction	single-endedforward channel	channel 3reverse channel	N/Adate	2019/09/12time	15:58:10forward acquisition time	60.00reverse acquisition time	0.00gamma	496.2192k internal	0.2297k external	0.2297temperature offset calibration	1.0067default loss term (dB/km)	0.3790temperature slope calibration	1.0000multiplexer offset coefficient	1.0000multiplexer slope coefficient	1.0000fibre end	0.00T internal ref (°C)	39.14T ext. ref 1 (°C)	2.49T ext. ref 2 (°C)	32.11length (m)	temperature (°C)	Stokes	anti-Stokes-747.200	-29.358	-0.469	-0.274
-746.185	171.387	-0.260	0.380
-745.171	-200.000	0.025	0.309
-744.156	800.000	-0.029	-0.100
-743.142	-200.000	-0.031	0.263
-742.127	-200.000	-0.023	0.522
-741.112	11.825	0.255	0.200
-740.098	-155.103	-0.238	0.016
-739.083	-200.000	-0.037	0.186
-738.069	62.682	0.119	0.122
-737.054	481.996	0.067	0.155
-736.039	-200.000	-0.029	-0.147
-735.025	-75.462	-0.264	0.096
-734.010	800.000	-0.048	-0.171
-732.996	-28.975	-0.210	-0.123
-731.981	-101.842	0.222	0.055
-730.966	800.000	-0.013	0.038
-729.952	-81.627	-0.344	-0.115
-728.937	-35.061	0.083	0.046
-727.923	-132.148	0.247	-0.033
-726.908	-82.934	0.286	0.094
-725.894	251.110	-0.259	-0.449
-724.879	-73.108	-0.150	0.056
-723.864	149.256	-0.139	0.192
-722.850	106.929	0.288	0.349
-721.835	350.735	-0.122	-0.247
-720.821	-200.000	0.022	-0.289
-719.806	-14.530	0.165	-0.108
-718.791	-200.000	-0.008	0.125
-717.777	-71.935	-0.247	0.094
-716.762	193.748	0.076	0.118
-715.748	-36.553	-0.078	0.043
-714.733	-52.778	0.346	-0.163
-713.718	607.323	-0.070	0.179
-712.704	-106.397	0.200	0.046
-711.689	-46.138	0.167	0.084
-710.675	-200.000	0.035	0.533
-709.660	-105.994	0.170	-0.039
-708.645	-200.000	-0.061	-0.448
-707.631	33.823	-0.197	-0.175
-706.616	800.000	0.066	-0.198
-705.602	66.788	-0.146	-0.152
-704.587	276.019	0.095	0.172
-703.572	-111.443	-0.295	-0.061
-702.558	-23.600	0.122	0.074
-701.543	-134.365	-0.330	-0.041
-700.529	-11.195	0.098	0.066
-699.514	126.154	-0.046	-0.060
-698.499	800.000	-0.058	0.254
-697.485	-45.798	0.124	0.062
-696.470	-10.345	-0.228	-0.154
-695.456	800.000	-0.074	-0.217
-694.441	64.103	0.118	-0.121
-693.426	-95.457	-0.358	0.098
-692.412	635.336	-0.017	-0.045
-691.397	-34.893	0.212	-0.118
-690.383	56.673	0.160	-0.159
-689.368	218.667	0.088	0.143
-688.354	53.550	-0.054	-0.053
-687.339	-123.377	-0.190	0.031
-686.324	82.083	0.103	0.113
-685.310	-200.000	0.030	-0.315
-684.295	-34.479	-0.190	0.106
-683.281	-19.362	0.185	0.117
-682.266	-200.000	-0.053	-0.289
-681.251	-200.000	-0.002	-0.176
-680.237	-200.000	0.041	-0.309
-679.222	766.632	0.138	0.382
-678.208	-7.777	-0.230	-0.158
-677.193	-20.605	-0.366	0.229
-676.178	73.863	-0.205	0.219
-675.164	-200.000	-0.009	0.203
-674.149	800.000	-0.046	0.187
-673.135	-200.000	0.014	-0.185
-672.120	117.547	0.163	-0.204
-671.105	-35.056	-0.123	-0.068
-670.091	20.278	-0.051	0.042
-669.076	-143.698	-0.132	0.013
-668.062	800.000	0.055	0.219
-667.047	83.009	0.141	-0.156
-666.032	75.964	0.251	-0.271
-665.018	-91.372	-0.312	-0.091
-664.003	188.634	-0.105	-0.160
-662.989	157.475	-0.068	-0.096
-661.974	-200.000	-0.016	0.098
-660.959	9.970	-0.237	0.183
-659.945	466.659	-0.153	-0.349
-658.930	800.000	0.088	-0.319
-657.916	204.535	0.185	0.292
-656.901	-145.262	-0.217	-0.020
-655.886	800.000	0.057	-0.245
-654.872	-57.959	-0.125	0.056
-653.857	-200.000	-0.034	-0.252
-652.843	411.974	0.081	-0.175
-651.828	-28.233	-0.060	-0.035
-650.814	-85.467	0.060	0.019
-649.799	-200.000	0.072	-0.331
-648.784	-15.959	-0.279	-0.181
-647.770	-200.000	0.009	-0.176
-646.755	-97.000	-0.132	-0.035
-645.741	12.294	-0.196	0.154
-644.726	157.072	-0.097	0.137
-643.711	-17.410	-0.176	0.113
-642.697	-80.965	-0.425	-0.143
-641.682	-200.000	-0.027	-0.280
-640.668	-200.000	0.061	-0.401
-639.653	-109.712	0.198	-0.042
-638.638	229.249	0.212	-0.352
-637.624	-200.000	-0.023	-0.106
-636.609	21.805	-0.029	0.024
-635.595	800.000	0.029	-0.106
-634.580	-68.067	-0.118	0.047
-633.565	126.453	-0.286	-0.368
-632.551	-69.421	-0.110	-0.043
-631.536	307.958	0.060	0.113
-630.522	-153.987	-0.130	-0.009
-629.507	82.012	-0.182	-0.201
-628.492	-200.000	0.007	0.297
-627.478	263.568	-0.135	-0.239
-626.463	72.730	0.205	-0.218
-625.449	56.339	0.241	0.238
-624.434	-15.196	0.095	-0.062
-623.419	-12.735	0.171	0.113
-622.405	363.288	-0.033	0.068
-621.390	-59.261	0.331	-0.145
-620.376	-200.000	-0.010	0.067
-619.361	-161.401	-0.175	0.009
-618.346	-43.035	0.043	0.022
-617.332	-182.068	-0.070	-0.001
-616.317	19.377	-0.015	0.013
-615.303	-32.793	0.182	-0.103
-614.288	-30.727	-0.299	-0.172
-613.273	-200.000	0.080	-0.502
-612.259	32.106	0.238	0.209
-611.244	283.850	-0.041	0.075
-610.230	3.881	0.295	-0.219
-609.215	-200.000	-0.011	0.168
-608.201	66.704	0.202	0.209
-607.186	436.572	0.122	0.270
-606.171	233.737	-0.121	-0.203
-605.157	-200.000	-0.007	-0.067
-604.142	34.368	-0.219	-0.194
-603.128	-189.423	-0.125	0.001
-602.113	30.667	-0.141	-0.123
-601.098	-19.753	-0.002	0.001
-600.084	-75.922	-0.210	-0.075
-599.069	446.277	-0.105	0.233
-598.055	258.870	-0.125	-0.219
-597.040	-200.000	0.003	0.198
-596.025	-200.000	-0.093	0.000
-595.011	-116.744	-0.246	0.046
-593.996	304.928	0.256	0.482
-592.982	-141.886	-0.338	-0.034
-591.967	507.936	0.111	0.262
-590.952	800.000	-0.069	0.193
-589.938	-11.020	0.064	-0.043
-588.923	-46.832	0.101	-0.050
-587.909	800.000	-0.049	0.197
-586.894	800.000	-0.071	0.208
-585.879	-75.769	0.379	-0.136
-584.865	37.126	0.172	-0.155
-583.850	-122.963	-0.200	-0.033
-582.836	-200.000	-0.022	0.309
-581.821	-106.112	0.310	-0.071
-580.806	-113.378	0.098	-0.019
-579.792	-57.235	0.171	-0.076
-578.777	-25.038	-0.242	-0.146
-577.763	142.084	0.240	0.323
-576.748	-27.392	0.346	-0.204
-575.733	-182.001	0.237	-0.005
-574.719	240.788	-0.071	-0.120
-573.704	15.800	-0.345	-0.275
-572.690	86.524	0.119	0.133
-571.675	-200.000	-0.005	-0.194
-570.661	800.000	0.100	-0.302
-569.646	-200.000	-0.049	-0.306
-568.631	-200.000	-0.007	-0.201
-567.617	-200.000	-0.001	0.152
-566.602	-200.000	-0.066	0.309
-565.588	-33.740	-0.078	0.043
-564.573	800.000	-0.079	-0.229
-563.558	-160.372	-0.368	0.020
-562.544	305.280	-0.147	-0.278
-561.529	-37.907	0.164	-0.088
-560.515	-147.135	0.183	0.016
-559.500	518.935	-0.127	-0.302
-558.485	-17.140	-0.329	0.210
-557.471	-76.947	-0.041	0.015
-556.456	661.303	0.082	0.213
-555.442	358.678	0.131	0.265
-554.427	98.061	0.050	-0.058
-553.412	800.000	-0.073	-0.276
-552.398	447.156	0.086	-0.192
-551.383	800.000	0.030	-0.127
-550.369	56.418	-0.052	-0.051
-549.354	110.678	-0.143	-0.175
-548.339	800.000	0.114	-0.439
-547.325	294.822	-0.033	0.061
-546.310	74.658	0.095	0.101
-545.296	115.748	-0.354	-0.439
-544.281	-76.769	-0.191	0.068
-543.266	35.716	0.132	-0.118
-542.252	42.306	-0.257	-0.236
-541.237	386.891	0.080	0.167
-540.223	-200.000	0.024	0.252
-539.208	-104.032	0.322	0.076
-538.193	24.867	0.257	-0.216
-537.179	145.890	0.097	0.131
-536.164	303.765	-0.063	0.119
-535.150	5.296	0.266	-0.199
-534.135	84.842	0.195	-0.216
-533.121	-200.000	-0.078	0.641
-532.106	-110.653	-0.091	0.019
-531.091	-63.791	0.030	0.013
-530.077	2.793	0.241	-0.177
-529.062	207.034	-0.195	-0.308
-528.048	-61.894	-0.159	0.067
-527.033	-200.000	-0.078	0.358
-526.018	-0.454	0.008	-0.006
-525.004	-21.478	0.057	-0.035
-523.989	800.000	-0.045	0.166
-522.975	31.406	-0.053	0.046
-521.960	31.537	-0.268	-0.233
-520.945	800.000	-0.047	-0.154
-519.931	-83.108	-0.172	-0.056
-518.916	-200.000	0.004	0.220
-517.902	-200.000	0.034	0.340
-516.887	53.583	0.480	0.466
-515.872	-69.851	0.386	-0.149
-514.858	-129.560	-0.100	0.014
-513.843	59.800	-0.464	-0.464
-512.829	800.000	0.131	-0.387
-511.814	187.145	0.201	-0.303
-510.799	282.787	0.072	0.132
-509.785	800.000	-0.045	0.134
-508.770	-98.128	0.207	-0.054
-507.756	4.834	-0.237	-0.177
-506.741	-200.000	0.071	-0.418
-505.726	218.077	-0.178	-0.288
-504.712	-74.181	-0.289	0.106
-503.697	-200.000	0.007	-0.043
-502.683	185.856	0.058	0.088
-501.668	-86.054	0.336	0.105
-500.653	69.712	-0.162	-0.169
-499.639	186.964	-0.137	0.207
-498.624	-199.770	-0.354	0.002
-497.610	-86.085	-0.101	0.032
-496.595	800.000	-0.060	-0.253
-495.581	-200.000	-0.071	0.325
-494.566	238.417	-0.055	0.093
-493.551	-21.304	-0.187	0.116
-492.537	432.343	0.080	-0.175
-491.522	359.779	-0.108	-0.219
-490.508	-110.448	-0.135	0.028
-489.493	-146.006	0.144	-0.013
-488.478	800.000	-0.096	-0.343
-487.464	7.233	0.067	-0.051
-486.449	800.000	-0.038	-0.132
-485.435	390.419	0.097	0.203
-484.420	245.059	-0.059	-0.101
-483.405	-150.529	-0.232	0.018
-482.391	260.557	-0.052	-0.091
-481.376	-200.000	-0.019	0.187
-480.362	78.107	-0.155	0.167
-479.347	89.858	-0.220	0.248
-478.332	-13.067	-0.173	-0.114
-477.318	-121.198	0.064	-0.011
-476.303	626.390	0.039	-0.100
-475.289	172.372	-0.039	-0.057
-474.274	800.000	0.071	-0.291
-473.259	-45.353	-0.277	-0.139
-472.245	800.000	0.064	0.184
-471.230	142.115	-0.112	-0.150
-470.216	-72.140	-0.418	-0.157
-469.201	31.955	-0.045	0.039
-468.186	762.934	-0.045	-0.122
-467.172	282.363	-0.022	-0.039
-466.157	33.633	-0.209	0.184
-465.143	194.530	0.085	-0.130
-464.128	-200.000	0.024	-0.172
-463.113	-83.610	0.234	0.076
-462.099	-66.125	-0.114	0.046
-461.084	148.572	0.132	0.180
-460.070	800.000	-0.030	0.093
-459.055	515.940	0.027	0.064
-458.040	-76.382	0.072	0.026
-457.026	-158.945	0.096	0.005
-456.011	-10.749	-0.019	-0.012
-454.997	49.526	-0.120	0.114
-453.982	-102.557	0.122	-0.029
-452.968	29.157	0.243	-0.209
-451.953	158.794	-0.213	-0.299
-450.938	399.474	0.133	0.281
-449.924	-200.000	0.036	0.293
-448.909	-200.000	0.013	-0.322
-447.895	8.681	0.090	-0.069
-446.880	-150.017	0.196	-0.015
-445.865	363.316	0.165	0.334
-444.851	-150.868	-0.211	0.016
-443.836	-113.332	-0.113	-0.022
-442.822	85.326	-0.071	0.079
-441.807	181.923	-0.057	-0.085
-440.792	-94.625	0.311	-0.085
-439.778	110.505	-0.102	0.124
-438.763	-43.269	0.302	0.154
-437.749	800.000	0.083	0.251
-436.734	-200.000	-0.060	0.307
-435.719	-155.822	0.200	-0.013
-434.705	274.110	0.183	-0.327
-433.690	-91.518	-0.242	0.070
-432.676	800.000	-0.102	0.321
-431.661	14.382	-0.086	-0.068
-430.646	-125.110	0.126	-0.020
-429.632	-133.846	0.062	-0.008
-428.617	138.025	-0.270	0.357
-427.603	800.000	0.137	0.395
-426.588	-36.674	-0.106	0.057
-425.573	-200.000	-0.017	-0.133
-424.559	-200.000	0.038	0.193
-423.544	-14.882	0.201	0.130
-422.530	-143.069	0.291	-0.028
-421.515	97.679	0.320	-0.371
-420.500	-200.000	0.019	-0.127
-419.486	-200.000	-0.014	0.204
-418.471	136.051	-0.078	-0.102
-417.457	-100.600	-0.243	0.061
-416.442	-200.000	-0.028	-0.207
-415.428	-200.000	0.042	-0.280
-414.413	-30.367	0.142	-0.081
-413.398	-84.489	-0.213	0.068
-412.384	309.986	0.215	-0.406
-411.369	-165.874	0.229	-0.010
-410.355	-23.077	0.094	0.057
-409.340	37.240	0.364	0.325
-408.325	-200.000	-0.008	0.168
-407.311	78.559	-0.087	-0.094
-406.296	632.118	-0.105	0.268
-405.282	-8.477	0.054	0.037
-404.267	94.163	0.074	0.084
-403.252	-98.640	0.107	0.028
-402.238	-200.000	0.005	-0.370
-401.223	-124.338	0.296	-0.047
-400.209	11.390	0.171	-0.132
-399.194	-200.000	-0.015	0.173
-398.179	109.073	0.249	0.300
-397.165	33.781	0.185	0.162
-396.150	47.560	-0.172	-0.161
-395.136	383.512	0.033	0.068
-394.121	76.629	-0.197	-0.211
-393.106	82.821	-0.065	-0.071
-392.092	-116.974	-0.427	0.079
-391.077	-200.000	-0.130	0.000
-390.063	20.839	-0.223	-0.182
-389.048	-128.055	0.173	0.025
-388.033	100.350	-0.036	0.042
-387.019	-200.000	-0.006	-0.590
-386.004	-172.227	0.280	-0.009
-384.990	-200.000	0.025	0.235
-383.975	-200.000	0.024	-0.164
-382.960	800.000	0.104	0.440
-381.946	-46.140	-0.351	-0.174
-380.931	218.095	0.088	-0.142
-379.917	29.195	0.193	-0.165
-378.902	-142.863	-0.191	-0.019
-377.888	428.655	-0.120	0.261
-376.873	-200.000	-0.068	-0.453
-375.858	-11.726	-0.259	0.171
-374.844	-200.000	0.065	0.294
-373.829	37.774	0.186	0.166
-372.815	-51.708	-0.182	-0.085
-371.800	-200.000	-0.070	-0.348
-370.785	16.585	-0.019	-0.015
-369.771	40.988	0.162	-0.147
-368.756	157.174	-0.155	-0.216
-367.742	189.151	-0.036	0.055
-366.727	-200.000	0.045	0.209
-365.712	-118.746	0.038	-0.007
-364.698	800.000	0.088	0.249
-363.683	40.559	-0.148	-0.134
-362.669	-130.507	-0.118	-0.016
-361.654	279.159	0.102	-0.184
-360.639	81.221	-0.099	0.108
-359.625	138.913	0.205	0.271
-358.610	639.594	-0.082	0.210
-357.596	62.771	0.175	-0.176
-356.581	103.372	0.046	-0.055
-355.566	800.000	-0.018	-0.077
-354.552	-52.186	0.084	-0.039
-353.537	800.000	-0.028	-0.080
-352.523	437.160	0.101	0.221
-351.508	-103.640	-0.297	0.070
-350.493	-54.394	0.397	0.181
-349.479	-83.687	-0.121	-0.039
-348.464	-200.000	-0.006	-0.037
-347.450	-103.493	0.139	-0.033
-346.435	117.935	-0.105	-0.130
-345.420	9.801	-0.321	0.245
-344.406	-199.393	0.190	-0.001
-343.391	-113.372	-0.089	0.018
-342.377	-100.450	-0.254	-0.063
-341.362	66.924	-0.199	-0.204
-340.348	238.156	0.117	0.196
-339.333	800.000	-0.005	0.016
-338.318	104.110	0.198	-0.234
-337.304	652.550	0.089	0.230
-336.289	238.530	-0.224	0.374
-335.275	-200.000	-0.047	-0.240
-334.260	10.241	0.029	0.022
-333.245	39.082	0.364	-0.327
-332.231	780.088	0.033	0.092
-331.216	31.120	0.233	0.201
-330.202	66.110	-0.239	0.244
-329.187	-40.338	0.325	0.170
-328.172	83.782	-0.185	0.202
-327.158	-155.739	0.332	0.021
-326.143	363.564	0.063	0.127
-325.129	-200.000	-0.035	0.242
-324.114	72.480	-0.233	-0.244
-323.099	10.745	-0.256	-0.196
-322.085	148.045	-0.193	0.261
-321.070	-87.163	-0.101	0.031
-320.056	-116.781	0.189	0.035
-319.041	800.000	0.071	0.312
-318.026	-89.649	-0.460	0.136
-317.012	-200.000	0.034	0.400
-315.997	-200.000	-0.080	0.411
-314.983	-55.700	0.213	-0.096
-313.968	208.926	0.035	0.055
-312.953	-200.000	-0.024	0.286
-311.939	77.026	0.017	0.018
-310.924	29.061	-0.143	0.122
-309.910	-184.673	0.306	0.005
-308.895	800.000	0.050	-0.156
-307.880	149.881	-0.052	0.070
-306.866	-200.000	0.029	-0.210
-305.851	-114.408	0.367	-0.071
-304.837	-200.000	0.018	0.186
-303.822	5.712	0.144	-0.107
-302.807	47.495	0.115	0.108
-301.793	-200.000	0.023	0.245
-300.778	-64.995	-0.333	0.135
-299.764	-69.065	0.225	0.087
-298.749	-200.000	0.028	0.298
-297.735	-83.000	0.089	0.029
-296.720	800.000	-0.085	0.292
-295.705	-7.517	0.184	0.125
-294.691	-200.000	-0.000	-0.253
-293.676	-100.948	-0.107	-0.026
-292.662	523.069	0.071	0.167
-291.647	-43.965	-0.308	-0.155
-290.632	-124.637	0.140	-0.022
-289.618	2.314	0.010	-0.007
-288.603	-70.698	0.146	0.055
-287.589	-55.552	-0.057	-0.026
-286.574	60.406	0.203	-0.202
-285.559	-21.499	-0.230	0.140
-284.545	-200.000	-0.027	-0.231
-283.530	471.988	-0.162	-0.365
-282.516	-17.979	0.098	-0.062
-281.501	41.241	0.066	-0.060
-280.486	83.018	-0.104	-0.114
-279.472	-200.000	-0.041	0.297
-278.457	156.830	0.022	-0.031
-277.443	-200.000	-0.002	-0.276
-276.428	91.888	-0.070	-0.079
-275.413	134.362	-0.107	-0.140
-274.399	-107.322	-0.298	0.066
-273.384	-67.899	0.334	-0.131
-272.370	-12.253	-0.159	0.104
-271.355	574.650	-0.024	0.060
-270.340	203.424	-0.139	0.215
-269.326	-163.768	-0.196	0.009
-268.311	39.220	0.155	0.139
-267.297	62.145	-0.112	0.112
-266.282	431.577	-0.043	-0.093
-265.267	-68.992	-0.120	-0.046
-264.253	733.288	-0.083	0.223
-263.238	-61.475	-0.268	0.113
-262.224	-200.000	-0.011	0.278
-261.209	800.000	-0.056	0.170
-260.195	-36.982	0.293	0.157
-259.180	764.775	0.127	0.345
-258.165	-146.263	-0.167	0.015
-257.151	-152.582	0.272	0.019
-256.136	-120.770	0.053	0.009
-255.122	14.045	0.269	-0.210
-254.107	-200.000	-0.026	-0.391
-253.092	207.611	-0.126	-0.197
-252.078	-52.226	-0.223	0.104
-251.063	-114.079	0.038	-0.007
-250.049	-45.645	-0.169	-0.084
-249.034	-70.718	-0.166	0.063
-248.019	-102.584	0.375	-0.090
-247.005	-101.166	0.236	-0.058
-245.990	-149.201	0.378	-0.030
-244.976	140.039	-0.078	-0.103
-243.961	8.754	-0.194	-0.146
-242.946	800.000	-0.042	-0.145
-241.932	-200.000	0.018	-0.169
-240.917	719.973	0.044	-0.117
-239.903	-85.951	0.123	0.038
-238.888	272.376	-0.061	0.107
-237.873	-74.496	0.223	-0.081
-236.859	610.342	0.088	0.219
-235.844	-69.682	0.125	-0.048
-234.830	463.623	0.124	0.278
-233.815	800.000	-0.109	0.354
-232.800	-200.000	0.061	-0.330
-231.786	-200.000	-0.003	0.127
-230.771	800.000	-0.116	0.378
-229.757	-59.278	-0.501	0.216
-228.742	800.000	0.025	0.094
-227.727	64.243	-0.236	-0.238
-226.713	10.515	0.034	-0.026
-225.698	-8.493	-0.109	-0.073
-224.684	-124.132	0.122	0.019
-223.669	-160.004	0.095	-0.005
-222.655	-101.930	0.452	-0.109
-221.640	-113.009	0.170	-0.034
-220.625	353.734	0.091	-0.181
-219.611	48.427	-0.289	-0.271
-218.596	105.976	-0.190	-0.224
-217.582	5.665	0.176	0.130
-216.567	-200.000	-0.029	-0.187
-215.552	139.721	0.036	0.047
-214.538	271.330	0.089	0.157
-213.523	442.011	0.072	0.158
-212.509	-28.448	-0.125	-0.072
-211.494	288.286	-0.149	-0.270
-210.479	-81.997	0.308	0.101
-209.465	-50.130	0.131	-0.062
-208.450	-79.045	0.114	0.039
-207.436	-53.539	-0.241	-0.110
-206.421	-5.470	-0.282	0.193
-205.406	77.886	-0.218	-0.233
-204.392	-200.000	-0.016	-0.171
-203.377	243.982	-0.057	0.096
-202.363	-104.440	0.088	-0.020
-201.348	111.342	0.122	-0.147
-200.333	-143.138	-0.106	-0.010
-199.319	-200.000	-0.064	0.360
-198.304	-200.000	-0.014	0.095
-197.290	-4.452	-0.283	0.196
-196.275	132.714	0.130	0.168
-195.260	-111.807	0.167	0.034
-194.246	-17.749	-0.148	-0.093
-193.231	-200.000	0.021	0.108
-192.217	618.927	-0.072	-0.181
-191.202	87.928	-0.080	0.088
-190.187	63.854	0.059	0.059
-189.173	-105.553	-0.172	0.039
-188.158	-116.303	0.275	-0.051
-187.144	39.884	0.079	-0.071
-186.129	83.240	0.249	0.271
-185.114	112.527	0.153	0.185
-184.100	-161.795	0.096	-0.005
-183.085	-200.000	-0.062	0.495
-182.071	800.000	-0.050	-0.203
-181.056	-129.894	-0.299	0.041
-180.042	800.000	0.062	0.179
-179.027	-38.937	0.348	0.183
-178.012	159.580	0.182	0.253
-176.998	-116.553	-0.125	-0.023
-175.983	-66.050	-0.044	-0.017
-174.969	-14.361	0.554	-0.357
-173.954	36.662	-0.253	-0.223
-172.939	423.566	-0.076	0.162
-171.925	127.961	-0.172	0.218
-170.910	-200.000	-0.027	0.188
-169.896	17.959	-0.101	-0.080
-168.881	-200.000	0.008	0.082
-167.866	-11.684	-0.238	-0.156
-166.852	151.921	0.233	0.318
-165.837	89.533	0.028	-0.031
-164.823	-4.689	-0.182	-0.125
-163.808	-200.000	-0.059	-0.259
-162.793	222.614	0.111	-0.179
-161.779	695.139	0.060	-0.158
-160.764	638.098	-0.105	0.265
-159.750	-200.000	0.004	0.071
-158.735	126.983	0.227	-0.287
-157.720	13.050	0.124	-0.095
-156.706	-132.610	0.294	0.038
-155.691	138.668	0.109	0.143
-154.677	34.664	-0.073	-0.064
-153.662	-56.321	-0.166	0.074
-152.647	152.227	0.211	0.287
-151.633	19.255	0.128	-0.103
-150.618	-200.000	-0.008	-0.199
-149.604	57.218	-0.249	-0.243
-148.589	-89.738	-0.156	-0.046
-147.574	238.957	-0.062	-0.102
-146.560	-64.204	-0.084	-0.034
-145.545	-78.164	-0.298	0.102
-144.531	94.869	0.138	0.156
-143.516	-27.196	0.278	-0.161
-142.502	-22.632	-0.289	0.174
-141.487	-122.913	-0.158	-0.025
-140.472	800.000	0.102	-0.290
-139.458	-99.252	-0.051	0.013
-138.443	432.382	0.246	0.531
-137.429	800.000	0.105	0.326
-136.414	-43.030	-0.296	0.150
-135.399	196.192	-0.072	0.109
-134.385	-170.001	0.171	0.006
-133.370	16.963	-0.220	0.173
-132.356	-125.716	0.394	0.059
-131.341	209.806	-0.160	0.251
-130.326	-200.000	0.037	0.269
-129.312	52.329	0.210	0.199
-128.297	23.654	0.298	-0.244
-127.283	-32.494	0.191	0.106
-126.268	-200.000	-0.029	0.161
-125.253	268.461	0.178	0.311
-124.239	-200.000	0.042	0.274
-123.224	800.000	0.039	0.140
-122.210	345.962	-0.201	0.394
-121.195	560.222	0.082	0.197
-120.180	3.564	0.187	0.136
-119.166	-88.329	-0.418	-0.124
-118.151	-142.665	0.192	0.019
-117.137	-200.000	-0.012	0.529
-116.122	-85.015	0.110	-0.034
-115.107	-200.000	0.041	0.185
-114.093	800.000	-0.081	0.227
-113.078	-200.000	0.008	0.139
-112.064	-132.025	-0.414	0.054
-111.049	204.419	0.144	0.222
-110.034	-200.000	0.009	-0.157
-109.020	-5.813	0.314	0.214
-108.005	-200.000	0.021	-0.315
-106.991	-121.444	0.183	0.030
-105.976	-57.188	-0.178	-0.078
-104.962	800.000	-0.133	0.431
-103.947	-120.462	-0.202	-0.034
-102.932	346.785	-0.028	0.055
-101.918	-31.866	0.246	0.137
-100.903	-79.358	0.245	-0.083
-99.889	-58.272	-0.302	-0.131
-98.874	800.000	0.050	0.216
-97.859	-200.000	-0.043	0.298
-96.845	-131.133	-0.226	-0.030
-95.830	-24.522	0.312	0.185
-94.816	-115.217	0.251	-0.047
-93.801	-23.450	0.316	0.189
-92.786	-181.619	0.240	0.005
-91.772	-121.593	-0.205	0.034
-90.757	589.272	-0.163	-0.400
-89.743	-4.178	-0.194	-0.134
-88.728	83.165	-0.130	0.140
-87.713	-147.116	0.110	0.009
-86.699	800.000	0.091	0.274
-85.684	-38.281	0.477	0.252
-84.670	-100.465	0.331	-0.082
-83.655	-200.000	-0.043	0.294
-82.640	77.553	-0.115	0.121
-81.626	120.892	-0.208	0.257
-80.611	19.384	-0.175	0.140
-79.597	214.187	0.099	-0.155
-78.582	-4.864	-0.093	0.064
-77.567	800.000	-0.061	0.213
-76.553	484.981	-0.095	0.214
-75.538	-200.000	-0.005	-0.035
-74.524	21.975	-0.206	-0.167
-73.509	-200.000	0.043	-0.257
-72.494	567.609	0.044	-0.107
-71.480	-19.998	-0.053	-0.032
-70.465	285.813	0.111	0.200
-69.451	-153.923	-0.234	-0.016
-68.436	81.236	-0.244	-0.262
-67.422	-59.307	-0.097	-0.042
-66.407	800.000	-0.022	0.088
-65.392	-200.000	-0.036	0.169
-64.378	-77.431	-0.112	-0.039
-63.363	-81.812	-0.118	0.038
-62.349	-200.000	-0.019	0.425
-61.334	21.948	-0.740	-0.600
-60.319	26.315	0.320	0.266
-59.305	91.700	-0.533	-0.596
-58.290	199.402	0.512	0.780
-57.276	800.000	0.608	2.178
-56.261	-200.000	84.181	514.192
-55.246	502.884	1357.626	3119.629
-54.232	149.063	2569.506	3454.922
-53.217	112.436	2231.308	2683.155
-52.203	48.745	1767.443	1647.512
-51.188	42.155	1575.557	1422.025
-50.173	39.698	1547.888	1379.833
-49.159	55.533	1590.738	1530.581
-48.144	60.250	1610.921	1583.400
-47.130	42.703	1570.535	1421.144
-46.115	39.399	1555.550	1384.342
-45.100	39.305	1552.143	1380.600
-44.086	39.203	1549.893	1377.823
-43.071	39.038	1548.264	1375.166
-42.057	39.129	1546.108	1373.834
-41.042	38.989	1544.971	1371.792
-40.027	39.092	1543.638	1371.274
-39.013	38.990	1542.109	1369.152
-37.998	39.139	1540.469	1368.678
-36.984	39.005	1539.710	1367.014
-35.969	39.092	1538.147	1366.176
-34.954	39.110	1536.863	1365.106
-33.940	39.101	1535.641	1363.905
-32.925	39.200	1533.768	1362.877
-31.911	39.209	1532.544	1361.796
-30.896	39.231	1531.135	1360.641
-29.881	39.253	1529.763	1359.523
-28.867	39.172	1528.367	1357.666
-27.852	39.190	1526.883	1356.415
-26.838	39.228	1525.526	1355.419
-25.823	39.239	1523.930	1354.024
-24.809	39.227	1522.168	1352.322
-23.794	39.158	1520.977	1350.736
-22.779	39.124	1519.736	1349.352
-21.765	39.210	1518.740	1348.997
-20.750	39.143	1517.812	1347.665
-19.736	39.222	1515.753	1346.324
-18.721	39.098	1515.356	1345.071
-17.706	39.204	1513.926	1344.472
-16.692	39.155	1512.684	1342.979
-15.677	39.141	1511.570	1341.843
-14.663	39.124	1511.104	1341.261
-13.648	39.033	1509.956	1339.566
-12.633	39.086	1509.046	1339.066
-11.619	39.170	1507.846	1338.516
-10.604	39.124	1506.734	1337.164
-9.590	39.126	1505.691	1336.202
-8.575	39.235	1504.746	1336.053
-7.560	39.162	1504.196	1335.014
-6.546	39.076	1503.250	1333.538
-5.531	39.058	1502.444	1332.643
-4.517	38.984	1501.675	1331.409
-3.502	39.053	1500.690	1330.950
-2.487	39.099	1499.135	1329.831
-1.473	39.110	1497.797	1328.668
-0.458	39.032	1497.480	1327.803
0.556	39.439	1487.073	1314.501
1.571	35.563	1457.916	1263.183
2.586	30.888	1393.114	1177.467
3.600	28.626	1308.123	1092.093
4.615	26.881	1259.460	1041.369
5.629	22.633	1200.420	969.165
6.644	12.114	1110.686	842.852
7.659	4.034	1065.648	768.625
8.673	2.727	1059.766	757.859
9.688	2.610	1056.255	754.702
10.702	2.320	1055.086	752.373
11.717	2.324	1053.410	751.135
12.731	5.810	1057.058	770.826
13.746	16.064	1071.976	832.517
14.761	24.136	1082.927	881.051
15.775	25.849	1084.034	890.346
16.790	26.035	1083.862	891.044
17.804	25.866	1082.896	889.340
18.819	25.868	1082.298	888.782
19.834	25.886	1081.382	888.037
20.848	25.891	1081.190	887.825
21.863	26.048	1080.852	888.241
22.877	25.887	1080.340	886.953
23.892	25.839	1079.817	886.208
24.907	25.771	1078.983	885.110
25.921	25.865	1078.235	884.880
26.936	25.871	1077.629	884.335
27.950	25.832	1076.115	882.825
28.965	25.918	1074.843	882.123
29.980	25.694	1073.924	880.193
30.994	25.659	1072.387	878.688
32.009	25.958	1071.901	879.667
33.023	25.967	1071.190	879.050
34.038	25.887	1069.902	877.528
35.053	25.818	1069.017	876.385
36.067	25.777	1068.745	875.888
37.082	25.984	1067.420	875.728
38.096	25.933	1067.112	875.151
39.111	26.048	1066.377	875.028
40.126	26.351	1065.499	875.699
41.140	26.100	1064.336	873.450
42.155	25.950	1062.304	870.985
43.169	25.515	1061.531	868.173
44.184	25.567	1060.073	867.154
45.199	25.558	1059.772	866.786
46.213	25.441	1059.008	865.523
47.228	25.467	1057.741	864.534
48.242	25.733	1057.130	865.237
49.257	25.786	1056.421	864.834
50.271	25.789	1055.593	864.095
51.286	25.858	1055.145	863.983
52.301	26.046	1054.039	863.901
53.315	26.002	1053.322	863.026
54.330	25.994	1052.633	862.347
55.344	25.912	1051.697	861.113
56.359	25.829	1051.028	860.089
57.374	25.808	1050.341	859.353
58.388	25.666	1050.043	858.354
59.403	25.669	1048.715	857.211
60.417	25.638	1047.966	856.376
61.432	25.531	1047.378	855.306
62.447	25.514	1046.305	854.273
63.461	25.708	1045.911	854.798
64.476	25.652	1045.541	854.157
65.490	25.634	1044.189	852.888
66.505	25.538	1043.562	851.850
67.520	25.495	1042.777	850.929
68.534	25.696	1041.698	850.922
69.549	25.596	1040.742	849.595
70.563	25.099	1040.013	846.578
71.578	25.228	1038.413	845.807
72.593	25.137	1038.277	845.191
73.607	24.932	1037.007	843.119
74.622	25.029	1035.865	842.572
75.636	25.342	1035.455	843.639
76.651	25.597	1034.534	844.010
77.666	25.318	1033.873	842.086
78.680	25.277	1033.052	841.149
79.695	25.256	1032.501	840.527
80.709	25.325	1031.922	840.306
81.724	25.409	1031.420	840.217
82.739	25.403	1030.175	839.097
83.753	25.387	1029.645	838.518
84.768	25.782	1028.583	839.422
85.782	26.232	1028.440	841.329
86.797	26.236	1027.690	840.657
87.812	26.242	1026.999	840.045
88.826	26.160	1025.942	838.726
89.841	26.006	1025.188	837.322
90.855	26.148	1024.637	837.457
91.870	26.088	1023.866	836.471
92.884	26.206	1022.839	836.108
93.899	26.000	1021.909	834.317
94.914	25.934	1020.450	832.750
95.928	26.046	1020.105	832.910
96.943	26.085	1019.585	832.594
97.957	25.818	1018.364	830.291
98.972	25.666	1017.359	828.697
99.987	25.387	1016.028	826.258
101.001	25.617	1015.142	826.520
102.016	25.856	1015.228	827.618
103.030	25.951	1014.197	827.136
104.045	25.923	1013.011	825.968
105.060	25.709	1011.805	823.934
106.074	25.578	1010.591	822.272
107.089	25.583	1010.040	821.775
108.103	25.800	1010.263	822.876
109.118	25.836	1009.267	822.154
110.133	25.660	1008.138	820.360
111.147	25.537	1007.067	818.858
112.162	25.483	1005.788	817.500
113.176	25.310	1004.556	815.638
114.191	25.456	1003.680	815.519
115.206	25.570	1003.272	815.631
116.220	25.120	1002.697	813.050
117.235	25.147	1001.155	811.851
118.249	25.255	1000.935	812.090
119.264	25.403	999.917	811.864
120.279	25.139	999.024	809.871
121.293	25.184	998.187	809.327
122.308	25.339	997.363	809.284
123.322	25.338	996.535	808.535
124.337	25.235	995.596	807.241
125.352	25.323	994.198	806.428
126.366	24.784	992.535	802.592
127.381	24.394	991.744	800.134
128.395	24.909	991.250	801.970
129.410	25.575	991.087	804.748
130.424	25.787	990.157	804.870
131.439	25.735	989.308	803.878
132.454	25.741	988.271	802.993
133.468	25.986	987.208	803.147
134.483	25.806	986.316	801.550
135.497	25.710	986.447	801.160
136.512	26.032	985.952	802.118
137.527	26.120	985.028	801.686
138.541	26.050	984.327	800.733
139.556	26.003	983.964	800.159
140.570	26.122	982.962	799.800
141.585	26.122	982.014	798.960
142.600	26.180	980.816	798.170
143.614	26.013	980.309	796.946
144.629	26.240	979.538	797.250
145.643	26.490	978.824	797.703
146.658	26.319	977.609	795.889
147.673	26.098	976.781	794.172
148.687	25.896	975.620	792.272
149.702	25.955	974.034	791.173
150.716	25.841	973.108	789.850
151.731	25.747	972.248	788.670
152.746	25.707	971.877	788.123
153.760	25.939	971.074	788.417
154.775	26.024	970.801	788.497
155.789	26.295	969.443	788.507
156.804	26.236	968.609	787.502
157.819	26.085	968.191	786.436
158.833	26.068	967.213	785.496
159.848	26.305	965.846	785.349
160.862	26.344	965.713	785.341
161.877	26.363	964.451	784.326
162.892	26.071	964.126	782.724
163.906	26.325	962.416	782.369
164.921	26.121	961.620	780.770
165.935	25.961	960.901	779.424
166.950	26.100	959.937	779.174
167.964	26.204	958.805	778.635
168.979	26.291	957.743	778.077
169.994	26.031	956.396	775.796
171.008	25.987	955.691	774.966
172.023	26.127	955.022	774.956
173.037	26.212	954.310	774.675
174.052	26.068	953.516	773.344
175.067	25.801	952.409	771.237
176.081	25.843	951.671	770.748
177.096	25.929	950.719	770.277
178.110	25.913	949.755	769.359
179.125	25.813	948.845	768.130
180.140	25.537	947.456	765.760
181.154	25.564	946.976	765.420
182.169	25.665	946.537	765.428
183.183	25.835	946.416	765.984
184.198	26.111	945.904	766.677
185.213	26.133	945.253	766.175
186.227	26.033	944.579	765.135
187.242	25.989	944.709	764.985
188.256	26.183	943.801	765.006
189.271	26.037	942.905	763.595
190.286	26.262	941.998	763.741
191.300	26.192	941.047	762.607
192.315	25.465	939.806	758.469
193.329	24.763	938.309	754.236
194.344	24.223	937.322	751.098
195.359	24.886	937.638	754.078
196.373	25.843	937.931	758.280
197.388	26.097	937.513	758.942
198.402	26.103	937.052	758.528
199.417	26.069	936.448	757.829
200.432	26.045	935.852	757.179
201.446	26.051	934.932	756.392
202.461	25.747	934.089	754.369
203.475	25.783	933.564	754.028
204.490	25.312	932.385	751.042
205.504	24.183	930.404	744.662
206.519	24.472	930.247	745.678
207.534	25.403	930.472	749.682
208.548	25.665	929.902	750.248
209.563	26.013	929.649	751.427
210.577	26.098	929.132	751.295
211.592	25.551	928.303	748.285
212.607	26.035	928.632	750.495
213.621	26.328	927.891	751.050
214.636	26.208	927.336	750.036
215.650	26.209	926.383	749.203
216.665	26.076	926.014	748.287
217.680	26.307	925.352	748.640
218.694	26.200	925.329	748.115
219.709	25.981	923.997	746.063
220.723	25.635	922.869	743.656
221.738	25.702	922.803	743.816
222.753	26.103	921.790	744.587
223.767	26.016	921.127	743.630
224.782	25.972	920.466	742.848
225.796	26.105	920.103	743.035
226.811	26.340	919.645	743.568
227.826	25.999	918.388	741.084
228.840	25.170	916.930	736.438
229.855	25.095	916.170	735.458
230.869	25.242	916.091	735.930
231.884	25.021	914.617	733.778
232.899	25.133	914.243	733.869
233.913	25.803	915.042	737.191
234.928	25.991	914.125	737.154
235.942	25.911	913.346	736.133
236.957	25.933	912.735	735.668
237.972	25.705	911.455	733.639
238.986	25.437	911.376	732.422
240.001	25.617	910.602	732.465
241.015	25.783	909.851	732.473
242.030	25.739	909.126	731.644
243.045	25.824	909.001	731.825
244.059	26.026	908.245	731.971
245.074	26.205	908.044	732.471
246.088	26.123	907.204	731.396
247.103	25.788	906.138	729.118
248.117	25.772	905.523	728.490
249.132	26.298	905.224	730.313
250.147	26.700	905.341	731.968
251.161	26.664	905.261	731.693
252.176	26.897	904.577	732.014
253.190	26.909	903.893	731.445
254.205	26.853	903.389	730.747
255.220	27.128	903.262	731.688
256.234	27.038	902.199	730.401
257.249	27.094	901.633	730.101
258.263	26.770	901.447	728.586
259.278	26.828	900.401	727.910
260.293	26.917	899.847	727.751
261.307	26.974	899.257	727.441
262.322	26.931	898.728	726.776
263.336	26.867	897.786	725.692
264.351	26.394	896.676	722.841
265.366	25.251	894.791	716.695
266.380	24.678	893.932	713.659
267.395	25.647	894.515	717.927
268.409	26.561	894.128	721.197
269.424	26.480	893.829	720.570
270.439	26.572	893.352	720.488
271.453	26.708	892.644	720.395
272.468	26.727	891.921	719.820
273.482	26.923	891.426	720.136
274.497	26.932	891.138	719.875
275.512	26.920	890.031	718.870
276.526	26.309	888.752	715.355
277.541	26.438	888.478	715.582
278.555	26.805	888.194	716.742
279.570	26.587	887.425	715.198
280.585	26.296	886.826	713.501
281.599	26.444	886.304	713.605
282.614	26.601	886.142	714.030
283.628	26.088	884.937	710.974
284.643	25.791	883.826	708.848
285.657	26.201	883.847	710.417
286.672	26.152	882.984	709.468
287.687	25.722	881.999	706.925
288.701	25.882	882.064	707.543
289.716	26.480	881.471	709.351
290.730	25.910	880.590	706.346
291.745	25.908	880.166	705.935
292.760	25.676	879.430	704.374
293.774	25.618	878.315	703.192
294.789	26.448	879.132	707.031
295.803	27.243	879.185	710.115
296.818	27.292	878.559	709.739
297.833	27.347	878.200	709.599
298.847	27.058	876.799	707.281
299.862	26.577	876.041	704.733
300.876	26.964	875.567	705.796
301.891	27.316	875.282	706.872
302.906	27.190	874.771	705.906
303.920	27.040	873.163	703.967
304.935	26.753	873.047	702.695
305.949	27.054	872.821	703.617
306.964	27.150	872.524	703.687
307.979	27.035	871.467	702.331
308.993	26.913	871.045	701.458
310.008	27.118	871.028	702.171
311.022	27.351	870.424	702.524
312.037	27.213	869.695	701.339
313.052	27.044	868.852	699.947
314.066	26.928	868.030	698.778
315.081	26.194	866.768	694.875
316.095	25.360	865.728	690.772
317.110	25.958	866.195	693.387
318.125	26.708	866.379	696.355
319.139	26.428	864.872	694.006
320.154	25.377	863.072	688.475
321.168	24.803	862.046	685.398
322.183	25.535	862.467	688.477
323.197	26.293	863.298	691.982
324.212	26.709	862.601	692.952
325.227	26.957	862.190	693.511
326.241	27.030	861.714	693.344
327.256	26.917	861.300	692.519
328.270	26.794	860.528	691.369
329.285	26.750	859.856	690.598
330.300	26.476	859.281	689.032
331.314	26.141	858.520	687.085
332.329	26.370	857.689	687.232
333.343	26.858	857.316	688.726
334.358	27.096	856.881	689.218
335.373	27.166	856.352	688.996
336.387	27.119	856.045	688.512
337.402	27.418	855.554	689.189
338.416	27.691	855.189	689.866
339.431	27.375	854.890	688.370
340.446	27.489	854.164	688.155
341.460	27.728	854.053	688.905
342.475	27.642	853.090	687.743
343.489	27.439	852.457	686.407
344.504	27.533	851.951	686.294
345.519	27.617	851.726	686.368
346.533	28.084	851.300	687.719
347.548	27.984	850.899	686.960
348.562	27.918	850.137	686.034
349.577	27.971	849.610	685.747
350.592	27.885	849.247	685.074
351.606	27.765	848.505	683.962
352.621	27.689	848.319	683.467
353.635	27.620	847.890	682.801
354.650	27.556	846.879	681.689
355.665	27.295	846.068	680.000
356.679	26.347	844.325	675.000
357.694	26.192	843.794	673.939
358.708	26.794	843.770	676.104
359.723	26.822	843.062	675.582
360.738	27.033	842.830	676.125
361.752	27.327	842.950	677.255
362.767	27.540	842.594	677.700
363.781	27.642	842.559	677.991
364.796	28.111	842.179	679.366
365.810	28.139	841.821	679.124
366.825	28.261	841.447	679.214
367.840	28.368	841.244	679.387
368.854	28.140	840.476	677.863
369.869	27.780	839.078	675.341
370.883	27.428	838.819	673.774
371.898	27.572	838.048	673.625
372.913	27.634	837.236	673.143
373.927	27.582	836.779	672.525
374.942	27.564	836.617	672.269
375.956	27.645	836.051	672.050
376.971	27.998	835.268	672.661
377.986	27.903	834.996	672.035
379.000	28.238	834.550	672.846
380.015	28.127	834.321	672.196
381.029	27.902	833.383	670.553
382.044	28.013	832.701	670.351
383.059	28.156	831.997	670.249
384.073	28.290	831.580	670.346
385.088	28.221	831.267	669.781
386.102	28.042	830.629	668.555
387.117	27.913	829.969	667.492
388.132	27.863	828.948	666.429
389.146	27.727	828.535	665.541
390.161	27.155	827.666	662.700
391.175	27.193	827.451	662.607
392.190	27.707	827.651	664.584
393.205	27.770	826.860	664.117
394.219	26.834	825.051	659.207
395.234	25.290	822.700	651.669
396.248	24.355	821.562	647.318
397.263	25.341	822.465	651.551
398.278	27.304	823.691	659.590
399.292	27.782	823.711	661.282
400.307	27.503	822.745	659.438
401.321	27.351	822.506	658.637
402.336	27.372	822.582	658.717
403.350	27.656	822.320	659.477
404.365	28.147	822.365	661.226
405.380	28.630	821.715	662.389
406.394	28.786	821.534	662.747
407.409	28.920	821.172	662.882
408.423	28.856	820.639	662.161
409.438	29.059	819.996	662.316
410.453	28.929	819.819	661.645
411.467	29.148	819.135	661.824
412.482	28.863	818.795	660.465
413.496	28.722	818.366	659.554
414.511	28.841	817.968	659.603
415.526	28.812	817.730	659.249
416.540	29.009	817.432	659.655
417.555	28.954	816.621	658.744
418.569	28.577	816.010	656.847
419.584	28.487	815.646	656.171
420.599	28.517	814.852	655.581
421.613	100.671	1273.142	1406.940
422.628	86.844	1339.947	1407.038
