DTS Sentinel unit serial number:	SN413079Multiplexer serial number:	ORYXHardware model number:	OX4-SRSoftware version number:	ORYX F/W v4.00 Oryx Data Collector v3.7.2.0data status	okinstallation	princeton_trtdifferential loss correction	single-endedforward channel	channel 3reverse channel	N/Adate	2019/09/15time	01:16:35forward acquisition time	60.00reverse acquisition time	0.00gamma	496.2192k internal	0.2321k external	0.2321temperature offset calibration	0.9962default loss term (dB/km)	0.3790temperature slope calibration	1.0000multiplexer offset coefficient	1.0000multiplexer slope coefficient	1.0000fibre end	0.00T internal ref (°C)	31.94T ext. ref 1 (°C)	4.51T ext. ref 2 (°C)	26.85length (m)	temperature (°C)	Stokes	anti-Stokes-747.200	294.879	0.053	-0.098
-746.185	800.000	-0.109	0.381
-745.171	-19.299	-0.092	0.058
-744.156	-172.353	0.093	-0.003
-743.142	49.612	-0.154	-0.147
-742.127	554.124	0.128	0.311
-741.112	800.000	-0.049	-0.187
-740.098	64.100	-0.076	0.077
-739.083	-97.710	-0.300	0.078
-738.069	411.363	-0.118	0.254
-737.054	-59.506	0.251	-0.109
-736.039	263.632	-0.102	-0.180
-735.025	26.929	0.167	0.142
-734.010	800.000	-0.124	-0.411
-732.996	-93.239	0.136	-0.038
-731.981	220.490	0.069	-0.112
-730.966	253.489	-0.074	0.128
-729.952	800.000	0.072	-0.216
-728.937	95.473	0.036	0.041
-727.923	-200.000	0.032	-0.269
-726.908	61.014	0.083	-0.084
-725.894	800.000	0.071	-0.316
-724.879	-118.633	0.069	0.012
-723.864	211.123	-0.090	-0.144
-722.850	-112.422	0.379	0.077
-721.835	63.780	0.044	-0.044
-720.821	16.627	0.086	0.069
-719.806	800.000	-0.079	0.263
-718.791	130.351	-0.197	0.255
-717.777	797.287	-0.110	-0.307
-716.762	599.311	-0.183	-0.458
-715.748	149.305	-0.323	-0.441
-714.733	-93.914	0.093	0.026
-713.718	9.954	0.178	-0.137
-712.704	-63.577	-0.184	-0.076
-711.689	250.982	-0.098	0.168
-710.675	-101.484	-0.336	0.082
-709.660	77.231	-0.122	-0.131
-708.645	280.212	0.090	0.162
-707.631	55.441	-0.115	-0.113
-706.616	10.356	-0.184	-0.142
-705.602	-51.328	-0.202	-0.096
-704.587	-197.057	0.369	0.002
-703.572	82.742	0.174	-0.190
-702.558	707.911	-0.118	-0.316
-701.543	432.435	-0.117	-0.256
-700.529	121.114	0.141	0.177
-699.514	-155.787	0.234	0.015
-698.499	-200.000	0.013	0.265
-697.485	-200.000	0.011	-0.063
-696.470	30.318	-0.134	0.115
-695.456	783.771	0.032	0.089
-694.441	16.395	0.191	-0.152
-693.426	201.710	-0.201	-0.312
-692.412	260.269	0.015	0.027
-691.397	-6.355	0.312	-0.215
-690.383	-82.196	-0.358	-0.118
-689.368	800.000	0.121	0.464
-688.354	-59.009	0.125	0.055
-687.339	234.761	0.097	-0.162
-686.324	-200.000	-0.002	-0.094
-685.310	554.472	-0.161	-0.392
-684.295	11.696	-0.239	-0.185
-683.281	-161.466	-0.272	-0.014
-682.266	-61.202	0.155	-0.066
-681.251	-31.374	-0.112	-0.064
-680.237	15.060	0.219	-0.173
-679.222	-105.309	-0.098	-0.022
-678.208	-184.149	-0.052	-0.001
-677.193	-49.347	-0.137	-0.066
-676.178	-13.480	0.095	0.062
-675.164	-29.835	0.409	0.235
-674.149	-62.497	-0.153	0.064
-673.135	131.746	0.068	-0.088
-672.120	-91.399	-0.378	0.109
-671.105	654.047	0.114	0.294
-670.091	31.084	0.223	-0.192
-669.076	-127.493	-0.236	0.035
-668.062	800.000	0.064	-0.182
-667.047	-13.077	0.507	-0.332
-666.032	35.985	0.121	-0.108
-665.018	-111.874	0.257	0.052
-664.003	-200.000	0.008	-0.163
-662.989	-70.827	-0.247	0.094
-661.974	-200.000	-0.004	-0.095
-660.959	-86.656	-0.343	0.106
-659.945	-25.350	0.140	-0.083
-658.930	800.000	-0.108	-0.364
-657.916	4.541	0.120	-0.089
-656.901	461.195	-0.159	-0.356
-655.886	-125.752	0.361	-0.055
-654.872	24.514	-0.063	0.052
-653.857	800.000	-0.076	0.304
-652.843	111.259	0.104	0.126
-651.828	68.104	-0.237	0.244
-650.814	571.020	-0.063	-0.155
-649.799	-167.747	-0.174	-0.007
-648.784	800.000	-0.079	-0.224
-647.770	800.000	-0.094	-0.317
-646.755	173.234	-0.110	0.160
-645.741	102.249	-0.211	0.249
-644.726	533.133	0.071	-0.170
-643.711	13.461	0.075	0.058
-642.697	-115.563	-0.164	0.031
-641.682	198.024	0.159	-0.245
-640.668	800.000	-0.096	0.295
-639.653	-41.353	0.251	0.130
-638.638	501.140	-0.081	-0.187
-637.624	800.000	0.072	0.209
-636.609	-200.000	-0.011	-0.160
-635.595	127.652	0.120	0.153
-634.580	119.261	0.275	0.342
-633.565	-92.532	-0.253	0.072
-632.551	-109.119	0.095	0.020
-631.536	181.450	0.047	-0.069
-630.522	-111.171	0.261	-0.054
-629.507	-56.668	-0.319	-0.142
-628.492	60.329	-0.430	0.428
-627.478	594.273	-0.145	-0.362
-626.463	-200.000	0.050	0.295
-625.449	-80.117	0.244	0.082
-624.434	293.430	-0.143	0.262
-623.419	800.000	-0.035	-0.121
-622.405	-99.365	0.285	-0.072
-621.390	-95.108	0.286	-0.078
-620.376	-67.175	0.156	-0.062
-619.361	39.519	0.252	-0.227
-618.346	-144.338	-0.213	-0.020
-617.332	-19.413	-0.150	-0.094
-616.317	800.000	0.092	-0.310
-615.303	-12.605	0.095	0.062
-614.288	-105.483	-0.355	-0.081
-613.273	-200.000	-0.063	0.301
-612.259	197.803	0.061	-0.093
-611.244	-29.646	-0.240	0.138
-610.230	1.895	-0.103	-0.075
-609.215	21.404	0.102	0.083
-608.201	690.185	-0.076	0.199
-607.186	601.986	-0.052	-0.130
-606.171	-200.000	-0.010	-0.120
-605.157	210.446	-0.119	0.187
-604.142	-200.000	0.013	0.213
-603.128	188.157	0.103	0.155
-602.113	749.967	-0.046	0.125
-601.098	66.119	-0.033	0.034
-600.084	-5.459	-0.185	-0.128
-599.069	800.000	-0.025	0.090
-598.055	-74.334	0.191	0.069
-597.040	-59.025	0.128	0.055
-596.025	42.116	-0.120	-0.110
-595.011	-93.106	-0.312	0.087
-593.996	-200.000	-0.023	0.113
-592.982	44.305	-0.150	0.138
-591.967	800.000	0.052	-0.189
-590.952	-142.213	-0.209	0.021
-589.938	800.000	0.037	-0.135
-588.923	113.057	0.090	0.109
-587.909	-131.118	-0.086	-0.011
-586.894	-200.000	-0.023	0.213
-585.879	-11.648	-0.228	-0.150
-584.865	800.000	-0.041	0.139
-583.850	139.583	0.093	-0.123
-582.836	-122.087	0.097	0.016
-581.821	-55.512	-0.282	-0.127
-580.806	80.522	-0.045	-0.049
-579.792	138.083	-0.134	-0.176
-578.777	162.346	-0.138	-0.194
-577.763	168.131	0.244	-0.349
-576.748	-99.215	-0.137	0.035
-575.733	-82.482	-0.280	-0.091
-574.719	-154.827	0.147	-0.010
-573.704	-48.874	0.225	0.108
-572.690	5.992	-0.169	-0.126
-571.675	11.360	-0.258	0.199
-570.661	73.891	0.417	0.439
-569.646	248.623	-0.093	0.157
-568.631	-200.000	0.000	0.114
-567.617	-19.870	-0.077	0.048
-566.602	509.937	-0.166	-0.387
-565.588	-109.106	-0.392	0.084
-564.573	14.186	-0.305	-0.238
-563.558	32.350	-0.255	-0.221
-562.544	800.000	-0.107	0.323
-561.529	8.564	0.177	0.134
-560.515	-91.355	-0.300	-0.086
-559.500	45.720	0.148	0.137
-558.485	119.464	0.283	-0.352
-557.471	-3.016	0.238	-0.167
-556.456	-175.289	-0.074	-0.002
-555.442	-200.000	-0.043	0.376
-554.427	200.991	0.234	0.361
-553.412	-200.000	0.020	0.364
-552.398	86.669	-0.191	0.211
-551.383	-100.440	0.171	-0.043
-550.369	344.485	0.032	-0.063
-549.354	800.000	-0.090	-0.299
-548.339	274.119	-0.103	-0.182
-547.325	-106.900	-0.232	-0.052
-546.310	800.000	-0.085	0.319
-545.296	-200.000	-0.029	-0.149
-544.281	800.000	0.019	0.053
-543.266	269.526	0.093	0.163
-542.252	-200.000	0.046	-0.259
-541.237	-48.545	-0.361	-0.174
-540.223	-69.552	0.027	0.011
-539.208	327.996	0.060	-0.116
-538.193	-126.605	0.330	0.049
-537.179	-164.734	-0.121	0.005
-536.164	-200.000	-0.014	-0.204
-535.150	119.364	0.128	0.159
-534.135	-200.000	0.003	-0.087
-533.121	-183.422	-0.359	-0.006
-532.106	-200.000	0.051	0.333
-531.091	-193.132	-0.403	-0.004
-530.077	800.000	-0.040	-0.155
-529.062	117.161	0.152	0.187
-528.048	-88.891	-0.167	0.050
-527.033	-26.023	0.301	0.177
-526.018	153.164	-0.125	0.171
-525.004	-100.712	-0.183	-0.045
-523.989	800.000	0.060	-0.177
-522.975	221.488	-0.034	0.055
-521.960	421.256	0.128	-0.274
-520.945	679.290	-0.106	0.278
-519.931	380.973	-0.207	-0.425
-518.916	180.468	-0.135	0.198
-517.902	54.870	0.145	0.141
-516.887	-200.000	-0.019	-0.090
-515.872	-62.842	-0.054	-0.022
-514.858	-15.929	-0.008	0.005
-513.843	-73.922	-0.088	-0.032
-512.829	243.833	-0.051	0.086
-511.814	-104.505	-0.532	-0.123
-510.799	-200.000	0.027	-0.188
-509.785	113.014	0.029	-0.036
-508.770	94.353	-0.207	-0.236
-507.756	4.514	0.273	-0.201
-506.741	800.000	0.075	-0.314
-505.726	545.094	-0.067	0.161
-504.712	214.668	-0.098	-0.156
-503.697	-200.000	0.029	0.288
-502.683	800.000	0.093	0.390
-501.668	-145.049	-0.261	0.024
-500.653	623.088	0.051	0.129
-499.639	-109.837	-0.324	-0.068
-498.624	22.826	-0.086	0.071
-497.610	-39.756	0.103	-0.054
-496.595	-87.807	0.173	-0.052
-495.581	-200.000	0.041	0.252
-494.566	126.839	0.069	-0.087
-493.551	-105.810	-0.172	0.039
-492.537	258.569	-0.024	-0.041
-491.522	174.512	-0.118	-0.171
-490.508	-167.636	0.124	-0.005
-489.493	-31.808	-0.156	-0.088
-488.478	-200.000	0.007	-0.094
-487.464	207.101	0.097	0.152
-486.449	-113.429	0.406	0.080
-485.435	-133.090	0.271	0.034
-484.420	800.000	-0.116	0.333
-483.405	-8.241	0.212	-0.143
-482.391	-200.000	-0.007	0.195
-481.376	-138.674	0.159	0.017
-480.362	-200.000	0.050	-0.270
-479.347	116.354	0.045	0.055
-478.332	-91.541	0.315	-0.090
-477.318	-148.987	-0.221	0.018
-476.303	-11.929	0.078	-0.051
-475.289	77.000	-0.113	0.120
-474.274	516.627	-0.135	0.316
-473.259	-200.000	-0.080	0.405
-472.245	-70.135	0.210	0.080
-471.230	-123.186	0.242	-0.039
-470.216	800.000	0.165	0.522
-469.201	124.656	0.252	-0.318
-468.186	15.074	-0.384	-0.301
-467.172	-16.204	0.252	0.160
-466.157	-86.951	-0.163	0.050
-465.143	-158.493	-0.170	0.010
-464.128	-87.181	0.051	-0.015
-463.113	484.296	-0.068	-0.154
-462.099	94.346	-0.140	-0.159
-461.084	-11.448	-0.409	0.269
-460.070	-48.547	0.125	0.060
-459.055	53.819	0.192	-0.185
-458.040	287.657	-0.044	0.079
-457.026	-200.000	-0.029	0.293
-456.011	-200.000	-0.013	0.092
-454.997	800.000	-0.064	0.229
-453.982	-103.179	0.235	0.056
-452.968	-200.000	-0.022	0.098
-451.953	-164.098	0.190	-0.009
-450.938	-35.846	-0.186	-0.101
-449.924	800.000	-0.047	0.179
-448.909	92.885	0.057	0.065
-447.895	-53.244	-0.225	-0.103
-446.880	-31.648	-0.220	0.123
-445.865	-177.595	0.072	0.002
-444.851	215.211	0.207	0.327
-443.836	-129.251	-0.212	-0.030
-442.822	800.000	0.103	0.289
-441.807	-105.535	-0.186	0.042
-440.792	-200.000	0.063	-0.428
-439.778	-49.738	-0.072	0.034
-438.763	-160.401	0.301	-0.016
-437.749	165.836	-0.090	0.127
-436.734	34.831	-0.063	0.055
-435.719	-200.000	-0.045	0.404
-434.705	42.712	0.302	0.275
-433.690	-101.257	0.314	-0.077
-432.676	-57.218	-0.193	0.085
-431.661	28.505	-0.300	0.253
-430.646	-26.103	-0.020	-0.012
-429.632	191.467	0.119	0.178
-428.617	715.675	0.061	0.162
-427.603	76.182	0.170	-0.180
-426.588	-97.917	0.043	-0.011
-425.573	-200.000	0.032	-0.161
-424.559	800.000	-0.041	-0.170
-423.544	-54.552	0.133	-0.060
-422.530	532.866	0.025	0.059
-421.515	-20.180	0.281	-0.173
-420.500	-134.580	-0.180	-0.022
-419.486	-200.000	-0.012	-0.187
-418.471	211.490	0.074	-0.116
-417.457	107.946	-0.097	0.115
-416.442	-142.579	0.115	-0.011
-415.428	190.659	-0.160	0.240
-414.413	19.847	-0.252	-0.202
-413.398	2.099	-0.167	-0.120
-412.384	224.807	0.059	0.096
-411.369	151.684	0.129	0.176
-410.355	-200.000	0.018	-0.110
-409.340	65.410	0.332	-0.335
-408.325	13.492	0.113	-0.087
-407.311	-17.381	0.024	0.015
-406.296	46.777	-0.031	0.029
-405.282	188.689	-0.200	0.299
-404.267	-108.289	0.112	0.024
-403.252	-44.344	0.104	-0.052
-402.238	-200.000	-0.008	-0.125
-401.223	24.645	0.279	0.231
-400.209	217.754	0.089	0.141
-399.194	138.589	0.281	-0.368
-398.179	86.860	0.064	0.071
-397.165	348.414	0.114	-0.224
-396.150	-22.665	0.234	-0.141
-395.136	375.389	0.137	-0.279
-394.121	154.834	-0.146	0.201
-393.106	-180.621	-0.324	0.007
-392.092	-200.000	0.060	-0.311
-391.077	-200.000	0.096	-0.479
-390.063	-200.000	0.100	0.000
-389.048	715.216	0.040	-0.106
-388.033	115.383	0.074	-0.091
-387.019	298.574	-0.111	-0.203
-386.004	800.000	-0.078	0.234
-384.990	0.777	0.327	-0.233
-383.975	-200.000	-0.057	-0.254
-382.960	73.687	0.258	-0.270
-381.946	-72.331	0.207	0.076
-380.931	-47.125	0.072	-0.035
-379.917	120.091	-0.202	0.250
-378.902	-56.750	-0.226	-0.100
-377.888	-200.000	-0.015	-0.530
-376.873	800.000	-0.011	-0.045
-375.858	800.000	0.088	-0.244
-374.844	321.194	0.039	-0.073
-373.829	-31.894	0.017	-0.009
-372.815	-200.000	-0.032	-0.350
-371.800	-200.000	0.014	0.164
-370.785	195.390	0.199	0.302
-369.771	115.754	-0.122	-0.148
-368.756	-44.069	0.176	0.088
-367.742	-200.000	0.047	0.218
-366.727	152.081	0.122	0.166
-365.712	-200.000	0.006	-0.099
-364.698	800.000	-0.096	0.290
-363.683	-123.659	0.105	-0.017
-362.669	303.975	0.083	-0.153
-361.654	-71.535	0.207	0.077
-360.639	-200.000	0.055	0.492
-359.625	800.000	-0.110	0.414
-358.610	-200.000	-0.008	0.127
-357.596	-132.362	-0.240	-0.031
-356.581	-200.000	0.036	0.160
-355.566	-34.941	0.132	-0.072
-354.552	-200.000	-0.034	-0.195
-353.537	24.676	-0.186	-0.153
-352.523	29.495	-0.273	0.231
-351.508	800.000	-0.146	-0.444
-350.493	-50.272	0.206	0.097
-349.479	-87.190	-0.324	-0.098
-348.464	525.150	0.191	0.448
-347.450	800.000	0.019	0.074
-346.435	201.915	0.086	0.132
-345.420	-11.557	0.204	0.133
-344.406	-14.359	-0.266	-0.171
-343.391	-142.110	-0.255	0.025
-342.377	-123.078	0.167	-0.027
-341.362	-200.000	-0.023	-0.265
-340.348	-15.938	0.202	0.128
-339.333	-200.000	-0.024	-0.159
-338.318	3.089	-0.160	0.116
-337.304	148.648	-0.170	0.228
-336.289	264.314	-0.053	-0.091
-335.275	-200.000	0.034	0.181
-334.260	-22.463	-0.158	0.095
-333.245	52.239	0.200	-0.190
-332.231	-196.438	-0.290	-0.002
-331.216	153.793	-0.129	-0.175
-330.202	-200.000	0.035	0.187
-329.187	-56.968	0.132	-0.058
-328.172	-200.000	-0.022	-0.246
-327.158	-132.893	0.264	0.033
-326.143	-64.602	-0.115	0.046
-325.129	-84.027	0.177	0.056
-324.114	-6.614	0.080	-0.054
-323.099	-200.000	0.004	-0.120
-322.085	-200.000	0.051	0.277
-321.070	-181.072	-0.267	-0.005
-320.056	482.251	0.065	0.148
-319.041	-22.660	0.030	0.018
-318.026	-86.500	0.102	-0.031
-317.012	603.233	-0.075	-0.187
-315.997	800.000	0.048	-0.200
-314.983	-191.739	0.179	-0.002
-313.968	105.024	-0.071	-0.084
-312.953	172.843	-0.159	0.228
-311.939	800.000	0.060	-0.232
-310.924	-200.000	-0.005	-0.029
-309.910	-79.480	-0.082	0.027
-308.895	-105.509	-0.247	0.056
-307.880	-200.000	0.057	0.266
-306.866	-18.398	0.134	-0.083
-305.851	263.641	0.033	-0.058
-304.837	-169.479	-0.134	-0.005
-303.822	286.291	-0.182	0.326
-302.807	-5.502	0.091	0.062
-301.793	-157.658	0.381	-0.023
-300.778	79.765	0.152	0.163
-299.764	25.983	-0.112	-0.093
-298.749	-200.000	-0.016	-0.071
-297.735	335.512	0.215	0.414
-296.720	-200.000	-0.043	0.284
-295.705	-200.000	-0.023	-0.209
-294.691	662.382	-0.114	0.291
-293.676	800.000	0.083	-0.231
-292.662	1.640	-0.162	0.116
-291.647	-98.872	0.493	-0.124
-290.632	-94.788	0.251	0.068
-289.618	178.795	-0.193	0.281
-288.603	280.870	-0.130	-0.231
-287.589	-200.000	-0.030	0.363
-286.574	-186.862	-0.356	0.005
-285.559	498.209	0.067	-0.153
-284.545	800.000	0.104	0.295
-283.530	-3.515	-0.163	-0.113
-282.516	417.542	-0.017	0.036
-281.501	-100.040	-0.074	0.018
-280.486	560.282	0.099	-0.238
-279.472	22.753	0.155	0.126
-278.457	88.235	-0.078	0.086
-277.443	-183.596	-0.172	0.003
-276.428	62.031	0.329	0.326
-275.413	-33.304	-0.172	0.094
-274.399	-200.000	-0.014	0.236
-273.384	-134.357	0.044	0.005
-272.370	419.123	0.150	-0.319
-271.355	137.469	-0.038	-0.050
-270.340	800.000	-0.073	-0.268
-269.326	-200.000	0.022	-0.153
-268.311	584.961	0.141	-0.344
-267.297	800.000	0.086	-0.271
-266.282	800.000	-0.056	-0.222
-265.267	156.964	0.149	-0.205
-264.253	-101.818	0.105	-0.025
-263.238	-110.453	-0.358	0.074
-262.224	141.485	0.216	0.283
-261.209	76.459	0.143	-0.150
-260.195	438.703	-0.094	-0.204
-259.180	782.507	0.219	-0.595
-258.165	800.000	-0.091	0.256
-257.151	800.000	-0.043	-0.140
-256.136	27.482	-0.085	-0.071
-255.122	-200.000	-0.002	-0.276
-254.107	-112.758	-0.096	0.019
-253.092	800.000	0.031	-0.093
-252.078	-98.664	-0.369	-0.093
-251.063	247.591	-0.055	0.092
-250.049	800.000	0.054	-0.208
-249.034	109.683	-0.074	0.089
-248.019	-200.000	-0.056	-0.291
-247.005	376.567	-0.160	-0.325
-245.990	-200.000	-0.003	-0.103
-244.976	-63.424	-0.169	0.069
-243.961	275.634	-0.048	0.084
-242.946	-69.646	-0.102	0.039
-241.932	442.898	0.045	-0.098
-240.917	165.675	-0.035	-0.049
-239.903	-98.475	0.409	-0.104
-238.888	-200.000	0.036	-0.284
-237.873	13.052	0.217	-0.167
-236.859	800.000	-0.148	-0.432
-235.844	-50.356	-0.369	0.173
-234.830	-99.508	0.469	0.117
-233.815	586.356	0.125	0.304
-232.800	567.027	-0.060	-0.143
-231.786	2.783	-0.121	0.087
-230.771	-17.007	-0.316	0.198
-229.757	-138.571	0.108	0.012
-228.742	800.000	-0.014	0.051
-227.727	656.584	0.112	0.285
-226.713	-200.000	-0.001	0.197
-225.698	56.689	0.139	-0.134
-224.684	-180.039	0.048	0.001
-223.669	15.105	0.196	0.152
-222.655	354.913	0.095	-0.187
-221.640	318.265	-0.136	0.255
-220.625	640.778	0.042	-0.105
-219.611	-163.105	-0.053	0.003
-218.596	-5.527	-0.291	-0.198
-217.582	-59.015	0.079	0.034
-216.567	-21.104	0.149	0.090
-215.552	-200.000	0.020	-0.219
-214.538	-5.629	0.222	-0.151
-213.523	-200.000	0.009	0.081
-212.509	800.000	0.054	0.189
-211.494	800.000	0.084	-0.241
-210.479	98.281	0.259	0.295
-209.465	-24.250	-0.247	-0.146
-208.450	-88.152	-0.241	0.072
-207.436	-200.000	0.043	-0.199
-206.421	-200.000	-0.058	-0.275
-205.406	-109.215	0.045	0.010
-204.392	66.284	0.421	0.423
-203.377	-182.498	-0.129	-0.002
-202.363	741.226	0.042	0.111
-201.348	-35.773	0.390	0.209
-200.333	86.059	0.109	0.119
-199.319	183.908	-0.048	-0.071
-198.304	-152.183	-0.229	0.016
-197.290	-80.454	0.260	-0.086
-196.275	-114.022	-0.310	0.059
-195.260	546.812	-0.156	0.368
-194.246	800.000	0.103	0.321
-193.231	41.610	0.394	-0.353
-192.217	-91.684	-0.133	-0.037
-191.202	318.338	0.037	-0.070
-190.187	-200.000	-0.015	-0.252
-189.173	104.157	-0.052	-0.060
-188.158	-200.000	0.033	0.183
-187.144	-40.605	-0.165	-0.085
-186.129	-152.243	-0.193	-0.014
-185.114	-109.011	0.435	0.092
-184.100	249.376	-0.282	-0.473
-183.085	-200.000	-0.001	-0.280
-182.071	-176.929	0.275	-0.007
-181.056	31.968	0.214	-0.182
-180.042	800.000	-0.032	-0.110
-179.027	-102.386	0.230	0.054
-178.012	95.560	-0.292	-0.330
-176.998	-99.561	-0.153	-0.038
-175.983	-48.074	0.128	-0.061
-174.969	800.000	0.096	0.308
-173.954	800.000	0.033	-0.120
-172.939	-164.594	-0.325	0.015
-171.925	-146.904	0.099	0.008
-170.910	-100.847	-0.067	-0.016
-169.896	2.403	0.126	0.090
-168.881	-31.928	0.186	-0.103
-167.866	52.828	0.116	0.110
-166.852	-44.009	0.104	-0.051
-165.837	763.737	-0.096	0.257
-164.823	-54.286	0.144	0.065
-163.808	658.926	0.038	-0.098
-162.793	-133.880	-0.241	-0.030
-161.779	-133.699	0.113	-0.014
-160.764	-27.323	-0.123	0.071
-159.750	-161.569	-0.159	-0.008
-158.735	-125.706	0.139	0.021
-157.720	417.993	-0.042	0.089
-156.706	89.297	-0.119	-0.131
-155.691	314.227	-0.024	0.044
-154.677	206.580	0.105	0.161
-153.662	-102.262	0.293	0.070
-152.647	800.000	-0.091	-0.272
-151.633	2.861	0.231	-0.166
-150.618	26.312	0.153	-0.126
-149.604	501.035	-0.129	0.293
-148.589	-6.953	0.255	-0.171
-147.574	-200.000	-0.001	0.520
-146.560	800.000	0.081	0.306
-145.545	-170.148	0.234	-0.008
-144.531	-200.000	-0.025	0.124
-143.516	-200.000	-0.044	0.395
-142.502	-124.008	-0.247	-0.038
-141.487	-117.272	-0.265	0.048
-140.472	800.000	0.031	-0.132
-139.458	-200.000	0.019	0.101
-138.443	82.827	0.071	0.076
-137.429	15.512	-0.153	-0.119
-136.414	-48.251	-0.098	0.046
-135.399	-18.323	-0.316	-0.195
-134.385	-149.872	0.441	-0.034
-133.370	-69.639	-0.180	-0.068
-132.356	-23.494	0.287	-0.170
-131.341	-200.000	0.029	-0.127
-130.326	0.383	-0.302	-0.213
-129.312	-200.000	0.022	0.226
-128.297	608.054	-0.041	-0.100
-127.283	-78.050	0.158	-0.054
-126.268	122.395	0.150	-0.185
-125.253	-200.000	0.002	-0.067
-124.239	800.000	0.086	0.327
-123.224	257.822	-0.074	0.125
-122.210	89.674	0.092	-0.101
-121.195	48.004	0.176	-0.162
-120.180	-200.000	-0.012	0.151
-119.166	473.347	-0.121	-0.268
-118.151	338.236	-0.126	-0.243
-117.137	-55.029	-0.164	0.073
-116.122	-99.662	0.270	0.067
-115.107	-200.000	0.010	0.168
-114.093	-45.556	-0.192	-0.094
-113.078	-150.628	-0.142	-0.011
-112.064	-148.568	0.201	0.016
-111.049	-37.538	-0.304	0.160
-110.034	-9.495	0.307	0.202
-109.020	41.331	0.158	0.141
-108.005	-200.000	0.002	-0.166
-106.991	163.125	-0.135	-0.187
-105.976	-52.265	0.126	0.057
-104.962	74.180	0.309	-0.320
-103.947	-104.090	-0.189	-0.043
-102.932	145.789	0.117	0.154
-101.918	26.317	-0.060	-0.050
-100.903	500.083	-0.034	-0.078
-99.889	-31.706	0.369	-0.204
-98.874	235.526	0.258	-0.421
-97.859	-200.000	0.019	0.207
-96.845	-200.000	-0.008	-0.138
-95.830	-4.144	0.126	0.086
-94.816	123.543	-0.105	0.130
-93.801	-55.765	0.308	0.136
-92.786	286.099	-0.143	-0.254
-91.772	381.579	0.108	-0.219
-90.757	800.000	-0.063	0.216
-89.743	258.852	0.129	-0.219
-88.728	-200.000	0.014	0.185
-87.713	662.268	-0.030	-0.077
-86.699	-63.031	0.155	-0.063
-85.684	196.034	0.030	-0.045
-84.670	-12.308	0.242	0.156
-83.655	-200.000	0.006	0.377
-82.640	228.221	0.133	-0.213
-81.626	433.187	0.206	-0.440
-80.611	-31.671	-0.097	-0.054
-79.597	800.000	-0.091	0.265
-78.582	-195.221	-0.324	-0.002
-77.567	-200.000	0.039	-0.249
-76.553	-23.145	-0.157	0.093
-75.538	-135.212	0.051	-0.006
-74.524	-25.907	0.138	-0.080
-73.509	466.771	0.190	-0.420
-72.494	-59.442	0.173	0.073
-71.480	-161.403	0.241	-0.012
-70.465	125.450	0.220	-0.274
-69.451	800.000	-0.075	-0.230
-68.436	-65.814	-0.183	-0.072
-67.422	-174.594	-0.126	-0.004
-66.407	-197.435	0.077	-0.000
-65.392	288.523	0.116	-0.207
-64.378	-64.085	-0.130	-0.052
-63.363	-165.565	-0.204	-0.009
-62.349	38.721	-0.176	0.155
-61.334	315.939	-0.579	-1.075
-60.319	327.317	0.158	0.298
-59.305	580.910	-0.467	-1.127
-58.290	259.122	0.500	0.849
-57.276	343.304	0.733	1.414
-56.261	-200.000	95.620	593.611
-55.246	654.177	1369.373	3457.535
-54.232	199.747	2544.804	3842.047
-53.217	119.166	2158.932	2627.412
-52.203	42.821	1703.719	1527.368
-51.188	35.105	1517.045	1307.538
-50.173	32.735	1489.735	1268.033
-49.159	52.079	1538.613	1442.246
-48.144	53.841	1556.322	1470.826
-47.130	35.295	1516.821	1308.434
-46.115	32.147	1502.291	1274.530
-45.100	32.013	1498.627	1270.467
-44.086	31.980	1496.664	1268.525
-43.071	31.991	1494.516	1266.729
-42.057	31.933	1492.732	1264.779
-41.042	32.023	1491.215	1264.047
-40.027	31.899	1490.082	1262.202
-39.013	31.878	1489.143	1261.215
-37.998	31.891	1487.499	1259.861
-36.984	31.893	1486.291	1258.799
-35.969	31.997	1484.817	1258.198
-34.954	32.046	1483.385	1257.262
-33.940	31.940	1481.907	1255.255
-32.925	31.967	1480.478	1254.176
-31.911	31.925	1479.539	1253.049
-30.896	31.908	1478.083	1251.650
-29.881	32.045	1476.236	1250.947
-28.867	32.030	1475.193	1249.918
-27.852	32.023	1474.007	1248.817
-26.838	31.950	1472.784	1247.242
-25.823	31.927	1471.493	1245.947
-24.809	31.975	1469.406	1244.450
-23.794	32.052	1467.793	1243.547
-22.779	31.951	1466.789	1241.976
-21.765	31.999	1465.654	1241.282
-20.750	31.949	1464.525	1239.950
-19.736	31.971	1463.161	1238.887
-18.721	31.963	1462.206	1237.980
-17.706	31.990	1461.075	1237.149
-16.692	31.867	1460.324	1235.656
-15.677	31.958	1459.080	1235.154
-14.663	31.870	1458.280	1233.846
-13.648	31.900	1457.132	1233.027
-12.633	31.890	1456.304	1232.207
-11.619	31.912	1455.165	1231.340
-10.604	31.958	1454.606	1231.121
-9.590	31.931	1453.601	1230.044
-8.575	31.909	1453.163	1229.482
-7.560	31.899	1451.985	1228.368
-6.546	31.824	1451.504	1227.420
-5.531	31.916	1450.253	1226.918
-4.517	31.774	1449.412	1225.230
-3.502	31.830	1448.133	1224.464
-2.487	31.950	1446.875	1224.137
-1.473	31.869	1445.974	1222.800
-0.458	31.983	1444.257	1222.039
0.556	30.497	1434.981	1210.984
1.571	27.612	1409.223	1170.651
2.586	24.102	1349.653	1099.433
3.600	22.410	1267.842	1022.878
4.615	21.126	1221.789	978.442
5.629	18.289	1166.316	918.733
6.644	10.779	1084.417	816.528
7.659	5.345	1044.557	760.080
8.673	4.635	1039.054	752.573
9.688	4.568	1036.093	750.036
10.702	4.398	1034.569	748.048
11.717	4.440	1032.627	746.780
12.731	6.438	1034.556	757.726
13.746	13.309	1043.837	797.702
14.761	18.363	1049.916	826.740
15.775	18.247	1049.274	825.599
16.790	17.267	1046.679	818.767
17.804	16.384	1044.428	812.689
18.819	15.318	1043.235	806.561
19.834	14.880	1041.291	802.885
20.848	14.741	1040.156	801.273
21.863	14.429	1039.778	799.414
22.877	14.234	1038.802	797.658
23.892	14.059	1038.185	796.275
24.907	13.921	1037.157	794.759
25.921	13.936	1036.830	794.508
26.936	13.866	1036.174	793.602
27.950	13.991	1035.139	793.336
28.965	14.007	1033.791	792.306
29.980	14.034	1032.598	791.452
30.994	14.178	1031.709	791.387
32.009	14.262	1030.451	790.748
33.023	14.385	1029.691	790.680
34.038	14.271	1029.330	789.793
35.053	14.096	1028.838	788.513
36.067	14.046	1027.184	786.942
37.082	14.074	1026.415	786.414
38.096	14.151	1025.747	786.195
39.111	14.206	1025.029	785.836
40.126	14.174	1024.489	785.202
41.140	14.195	1023.017	784.105
42.155	14.055	1021.363	782.107
43.169	13.938	1020.711	780.989
44.184	13.875	1019.536	779.726
45.199	13.938	1018.086	778.845
46.213	13.802	1017.939	778.022
47.228	13.887	1016.659	777.374
48.242	13.998	1015.795	777.163
49.257	14.079	1014.968	776.840
50.271	13.951	1014.094	775.504
51.286	14.130	1012.884	775.345
52.301	14.204	1012.245	775.133
53.315	14.152	1011.467	774.226
54.330	14.083	1010.831	773.350
55.344	14.060	1009.741	772.344
56.359	13.886	1008.869	770.799
57.374	13.857	1008.166	770.061
58.388	13.883	1007.308	769.454
59.403	13.804	1006.655	768.521
60.417	13.844	1005.748	767.948
61.432	13.856	1005.267	767.569
62.447	13.785	1004.179	766.343
63.461	13.834	1003.286	765.818
64.476	13.669	1002.416	764.324
65.490	13.687	1001.351	763.528
66.505	13.616	1000.799	762.716
67.520	13.757	999.548	762.342
68.534	13.918	998.944	762.553
69.549	13.855	998.144	761.584
70.563	13.828	997.413	760.837
71.578	13.829	996.756	760.272
72.593	13.861	995.846	759.655
73.607	13.664	995.096	758.117
74.622	13.750	993.937	757.558
75.636	13.678	993.107	756.533
76.651	13.796	992.480	756.527
77.666	13.837	991.526	755.919
78.680	13.678	990.933	754.676
79.695	13.748	990.501	754.598
80.709	13.698	989.770	753.745
81.724	13.711	989.590	753.602
82.739	13.823	988.062	752.878
83.753	13.886	987.682	752.808
84.768	14.057	986.965	752.971
85.782	14.178	986.385	753.011
86.797	14.325	985.532	752.957
87.812	14.205	984.644	751.669
88.826	14.071	984.076	750.566
89.841	14.152	983.044	750.077
90.855	14.123	982.177	749.218
91.870	14.072	981.643	748.516
92.884	14.231	980.922	748.616
93.899	14.273	980.128	748.132
94.914	14.176	979.540	747.178
95.928	14.295	978.730	747.027
96.943	14.370	977.926	746.687
97.957	14.252	977.049	745.420
98.972	14.130	976.869	744.670
99.987	14.200	976.108	744.340
101.001	14.251	974.927	743.600
102.016	14.250	974.105	742.903
103.030	14.056	973.738	741.694
104.045	14.150	972.260	740.919
105.060	14.256	971.518	740.759
106.074	14.167	970.652	739.641
107.089	14.014	969.510	738.022
108.103	13.974	968.693	737.158
109.118	13.950	967.512	736.090
110.133	13.903	967.386	735.720
111.147	13.936	966.357	735.018
112.162	13.900	965.303	733.994
113.176	13.861	964.527	733.166
114.191	13.914	963.904	732.863
115.206	14.047	963.098	732.768
116.220	13.961	962.142	731.599
117.235	14.003	961.028	730.870
118.249	13.934	960.514	730.112
119.264	13.983	959.372	729.394
120.279	13.969	958.506	728.610
121.293	13.991	957.859	728.152
122.308	13.850	957.280	727.029
123.322	13.773	956.816	726.273
124.337	13.780	955.557	725.287
125.352	13.801	954.502	724.514
126.366	13.669	953.355	723.001
127.381	13.832	952.146	722.733
128.395	13.819	951.151	721.856
129.410	13.746	950.583	721.043
130.424	13.774	949.749	720.467
131.439	13.798	948.916	719.876
132.454	13.967	948.022	719.866
133.468	13.789	947.567	718.687
134.483	13.909	946.773	718.542
135.497	13.916	945.813	717.778
136.512	13.953	945.192	717.402
137.527	13.916	944.452	716.619
138.541	14.040	943.404	716.295
139.556	13.926	942.942	715.391
140.570	13.987	942.200	715.026
141.585	13.981	941.311	714.264
142.600	14.232	940.467	714.637
143.614	14.273	939.968	714.369
144.629	14.175	939.266	713.352
145.643	14.189	938.617	712.859
146.658	14.312	937.603	712.552
147.673	14.197	936.819	711.400
148.687	14.159	935.887	710.466
149.702	14.173	935.051	709.829
150.716	14.104	934.043	708.707
151.731	14.057	933.207	707.809
152.746	14.011	932.492	707.010
153.760	14.116	932.014	707.029
154.775	13.987	931.347	705.914
155.789	14.185	930.325	705.918
156.804	14.225	929.278	705.228
157.819	14.340	928.202	704.838
158.833	14.193	927.917	703.938
159.848	14.386	927.361	704.271
160.862	14.408	926.689	703.790
161.877	14.515	925.696	703.425
162.892	14.337	924.892	701.999
163.906	14.134	924.155	700.523
164.921	14.199	923.518	700.253
165.935	14.313	922.455	699.863
166.950	14.114	921.604	698.323
167.964	14.245	920.538	698.001
168.979	14.246	919.561	697.204
169.994	14.226	918.630	696.352
171.008	14.245	918.023	695.908
172.023	14.227	917.435	695.325
173.037	14.276	916.570	694.812
174.052	14.347	915.894	694.538
175.067	14.309	915.302	693.866
176.081	14.233	914.504	692.885
177.096	14.192	913.710	692.051
178.110	14.087	912.959	690.984
179.125	14.196	911.802	690.499
180.140	14.226	910.946	689.915
181.154	14.206	910.316	689.295
182.169	14.320	909.994	689.460
183.183	14.420	909.682	689.580
184.198	14.451	908.764	688.949
185.213	14.511	907.729	688.353
186.227	14.479	907.389	687.899
187.242	14.486	906.841	687.451
188.256	14.497	906.194	686.947
189.271	14.474	905.796	686.491
190.286	14.668	904.767	686.448
191.300	14.364	904.031	684.580
192.315	14.321	903.022	683.578
193.329	14.125	902.556	682.361
194.344	14.217	901.970	682.233
195.359	14.156	901.412	681.503
196.373	14.433	900.641	681.991
197.388	14.536	900.312	682.106
198.402	14.531	899.762	681.606
199.417	14.665	899.421	681.836
200.432	14.680	898.840	681.397
201.446	14.743	898.562	681.380
202.461	14.923	898.031	681.651
203.475	14.834	897.620	680.918
204.490	14.890	897.019	680.627
205.504	14.769	895.966	679.279
206.519	14.709	895.307	678.476
207.534	14.559	895.097	677.646
208.548	14.640	893.764	676.907
209.563	14.753	892.711	676.505
210.577	14.734	892.332	676.082
211.592	14.721	891.879	675.627
212.607	14.728	891.489	675.299
213.621	14.850	890.967	675.336
214.636	14.778	890.293	674.477
215.650	14.771	889.461	673.759
216.665	14.895	888.903	673.774
217.680	14.860	888.454	673.236
218.694	14.882	887.928	672.864
219.709	14.982	887.530	672.904
220.723	15.054	886.516	672.365
221.738	14.931	886.033	671.449
222.753	14.935	885.243	670.803
223.767	15.006	884.415	670.401
224.782	15.081	883.555	669.993
225.796	15.080	883.304	669.738
226.811	15.106	882.623	669.266
227.826	15.168	881.990	668.975
228.840	14.962	881.224	667.514
229.855	14.938	880.666	666.936
230.869	15.022	879.623	666.420
231.884	14.947	879.354	665.861
232.899	14.945	878.640	665.252
233.913	14.951	877.864	664.629
234.928	14.802	877.442	663.659
235.942	14.999	876.562	663.717
236.957	14.977	875.575	662.823
237.972	14.829	875.152	661.859
238.986	14.957	874.503	661.817
240.001	15.002	873.878	661.462
241.015	14.954	873.201	660.703
242.030	14.932	873.093	660.474
243.045	15.033	871.955	659.955
244.059	15.014	871.732	659.652
245.074	15.236	870.823	659.777
246.088	15.041	870.330	658.580
247.103	15.101	870.001	658.509
248.117	15.255	869.028	658.319
249.132	15.457	868.671	658.783
250.147	15.376	868.302	658.125
251.161	15.629	867.594	658.525
252.176	15.570	866.577	657.461
253.190	15.472	866.474	656.942
254.205	15.717	865.725	657.274
255.220	15.697	864.965	656.560
256.234	15.713	864.668	656.341
257.249	15.759	863.561	655.622
258.263	15.576	863.600	654.880
259.278	15.570	862.935	654.296
260.293	15.801	862.130	654.524
261.307	15.842	861.360	654.042
262.322	15.809	861.066	653.633
263.336	15.919	860.121	653.282
264.351	15.781	860.056	652.640
265.366	15.747	859.446	651.990
266.380	15.823	858.988	651.879
267.395	15.878	857.935	651.234
268.409	15.768	857.302	650.272
269.424	15.844	856.573	649.956
270.439	15.772	855.992	649.176
271.453	15.788	854.967	648.404
272.468	15.792	854.015	647.640
273.482	15.798	853.861	647.490
274.497	15.802	853.543	647.207
275.512	15.836	852.570	646.542
276.526	15.785	851.921	645.796
277.541	15.759	851.340	645.200
278.555	15.956	850.797	645.486
279.570	15.868	850.547	644.903
280.585	16.035	849.901	644.993
281.599	16.119	849.039	644.604
282.614	16.133	848.475	644.171
283.628	15.986	847.757	643.008
284.643	16.061	847.276	642.873
285.657	15.943	846.893	642.074
286.672	15.989	846.463	641.870
287.687	15.949	845.799	641.155
288.701	15.957	845.310	640.761
289.716	15.874	845.014	640.163
290.730	16.124	844.058	640.330
291.745	16.039	843.448	639.490
292.760	16.137	842.893	639.384
293.774	16.049	842.151	638.432
294.789	16.207	841.403	638.405
295.803	16.104	841.230	637.829
296.818	16.048	840.720	637.173
297.833	15.988	840.002	636.346
298.847	15.934	839.575	635.762
299.862	16.046	838.566	635.365
300.876	16.119	837.709	634.933
301.891	16.218	837.034	634.736
302.906	16.174	836.694	634.258
303.920	16.333	836.349	634.539
304.935	16.262	835.384	633.483
305.949	16.368	834.921	633.472
306.964	16.450	834.291	633.248
307.979	16.451	833.715	632.758
308.993	16.203	833.312	631.469
310.008	16.403	832.739	631.724
311.022	16.450	832.566	631.714
312.037	16.529	831.605	631.223
313.052	16.317	831.405	630.224
314.066	16.486	830.252	629.925
315.081	16.200	829.903	628.541
316.095	16.266	829.751	628.616
317.110	16.242	828.893	627.821
318.125	16.369	828.368	627.836
319.139	16.301	827.933	627.199
320.154	16.303	827.218	626.612
321.168	16.389	826.722	626.500
322.183	16.431	826.388	626.344
323.197	16.373	826.041	625.812
324.212	16.485	825.456	625.729
325.227	16.335	824.711	624.554
326.241	16.409	824.402	624.538
327.256	16.316	823.767	623.657
328.270	16.452	823.070	623.577
329.285	16.500	822.320	623.130
330.300	16.433	822.010	622.595
331.314	16.426	821.741	622.309
332.329	16.516	820.650	621.759
333.343	16.537	820.166	621.413
334.358	16.613	819.783	621.349
335.373	16.525	819.355	620.644
336.387	16.573	818.677	620.252
337.402	16.576	818.193	619.843
338.416	16.670	817.731	619.781
339.431	16.826	817.219	619.909
340.446	16.932	816.390	619.613
341.460	16.920	815.719	619.006
342.475	16.925	815.434	618.754
343.489	16.982	814.916	618.511
344.504	16.820	814.668	617.679
345.519	16.969	813.912	617.593
346.533	17.128	813.473	617.784
347.548	17.041	813.373	617.338
348.562	16.916	812.456	616.134
349.577	16.856	811.816	615.377
350.592	16.894	811.299	615.066
351.606	16.729	810.816	614.047
352.621	16.744	810.515	613.822
353.635	16.866	809.622	613.531
354.650	16.848	809.480	613.304
355.665	16.990	808.971	613.378
356.679	16.880	808.905	612.874
357.694	16.954	808.277	612.614
358.708	17.007	807.840	612.420
359.723	16.888	807.286	611.514
360.738	17.034	806.437	611.345
361.752	17.003	806.271	611.052
362.767	16.986	806.070	610.785
363.781	17.082	805.404	610.570
364.796	17.209	804.857	610.557
365.810	17.089	804.794	610.025
366.825	17.379	803.860	610.304
367.840	17.277	804.081	610.053
368.854	17.339	803.089	609.468
369.869	17.222	802.813	608.787
370.883	17.258	802.164	608.370
371.898	17.256	801.161	607.548
372.913	17.436	801.053	608.053
373.927	17.500	800.470	607.787
374.942	17.342	800.105	606.890
375.956	17.311	799.303	606.118
376.971	17.331	798.997	605.903
377.986	17.436	798.310	605.702
379.000	17.508	798.110	605.754
380.015	17.551	797.610	605.476
381.029	17.673	796.927	605.335
382.044	17.518	796.382	604.320
383.059	17.592	795.785	604.075
384.073	17.522	795.449	603.519
385.088	17.698	794.629	603.466
386.102	17.497	793.959	602.192
387.117	17.523	793.413	601.815
388.132	17.407	793.349	601.303
389.146	17.349	793.079	600.842
390.161	17.545	792.471	601.021
391.175	17.460	792.145	600.422
392.190	17.604	791.444	600.343
393.205	17.670	791.153	600.303
394.219	17.662	790.576	599.781
395.234	17.478	790.313	598.882
396.248	17.430	789.940	598.376
397.263	17.462	789.110	597.810
398.278	17.423	788.878	597.441
399.292	17.423	788.239	596.908
400.307	17.235	788.297	596.240
401.321	17.429	787.595	596.335
402.336	17.388	786.970	595.664
403.350	17.402	786.634	595.408
404.365	17.502	786.418	595.540
405.380	17.576	785.913	595.364
406.394	17.772	785.764	595.882
407.409	17.810	784.623	595.096
408.423	17.973	784.156	595.260
409.438	17.796	784.484	594.838
410.453	17.801	783.848	594.319
411.467	17.916	783.568	594.457
412.482	18.016	782.702	594.094
413.496	18.042	782.271	593.804
414.511	18.039	782.019	593.552
415.526	18.155	781.556	593.549
416.540	17.968	781.496	592.804
417.555	18.031	781.034	592.619
418.569	17.834	780.678	591.611
419.584	18.063	779.878	591.745
420.599	17.859	779.521	590.718
421.613	155.798	1368.895	1794.836
422.628	134.419	1454.765	1794.964
