DTS Sentinel unit serial number:	SN413079Multiplexer serial number:	ORYXHardware model number:	OX4-SRSoftware version number:	ORYX F/W v4.00 Oryx Data Collector v3.7.2.0data status	okinstallation	princeton_trtdifferential loss correction	single-endedforward channel	channel 3reverse channel	N/Adate	2019/09/12time	01:42:11forward acquisition time	60.00reverse acquisition time	0.00gamma	496.2192k internal	0.2320k external	0.2320temperature offset calibration	1.0064default loss term (dB/km)	0.3790temperature slope calibration	1.0000multiplexer offset coefficient	1.0000multiplexer slope coefficient	1.0000fibre end	0.00T internal ref (°C)	32.87T ext. ref 1 (°C)	2.09T ext. ref 2 (°C)	27.48length (m)	temperature (°C)	Stokes	anti-Stokes-747.200	-146.017	0.259	-0.023
-746.185	-35.317	-0.287	0.158
-745.171	-200.000	0.028	0.194
-744.156	599.082	-0.058	0.145
-743.142	800.000	-0.015	-0.063
-742.127	54.476	0.108	0.105
-741.112	-200.000	0.180	-0.001
-740.098	-154.693	-0.323	0.022
-739.083	554.053	-0.035	0.086
-738.069	277.006	0.105	-0.189
-737.054	495.173	0.139	0.323
-736.039	172.743	0.074	0.108
-735.025	-133.036	0.185	0.024
-734.010	800.000	0.034	0.128
-732.996	146.143	0.193	-0.261
-731.981	253.866	-0.197	0.340
-730.966	39.920	-0.224	0.203
-729.952	800.000	0.041	-0.145
-728.937	800.000	0.080	-0.226
-727.923	-167.205	-0.204	0.008
-726.908	-2.180	0.289	-0.205
-725.894	150.724	-0.142	-0.195
-724.879	-153.493	-0.208	-0.015
-723.864	45.411	-0.073	-0.069
-722.850	-100.998	-0.290	-0.072
-721.835	-200.000	0.033	-0.195
-720.821	800.000	0.063	-0.207
-719.806	-118.757	-0.304	-0.054
-718.791	-27.192	0.050	-0.029
-717.777	-200.000	-0.015	0.198
-716.762	49.993	0.069	-0.066
-715.748	-15.050	-0.192	-0.124
-714.733	-200.000	-0.004	-0.186
-713.718	800.000	0.041	0.144
-712.704	614.599	-0.021	0.052
-711.689	-128.144	-0.178	0.026
-710.675	-110.622	-0.169	0.035
-709.660	-190.224	-0.062	-0.001
-708.645	-120.699	-0.253	0.043
-707.631	-99.283	0.409	-0.104
-706.616	224.310	-0.210	0.343
-705.602	-46.782	-0.353	-0.174
-704.587	72.999	0.160	-0.168
-703.572	-200.000	0.024	0.163
-702.558	410.797	0.082	0.175
-701.543	-193.587	-0.337	-0.003
-700.529	490.139	0.059	0.136
-699.514	-200.000	0.005	-0.083
-698.499	-30.161	0.037	0.021
-697.485	-200.000	0.000	-0.088
-696.470	89.639	0.078	0.088
-695.456	106.412	-0.163	-0.195
-694.441	28.271	0.183	-0.156
-693.426	-2.285	0.223	-0.158
-692.412	-146.705	0.306	-0.027
-691.397	-164.293	-0.437	0.020
-690.383	-75.820	0.042	-0.015
-689.368	-34.488	-0.138	-0.076
-688.354	174.779	-0.143	0.209
-687.339	50.620	-0.048	0.046
-686.324	-54.451	0.102	0.046
-685.310	-28.289	-0.367	-0.214
-684.295	-200.000	-0.041	0.387
-683.281	496.967	0.170	-0.394
-682.266	211.937	-0.160	0.254
-681.251	-66.049	-0.305	0.123
-680.237	42.169	0.195	0.179
-679.222	-200.000	0.009	-0.111
-678.208	353.084	0.093	0.186
-677.193	154.008	-0.048	0.066
-676.178	-36.774	-0.251	0.136
-675.164	-56.353	-0.203	0.091
-674.149	78.032	-0.254	0.274
-673.135	-115.578	0.256	0.048
-672.120	-126.436	-0.389	0.058
-671.105	-26.814	0.152	-0.090
-670.091	-24.908	0.040	-0.024
-669.076	183.252	0.088	0.132
-668.062	17.725	-0.087	0.069
-667.047	136.197	0.153	-0.201
-666.032	-37.138	0.145	0.078
-665.018	316.938	0.152	0.289
-664.003	-32.783	0.311	-0.174
-662.989	-200.000	0.021	-0.176
-661.974	194.675	0.173	-0.265
-660.959	-74.053	0.085	-0.031
-659.945	-200.000	-0.020	-0.188
-658.930	-30.944	0.146	-0.083
-657.916	80.613	0.056	-0.060
-656.901	-200.000	0.017	-0.336
-655.886	-15.548	0.222	0.143
-654.872	495.413	0.020	-0.046
-653.857	-77.584	0.140	-0.049
-652.843	-132.130	-0.710	-0.093
-651.828	-200.000	-0.005	0.246
-650.814	119.144	0.095	0.119
-649.799	-86.469	-0.286	-0.089
-648.784	-84.671	-0.393	0.125
-647.770	-31.447	-0.231	-0.131
-646.755	47.730	-0.207	-0.195
-645.741	-200.000	0.001	-0.342
-644.726	-69.708	-0.217	0.084
-643.711	336.941	0.099	-0.195
-642.697	800.000	-0.069	-0.286
-641.682	-63.952	-0.234	0.096
-640.668	-31.206	-0.308	0.175
-639.653	-61.940	-0.212	-0.089
-638.638	-54.311	-0.092	0.042
-637.624	784.344	0.051	0.141
-636.609	-200.000	-0.058	-0.393
-635.595	242.288	-0.086	-0.144
-634.580	-200.000	-0.016	0.087
-633.565	73.868	-0.109	-0.116
-632.551	800.000	0.063	0.215
-631.536	14.583	-0.035	-0.027
-630.522	-133.390	-0.402	0.051
-629.507	-200.000	0.000	0.119
-628.492	-200.000	-0.034	0.202
-627.478	-3.856	0.189	0.132
-626.463	-200.000	-0.000	0.127
-625.449	-121.688	0.161	0.027
-624.434	117.181	0.117	0.144
-623.419	-87.080	-0.169	0.052
-622.405	83.736	0.141	0.155
-621.390	-23.954	-0.283	0.171
-620.376	29.968	-0.190	-0.163
-619.361	589.428	-0.095	-0.235
-618.346	180.337	-0.161	0.237
-617.332	354.218	-0.164	-0.329
-616.317	-28.200	0.252	-0.147
-615.303	-132.195	0.108	-0.014
-614.288	220.849	0.125	0.201
-613.273	-200.000	-0.022	-0.104
-612.259	-112.165	0.252	-0.051
-611.244	-52.100	-0.319	0.149
-610.230	596.013	-0.073	0.182
-609.215	225.700	-0.065	0.106
-608.201	213.556	0.197	-0.313
-607.186	-200.000	0.247	0.001
-606.171	-200.000	-0.042	-0.436
-605.157	-186.480	-0.467	-0.007
-604.142	-165.516	-0.182	-0.008
-603.128	355.449	0.026	-0.051
-602.113	23.669	-0.067	-0.055
-601.098	79.213	0.196	0.212
-600.084	248.691	-0.177	-0.302
-599.069	800.000	-0.053	0.181
-598.055	-88.289	-0.116	-0.035
-597.040	-76.214	-0.257	0.091
-596.025	548.852	0.113	0.272
-595.011	65.157	0.130	-0.132
-593.996	-141.260	-0.202	0.021
-592.982	-63.560	0.325	-0.134
-591.967	-102.351	-0.106	-0.026
-590.952	-167.306	0.245	0.010
-589.938	800.000	0.135	-0.441
-588.923	376.496	-0.192	-0.394
-587.909	-3.954	-0.064	0.044
-586.894	-74.237	-0.116	0.042
-585.879	-200.000	-0.051	0.326
-584.865	-134.431	-0.276	-0.034
-583.850	-83.744	0.452	0.145
-582.836	135.940	0.142	-0.186
-581.821	-200.000	0.021	-0.482
-580.806	483.806	-0.061	-0.139
-579.792	-130.990	0.465	0.062
-578.777	-37.605	-0.122	-0.065
-577.763	800.000	0.052	0.177
-576.748	-12.978	-0.035	-0.023
-575.733	-144.905	-0.329	-0.030
-574.719	-200.000	-0.028	-0.172
-573.704	-161.717	0.175	0.009
-572.690	-99.547	-0.162	-0.041
-571.675	44.589	0.080	-0.074
-570.661	305.948	0.050	0.093
-569.646	1.579	0.207	-0.150
-568.631	-46.961	-0.227	0.111
-567.617	346.469	-0.149	-0.295
-566.602	-97.589	0.137	0.036
-565.588	-200.000	-0.017	-0.166
-564.573	676.414	0.019	-0.050
-563.558	-110.313	-0.143	-0.030
-562.544	-1.740	-0.092	0.065
-561.529	-89.465	0.065	-0.019
-560.515	-200.000	-0.027	-0.469
-559.500	-109.039	-0.333	0.071
-558.485	268.802	0.132	-0.233
-557.471	23.403	0.220	-0.181
-556.456	-200.000	0.001	0.160
-555.442	272.477	-0.078	0.139
-554.427	372.665	-0.118	0.241
-553.412	20.800	-0.337	-0.274
-552.398	800.000	0.040	0.111
-551.383	8.011	-0.107	-0.080
-550.369	800.000	-0.138	-0.522
-549.354	24.734	0.178	-0.148
-548.339	-176.994	-0.122	0.003
-547.325	-143.937	-0.120	-0.011
-546.310	97.126	-0.153	-0.177
-545.296	-138.431	-0.218	0.024
-544.281	-133.192	0.468	0.059
-543.266	-67.329	0.315	0.124
-542.252	180.027	-0.274	0.402
-541.237	420.424	-0.114	0.246
-540.223	150.735	0.085	-0.115
-539.208	250.764	-0.030	0.051
-538.193	-200.000	0.037	-0.222
-537.179	-95.862	0.081	0.022
-536.164	-56.452	0.160	0.071
-535.150	98.125	-0.186	0.215
-534.135	-66.457	0.116	0.046
-533.121	601.104	0.038	0.094
-532.106	-69.587	-0.307	0.118
-531.091	122.661	0.095	-0.119
-530.077	-106.358	-0.039	0.009
-529.062	800.000	-0.075	-0.257
-528.048	0.723	-0.130	0.093
-527.033	-140.428	-0.103	-0.011
-526.018	-3.372	0.023	-0.016
-525.004	153.403	-0.205	0.281
-523.989	-200.000	-0.048	-0.223
-522.975	31.343	0.095	0.082
-521.960	800.000	0.064	0.236
-520.945	-77.050	-0.416	0.145
-519.931	-118.784	-0.304	-0.054
-518.916	333.956	0.117	0.228
-517.902	-150.351	0.113	0.009
-516.887	-180.902	-0.369	0.007
-515.872	-91.245	-0.373	0.107
-514.858	-200.000	-0.056	-0.329
-513.843	-80.471	-0.066	0.022
-512.829	321.605	0.141	-0.268
-511.814	120.443	0.231	-0.288
-510.799	401.797	0.069	-0.144
-509.785	-113.815	-0.161	0.031
-508.770	-138.776	-0.313	0.034
-507.756	83.922	-0.194	0.212
-506.741	-140.933	0.282	0.029
-505.726	-12.841	0.057	-0.037
-504.712	-200.000	-0.020	0.456
-503.697	800.000	-0.111	-0.365
-502.683	84.742	-0.167	-0.184
-501.668	20.011	0.274	-0.221
-500.653	24.684	-0.199	0.165
-499.639	-200.000	-0.008	0.123
-498.624	-135.861	-0.317	0.037
-497.610	-10.690	-0.155	0.102
-496.595	125.391	0.162	0.205
-495.581	800.000	0.053	-0.230
-494.566	1.913	0.177	0.128
-493.551	-200.000	-0.133	0.001
-492.537	115.730	-0.271	-0.332
-491.522	-37.235	0.262	0.141
-490.508	-109.554	0.326	-0.069
-489.493	800.000	-0.046	-0.171
-488.478	2.405	0.149	0.108
-487.464	-5.278	-0.246	-0.169
-486.449	-146.876	-0.114	0.010
-485.435	97.051	-0.162	-0.185
-484.420	-200.000	-0.020	0.233
-483.405	264.948	0.169	0.294
-482.391	-102.371	-0.169	-0.040
-481.376	398.028	-0.156	0.326
-480.362	-200.000	0.070	-0.331
-479.347	578.537	-0.071	0.173
-478.332	-200.000	-0.002	0.213
-477.318	-80.699	0.322	-0.107
-476.303	126.465	0.147	-0.186
-475.289	400.486	-0.089	-0.186
-474.274	-39.120	0.195	0.103
-473.259	-34.148	-0.017	-0.009
-472.245	279.186	0.117	-0.208
-471.230	800.000	0.044	0.166
-470.216	-68.735	0.250	0.097
-469.201	-200.000	0.002	0.459
-468.186	-102.040	0.061	-0.015
-467.172	-72.847	-0.281	0.103
-466.157	-105.262	-0.269	0.061
-465.143	-119.509	0.236	0.041
-464.128	-200.000	-0.069	-0.346
-463.113	131.828	0.243	0.313
-462.099	67.509	0.116	-0.118
-461.084	-118.880	-0.195	-0.034
-460.070	-76.895	0.201	0.070
-459.055	-67.582	0.377	-0.148
-458.040	-25.940	0.088	0.052
-457.026	65.273	0.174	-0.176
-456.011	299.566	0.048	-0.089
-454.997	-157.390	0.123	0.007
-453.982	72.559	0.098	0.102
-452.968	-120.669	0.253	-0.043
-451.953	-112.144	-0.184	0.037
-450.938	-112.009	-0.241	0.049
-449.924	-200.000	0.009	-0.129
-448.909	-200.000	0.002	0.270
-447.895	22.835	0.216	0.177
-446.880	800.000	0.075	-0.219
-445.865	800.000	-0.064	0.243
-444.851	-200.000	-0.040	0.192
-443.836	245.501	-0.199	0.335
-442.822	-200.000	0.006	0.167
-441.807	-145.090	-0.130	-0.012
-440.792	-200.000	-0.034	-0.194
-439.778	522.592	-0.025	-0.059
-438.763	59.590	-0.131	-0.129
-437.749	-200.000	-0.016	-0.469
-436.734	18.474	-0.167	-0.133
-435.719	-86.187	0.117	0.036
-434.705	-73.403	-0.181	0.066
-433.690	154.526	-0.187	0.256
-432.676	17.886	-0.106	0.084
-431.661	-46.324	0.256	-0.126
-430.646	139.910	-0.204	0.269
-429.632	-191.405	0.376	-0.004
-428.617	62.290	-0.241	-0.241
-427.603	-70.745	-0.152	0.057
-426.588	-137.589	0.227	-0.026
-425.573	-32.508	0.184	0.103
-424.559	47.094	0.219	0.204
-423.544	-110.063	0.152	0.032
-422.530	176.887	-0.067	0.097
-421.515	-56.249	-0.177	0.079
-420.500	-155.407	-0.425	-0.027
-419.486	-99.416	-0.255	-0.064
-418.471	38.790	0.080	-0.072
-417.457	251.633	0.069	-0.117
-416.442	-81.268	0.216	0.071
-415.428	-82.834	-0.248	-0.080
-414.413	215.210	-0.300	0.474
-413.398	-200.000	0.031	0.166
-412.384	-121.031	0.289	0.048
-411.369	-114.784	0.274	-0.052
-410.355	-138.827	0.443	0.048
-409.340	261.896	0.122	0.212
-408.325	-159.131	0.179	0.010
-407.311	-30.652	-0.193	-0.109
-406.296	68.478	0.107	0.110
-405.282	254.189	-0.122	-0.207
-404.267	3.895	-0.192	0.140
-403.252	-200.000	0.039	0.194
-402.238	-200.000	-0.015	0.177
-401.223	55.073	0.130	-0.125
-400.209	328.767	-0.186	-0.357
-399.194	-104.084	-0.131	-0.030
-398.179	185.484	0.071	0.105
-397.165	-68.664	0.125	0.048
-396.150	-39.394	-0.126	-0.066
-395.136	-38.998	-0.226	-0.118
-394.121	-117.763	-0.140	0.025
-393.106	-152.703	0.187	-0.013
-392.092	-64.303	-0.275	0.112
-391.077	-73.046	-0.443	0.162
-390.063	21.709	0.107	0.087
-389.048	147.587	0.214	-0.288
-388.033	106.956	0.210	-0.249
-387.019	-20.971	0.052	-0.032
-386.004	-0.373	-0.358	0.254
-384.990	-136.838	0.131	0.015
-383.975	-91.257	-0.040	-0.011
-382.960	-185.199	0.281	0.004
-381.946	62.591	0.250	-0.249
-380.931	92.405	-0.156	-0.176
-379.917	-42.710	0.192	0.097
-378.902	34.249	-0.260	-0.226
-377.888	-93.392	-0.352	0.097
-376.873	76.586	-0.150	-0.158
-375.858	-200.000	0.027	-0.322
-374.844	3.962	-0.230	0.167
-373.829	-158.061	0.177	0.010
-372.815	-134.262	-0.195	0.024
-371.800	-104.504	0.132	0.030
-370.785	800.000	-0.040	0.113
-369.771	235.946	0.171	0.282
-368.756	-200.000	-0.003	0.163
-367.742	-73.015	0.159	0.058
-366.727	800.000	0.084	-0.276
-365.712	-65.766	-0.286	-0.114
-364.698	-59.400	0.101	-0.043
-363.683	176.509	0.018	-0.026
-362.669	288.791	-0.023	0.041
-361.654	-89.003	-0.169	0.050
-360.639	142.290	-0.168	-0.223
-359.625	95.256	-0.092	0.104
-358.610	14.361	0.061	0.047
-357.596	-15.962	-0.124	-0.079
-356.581	-184.702	0.245	0.004
-355.566	-200.000	0.042	-0.355
-354.552	45.433	-0.240	0.221
-353.537	-162.164	-0.457	0.023
-352.523	-65.643	-0.273	0.109
-351.508	-95.121	0.073	0.020
-350.493	-108.978	-0.091	-0.019
-349.479	464.299	-0.193	0.430
-348.464	-26.878	0.360	-0.209
-347.450	-42.203	0.154	0.078
-346.435	-200.000	-0.024	-0.161
-345.420	97.183	0.035	0.040
-344.406	800.000	0.017	0.054
-343.391	800.000	-0.076	0.231
-342.377	-163.158	0.045	0.002
-341.362	-200.000	0.007	0.212
-340.348	69.768	0.173	-0.178
-339.333	-56.935	0.559	-0.246
-338.318	800.000	-0.036	0.148
-337.304	-200.000	-0.045	-0.214
-336.289	-2.454	0.089	0.062
-335.275	-24.014	0.164	0.098
-334.260	56.638	-0.253	0.245
-333.245	-2.083	0.136	0.095
-332.231	134.280	-0.047	-0.061
-331.216	-90.398	-0.201	0.058
-330.202	291.731	0.141	-0.256
-329.187	465.477	-0.052	0.115
-328.172	-67.371	-0.264	-0.103
-327.158	-14.561	0.080	-0.051
-326.143	-149.168	0.204	0.016
-325.129	-111.719	-0.247	-0.050
-324.114	-18.641	0.008	0.005
-323.099	-50.942	0.126	-0.059
-322.085	-147.452	0.306	0.026
-321.070	52.148	0.367	0.348
-320.056	-200.000	0.021	0.250
-319.041	-200.000	-0.001	0.064
-318.026	-112.747	0.011	-0.002
-317.012	-168.836	-0.146	0.005
-315.997	348.765	-0.155	-0.303
-314.983	800.000	-0.054	0.188
-313.968	125.334	0.191	-0.240
-312.953	-200.000	0.005	0.117
-311.939	800.000	-0.081	0.262
-310.924	462.202	-0.250	0.554
-309.910	92.590	-0.210	-0.236
-308.895	305.378	0.057	-0.106
-307.880	-124.968	0.101	0.015
-306.866	-22.021	0.138	-0.083
-305.851	70.330	-0.107	-0.110
-304.837	-195.980	0.216	-0.002
-303.822	-200.000	-0.022	-0.106
-302.807	-136.298	0.367	0.043
-301.793	4.372	0.213	0.155
-300.778	413.199	-0.148	-0.313
-299.764	-51.159	0.213	0.099
-298.749	187.301	0.010	0.015
-297.735	-38.974	0.220	0.115
-296.720	-94.113	0.384	0.105
-295.705	485.929	0.026	0.059
-294.691	-91.690	0.324	-0.091
-293.676	-200.000	0.026	0.382
-292.662	321.905	0.038	-0.072
-291.647	-78.507	-0.299	0.102
-290.632	-11.148	0.178	0.117
-289.618	-58.196	0.179	-0.077
-288.603	-95.855	0.153	0.041
-287.589	-19.197	-0.405	0.250
-286.574	413.538	0.103	0.218
-285.559	-123.050	-0.350	-0.056
-284.545	180.606	-0.214	-0.312
-283.530	-200.000	0.031	0.244
-282.516	104.765	-0.045	-0.053
-281.501	181.434	-0.058	-0.085
-280.486	165.749	-0.084	0.118
-279.472	198.428	-0.026	0.040
-278.457	146.196	0.126	0.168
-277.443	-121.181	0.135	0.022
-276.428	-56.912	0.131	0.057
-275.413	800.000	0.133	-0.482
-274.399	-77.166	-0.226	0.078
-273.384	-22.706	-0.221	0.132
-272.370	-180.616	0.115	0.002
-271.355	423.868	-0.078	0.166
-270.340	-30.502	0.084	-0.048
-269.326	-114.862	0.091	-0.017
-268.311	-112.678	0.363	-0.072
-267.297	65.333	0.059	-0.059
-266.282	-135.148	0.020	-0.002
-265.267	-37.047	0.315	-0.167
-264.253	-65.438	-0.158	-0.063
-263.238	37.500	0.167	-0.147
-262.224	50.669	-0.135	0.127
-261.209	-200.000	0.037	-0.203
-260.195	710.094	-0.075	0.196
-259.180	-142.077	0.230	-0.023
-258.165	27.910	-0.129	-0.108
-257.151	-68.389	-0.335	0.129
-256.136	-200.000	0.021	-0.098
-255.122	-61.110	0.205	0.086
-254.107	146.787	0.052	0.069
-253.092	800.000	-0.118	0.414
-252.078	-97.051	-0.169	-0.044
-251.063	-106.610	0.458	-0.101
-250.049	419.634	-0.050	0.107
-249.034	11.580	0.157	-0.119
-248.019	800.000	-0.087	0.312
-247.005	800.000	0.093	-0.296
-245.990	-51.926	-0.112	-0.052
-244.976	-98.839	0.110	-0.028
-243.961	12.789	0.244	-0.187
-242.946	-18.649	0.241	-0.149
-241.932	-200.000	0.194	-0.001
-240.917	49.970	-0.220	0.206
-239.903	-147.205	0.496	-0.042
-238.888	-189.051	0.142	0.002
-237.873	459.063	-0.079	-0.175
-236.859	19.996	0.303	-0.242
-235.844	-13.578	0.077	-0.050
-234.830	800.000	0.033	0.108
-233.815	-187.773	0.352	0.005
-232.800	-200.000	0.054	-0.409
-231.786	-28.341	-0.159	-0.091
-230.771	-29.789	-0.219	0.124
-229.757	1.182	-0.058	-0.041
-228.742	195.914	-0.207	0.313
-227.727	-20.017	0.257	0.157
-226.713	-168.465	0.213	0.008
-225.698	-200.000	0.017	0.192
-224.684	-200.000	0.053	0.336
-223.669	-50.712	-0.356	-0.166
-222.655	-42.294	0.249	-0.126
-221.640	14.348	0.070	0.054
-220.625	-5.699	-0.184	-0.125
-219.611	60.038	0.105	-0.103
-218.596	-30.392	0.178	0.100
-217.582	706.765	0.041	-0.106
-216.567	-20.268	0.312	0.190
-215.552	-46.685	0.284	0.138
-214.538	-117.482	0.081	-0.014
-213.523	41.501	0.280	0.251
-212.509	-12.445	0.083	0.054
-211.494	-74.515	0.376	0.134
-210.479	-64.333	-0.104	0.042
-209.465	-56.697	0.250	0.110
-208.450	-157.079	-0.308	0.019
-207.436	800.000	0.197	-0.589
-206.421	528.137	0.111	-0.259
-205.406	-51.676	-0.334	0.154
-204.392	56.344	-0.064	-0.062
-203.377	59.458	-0.233	-0.227
-202.363	800.000	0.069	0.194
-201.348	-97.703	-0.000	0.000
-200.333	43.394	-0.195	-0.177
-199.319	-4.496	0.234	0.160
-198.304	758.727	-0.050	0.135
-197.290	82.671	0.140	-0.151
-196.275	-200.000	-0.050	-0.333
-195.260	286.960	-0.179	0.320
-194.246	800.000	-0.047	0.198
-193.231	-54.141	-0.272	-0.123
-192.217	-64.627	0.261	-0.105
-191.202	33.046	0.062	-0.053
-190.187	110.554	0.126	0.150
-189.173	-12.948	0.095	-0.061
-188.158	201.788	0.120	0.183
-187.144	-117.784	0.103	0.018
-186.129	-200.000	0.047	0.517
-185.114	90.574	0.149	-0.165
-184.100	800.000	-0.061	0.220
-183.085	50.914	-0.128	-0.120
-182.071	64.271	0.025	0.025
-181.056	-81.311	-0.054	0.018
-180.042	-103.709	-0.066	0.015
-179.027	-107.732	0.256	0.055
-178.012	140.070	0.107	0.140
-176.998	75.302	0.220	-0.229
-175.983	-200.000	0.037	0.206
-174.969	181.818	-0.057	-0.083
-173.954	163.677	0.093	0.129
-172.939	97.735	-0.151	-0.172
-171.925	-85.247	-0.073	-0.023
-170.910	51.056	-0.246	0.231
-169.896	152.239	-0.089	-0.120
-168.881	130.289	0.279	-0.354
-167.866	-180.767	-0.115	-0.002
-166.852	426.150	-0.082	-0.175
-165.837	-66.208	0.135	-0.053
-164.823	-40.727	-0.100	-0.051
-163.808	55.172	0.196	0.188
-162.793	-96.759	0.126	-0.033
-161.779	19.811	0.251	-0.200
-160.764	-40.696	-0.286	-0.147
-159.750	279.032	0.121	0.213
-158.735	800.000	-0.099	-0.318
-157.720	456.884	-0.128	0.282
-156.706	-128.401	-0.260	0.036
-155.691	-54.732	-0.285	0.127
-154.677	-50.121	0.342	0.160
-153.662	650.533	-0.064	-0.163
-152.647	800.000	0.078	0.216
-151.633	800.000	0.137	-0.481
-150.618	391.040	0.101	0.207
-149.604	-25.417	-0.251	0.147
-148.589	279.611	0.021	-0.036
-147.574	397.280	0.108	-0.224
-146.560	-37.932	-0.260	0.136
-145.545	-52.060	0.089	0.041
-144.531	106.345	0.092	-0.108
-143.516	-152.501	0.238	0.017
-142.502	101.456	-0.181	0.208
-141.487	-5.307	-0.058	0.039
-140.472	-117.908	-0.165	-0.029
-139.458	-200.000	-0.023	0.301
-138.443	269.524	-0.116	-0.201
-137.429	220.499	0.137	0.217
-136.414	71.653	-0.149	-0.153
-135.399	387.938	-0.100	-0.203
-134.385	54.254	0.200	-0.190
-133.370	160.751	-0.095	-0.131
-132.356	-43.025	0.133	-0.067
-131.341	49.635	0.319	0.297
-130.326	402.638	0.059	-0.123
-129.312	543.872	-0.095	0.225
-128.297	-102.778	-0.320	0.075
-127.283	111.168	-0.167	0.199
-126.268	800.000	0.091	-0.291
-125.253	-85.505	-0.280	-0.086
-124.239	-195.788	-0.193	-0.001
-123.224	800.000	0.012	0.049
-122.210	521.232	0.077	-0.178
-121.195	528.255	-0.069	-0.161
-120.180	-48.735	-0.223	0.106
-119.166	-200.000	0.036	-0.224
-118.151	284.473	0.119	0.211
-117.137	749.674	-0.175	-0.467
-116.122	-92.082	-0.155	0.043
-115.107	661.422	0.067	-0.169
-114.093	-200.000	-0.021	0.318
-113.078	93.735	-0.163	0.182
-112.064	-200.000	-0.004	-0.042
-111.049	-44.696	0.132	0.065
-110.034	632.655	-0.062	0.156
-109.020	-200.000	0.001	0.277
-108.005	-200.000	-0.009	0.106
-106.991	53.598	0.249	-0.235
-105.976	711.561	-0.027	-0.071
-104.962	-200.000	0.001	0.100
-103.947	-169.546	-0.129	-0.005
-102.932	11.136	0.454	0.342
-101.918	-200.000	-0.067	0.393
-100.903	477.590	-0.056	0.125
-99.889	94.333	-0.263	-0.294
-98.874	322.415	-0.138	0.260
-97.859	-9.615	-0.094	0.062
-96.845	-200.000	0.269	-0.000
-95.830	-36.780	-0.221	-0.117
-94.816	800.000	-0.046	-0.191
-93.801	800.000	-0.072	0.259
-92.786	-200.000	0.021	-0.127
-91.772	-200.000	-0.046	-0.410
-90.757	-95.000	-0.172	0.046
-89.743	183.307	-0.083	-0.120
-88.728	-200.000	0.004	-0.180
-87.713	33.118	0.136	0.116
-86.699	-71.808	0.176	-0.065
-85.684	58.975	0.142	0.137
-84.670	-133.006	0.092	0.011
-83.655	-93.550	-0.101	0.027
-82.640	-119.678	-0.360	0.061
-81.626	165.963	-0.084	-0.118
-80.611	211.846	-0.092	0.143
-79.597	-200.000	0.041	0.246
-78.582	800.000	0.109	-0.381
-77.567	800.000	-0.050	-0.197
-76.553	31.014	0.269	0.227
-75.538	800.000	-0.023	-0.070
-74.524	-200.000	0.030	-0.216
-73.509	800.000	0.050	0.211
-72.494	-200.000	0.007	-0.035
-71.480	-31.983	-0.033	0.018
-70.465	-188.373	0.388	0.005
-69.451	-200.000	-0.025	0.200
-68.436	-175.912	0.081	0.002
-67.422	54.033	-0.061	-0.058
-66.407	125.130	-0.119	-0.148
-65.392	713.849	0.109	-0.284
-64.378	-200.000	-0.006	-0.163
-63.363	508.899	0.045	0.104
-62.349	-73.801	-0.113	0.040
-61.334	82.657	-0.851	-0.910
-60.319	59.355	0.459	0.445
-59.305	800.000	-0.296	-1.059
-58.290	426.769	0.520	1.104
-57.276	573.677	0.625	1.500
-56.261	-200.000	96.635	578.399
-55.246	554.195	1377.613	3261.983
-54.232	160.472	2551.100	3503.917
-53.217	110.937	2161.014	2560.776
-52.203	43.198	1706.314	1533.246
-51.188	36.127	1520.694	1318.263
-50.173	33.689	1493.066	1277.865
-49.159	52.852	1542.169	1451.467
-48.144	54.648	1559.929	1480.415
-47.130	36.164	1519.516	1317.286
-46.115	33.263	1504.520	1284.575
-45.100	33.053	1501.189	1280.256
-44.086	32.941	1499.816	1278.275
-43.071	32.849	1497.821	1275.904
-42.057	32.850	1496.286	1274.550
-41.042	32.961	1494.561	1273.783
-40.027	32.937	1493.046	1272.279
-39.013	32.789	1491.918	1270.270
-37.998	32.870	1490.236	1269.331
-36.984	32.937	1489.568	1269.163
-35.969	32.898	1488.242	1267.723
-34.954	32.916	1486.947	1266.690
-33.940	32.862	1485.507	1265.051
-32.925	32.887	1484.170	1264.025
-31.911	32.945	1482.667	1263.084
-30.896	32.920	1481.814	1262.139
-29.881	33.007	1480.006	1261.133
-28.867	32.866	1479.120	1259.382
-27.852	32.990	1477.040	1258.392
-26.838	33.004	1475.823	1257.398
-25.823	32.918	1473.871	1255.115
-24.809	32.906	1472.664	1253.956
-23.794	32.957	1470.755	1252.616
-22.779	32.869	1470.347	1251.640
-21.765	32.988	1468.447	1250.756
-20.750	32.859	1467.870	1249.363
-19.736	32.879	1466.305	1248.113
-18.721	32.870	1465.464	1247.286
-17.706	32.947	1464.303	1246.757
-16.692	32.888	1463.202	1245.386
-15.677	32.848	1462.220	1244.233
-14.663	32.791	1461.303	1243.032
-13.648	32.808	1460.591	1242.488
-12.633	32.809	1459.646	1241.640
-11.619	32.757	1459.464	1241.095
-10.604	32.864	1457.899	1240.416
-9.590	32.814	1457.108	1239.365
-8.575	32.808	1456.418	1238.690
-7.560	32.806	1455.558	1237.898
-6.546	32.868	1454.616	1237.451
-5.531	32.850	1453.499	1236.334
-4.517	32.801	1452.440	1235.064
-3.502	32.746	1451.361	1233.740
-2.487	32.727	1451.053	1233.305
-1.473	32.683	1449.585	1231.721
-0.458	32.796	1447.943	1231.016
0.556	33.240	1439.100	1220.349
1.571	30.555	1414.895	1182.661
2.586	27.330	1362.454	1118.936
3.600	25.780	1285.594	1046.717
4.615	24.278	1237.824	999.320
5.629	20.696	1179.725	933.160
6.644	10.953	1092.550	815.507
7.659	3.318	1050.085	746.833
8.673	2.393	1044.741	738.504
9.688	2.080	1041.361	734.545
10.702	1.896	1039.605	732.356
11.717	1.981	1037.758	731.399
12.731	5.639	1041.799	751.763
13.746	15.482	1056.096	809.697
14.761	23.127	1066.176	854.429
15.775	25.031	1067.591	864.687
16.790	25.298	1067.260	865.626
17.804	25.235	1066.654	864.755
18.819	24.989	1065.886	862.872
19.834	25.142	1065.006	862.821
20.848	25.072	1064.977	862.384
21.863	25.357	1064.458	863.258
22.877	25.185	1064.118	862.076
23.892	25.216	1063.594	861.726
24.907	25.088	1062.568	860.206
25.921	25.004	1062.529	859.694
26.936	25.115	1061.254	859.116
27.950	25.107	1060.305	858.234
28.965	25.149	1058.784	857.128
29.980	25.034	1057.618	855.559
30.994	25.068	1056.400	854.662
32.009	25.182	1055.665	854.536
33.023	25.291	1054.836	854.308
34.038	25.048	1054.197	852.559
35.053	25.077	1052.914	851.580
36.067	25.196	1052.450	851.698
37.082	25.089	1052.031	850.777
38.096	25.349	1050.451	850.654
39.111	25.387	1050.552	850.841
40.126	25.494	1049.390	850.330
41.140	25.405	1048.245	848.905
42.155	25.182	1046.492	846.359
43.169	24.772	1045.681	843.694
44.184	24.788	1044.524	842.764
45.199	24.886	1043.518	842.338
46.213	24.948	1042.435	841.681
47.228	24.725	1041.847	840.086
48.242	24.905	1041.262	840.384
49.257	25.124	1040.474	840.698
50.271	25.154	1039.819	840.235
51.286	25.166	1039.153	839.680
52.301	25.284	1038.623	839.728
53.315	25.387	1037.745	839.425
54.330	25.218	1037.071	838.018
55.344	25.234	1036.383	837.462
56.359	25.279	1035.188	836.631
57.374	25.295	1034.186	835.824
58.388	25.096	1033.464	834.238
59.403	24.924	1032.924	832.931
60.417	25.052	1032.294	832.941
61.432	24.674	1032.117	830.968
62.447	24.852	1031.114	830.915
63.461	25.001	1030.668	831.172
64.476	24.967	1029.623	830.099
65.490	24.978	1028.794	829.410
66.505	24.972	1027.856	828.553
67.520	24.968	1026.961	827.737
68.534	25.022	1026.081	827.205
69.549	24.896	1025.779	826.308
70.563	24.578	1023.946	823.292
71.578	24.525	1022.973	822.195
72.593	24.460	1022.555	821.486
73.607	24.487	1021.069	820.342
74.622	24.355	1020.395	819.124
75.636	24.619	1019.734	819.731
76.651	24.760	1019.254	819.919
77.666	24.675	1018.129	818.554
78.680	24.531	1017.368	817.209
79.695	24.660	1016.595	817.107
80.709	24.635	1016.328	816.706
81.724	24.899	1015.170	816.906
82.739	24.771	1014.398	815.629
83.753	24.866	1013.768	815.482
84.768	25.103	1013.057	815.916
85.782	25.438	1012.639	817.034
86.797	25.477	1011.827	816.481
87.812	25.564	1010.994	816.134
88.826	25.346	1010.064	814.322
89.841	25.348	1009.410	813.729
90.855	25.447	1008.978	813.761
91.870	25.443	1007.947	812.839
92.884	25.445	1007.092	812.086
93.899	25.303	1006.037	810.520
94.914	25.366	1004.657	809.623
95.928	25.322	1004.336	809.095
96.943	25.192	1003.974	808.143
97.957	25.180	1002.060	806.481
98.972	24.974	1001.104	804.713
99.987	24.662	1000.118	802.450
101.001	24.800	999.492	802.493
102.016	25.150	999.353	803.882
103.030	25.245	998.463	803.519
104.045	25.147	997.434	802.182
105.060	24.995	996.084	800.348
106.074	24.752	995.267	798.536
107.089	24.621	994.434	797.213
108.103	25.108	994.134	799.070
109.118	25.267	993.103	798.880
110.133	24.934	992.154	796.566
111.147	24.920	990.842	795.377
112.162	24.774	989.797	793.819
113.176	24.707	988.483	792.402
114.191	24.803	987.808	792.213
115.206	24.821	987.466	791.948
116.220	24.519	986.117	789.462
117.235	24.369	985.129	787.937
118.249	24.574	984.463	788.240
119.264	24.642	984.102	788.182
120.279	24.471	983.202	786.636
121.293	24.469	982.391	785.910
122.308	24.561	981.520	785.549
123.322	24.539	981.050	785.005
124.337	24.593	979.942	784.289
125.352	24.498	978.067	782.302
126.366	24.094	976.806	779.457
127.381	23.678	975.435	776.477
128.395	24.169	975.232	778.388
129.410	24.950	975.300	781.787
130.424	25.271	974.100	782.153
131.439	25.181	972.896	780.728
132.454	25.038	972.306	779.563
133.468	25.038	971.498	778.846
134.483	25.048	970.353	777.902
135.497	24.970	970.371	777.509
136.512	25.237	969.205	777.662
137.527	25.302	968.419	777.246
138.541	25.341	967.543	776.642
139.556	25.270	967.439	776.184
140.570	25.329	966.269	775.432
141.585	25.366	965.471	774.880
142.600	25.492	964.607	774.664
143.614	25.375	963.532	773.229
144.629	25.409	963.078	772.939
145.643	25.648	962.663	773.567
146.658	25.594	961.320	772.188
147.673	25.254	960.370	769.897
148.687	25.138	959.377	768.534
149.702	25.075	958.532	767.522
150.716	25.087	957.377	766.580
151.731	25.053	956.615	765.758
152.746	25.211	955.528	765.492
153.760	25.329	955.109	765.593
154.775	25.448	954.827	765.808
155.789	25.529	954.016	765.434
156.804	25.555	952.920	764.596
157.819	25.428	951.822	763.107
158.833	25.583	950.868	762.934
159.848	25.631	950.348	762.653
160.862	25.644	949.736	762.148
161.877	25.487	948.961	760.793
162.892	25.582	947.580	760.021
163.906	25.512	946.868	759.089
164.921	25.532	946.274	758.631
165.935	25.407	945.266	757.226
166.950	25.522	944.207	756.796
167.964	25.535	943.254	756.020
168.979	25.400	942.542	754.816
169.994	25.406	941.271	753.755
171.008	25.168	940.817	752.326
172.023	25.335	939.515	751.920
173.037	25.695	938.935	752.894
174.052	25.432	937.823	750.836
175.067	25.202	936.799	748.989
176.081	25.247	935.936	748.422
177.096	25.313	935.266	748.097
178.110	25.295	934.746	747.537
179.125	25.192	933.519	746.064
180.140	24.897	932.410	743.883
181.154	24.842	931.816	743.115
182.169	25.001	931.538	743.489
183.183	25.221	931.482	744.290
184.198	25.618	930.610	745.174
185.213	25.475	929.997	744.025
186.227	25.314	929.685	743.041
187.242	25.425	929.243	743.082
188.256	25.617	927.830	742.682
189.271	25.592	927.067	741.899
190.286	25.557	926.606	741.320
191.300	25.420	925.808	740.052
192.315	24.873	924.254	736.496
193.329	24.070	922.816	731.984
194.344	23.912	921.552	730.269
195.359	24.336	922.118	732.395
196.373	25.044	922.622	735.638
197.388	25.508	922.200	737.138
198.402	25.255	921.626	735.577
199.417	25.416	920.755	735.476
200.432	25.507	920.208	735.345
201.446	25.289	919.615	733.915
202.461	25.028	918.774	732.113
203.475	25.085	918.136	731.774
204.490	24.762	916.646	729.207
205.504	23.423	914.994	722.375
206.519	23.872	914.828	724.008
207.534	24.655	915.366	727.560
208.548	24.795	914.789	727.607
209.563	25.242	914.422	729.063
210.577	25.348	913.601	728.776
211.592	24.962	913.063	726.717
212.607	25.385	912.977	728.301
213.621	25.553	912.299	728.374
214.636	25.572	911.296	727.586
215.650	25.512	910.721	726.820
216.665	25.490	910.464	726.460
217.680	25.547	909.676	725.997
218.694	25.757	909.469	726.618
219.709	25.226	908.721	723.813
220.723	24.938	907.443	721.570
221.738	25.107	907.287	722.062
222.753	25.358	906.766	722.595
223.767	25.290	905.957	721.612
224.782	25.368	905.365	721.393
225.796	25.695	904.669	722.085
226.811	25.815	903.614	721.661
227.826	25.403	902.881	719.361
228.840	24.571	901.017	714.486
229.855	24.377	900.653	713.359
230.869	24.633	900.437	714.146
231.884	24.345	899.268	712.009
232.899	24.334	898.992	711.683
233.913	25.229	899.240	715.385
234.928	25.462	898.537	715.692
235.942	25.171	898.208	714.208
236.957	25.241	897.363	713.750
237.972	24.880	896.452	711.531
238.986	24.977	895.877	711.394
240.001	25.056	895.169	711.082
241.015	25.096	894.397	710.567
242.030	25.036	894.011	709.959
243.045	25.341	893.419	710.634
244.059	25.348	893.214	710.435
245.074	25.386	892.848	710.232
246.088	25.411	891.952	709.554
247.103	25.040	891.203	707.430
248.117	25.100	890.574	707.107
249.132	25.636	890.373	708.998
250.147	25.950	890.372	710.169
251.161	26.078	890.029	710.337
252.176	26.184	889.638	710.380
253.190	26.243	888.771	709.857
254.205	26.289	888.396	709.674
255.220	26.513	887.918	710.108
256.234	26.430	887.273	709.207
257.249	26.450	886.387	708.512
258.263	26.266	885.838	707.292
259.278	26.184	884.861	706.127
260.293	26.233	884.552	706.011
261.307	26.416	884.121	706.317
262.322	26.261	883.664	705.285
263.336	26.160	882.917	704.233
264.351	25.719	881.411	701.252
265.366	24.552	879.696	695.287
266.380	24.194	878.387	692.798
267.395	25.025	879.181	696.597
268.409	25.933	878.945	699.873
269.424	25.875	878.457	699.198
270.439	26.004	878.038	699.301
271.453	26.127	877.342	699.162
272.468	26.235	876.458	698.816
273.482	26.124	876.565	698.410
274.497	26.341	876.025	698.754
275.512	26.225	874.731	697.213
276.526	25.548	873.555	693.603
277.541	25.716	873.434	694.096
278.555	26.125	873.275	695.483
279.570	25.923	872.678	694.169
280.585	25.753	871.655	692.638
281.599	25.893	871.316	692.847
282.614	26.069	870.850	693.090
283.628	25.569	869.360	689.925
284.643	25.136	869.066	687.971
285.657	25.656	868.740	689.645
286.672	25.407	868.080	688.108
287.687	24.921	867.234	685.516
288.701	25.427	866.907	687.132
289.716	25.809	866.887	688.517
290.730	25.487	865.940	686.474
291.745	25.261	865.120	684.899
292.760	25.244	864.036	683.917
293.774	24.950	863.565	682.362
294.789	25.856	864.608	686.580
295.803	26.496	864.186	688.621
296.818	26.529	864.026	688.561
297.833	26.723	863.420	688.750
298.847	26.275	862.308	686.105
299.862	26.087	861.315	684.538
300.876	26.254	860.505	684.467
301.891	26.548	860.826	685.778
302.906	26.650	859.762	685.256
303.920	26.156	858.848	682.600
304.935	26.060	858.021	681.519
305.949	26.465	857.788	682.803
306.964	26.676	857.337	683.179
307.979	26.309	856.796	681.303
308.993	26.453	856.103	681.233
310.008	26.681	855.857	681.835
311.022	26.863	855.364	682.069
312.037	26.595	854.890	680.622
313.052	26.419	854.242	679.386
314.066	26.432	853.149	678.504
315.081	25.705	852.184	674.950
316.095	24.695	851.105	670.254
317.110	25.271	851.210	672.433
318.125	26.220	851.482	676.146
319.139	25.814	849.981	673.376
320.154	24.673	848.330	667.748
321.168	24.117	847.595	665.037
322.183	24.854	848.067	668.100
323.197	25.841	848.242	671.863
324.212	26.146	848.041	672.781
325.227	26.254	847.271	672.512
326.241	26.416	847.131	672.945
327.256	26.253	846.375	671.677
328.270	26.093	845.938	670.677
329.285	26.174	844.841	670.048
330.300	25.885	844.515	668.657
331.314	25.827	843.365	667.472
332.329	25.754	843.051	666.893
333.343	26.090	842.985	668.029
334.358	26.437	842.699	669.025
335.373	26.409	842.087	668.379
336.387	26.476	841.347	667.979
337.402	26.608	841.468	668.502
338.416	26.903	840.507	668.766
339.431	26.945	840.235	668.648
340.446	26.868	839.814	667.969
341.460	27.281	838.665	668.513
342.475	27.078	838.461	667.546
343.489	26.861	837.786	666.154
344.504	26.977	837.083	665.961
345.519	26.984	836.956	665.826
346.533	27.311	836.596	666.680
347.548	27.219	836.423	666.146
348.562	27.353	835.994	666.234
349.577	27.242	835.421	665.313
350.592	27.194	834.954	664.708
351.606	27.136	834.268	663.892
352.621	27.297	833.734	663.995
353.635	27.276	832.748	663.076
354.650	27.133	832.300	662.140
355.665	26.822	831.339	660.183
356.679	25.716	829.775	654.860
357.694	25.542	829.481	653.939
358.708	26.114	829.566	656.029
359.723	26.202	828.718	655.620
360.738	26.334	828.869	656.158
361.752	26.922	828.699	658.099
362.767	26.767	828.800	657.561
363.781	27.153	827.971	658.241
364.796	27.495	828.003	659.448
365.810	27.575	827.328	659.142
366.825	27.741	827.018	659.437
367.840	27.693	826.735	658.980
368.854	27.505	826.111	657.743
369.869	27.034	825.193	655.257
370.883	26.866	824.696	654.198
371.898	27.057	824.019	654.291
372.913	26.912	823.027	652.921
373.927	26.912	822.476	652.429
374.942	27.059	822.067	652.576
375.956	27.304	821.386	652.855
376.971	27.304	821.219	652.664
377.986	27.487	820.684	652.836
379.000	27.571	820.398	652.854
380.015	27.676	819.692	652.611
381.029	27.379	818.970	650.916
382.044	27.435	818.684	650.832
383.059	27.627	817.786	650.743
384.073	27.861	817.302	651.137
385.088	27.642	817.106	650.142
386.102	27.557	816.507	649.305
387.117	27.404	815.603	647.985
388.132	27.290	815.110	647.130
389.146	27.095	814.553	645.936
390.161	26.664	813.369	643.410
391.175	26.716	813.033	643.273
392.190	27.351	812.855	645.328
393.205	27.304	812.671	644.959
394.219	26.074	811.242	639.409
395.234	24.466	808.932	631.846
396.248	23.885	807.353	628.504
397.263	24.957	808.374	633.034
398.278	26.836	809.909	640.828
399.292	27.195	809.916	642.045
400.307	26.808	809.346	640.168
401.321	27.026	808.699	640.368
402.336	26.924	808.437	639.746
403.350	27.118	808.540	640.455
404.365	27.724	807.854	641.990
405.380	27.900	808.233	642.854
406.394	28.084	807.964	643.229
407.409	28.417	807.438	643.922
408.423	28.446	806.642	643.334
409.438	28.146	806.432	642.058
410.453	28.404	805.700	642.322
411.467	28.467	805.420	642.263
412.482	28.326	804.754	641.180
413.496	28.236	804.172	640.346
414.511	28.291	804.001	640.345
415.526	28.286	803.588	639.941
416.540	28.276	803.217	639.553
417.555	28.190	802.692	638.780
418.569	27.745	802.194	636.775
419.584	27.980	801.629	637.090
420.599	27.990	800.975	636.547
421.613	110.687	1284.728	1456.015
422.628	95.502	1355.195	1456.101
