DTS Sentinel unit serial number:	SN413079Multiplexer serial number:	ORYXHardware model number:	OX4-SRSoftware version number:	ORYX F/W v4.00 Oryx Data Collector v3.7.2.0data status	okinstallation	princeton_trtdifferential loss correction	single-endedforward channel	channel 3reverse channel	N/Adate	2019/09/13time	13:32:35forward acquisition time	60.00reverse acquisition time	0.00gamma	496.2192k internal	0.2303k external	0.2303temperature offset calibration	1.0146default loss term (dB/km)	0.3790temperature slope calibration	1.0000multiplexer offset coefficient	1.0000multiplexer slope coefficient	1.0000fibre end	0.00T internal ref (°C)	35.03T ext. ref 1 (°C)	4.57T ext. ref 2 (°C)	31.05length (m)	temperature (°C)	Stokes	anti-Stokes-747.200	-96.917	-0.203	0.054
-746.185	582.594	-0.019	-0.049
-745.171	131.263	0.086	-0.112
-744.156	-142.275	-0.391	0.039
-743.142	-27.801	0.111	-0.066
-742.127	85.006	0.062	0.069
-741.112	800.000	-0.053	0.180
-740.098	-49.373	-0.292	0.142
-739.083	-119.588	0.074	0.013
-738.069	261.919	-0.211	0.372
-737.054	27.105	-0.053	-0.046
-736.039	171.561	-0.161	0.236
-735.025	-27.458	-0.098	-0.058
-734.010	-200.000	0.062	-0.333
-732.996	-118.642	-0.290	-0.052
-731.981	-200.000	-0.001	0.136
-730.966	-8.335	-0.170	0.116
-729.952	182.161	0.109	-0.163
-728.937	297.883	-0.062	0.117
-727.923	800.000	-0.050	-0.151
-726.908	-200.000	0.008	0.108
-725.894	224.308	-0.270	-0.444
-724.879	-200.000	0.012	-0.099
-723.864	129.125	0.115	-0.149
-722.850	97.577	-0.148	-0.173
-721.835	-82.591	-0.126	-0.042
-720.821	-111.553	-0.209	-0.043
-719.806	-200.000	0.019	0.138
-718.791	249.978	-0.084	0.146
-717.777	800.000	-0.055	0.213
-716.762	-200.000	-0.007	-0.184
-715.748	-76.228	0.215	-0.077
-714.733	-127.690	-0.331	-0.049
-713.718	-33.486	0.196	-0.110
-712.704	-200.000	0.008	-0.117
-711.689	48.750	-0.320	0.305
-710.675	73.789	-0.196	-0.209
-709.660	21.478	0.043	-0.036
-708.645	85.099	-0.050	-0.055
-707.631	-73.486	0.078	0.029
-706.616	200.657	0.061	-0.096
-705.602	548.810	0.059	-0.145
-704.587	-18.634	0.107	0.068
-703.572	-200.000	-0.184	-0.001
-702.558	403.008	-0.126	-0.270
-701.543	-39.289	-0.108	-0.058
-700.529	183.586	0.105	-0.158
-699.514	32.381	0.363	-0.318
-698.499	135.996	0.156	-0.207
-697.485	-200.000	0.027	0.190
-696.470	-78.116	0.069	-0.024
-695.456	-78.443	-0.233	0.081
-694.441	104.760	-0.153	-0.183
-693.426	-136.748	-0.209	-0.024
-692.412	-30.968	-0.274	-0.157
-691.397	58.393	0.361	-0.360
-690.383	0.856	-0.115	0.084
-689.368	-96.128	-0.332	-0.090
-688.354	237.769	0.045	0.076
-687.339	800.000	0.051	0.164
-686.324	189.182	-0.054	0.082
-685.310	-23.089	0.260	-0.159
-684.295	-58.985	-0.130	-0.057
-683.281	-23.672	-0.176	0.107
-682.266	16.132	0.267	-0.214
-681.251	-200.000	0.041	-0.205
-680.237	356.566	0.077	0.155
-679.222	84.030	-0.039	-0.043
-678.208	-52.470	0.179	-0.084
-677.193	800.000	0.055	-0.163
-676.178	248.071	-0.205	-0.353
-675.164	188.278	-0.204	0.310
-674.149	749.883	-0.103	0.281
-673.135	-64.772	0.330	0.136
-672.120	233.828	0.141	-0.235
-671.105	560.366	-0.024	-0.060
-670.091	0.681	0.088	-0.064
-669.076	-36.674	-0.138	-0.075
-668.062	727.569	0.076	0.205
-667.047	265.781	-0.184	0.326
-666.032	207.717	-0.120	-0.190
-665.018	287.885	-0.139	-0.255
-664.003	800.000	0.093	0.293
-662.989	148.503	-0.060	0.082
-661.974	-30.460	-0.142	-0.082
-660.959	-70.328	-0.239	-0.092
-659.945	206.761	-0.070	0.111
-658.930	-109.622	0.355	-0.076
-657.916	-200.000	-0.008	0.190
-656.901	-71.966	-0.311	-0.117
-655.886	6.754	-0.118	0.089
-654.872	326.283	-0.074	0.143
-653.857	800.000	-0.024	0.079
-652.843	142.397	0.081	-0.109
-651.828	178.802	-0.097	0.143
-650.814	90.994	0.306	-0.348
-649.799	526.775	-0.062	0.147
-648.784	-180.878	-0.269	0.006
-647.770	-111.095	-0.295	0.061
-646.755	211.902	0.243	-0.389
-645.741	383.534	0.130	0.272
-644.726	-98.404	0.302	-0.079
-643.711	-100.721	-0.384	0.096
-642.697	-200.000	-0.002	0.368
-641.682	7.440	0.103	0.078
-640.668	-158.951	0.096	0.006
-639.653	800.000	-0.078	-0.245
-638.638	800.000	0.035	0.123
-637.624	402.680	-0.181	-0.387
-636.609	585.049	-0.075	0.187
-635.595	373.299	0.032	-0.066
-634.580	-93.138	0.098	0.028
-633.565	3.056	-0.073	0.054
-632.551	-131.127	-0.161	-0.022
-631.536	-68.313	-0.112	0.044
-630.522	70.944	0.102	-0.108
-629.507	-170.876	-0.154	0.005
-628.492	298.779	-0.119	-0.222
-627.478	132.003	-0.179	-0.234
-626.463	272.564	0.093	-0.166
-625.449	375.829	0.104	-0.214
-624.434	731.224	0.120	-0.326
-623.419	800.000	-0.051	-0.154
-622.405	73.901	0.077	-0.082
-621.390	800.000	-0.093	0.277
-620.376	800.000	-0.115	-0.383
-619.361	108.370	0.111	0.135
-618.346	549.798	-0.127	0.307
-617.332	124.918	-0.154	0.196
-616.317	60.921	0.118	0.119
-615.303	-48.861	0.036	-0.018
-614.288	-200.000	0.009	0.192
-613.273	263.651	-0.231	0.406
-612.259	303.433	-0.046	0.087
-611.244	55.937	-0.106	0.104
-610.230	-83.227	-0.203	-0.066
-609.215	5.905	0.332	0.249
-608.201	391.367	0.079	-0.165
-607.186	-200.000	0.063	-0.451
-606.171	159.844	-0.063	-0.089
-605.157	55.370	-0.361	-0.354
-604.142	800.000	-0.092	-0.322
-603.128	326.471	0.125	-0.243
-602.113	-154.141	-0.216	-0.015
-601.098	-96.009	0.293	0.079
-600.084	-163.164	-0.343	-0.017
-599.069	717.649	0.114	0.307
-598.055	20.854	-0.172	0.141
-597.040	-163.781	0.143	-0.007
-596.025	-115.514	-0.308	0.059
-595.011	-200.000	-0.009	-0.207
-593.996	-200.000	0.053	0.297
-592.982	-200.000	0.036	0.307
-591.967	-200.000	0.010	-0.084
-590.952	800.000	-0.048	-0.175
-589.938	120.352	-0.112	-0.141
-588.923	-101.048	0.131	0.033
-587.909	68.499	-0.073	-0.075
-586.894	17.036	0.272	-0.218
-585.879	-200.000	-0.044	-0.197
-584.865	42.529	-0.156	0.144
-583.850	151.356	-0.146	-0.201
-582.836	497.523	0.079	-0.185
-581.821	248.636	-0.080	-0.137
-580.806	-167.790	-0.130	0.005
-579.792	-200.000	0.020	-0.204
-578.777	-200.000	0.045	-0.263
-577.763	-184.040	-0.068	-0.001
-576.748	-138.433	-0.238	-0.027
-575.733	-200.000	0.027	-0.126
-574.719	671.899	-0.014	-0.037
-573.704	46.963	0.104	0.098
-572.690	170.157	-0.152	-0.221
-571.675	-48.439	-0.350	0.171
-570.661	506.010	0.045	0.105
-569.646	-200.000	0.033	-0.389
-568.631	131.416	0.189	-0.246
-567.617	4.597	0.247	0.184
-566.602	-200.000	0.019	0.089
-565.588	358.804	-0.088	-0.177
-564.573	743.542	-0.056	0.153
-563.558	-176.522	0.183	0.005
-562.544	-200.000	-0.094	0.436
-561.529	-128.068	-0.331	-0.048
-560.515	593.329	0.033	0.082
-559.500	175.027	0.079	-0.116
-558.485	126.214	-0.130	-0.166
-557.471	-97.474	0.263	-0.069
-556.456	-162.940	-0.139	-0.007
-555.442	-200.000	-0.349	-0.001
-554.427	-11.480	-0.085	-0.057
-553.412	320.259	0.059	-0.113
-552.398	-200.000	0.006	0.349
-551.383	-40.767	-0.108	-0.057
-550.369	195.203	0.081	-0.125
-549.354	-147.485	0.228	0.019
-548.339	-34.880	-0.273	0.151
-547.325	-200.000	-0.078	0.368
-546.310	-86.827	-0.197	0.061
-545.296	10.129	0.101	-0.077
-544.281	263.968	-0.068	-0.119
-543.266	-88.162	0.063	-0.019
-542.252	78.660	-0.314	-0.339
-541.237	800.000	-0.048	-0.154
-540.223	149.768	-0.082	-0.113
-539.208	142.494	-0.077	0.104
-538.193	-50.167	0.179	0.086
-537.179	474.805	-0.038	0.086
-536.164	-107.532	0.290	-0.064
-535.150	-98.330	0.164	0.043
-534.135	-64.704	-0.254	-0.104
-533.121	-115.022	0.069	0.013
-532.106	98.145	0.037	-0.044
-531.091	-55.166	0.257	-0.117
-530.077	79.557	-0.067	0.072
-529.062	-63.464	-0.484	-0.201
-528.048	-200.000	-0.020	-0.092
-527.033	-36.353	-0.027	0.015
-526.018	-200.000	-0.055	-0.360
-525.004	-135.387	-0.282	-0.034
-523.989	797.919	-0.111	-0.310
-522.975	-13.340	-0.210	0.138
-521.960	-61.375	-0.207	0.088
-520.945	-4.559	-0.328	-0.229
-519.931	-200.000	-0.016	-0.176
-518.916	65.292	0.108	0.111
-517.902	519.945	0.091	-0.216
-516.887	800.000	0.106	-0.362
-515.872	301.188	0.150	-0.280
-514.858	800.000	0.096	0.304
-513.843	12.217	0.120	0.093
-512.829	-24.020	0.138	-0.083
-511.814	-200.000	0.056	0.396
-510.799	468.503	0.037	-0.085
-509.785	-127.610	0.157	-0.023
-508.770	176.726	-0.210	-0.308
-507.756	-112.732	-0.329	0.066
-506.741	-151.827	0.407	0.030
-505.726	-97.154	0.116	-0.031
-504.712	-175.128	-0.068	-0.002
-503.697	-50.385	-0.175	0.083
-502.683	72.396	0.273	-0.287
-501.668	-140.792	-0.138	-0.014
-500.653	800.000	0.062	-0.231
-499.639	800.000	0.081	0.316
-498.624	800.000	0.025	0.084
-497.610	-56.997	0.178	0.079
-496.595	8.063	-0.082	0.062
-495.581	-156.429	-0.200	0.013
-494.566	800.000	-0.012	0.035
-493.551	190.423	-0.118	0.178
-492.537	77.642	0.115	0.123
-491.522	800.000	-0.029	-0.122
-490.508	-37.412	0.352	0.190
-489.493	-42.870	-0.246	-0.126
-488.478	60.898	-0.038	0.038
-487.464	-200.000	-0.001	-0.218
-486.449	14.177	0.098	-0.077
-485.435	97.529	-0.091	-0.106
-484.420	-123.552	-0.289	-0.046
-483.405	-3.559	0.087	0.061
-482.391	-182.667	0.333	0.006
-481.376	-28.659	-0.093	0.054
-480.362	-103.874	0.058	-0.014
-479.347	-43.316	0.228	0.116
-478.332	-20.543	-0.062	-0.038
-477.318	-109.126	0.090	0.019
-476.303	-36.627	-0.227	0.123
-475.289	-11.735	-0.325	0.215
-474.274	274.588	-0.009	-0.015
-473.259	-11.866	0.090	0.059
-472.245	-124.980	0.353	0.055
-471.230	11.995	-0.262	0.203
-470.216	167.402	-0.200	0.287
-469.201	373.966	-0.129	-0.265
-468.186	116.033	-0.120	0.148
-467.172	-99.593	0.314	-0.079
-466.157	-73.331	-0.061	0.023
-465.143	413.450	0.138	-0.297
-464.128	-29.203	0.099	-0.057
-463.113	-12.700	-0.199	-0.131
-462.099	469.733	0.059	0.133
-461.084	304.094	0.174	-0.326
-460.070	-79.733	0.210	-0.071
-459.055	87.989	0.037	-0.041
-458.040	-92.166	-0.130	0.037
-457.026	12.370	-0.139	0.108
-456.011	151.781	0.120	0.164
-454.997	178.056	-0.257	0.378
-453.982	32.559	0.168	-0.147
-452.968	-55.855	-0.350	0.157
-451.953	-200.000	-0.029	0.144
-450.938	800.000	0.114	-0.347
-449.924	126.082	0.156	-0.198
-448.909	-87.133	0.142	-0.044
-447.895	-139.579	0.120	0.013
-446.880	-79.810	-0.357	-0.121
-445.865	800.000	0.107	0.383
-444.851	800.000	-0.065	0.266
-443.836	723.273	-0.162	-0.435
-442.822	-88.448	0.107	-0.032
-441.807	7.577	0.113	0.085
-440.792	-69.346	0.149	0.057
-439.778	-97.703	-0.172	0.045
-438.763	-123.324	0.042	-0.007
-437.749	-166.667	0.139	0.006
-436.734	110.499	-0.197	0.238
-435.719	-200.000	0.003	0.109
-434.705	-30.140	-0.145	0.083
-433.690	758.500	0.068	0.185
-432.676	218.710	0.100	-0.161
-431.661	800.000	-0.090	-0.263
-430.646	-80.915	-0.250	-0.083
-429.632	455.850	0.133	0.296
-428.617	-23.214	-0.201	0.122
-427.603	661.350	0.052	0.136
-426.588	-9.452	0.362	0.243
-425.573	27.759	0.094	-0.080
-424.559	-110.765	0.173	-0.036
-423.544	39.908	0.044	0.040
-422.530	17.497	0.134	-0.107
-421.515	227.216	-0.135	0.220
-420.500	800.000	-0.034	0.119
-419.486	800.000	0.023	-0.082
-418.471	-50.738	-0.281	0.133
-417.457	-34.641	0.134	-0.074
-416.442	-53.247	0.169	-0.078
-415.428	-200.000	-0.007	0.107
-414.413	-90.345	-0.242	0.071
-413.398	17.636	-0.203	0.163
-412.384	-166.107	-0.243	-0.010
-411.369	56.470	0.253	-0.247
-410.355	98.933	0.151	0.175
-409.340	220.098	-0.151	-0.243
-408.325	288.514	0.124	-0.225
-407.311	-14.877	0.144	-0.093
-406.296	95.263	0.304	-0.348
-405.282	-200.000	-0.074	-0.336
-404.267	556.070	-0.090	-0.217
-403.252	108.168	0.194	0.233
-402.238	-200.000	-0.009	0.127
-401.223	-106.979	-0.153	-0.034
-400.209	401.709	0.129	-0.273
-399.194	157.062	-0.213	0.296
-398.179	50.801	0.113	0.107
-397.165	124.665	0.120	-0.152
-396.150	349.334	-0.143	0.283
-395.136	-126.475	-0.166	0.025
-394.121	433.414	-0.083	0.181
-393.106	665.207	0.089	-0.231
-392.092	800.000	0.075	-0.280
-391.077	800.000	0.078	-0.239
-390.063	-135.525	0.135	-0.016
-389.048	-30.211	-0.043	-0.025
-388.033	102.296	-0.134	-0.157
-387.019	-10.152	-0.192	0.128
-386.004	151.299	0.147	0.201
-384.990	-18.659	-0.293	0.183
-383.975	800.000	0.107	0.330
-382.960	-67.318	-0.106	0.042
-381.946	-36.777	0.031	-0.016
-380.931	-71.626	0.110	0.041
-379.917	-19.118	-0.064	0.040
-378.902	-11.439	0.099	0.065
-377.888	-3.390	0.116	0.081
-376.873	800.000	-0.036	-0.126
-375.858	-200.000	0.035	-0.000
-374.844	-39.601	0.309	0.163
-373.829	-111.780	0.307	-0.062
-372.815	-175.990	-0.077	-0.002
-371.800	4.591	-0.162	0.120
-370.785	753.938	-0.059	-0.159
-369.771	-161.599	0.291	0.015
-368.756	81.823	-0.119	-0.129
-367.742	334.540	0.138	-0.268
-366.727	-50.233	-0.119	-0.057
-365.712	800.000	0.061	0.268
-364.698	79.889	-0.225	0.243
-363.683	-102.004	0.349	0.084
-362.669	246.922	0.198	0.335
-361.654	-200.000	0.006	-0.044
-360.639	6.640	-0.251	0.187
-359.625	800.000	0.104	0.291
-358.610	-200.000	-0.018	-0.269
-357.596	800.000	0.054	-0.169
-356.581	31.102	0.065	-0.056
-355.566	-200.000	-0.007	-0.302
-354.552	401.025	-0.190	0.399
-353.537	-96.615	-0.284	-0.075
-352.523	139.301	-0.203	0.268
-351.508	-174.244	0.152	-0.004
-350.493	-125.115	-0.260	-0.040
-349.479	800.000	-0.056	-0.177
-348.464	-200.000	0.202	-0.000
-347.450	-42.668	0.461	0.236
-346.435	527.752	-0.055	-0.131
-345.420	800.000	-0.115	-0.474
-344.406	-200.000	0.025	0.116
-343.391	-53.721	0.108	0.050
-342.377	800.000	-0.066	-0.281
-341.362	154.576	-0.076	0.104
-340.348	98.293	-0.291	-0.337
-339.333	-189.462	0.128	0.001
-338.318	94.774	0.141	0.161
-337.304	-200.000	0.040	0.453
-336.289	-114.244	0.238	0.046
-335.275	-126.638	-0.188	-0.028
-334.260	418.253	-0.113	0.243
-333.245	29.562	-0.010	0.009
-332.231	35.075	0.151	0.133
-331.216	-44.996	-0.292	0.145
-330.202	455.796	0.068	-0.152
-329.187	231.780	-0.067	0.110
-328.172	-80.114	0.106	-0.036
-327.158	426.647	0.110	-0.238
-326.143	-44.642	0.094	-0.047
-325.129	-44.360	0.245	-0.123
-324.114	-99.956	0.270	0.068
-323.099	800.000	-0.054	0.197
-322.085	-42.181	0.077	0.039
-321.070	506.453	0.078	0.182
-320.056	-55.083	-0.298	-0.134
-319.041	-181.214	0.374	0.007
-318.026	-200.000	0.000	0.191
-317.012	537.821	0.074	0.176
-315.997	147.260	-0.160	0.216
-314.983	-200.000	0.017	0.105
-313.968	-200.000	0.010	0.165
-312.953	-66.574	-0.249	-0.099
-311.939	11.297	-0.251	-0.193
-310.924	571.470	-0.048	-0.117
-309.910	197.524	-0.046	-0.071
-308.895	-30.635	0.354	-0.201
-307.880	6.688	-0.142	0.106
-306.866	-200.000	-0.013	0.084
-305.851	-103.288	-0.168	-0.040
-304.837	-11.049	-0.166	0.110
-303.822	364.237	0.037	0.075
-302.807	16.129	-0.073	-0.057
-301.793	800.000	0.008	-0.029
-300.778	-31.750	-0.393	0.221
-299.764	-96.977	-0.216	0.057
-298.749	-68.888	-0.081	0.031
-297.735	-114.286	-0.165	0.032
-296.720	-200.000	0.013	-0.385
-295.705	-19.275	0.262	0.163
-294.691	-14.496	-0.259	0.167
-293.676	95.910	0.211	-0.242
-292.662	-116.064	0.123	0.023
-291.647	-2.646	-0.040	-0.028
-290.632	-200.000	0.043	-0.315
-289.618	7.087	0.116	0.087
-288.603	-115.910	-0.215	0.040
-287.589	243.274	-0.078	-0.131
-286.574	-38.107	-0.197	0.104
-285.559	-200.000	-0.043	0.321
-284.545	-200.000	0.023	0.326
-283.530	-17.538	-0.342	-0.215
-282.516	-101.256	0.198	-0.048
-281.501	48.673	0.207	0.194
-280.486	-56.587	0.213	-0.094
-279.472	2.455	-0.101	-0.073
-278.457	464.603	-0.039	-0.087
-277.443	55.205	0.144	-0.139
-276.428	155.027	-0.166	-0.228
-275.413	3.815	0.170	0.124
-274.399	54.825	-0.180	-0.174
-273.384	6.120	-0.104	0.077
-272.370	-30.430	-0.289	0.164
-271.355	144.763	0.079	-0.105
-270.340	6.109	-0.255	-0.189
-269.326	530.475	0.122	-0.288
-268.311	263.143	0.134	-0.232
-267.297	-64.435	-0.184	0.075
-266.282	-176.225	0.390	-0.010
-265.267	561.718	0.117	0.282
-264.253	294.345	0.164	0.300
-263.238	127.709	0.123	0.156
-262.224	8.107	-0.104	-0.078
-261.209	-200.000	0.027	0.338
-260.195	-177.991	0.267	-0.006
-259.180	-41.547	0.137	-0.070
-258.165	-58.829	0.074	-0.032
-257.151	50.073	-0.160	-0.151
-256.136	90.302	-0.210	-0.234
-255.122	-36.276	0.264	-0.142
-254.107	-124.455	0.291	-0.045
-253.092	26.425	0.129	0.108
-252.078	-200.000	-0.054	-0.240
-251.063	286.428	0.051	-0.091
-250.049	62.817	0.190	0.190
-249.034	115.912	-0.130	0.159
-248.019	-82.917	-0.167	0.054
-247.005	-200.000	0.044	0.225
-245.990	-120.798	0.024	0.004
-244.976	-147.713	-0.130	0.011
-243.961	-189.065	0.247	-0.003
-242.946	800.000	-0.069	-0.210
-241.932	-25.244	0.308	-0.182
-240.917	-78.414	-0.281	-0.096
-239.903	30.848	0.152	0.130
-238.888	15.360	-0.071	0.056
-237.873	-88.029	0.280	-0.084
-236.859	88.925	0.263	0.292
-235.844	634.770	-0.118	0.300
-234.830	800.000	0.047	0.138
-233.815	-200.000	0.019	0.189
-232.800	-124.860	0.069	-0.011
-231.786	800.000	-0.073	0.224
-230.771	214.697	0.167	-0.264
-229.757	210.478	0.176	0.276
-228.742	148.786	0.055	-0.074
-227.727	134.390	-0.036	-0.047
-226.713	800.000	-0.040	-0.113
-225.698	-8.174	-0.245	0.165
-224.684	-200.000	-0.012	0.093
-223.669	63.723	-0.158	-0.159
-222.655	-138.210	0.221	-0.024
-221.640	37.564	0.252	-0.223
-220.625	800.000	0.172	0.534
-219.611	212.984	0.349	0.549
-218.596	-200.000	0.022	0.220
-217.582	-200.000	-0.011	0.217
-216.567	675.280	0.034	-0.087
-215.552	-100.854	0.309	0.076
-214.538	-200.000	-0.029	-0.272
-213.523	7.234	-0.037	-0.027
-212.509	-75.830	-0.075	0.026
-211.494	-158.842	-0.104	-0.006
-210.479	-119.004	0.231	-0.040
-209.465	178.189	0.057	-0.083
-208.450	543.530	0.221	0.527
-207.436	126.566	0.130	-0.164
-206.421	-24.120	0.161	-0.096
-205.406	800.000	-0.101	0.391
-204.392	-115.942	0.168	-0.031
-203.377	76.457	0.076	-0.081
-202.363	740.160	0.058	0.154
-201.348	-87.789	-0.320	0.096
-200.333	-156.571	0.274	0.017
-199.319	-200.000	-0.023	-0.122
-198.304	163.500	-0.310	0.435
-197.290	-200.000	0.034	-0.250
-196.275	-98.757	-0.113	0.029
-195.260	800.000	-0.024	0.071
-194.246	-96.194	-0.229	0.061
-193.231	6.450	-0.360	0.267
-192.217	448.529	0.132	-0.289
-191.202	63.969	0.145	-0.146
-190.187	800.000	0.103	-0.309
-189.173	277.889	-0.127	0.225
-188.158	-117.253	-0.174	0.031
-187.144	-103.654	0.466	0.109
-186.129	127.817	0.292	0.369
-185.114	472.162	0.040	-0.089
-184.100	-15.202	-0.285	-0.182
-183.085	463.766	-0.132	0.295
-182.071	423.249	0.123	-0.263
-181.056	-25.679	0.335	-0.197
-180.042	5.683	-0.188	0.138
-179.027	11.494	0.198	0.151
-178.012	-200.000	0.002	-0.055
-176.998	-131.562	-0.305	-0.040
-175.983	50.620	-0.016	-0.016
-174.969	25.310	0.044	0.037
-173.954	230.161	-0.029	-0.047
-172.939	-44.761	0.169	-0.084
-171.925	-200.000	-0.010	-0.138
-170.910	800.000	-0.074	-0.225
-169.896	0.149	0.061	-0.043
-168.881	-75.761	-0.138	-0.049
-167.866	800.000	-0.080	-0.223
-166.852	16.025	0.102	-0.080
-165.837	193.946	-0.074	0.111
-164.823	-200.000	-0.078	-0.381
-163.808	-81.165	0.076	-0.025
-162.793	-133.228	-0.057	0.007
-161.779	17.642	-0.064	-0.051
-160.764	800.000	0.043	0.153
-159.750	-144.284	0.273	-0.025
-158.735	81.429	0.195	0.210
-157.720	253.702	-0.050	-0.086
-156.706	-53.367	0.172	-0.079
-155.691	4.500	-0.299	0.218
-154.677	-200.000	-0.027	-0.217
-153.662	-128.635	0.191	0.027
-152.647	109.398	0.065	0.078
-151.633	-71.176	0.227	-0.085
-150.618	-161.173	-0.443	0.023
-149.604	-113.155	0.108	-0.021
-148.589	800.000	0.075	-0.226
-147.574	-163.466	0.310	-0.015
-146.560	-200.000	0.030	0.159
-145.545	-56.491	0.275	-0.121
-144.531	-200.000	0.078	0.448
-143.516	800.000	0.111	0.353
-142.502	-200.000	0.009	0.194
-141.487	-0.606	-0.337	0.238
-140.472	120.151	0.120	-0.149
-139.458	-126.395	-0.187	-0.028
-138.443	376.463	-0.022	0.044
-137.429	52.204	-0.067	-0.064
-136.414	-125.353	-0.103	-0.016
-135.399	-23.410	0.114	0.068
-134.385	-200.000	0.052	0.307
-133.370	-172.820	-0.229	-0.007
-132.356	27.284	0.163	0.136
-131.341	-48.030	-0.141	0.068
-130.326	52.457	0.099	-0.094
-129.312	553.870	-0.049	0.116
-128.297	526.878	-0.183	0.428
-127.283	-118.641	0.015	0.003
-126.268	-9.182	0.032	0.021
-125.253	-200.000	0.020	0.125
-124.239	800.000	-0.081	0.274
-123.224	79.907	0.152	-0.162
-122.210	186.568	-0.067	-0.099
-121.195	203.888	-0.146	-0.225
-120.180	800.000	0.051	0.176
-119.166	-85.630	-0.140	0.043
-118.151	-200.000	0.025	-0.247
-117.137	114.021	-0.159	0.192
-116.122	-18.622	-0.076	-0.047
-115.107	98.511	0.134	-0.154
-114.093	88.882	0.216	0.239
-113.078	-44.223	-0.075	0.038
-112.064	-200.000	0.054	-0.237
-111.049	95.756	0.064	0.073
-110.034	234.585	0.156	0.256
-109.020	-200.000	-0.021	0.247
-108.005	800.000	-0.123	-0.376
-106.991	-200.000	0.015	0.138
-105.976	-21.955	0.073	0.044
-104.962	-127.351	-0.249	0.036
-103.947	38.571	0.263	0.233
-102.932	19.728	-0.344	-0.275
-101.918	8.415	-0.244	0.182
-100.903	-200.000	0.061	0.544
-99.889	800.000	-0.024	0.080
-98.874	-17.895	-0.172	0.107
-97.859	-193.145	0.288	0.003
-96.845	-0.543	-0.184	0.130
-95.830	-60.271	0.330	-0.140
-94.816	-200.000	0.000	0.316
-93.801	64.117	-0.035	0.035
-92.786	-111.446	0.097	0.020
-91.772	-200.000	-0.014	0.310
-90.757	-200.000	-0.013	0.073
-89.743	-200.000	0.003	0.037
-88.728	-147.590	-0.323	0.027
-87.713	3.878	0.074	-0.054
-86.699	213.621	0.040	0.064
-85.684	-53.818	-0.263	-0.119
-84.670	731.088	-0.092	0.244
-83.655	-55.521	-0.117	0.052
-82.640	800.000	0.016	-0.057
-81.626	49.629	0.090	0.084
-80.611	-97.261	-0.041	0.011
-79.597	800.000	-0.059	0.172
-78.582	-200.000	-0.047	0.217
-77.567	-74.342	0.345	0.124
-76.553	-113.297	-0.229	-0.045
-75.538	-200.000	-0.062	-0.380
-74.524	182.984	0.095	0.139
-73.509	-30.723	0.394	0.221
-72.494	-200.000	-0.002	-0.268
-71.480	-61.766	0.078	0.032
-70.465	184.480	-0.086	-0.126
-69.451	264.414	0.089	-0.153
-68.436	-200.000	-0.019	-0.094
-67.422	435.387	-0.078	0.167
-66.407	-103.252	-0.264	0.062
-65.392	60.891	0.089	0.087
-64.378	29.055	0.167	0.140
-63.363	800.000	0.055	0.173
-62.349	82.401	0.110	0.118
-61.334	100.110	-0.845	-0.972
-60.319	310.354	0.109	0.202
-59.305	-200.000	-0.016	-0.885
-58.290	66.054	0.712	0.716
-57.276	543.907	0.648	1.533
-56.261	-200.000	95.026	559.688
-55.246	633.501	1382.687	3475.008
-54.232	185.426	2606.413	3837.138
-53.217	121.334	2216.464	2736.878
-52.203	45.703	1749.023	1602.481
-51.188	38.238	1558.353	1375.442
-50.173	35.725	1530.901	1333.755
-49.159	53.258	1581.002	1501.485
-48.144	57.105	1600.070	1546.684
-47.130	38.490	1555.617	1374.578
-46.115	35.217	1540.365	1338.239
-45.100	35.134	1536.842	1334.546
-44.086	35.126	1534.602	1332.492
-43.071	35.041	1532.928	1330.397
-42.057	34.940	1531.436	1328.347
-41.042	34.928	1529.977	1326.945
-40.027	35.078	1528.297	1326.477
-39.013	35.119	1526.445	1325.099
-37.998	34.990	1525.716	1323.522
-36.984	35.059	1524.743	1323.103
-35.969	34.968	1523.314	1321.185
-34.954	35.006	1521.608	1319.913
-33.940	34.995	1520.614	1318.921
-32.925	34.925	1519.160	1317.128
-31.911	35.097	1517.356	1316.691
-30.896	35.093	1516.010	1315.446
-29.881	35.080	1514.724	1314.188
-28.867	35.054	1513.094	1312.544
-27.852	35.133	1511.516	1311.665
-26.838	35.188	1509.964	1310.640
-25.823	35.149	1508.363	1308.931
-24.809	35.046	1507.290	1307.244
-23.794	35.084	1506.304	1306.599
-22.779	35.104	1504.620	1305.221
-21.765	35.007	1504.272	1304.209
-20.750	35.124	1502.564	1303.473
-19.736	35.052	1501.470	1301.985
-18.721	35.070	1500.418	1301.143
-17.706	34.974	1499.514	1299.649
-16.692	34.924	1498.261	1298.174
-15.677	35.029	1496.863	1297.627
-14.663	35.062	1495.877	1296.941
-13.648	34.987	1495.176	1295.777
-12.633	35.027	1493.916	1294.902
-11.619	35.039	1493.114	1294.233
-10.604	34.982	1492.557	1293.314
-9.590	34.888	1492.112	1292.246
-8.575	34.991	1490.979	1291.911
-7.560	35.006	1489.538	1290.711
-6.546	35.067	1488.894	1290.508
-5.531	34.984	1488.004	1289.130
-4.517	34.983	1487.270	1288.433
-3.502	35.053	1486.264	1287.984
-2.487	35.017	1485.026	1286.620
-1.473	34.972	1484.052	1285.417
-0.458	34.927	1482.780	1283.962
0.556	37.158	1473.188	1273.868
1.571	33.925	1445.642	1229.073
2.586	29.780	1381.303	1148.591
3.600	27.589	1296.497	1065.185
4.615	25.091	1247.777	1010.999
5.629	21.107	1190.101	942.704
6.644	12.600	1104.509	831.994
7.659	5.854	1062.397	767.298
8.673	4.840	1056.524	758.054
9.688	4.522	1053.446	754.237
10.702	4.386	1051.434	752.070
11.717	4.542	1050.198	751.876
12.731	7.921	1053.558	770.590
13.746	16.300	1065.515	820.127
14.761	22.025	1072.421	853.275
15.775	22.259	1071.863	853.892
16.790	21.495	1069.750	848.428
17.804	20.368	1068.230	841.689
18.819	19.577	1066.051	836.071
19.834	19.157	1064.706	832.908
20.848	19.018	1063.974	831.592
21.863	18.999	1063.065	830.714
22.877	18.668	1062.754	828.801
23.892	18.606	1061.370	827.348
24.907	18.480	1060.725	826.168
25.921	18.502	1059.907	825.560
26.936	18.446	1059.160	824.638
27.950	18.481	1058.220	823.999
28.965	18.430	1057.476	823.102
29.980	18.512	1056.304	822.513
30.994	18.720	1054.921	822.360
32.009	18.892	1054.201	822.549
33.023	18.880	1053.821	822.122
34.038	18.925	1052.761	821.435
35.053	18.745	1051.809	819.760
36.067	18.491	1051.182	817.988
37.082	18.436	1050.349	817.005
38.096	18.487	1049.833	816.773
39.111	18.679	1048.789	816.806
40.126	18.782	1048.084	816.673
41.140	18.598	1046.659	814.615
42.155	18.337	1045.654	812.525
43.169	18.082	1044.516	810.358
44.184	18.209	1043.330	809.968
45.199	18.005	1042.398	808.209
46.213	18.048	1041.640	807.751
47.228	18.278	1040.510	807.888
48.242	18.386	1040.272	808.146
49.257	18.510	1038.981	807.652
50.271	18.600	1038.024	807.260
51.286	18.404	1037.274	805.685
52.301	18.713	1036.414	806.396
53.315	18.592	1035.550	805.089
54.330	18.624	1034.034	803.987
55.344	18.364	1033.501	802.282
56.359	18.242	1032.277	800.693
57.374	18.268	1031.692	800.288
58.388	18.431	1030.871	800.344
59.403	18.283	1030.071	798.961
60.417	18.195	1029.302	797.880
61.432	18.210	1028.142	796.982
62.447	18.163	1027.626	796.291
63.461	18.084	1026.969	795.346
64.476	18.057	1025.763	794.216
65.490	17.927	1024.811	792.804
66.505	17.921	1024.214	792.247
67.520	18.018	1023.359	791.961
68.534	18.022	1022.857	791.521
69.549	17.954	1022.173	790.608
70.563	17.919	1021.193	789.619
71.578	18.023	1020.554	789.536
72.593	17.890	1019.415	787.972
73.607	17.772	1018.506	786.652
74.622	17.772	1017.530	785.830
75.636	17.826	1016.047	784.866
76.651	17.880	1015.533	784.645
77.666	17.823	1015.333	784.162
78.680	17.770	1015.029	783.613
79.695	17.970	1013.808	783.519
80.709	17.981	1012.772	782.701
81.724	18.045	1012.683	782.855
82.739	18.175	1011.739	782.650
83.753	18.171	1011.627	782.474
84.768	18.447	1010.443	782.753
85.782	18.691	1010.026	783.474
86.797	18.914	1009.412	783.944
87.812	18.772	1008.732	782.700
88.826	18.662	1007.558	781.221
89.841	18.608	1006.520	780.098
90.855	18.737	1005.444	779.782
91.870	18.651	1005.123	779.075
92.884	18.768	1004.432	778.999
93.899	18.883	1003.698	778.882
94.914	18.702	1003.309	777.693
95.928	18.833	1002.329	777.456
96.943	18.837	1001.717	776.930
97.957	18.761	1000.707	775.735
98.972	18.749	999.298	774.522
99.987	18.623	998.777	773.479
101.001	18.820	997.857	773.587
102.016	18.687	997.728	772.822
103.030	18.634	996.572	771.619
104.045	18.706	995.437	770.995
105.060	18.704	994.752	770.385
106.074	18.640	993.493	769.056
107.089	18.388	992.524	767.108
108.103	18.219	991.542	765.527
109.118	18.111	990.505	764.175
110.133	18.009	989.986	763.250
111.147	18.107	988.781	762.692
112.162	18.064	987.631	761.547
113.176	17.987	986.903	760.576
114.191	18.207	986.252	760.987
115.206	18.255	985.437	760.503
116.220	18.260	984.773	759.946
117.235	18.161	983.629	758.554
118.249	18.187	983.158	758.239
119.264	18.156	982.276	757.355
120.279	18.022	981.459	756.065
121.293	18.026	980.590	755.347
122.308	18.036	979.821	754.733
123.322	18.113	978.407	753.916
124.337	17.738	977.939	751.834
125.352	17.843	976.548	751.161
126.366	17.903	975.666	750.679
127.381	17.771	974.599	749.212
128.395	17.676	973.774	748.095
129.410	17.878	972.546	747.974
130.424	17.955	971.732	747.617
131.439	17.995	971.158	747.282
132.454	18.100	970.376	747.073
133.468	18.288	970.029	747.561
134.483	18.192	969.165	746.411
135.497	18.171	968.392	745.660
136.512	18.234	967.497	745.176
137.527	18.195	967.109	744.646
138.541	18.251	966.020	743.984
139.556	18.300	965.187	743.487
140.570	18.265	964.924	743.069
141.585	18.409	963.948	742.875
142.600	18.581	964.004	743.599
143.614	18.696	962.676	743.008
144.629	18.665	962.465	742.643
145.643	18.787	961.385	742.270
146.658	18.834	960.067	741.391
147.673	18.603	959.184	739.648
148.687	18.501	958.305	738.466
149.702	18.372	957.502	737.225
150.716	18.207	956.560	735.726
151.731	18.098	955.880	734.669
152.746	18.131	955.178	734.207
153.760	18.178	954.915	734.140
154.775	18.292	953.541	733.506
155.789	18.459	952.863	733.636
156.804	18.526	952.067	733.245
157.819	18.483	951.243	732.362
158.833	18.486	950.391	731.655
159.848	18.673	949.900	732.010
160.862	18.809	949.395	732.133
161.877	18.716	948.851	731.254
162.892	18.566	947.387	729.425
163.906	18.453	946.249	728.002
164.921	18.231	945.361	726.313
165.935	18.287	944.552	725.864
166.950	18.353	943.482	725.260
167.964	18.349	943.160	724.929
168.979	18.450	941.765	724.221
169.994	18.291	940.723	722.683
171.008	18.360	939.853	722.240
172.023	18.384	939.291	721.846
173.037	18.579	938.445	721.954
174.052	18.656	938.367	722.155
175.067	18.737	937.071	721.434
176.081	18.577	936.241	720.057
177.096	18.239	935.166	717.752
178.110	18.176	934.422	716.852
179.125	18.334	933.726	716.919
180.140	18.454	932.732	716.592
181.154	18.305	932.625	715.823
182.169	18.422	932.292	715.992
183.183	18.656	931.282	716.129
184.198	18.679	930.464	715.537
185.213	18.687	929.898	715.072
186.227	18.820	929.121	714.961
187.242	18.725	928.600	714.105
188.256	18.867	928.324	714.418
189.271	18.888	927.791	714.030
190.286	18.885	927.312	713.587
191.300	18.956	925.886	712.721
192.315	18.309	924.792	709.138
193.329	18.127	923.706	707.488
194.344	18.069	923.605	707.108
195.359	18.212	923.223	707.344
196.373	18.452	922.363	707.613
197.388	18.503	922.310	707.723
198.402	18.705	921.357	707.761
199.417	18.800	921.797	708.429
200.432	19.007	921.271	708.814
201.446	19.150	920.682	708.887
202.461	18.983	920.877	708.286
203.475	19.254	919.552	708.321
204.490	19.281	919.187	708.087
205.504	18.919	918.175	705.759
206.519	18.910	916.948	704.717
207.534	18.921	916.230	704.145
208.548	18.834	915.436	703.119
209.563	18.923	914.936	703.038
210.577	18.839	914.358	702.187
211.592	18.823	913.950	701.747
212.607	19.076	913.452	702.332
213.621	19.097	912.865	701.907
214.636	19.185	911.922	701.477
215.650	19.009	911.199	700.144
216.665	18.963	911.113	699.829
217.680	19.148	910.422	699.988
218.694	19.275	909.530	699.756
219.709	19.242	909.535	699.562
220.723	19.177	909.064	698.874
221.738	19.288	908.061	698.492
222.753	19.155	907.133	697.177
223.767	19.223	906.375	696.807
224.782	19.240	905.554	696.186
225.796	19.364	905.393	696.500
226.811	19.439	904.873	696.340
227.826	19.452	903.511	695.282
228.840	19.234	902.955	693.917
229.855	19.008	902.299	692.442
230.869	19.261	901.507	692.788
231.884	19.196	900.783	691.908
232.899	19.121	900.110	691.032
233.913	18.933	899.283	689.580
234.928	18.951	898.622	689.087
235.942	18.927	897.720	688.237
236.957	18.966	896.955	687.744
237.972	18.918	896.514	687.156
238.986	18.894	896.030	686.627
240.001	18.909	895.467	686.193
241.015	19.032	894.461	685.854
242.030	18.962	894.187	685.302
243.045	19.055	893.547	685.124
244.059	19.091	892.951	684.747
245.074	19.228	892.336	684.761
246.088	19.276	891.634	684.351
247.103	19.178	891.675	683.932
248.117	19.462	890.876	684.386
249.132	19.479	890.545	684.140
250.147	19.652	890.166	684.471
251.161	19.936	889.321	684.889
252.176	19.924	888.724	684.319
253.190	19.974	888.317	684.144
254.205	20.139	887.431	684.051
255.220	20.166	886.865	683.662
256.234	20.065	886.196	682.685
257.249	20.193	885.414	682.528
258.263	20.038	884.971	681.517
259.278	20.022	884.868	681.313
260.293	20.006	884.013	680.533
261.307	20.238	883.158	680.723
262.322	20.173	883.164	680.413
263.336	20.171	882.424	679.774
264.351	20.214	881.716	679.337
265.366	20.238	881.016	678.833
266.380	20.229	880.545	678.374
267.395	20.340	879.709	678.104
268.409	20.092	879.198	676.682
269.424	20.073	878.316	675.871
270.439	20.041	877.566	675.106
271.453	20.210	876.375	674.788
272.468	19.965	876.113	673.574
273.482	20.122	874.986	673.258
274.497	19.880	874.724	672.057
275.512	20.097	873.788	672.122
276.526	19.990	873.201	671.194
277.541	19.941	872.681	670.546
278.555	20.012	871.910	670.171
279.570	20.097	871.708	670.281
280.585	20.303	870.918	670.411
281.599	20.450	870.660	670.722
282.614	20.288	869.761	669.345
283.628	20.137	869.338	668.381
284.643	20.087	868.726	667.657
285.657	20.151	868.034	667.312
286.672	20.127	867.471	666.726
287.687	20.003	867.022	665.845
288.701	20.300	866.516	666.540
289.716	20.208	866.156	665.852
290.730	20.218	865.665	665.451
291.745	20.096	865.526	664.817
292.760	20.280	864.505	664.679
293.774	20.268	864.022	664.205
294.789	20.332	863.166	663.732
295.803	20.525	862.795	664.127
296.818	20.213	861.789	662.101
297.833	20.258	860.550	661.265
298.847	20.213	860.279	660.826
299.862	20.186	859.715	660.231
300.876	20.221	859.299	659.985
301.891	20.291	858.535	659.606
302.906	20.442	857.979	659.697
303.920	20.588	857.681	659.960
304.935	20.641	856.620	659.287
305.949	20.885	856.404	659.986
306.964	20.718	856.365	659.268
307.979	20.593	855.114	657.770
308.993	20.665	854.424	657.455
310.008	20.662	853.896	656.980
311.022	20.692	853.867	657.013
312.037	20.652	853.307	656.374
313.052	20.522	852.642	655.312
314.066	20.499	851.572	654.344
315.081	20.265	850.782	652.799
316.095	20.378	850.079	652.629
317.110	20.226	849.738	651.736
318.125	20.335	849.033	651.547
319.139	20.403	848.843	651.602
320.154	20.398	848.014	650.887
321.168	20.178	847.733	649.790
322.183	20.328	847.257	649.927
323.197	20.441	846.859	649.988
324.212	20.426	846.297	649.445
325.227	20.486	845.868	649.282
326.241	20.571	845.078	648.937
327.256	20.452	844.437	647.941
328.270	20.257	844.079	646.882
329.285	20.521	843.167	647.109
330.300	20.300	842.554	645.759
331.314	20.319	842.269	645.553
332.329	20.390	841.756	645.368
333.343	20.438	841.152	645.028
334.358	20.675	840.635	645.451
335.373	20.733	839.927	645.066
336.387	20.690	839.370	644.423
337.402	20.810	838.823	644.391
338.416	20.823	838.387	644.047
339.431	20.982	837.999	644.278
340.446	21.160	837.479	644.480
341.460	21.096	837.101	643.895
342.475	21.095	836.537	643.401
343.489	21.152	835.990	643.133
344.504	21.298	835.776	643.449
345.519	21.357	835.304	643.244
346.533	21.434	834.682	642.991
347.548	21.274	834.260	642.024
348.562	21.085	833.591	640.757
349.577	20.964	832.862	639.697
350.592	20.889	831.995	638.700
351.606	20.820	831.449	637.970
352.621	20.682	831.141	637.171
353.635	20.668	830.671	636.705
354.650	20.825	830.428	637.034
355.665	20.869	829.992	636.807
356.679	21.010	829.218	636.672
357.694	21.062	829.050	636.674
358.708	21.085	828.182	636.036
359.723	21.111	827.898	635.855
360.738	20.996	827.195	634.840
361.752	20.989	826.820	634.472
362.767	21.028	826.214	634.093
363.781	21.235	825.857	634.514
364.796	21.502	825.351	635.037
365.810	21.356	825.566	634.620
366.825	21.604	824.759	634.841
367.840	21.495	824.734	634.369
368.854	21.773	823.868	634.654
369.869	21.596	823.178	633.427
370.883	21.457	822.674	632.482
371.898	21.389	822.528	632.066
372.913	21.581	821.732	632.092
373.927	21.725	821.019	632.005
374.942	21.507	820.567	630.818
375.956	21.424	819.881	629.937
376.971	21.623	819.556	630.347
377.986	21.839	818.724	630.428
379.000	21.836	818.594	630.259
380.015	21.788	818.149	629.690
381.029	21.793	817.528	629.175
382.044	21.668	817.137	628.368
383.059	21.736	816.373	627.969
384.073	21.871	815.601	627.803
385.088	21.964	814.756	627.431
386.102	21.553	814.023	625.341
387.117	21.492	813.626	624.764
388.132	21.459	813.276	624.322
389.146	21.510	812.988	624.226
390.161	21.634	812.354	624.126
391.175	21.662	811.954	623.863
392.190	21.693	812.009	623.960
393.205	21.654	811.585	623.440
394.219	21.579	810.954	622.636
395.234	21.573	810.287	622.046
396.248	21.572	809.559	621.430
397.263	21.369	808.742	620.028
398.278	21.288	808.559	619.545
399.292	21.247	808.208	619.077
400.307	21.331	807.730	618.954
401.321	21.337	807.190	618.506
402.336	21.472	806.778	618.611
403.350	21.526	806.837	618.792
404.365	21.523	806.497	618.467
405.380	21.775	805.844	618.803
406.394	21.759	805.594	618.497
407.409	21.852	805.162	618.440
408.423	21.947	804.629	618.311
409.438	22.003	804.304	618.202
410.453	21.981	804.033	617.862
411.467	22.141	803.566	618.013
412.482	22.093	802.923	617.295
413.496	22.263	802.404	617.439
414.511	22.145	802.572	617.098
415.526	22.215	802.032	616.872
416.540	22.159	801.387	616.128
417.555	22.247	800.820	615.945
418.569	22.322	800.578	615.968
419.584	22.274	800.011	615.308
420.599	22.264	799.196	614.590
421.613	158.740	1368.739	1789.519
422.628	137.738	1451.751	1789.635
