DTS Sentinel unit serial number:	SN413079Multiplexer serial number:	ORYXHardware model number:	OX4-SRSoftware version number:	ORYX F/W v4.00 Oryx Data Collector v3.7.2.0data status	okinstallation	princeton_trtdifferential loss correction	single-endedforward channel	channel 3reverse channel	N/Adate	2019/09/11time	09:30:11forward acquisition time	60.00reverse acquisition time	0.00gamma	496.2192k internal	0.2305k external	0.2305temperature offset calibration	0.9938default loss term (dB/km)	0.3790temperature slope calibration	1.0000multiplexer offset coefficient	1.0000multiplexer slope coefficient	1.0000fibre end	0.00T internal ref (°C)	34.69T ext. ref 1 (°C)	0.12T ext. ref 2 (°C)	31.30length (m)	temperature (°C)	Stokes	anti-Stokes-747.200	399.123	-0.155	0.330
-746.185	-200.000	0.008	-0.134
-745.171	5.029	0.307	0.230
-744.156	413.521	-0.054	-0.118
-743.142	108.735	0.154	-0.187
-742.127	800.000	-0.041	0.172
-741.112	36.461	0.173	-0.155
-740.098	800.000	0.027	0.090
-739.083	-191.376	0.111	0.001
-738.069	609.618	-0.144	0.365
-737.054	52.981	-0.183	0.178
-736.039	-84.634	-0.177	0.057
-735.025	302.964	-0.088	-0.166
-734.010	-200.000	0.005	-0.145
-732.996	-8.047	-0.113	-0.077
-731.981	450.800	-0.008	0.017
-730.966	-50.550	-0.262	0.126
-729.952	-200.000	0.066	0.309
-728.937	800.000	-0.066	-0.200
-727.923	111.146	-0.313	0.383
-726.908	800.000	-0.043	-0.161
-725.894	-200.000	-0.021	-0.120
-724.879	37.986	-0.217	-0.196
-723.864	-63.606	-0.237	-0.099
-722.850	141.522	-0.087	-0.118
-721.835	-4.243	0.146	0.103
-720.821	-40.433	-0.125	-0.066
-719.806	-200.000	-0.021	0.134
-718.791	137.399	-0.120	0.159
-717.777	48.689	0.213	0.203
-716.762	108.951	-0.196	-0.238
-715.748	-46.153	0.130	-0.065
-714.733	32.009	-0.163	-0.143
-713.718	-65.857	0.154	0.062
-712.704	-69.163	-0.076	-0.030
-711.689	-7.676	-0.097	-0.067
-710.675	466.149	0.155	-0.354
-709.660	224.560	-0.068	0.112
-708.645	-134.268	-0.150	-0.019
-707.631	-128.191	-0.356	-0.052
-706.616	92.351	-0.301	0.345
-705.602	-62.739	0.260	-0.109
-704.587	5.010	-0.279	-0.209
-703.572	-74.785	0.353	0.129
-702.558	-124.423	-0.537	-0.085
-701.543	-36.019	0.182	-0.100
-700.529	374.743	-0.101	0.209
-699.514	-195.469	-0.212	0.002
-698.499	13.042	-0.217	-0.171
-697.485	331.040	-0.075	0.147
-696.470	-32.548	0.222	0.126
-695.456	280.833	0.080	-0.145
-694.441	-100.857	0.264	0.066
-693.426	697.600	-0.079	0.212
-692.412	-100.059	0.257	0.065
-691.397	-200.000	0.003	-0.152
-690.383	800.000	0.024	0.105
-689.368	800.000	-0.109	-0.355
-688.354	-168.346	-0.130	-0.005
-687.339	354.632	-0.210	-0.424
-686.324	47.471	-0.086	-0.081
-685.310	56.650	-0.148	0.147
-684.295	29.316	-0.138	-0.119
-683.281	-158.383	0.342	0.020
-682.266	104.910	-0.103	-0.124
-681.251	98.179	-0.097	-0.114
-680.237	-130.431	-0.284	-0.039
-679.222	800.000	0.068	0.302
-678.208	-77.523	-0.508	0.179
-677.193	133.264	0.122	-0.160
-676.178	2.647	0.346	0.254
-675.164	669.932	-0.085	0.223
-674.149	342.833	0.143	0.284
-673.135	229.141	0.233	0.386
-672.120	190.393	-0.037	-0.057
-671.105	-89.716	0.166	-0.049
-670.091	81.153	-0.103	0.113
-669.076	82.258	0.126	-0.139
-668.062	689.322	-0.078	-0.206
-667.047	778.090	-0.024	-0.065
-666.032	407.362	-0.185	0.396
-665.018	-39.940	0.366	0.194
-664.003	-73.451	-0.127	0.047
-662.989	9.743	0.127	-0.098
-661.974	115.511	-0.083	-0.103
-660.959	519.367	-0.239	-0.569
-659.945	-16.153	-0.253	-0.163
-658.930	-200.000	-0.004	-0.142
-657.916	134.370	-0.039	0.051
-656.901	116.302	0.132	-0.165
-655.886	800.000	-0.036	0.149
-654.872	253.635	-0.073	0.126
-653.857	-96.406	0.068	-0.018
-652.843	800.000	-0.087	-0.339
-651.828	613.014	-0.033	0.084
-650.814	-68.983	0.287	-0.112
-649.799	77.435	0.216	0.233
-648.784	800.000	-0.033	0.145
-647.770	-133.261	-0.288	-0.037
-646.755	236.813	-0.124	0.208
-645.741	0.623	-0.319	0.231
-644.726	-176.750	-0.111	-0.003
-643.711	68.097	0.233	-0.242
-642.697	421.466	-0.072	-0.156
-641.682	171.656	-0.085	0.124
-640.668	-39.867	0.091	-0.048
-639.653	-129.032	0.119	0.017
-638.638	89.044	0.124	-0.140
-637.624	30.771	-0.305	0.265
-636.609	324.911	-0.107	0.206
-635.595	-200.000	0.002	-0.251
-634.580	800.000	-0.032	0.130
-633.565	800.000	-0.070	0.281
-632.551	151.089	0.260	-0.358
-631.536	13.106	0.214	0.168
-630.522	-38.842	-0.205	-0.109
-629.507	60.835	0.145	0.145
-628.492	770.269	-0.086	-0.237
-627.478	80.653	0.109	-0.119
-626.463	-98.644	-0.447	-0.116
-625.449	-200.000	-0.016	-0.208
-624.434	385.159	-0.200	-0.417
-623.419	90.721	0.241	0.273
-622.405	94.745	0.090	0.104
-621.390	119.545	-0.079	0.099
-620.376	181.257	0.077	-0.115
-619.361	-173.052	0.292	-0.009
-618.346	-86.450	-0.266	-0.083
-617.332	226.061	0.195	-0.321
-616.317	-16.356	0.477	0.307
-615.303	88.673	0.037	-0.042
-614.288	-106.239	0.243	0.055
-613.273	-43.270	0.331	0.170
-612.259	-37.014	0.113	-0.062
-611.244	-165.080	0.214	0.010
-610.230	-49.499	-0.156	-0.075
-609.215	800.000	0.036	0.127
-608.201	-41.886	0.156	0.081
-607.186	-200.000	-0.009	0.140
-606.171	-200.000	-0.025	0.120
-605.157	800.000	0.045	0.171
-604.142	-124.832	-0.173	-0.027
-603.128	584.970	0.104	0.258
-602.113	-200.000	-0.051	-0.333
-601.098	-115.270	-0.209	0.040
-600.084	-87.445	0.126	0.039
-599.069	138.012	-0.112	-0.149
-598.055	-111.176	0.293	-0.061
-597.040	46.966	0.134	0.126
-596.025	57.510	-0.133	-0.131
-595.011	225.562	0.152	-0.249
-593.996	235.893	-0.066	0.111
-592.982	66.008	-0.245	0.251
-591.967	-187.525	0.301	-0.004
-590.952	-27.773	0.097	-0.057
-589.938	5.171	0.114	0.085
-588.923	370.279	0.050	0.103
-587.909	-57.087	0.335	0.149
-586.894	-91.990	-0.109	0.031
-585.879	800.000	0.069	-0.252
-584.865	-126.908	-0.314	0.047
-583.850	532.428	-0.016	0.038
-582.836	184.717	0.045	0.067
-581.821	-186.447	-0.157	-0.002
-580.806	800.000	0.036	-0.109
-579.792	-91.815	-0.243	-0.070
-578.777	171.728	0.166	-0.241
-577.763	-106.855	0.204	0.046
-576.748	-9.985	-0.201	0.135
-575.733	74.098	-0.165	0.175
-574.719	-129.917	0.085	-0.012
-573.704	143.289	0.219	-0.295
-572.690	-46.325	-0.211	0.105
-571.675	-200.000	-0.008	-0.119
-570.661	-98.931	-0.127	0.032
-569.646	39.780	-0.202	-0.183
-568.631	1.683	-0.260	-0.189
-567.617	617.496	0.139	-0.352
-566.602	118.729	-0.078	-0.097
-565.588	800.000	0.090	0.312
-564.573	-26.054	0.125	0.074
-563.558	32.801	0.118	0.104
-562.544	-200.000	-0.001	0.108
-561.529	542.626	-0.084	-0.202
-560.515	-80.975	-0.270	0.090
-559.500	140.355	0.100	-0.133
-558.485	89.906	0.115	-0.129
-557.471	579.832	-0.107	0.265
-556.456	131.806	-0.045	0.058
-555.442	60.692	-0.099	-0.099
-554.427	-127.626	0.254	-0.037
-553.412	90.960	0.289	0.328
-552.398	-6.394	-0.182	0.125
-551.383	-153.088	0.160	0.011
-550.369	23.575	-0.195	0.162
-549.354	-128.763	0.033	0.005
-548.339	103.867	0.213	-0.252
-547.325	-107.477	0.019	0.004
-546.310	-21.996	-0.064	-0.039
-545.296	-200.000	-0.023	-0.131
-544.281	349.241	-0.034	0.068
-543.266	-200.000	0.004	-0.104
-542.252	-60.356	0.309	-0.133
-541.237	162.823	0.245	-0.347
-540.223	405.246	-0.251	-0.534
-539.208	724.898	-0.132	0.355
-538.193	-200.000	0.007	0.229
-537.179	-200.000	0.026	-0.303
-536.164	234.878	0.140	-0.233
-535.150	131.588	-0.041	0.054
-534.135	800.000	-0.098	-0.290
-533.121	-200.000	0.020	0.320
-532.106	4.246	0.193	-0.143
-531.091	800.000	-0.067	0.259
-530.077	-76.486	-0.032	-0.011
-529.062	-200.000	-0.002	-0.033
-528.048	-161.302	-0.208	-0.011
-527.033	235.877	0.150	-0.251
-526.018	-105.718	0.143	-0.033
-525.004	-162.662	0.076	-0.004
-523.989	21.304	-0.206	-0.169
-522.975	-138.578	0.175	0.019
-521.960	-55.995	-0.202	-0.091
-520.945	-25.624	-0.124	-0.074
-519.931	-200.000	0.028	0.159
-518.916	-140.727	-0.082	0.009
-517.902	-200.000	0.034	-0.190
-516.887	782.848	-0.039	-0.109
-515.872	145.273	0.171	0.231
-514.858	-34.322	0.403	-0.223
-513.843	278.761	-0.112	-0.201
-512.829	595.362	0.027	-0.067
-511.814	37.799	-0.099	0.089
-510.799	65.632	0.201	0.205
-509.785	-122.214	-0.232	-0.038
-508.770	-8.943	0.205	0.139
-507.756	254.454	0.162	-0.280
-506.741	-21.750	-0.399	-0.245
-505.726	0.758	-0.199	0.144
-504.712	-200.000	-0.010	0.272
-503.697	-113.355	-0.185	-0.037
-502.683	-5.307	-0.097	0.067
-501.668	668.169	0.105	0.275
-500.653	-200.000	-0.054	0.267
-499.639	69.182	-0.098	-0.102
-498.624	-183.030	0.138	0.002
-497.610	78.326	-0.053	-0.057
-496.595	-79.002	0.210	0.072
-495.581	-200.000	0.000	0.092
-494.566	-103.436	-0.345	-0.082
-493.551	42.742	-0.216	0.199
-492.537	-76.054	-0.062	-0.022
-491.522	-6.838	0.059	-0.040
-490.508	-169.676	0.148	-0.005
-489.493	-100.806	-0.018	-0.004
-488.478	-200.000	0.024	0.265
-487.464	-126.823	-0.252	-0.037
-486.449	58.777	0.035	-0.034
-485.435	-109.882	0.190	-0.040
-484.420	-18.303	-0.104	-0.065
-483.405	-200.000	-0.023	0.144
-482.391	-180.504	-0.483	0.010
-481.376	168.481	-0.147	-0.211
-480.362	-77.695	0.235	-0.082
-479.347	-83.897	-0.424	-0.136
-478.332	-183.734	0.132	-0.002
-477.318	-128.281	0.197	0.028
-476.303	-200.000	0.005	0.175
-475.289	93.410	0.179	-0.204
-474.274	239.307	0.065	-0.109
-473.259	625.864	0.018	-0.046
-472.245	-200.000	0.009	-0.216
-471.230	-79.324	0.365	-0.124
-470.216	-121.728	0.295	-0.049
-469.201	171.610	-0.127	0.184
-468.186	254.955	0.127	0.219
-467.172	50.002	0.209	0.198
-466.157	-200.000	0.058	0.272
-465.143	-84.094	-0.178	-0.057
-464.128	87.194	-0.284	0.316
-463.113	81.584	0.060	0.065
-462.099	-127.968	-0.058	-0.008
-461.084	-183.936	0.269	0.005
-460.070	275.205	-0.067	0.119
-459.055	800.000	0.068	0.212
-458.040	-32.177	0.122	-0.069
-457.026	-117.708	0.459	-0.083
-456.011	-117.829	0.179	-0.032
-454.997	78.098	-0.246	-0.265
-453.982	-49.522	-0.187	-0.090
-452.968	-200.000	0.033	-0.250
-451.953	448.919	0.047	0.104
-450.938	-172.118	0.290	-0.009
-449.924	3.328	-0.064	-0.047
-448.909	-0.653	0.083	0.059
-447.895	800.000	0.005	-0.019
-446.880	101.055	0.234	-0.274
-445.865	-153.733	-0.198	-0.014
-444.851	-200.000	0.017	0.077
-443.836	-55.000	0.259	-0.117
-442.822	800.000	-0.080	-0.239
-441.807	-94.614	-0.331	0.091
-440.792	148.275	0.084	0.114
-439.778	265.115	0.148	-0.260
-438.763	-54.440	-0.058	0.027
-437.749	800.000	-0.123	0.386
-436.734	-36.314	-0.080	-0.043
-435.719	-200.000	-0.053	-0.262
-434.705	553.856	0.046	0.112
-433.690	-200.000	-0.009	0.343
-432.676	-127.305	0.034	-0.005
-431.661	-98.056	-0.294	-0.076
-430.646	-143.498	0.365	0.035
-429.632	-163.434	0.129	0.006
-428.617	-135.221	-0.439	-0.053
-427.603	-51.703	0.074	0.035
-426.588	113.447	0.140	0.171
-425.573	544.764	0.057	-0.136
-424.559	508.832	-0.074	0.173
-423.544	337.442	-0.117	0.228
-422.530	123.142	-0.067	0.085
-421.515	-147.297	-0.149	0.013
-420.500	-102.634	-0.078	0.019
-419.486	310.576	0.060	0.113
-418.471	81.739	-0.199	0.216
-417.457	58.114	0.114	0.112
-416.442	-142.674	0.173	-0.017
-415.428	19.724	-0.359	-0.291
-414.413	325.314	0.031	-0.060
-413.398	-113.828	-0.183	0.036
-412.384	299.201	-0.121	-0.223
-411.369	176.746	0.122	-0.179
-410.355	800.000	0.057	0.178
-409.340	-200.000	0.037	-0.299
-408.325	344.364	0.052	0.102
-407.311	235.114	0.115	-0.191
-406.296	800.000	0.072	-0.302
-405.282	-67.262	-0.176	0.070
-404.267	140.251	-0.133	0.177
-403.252	-200.000	-0.020	0.329
-402.238	-45.431	-0.266	-0.132
-401.223	-61.259	0.344	-0.145
-400.209	-132.481	0.524	-0.068
-399.194	-42.620	-0.219	-0.112
-398.179	82.528	-0.081	-0.088
-397.165	38.740	0.062	-0.056
-396.150	-134.482	-0.340	-0.042
-395.136	-9.447	-0.329	-0.221
-394.121	-200.000	-0.011	-0.249
-393.106	-123.613	0.431	0.069
-392.092	-155.507	0.303	-0.020
-391.077	89.470	-0.246	0.276
-390.063	65.051	0.340	-0.345
-389.048	187.589	0.167	-0.251
-388.033	-200.000	0.063	0.409
-387.019	6.322	-0.299	0.222
-386.004	332.535	0.092	0.178
-384.990	-11.336	-0.339	-0.224
-383.975	-158.832	-0.086	-0.005
-382.960	800.000	-0.091	-0.302
-381.946	-67.727	0.295	0.116
-380.931	-123.208	-0.373	-0.060
-379.917	-148.015	0.262	-0.022
-378.902	800.000	-0.072	-0.271
-377.888	-85.201	0.189	-0.059
-376.873	376.819	-0.091	0.186
-375.858	175.813	0.279	0.406
-374.844	90.615	0.321	0.361
-373.829	5.990	-0.135	0.100
-372.815	67.135	0.149	-0.153
-371.800	-160.336	-0.135	-0.007
-370.785	-200.000	0.004	-0.077
-369.771	-200.000	-0.055	-0.288
-368.756	-61.081	0.045	0.019
-367.742	-62.405	0.300	-0.125
-366.727	246.877	-0.041	0.069
-365.712	48.317	0.275	-0.258
-364.698	-200.000	-0.047	0.296
-363.683	33.663	-0.120	-0.105
-362.669	5.606	-0.278	0.206
-361.654	-82.528	-0.252	0.082
-360.639	21.168	0.346	0.281
-359.625	-163.602	-0.353	0.017
-358.610	-200.000	-0.034	-0.260
-357.596	-128.988	-0.232	-0.033
-356.581	88.005	0.101	0.112
-355.566	59.536	-0.113	-0.111
-354.552	-98.878	0.080	0.020
-353.537	318.511	-0.016	-0.030
-352.523	-57.660	-0.399	0.175
-351.508	-37.914	-0.262	-0.139
-350.493	-200.000	-0.003	-0.141
-349.479	-11.259	-0.274	-0.181
-348.464	-123.390	-0.131	0.021
-347.450	41.939	-0.298	0.271
-346.435	-23.864	-0.210	0.126
-345.420	171.824	-0.097	0.139
-344.406	319.950	0.164	0.312
-343.391	155.045	0.161	0.222
-342.377	-137.244	-0.288	0.033
-341.362	573.382	0.052	-0.127
-340.348	800.000	0.056	0.177
-339.333	-106.054	0.207	0.047
-338.318	137.289	0.162	0.212
-337.304	333.628	-0.173	-0.336
-336.289	-93.810	-0.348	0.096
-335.275	-200.000	-0.024	-0.274
-334.260	307.560	-0.166	-0.311
-333.245	269.696	-0.034	-0.061
-332.231	18.973	0.299	-0.240
-331.216	-200.000	0.001	0.061
-330.202	28.743	0.091	0.077
-329.187	37.250	-0.122	-0.108
-328.172	-200.000	0.004	-0.432
-327.158	-45.059	0.140	-0.070
-326.143	800.000	0.088	0.328
-325.129	58.217	0.069	-0.068
-324.114	14.450	-0.343	-0.268
-323.099	-153.311	0.176	0.012
-322.085	6.118	-0.063	0.047
-321.070	-137.147	0.176	-0.020
-320.056	776.510	0.094	-0.257
-319.041	26.366	-0.094	0.079
-318.026	161.609	-0.024	0.033
-317.012	160.536	0.114	-0.159
-315.997	18.305	0.211	0.169
-314.983	800.000	0.048	0.145
-313.968	215.898	-0.104	0.166
-312.953	800.000	-0.079	-0.333
-311.939	749.756	-0.143	0.385
-310.924	78.629	0.189	0.202
-309.910	-7.102	0.418	-0.284
-308.895	-87.368	-0.212	-0.064
-307.880	-34.201	-0.129	0.071
-306.866	-98.981	-0.107	-0.027
-305.851	800.000	-0.073	0.316
-304.837	800.000	0.016	-0.061
-303.822	-36.644	-0.067	0.036
-302.807	-96.987	0.031	-0.008
-301.793	135.923	0.081	0.105
-300.778	145.935	-0.244	0.328
-299.764	-122.528	-0.309	0.050
-298.749	-131.109	0.044	-0.006
-297.735	-27.762	-0.043	-0.025
-296.720	-200.000	-0.026	-0.150
-295.705	800.000	-0.100	-0.367
-294.691	-157.848	-0.101	-0.006
-293.676	-132.237	-0.436	-0.056
-292.662	800.000	-0.069	-0.283
-291.647	-200.000	0.019	-0.267
-290.632	-55.971	-0.249	-0.111
-289.618	-74.309	0.072	0.026
-288.603	-200.000	0.005	-0.051
-287.589	113.169	0.117	0.142
-286.574	51.568	-0.151	0.143
-285.559	-42.553	0.270	0.137
-284.545	-41.806	-0.211	-0.108
-283.530	541.190	-0.054	-0.127
-282.516	-200.000	-0.041	-0.191
-281.501	-85.728	0.236	0.073
-280.486	800.000	-0.059	0.223
-279.472	-200.000	0.008	-0.125
-278.457	-200.000	-0.013	0.061
-277.443	-200.000	-0.130	-0.581
-276.428	401.087	0.048	0.102
-275.413	-58.341	0.376	-0.163
-274.399	-160.547	-0.271	-0.014
-273.384	-165.141	0.249	-0.011
-272.370	-53.277	0.108	0.049
-271.355	-34.264	-0.134	-0.073
-270.340	60.399	0.191	0.189
-269.326	119.120	-0.054	-0.066
-268.311	-79.140	0.236	-0.080
-267.297	121.180	-0.163	-0.203
-266.282	458.087	-0.076	0.168
-265.267	133.667	-0.048	-0.062
-264.253	-200.000	-0.063	0.285
-263.238	-200.000	0.023	0.138
-262.224	-56.600	-0.041	-0.018
-261.209	-15.876	0.296	0.188
-260.195	-31.494	-0.115	-0.065
-259.180	174.003	0.088	-0.127
-258.165	-200.000	-0.032	0.250
-257.151	-38.842	0.289	0.152
-256.136	-73.791	0.178	0.065
-255.122	45.047	-0.179	0.165
-254.107	297.479	0.159	-0.291
-253.092	138.589	0.074	0.096
-252.078	328.391	0.142	0.273
-251.063	126.016	0.165	-0.208
-250.049	-100.342	-0.194	0.048
-249.034	152.769	0.103	0.141
-248.019	147.707	0.196	0.263
-247.005	-38.698	0.318	-0.168
-245.990	432.055	0.060	-0.130
-244.976	800.000	-0.091	-0.358
-243.961	-200.000	-0.021	0.109
-242.946	800.000	0.061	0.219
-241.932	330.338	-0.134	-0.258
-240.917	370.085	0.157	-0.318
-239.903	-200.000	0.007	-0.170
-238.888	-200.000	-0.022	0.147
-237.873	325.686	0.195	0.372
-236.859	-114.607	-0.141	-0.027
-235.844	-139.342	0.149	0.016
-234.830	-25.580	-0.212	0.125
-233.815	268.198	0.090	0.158
-232.800	-200.000	0.027	0.378
-231.786	-63.223	0.281	0.115
-230.771	-145.568	-0.155	-0.014
-229.757	-200.000	-0.007	0.256
-228.742	177.553	0.016	-0.024
-227.727	-8.270	-0.158	0.106
-226.713	800.000	0.113	-0.317
-225.698	-110.243	-0.040	-0.008
-224.684	800.000	0.089	-0.295
-223.669	272.605	0.052	-0.092
-222.655	-200.000	0.032	-0.296
-221.640	-154.804	-0.025	-0.002
-220.625	184.792	-0.152	0.224
-219.611	18.627	-0.137	-0.109
-218.596	-185.291	-0.113	0.002
-217.582	329.168	0.088	0.168
-216.567	-84.942	-0.245	-0.077
-215.552	800.000	0.082	-0.306
-214.538	-104.033	0.152	-0.035
-213.523	28.445	-0.263	-0.222
-212.509	-147.880	-0.358	-0.030
-211.494	77.439	0.243	-0.258
-210.479	235.444	-0.080	0.132
-209.465	383.721	0.183	0.375
-208.450	138.437	-0.201	0.263
-207.436	102.830	-0.157	-0.183
-206.421	439.047	0.154	-0.335
-205.406	42.336	-0.016	0.015
-204.392	-6.715	0.198	0.135
-203.377	800.000	0.026	-0.089
-202.363	-200.000	0.205	-0.001
-201.348	-109.509	0.130	0.027
-200.333	-14.595	0.097	0.062
-199.319	36.180	0.122	0.107
-198.304	90.873	-0.107	-0.119
-197.290	800.000	-0.088	-0.315
-196.275	-67.435	-0.197	0.077
-195.260	-200.000	0.018	-0.100
-194.246	-200.000	-0.014	0.462
-193.231	-173.362	0.301	-0.009
-192.217	-200.000	0.008	0.177
-191.202	-200.000	-0.003	-0.152
-190.187	-81.322	-0.542	0.178
-189.173	221.257	0.205	0.328
-188.158	-147.498	0.256	0.021
-187.144	-83.617	-0.116	-0.037
-186.129	-54.210	-0.187	-0.085
-185.114	-98.237	-0.284	0.073
-184.100	199.863	0.299	-0.457
-183.085	-40.641	-0.325	0.168
-182.071	15.029	0.243	0.190
-181.056	0.933	-0.175	0.125
-180.042	131.557	-0.108	0.139
-179.027	125.724	-0.109	0.138
-178.012	800.000	-0.066	0.185
-176.998	-71.367	0.096	-0.036
-175.983	-23.321	-0.526	0.315
-174.969	-30.400	-0.068	0.038
-173.954	-27.088	0.202	0.117
-172.939	-34.396	-0.202	0.110
-171.925	-200.000	-0.004	0.082
-170.910	-142.672	0.190	-0.018
-169.896	-63.224	-0.148	-0.061
-168.881	800.000	-0.037	0.151
-167.866	-84.862	0.111	0.035
-166.852	800.000	0.077	0.258
-165.837	309.301	-0.182	-0.338
-164.823	-80.945	-0.115	-0.038
-163.808	77.453	0.225	0.238
-162.793	396.349	-0.007	0.014
-161.779	-53.551	0.278	0.126
-160.764	493.810	-0.075	-0.171
-159.750	54.421	0.104	-0.100
-158.735	-200.000	-0.037	0.286
-157.720	-185.751	0.206	0.003
-156.706	246.965	-0.112	-0.188
-155.691	520.245	0.037	0.087
-154.677	8.494	0.178	-0.133
-153.662	-63.648	0.180	-0.073
-152.647	179.986	-0.059	-0.086
-151.633	800.000	-0.049	0.143
-150.618	-27.835	-0.160	-0.092
-149.604	-134.204	-0.142	-0.017
-148.589	-133.116	-0.243	0.031
-147.574	-19.415	0.322	0.199
-146.560	480.679	-0.047	0.106
-145.545	800.000	-0.117	-0.324
-144.531	8.017	-0.225	-0.168
-143.516	800.000	0.021	-0.061
-142.502	800.000	0.040	-0.115
-141.487	456.407	-0.102	0.225
-140.472	-200.000	0.026	0.148
-139.458	127.007	-0.236	0.297
-138.443	-173.864	-0.360	-0.011
-137.429	-93.705	-0.195	-0.053
-136.414	-200.000	-0.003	0.118
-135.399	-81.186	0.363	0.119
-134.385	-77.397	-0.155	0.053
-133.370	-34.356	-0.410	-0.224
-132.356	-165.062	0.240	-0.011
-131.341	99.738	0.206	-0.237
-130.326	192.901	-0.121	0.181
-129.312	-31.708	0.396	0.221
-128.297	217.250	-0.100	0.158
-127.283	-109.101	0.270	-0.057
-126.268	-105.855	0.364	-0.082
-125.253	497.707	-0.051	-0.117
-124.239	74.823	-0.203	0.212
-123.224	-104.974	-0.231	0.053
-122.210	150.364	0.091	-0.123
-121.195	571.776	0.024	0.057
-120.180	-87.712	-0.161	0.048
-119.166	-135.936	0.211	-0.025
-118.151	-111.937	0.475	-0.095
-117.137	-200.000	-0.051	0.249
-116.122	119.817	-0.126	0.155
-115.107	72.901	0.122	-0.127
-114.093	379.125	-0.069	0.141
-113.078	-200.000	-0.011	0.177
-112.064	-27.607	-0.263	-0.152
-111.049	-119.915	-0.181	-0.031
-110.034	-128.209	-0.284	-0.040
-109.020	-32.574	-0.184	-0.102
-108.005	-76.542	0.048	-0.017
-106.991	-79.934	-0.174	0.058
-105.976	267.341	0.131	-0.227
-104.962	128.123	0.086	-0.109
-103.947	-128.916	0.259	0.036
-102.932	-38.633	0.091	0.048
-101.918	-97.948	-0.182	0.047
-100.903	62.490	-0.188	0.187
-99.889	106.632	0.049	-0.058
-98.874	800.000	0.041	-0.122
-97.859	800.000	0.112	0.419
-96.845	-176.652	0.212	-0.005
-95.830	-98.410	-0.097	0.025
-94.816	7.238	-0.098	0.073
-93.801	99.997	0.098	-0.113
-92.786	800.000	-0.046	-0.153
-91.772	33.053	0.189	-0.163
-90.757	194.497	0.191	0.288
-89.743	48.946	-0.080	-0.074
-88.728	-200.000	0.020	-0.163
-87.713	-66.893	0.106	0.041
-86.699	70.979	-0.220	0.227
-85.684	-63.507	0.326	0.133
-84.670	110.765	0.315	0.376
-83.655	298.709	0.025	-0.046
-82.640	-151.727	0.344	-0.025
-81.626	-200.000	-0.010	0.051
-80.611	-58.159	-0.210	0.091
-79.597	41.638	-0.209	-0.187
-78.582	-0.663	-0.083	-0.058
-77.567	-3.959	-0.145	-0.100
-76.553	143.104	0.050	-0.066
-75.538	80.856	0.146	-0.156
-74.524	-82.594	0.301	-0.097
-73.509	325.481	0.052	0.098
-72.494	-137.810	0.129	0.014
-71.480	-146.764	0.360	0.031
-70.465	-200.000	0.072	-0.636
-69.451	-55.020	0.395	-0.176
-68.436	-130.023	0.077	-0.010
-67.422	-29.112	0.369	-0.210
-66.407	-200.000	0.010	0.153
-65.392	219.496	-0.049	0.078
-64.378	303.976	0.132	-0.243
-63.363	-116.228	-0.359	0.066
-62.349	-200.000	-0.004	-0.331
-61.334	-44.746	-1.310	-0.648
-60.319	629.107	0.331	0.829
-59.305	-200.000	-0.104	-0.638
-58.290	57.583	0.832	0.806
-57.276	638.693	0.643	1.621
-56.261	-200.000	93.220	521.245
-55.246	569.111	1373.129	3307.212
-54.232	184.632	2614.463	3839.030
-53.217	116.297	2225.526	2701.793
-52.203	44.873	1756.960	1602.088
-51.188	37.877	1565.251	1377.995
-50.173	35.385	1537.297	1336.008
-49.159	52.340	1587.689	1500.315
-48.144	55.716	1606.388	1541.865
-47.130	38.131	1562.286	1376.956
-46.115	34.965	1546.644	1340.971
-45.100	34.802	1543.545	1337.094
-44.086	34.788	1541.229	1334.937
-43.071	34.627	1539.579	1332.329
-42.057	34.668	1537.708	1330.945
-41.042	34.645	1536.322	1329.530
-40.027	34.684	1535.153	1328.734
-39.013	34.723	1533.196	1327.261
-37.998	34.661	1532.392	1326.082
-36.984	34.640	1531.596	1325.193
-35.969	34.770	1529.867	1324.547
-34.954	34.638	1528.501	1322.398
-33.940	34.597	1526.733	1320.533
-32.925	34.718	1525.096	1319.897
-31.911	34.715	1524.234	1319.083
-30.896	34.819	1522.538	1318.277
-29.881	34.677	1521.421	1316.282
-28.867	34.750	1519.551	1315.111
-27.852	34.708	1518.676	1314.012
-26.838	34.803	1516.715	1312.918
-25.823	34.823	1514.994	1311.515
-24.809	34.745	1513.736	1309.839
-23.794	34.556	1513.025	1307.876
-22.779	34.694	1511.379	1307.342
-21.765	34.841	1509.833	1306.958
-20.750	34.797	1508.964	1305.859
-19.736	34.692	1507.531	1303.848
-18.721	34.620	1506.842	1302.710
-17.706	34.751	1505.262	1302.182
-16.692	34.736	1504.660	1301.512
-15.677	34.653	1503.644	1300.011
-14.663	34.721	1502.258	1299.224
-13.648	34.617	1501.068	1297.442
-12.633	34.561	1500.563	1296.573
-11.619	34.687	1499.116	1296.124
-10.604	34.650	1498.492	1295.285
-9.590	34.589	1497.904	1294.307
-8.575	34.683	1496.974	1294.088
-7.560	34.667	1496.417	1293.447
-6.546	34.705	1495.195	1292.597
-5.531	34.600	1494.386	1291.137
-4.517	34.656	1493.388	1290.604
-3.502	34.639	1492.494	1289.663
-2.487	34.683	1491.615	1289.151
-1.473	34.631	1490.385	1287.688
-0.458	34.603	1488.918	1286.175
0.556	32.910	1479.652	1276.600
1.571	30.295	1452.678	1235.830
2.586	27.049	1389.917	1161.611
3.600	25.529	1307.362	1083.370
4.615	24.109	1260.451	1036.147
5.629	19.790	1201.903	963.911
6.644	9.285	1111.051	836.566
7.659	1.328	1066.851	763.330
8.673	0.302	1061.188	754.079
9.688	0.010	1058.523	750.662
10.702	0.022	1056.754	749.398
11.717	0.156	1054.556	748.443
12.731	3.657	1059.523	769.365
13.746	13.715	1074.151	830.513
14.761	20.783	1083.127	872.945
15.775	22.006	1083.703	879.462
16.790	22.018	1083.278	879.098
17.804	21.897	1082.463	877.755
18.819	21.635	1081.688	875.737
19.834	21.810	1081.082	876.045
20.848	21.892	1080.433	875.852
21.863	21.919	1080.122	875.654
22.877	21.969	1079.682	875.471
23.892	21.934	1078.618	874.358
24.907	21.799	1078.198	873.267
25.921	21.815	1077.665	872.835
26.936	21.736	1077.246	872.026
27.950	21.774	1075.754	870.929
28.965	21.826	1074.539	870.130
29.980	21.692	1073.032	868.169
30.994	21.595	1071.765	866.587
32.009	21.799	1070.710	866.664
33.023	21.901	1070.206	866.686
34.038	21.770	1068.449	864.537
35.053	21.680	1067.931	863.601
36.067	21.816	1067.387	863.753
37.082	21.821	1066.899	863.306
38.096	21.982	1065.655	863.016
39.111	21.975	1065.439	862.730
40.126	22.173	1064.183	862.608
41.140	21.976	1063.117	860.703
42.155	21.743	1061.660	858.304
43.169	21.521	1060.316	856.057
44.184	21.461	1059.138	854.734
45.199	21.522	1058.084	854.108
46.213	21.430	1057.148	852.826
47.228	21.359	1056.307	851.726
48.242	21.567	1055.351	851.892
49.257	21.733	1054.321	851.792
50.271	21.774	1053.974	851.637
51.286	21.801	1053.482	851.296
52.301	21.854	1052.472	850.664
53.315	21.995	1051.826	850.747
54.330	21.860	1051.044	849.386
55.344	21.648	1050.760	848.057
56.359	21.862	1049.051	847.633
57.374	21.897	1048.173	847.019
58.388	21.637	1047.405	845.070
59.403	21.525	1046.898	844.046
60.417	21.607	1045.782	843.465
61.432	21.563	1044.510	842.152
62.447	21.460	1044.500	841.574
63.461	21.646	1043.846	841.869
64.476	21.696	1042.688	841.098
65.490	21.731	1041.595	840.310
66.505	21.457	1040.955	838.407
67.520	21.556	1040.026	838.061
68.534	21.688	1039.177	837.934
69.549	21.667	1038.039	836.839
70.563	21.166	1037.575	834.000
71.578	21.023	1036.493	832.373
72.593	21.213	1035.612	832.496
73.607	21.035	1034.528	830.704
74.622	21.045	1033.531	829.879
75.636	21.305	1033.309	830.863
76.651	21.514	1032.072	830.787
77.666	21.364	1031.003	829.141
78.680	21.250	1030.202	827.886
79.695	21.290	1029.445	827.393
80.709	21.408	1028.955	827.485
81.724	21.486	1028.309	827.260
82.739	21.408	1027.560	826.215
83.753	21.369	1026.630	825.210
84.768	21.780	1025.715	826.341
85.782	21.985	1025.386	826.967
86.797	22.102	1024.737	826.924
87.812	22.029	1023.902	825.830
88.826	21.945	1022.509	824.239
89.841	21.969	1021.799	823.708
90.855	22.081	1021.084	823.583
91.870	22.130	1020.484	823.257
92.884	22.156	1019.801	822.755
93.899	22.093	1018.421	821.275
94.914	21.958	1017.306	819.673
95.928	22.157	1016.456	819.843
96.943	21.977	1016.237	818.755
97.957	21.692	1014.966	816.330
98.972	21.519	1013.562	814.324
99.987	21.416	1012.875	813.221
101.001	21.499	1012.109	812.921
102.016	21.772	1011.481	813.611
103.030	21.773	1010.806	813.002
104.045	21.644	1009.701	811.440
105.060	21.390	1008.690	809.384
106.074	21.369	1007.317	808.111
107.089	21.380	1006.587	807.503
108.103	21.792	1006.319	809.121
109.118	21.968	1004.734	808.584
110.133	21.439	1004.284	805.716
111.147	21.588	1002.769	805.114
112.162	21.408	1001.768	803.413
113.176	21.239	1000.751	801.751
114.191	21.441	999.673	801.739
115.206	21.548	998.919	801.554
116.220	21.247	997.136	798.678
117.235	21.021	996.647	797.184
118.249	21.173	995.713	797.059
119.264	21.264	994.751	796.635
120.279	21.083	994.070	795.192
121.293	21.123	993.584	794.914
122.308	21.185	992.673	794.398
123.322	21.423	991.530	794.495
124.337	21.256	990.470	792.818
125.352	21.107	989.339	791.167
126.366	20.577	987.844	787.501
127.381	20.479	986.019	785.532
128.395	21.047	985.871	787.912
129.410	21.615	985.878	790.416
130.424	21.803	984.989	790.481
131.439	21.844	983.488	789.387
132.454	21.824	982.504	788.439
133.468	21.637	981.947	787.083
134.483	21.613	981.107	786.230
135.497	21.604	980.515	785.646
136.512	21.810	980.097	786.164
137.527	21.964	978.663	785.636
138.541	21.950	978.062	785.020
139.556	22.035	977.359	784.769
140.570	21.988	976.720	783.977
141.585	21.942	975.963	783.092
142.600	22.044	974.871	782.602
143.614	21.868	974.448	781.410
144.629	22.062	973.613	781.536
145.643	22.270	973.004	781.901
146.658	22.100	971.812	780.118
147.673	22.008	970.319	778.443
148.687	21.844	969.450	776.953
149.702	21.845	968.713	776.296
150.716	21.658	967.175	774.169
151.731	21.689	966.455	773.660
152.746	21.778	965.659	773.350
153.760	22.012	965.032	773.808
154.775	22.096	964.200	773.444
155.789	22.166	963.357	773.006
156.804	22.128	962.352	771.963
157.819	22.019	961.078	770.395
158.833	22.057	960.479	770.015
159.848	22.146	959.730	769.734
160.862	22.139	958.594	768.727
161.877	22.116	957.783	767.908
162.892	22.013	957.251	766.963
163.906	22.022	956.443	766.284
164.921	22.114	955.186	765.614
165.935	22.018	954.279	764.398
166.950	22.166	953.182	764.099
167.964	22.197	951.789	763.049
168.979	22.005	950.916	761.449
169.994	21.879	950.040	760.133
171.008	21.905	948.867	759.241
172.023	22.040	948.016	759.076
173.037	22.087	947.748	758.996
174.052	22.004	946.113	757.261
175.067	21.807	945.156	755.581
176.081	21.691	944.711	754.657
177.096	21.834	944.071	754.696
178.110	21.843	942.948	753.770
179.125	21.734	941.717	752.252
180.140	21.473	940.217	749.867
181.154	21.425	940.081	749.488
182.169	21.657	939.401	749.872
183.183	21.777	939.299	750.239
184.198	22.126	938.756	751.231
185.213	21.997	938.192	750.160
186.227	21.874	937.517	749.032
187.242	22.084	936.979	749.429
188.256	22.046	936.313	748.667
189.271	22.116	935.131	747.954
190.286	22.145	934.956	747.872
191.300	22.069	933.572	746.378
192.315	21.516	932.800	743.344
193.329	20.915	930.510	738.908
194.344	20.472	929.420	736.099
195.359	20.957	930.258	738.754
196.373	21.943	930.186	742.805
197.388	22.167	930.138	743.652
198.402	22.036	929.112	742.210
199.417	21.806	928.687	740.832
200.432	22.121	927.938	741.501
201.446	21.772	927.812	739.861
202.461	21.454	927.168	737.940
203.475	21.500	926.675	737.677
204.490	21.197	924.897	734.923
205.504	20.155	922.183	728.327
206.519	20.583	922.371	730.205
207.534	21.417	923.112	734.231
208.548	21.508	922.161	733.792
209.563	21.849	922.015	735.039
210.577	21.878	921.404	734.609
211.592	21.690	920.752	733.238
212.607	22.057	920.695	734.662
213.621	22.206	919.950	734.627
214.636	22.061	919.173	733.336
215.650	22.220	918.576	733.457
216.665	22.035	917.864	732.055
217.680	22.093	917.388	731.850
218.694	22.112	917.429	731.897
219.709	21.944	916.097	730.073
220.723	21.556	914.911	727.451
221.738	21.781	914.417	727.928
222.753	22.041	913.628	728.312
223.767	21.940	913.341	727.602
224.782	21.951	912.428	726.857
225.796	22.081	912.430	727.329
226.811	22.348	911.429	727.574
227.826	21.896	910.152	724.624
228.840	21.075	908.840	720.124
229.855	21.040	908.331	719.516
230.869	21.358	907.945	720.456
231.884	20.936	906.924	717.844
232.899	20.892	906.553	717.307
233.913	21.634	906.751	720.454
234.928	21.964	905.815	721.001
235.942	21.829	905.267	719.947
236.957	21.854	904.197	719.136
237.972	21.607	903.222	717.284
238.986	21.473	902.616	716.190
240.001	21.638	902.419	716.649
241.015	21.710	901.255	715.952
242.030	21.613	901.193	715.446
243.045	21.800	900.470	715.570
244.059	21.937	899.537	715.326
245.074	22.120	899.286	715.806
246.088	22.029	898.640	714.859
247.103	21.739	897.717	712.882
248.117	21.732	896.892	712.136
249.132	22.170	897.238	714.128
250.147	22.549	896.810	715.262
251.161	22.493	895.979	714.308
252.176	22.719	895.463	714.751
253.190	22.714	894.627	713.999
254.205	22.696	894.381	713.669
255.220	23.033	893.711	714.429
256.234	22.917	893.428	713.675
257.249	22.810	893.035	712.862
258.263	22.707	892.325	711.818
259.278	22.711	891.271	710.929
260.293	22.838	890.877	711.066
261.307	22.877	890.216	710.633
262.322	22.697	889.939	709.622
263.336	22.658	888.814	708.508
264.351	22.296	887.536	705.973
265.366	21.084	885.410	699.363
266.380	20.628	884.328	696.623
267.395	21.563	885.135	700.943
268.409	22.391	884.810	703.935
269.424	22.273	884.669	703.290
270.439	22.612	883.603	703.732
271.453	22.646	883.215	703.498
272.468	22.868	881.969	703.326
273.482	22.731	882.182	702.890
274.497	22.987	881.607	703.390
275.512	22.748	880.367	701.385
276.526	22.045	879.328	697.705
277.541	22.358	878.921	698.562
278.555	22.658	878.912	699.684
279.570	22.608	878.086	698.767
280.585	22.252	877.488	696.819
281.599	22.300	876.728	696.345
282.614	22.567	876.549	697.195
283.628	21.936	875.239	693.598
284.643	21.658	874.597	691.930
285.657	22.138	874.524	693.708
286.672	22.058	873.467	692.491
287.687	21.622	871.902	689.475
288.701	21.824	872.562	690.732
289.716	22.268	872.418	692.302
290.730	21.922	871.330	690.017
291.745	21.769	870.367	688.595
292.760	21.502	869.617	686.891
293.774	21.375	869.414	686.173
294.789	22.548	869.117	690.475
295.803	23.151	869.102	692.763
296.818	23.055	868.748	692.047
297.833	23.274	868.180	692.390
298.847	22.894	867.233	690.088
299.862	22.595	866.062	687.929
300.876	22.897	865.913	688.925
301.891	23.131	865.291	689.283
302.906	23.109	864.774	688.724
303.920	22.786	863.649	686.511
304.935	22.646	863.055	685.433
305.949	22.995	862.874	686.586
306.964	23.113	862.251	686.489
307.979	22.985	861.526	685.353
308.993	22.757	861.421	684.326
310.008	23.094	860.807	685.083
311.022	23.285	860.408	685.442
312.037	23.156	859.804	684.402
313.052	22.911	859.069	682.809
314.066	22.922	858.071	681.998
315.081	22.141	856.997	678.072
316.095	21.406	855.918	674.325
317.110	21.877	856.189	676.295
318.125	22.844	856.001	679.813
319.139	22.387	854.940	677.152
320.154	21.299	853.096	671.454
321.168	20.868	852.109	668.960
322.183	21.580	852.293	671.782
323.197	22.259	853.172	675.022
324.212	22.726	852.659	676.348
325.227	22.715	852.285	675.946
326.241	22.885	851.761	676.123
327.256	22.830	851.120	675.345
328.270	22.763	850.201	674.298
329.285	22.730	849.502	673.559
330.300	22.636	848.819	672.597
331.314	22.263	848.328	670.728
332.329	22.326	847.629	670.357
333.343	22.748	847.347	671.679
334.358	23.213	846.835	672.985
335.373	23.028	846.076	671.617
336.387	23.012	845.965	671.408
337.402	23.272	845.410	671.895
338.416	23.349	845.019	671.820
339.431	23.391	844.434	671.452
340.446	23.344	843.761	670.681
341.460	23.770	843.074	671.688
342.475	23.519	842.955	670.584
343.489	23.360	842.216	669.335
344.504	23.209	841.421	668.075
345.519	23.477	841.401	669.011
346.533	23.846	840.971	670.003
347.548	23.697	840.693	669.159
348.562	23.796	840.217	669.094
349.577	23.829	839.410	668.516
350.592	23.730	838.829	667.620
351.606	23.715	838.317	667.099
352.621	23.777	837.565	666.674
353.635	23.663	837.277	665.958
354.650	23.575	836.815	665.203
355.665	23.153	835.999	662.914
356.679	22.169	833.836	657.459
357.694	22.134	833.364	656.901
358.708	22.761	833.755	659.496
359.723	22.807	833.019	659.026
360.738	22.883	832.448	658.798
361.752	23.380	832.631	660.738
362.767	23.406	832.220	660.453
363.781	23.707	832.051	661.381
364.796	24.004	831.897	662.306
365.810	24.041	831.280	661.891
366.825	24.076	830.927	661.681
367.840	24.141	830.610	661.612
368.854	23.935	829.852	660.187
369.869	23.657	828.985	658.407
370.883	23.456	828.670	657.354
371.898	23.474	827.948	656.788
372.913	23.474	827.163	656.108
373.927	23.385	826.591	655.267
374.942	23.602	825.990	655.534
375.956	23.643	825.526	655.259
376.971	23.709	825.009	655.033
377.986	23.798	824.680	655.044
379.000	24.011	824.378	655.532
380.015	24.203	823.624	655.581
381.029	23.899	822.755	653.714
382.044	23.841	822.430	653.182
383.059	24.008	821.928	653.340
384.073	23.970	821.369	652.700
385.088	24.009	820.679	652.236
386.102	24.003	820.318	651.869
387.117	24.024	818.943	650.797
388.132	23.833	819.032	650.110
389.146	23.604	818.282	648.620
390.161	23.292	817.052	646.450
391.175	23.327	816.837	646.349
392.190	23.615	817.407	647.795
393.205	23.756	816.452	647.496
394.219	22.898	814.500	642.771
395.234	21.166	812.441	634.795
396.248	20.743	811.212	632.243
397.263	21.532	812.598	636.136
398.278	23.293	813.944	643.538
399.292	23.889	813.228	645.079
400.307	23.398	813.021	643.074
401.321	23.579	812.083	642.932
402.336	23.455	811.813	642.213
403.350	23.787	811.932	643.452
404.365	24.175	811.895	644.770
405.380	24.460	811.642	645.545
406.394	24.660	811.111	645.787
407.409	24.752	810.945	645.930
408.423	24.706	810.392	645.265
409.438	24.630	809.819	644.480
410.453	24.815	809.110	644.523
411.467	24.706	809.168	644.121
412.482	24.663	808.757	643.580
413.496	24.666	807.962	642.905
414.511	24.760	807.633	642.923
415.526	24.910	806.969	642.875
416.540	24.761	806.912	642.239
417.555	24.769	806.320	641.739
418.569	24.361	805.868	639.859
419.584	24.368	805.068	639.191
420.599	24.423	804.489	638.874
421.613	152.968	1364.670	1792.058
422.628	132.765	1446.314	1792.164
