DTS Sentinel unit serial number:	SN413079Multiplexer serial number:	ORYXHardware model number:	OX4-SRSoftware version number:	ORYX F/W v4.00 Oryx Data Collector v3.7.2.0data status	okinstallation	princeton_trtdifferential loss correction	single-endedforward channel	channel 3reverse channel	N/Adate	2019/09/12time	17:54:10forward acquisition time	60.00reverse acquisition time	0.00gamma	496.2192k internal	0.2317k external	0.2317temperature offset calibration	1.0091default loss term (dB/km)	0.3790temperature slope calibration	1.0000multiplexer offset coefficient	1.0000multiplexer slope coefficient	1.0000fibre end	0.00T internal ref (°C)	33.94T ext. ref 1 (°C)	2.97T ext. ref 2 (°C)	28.31length (m)	temperature (°C)	Stokes	anti-Stokes-747.200	60.862	-0.191	0.192
-746.185	-104.422	-0.231	0.054
-745.171	45.735	-0.115	-0.108
-744.156	33.188	-0.352	0.309
-743.142	-125.046	-0.109	0.017
-742.127	-0.148	-0.111	0.080
-741.112	-63.390	-0.279	-0.116
-740.098	-25.206	0.234	0.141
-739.083	-113.554	-0.106	0.021
-738.069	-27.698	0.102	0.060
-737.054	486.944	-0.022	0.050
-736.039	23.111	-0.138	-0.115
-735.025	-200.000	0.025	0.135
-734.010	-190.038	-0.228	-0.003
-732.996	-200.000	0.001	-0.434
-731.981	-83.944	-0.487	-0.157
-730.966	-200.000	-0.004	-0.110
-729.952	-48.508	-0.352	-0.172
-728.937	-52.656	0.074	0.035
-727.923	121.132	-0.279	-0.352
-726.908	-42.841	-0.089	0.046
-725.894	-200.000	0.027	0.125
-724.879	293.250	-0.065	-0.120
-723.864	56.008	0.065	-0.064
-722.850	53.356	0.163	0.158
-721.835	273.857	0.089	-0.159
-720.821	71.269	0.159	-0.167
-719.806	-200.000	-0.018	0.109
-718.791	800.000	0.030	-0.112
-717.777	-200.000	0.031	-0.170
-716.762	70.707	0.175	-0.183
-715.748	-38.859	-0.269	-0.144
-714.733	-109.726	-0.555	0.118
-713.718	-168.886	-0.205	-0.008
-712.704	-200.000	0.002	0.142
-711.689	5.646	0.308	-0.230
-710.675	-200.000	-0.013	-0.111
-709.660	226.022	0.086	-0.141
-708.645	64.820	-0.107	0.109
-707.631	121.485	-0.194	-0.244
-706.616	13.257	0.064	0.050
-705.602	-112.094	-0.404	-0.082
-704.587	-90.339	0.183	-0.054
-703.572	114.673	-0.086	0.105
-702.558	22.043	-0.193	0.159
-701.543	74.444	-0.144	-0.153
-700.529	-200.000	0.073	-0.337
-699.514	-200.000	0.001	-0.140
-698.499	182.515	0.159	-0.237
-697.485	-200.000	-0.039	0.230
-696.470	-181.842	0.151	-0.003
-695.456	-134.516	-0.087	0.011
-694.441	553.599	-0.057	0.139
-693.426	-156.237	0.101	-0.006
-692.412	-44.003	-0.283	0.144
-691.397	-15.433	0.087	0.056
-690.383	151.948	-0.185	-0.255
-689.368	-129.372	0.260	-0.037
-688.354	-200.000	-0.009	0.330
-687.339	-134.428	-0.186	-0.023
-686.324	-53.729	0.059	0.027
-685.310	-200.000	-0.021	0.175
-684.295	43.260	-0.245	-0.226
-683.281	158.512	-0.090	-0.126
-682.266	-200.000	-0.067	-0.376
-681.251	-9.240	-0.084	0.057
-680.237	206.786	0.097	0.153
-679.222	800.000	0.064	-0.239
-678.208	800.000	-0.043	0.176
-677.193	212.556	-0.013	-0.020
-676.178	-200.000	-0.035	0.289
-675.164	-200.000	0.022	0.102
-674.149	-80.253	-0.289	0.098
-673.135	240.787	0.084	0.141
-672.120	328.761	0.153	0.297
-671.105	-31.281	-0.242	-0.138
-670.091	138.290	0.124	0.165
-669.076	800.000	0.066	0.220
-668.062	-77.466	0.210	0.074
-667.047	-64.664	0.181	0.074
-666.032	-200.000	0.016	-0.189
-665.018	111.775	-0.135	-0.165
-664.003	44.965	-0.122	-0.113
-662.989	-77.057	0.332	0.117
-661.974	-130.272	0.114	-0.016
-660.959	-75.060	-0.189	-0.068
-659.945	26.676	0.172	-0.145
-658.930	426.463	-0.199	-0.434
-657.916	17.194	0.193	-0.155
-656.901	-131.189	0.288	-0.039
-655.886	-200.000	-0.021	-0.301
-654.872	404.761	0.062	0.132
-653.857	-93.077	-0.328	0.092
-652.843	-35.892	-0.177	-0.097
-651.828	439.318	-0.179	-0.394
-650.814	-200.000	-0.053	0.251
-649.799	-200.000	-0.009	-0.081
-648.784	800.000	-0.068	-0.300
-647.770	-76.106	-0.185	-0.066
-646.755	-55.362	-0.231	-0.104
-645.741	-77.081	0.071	0.025
-644.726	-200.000	-0.033	-0.279
-643.711	-80.608	-0.106	0.035
-642.697	103.459	-0.128	-0.152
-641.682	402.420	-0.040	-0.086
-640.668	-109.011	0.385	0.083
-639.653	-10.255	-0.061	-0.041
-638.638	-200.000	-0.011	0.075
-637.624	-115.084	-0.048	-0.009
-636.609	13.645	-0.089	0.070
-635.595	-138.335	-0.065	-0.007
-634.580	-69.349	-0.274	-0.106
-633.565	800.000	-0.062	0.255
-632.551	328.542	-0.118	0.229
-631.536	-95.389	-0.169	-0.046
-630.522	-40.468	-0.234	0.123
-629.507	138.140	0.164	0.217
-628.492	800.000	-0.037	-0.122
-627.478	95.355	0.156	0.179
-626.463	-45.479	-0.265	-0.132
-625.449	800.000	0.041	0.143
-624.434	173.052	0.053	-0.078
-623.419	2.869	0.062	-0.045
-622.405	118.068	-0.030	-0.038
-621.390	280.216	0.095	0.170
-620.376	102.481	-0.174	-0.205
-619.361	-176.853	0.292	0.007
-618.346	-200.000	-0.027	-0.275
-617.332	-145.782	-0.257	0.023
-616.317	-103.535	-0.166	0.039
-615.303	-200.000	-0.013	0.163
-614.288	-200.000	0.036	0.384
-613.273	110.408	-0.065	0.079
-612.259	-200.000	-0.010	-0.083
-611.244	-200.000	-0.009	0.132
-610.230	353.192	0.040	-0.080
-609.215	-49.495	-0.144	0.069
-608.201	-200.000	0.051	-0.249
-607.186	800.000	-0.034	-0.095
-606.171	-68.033	0.297	0.117
-605.157	644.425	-0.093	-0.238
-604.142	-200.000	-0.040	-0.295
-603.128	-200.000	-0.048	-0.476
-602.113	691.955	0.132	-0.348
-601.098	-200.000	0.018	0.098
-600.084	-149.261	-0.392	-0.032
-599.069	-103.394	0.019	-0.005
-598.055	54.111	-0.170	-0.165
-597.040	-14.418	0.232	-0.150
-596.025	47.844	0.114	0.107
-595.011	220.537	-0.169	-0.273
-593.996	236.534	-0.090	-0.149
-592.982	-54.119	-0.023	-0.010
-591.967	-28.317	0.203	-0.118
-590.952	-200.000	-0.004	0.109
-589.938	131.259	0.183	0.237
-588.923	-79.073	0.180	-0.062
-587.909	-200.000	-0.024	-0.246
-586.894	-121.297	0.392	-0.066
-585.879	69.607	-0.149	-0.154
-584.865	280.833	-0.145	-0.261
-583.850	132.987	-0.127	-0.165
-582.836	-62.077	-0.104	0.044
-581.821	-75.310	0.075	-0.027
-580.806	-200.000	0.059	0.360
-579.792	-200.000	-0.037	0.195
-578.777	144.809	-0.155	-0.209
-577.763	-18.409	-0.283	-0.178
-576.748	-170.460	-0.130	-0.005
-575.733	35.144	-0.053	0.046
-574.719	126.768	0.060	-0.076
-573.704	424.748	0.057	-0.124
-572.690	-84.723	-0.173	0.055
-571.675	-108.769	0.229	0.049
-570.661	-72.505	0.272	-0.101
-569.646	-26.348	-0.068	-0.040
-568.631	345.232	-0.115	-0.228
-567.617	526.128	-0.101	-0.239
-566.602	-43.634	0.425	-0.216
-565.588	-82.253	0.215	0.071
-564.573	-11.810	-0.172	-0.114
-563.558	174.336	-0.130	0.190
-562.544	0.870	-0.295	-0.212
-561.529	-13.123	0.187	0.122
-560.515	-58.447	0.237	-0.103
-559.500	42.012	-0.146	0.133
-558.485	-200.000	0.027	0.180
-557.471	-200.000	-0.010	0.111
-556.456	-184.209	0.315	0.005
-555.442	800.000	-0.102	0.294
-554.427	39.670	0.256	-0.230
-553.412	-200.000	0.010	0.193
-552.398	563.488	0.120	-0.291
-551.383	24.349	-0.257	-0.213
-550.369	-171.016	-0.146	-0.005
-549.354	-200.000	0.037	0.176
-548.339	-200.000	0.060	-0.269
-547.325	2.520	0.119	-0.087
-546.310	-77.283	-0.383	0.134
-545.296	-200.000	0.055	-0.476
-544.281	-55.152	0.167	-0.075
-543.266	156.685	0.336	-0.466
-542.252	758.688	0.054	-0.148
-541.237	800.000	-0.136	-0.384
-540.223	109.316	0.278	-0.335
-539.208	3.077	-0.229	-0.167
-538.193	800.000	0.057	-0.206
-537.179	-39.234	-0.122	-0.064
-536.164	-80.823	0.131	0.044
-535.150	-46.965	-0.101	-0.050
-534.135	-139.746	0.249	0.027
-533.121	-200.000	0.080	0.000
-532.106	-200.000	0.005	0.264
-531.091	176.418	-0.103	0.150
-530.077	-38.131	0.154	0.082
-529.062	221.230	0.052	-0.084
-528.048	-123.652	-0.478	0.076
-527.033	-159.837	-0.248	-0.014
-526.018	-111.053	-0.133	0.027
-525.004	26.473	-0.138	0.116
-523.989	-200.000	-0.160	-0.001
-522.975	-174.895	0.055	-0.002
-521.960	604.535	0.078	0.194
-520.945	231.481	0.113	-0.185
-519.931	-146.684	-0.253	0.022
-518.916	-59.481	0.283	0.122
-517.902	91.448	-0.163	-0.184
-516.887	-87.039	-0.273	0.084
-515.872	-200.000	0.037	-0.328
-514.858	-78.550	0.299	-0.103
-513.843	11.263	-0.036	0.028
-512.829	517.649	0.124	0.291
-511.814	-136.638	0.276	-0.032
-510.799	191.700	0.085	-0.129
-509.785	800.000	0.076	-0.327
-508.770	-13.816	0.212	-0.137
-507.756	43.357	0.052	0.048
-506.741	638.467	-0.026	-0.066
-505.726	-37.645	-0.356	-0.191
-504.712	35.774	-0.166	-0.146
-503.697	-89.571	0.171	-0.050
-502.683	-72.121	0.222	0.083
-501.668	-200.000	-0.047	-0.221
-500.653	-200.000	-0.013	0.146
-499.639	35.029	-0.035	-0.031
-498.624	-37.916	-0.160	0.086
-497.610	24.675	0.155	-0.129
-496.595	-17.446	-0.043	-0.027
-495.581	-16.831	0.101	-0.064
-494.566	-61.416	0.195	0.082
-493.551	-148.307	-0.480	0.040
-492.537	-69.508	-0.271	-0.104
-491.522	11.002	0.079	0.060
-490.508	170.593	-0.028	-0.040
-489.493	-61.373	0.065	-0.027
-488.478	396.640	0.045	0.095
-487.464	-200.000	-0.001	-0.278
-486.449	92.033	-0.168	-0.190
-485.435	170.395	0.137	-0.196
-484.420	-62.727	0.305	0.127
-483.405	-79.843	-0.047	-0.016
-482.391	-144.944	-0.430	0.039
-481.376	-68.943	0.101	-0.039
-480.362	20.406	0.229	0.186
-479.347	-3.954	0.294	-0.204
-478.332	-117.312	0.402	-0.073
-477.318	-107.301	-0.414	-0.091
-476.303	56.044	0.021	-0.021
-475.289	140.352	-0.109	0.144
-474.274	-6.417	-0.137	-0.094
-473.259	369.794	-0.083	0.168
-472.245	10.272	-0.225	0.172
-471.230	291.389	0.042	0.076
-470.216	37.715	0.062	-0.055
-469.201	-188.902	-0.241	-0.003
-468.186	-26.754	0.076	-0.044
-467.172	-134.078	0.122	-0.015
-466.157	223.171	-0.020	-0.032
-465.143	58.023	-0.146	-0.143
-464.128	-70.294	-0.250	0.095
-463.113	-93.813	0.146	0.040
-462.099	4.970	0.183	-0.135
-461.084	-120.826	-0.213	-0.036
-460.070	-175.708	0.508	-0.014
-459.055	-200.000	-0.038	0.217
-458.040	-6.290	0.112	0.077
-457.026	65.131	0.034	0.035
-456.011	153.112	0.075	0.103
-454.997	196.219	-0.202	-0.308
-453.982	43.817	-0.227	-0.208
-452.968	-23.137	-0.317	0.191
-451.953	-192.200	0.100	-0.001
-450.938	160.440	-0.096	-0.134
-449.924	800.000	0.042	-0.160
-448.909	-33.617	0.326	0.180
-447.895	253.173	0.064	-0.110
-446.880	-28.030	-0.154	0.089
-445.865	800.000	-0.114	-0.389
-444.851	-77.254	0.257	-0.090
-443.836	-127.449	0.293	0.043
-442.822	121.614	-0.101	-0.126
-441.807	-162.959	0.206	-0.010
-440.792	-111.109	0.267	-0.055
-439.778	276.914	-0.180	-0.321
-438.763	-13.779	0.185	-0.120
-437.749	75.385	0.131	0.138
-436.734	-62.380	0.106	0.044
-435.719	-73.244	0.361	-0.132
-434.705	696.958	0.099	-0.261
-433.690	183.188	-0.070	-0.103
-432.676	416.853	-0.132	0.281
-431.661	-55.226	-0.192	0.086
-430.646	-126.658	0.235	-0.035
-429.632	54.773	-0.077	-0.075
-428.617	107.642	-0.161	0.191
-427.603	97.943	0.148	0.170
-426.588	-56.983	0.320	0.141
-425.573	-12.345	-0.107	-0.070
-424.559	-57.388	0.132	-0.058
-423.544	88.141	0.210	0.233
-422.530	415.268	-0.194	0.413
-421.515	800.000	-0.032	-0.107
-420.500	375.738	-0.103	0.210
-419.486	-200.000	0.004	-0.325
-418.471	800.000	-0.083	-0.245
-417.457	-125.133	0.376	-0.058
-416.442	-200.000	-0.024	0.272
-415.428	306.921	-0.220	0.410
-414.413	-200.000	0.009	0.068
-413.398	262.551	0.089	0.155
-412.384	27.757	-0.277	0.233
-411.369	166.686	0.086	0.122
-410.355	-200.000	0.022	-0.150
-409.340	-23.802	0.235	0.141
-408.325	69.570	-0.160	0.165
-407.311	24.929	0.321	0.266
-406.296	36.060	-0.172	0.151
-405.282	439.168	-0.047	-0.102
-404.267	177.008	0.113	0.164
-403.252	15.958	0.010	0.008
-402.238	-130.956	0.323	-0.043
-401.223	471.817	-0.035	-0.078
-400.209	40.356	0.132	-0.119
-399.194	-111.272	0.105	-0.021
-398.179	-161.479	0.521	-0.027
-397.165	20.304	-0.097	-0.078
-396.150	-200.000	0.015	0.125
-395.136	273.959	-0.081	-0.143
-394.121	317.189	-0.132	-0.249
-393.106	644.681	0.093	0.238
-392.092	45.112	0.224	0.206
-391.077	800.000	-0.020	-0.066
-390.063	101.240	0.131	-0.153
-389.048	-200.000	-0.024	0.172
-388.033	800.000	-0.068	0.243
-387.019	304.751	0.211	-0.391
-386.004	-200.000	-0.037	0.206
-384.990	4.171	0.225	-0.164
-383.975	115.554	-0.255	0.311
-382.960	-0.194	0.106	-0.075
-381.946	-70.698	0.178	-0.067
-380.931	83.206	0.210	-0.228
-379.917	-62.608	-0.421	0.175
-378.902	186.708	-0.281	-0.418
-377.888	-200.000	-0.012	-0.333
-376.873	-137.651	0.192	0.022
-375.858	109.355	0.133	0.159
-374.844	215.585	-0.307	0.486
-373.829	53.878	-0.100	-0.096
-372.815	800.000	-0.012	0.052
-371.800	-36.733	-0.276	0.148
-370.785	-200.000	0.010	0.048
-369.771	42.170	-0.038	0.035
-368.756	-135.567	0.096	0.011
-367.742	-136.486	-0.336	0.039
-366.727	-161.732	-0.252	-0.013
-365.712	-48.067	-0.141	0.068
-364.698	576.189	0.016	0.040
-363.683	41.625	-0.178	-0.161
-362.669	-28.254	-0.340	0.196
-361.654	-68.061	0.281	-0.109
-360.639	330.155	-0.156	0.299
-359.625	40.248	0.099	-0.089
-358.610	227.424	-0.134	0.217
-357.596	44.470	0.279	-0.256
-356.581	291.693	-0.278	0.504
-355.566	-200.000	0.016	0.398
-354.552	265.028	-0.079	-0.138
-353.537	-82.613	0.212	0.069
-352.523	-27.546	-0.140	0.081
-351.508	-8.187	-0.103	-0.069
-350.493	-14.390	0.204	-0.131
-349.479	-200.000	0.030	0.349
-348.464	45.845	0.063	-0.058
-347.450	-60.962	-0.141	-0.059
-346.435	-93.844	-0.249	-0.068
-345.420	-28.460	0.049	0.028
-344.406	800.000	-0.039	0.133
-343.391	53.335	0.039	-0.037
-342.377	47.512	0.132	0.123
-341.362	-200.000	0.011	0.077
-340.348	-200.000	-0.026	0.377
-339.333	800.000	-0.068	0.263
-338.318	-200.000	0.007	0.086
-337.304	220.045	0.140	0.224
-336.289	-183.284	-0.192	0.003
-335.275	-58.027	0.092	0.040
-334.260	350.959	0.252	0.497
-333.245	67.408	0.212	-0.215
-332.231	-200.000	-0.011	-0.069
-331.216	-44.304	0.102	0.051
-330.202	50.623	0.282	0.266
-329.187	-58.356	0.211	-0.091
-328.172	38.560	-0.312	-0.277
-327.158	-200.000	-0.004	-0.224
-326.143	552.187	0.071	0.170
-325.129	-200.000	-0.001	0.053
-324.114	338.847	-0.108	-0.210
-323.099	-42.213	-0.294	-0.150
-322.085	800.000	-0.073	-0.309
-321.070	-200.000	-0.055	0.333
-320.056	45.401	0.040	0.037
-319.041	-200.000	-0.033	-0.164
-318.026	112.638	-0.189	-0.228
-317.012	-52.676	-0.090	0.041
-315.997	443.663	-0.117	0.256
-314.983	-115.822	0.491	0.091
-313.968	800.000	-0.101	-0.292
-312.953	99.948	-0.108	0.124
-311.939	-26.378	0.108	-0.063
-310.924	-56.040	-0.126	0.056
-309.910	800.000	0.063	0.197
-308.895	-200.000	0.042	-0.257
-307.880	-5.964	0.097	0.066
-306.866	335.583	0.031	0.061
-305.851	800.000	0.087	0.276
-304.837	800.000	-0.025	0.098
-303.822	10.112	0.294	-0.222
-302.807	165.358	-0.174	-0.244
-301.793	236.730	0.004	-0.007
-300.778	800.000	0.026	0.088
-299.764	-45.256	-0.440	0.218
-298.749	6.154	-0.127	-0.093
-297.735	-200.000	0.068	-0.456
-296.720	62.000	0.235	-0.233
-295.705	-113.165	0.298	0.059
-294.691	-39.746	0.199	0.103
-293.676	-33.711	0.244	0.134
-292.662	57.674	-0.170	0.165
-291.647	-17.952	-0.074	0.046
-290.632	499.544	0.005	-0.012
-289.618	215.890	0.148	0.234
-288.603	655.129	-0.106	-0.271
-287.589	-200.000	-0.059	-0.318
-286.574	-200.000	-0.003	0.205
-285.559	-200.000	0.023	0.268
-284.545	20.269	0.108	-0.086
-283.530	800.000	-0.080	0.225
-282.516	54.873	0.056	0.054
-281.501	42.404	-0.113	-0.103
-280.486	-130.810	-0.154	0.021
-279.472	800.000	0.050	0.191
-278.457	344.361	-0.256	-0.500
-277.443	-63.145	-0.194	0.080
-276.428	800.000	-0.083	0.359
-275.413	-200.000	-0.062	-0.278
-274.399	-108.446	-0.105	0.022
-273.384	-49.202	-0.129	0.061
-272.370	-200.000	0.037	0.370
-271.355	-59.905	-0.216	0.092
-270.340	-50.684	-0.391	-0.183
-269.326	-66.704	0.215	0.085
-268.311	-146.982	-0.188	0.016
-267.297	800.000	-0.034	0.103
-266.282	-106.021	-0.182	-0.041
-265.267	113.521	-0.032	-0.039
-264.253	-200.000	-0.046	-0.256
-263.238	-35.473	0.286	-0.154
-262.224	-110.657	-0.192	-0.039
-261.209	775.356	0.081	-0.221
-260.195	800.000	0.095	0.296
-259.180	-200.000	-0.040	0.345
-258.165	394.527	-0.125	0.258
-257.151	800.000	0.026	-0.100
-256.136	-18.559	0.332	0.206
-255.122	70.595	-0.358	-0.368
-254.107	2.334	-0.106	-0.076
-253.092	9.357	-0.288	0.216
-252.078	800.000	-0.085	0.251
-251.063	-112.338	0.358	0.071
-250.049	-174.209	0.114	0.003
-249.034	-200.000	0.052	-0.329
-248.019	-72.971	0.270	0.099
-247.005	-16.485	0.268	-0.169
-245.990	21.836	-0.059	0.048
-244.976	32.122	0.094	-0.080
-243.961	-200.000	0.005	-0.318
-242.946	16.937	0.030	0.023
-241.932	-34.928	-0.262	-0.142
-240.917	62.774	-0.026	-0.026
-239.903	-151.535	-0.199	-0.015
-238.888	-200.000	-0.038	0.196
-237.873	773.987	0.089	-0.242
-236.859	800.000	0.073	-0.202
-235.844	-200.000	0.027	-0.154
-234.830	-91.030	0.144	0.041
-233.815	-200.000	-0.012	-0.428
-232.800	-12.365	-0.210	0.136
-231.786	110.884	0.036	0.043
-230.771	-200.000	-0.022	0.148
-229.757	-24.116	-0.063	0.037
-228.742	25.150	-0.312	0.257
-227.727	315.113	0.158	-0.296
-226.713	800.000	0.052	-0.190
-225.698	800.000	-0.077	0.254
-224.684	106.245	-0.090	0.105
-223.669	146.034	-0.178	-0.238
-222.655	-50.082	0.128	-0.060
-221.640	317.451	0.116	0.218
-220.625	188.479	-0.073	-0.109
-219.611	-166.148	0.195	0.008
-218.596	65.346	0.137	0.138
-217.582	66.012	0.135	0.136
-216.567	-22.507	-0.140	0.084
-215.552	300.117	0.190	-0.348
-214.538	257.475	-0.237	-0.404
-213.523	-200.000	0.014	-0.388
-212.509	-96.896	0.290	0.075
-211.494	-127.437	0.192	0.028
-210.479	459.550	-0.052	-0.115
-209.465	-57.242	-0.066	0.029
-208.450	-101.917	0.452	0.108
-207.436	372.407	-0.054	0.110
-206.421	-200.000	-0.019	0.225
-205.406	517.968	0.146	0.339
-204.392	-94.549	-0.221	0.060
-203.377	77.461	-0.034	0.036
-202.363	-48.289	0.055	0.026
-201.348	-136.248	0.263	-0.031
-200.333	80.448	0.222	0.237
-199.319	-200.000	0.061	0.284
-198.304	125.406	-0.218	0.273
-197.290	-27.133	0.208	-0.120
-196.275	-37.096	0.149	-0.079
-195.260	23.971	0.135	0.110
-194.246	800.000	0.092	0.295
-193.231	-47.273	-0.492	0.237
-192.217	-20.060	-0.093	-0.057
-191.202	11.847	-0.182	-0.139
-190.187	471.994	-0.120	0.269
-189.173	3.985	-0.204	0.148
-188.158	66.935	-0.174	-0.176
-187.144	-200.000	-0.001	0.092
-186.129	30.528	0.212	0.180
-185.114	100.533	0.208	0.239
-184.100	-37.691	-0.129	-0.068
-183.085	147.460	-0.243	0.324
-182.071	-200.000	-0.068	0.351
-181.056	183.454	-0.128	-0.187
-180.042	376.031	-0.022	-0.045
-179.027	-40.094	0.133	-0.068
-178.012	-200.000	0.032	0.141
-176.998	-2.604	-0.325	0.225
-175.983	396.273	-0.160	0.332
-174.969	-11.649	0.147	-0.096
-173.954	-200.000	0.012	0.194
-172.939	522.524	-0.028	-0.064
-171.925	-148.274	0.434	0.035
-170.910	-200.000	0.020	0.227
-169.896	96.113	0.195	0.221
-168.881	-200.000	0.020	0.200
-167.866	800.000	-0.033	-0.096
-166.852	-101.335	0.050	0.012
-165.837	-20.848	-0.126	-0.076
-164.823	147.625	0.091	0.121
-163.808	185.713	-0.129	0.190
-162.793	347.655	0.080	0.155
-161.779	203.151	-0.033	0.050
-160.764	-200.000	-0.029	0.208
-159.750	23.672	0.136	-0.111
-158.735	-200.000	-0.019	0.155
-157.720	0.253	0.115	-0.081
-156.706	-200.000	0.007	-0.069
-155.691	-40.468	-0.093	0.048
-154.677	-99.193	0.351	0.088
-153.662	96.668	-0.049	-0.055
-152.647	-200.000	-0.012	-0.195
-151.633	-108.824	-0.080	-0.017
-150.618	-124.416	0.150	0.023
-149.604	4.446	0.175	0.127
-148.589	-194.120	0.123	-0.001
-147.574	132.420	0.254	-0.324
-146.560	-53.223	0.255	-0.116
-145.545	736.595	-0.133	-0.353
-144.531	-200.000	-0.022	0.201
-143.516	319.630	0.149	-0.280
-142.502	-70.873	-0.132	-0.049
-141.487	114.358	0.117	-0.141
-140.472	28.998	-0.131	0.110
-139.458	-115.506	0.172	0.032
-138.443	800.000	0.105	0.325
-137.429	800.000	0.074	-0.268
-136.414	301.465	-0.136	-0.248
-135.399	-35.335	0.216	0.116
-134.385	-19.663	0.084	-0.051
-133.370	-122.063	0.232	0.038
-132.356	-200.000	0.003	0.474
-131.341	800.000	-0.101	-0.330
-130.326	-60.580	0.323	-0.136
-129.312	-200.000	0.019	-0.102
-128.297	-200.000	0.032	0.351
-127.283	55.662	-0.085	-0.081
-126.268	30.734	0.204	0.172
-125.253	-200.000	-0.013	0.398
-124.239	331.933	0.140	0.267
-123.224	800.000	0.066	0.225
-122.210	451.594	0.107	0.233
-121.195	11.382	0.119	-0.090
-120.180	44.647	-0.108	-0.098
-119.166	98.093	-0.131	0.150
-118.151	-200.000	0.015	-0.137
-117.137	251.543	0.026	0.044
-116.122	-72.730	-0.202	0.073
-115.107	-158.082	0.101	0.006
-114.093	69.635	0.123	0.125
-113.078	220.299	0.148	-0.234
-112.064	40.081	0.201	-0.178
-111.049	51.865	-0.281	0.264
-110.034	-169.330	0.121	-0.004
-109.020	800.000	-0.037	0.108
-108.005	-19.828	-0.132	-0.081
-106.991	-105.932	-0.157	-0.035
-105.976	-189.871	0.288	-0.003
-104.962	-2.354	0.127	-0.088
-103.947	-200.000	0.018	-0.415
-102.932	-45.031	0.089	0.044
-101.918	292.614	-0.110	0.198
-100.903	-68.788	0.238	-0.091
-99.889	-200.000	-0.037	0.165
-98.874	10.231	0.202	-0.152
-97.859	-51.626	-0.224	0.103
-96.845	-145.391	0.258	0.023
-95.830	-132.915	-0.312	0.039
-94.816	44.811	-0.075	0.068
-93.801	48.647	0.330	-0.305
-92.786	12.670	0.340	0.259
-91.772	-1.024	-0.219	-0.153
-90.757	97.637	0.169	-0.192
-89.743	-200.000	0.010	0.353
-88.728	-64.519	-0.130	-0.052
-87.713	-85.513	-0.077	0.024
-86.699	-173.560	0.123	0.004
-85.684	-63.564	0.305	0.124
-84.670	-69.704	-0.115	0.043
-83.655	327.054	0.199	-0.376
-82.640	564.396	-0.114	-0.273
-81.626	-152.483	-0.104	-0.007
-80.611	29.263	0.225	0.188
-79.597	800.000	-0.045	-0.155
-78.582	-117.487	-0.238	0.043
-77.567	800.000	0.040	-0.163
-76.553	150.007	-0.281	-0.376
-75.538	-200.000	0.060	-0.332
-74.524	271.664	0.061	-0.106
-73.509	-200.000	-0.006	0.465
-72.494	-45.668	0.377	-0.184
-71.480	150.928	0.156	0.210
-70.465	314.267	0.055	0.102
-69.451	125.559	0.140	0.174
-68.436	-200.000	0.006	-0.128
-67.422	22.849	-0.214	0.173
-66.407	-118.692	0.144	0.025
-65.392	-10.745	-0.050	-0.033
-64.378	4.684	0.113	0.082
-63.363	40.904	0.162	0.144
-62.349	-186.081	-0.025	-0.000
-61.334	62.734	-1.047	-1.033
-60.319	17.045	0.537	0.420
-59.305	800.000	-0.248	-0.797
-58.290	263.557	0.583	0.998
-57.276	564.196	0.717	1.712
-56.261	-200.000	94.923	566.925
-55.246	545.247	1375.927	3240.816
-54.232	157.494	2563.480	3497.614
-53.217	111.100	2168.194	2573.958
-52.203	44.002	1709.004	1543.746
-51.188	37.157	1521.537	1327.724
-50.173	34.704	1494.915	1287.925
-49.159	54.387	1543.697	1465.168
-48.144	56.713	1561.947	1498.348
-47.130	37.316	1520.466	1327.665
-46.115	34.184	1505.078	1292.943
-45.100	34.075	1502.059	1289.562
-44.086	33.999	1500.161	1287.370
-43.071	33.984	1498.446	1285.740
-42.057	33.887	1496.996	1283.795
-41.042	33.933	1495.275	1282.573
-40.027	33.948	1494.105	1281.619
-39.013	34.007	1492.721	1280.784
-37.998	33.887	1491.607	1278.964
-36.984	33.917	1490.751	1278.383
-35.969	33.907	1488.561	1276.387
-34.954	33.905	1487.346	1275.283
-33.940	33.968	1485.982	1274.484
-32.925	33.977	1484.998	1273.651
-31.911	33.816	1483.742	1271.442
-30.896	34.076	1481.844	1271.505
-29.881	34.115	1480.758	1270.783
-28.867	33.954	1479.600	1268.668
-27.852	34.040	1477.785	1267.633
-26.838	34.021	1476.830	1266.638
-25.823	33.895	1475.359	1264.485
-24.809	34.002	1473.287	1263.367
-23.794	33.986	1472.006	1262.114
-22.779	33.947	1470.745	1260.725
-21.765	34.032	1469.580	1260.241
-20.750	34.035	1468.469	1259.259
-19.736	33.918	1468.043	1258.065
-18.721	33.919	1466.428	1256.638
-17.706	33.857	1465.731	1255.580
-16.692	33.935	1464.475	1254.973
-15.677	33.888	1463.599	1253.861
-14.663	33.872	1462.638	1252.884
-13.648	34.100	1461.346	1253.230
-12.633	33.939	1460.842	1251.685
-11.619	33.959	1459.598	1250.703
-10.604	33.842	1458.800	1249.201
-9.590	33.874	1458.239	1248.883
-8.575	33.818	1457.656	1247.964
-7.560	33.954	1456.956	1248.207
-6.546	33.897	1455.709	1246.716
-5.531	33.848	1454.815	1245.578
-4.517	33.881	1453.863	1244.930
-3.502	33.975	1452.778	1244.566
-2.487	33.910	1452.242	1243.632
-1.473	33.890	1450.891	1242.300
-0.458	33.968	1449.307	1241.399
0.556	34.725	1439.980	1228.942
1.571	31.476	1414.328	1186.374
2.586	27.608	1354.315	1112.380
3.600	25.705	1272.401	1034.087
4.615	24.268	1225.763	988.137
5.629	20.701	1169.377	923.700
6.644	11.383	1084.377	810.402
7.659	4.151	1043.017	744.769
8.673	3.230	1037.194	736.143
9.688	2.895	1034.028	732.234
10.702	2.793	1032.393	730.526
11.717	2.952	1030.275	729.715
12.731	5.803	1034.057	745.906
13.746	15.130	1047.079	799.973
14.761	23.423	1058.215	848.271
15.775	26.085	1060.585	862.848
16.790	26.553	1060.726	865.120
17.804	26.311	1059.551	862.929
18.819	26.215	1058.774	861.762
19.834	26.206	1058.431	861.367
20.848	26.412	1057.838	861.790
21.863	26.472	1057.894	862.045
22.877	26.677	1056.957	862.180
23.892	26.401	1056.840	860.695
24.907	26.287	1055.785	859.218
25.921	26.413	1054.722	858.872
26.936	26.497	1054.314	858.867
27.950	26.288	1053.468	857.107
28.965	26.628	1051.350	856.920
29.980	26.211	1050.332	854.042
30.994	26.305	1049.203	853.493
32.009	26.483	1048.631	853.791
33.023	26.610	1047.691	853.551
34.038	26.314	1047.268	851.736
35.053	26.317	1046.353	850.929
36.067	26.344	1045.638	850.399
37.082	26.358	1045.080	849.935
38.096	26.372	1044.004	849.052
39.111	26.661	1043.140	849.627
40.126	26.793	1042.733	849.839
41.140	26.714	1041.376	848.288
42.155	26.440	1039.435	845.355
43.169	26.047	1038.785	842.913
44.184	26.065	1037.665	842.015
45.199	26.035	1037.188	841.415
46.213	25.971	1036.126	840.180
47.228	26.046	1035.129	839.644
48.242	26.196	1034.777	839.985
49.257	26.224	1034.072	839.466
50.271	26.487	1032.622	839.435
51.286	26.410	1032.538	838.936
52.301	26.531	1031.957	838.953
53.315	26.582	1031.396	838.657
54.330	26.496	1030.163	837.183
55.344	26.432	1029.573	836.332
56.359	26.381	1029.366	835.853
57.374	26.359	1028.341	834.846
58.388	26.216	1027.287	833.256
59.403	26.136	1026.309	832.020
60.417	26.195	1025.435	831.512
61.432	25.987	1025.006	830.131
62.447	26.073	1024.074	829.699
63.461	26.148	1023.684	829.654
64.476	26.328	1022.637	829.560
65.490	26.215	1021.969	828.427
66.505	26.205	1020.462	827.085
67.520	26.062	1020.162	826.114
68.534	26.100	1019.926	826.022
69.549	26.177	1018.155	824.871
70.563	25.737	1016.947	821.809
71.578	25.638	1016.563	820.975
72.593	25.709	1015.884	820.677
73.607	25.480	1014.477	818.427
74.622	25.527	1013.715	817.949
75.636	25.854	1012.942	818.742
76.651	26.057	1012.318	819.087
77.666	25.834	1011.759	817.550
78.680	25.831	1010.480	816.430
79.695	25.706	1009.981	815.389
80.709	25.827	1009.504	815.479
81.724	25.960	1008.636	815.306
82.739	25.976	1007.667	814.527
83.753	26.006	1007.281	814.276
84.768	26.361	1006.735	815.364
85.782	26.535	1006.192	815.634
86.797	26.719	1005.739	816.026
87.812	26.702	1004.766	815.089
88.826	26.551	1003.587	813.379
89.841	26.490	1003.053	812.603
90.855	26.707	1002.091	812.722
91.870	26.725	1001.432	812.198
92.884	26.671	1000.710	811.299
93.899	26.576	999.791	810.057
94.914	26.468	999.206	809.028
95.928	26.462	998.382	808.261
96.943	26.612	997.446	808.102
97.957	26.281	996.081	805.452
98.972	26.110	995.122	803.844
99.987	25.994	994.051	802.390
101.001	26.012	993.616	802.047
102.016	26.288	993.101	802.789
103.030	26.357	992.468	802.512
104.045	26.368	991.095	801.379
105.060	26.175	990.420	799.908
106.074	26.020	989.168	798.141
107.089	26.146	988.324	797.946
108.103	26.295	988.283	798.499
109.118	26.408	987.326	798.153
110.133	26.169	986.032	795.984
111.147	25.992	985.299	794.544
112.162	26.051	984.004	793.687
113.176	25.791	983.315	791.918
114.191	25.962	982.213	791.714
115.206	26.037	981.467	791.367
116.220	25.693	980.479	788.994
117.235	25.576	979.620	787.723
118.249	25.795	979.112	788.200
119.264	25.808	978.248	787.494
120.279	25.732	977.198	786.245
121.293	25.774	976.664	785.932
122.308	25.781	976.476	785.740
123.322	25.818	975.300	784.884
124.337	25.786	974.015	783.641
125.352	25.483	973.197	781.597
126.366	25.316	970.887	778.950
127.381	25.152	969.333	776.922
128.395	25.513	969.799	778.793
129.410	26.239	969.515	781.639
130.424	26.233	969.221	781.304
131.439	26.269	968.563	780.863
132.454	26.252	967.098	779.538
133.468	26.416	965.888	779.202
134.483	26.176	966.062	778.239
135.497	26.257	965.061	777.712
136.512	26.539	964.215	778.174
137.527	26.566	964.091	778.119
138.541	26.581	963.140	777.348
139.556	26.502	962.339	776.292
140.570	26.458	961.771	775.581
141.585	26.664	960.534	775.395
142.600	26.533	960.510	774.746
143.614	26.730	958.917	774.233
144.629	26.723	958.291	773.629
145.643	27.040	957.970	774.654
146.658	26.767	957.310	772.889
147.673	26.620	955.491	770.728
148.687	26.509	954.657	769.513
149.702	26.420	953.740	768.327
150.716	26.405	952.356	767.084
151.731	26.265	951.858	766.019
152.746	26.276	951.238	765.498
153.760	26.691	949.865	766.081
154.775	26.650	949.724	765.727
155.789	26.826	948.722	765.596
156.804	26.663	948.212	764.426
157.819	26.652	947.136	763.447
158.833	26.651	946.335	762.729
159.848	26.800	945.371	762.513
160.862	26.960	944.544	762.450
161.877	26.718	943.906	760.849
162.892	26.669	943.015	759.861
163.906	26.751	942.188	759.468
164.921	26.690	941.181	758.336
165.935	26.586	940.444	757.238
166.950	26.718	939.054	756.603
167.964	26.717	938.212	755.853
168.979	26.624	937.899	755.148
169.994	26.529	936.526	753.582
171.008	26.386	935.258	751.899
172.023	26.576	934.567	752.065
173.037	26.792	934.194	752.597
174.052	26.648	932.716	750.743
175.067	26.463	931.860	749.219
176.081	26.296	931.458	748.140
177.096	26.454	930.361	747.847
178.110	26.447	929.959	747.427
179.125	26.371	928.781	746.099
180.140	26.165	927.131	743.860
181.154	26.022	926.994	743.096
182.169	26.298	926.476	743.751
183.183	26.412	926.214	743.945
184.198	26.712	926.019	744.957
185.213	26.585	925.246	743.745
186.227	26.563	924.632	743.094
187.242	26.505	924.697	742.843
188.256	26.566	924.148	742.588
189.271	26.708	922.972	742.160
190.286	26.840	922.354	742.137
191.300	26.584	921.516	740.350
192.315	26.027	919.914	736.722
193.329	25.278	917.933	732.016
194.344	24.947	916.972	729.839
195.359	25.549	917.322	732.504
196.373	26.454	917.836	736.539
197.388	26.778	917.519	737.537
198.402	26.582	916.982	736.243
199.417	26.581	916.350	735.664
200.432	26.756	915.733	735.815
201.446	26.564	915.414	734.714
202.461	26.188	914.644	732.508
203.475	26.185	914.285	732.142
204.490	25.893	912.225	729.248
205.504	24.737	910.253	722.937
206.519	24.832	910.766	723.665
207.534	25.971	910.774	728.207
208.548	26.293	909.651	728.543
209.563	26.448	910.053	729.426
210.577	26.548	909.504	729.327
211.592	26.327	908.484	727.553
212.607	26.626	908.455	728.669
213.621	26.919	907.693	729.172
214.636	26.810	907.044	728.149
215.650	26.787	906.856	727.839
216.665	26.726	906.093	726.919
217.680	26.759	905.677	726.655
218.694	26.960	904.952	726.814
219.709	26.527	904.249	724.450
220.723	26.290	903.046	722.474
221.738	26.294	902.883	722.295
222.753	26.520	902.472	722.809
223.767	26.525	902.028	722.409
224.782	26.573	901.143	721.827
225.796	26.792	900.328	721.982
226.811	26.968	899.657	722.079
227.826	26.523	898.500	719.317
228.840	25.738	897.057	714.985
229.855	25.534	896.527	713.687
230.869	25.767	896.517	714.541
231.884	25.562	894.986	712.446
232.899	25.487	895.046	712.135
233.913	26.329	895.437	715.716
234.928	26.612	894.635	716.132
235.942	26.438	893.873	714.772
236.957	26.496	893.594	714.717
237.972	26.194	892.181	712.330
238.986	26.089	891.633	711.415
240.001	26.206	891.285	711.536
241.015	26.244	890.028	710.621
242.030	26.411	889.786	711.019
243.045	26.454	889.690	711.050
244.059	26.473	889.476	710.888
245.074	26.599	889.020	710.959
246.088	26.502	888.347	709.976
247.103	26.211	887.129	707.800
248.117	26.201	886.706	707.360
249.132	26.932	886.178	709.738
250.147	27.164	886.587	710.909
251.161	27.260	885.777	710.570
252.176	27.523	885.534	711.342
253.190	27.425	884.774	710.283
254.205	27.537	884.322	710.294
255.220	27.764	883.676	710.596
256.234	27.653	883.145	709.676
257.249	27.447	882.857	708.581
258.263	27.445	881.642	707.535
259.278	27.473	881.286	707.294
260.293	27.519	880.981	707.168
261.307	27.612	880.374	706.976
262.322	27.554	879.629	706.091
263.336	27.528	878.848	705.301
264.351	26.946	877.755	702.111
265.366	25.723	876.253	696.124
266.380	25.406	874.969	693.815
267.395	26.318	875.162	697.427
268.409	26.979	875.733	700.374
269.424	26.878	875.140	699.447
270.439	27.026	874.656	699.568
271.453	27.298	873.826	699.891
272.468	27.253	873.443	699.349
273.482	27.520	873.051	699.999
274.497	27.595	872.433	699.730
275.512	27.391	871.362	698.027
276.526	26.827	870.014	694.727
277.541	26.856	870.021	694.780
278.555	27.327	869.726	696.284
279.570	27.258	868.480	694.962
280.585	26.983	868.291	693.701
281.599	27.098	867.666	693.577
282.614	27.189	867.579	693.794
283.628	26.716	866.061	690.716
284.643	26.448	865.331	689.052
285.657	26.751	865.554	690.323
286.672	26.649	864.924	689.370
287.687	26.192	863.710	686.606
288.701	26.611	863.586	688.037
289.716	26.976	863.615	689.387
290.730	26.624	862.577	687.164
291.745	26.485	861.775	685.934
292.760	26.373	860.670	684.572
293.774	26.215	860.483	683.764
294.789	27.026	861.227	687.365
295.803	27.778	860.974	689.949
296.818	27.878	860.123	689.582
297.833	27.999	859.624	689.576
298.847	27.618	858.485	687.166
299.862	27.290	857.709	685.248
300.876	27.276	857.588	685.038
301.891	27.875	856.845	686.640
302.906	27.967	856.442	686.599
303.920	27.447	855.232	683.617
304.935	27.434	854.845	683.199
305.949	27.610	854.990	683.915
306.964	27.757	854.386	683.922
307.979	27.616	853.457	682.590
308.993	27.527	853.179	681.974
310.008	27.779	853.021	682.732
311.022	27.969	852.405	682.890
312.037	27.763	851.833	681.601
313.052	27.438	851.381	679.963
314.066	27.433	850.328	679.043
315.081	26.757	848.855	675.290
316.095	25.857	847.658	670.929
317.110	26.604	847.671	673.660
318.125	27.498	848.191	677.341
319.139	26.899	847.496	674.498
320.154	25.857	845.371	668.882
321.168	25.346	844.396	666.155
322.183	26.090	844.486	668.926
323.197	26.891	844.906	672.169
324.212	27.361	844.660	673.655
325.227	27.445	844.406	673.704
326.241	27.570	844.193	673.935
327.256	27.561	843.231	673.074
328.270	27.372	842.515	671.746
329.285	27.260	842.095	670.939
330.300	27.184	841.120	669.823
331.314	26.877	840.245	667.939
332.329	26.950	839.674	667.691
333.343	27.436	839.613	669.373
334.358	27.636	839.801	670.199
335.373	27.464	839.102	668.949
336.387	27.694	838.235	669.041
337.402	27.818	838.076	669.311
338.416	28.074	837.913	670.061
339.431	28.058	837.385	669.520
340.446	28.086	836.796	669.093
341.460	28.265	836.454	669.414
342.475	28.246	835.296	668.357
343.489	28.127	834.619	667.324
344.504	27.968	834.418	666.524
345.519	28.269	834.310	667.474
346.533	28.541	833.673	667.897
347.548	28.417	833.490	667.240
348.562	28.670	832.420	667.244
349.577	28.490	832.260	666.406
350.592	28.368	831.258	665.099
351.606	28.359	831.004	664.806
352.621	28.381	830.495	664.420
353.635	28.369	830.116	664.015
354.650	28.237	829.667	663.117
355.665	27.848	828.562	660.769
356.679	26.814	826.802	655.569
357.694	26.615	826.589	654.624
358.708	27.338	826.614	657.197
359.723	27.256	825.871	656.252
360.738	27.537	825.715	657.085
361.752	27.916	826.011	658.629
362.767	28.105	825.347	658.722
363.781	28.515	824.978	659.845
364.796	28.664	825.133	660.444
365.810	28.797	824.787	660.590
366.825	28.978	824.204	660.712
367.840	29.063	823.784	660.625
368.854	28.681	823.230	658.752
369.869	28.196	822.554	656.414
370.883	28.136	821.513	655.308
371.898	28.106	820.842	654.607
372.913	28.140	820.103	654.083
373.927	28.186	819.583	653.775
374.942	28.313	819.193	653.861
375.956	28.372	819.087	653.927
376.971	28.593	817.808	653.636
377.986	28.673	817.497	653.615
379.000	28.797	817.417	653.933
380.015	28.755	817.088	653.462
381.029	28.696	816.255	652.530
382.044	28.610	815.572	651.620
383.059	28.917	814.914	652.127
384.073	28.838	814.202	651.220
385.088	28.695	814.224	650.673
386.102	28.786	813.638	650.466
387.117	28.587	812.721	648.972
388.132	28.556	812.204	648.394
389.146	28.227	811.819	646.867
390.161	27.670	810.675	643.933
391.175	27.839	810.121	644.029
392.190	28.416	810.694	646.466
393.205	28.457	809.884	645.905
394.219	27.440	808.056	640.814
395.234	25.849	805.896	633.457
396.248	24.994	804.907	629.617
397.263	26.192	805.517	634.251
398.278	27.916	807.116	641.514
399.292	28.423	806.857	643.030
400.307	28.144	805.834	641.183
401.321	27.955	805.747	640.394
402.336	28.084	805.533	640.619
403.350	28.361	805.624	641.605
404.365	28.827	805.567	643.133
405.380	29.174	804.955	643.801
406.394	29.471	804.964	644.790
407.409	29.626	804.870	645.199
408.423	29.484	804.112	644.036
409.438	29.406	803.653	643.342
410.453	29.579	803.093	643.437
411.467	29.420	802.927	642.693
412.482	29.298	802.659	641.999
413.496	29.481	801.308	641.499
414.511	29.512	801.348	641.582
415.526	29.504	801.260	641.427
416.540	29.490	800.528	640.733
417.555	29.298	799.960	639.557
418.569	29.109	799.289	638.309
419.584	29.072	798.526	637.512
420.599	29.282	798.012	637.773
421.613	109.852	1284.554	1449.680
422.628	94.648	1355.450	1449.792
