DTS Sentinel unit serial number:	SN413079Multiplexer serial number:	ORYXHardware model number:	OX4-SRSoftware version number:	ORYX F/W v4.00 Oryx Data Collector v3.7.2.0data status	okinstallation	princeton_trtdifferential loss correction	single-endedforward channel	channel 3reverse channel	N/Adate	2019/09/14time	19:40:35forward acquisition time	60.00reverse acquisition time	0.00gamma	496.2192k internal	0.2313k external	0.2313temperature offset calibration	1.0014default loss term (dB/km)	0.3790temperature slope calibration	1.0000multiplexer offset coefficient	1.0000multiplexer slope coefficient	1.0000fibre end	0.00T internal ref (°C)	34.53T ext. ref 1 (°C)	4.87T ext. ref 2 (°C)	28.77length (m)	temperature (°C)	Stokes	anti-Stokes-747.200	-200.000	-0.021	-0.109
-746.185	-48.561	-0.221	-0.108
-745.171	-151.109	0.391	-0.030
-744.156	537.410	-0.069	-0.167
-743.142	100.876	0.239	-0.282
-742.127	-200.000	0.034	0.171
-741.112	-200.000	-0.005	0.108
-740.098	-83.737	0.170	0.055
-739.083	-177.988	0.164	-0.004
-738.069	241.264	-0.124	-0.210
-737.054	-53.110	-0.295	-0.138
-736.039	-87.659	-0.230	-0.070
-735.025	-118.135	0.307	-0.056
-734.010	-19.635	-0.339	0.213
-732.996	-83.190	0.123	-0.040
-731.981	-1.102	-0.222	-0.160
-730.966	12.416	0.069	0.054
-729.952	-200.000	0.021	-0.174
-728.937	-177.562	-0.023	-0.001
-727.923	0.738	-0.074	-0.054
-726.908	-56.055	-0.136	-0.062
-725.894	139.834	-0.140	-0.187
-724.879	-121.325	0.462	-0.078
-723.864	-135.801	0.332	-0.040
-722.850	311.438	-0.102	0.193
-721.835	30.936	-0.285	-0.247
-720.821	-200.000	0.043	-0.285
-719.806	-200.000	-0.065	-0.319
-718.791	800.000	0.072	-0.238
-717.777	-57.438	-0.150	0.067
-716.762	800.000	-0.054	0.234
-715.748	-200.000	-0.008	0.149
-714.733	-98.257	-0.179	0.046
-713.718	106.981	0.110	-0.132
-712.704	-200.000	-0.031	0.184
-711.689	-95.759	-0.115	-0.031
-710.675	-200.000	-0.019	-0.132
-709.660	18.860	-0.182	0.148
-708.645	292.988	-0.124	-0.229
-707.631	206.408	0.122	0.192
-706.616	-27.640	-0.099	-0.058
-705.602	140.693	0.165	0.221
-704.587	-82.232	0.178	-0.059
-703.572	-200.000	0.036	-0.218
-702.558	16.865	0.154	0.123
-701.543	45.842	-0.116	-0.109
-700.529	-95.103	0.243	0.066
-699.514	203.337	-0.051	-0.080
-698.499	-200.000	0.038	-0.337
-697.485	-142.063	0.018	-0.002
-696.470	-96.886	0.237	-0.063
-695.456	-15.798	0.170	0.110
-694.441	-200.000	0.033	0.173
-693.426	-13.361	0.149	-0.098
-692.412	69.506	-0.124	-0.130
-691.397	-97.171	0.286	-0.076
-690.383	800.000	-0.057	0.252
-689.368	441.263	-0.080	-0.178
-688.354	-38.780	-0.229	-0.122
-687.339	184.662	-0.034	0.050
-686.324	-55.569	0.272	-0.123
-685.310	71.307	-0.072	0.075
-684.295	-80.214	0.125	-0.042
-683.281	-200.000	0.028	-0.439
-682.266	-200.000	0.021	-0.111
-681.251	-106.159	0.042	0.010
-680.237	-200.000	0.037	-0.435
-679.222	9.312	0.157	0.120
-678.208	299.359	-0.065	0.122
-677.193	-99.628	0.122	0.031
-676.178	-45.121	-0.130	-0.065
-675.164	-97.466	0.058	-0.015
-674.149	33.437	0.104	0.092
-673.135	678.552	-0.159	0.420
-672.120	536.093	0.062	-0.149
-671.105	-114.933	-0.358	0.069
-670.091	-183.031	0.196	-0.004
-669.076	-155.687	-0.157	-0.010
-668.062	527.587	0.111	-0.265
-667.047	275.566	-0.121	0.217
-666.032	-3.871	0.039	-0.028
-665.018	-68.685	0.157	0.062
-664.003	-65.623	0.116	0.047
-662.989	-12.013	0.283	-0.188
-661.974	-111.186	0.146	-0.030
-660.959	-177.103	0.079	0.002
-659.945	-200.000	0.024	0.138
-658.930	227.178	0.151	-0.248
-657.916	-200.000	0.008	0.331
-656.901	228.616	-0.157	-0.259
-655.886	148.715	0.025	-0.034
-654.872	-55.456	0.425	0.193
-653.857	-27.907	-0.065	-0.038
-652.843	-15.950	0.222	0.143
-651.828	753.416	0.072	-0.198
-650.814	-126.185	-0.197	0.030
-649.799	800.000	-0.025	0.108
-648.784	-92.804	-0.440	-0.125
-647.770	89.059	0.178	-0.200
-646.755	183.569	0.074	-0.110
-645.741	-83.675	-0.179	0.058
-644.726	-200.000	0.029	-0.176
-643.711	133.428	-0.064	-0.083
-642.697	800.000	-0.042	-0.143
-641.682	178.125	-0.078	-0.115
-640.668	-48.967	0.373	0.181
-639.653	-48.390	-0.098	-0.048
-638.638	123.869	0.212	-0.268
-637.624	-76.252	-0.140	0.050
-636.609	-200.000	0.020	-0.365
-635.595	-132.655	-0.225	-0.029
-634.580	-172.307	0.190	0.006
-633.565	-200.000	0.038	0.359
-632.551	-70.216	-0.372	-0.143
-631.536	100.495	0.098	-0.115
-630.522	612.844	-0.170	0.428
-629.507	-67.467	-0.160	0.064
-628.492	-156.391	-0.297	0.019
-627.478	-200.000	-0.017	-0.400
-626.463	515.318	0.074	-0.174
-625.449	-200.000	0.013	0.167
-624.434	22.567	0.577	-0.476
-623.419	71.140	0.087	0.091
-622.405	5.463	-0.074	-0.055
-621.390	-30.508	-0.374	-0.214
-620.376	-29.263	0.281	0.162
-619.361	215.488	0.045	0.072
-618.346	-35.808	-0.254	0.139
-617.332	-163.025	0.179	-0.009
-616.317	-42.149	-0.188	-0.097
-615.303	-136.685	-0.173	-0.020
-614.288	800.000	-0.042	0.143
-613.273	-200.000	0.057	0.426
-612.259	800.000	-0.037	0.112
-611.244	-48.535	0.154	0.075
-610.230	-56.499	-0.323	0.145
-609.215	23.656	0.038	-0.031
-608.201	478.804	0.033	-0.076
-607.186	-45.849	0.377	-0.188
-606.171	87.814	-0.229	-0.256
-605.157	140.406	0.037	0.050
-604.142	-200.000	0.043	0.316
-603.128	-200.000	-0.045	0.280
-602.113	74.291	0.189	-0.200
-601.098	-166.236	-0.145	-0.006
-600.084	-186.571	-0.047	-0.001
-599.069	166.977	-0.124	0.178
-598.055	-133.660	-0.096	-0.012
-597.040	800.000	0.048	0.160
-596.025	-200.000	0.011	0.088
-595.011	-200.000	0.040	-0.299
-593.996	-200.000	-0.006	-0.091
-592.982	-200.000	0.054	-0.289
-591.967	-48.062	-0.078	0.038
-590.952	-19.273	-0.141	0.088
-589.938	-99.133	-0.140	0.036
-588.923	47.498	-0.082	0.077
-587.909	-131.638	0.379	0.050
-586.894	-176.259	-0.412	0.011
-585.879	111.242	-0.095	0.116
-584.865	308.626	0.060	0.112
-583.850	800.000	0.102	-0.432
-582.836	800.000	-0.028	0.098
-581.821	800.000	0.026	-0.098
-580.806	-135.972	0.194	0.023
-579.792	413.062	0.039	-0.083
-578.777	-148.371	0.118	-0.010
-577.763	-26.159	-0.109	0.065
-576.748	-157.164	0.112	0.007
-575.733	-200.000	-0.024	0.125
-574.719	-200.000	-0.014	-0.090
-573.704	62.919	0.221	0.223
-572.690	60.205	0.081	-0.081
-571.675	54.665	-0.213	0.207
-570.661	-47.212	0.264	-0.130
-569.646	800.000	0.088	0.281
-568.631	-67.769	-0.187	0.074
-567.617	87.044	-0.095	-0.106
-566.602	-200.000	-0.003	0.300
-565.588	90.906	0.110	0.124
-564.573	800.000	-0.016	0.059
-563.558	-34.907	-0.227	0.125
-562.544	491.918	0.103	0.237
-561.529	-200.000	-0.049	0.246
-560.515	-200.000	-0.006	0.072
-559.500	194.689	-0.097	-0.148
-558.485	-200.000	-0.014	-0.097
-557.471	-64.555	0.381	-0.156
-556.456	-114.173	0.184	0.036
-555.442	169.584	-0.063	-0.091
-554.427	158.969	0.087	-0.121
-553.412	-45.270	-0.337	0.168
-552.398	800.000	-0.128	-0.556
-551.383	537.561	0.127	-0.304
-550.369	-197.441	0.160	-0.001
-549.354	175.856	0.130	-0.190
-548.339	-102.178	-0.297	-0.072
-547.325	-89.975	-0.286	-0.084
-546.310	-200.000	-0.032	-0.213
-545.296	148.929	0.041	-0.055
-544.281	108.086	-0.205	0.247
-543.266	-200.000	-0.040	-0.234
-542.252	-200.000	-0.039	0.460
-541.237	117.244	0.192	-0.238
-540.223	-200.000	0.030	-0.200
-539.208	146.734	0.193	0.261
-538.193	-200.000	-0.034	-0.275
-537.179	800.000	-0.073	-0.285
-536.164	23.053	0.152	-0.126
-535.150	-64.980	-0.267	-0.108
-534.135	-68.383	-0.345	0.135
-533.121	-3.404	0.214	0.150
-532.106	-83.714	0.296	-0.095
-531.091	-77.163	-0.039	-0.014
-530.077	-21.885	-0.288	-0.176
-529.062	262.015	0.186	0.325
-528.048	119.198	0.131	-0.163
-527.033	61.332	0.072	-0.072
-526.018	800.000	0.020	0.056
-525.004	800.000	0.080	-0.310
-523.989	-200.000	-0.025	-0.118
-522.975	275.605	0.210	0.375
-521.960	-40.123	0.024	0.012
-520.945	19.507	-0.139	-0.112
-519.931	-21.200	0.308	0.189
-518.916	-200.000	0.033	-0.171
-517.902	142.195	0.035	-0.046
-516.887	306.244	-0.191	0.357
-515.872	-200.000	0.053	0.306
-514.858	41.269	0.357	0.325
-513.843	-147.859	-0.320	0.027
-512.829	99.996	-0.119	-0.138
-511.814	142.919	-0.070	-0.094
-510.799	30.682	0.089	0.077
-509.785	32.448	-0.150	-0.130
-508.770	-123.925	-0.207	0.033
-507.756	52.611	0.048	-0.046
-506.741	-111.402	0.263	-0.054
-505.726	-83.279	-0.142	0.046
-504.712	-160.089	-0.316	0.017
-503.697	-42.830	0.321	-0.164
-502.683	6.482	0.048	0.036
-501.668	-148.750	-0.053	0.004
-500.653	-35.397	-0.215	0.117
-499.639	129.452	0.020	-0.026
-498.624	-200.000	0.022	0.276
-497.610	133.865	0.051	-0.066
-496.595	-58.428	-0.321	-0.140
-495.581	-200.000	0.064	-0.315
-494.566	800.000	0.026	-0.089
-493.551	-19.910	-0.116	0.072
-492.537	-77.066	-0.081	0.029
-491.522	-71.861	-0.143	-0.054
-490.508	164.503	-0.068	-0.096
-489.493	676.919	-0.054	-0.141
-488.478	-60.301	0.319	0.136
-487.464	-6.641	0.168	-0.115
-486.449	-56.845	-0.123	0.055
-485.435	800.000	0.014	0.053
-484.420	-200.000	0.049	-0.317
-483.405	-200.000	-0.021	-0.181
-482.391	-59.661	-0.203	-0.087
-481.376	47.572	-0.073	-0.069
-480.362	-104.107	0.261	-0.061
-479.347	800.000	-0.089	0.314
-478.332	21.723	0.185	0.152
-477.318	-138.188	-0.413	-0.046
-476.303	800.000	-0.086	0.256
-475.289	648.270	0.067	-0.171
-474.274	-87.916	-0.187	0.056
-473.259	-200.000	-0.030	0.265
-472.245	-200.000	0.038	-0.388
-471.230	679.627	-0.181	-0.473
-470.216	-127.484	0.298	0.044
-469.201	731.479	0.020	0.054
-468.186	-182.758	0.167	0.003
-467.172	-80.922	-0.144	-0.048
-466.157	-92.924	-0.146	-0.041
-465.143	-107.016	0.316	0.070
-464.128	-109.692	0.175	-0.037
-463.113	-21.357	-0.333	0.204
-462.099	-200.000	-0.067	0.344
-461.084	449.559	0.041	0.091
-460.070	800.000	0.162	0.459
-459.055	-72.550	-0.099	-0.037
-458.040	20.915	-0.208	-0.169
-457.026	-200.000	0.025	-0.183
-456.011	-126.843	0.194	-0.029
-454.997	561.987	0.079	-0.192
-453.982	-174.391	0.233	0.007
-452.968	-151.600	-0.156	0.012
-451.953	-110.979	0.299	-0.062
-450.938	404.254	-0.119	-0.252
-449.924	-3.416	0.028	0.020
-448.909	69.045	-0.253	0.260
-447.895	-200.000	0.030	0.333
-446.880	800.000	0.070	0.209
-445.865	-124.586	0.310	0.048
-444.851	754.712	0.157	0.425
-443.836	-173.533	-0.332	0.010
-442.822	2.188	0.193	-0.140
-441.807	800.000	-0.041	0.178
-440.792	-155.418	0.189	-0.012
-439.778	-135.231	-0.120	-0.014
-438.763	-135.661	0.214	-0.025
-437.749	-165.364	-0.268	0.012
-436.734	-117.506	-0.142	0.026
-435.719	800.000	0.042	0.177
-434.705	-52.227	0.151	-0.070
-433.690	-200.000	-0.027	-0.235
-432.676	-200.000	0.020	-0.179
-431.661	12.060	-0.162	-0.125
-430.646	173.825	-0.034	0.049
-429.632	800.000	0.027	0.112
-428.617	-107.689	-0.189	-0.041
-427.603	-95.912	-0.346	-0.092
-426.588	800.000	-0.030	0.115
-425.573	-89.324	-0.050	0.015
-424.559	-83.794	0.260	-0.083
-423.544	-200.000	-0.056	0.271
-422.530	-106.115	-0.156	0.035
-421.515	-12.464	0.142	0.093
-420.500	65.786	0.054	0.055
-419.486	800.000	0.054	-0.189
-418.471	-115.618	-0.177	0.033
-417.457	429.314	-0.147	0.319
-416.442	-122.212	0.079	-0.013
-415.428	-64.913	0.344	0.139
-414.413	67.832	0.181	-0.185
-413.398	800.000	0.098	-0.287
-412.384	51.999	-0.235	-0.224
-411.369	-200.000	0.015	-0.176
-410.355	-62.510	-0.332	0.138
-409.340	55.583	0.171	-0.166
-408.325	-200.000	0.067	0.315
-407.311	-83.811	0.240	-0.076
-406.296	427.996	0.191	-0.412
-405.282	30.627	0.223	0.191
-404.267	-42.842	-0.246	-0.125
-403.252	-10.200	-0.027	0.018
-402.238	147.552	-0.094	-0.127
-401.223	800.000	-0.095	0.308
-400.209	800.000	-0.072	-0.250
-399.194	-200.000	-0.052	-0.268
-398.179	143.038	0.215	-0.286
-397.165	154.966	-0.013	0.018
-396.150	-200.000	-0.004	0.262
-395.136	-200.000	-0.024	0.405
-394.121	-200.000	-0.033	0.214
-393.106	-24.247	0.116	-0.069
-392.092	800.000	0.069	-0.221
-391.077	-46.447	-0.454	-0.223
-390.063	-200.000	-0.003	-0.111
-389.048	140.898	-0.106	0.140
-388.033	-200.000	-0.019	-0.141
-387.019	-166.597	0.148	-0.006
-386.004	800.000	-0.100	-0.316
-384.990	-35.441	-0.420	-0.228
-383.975	154.908	-0.165	0.227
-382.960	-94.260	0.050	-0.014
-381.946	-200.000	0.016	-0.115
-380.931	-67.399	0.093	0.036
-379.917	-200.000	0.021	-0.116
-378.902	800.000	0.113	0.479
-377.888	-52.687	-0.173	0.080
-376.873	-200.000	0.028	0.437
-375.858	-200.000	-0.047	0.278
-374.844	-200.000	-0.054	-0.458
-373.829	153.811	0.188	0.258
-372.815	-78.094	-0.161	0.055
-371.800	184.383	-0.082	0.122
-370.785	-166.279	0.206	-0.009
-369.771	-200.000	0.099	-0.536
-368.756	497.725	0.133	-0.306
-367.742	443.809	0.060	0.132
-366.727	80.291	0.082	-0.088
-365.712	800.000	-0.022	0.062
-364.698	-30.513	-0.103	0.058
-363.683	-154.565	0.489	-0.033
-362.669	-13.860	0.052	-0.034
-361.654	-81.141	0.072	-0.024
-360.639	-200.000	-0.018	-0.284
-359.625	800.000	-0.059	-0.250
-358.610	-42.313	0.200	-0.102
-357.596	-200.000	-0.002	-0.185
-356.581	146.400	0.120	-0.161
-355.566	-146.696	-0.188	-0.016
-354.552	54.492	-0.166	-0.159
-353.537	17.676	0.227	0.181
-352.523	401.450	0.202	0.424
-351.508	-28.468	-0.105	0.060
-350.493	31.406	0.145	-0.125
-349.479	-12.552	-0.184	-0.120
-348.464	-200.000	0.008	-0.287
-347.450	-154.419	-0.352	-0.024
-346.435	-67.580	-0.116	0.046
-345.420	261.300	0.041	-0.071
-344.406	513.740	0.089	0.207
-343.391	-200.000	-0.012	0.131
-342.377	-72.576	0.109	-0.040
-341.362	800.000	0.039	-0.166
-340.348	-28.977	0.115	0.066
-339.333	-200.000	0.035	0.303
-338.318	-127.934	-0.247	-0.035
-337.304	597.185	-0.042	0.103
-336.289	-125.884	-0.194	0.029
-335.275	800.000	-0.062	0.176
-334.260	23.384	0.176	0.145
-333.245	525.419	0.065	-0.152
-332.231	-25.504	-0.059	0.035
-331.216	52.195	-0.130	-0.124
-330.202	-200.000	0.015	0.068
-329.187	-64.765	-0.222	0.090
-328.172	469.651	0.039	-0.087
-327.158	0.262	-0.172	-0.122
-326.143	800.000	-0.060	-0.254
-325.129	453.617	0.079	-0.175
-324.114	-200.000	-0.015	-0.081
-323.099	216.840	0.272	0.432
-322.085	-200.000	0.036	0.202
-321.070	-200.000	-0.003	-0.132
-320.056	-136.109	0.153	-0.018
-319.041	-83.692	0.045	-0.014
-318.026	-200.000	-0.006	0.136
-317.012	-200.000	0.005	0.189
-315.997	-84.186	-0.119	0.038
-314.983	-79.177	0.220	0.074
-313.968	-200.000	0.042	0.206
-312.953	5.991	-0.253	0.187
-311.939	80.406	-0.095	-0.102
-310.924	-200.000	0.002	0.035
-309.910	-74.554	-0.383	-0.138
-308.895	489.061	-0.038	-0.088
-307.880	148.488	0.186	-0.251
-306.866	800.000	0.075	0.283
-305.851	800.000	-0.066	0.191
-304.837	90.662	0.284	-0.317
-303.822	345.942	0.133	-0.261
-302.807	276.097	0.128	-0.227
-301.793	-142.813	-0.128	-0.012
-300.778	-65.962	-0.177	0.070
-299.764	-200.000	-0.028	-0.243
-298.749	-75.648	-0.084	0.030
-297.735	800.000	0.027	-0.105
-296.720	106.057	0.026	0.031
-295.705	48.392	-0.102	0.095
-294.691	-134.134	-0.052	0.006
-293.676	-200.000	0.007	-0.102
-292.662	499.175	-0.083	0.190
-291.647	-170.829	0.293	-0.010
-290.632	-77.270	-0.131	0.045
-289.618	34.736	-0.206	-0.179
-288.603	-200.000	-0.065	-0.356
-287.589	-172.622	0.187	0.006
-286.574	347.884	0.121	-0.237
-285.559	-89.041	0.260	-0.077
-284.545	-46.615	0.034	0.016
-283.530	-200.000	-0.011	0.459
-282.516	149.863	0.179	-0.241
-281.501	-200.000	0.009	-0.073
-280.486	-200.000	0.006	-0.232
-279.472	-84.648	-0.250	-0.078
-278.457	800.000	-0.018	0.053
-277.443	-131.310	-0.184	0.024
-276.428	45.931	0.173	0.159
-275.413	83.207	0.177	0.192
-274.399	125.485	0.122	0.154
-273.384	-123.584	-0.283	-0.045
-272.370	156.338	-0.138	0.189
-271.355	800.000	0.025	0.102
-270.340	800.000	0.038	0.127
-269.326	800.000	-0.064	0.276
-268.311	-200.000	-0.028	0.195
-267.297	-4.751	0.197	-0.136
-266.282	-200.000	-0.000	-0.178
-265.267	40.746	0.047	0.042
-264.253	43.707	0.041	0.037
-263.238	468.701	-0.075	0.168
-262.224	-200.000	0.083	0.380
-261.209	-200.000	-0.040	-0.265
-260.195	-200.000	0.029	-0.148
-259.180	800.000	-0.116	0.368
-258.165	-93.783	0.263	0.072
-257.151	21.540	-0.160	-0.130
-256.136	248.892	-0.109	0.183
-255.122	-111.574	0.408	-0.083
-254.107	407.839	0.083	-0.175
-253.092	800.000	-0.062	-0.213
-252.078	71.271	0.260	0.268
-251.063	20.777	-0.075	-0.060
-250.049	-70.925	0.360	0.135
-249.034	144.136	-0.200	-0.265
-248.019	800.000	-0.019	0.070
-247.005	-200.000	0.033	0.255
-245.990	-200.000	0.026	0.233
-244.976	295.277	-0.036	0.065
-243.961	800.000	0.065	0.190
-242.946	-147.838	-0.206	0.017
-241.932	51.768	0.076	0.072
-240.917	302.285	0.047	-0.087
-239.903	-65.416	-0.089	-0.035
-238.888	496.847	0.110	0.251
-237.873	6.912	0.260	-0.192
-236.859	-200.000	-0.006	-0.044
-235.844	265.949	0.106	0.184
-234.830	800.000	-0.034	0.113
-233.815	36.975	0.086	-0.076
-232.800	-17.061	-0.349	-0.219
-231.786	-64.664	0.099	-0.040
-230.771	-187.514	-0.196	-0.003
-229.757	-124.095	0.094	0.015
-228.742	800.000	0.044	0.153
-227.727	-126.266	0.092	0.014
-226.713	-34.948	-0.118	0.064
-225.698	8.428	-0.303	-0.227
-224.684	800.000	-0.084	-0.353
-223.669	-84.031	0.094	0.030
-222.655	341.673	0.057	0.111
-221.640	708.220	-0.085	0.224
-220.625	410.664	0.032	-0.067
-219.611	-78.067	0.244	-0.084
-218.596	-200.000	0.050	-0.369
-217.582	34.819	0.104	0.090
-216.567	-109.642	0.238	-0.050
-215.552	53.765	0.120	-0.114
-214.538	242.268	0.265	0.440
-213.523	800.000	-0.029	-0.125
-212.509	-88.096	0.199	-0.059
-211.494	92.166	0.113	0.126
-210.479	-120.668	0.266	0.045
-209.465	-57.351	0.356	0.155
-208.450	-59.123	0.133	-0.057
-207.436	214.108	-0.072	0.113
-206.421	-125.133	-0.181	-0.028
-205.406	-103.690	-0.356	0.083
-204.392	239.967	-0.124	-0.206
-203.377	28.654	-0.191	0.160
-202.363	-17.517	0.188	0.118
-201.348	-197.629	-0.297	0.002
-200.333	-43.689	-0.421	-0.211
-199.319	82.655	-0.105	0.114
-198.304	0.443	-0.053	-0.038
-197.290	65.844	-0.308	-0.311
-196.275	-94.952	0.521	0.140
-195.260	-22.991	0.139	-0.083
-194.246	267.859	0.087	0.152
-193.231	119.077	0.102	0.125
-192.217	141.647	0.116	-0.153
-191.202	-200.000	-0.018	-0.125
-190.187	-75.402	-0.198	-0.070
-189.173	-154.874	-0.173	0.011
-188.158	-115.466	0.184	-0.034
-187.144	185.101	0.200	0.294
-186.129	-30.289	-0.204	0.115
-185.114	70.759	-0.060	0.061
-184.100	188.948	0.121	0.180
-183.085	219.104	0.060	0.095
-182.071	-36.249	-0.174	0.093
-181.056	-149.373	-0.114	-0.009
-180.042	3.319	0.158	-0.114
-179.027	133.842	-0.132	0.169
-178.012	800.000	0.075	-0.241
-176.998	-200.000	-0.001	0.136
-175.983	-50.998	-0.035	-0.016
-174.969	-99.365	-0.397	-0.099
-173.954	-93.475	-0.274	-0.075
-172.939	422.850	0.193	-0.412
-171.925	-200.000	-0.083	-0.399
-170.910	-91.285	0.240	-0.068
-169.896	45.005	-0.104	0.095
-168.881	-178.176	0.164	-0.004
-167.866	800.000	-0.055	0.152
-166.852	-89.232	0.311	0.091
-165.837	-200.000	-0.017	0.562
-164.823	-200.000	0.006	0.166
-163.808	-200.000	0.052	0.480
-162.793	-136.846	0.253	-0.029
-161.779	621.981	-0.025	0.062
-160.764	38.687	-0.236	-0.209
-159.750	-58.961	-0.374	0.160
-158.735	-200.000	-0.000	0.089
-157.720	800.000	0.122	-0.359
-156.706	-63.503	-0.164	-0.067
-155.691	21.796	-0.199	-0.161
-154.677	185.110	0.045	-0.066
-153.662	800.000	0.085	-0.252
-152.647	413.927	0.184	0.389
-151.633	183.854	0.209	0.307
-150.618	160.598	0.129	0.179
-149.604	800.000	0.096	-0.281
-148.589	-200.000	0.002	0.178
-147.574	-200.000	0.000	-0.104
-146.560	-200.000	0.022	-0.197
-145.545	-109.477	-0.390	-0.082
-144.531	28.053	-0.216	-0.180
-143.516	800.000	0.024	0.087
-142.502	-51.529	-0.029	-0.013
-141.487	-18.802	0.149	-0.092
-140.472	-54.210	0.094	0.042
-139.458	-50.612	-0.284	-0.133
-138.443	-200.000	0.014	-0.218
-137.429	-79.911	-0.214	0.071
-136.414	-187.490	0.289	-0.004
-135.399	-74.995	0.150	-0.053
-134.385	0.841	-0.197	0.139
-133.370	-123.407	-0.111	0.018
-132.356	547.689	-0.111	0.262
-131.341	-131.840	-0.148	-0.019
-130.326	30.722	-0.100	0.085
-129.312	-67.904	-0.124	-0.048
-128.297	131.259	0.123	0.157
-127.283	-200.000	0.036	-0.187
-126.268	-200.000	0.023	-0.205
-125.253	-200.000	0.001	-0.044
-124.239	-139.585	-0.052	0.006
-123.224	619.838	0.152	-0.379
-122.210	-28.441	0.288	0.164
-121.195	-38.347	-0.178	-0.093
-120.180	36.861	0.161	-0.141
-119.166	-37.984	0.029	0.015
-118.151	-141.175	-0.043	0.004
-117.137	-163.650	0.246	-0.012
-116.122	61.769	0.072	-0.071
-115.107	56.497	0.025	0.024
-114.093	-200.000	0.051	0.230
-113.078	-200.000	0.044	0.206
-112.064	-162.321	-0.168	-0.008
-111.049	-200.000	0.002	0.173
-110.034	800.000	-0.091	-0.250
-109.020	-200.000	0.010	0.111
-108.005	47.579	0.266	0.245
-106.991	11.708	0.077	0.059
-105.976	99.497	0.219	0.251
-104.962	800.000	-0.089	0.361
-103.947	-200.000	-0.060	-0.348
-102.932	438.646	-0.132	-0.285
-101.918	-35.891	0.352	0.189
-100.903	-200.000	0.036	-0.172
-99.889	-200.000	-0.039	0.182
-98.874	8.039	0.173	-0.129
-97.859	21.842	-0.130	-0.104
-96.845	218.129	0.081	0.128
-95.830	-200.000	-0.014	-0.094
-94.816	800.000	-0.119	-0.432
-93.801	-153.321	0.366	0.025
-92.786	252.016	0.076	-0.128
-91.772	109.733	-0.007	0.008
-90.757	-200.000	0.007	0.549
-89.743	-8.722	-0.179	-0.119
-88.728	800.000	-0.088	-0.255
-87.713	-200.000	-0.018	-0.112
-86.699	51.166	-0.179	0.168
-85.684	-31.340	-0.234	0.130
-84.670	800.000	-0.091	-0.393
-83.655	-48.545	-0.069	-0.033
-82.640	-96.005	0.171	0.045
-81.626	-200.000	0.025	0.365
-80.611	800.000	0.048	0.199
-79.597	-94.202	-0.211	-0.057
-78.582	-32.008	0.038	-0.021
-77.567	91.976	0.194	-0.216
-76.553	19.128	0.325	-0.258
-75.538	-93.908	0.149	0.040
-74.524	-87.664	-0.166	0.050
-73.509	-129.963	-0.255	-0.035
-72.494	4.867	0.142	-0.103
-71.480	27.307	0.165	0.137
-70.465	254.669	-0.016	0.028
-69.451	-200.000	0.042	0.371
-68.436	128.142	0.163	-0.205
-67.422	395.258	0.130	0.268
-66.407	732.431	-0.074	-0.196
-65.392	-8.636	-0.320	-0.212
-64.378	-86.791	-0.230	0.069
-63.363	422.174	-0.008	-0.016
-62.349	-200.000	-0.051	0.240
-61.334	23.644	-1.041	-0.846
-60.319	26.950	0.783	0.648
-59.305	-200.000	-0.185	-0.958
-58.290	260.520	0.640	1.093
-57.276	303.281	0.854	1.561
-56.261	-200.000	98.123	580.165
-55.246	637.006	1392.294	3491.996
-54.232	190.059	2589.282	3837.415
-53.217	120.231	2182.332	2674.111
-52.203	44.797	1718.460	1561.012
-51.188	37.578	1530.648	1340.846
-50.173	35.195	1503.409	1300.778
-49.159	54.597	1553.531	1478.434
-48.144	58.071	1572.868	1520.738
-47.130	38.120	1527.634	1341.715
-46.115	34.790	1512.860	1305.982
-45.100	34.492	1509.812	1301.261
-44.086	34.540	1507.617	1299.649
-43.071	34.570	1505.750	1298.186
-42.057	34.467	1504.019	1295.949
-41.042	34.476	1503.218	1295.268
-40.027	34.431	1501.635	1293.545
-39.013	34.557	1499.573	1292.569
-37.998	34.551	1498.804	1291.819
-36.984	34.481	1497.565	1290.222
-35.969	34.472	1496.324	1289.041
-34.954	34.476	1494.913	1287.799
-33.940	34.483	1493.585	1286.656
-32.925	34.473	1491.862	1285.049
-31.911	34.544	1490.368	1284.192
-30.896	34.551	1489.343	1283.303
-29.881	34.687	1488.026	1283.034
-28.867	34.542	1486.971	1281.101
-27.852	34.536	1485.179	1279.462
-26.838	34.656	1483.755	1278.988
-25.823	34.533	1482.618	1277.137
-24.809	34.513	1481.289	1275.805
-23.794	34.581	1479.402	1274.586
-22.779	34.544	1478.324	1273.356
-21.765	34.673	1476.910	1272.947
-20.750	34.592	1476.036	1271.607
-19.736	34.669	1474.833	1271.034
-18.721	34.577	1473.968	1269.624
-17.706	34.536	1473.112	1268.567
-16.692	34.506	1471.635	1267.043
-15.677	34.521	1471.370	1266.866
-14.663	34.475	1470.361	1265.637
-13.648	34.553	1468.913	1264.858
-12.633	34.581	1467.692	1263.943
-11.619	34.476	1467.589	1263.110
-10.604	34.591	1466.129	1262.566
-9.590	34.513	1465.563	1261.508
-8.575	34.477	1464.697	1260.479
-7.560	34.490	1463.735	1259.687
-6.546	34.401	1463.218	1258.601
-5.531	34.493	1462.260	1258.337
-4.517	34.562	1460.897	1257.570
-3.502	34.476	1460.255	1256.400
-2.487	34.466	1459.301	1255.461
-1.473	34.542	1458.070	1254.850
-0.458	34.517	1456.829	1253.567
0.556	33.912	1447.438	1241.722
1.571	30.695	1420.658	1197.964
2.586	26.807	1358.741	1121.659
3.600	24.816	1276.176	1041.826
4.615	23.325	1229.684	995.410
5.629	20.013	1173.534	932.080
6.644	12.043	1089.491	825.274
7.659	5.771	1049.103	764.123
8.673	4.884	1043.816	755.901
9.688	4.877	1040.732	753.571
10.702	4.858	1039.108	752.236
11.717	4.871	1037.473	751.046
12.731	7.094	1039.036	762.835
13.746	14.218	1049.586	805.090
14.761	19.405	1055.738	834.909
15.775	19.273	1054.665	833.351
16.790	18.273	1051.958	826.310
17.804	17.239	1049.469	819.301
18.819	16.302	1048.005	813.571
19.834	15.805	1046.983	810.314
20.848	15.547	1045.741	808.041
21.863	15.417	1044.908	806.699
22.877	15.113	1044.423	804.795
23.892	14.883	1043.583	802.971
24.907	14.834	1042.635	801.938
25.921	14.927	1042.013	801.832
26.936	14.877	1041.275	800.954
27.950	14.957	1039.823	800.147
28.965	14.976	1038.941	799.490
29.980	15.090	1037.575	798.914
30.994	15.137	1036.865	798.520
32.009	15.192	1035.893	797.959
33.023	15.217	1035.444	797.664
34.038	15.182	1034.588	796.766
35.053	15.136	1033.668	795.772
36.067	15.143	1032.400	794.757
37.082	15.126	1031.267	793.733
38.096	15.140	1030.596	793.212
39.111	15.110	1030.134	792.645
40.126	15.113	1029.377	792.007
41.140	15.129	1027.822	790.818
42.155	14.911	1027.179	789.222
43.169	14.760	1026.057	787.581
44.184	14.804	1024.555	786.562
45.199	14.666	1023.884	785.330
46.213	14.791	1023.080	785.230
47.228	14.865	1021.998	784.678
48.242	14.962	1020.984	784.287
49.257	14.970	1020.221	783.665
50.271	15.029	1018.855	782.827
51.286	15.040	1017.874	782.051
52.301	14.882	1018.136	781.447
53.315	15.102	1016.567	781.199
54.330	14.994	1015.913	780.123
55.344	14.937	1014.858	778.978
56.359	14.982	1013.307	777.931
57.374	14.861	1013.015	777.076
58.388	14.931	1012.297	776.782
59.403	14.777	1011.548	775.423
60.417	14.739	1010.851	774.644
61.432	14.746	1010.253	774.147
62.447	14.786	1009.246	773.493
63.461	14.790	1008.294	772.712
64.476	14.612	1007.432	771.162
65.490	14.635	1006.668	770.615
66.505	14.722	1005.854	770.323
67.520	14.530	1005.179	768.856
68.534	14.677	1004.324	768.811
69.549	14.824	1003.529	768.809
70.563	14.778	1002.972	768.102
71.578	14.753	1002.198	767.327
72.593	14.614	1001.771	766.296
73.607	14.571	1000.544	765.091
74.622	14.594	998.973	763.927
75.636	14.533	998.547	763.257
76.651	14.666	997.524	763.013
77.666	14.519	997.406	762.187
78.680	14.660	996.236	761.868
79.695	14.556	995.850	761.027
80.709	14.580	995.697	760.952
81.724	14.700	994.854	760.788
82.739	14.802	993.918	760.470
83.753	14.857	993.259	760.148
84.768	14.988	992.252	759.908
85.782	15.091	991.674	759.866
86.797	15.151	991.451	759.897
87.812	15.076	990.488	758.752
88.826	15.029	989.719	757.885
89.841	14.953	988.886	756.836
90.855	14.957	988.048	756.145
91.870	15.109	987.243	756.148
92.884	15.137	987.001	756.021
93.899	15.085	986.119	755.045
94.914	15.132	985.078	754.395
95.928	15.194	984.253	753.973
96.943	15.307	983.462	753.809
97.957	15.193	982.657	752.614
98.972	14.918	982.324	751.057
99.987	15.148	981.367	751.293
101.001	15.196	980.763	750.975
102.016	15.074	980.111	749.864
103.030	15.120	978.888	749.069
104.045	15.117	978.254	748.502
105.060	15.028	977.401	747.387
106.074	15.082	976.141	746.597
107.089	14.861	975.515	745.067
108.103	14.811	974.278	743.834
109.118	14.701	973.494	742.683
110.133	14.832	972.078	742.120
111.147	14.723	971.309	740.984
112.162	14.731	970.501	740.336
113.176	14.815	969.535	739.902
114.191	14.828	969.060	739.532
115.206	14.910	968.006	739.026
116.220	14.881	967.575	738.505
117.235	14.793	966.576	737.287
118.249	14.731	966.343	736.772
119.264	14.849	965.023	736.220
120.279	14.871	963.752	735.282
121.293	14.728	963.159	734.137
122.308	14.798	962.279	733.707
123.322	14.730	961.369	732.649
124.337	14.778	960.197	731.902
125.352	14.647	959.391	730.649
126.366	14.655	957.953	729.525
127.381	14.637	957.716	729.202
128.395	14.706	956.422	728.456
129.410	14.746	955.405	727.790
130.424	14.704	954.747	727.041
131.439	14.742	953.746	726.378
132.454	14.796	953.070	726.032
133.468	14.872	952.624	725.962
134.483	14.879	952.003	725.451
135.497	14.844	951.275	724.683
136.512	14.945	950.113	724.169
137.527	14.940	949.634	723.721
138.541	14.978	948.703	723.110
139.556	14.941	947.936	722.300
140.570	14.959	947.291	721.824
141.585	15.109	946.607	721.886
142.600	15.147	946.006	721.527
143.614	15.224	945.366	721.308
144.629	15.128	944.503	720.172
145.643	15.297	943.483	720.054
146.658	15.227	942.940	719.280
147.673	15.236	941.774	718.364
148.687	15.100	941.212	717.289
149.702	15.044	940.307	716.296
150.716	14.867	939.687	715.004
151.731	14.818	938.671	713.958
152.746	14.862	937.927	713.515
153.760	14.935	937.159	713.180
154.775	14.893	936.829	712.686
155.789	15.136	935.600	712.722
156.804	15.118	934.661	711.869
157.819	15.130	934.392	711.649
158.833	15.271	933.555	711.548
159.848	15.281	933.101	711.182
160.862	15.205	932.770	710.546
161.877	15.286	931.602	709.934
162.892	15.090	931.057	708.629
163.906	15.047	929.659	707.319
164.921	15.015	928.840	706.497
165.935	14.998	927.972	705.705
166.950	15.098	926.827	705.192
167.964	15.291	925.748	705.121
168.979	15.014	925.341	703.584
169.994	15.078	924.281	702.983
171.008	15.042	923.478	702.163
172.023	15.078	922.847	701.768
173.037	15.200	921.769	701.397
174.052	15.185	921.207	700.845
175.067	15.307	920.569	700.809
176.081	15.196	919.866	699.747
177.096	15.069	918.925	698.442
178.110	15.095	917.864	697.682
179.125	15.161	917.581	697.677
180.140	15.236	916.302	696.957
181.154	15.150	916.248	696.495
182.169	15.191	915.572	696.093
183.183	15.345	914.549	695.893
184.198	15.299	914.207	695.376
185.213	15.344	913.165	694.711
186.227	15.441	912.800	694.774
187.242	15.405	912.325	694.199
188.256	15.585	911.246	694.060
189.271	15.541	910.885	693.545
190.286	15.686	910.214	693.569
191.300	15.491	909.022	691.798
192.315	15.158	908.525	689.988
193.329	14.973	907.942	688.720
194.344	15.134	907.258	688.802
195.359	15.064	906.948	688.220
196.373	15.240	906.099	688.236
197.388	15.414	905.275	688.264
198.402	15.544	904.905	688.453
199.417	15.567	905.139	688.667
200.432	15.578	904.539	688.192
201.446	15.771	903.589	688.199
202.461	15.693	903.461	687.720
203.475	15.773	902.906	687.565
204.490	15.785	902.335	687.118
205.504	15.621	901.541	685.782
206.519	15.620	900.362	684.825
207.534	15.539	899.870	684.057
208.548	15.593	898.971	683.535
209.563	15.612	898.302	683.043
210.577	15.470	897.692	681.941
211.592	15.703	896.998	682.298
212.607	15.844	896.740	682.612
213.621	15.842	895.907	681.913
214.636	15.863	895.153	681.363
215.650	15.741	894.695	680.460
216.665	15.752	894.215	680.079
217.680	15.715	893.693	679.474
218.694	15.835	893.197	679.519
219.709	15.991	892.570	679.612
220.723	15.808	891.947	678.342
221.738	15.820	891.155	677.724
222.753	15.866	890.600	677.431
223.767	15.935	889.568	676.862
224.782	15.905	888.830	676.118
225.796	15.978	888.573	676.157
226.811	16.058	887.622	675.694
227.826	16.025	886.765	674.849
228.840	15.918	886.222	673.949
229.855	15.834	885.613	673.090
230.869	15.859	885.008	672.670
231.884	15.972	884.210	672.457
232.899	16.033	883.202	671.871
233.913	15.841	882.756	670.709
234.928	15.818	881.933	669.932
235.942	15.831	881.556	669.639
236.957	15.798	881.051	669.067
237.972	15.723	880.350	668.174
238.986	15.825	879.583	667.940
240.001	15.787	878.900	667.212
241.015	15.886	878.356	667.132
242.030	15.799	877.682	666.214
243.045	15.869	876.965	665.889
244.059	16.067	876.014	665.891
245.074	15.963	875.978	665.393
246.088	16.046	875.238	665.100
247.103	16.118	874.396	664.686
248.117	16.112	874.115	664.387
249.132	16.295	873.459	664.551
250.147	16.360	872.961	664.371
251.161	16.353	872.537	663.960
252.176	16.386	872.166	663.747
253.190	16.536	871.359	663.664
254.205	16.540	870.855	663.237
255.220	16.557	870.319	662.838
256.234	16.530	869.345	661.933
257.249	16.490	868.899	661.378
258.263	16.514	868.473	661.089
259.278	16.543	867.805	660.633
260.293	16.483	867.317	659.971
261.307	16.706	866.797	660.387
262.322	16.742	866.178	659.995
263.336	16.726	865.596	659.432
264.351	16.800	864.804	659.057
265.366	16.701	864.393	658.304
266.380	16.803	863.806	658.192
267.395	16.779	863.130	657.525
268.409	16.733	862.214	656.593
269.424	16.680	861.583	655.849
270.439	16.626	860.932	655.086
271.453	16.794	859.932	654.915
272.468	16.729	859.262	654.095
273.482	16.594	858.664	653.061
274.497	16.674	858.494	653.184
275.512	16.637	857.822	652.474
276.526	16.694	856.702	651.781
277.541	16.683	856.306	651.380
278.555	16.717	856.281	651.436
279.570	16.594	855.477	650.292
280.585	16.773	855.267	650.763
281.599	16.931	853.992	650.342
282.614	16.867	853.397	649.584
283.628	16.814	852.944	648.980
284.643	16.747	852.574	648.386
285.657	16.798	852.172	648.216
286.672	16.722	851.736	647.539
287.687	16.841	850.936	647.325
288.701	16.948	850.422	647.288
289.716	16.923	849.900	646.737
290.730	16.849	849.315	645.953
291.745	16.908	848.785	645.717
292.760	16.881	848.087	645.026
293.774	16.973	847.614	644.959
294.789	17.298	846.722	645.456
295.803	17.110	846.337	644.394
296.818	16.974	845.530	643.208
297.833	16.931	844.746	642.392
298.847	17.065	843.868	642.174
299.862	16.969	843.512	641.482
300.876	16.911	843.158	640.937
301.891	17.134	842.271	641.047
302.906	17.345	841.282	641.035
303.920	17.118	841.420	640.226
304.935	17.396	840.220	640.302
305.949	17.366	840.122	640.060
306.964	17.251	839.606	639.176
307.979	17.136	839.012	638.236
308.993	17.281	837.982	637.941
310.008	17.365	837.856	638.105
311.022	17.369	837.199	637.562
312.037	17.462	836.801	637.550
313.052	17.162	836.102	635.836
314.066	17.209	835.569	635.554
315.081	17.135	834.746	634.595
316.095	17.080	834.264	633.967
317.110	17.163	833.769	633.842
318.125	17.136	833.127	633.197
319.139	17.146	832.573	632.758
320.154	17.179	832.573	632.824
321.168	17.242	831.430	632.134
322.183	17.409	830.962	632.344
323.197	17.306	830.601	631.631
324.212	17.309	829.935	631.078
325.227	17.197	829.928	630.604
326.241	17.338	829.253	630.557
327.256	17.432	828.391	630.193
328.270	17.283	827.838	629.166
329.285	17.379	827.438	629.161
330.300	17.191	826.609	627.782
331.314	17.429	826.065	628.190
332.329	17.365	825.510	627.477
333.343	17.361	824.764	626.838
334.358	17.406	824.618	626.838
335.373	17.420	824.121	626.455
336.387	17.304	823.978	625.865
337.402	17.617	822.990	626.212
338.416	17.508	822.613	625.469
339.431	17.545	822.110	625.164
340.446	17.835	821.315	625.569
341.460	17.771	820.874	624.943
342.475	17.856	820.459	624.885
343.489	17.824	820.061	624.408
344.504	17.963	819.252	624.244
345.519	17.988	818.739	623.889
346.533	17.781	818.562	622.946
347.548	17.898	817.998	622.888
348.562	17.801	817.522	622.115
349.577	17.645	816.688	620.857
350.592	17.678	816.114	620.488
351.606	17.651	815.745	620.052
352.621	17.691	815.052	619.615
353.635	17.718	814.812	619.476
354.650	17.757	814.284	619.162
355.665	17.706	814.039	618.738
356.679	17.690	813.720	618.381
357.694	17.888	813.103	618.576
358.708	17.850	812.153	617.658
359.723	17.913	811.741	617.520
360.738	17.906	811.429	617.203
361.752	17.867	810.961	616.651
362.767	17.945	810.483	616.515
363.781	18.080	810.040	616.609
364.796	18.000	809.639	615.961
365.810	18.184	809.263	616.285
366.825	18.100	808.944	615.683
367.840	18.173	808.537	615.582
368.854	18.254	808.084	615.477
369.869	18.243	807.318	614.799
370.883	18.082	807.142	614.033
371.898	18.201	806.626	614.012
372.913	18.283	805.893	613.694
373.927	18.245	805.459	613.171
374.942	18.306	804.585	612.670
375.956	18.183	804.083	611.796
376.971	18.172	803.635	611.359
377.986	18.315	803.134	611.437
379.000	18.299	802.954	611.188
380.015	18.428	801.828	610.734
381.029	18.467	801.533	610.597
382.044	18.350	801.379	610.010
383.059	18.437	800.518	609.609
384.073	18.435	800.001	609.152
385.088	18.349	799.550	608.450
386.102	18.351	798.849	607.869
387.117	18.351	798.185	607.313
388.132	18.295	797.695	606.687
389.146	18.272	797.584	606.466
390.161	18.221	797.218	605.956
391.175	18.370	796.726	606.055
392.190	18.445	796.341	605.974
393.205	18.404	795.406	605.062
394.219	18.430	795.362	605.069
395.234	18.319	794.952	604.309
396.248	18.473	794.317	604.318
397.263	18.178	793.897	602.905
398.278	18.100	793.403	602.200
399.292	18.297	792.743	602.341
400.307	18.271	792.632	602.111
401.321	18.216	792.240	601.568
402.336	18.358	791.747	601.636
403.350	18.400	791.372	601.447
404.365	18.440	790.912	601.185
405.380	18.625	789.903	601.012
406.394	18.528	790.033	600.718
407.409	18.689	789.683	600.964
408.423	18.668	789.531	600.719
409.438	18.755	789.211	600.730
410.453	18.767	788.541	600.209
411.467	18.834	787.769	599.799
412.482	18.835	787.662	599.670
413.496	18.939	787.106	599.557
414.511	18.987	786.624	599.303
415.526	18.915	786.404	598.832
416.540	18.773	786.332	598.230
417.555	18.955	785.639	598.281
418.569	18.997	785.084	597.952
419.584	18.998	784.596	597.530
420.599	18.869	784.012	596.587
421.613	155.474	1368.934	1790.169
422.628	134.276	1454.152	1790.290
