DTS Sentinel unit serial number:	SN413079Multiplexer serial number:	ORYXHardware model number:	OX4-SRSoftware version number:	ORYX F/W v4.00 Oryx Data Collector v3.7.2.0data status	okinstallation	princeton_trtdifferential loss correction	single-endedforward channel	channel 3reverse channel	N/Adate	2019/09/16time	21:20:35forward acquisition time	60.00reverse acquisition time	0.00gamma	496.2192k internal	0.2325k external	0.2325temperature offset calibration	0.9933default loss term (dB/km)	0.3790temperature slope calibration	1.0000multiplexer offset coefficient	1.0000multiplexer slope coefficient	1.0000fibre end	0.00T internal ref (°C)	31.62T ext. ref 1 (°C)	0.05T ext. ref 2 (°C)	25.48length (m)	temperature (°C)	Stokes	anti-Stokes-747.200	-200.000	0.025	0.158
-746.185	787.678	-0.054	-0.149
-745.171	-156.521	-0.071	-0.004
-744.156	129.275	-0.138	0.178
-743.142	-145.760	0.190	-0.017
-742.127	800.000	-0.086	0.245
-741.112	374.079	-0.047	-0.097
-740.098	-28.227	-0.060	-0.035
-739.083	-200.000	0.025	0.144
-738.069	800.000	-0.115	0.380
-737.054	-40.739	-0.288	-0.150
-736.039	13.002	-0.213	-0.166
-735.025	228.841	-0.075	-0.123
-734.010	-33.013	-0.460	0.257
-732.996	-67.208	-0.308	-0.122
-731.981	-35.359	-0.174	-0.095
-730.966	800.000	0.075	-0.228
-729.952	800.000	-0.051	-0.220
-728.937	-61.059	0.162	-0.069
-727.923	118.357	-0.284	-0.354
-726.908	-47.148	0.183	-0.090
-725.894	800.000	0.039	0.165
-724.879	-200.000	0.007	-0.179
-723.864	-90.478	0.292	-0.085
-722.850	-200.000	0.004	0.034
-721.835	-131.244	0.082	0.011
-720.821	-92.560	0.400	0.113
-719.806	-83.335	-0.199	0.064
-718.791	-142.554	-0.058	-0.006
-717.777	-131.336	0.118	0.016
-716.762	78.404	-0.182	0.196
-715.748	109.080	0.106	0.128
-714.733	-200.000	0.045	-0.382
-713.718	5.831	0.186	0.139
-712.704	800.000	0.066	0.215
-711.689	87.044	0.126	0.140
-710.675	159.150	0.022	-0.031
-709.660	773.774	-0.073	-0.201
-708.645	-146.159	-0.236	0.021
-707.631	800.000	0.074	-0.255
-706.616	172.667	-0.028	0.041
-705.602	161.061	-0.156	-0.220
-704.587	56.135	-0.164	0.160
-703.572	-52.448	-0.279	0.130
-702.558	28.094	-0.209	0.178
-701.543	-200.000	0.036	0.231
-700.529	251.948	0.070	0.120
-699.514	-21.298	-0.516	0.318
-698.499	17.074	0.076	-0.061
-697.485	43.258	-0.251	0.231
-696.470	-37.565	0.050	0.027
-695.456	187.990	0.099	-0.149
-694.441	-67.420	0.087	0.035
-693.426	29.535	-0.203	0.174
-692.412	800.000	0.028	-0.082
-691.397	800.000	0.057	0.202
-690.383	-200.000	0.024	-0.162
-689.368	-178.859	0.311	0.007
-688.354	123.103	0.181	-0.228
-687.339	800.000	-0.111	0.473
-686.324	-61.245	-0.332	-0.141
-685.310	-200.000	0.023	0.201
-684.295	319.896	0.065	0.125
-683.281	-99.847	-0.008	0.002
-682.266	-87.433	0.254	0.077
-681.251	433.844	0.029	-0.063
-680.237	159.797	-0.286	-0.401
-679.222	-200.000	0.023	-0.497
-678.208	-85.939	-0.127	-0.039
-677.193	800.000	-0.071	-0.277
-676.178	-200.000	-0.028	-0.253
-675.164	229.708	0.255	0.420
-674.149	9.573	-0.229	0.174
-673.135	800.000	-0.043	-0.184
-672.120	602.317	-0.057	-0.143
-671.105	45.947	-0.227	-0.212
-670.091	800.000	-0.085	-0.364
-669.076	48.054	-0.254	-0.239
-668.062	-200.000	-0.040	-0.203
-667.047	-184.386	0.388	-0.006
-666.032	-200.000	-0.019	-0.166
-665.018	107.348	0.052	-0.063
-664.003	-200.000	-0.030	0.179
-662.989	800.000	-0.060	0.241
-661.974	-200.000	0.035	0.310
-660.959	104.038	0.095	0.113
-659.945	59.839	0.177	-0.176
-658.930	218.779	0.070	0.113
-657.916	-200.000	0.018	-0.103
-656.901	203.829	-0.206	-0.321
-655.886	800.000	0.066	-0.222
-654.872	800.000	0.066	-0.226
-653.857	198.279	0.019	-0.029
-652.843	-200.000	0.040	0.187
-651.828	-53.113	-0.388	0.179
-650.814	-20.996	-0.331	0.204
-649.799	-24.373	0.227	0.136
-648.784	-200.000	-0.062	0.290
-647.770	-200.000	-0.029	0.147
-646.755	11.140	0.058	-0.044
-645.741	286.264	-0.148	-0.268
-644.726	98.862	0.089	0.103
-643.711	800.000	-0.014	0.047
-642.697	44.575	0.173	-0.160
-641.682	13.816	0.057	-0.045
-640.668	800.000	0.042	-0.126
-639.653	-22.183	-0.134	-0.082
-638.638	-135.148	-0.054	-0.007
-637.624	83.339	0.136	0.149
-636.609	254.552	0.188	0.323
-635.595	52.302	-0.128	0.123
-634.580	-97.760	-0.083	0.022
-633.565	18.894	-0.129	-0.104
-632.551	800.000	-0.029	-0.120
-631.536	-200.000	-0.036	0.159
-630.522	800.000	0.084	0.274
-629.507	-133.703	-0.127	-0.016
-628.492	-200.000	-0.005	-0.124
-627.478	-200.000	-0.014	0.246
-626.463	693.240	0.036	-0.094
-625.449	67.704	-0.096	0.099
-624.434	176.600	0.263	-0.384
-623.419	-200.000	-0.009	0.101
-622.405	-74.120	0.688	-0.250
-621.390	-129.616	0.224	0.031
-620.376	-200.000	0.029	-0.204
-619.361	-128.296	-0.200	-0.029
-618.346	107.505	0.178	-0.212
-617.332	-200.000	-0.026	-0.690
-616.317	-78.826	-0.145	0.050
-615.303	-200.000	0.033	0.235
-614.288	573.181	0.044	0.108
-613.273	-171.334	-0.154	-0.005
-612.259	800.000	-0.066	-0.285
-611.244	-200.000	-0.038	0.223
-610.230	-200.000	-0.029	-0.245
-609.215	11.826	-0.126	0.097
-608.201	159.913	0.080	-0.111
-607.186	-68.469	0.191	0.074
-606.171	-103.357	-0.246	0.058
-605.157	-200.000	0.002	-0.391
-604.142	531.155	-0.103	0.245
-603.128	93.469	0.045	-0.051
-602.113	55.922	-0.215	-0.209
-601.098	800.000	0.014	0.060
-600.084	-200.000	0.001	-0.230
-599.069	-200.000	0.040	-0.228
-598.055	-106.232	-0.156	0.035
-597.040	800.000	0.149	0.426
-596.025	-200.000	0.016	-0.100
-595.011	140.999	-0.202	0.268
-593.996	24.428	0.124	-0.103
-592.982	29.469	-0.161	-0.138
-591.967	22.534	-0.040	0.033
-590.952	93.985	0.274	-0.311
-589.938	37.408	0.370	-0.329
-588.923	-43.760	-0.211	-0.107
-587.909	-53.485	0.070	0.032
-586.894	-68.769	-0.138	-0.054
-585.879	-200.000	-0.049	0.273
-584.865	-154.565	-0.149	0.010
-583.850	205.423	0.120	0.187
-582.836	-131.729	0.370	0.049
-581.821	-133.106	-0.200	0.025
-580.806	331.280	0.087	-0.169
-579.792	116.109	-0.090	-0.110
-578.777	-60.428	-0.133	-0.057
-577.763	123.750	0.084	0.105
-576.748	-62.129	-0.310	0.130
-575.733	-152.875	0.180	-0.013
-574.719	800.000	-0.021	-0.069
-573.704	-200.000	-0.001	0.117
-572.690	36.534	-0.099	0.088
-571.675	210.086	0.146	-0.229
-570.661	-75.967	-0.258	-0.091
-569.646	800.000	0.060	0.179
-568.631	-76.661	0.333	0.117
-567.617	52.207	-0.189	0.180
-566.602	6.815	-0.151	0.113
-565.588	800.000	-0.021	-0.089
-564.573	-87.124	0.156	0.048
-563.558	221.698	-0.126	0.203
-562.544	800.000	0.073	0.243
-561.529	800.000	-0.090	-0.383
-560.515	-101.398	0.345	0.084
-559.500	484.507	-0.047	0.107
-558.485	-10.059	-0.152	0.101
-557.471	283.392	0.062	0.112
-556.456	338.390	0.149	-0.291
-555.442	27.259	0.313	-0.264
-554.427	94.948	-0.300	-0.342
-553.412	800.000	-0.105	-0.375
-552.398	800.000	0.029	0.099
-551.383	21.108	-0.169	0.138
-550.369	800.000	0.046	-0.146
-549.354	800.000	0.101	-0.319
-548.339	-36.241	-0.276	-0.149
-547.325	-200.000	-0.001	-0.076
-546.310	800.000	0.104	0.320
-545.296	-0.679	0.231	-0.164
-544.281	262.183	0.117	0.203
-543.266	-90.776	0.154	-0.044
-542.252	50.449	-0.156	0.147
-541.237	-144.203	-0.408	-0.038
-540.223	126.083	0.058	0.073
-539.208	800.000	-0.048	-0.148
-538.193	-90.439	-0.118	-0.034
-537.179	-95.964	-0.017	-0.005
-536.164	-200.000	0.029	-0.283
-535.150	-23.351	0.108	0.065
-534.135	-38.604	-0.302	-0.160
-533.121	-169.504	0.341	0.012
-532.106	-200.000	-0.006	0.167
-531.091	-200.000	-0.044	0.263
-530.077	800.000	0.016	0.054
-529.062	-200.000	0.042	-0.213
-528.048	-50.692	-0.320	-0.151
-527.033	-101.061	-0.366	0.090
-526.018	513.256	-0.015	0.036
-525.004	619.196	-0.067	-0.169
-523.989	-200.000	0.080	0.397
-522.975	6.969	-0.164	-0.122
-521.960	-80.065	0.173	-0.058
-520.945	-200.000	0.001	-0.317
-519.931	-105.723	0.070	0.016
-518.916	15.130	0.126	0.099
-517.902	-71.156	0.204	-0.077
-516.887	-200.000	0.027	-0.225
-515.872	-89.155	0.205	-0.061
-514.858	-141.171	-0.253	0.026
-513.843	-138.756	-0.287	0.031
-512.829	78.677	0.287	-0.307
-511.814	-200.000	0.018	-0.107
-510.799	-186.051	0.323	0.005
-509.785	9.189	-0.094	0.071
-508.770	-49.184	-0.274	-0.131
-507.756	592.692	0.096	-0.237
-506.741	-7.310	-0.096	0.065
-505.726	671.150	0.088	-0.228
-504.712	-96.801	-0.074	0.019
-503.697	84.403	-0.134	0.146
-502.683	-200.000	0.013	-0.126
-501.668	-200.000	-0.026	-0.209
-500.653	-99.808	-0.284	0.071
-499.639	-30.997	-0.280	-0.158
-498.624	800.000	-0.048	0.145
-497.610	-56.433	-0.373	-0.165
-496.595	-77.324	0.158	0.055
-495.581	800.000	-0.138	0.418
-494.566	619.656	0.175	-0.441
-493.551	-200.000	-0.002	0.327
-492.537	57.849	0.011	0.011
-491.522	-200.000	-0.002	0.091
-490.508	76.664	-0.217	-0.230
-489.493	-131.606	0.205	-0.027
-488.478	364.145	0.059	0.118
-487.464	-26.302	-0.163	0.096
-486.449	800.000	0.050	0.213
-485.435	-0.801	-0.053	0.038
-484.420	800.000	-0.019	0.060
-483.405	-200.000	0.034	-0.280
-482.391	800.000	0.074	-0.298
-481.376	85.008	0.065	0.072
-480.362	102.921	-0.220	0.257
-479.347	-162.503	0.391	-0.019
-478.332	26.389	-0.185	-0.154
-477.318	-200.000	-0.015	0.236
-476.303	800.000	-0.040	-0.147
-475.289	-88.035	-0.217	-0.065
-474.274	800.000	-0.119	-0.414
-473.259	800.000	0.083	-0.306
-472.245	69.776	0.103	-0.106
-471.230	800.000	0.066	-0.257
-470.216	-17.014	-0.114	-0.072
-469.201	111.333	-0.193	0.232
-468.186	119.800	0.047	0.058
-467.172	-200.000	-0.058	-0.567
-466.157	-135.543	-0.170	0.020
-465.143	-200.000	-0.030	-0.373
-464.128	55.936	-0.082	0.079
-463.113	54.031	-0.159	-0.152
-462.099	-200.000	-0.010	0.108
-461.084	95.777	-0.196	0.223
-460.070	-200.000	-0.008	-0.317
-459.055	43.828	0.193	-0.177
-458.040	800.000	0.053	-0.196
-457.026	-19.177	-0.283	-0.175
-456.011	132.277	-0.319	0.410
-454.997	-200.000	-0.004	0.124
-453.982	680.112	0.095	0.246
-452.968	121.044	0.178	0.221
-451.953	387.923	0.276	0.570
-450.938	0.268	0.136	-0.097
-449.924	-37.275	0.132	0.071
-448.909	732.939	0.133	0.356
-447.895	-200.000	-0.046	0.336
-446.880	800.000	-0.099	-0.345
-445.865	573.201	0.104	0.254
-444.851	76.264	-0.232	-0.245
-443.836	-200.000	-0.011	0.142
-442.822	18.495	0.168	-0.134
-441.807	-200.000	0.028	-0.182
-440.792	-200.000	-0.046	0.315
-439.778	-67.452	0.321	0.126
-438.763	800.000	0.043	0.186
-437.749	51.955	0.113	-0.108
-436.734	739.183	-0.086	-0.229
-435.719	-200.000	0.020	0.175
-434.705	-101.003	-0.157	0.038
-433.690	-58.902	0.157	0.068
-432.676	-112.936	0.300	0.059
-431.661	-56.488	0.320	0.141
-430.646	690.722	-0.019	0.048
-429.632	425.132	-0.110	0.236
-428.617	332.042	-0.082	-0.157
-427.603	99.540	0.123	-0.142
-426.588	351.712	0.064	-0.127
-425.573	-200.000	0.019	-0.150
-424.559	-157.017	0.334	-0.020
-423.544	325.329	0.060	0.115
-422.530	84.970	0.090	-0.098
-421.515	-200.000	-0.003	0.248
-420.500	-13.699	0.148	0.095
-419.486	487.262	-0.089	-0.201
-418.471	15.234	-0.179	-0.140
-417.457	35.046	0.358	-0.313
-416.442	25.879	-0.268	-0.223
-415.428	-200.000	0.013	-0.089
-414.413	-125.252	0.112	0.017
-413.398	-133.564	-0.227	0.028
-412.384	162.473	0.099	-0.138
-411.369	800.000	-0.094	0.290
-410.355	161.890	0.110	0.154
-409.340	138.633	-0.171	0.224
-408.325	-74.938	-0.136	0.049
-407.311	-7.534	-0.091	-0.061
-406.296	-200.000	0.036	-0.208
-405.282	12.276	-0.175	0.134
-404.267	-144.053	0.067	0.006
-403.252	-83.275	-0.067	-0.021
-402.238	11.783	0.189	0.145
-401.223	-200.000	-0.072	0.331
-400.209	-200.000	-0.009	0.284
-399.194	91.510	-0.132	0.147
-398.179	257.056	-0.214	-0.366
-397.165	83.671	0.191	-0.207
-396.150	-86.406	0.095	-0.029
-395.136	517.467	0.130	0.304
-394.121	-200.000	-0.000	0.002
-393.106	193.707	-0.194	-0.292
-392.092	-38.585	-0.150	0.079
-391.077	454.684	0.042	-0.092
-390.063	28.111	-0.127	-0.107
-389.048	-200.000	-0.026	-0.123
-388.033	-183.474	0.172	-0.003
-387.019	-37.141	-0.099	-0.053
-386.004	352.519	-0.048	0.095
-384.990	-200.000	0.022	-0.244
-383.975	-195.320	0.321	0.002
-382.960	-54.499	-0.174	0.078
-381.946	-200.000	-0.040	-0.275
-380.931	784.167	0.059	-0.161
-379.917	58.694	0.223	-0.218
-378.902	800.000	-0.049	0.172
-377.888	23.543	0.125	-0.103
-376.873	-33.559	0.119	0.065
-375.858	349.144	-0.077	0.150
-374.844	-87.230	0.336	-0.101
-373.829	123.059	0.162	-0.202
-372.815	368.713	0.086	0.174
-371.800	-1.093	-0.306	-0.215
-370.785	444.790	-0.063	-0.138
-369.771	697.514	-0.060	0.156
-368.756	-1.806	0.244	-0.171
-367.742	426.647	-0.102	0.219
-366.727	-200.000	0.083	-0.490
-365.712	-200.000	0.050	-0.337
-364.698	-121.680	-0.026	-0.004
-363.683	-34.532	-0.030	-0.016
-362.669	-68.350	-0.308	-0.119
-361.654	194.408	-0.196	0.295
-360.639	-200.000	0.047	0.232
-359.625	100.989	0.144	-0.167
-358.610	-33.564	0.091	0.050
-357.596	418.840	-0.058	-0.123
-356.581	23.154	-0.093	-0.076
-355.566	-200.000	0.009	-0.189
-354.552	49.478	0.116	0.109
-353.537	-102.298	-0.091	-0.022
-352.523	198.400	-0.221	-0.336
-351.508	-200.000	0.073	-0.378
-350.493	-200.000	0.018	-0.533
-349.479	-169.986	0.214	0.008
-348.464	633.129	-0.117	-0.294
-347.450	-161.054	-0.239	-0.012
-346.435	-193.336	-0.136	0.001
-345.420	-55.770	0.428	0.190
-344.406	800.000	-0.106	0.304
-343.391	326.946	0.138	0.263
-342.377	-106.461	0.058	0.013
-341.362	-200.000	-0.021	0.162
-340.348	488.516	-0.131	0.297
-339.333	-200.000	-0.048	-0.219
-338.318	800.000	-0.039	0.117
-337.304	-200.000	-0.044	0.259
-336.289	-200.000	-0.040	0.422
-335.275	-21.542	0.245	0.148
-334.260	177.282	0.151	-0.219
-333.245	800.000	0.040	0.132
-332.231	-97.222	-0.136	-0.035
-331.216	205.538	-0.111	0.171
-330.202	-200.000	0.079	0.453
-329.187	711.555	-0.085	-0.224
-328.172	-200.000	0.071	0.415
-327.158	-200.000	0.030	0.319
-326.143	117.205	-0.220	0.269
-325.129	124.967	0.122	0.152
-324.114	46.391	0.158	-0.145
-323.099	-200.000	-0.025	-0.415
-322.085	-178.744	-0.170	0.004
-321.070	-54.872	-0.202	-0.091
-320.056	-18.933	-0.207	0.128
-319.041	-200.000	0.018	0.284
-318.026	8.625	-0.239	0.179
-317.012	-11.043	-0.143	-0.094
-315.997	271.983	0.138	0.241
-314.983	-70.253	-0.383	0.144
-313.968	800.000	-0.009	0.030
-312.953	-67.576	0.127	0.049
-311.939	-49.890	-0.259	-0.122
-310.924	-115.329	0.204	-0.038
-309.910	127.590	0.111	0.140
-308.895	-34.785	-0.044	0.024
-307.880	129.510	0.103	0.130
-306.866	214.001	-0.292	0.459
-305.851	-7.918	0.366	-0.245
-304.837	-200.000	-0.014	0.150
-303.822	186.627	0.155	0.229
-302.807	-200.000	0.013	-0.087
-301.793	-29.726	-0.012	0.007
-300.778	-20.870	0.295	0.179
-299.764	800.000	0.017	-0.064
-298.749	-93.637	-0.488	-0.134
-297.735	-6.387	-0.326	0.220
-296.720	12.021	-0.122	0.093
-295.705	-46.242	-0.173	-0.084
-294.691	-151.027	0.125	0.009
-293.676	-43.293	0.105	0.053
-292.662	800.000	-0.029	0.097
-291.647	-4.492	0.335	-0.229
-290.632	-42.700	-0.172	0.087
-289.618	-121.580	-0.599	-0.099
-288.603	-191.754	0.244	0.002
-287.589	-49.729	0.131	0.062
-286.574	-200.000	0.048	0.298
-285.559	800.000	0.109	0.315
-284.545	-25.995	0.312	-0.182
-283.530	-98.438	-0.074	0.019
-282.516	178.911	-0.017	-0.025
-281.501	6.865	0.103	0.076
-280.486	-100.908	0.482	0.117
-279.472	787.547	-0.079	-0.214
-278.457	-200.000	0.020	0.178
-277.443	-200.000	0.020	0.222
-276.428	280.219	-0.113	-0.201
-275.413	92.633	-0.126	-0.141
-274.399	800.000	0.032	0.099
-273.384	-41.492	0.155	0.079
-272.370	-200.000	-0.009	0.060
-271.355	400.962	-0.126	-0.262
-270.340	-5.656	-0.163	-0.111
-269.326	461.012	0.058	-0.129
-268.311	800.000	-0.073	0.213
-267.297	800.000	0.120	0.360
-266.282	-73.583	0.488	-0.176
-265.267	-154.425	-0.197	-0.013
-264.253	800.000	0.035	-0.100
-263.238	-18.136	0.282	0.175
-262.224	-118.421	0.163	0.029
-261.209	384.950	0.135	0.276
-260.195	-160.605	0.233	-0.012
-259.180	-200.000	0.021	0.170
-258.165	-200.000	-0.002	-0.054
-257.151	98.568	0.202	0.231
-256.136	-38.484	0.040	-0.021
-255.122	-114.549	0.138	0.026
-254.107	54.600	-0.176	-0.168
-253.092	-183.941	0.222	0.004
-252.078	800.000	0.054	-0.234
-251.063	-82.475	0.276	0.089
-250.049	-200.000	0.014	0.215
-249.034	-200.000	0.018	0.297
-248.019	92.134	-0.089	-0.099
-247.005	54.862	-0.128	0.122
-245.990	-94.349	-0.064	-0.017
-244.976	-84.693	0.289	0.090
-243.961	2.167	0.105	-0.075
-242.946	800.000	-0.082	-0.274
-241.932	17.787	-0.145	-0.114
-240.917	800.000	0.084	-0.246
-239.903	360.472	-0.117	0.232
-238.888	-179.388	0.062	-0.001
-237.873	-69.664	0.067	-0.025
-236.859	-104.297	-0.034	0.008
-235.844	-105.395	0.036	-0.008
-234.830	212.362	-0.156	-0.243
-233.815	-97.609	0.194	-0.050
-232.800	29.147	-0.283	-0.237
-231.786	-130.303	0.201	-0.027
-230.771	-200.000	0.055	0.327
-229.757	54.921	0.099	-0.095
-228.742	16.584	-0.308	-0.241
-227.727	-45.052	0.209	-0.103
-226.713	65.169	-0.170	-0.170
-225.698	-22.930	0.146	-0.087
-224.684	-116.215	0.222	0.041
-223.669	800.000	-0.033	0.117
-222.655	478.756	-0.043	0.096
-221.640	15.125	0.244	0.189
-220.625	19.563	0.296	0.236
-219.611	259.158	0.077	0.132
-218.596	456.485	-0.112	-0.245
-217.582	221.638	0.037	0.058
-216.567	48.076	-0.309	0.285
-215.552	800.000	-0.017	0.047
-214.538	632.936	-0.057	0.142
-213.523	-200.000	-0.004	0.074
-212.509	-200.000	-0.007	-0.056
-211.494	22.881	-0.040	0.032
-210.479	-61.805	0.081	-0.034
-209.465	-155.188	-0.623	-0.040
-208.450	-105.269	-0.309	-0.070
-207.436	-67.687	-0.060	0.023
-206.421	-107.843	-0.270	0.058
-205.406	-12.722	0.170	-0.109
-204.392	-200.000	0.022	-0.130
-203.377	800.000	-0.159	0.678
-202.363	11.823	-0.253	-0.192
-201.348	800.000	0.033	-0.119
-200.333	-200.000	0.036	0.338
-199.319	5.220	0.232	-0.169
-198.304	-98.799	0.143	0.036
-197.290	-17.276	0.138	-0.086
-196.275	345.891	0.107	-0.208
-195.260	207.466	-0.060	-0.092
-194.246	-200.000	0.073	-0.478
-193.231	-23.461	-0.135	-0.080
-192.217	-168.955	0.064	0.002
-191.202	121.260	-0.197	0.242
-190.187	800.000	-0.048	0.144
-189.173	498.678	-0.024	0.054
-188.158	-53.314	-0.134	0.061
-187.144	77.324	0.080	0.084
-186.129	-200.000	0.003	0.052
-185.114	430.120	0.160	0.341
-184.100	-200.000	0.001	0.261
-183.085	-200.000	0.044	0.219
-182.071	-114.116	-0.117	0.022
-181.056	-200.000	-0.007	-0.123
-180.042	290.229	-0.087	0.155
-179.027	-108.549	-0.419	0.089
-178.012	638.329	0.018	-0.045
-176.998	800.000	0.049	0.163
-175.983	199.776	-0.035	-0.052
-174.969	-132.867	-0.375	0.047
-173.954	270.511	-0.101	0.176
-172.939	491.801	0.088	-0.199
-171.925	-121.457	-0.159	-0.026
-170.910	23.167	0.091	-0.074
-169.896	-160.693	-0.139	-0.007
-168.881	800.000	-0.089	-0.268
-167.866	11.072	-0.089	0.067
-166.852	-60.858	-0.233	0.097
-165.837	70.756	0.191	-0.195
-164.823	-128.822	0.157	-0.022
-163.808	292.463	0.179	-0.322
-162.793	170.657	-0.055	-0.078
-161.779	-200.000	-0.008	0.081
-160.764	-75.891	0.399	-0.139
-159.750	800.000	-0.031	-0.122
-158.735	-7.683	0.034	0.023
-157.720	141.432	0.093	-0.122
-156.706	12.563	0.083	-0.063
-155.691	-70.231	0.019	-0.007
-154.677	-200.000	0.024	0.107
-153.662	-200.000	-0.101	0.460
-152.647	156.099	0.146	0.199
-151.633	-200.000	0.014	0.183
-150.618	758.911	-0.027	-0.073
-149.604	388.154	-0.127	-0.258
-148.589	69.068	0.121	0.123
-147.574	800.000	0.017	-0.062
-146.560	-27.759	0.215	0.123
-145.545	-138.614	0.050	-0.005
-144.531	-28.532	-0.239	-0.136
-143.516	-200.000	-0.020	0.262
-142.502	-14.867	-0.065	0.041
-141.487	-162.588	0.458	0.022
-140.472	39.039	-0.214	-0.188
-139.458	-116.271	0.150	0.027
-138.443	-200.000	0.001	-0.186
-137.429	-6.436	0.217	-0.145
-136.414	-200.000	-0.031	0.249
-135.399	-49.091	0.194	0.092
-134.385	-108.896	-0.140	0.029
-133.370	-13.923	0.198	-0.126
-132.356	-7.250	-0.304	-0.203
-131.341	167.508	0.064	-0.090
-130.326	-121.906	-0.139	0.023
-129.312	-22.475	0.077	-0.046
-128.297	-28.495	0.072	-0.041
-127.283	216.311	-0.294	0.461
-126.268	800.000	-0.087	-0.237
-125.253	-120.053	-0.112	-0.019
-124.239	-51.037	0.197	-0.091
-123.224	9.276	-0.089	0.066
-122.210	-158.695	-0.249	-0.014
-121.195	195.987	-0.125	0.187
-120.180	63.118	0.079	-0.078
-119.166	42.197	-0.058	0.052
-118.151	588.742	-0.055	-0.134
-117.137	299.912	-0.153	-0.278
-116.122	-111.080	0.146	-0.030
-115.107	297.813	-0.123	-0.222
-114.093	-7.877	0.306	0.203
-113.078	-73.118	-0.344	0.124
-112.064	65.077	0.115	0.114
-111.049	81.910	-0.194	-0.206
-110.034	-139.555	-0.169	-0.018
-109.020	31.594	0.089	-0.075
-108.005	-60.131	0.127	0.053
-106.991	511.850	0.066	0.152
-105.976	-200.000	-0.030	-0.190
-104.962	-173.011	-0.117	0.004
-103.947	33.018	0.084	-0.072
-102.932	-200.000	0.004	0.037
-101.918	-200.000	0.088	-0.458
-100.903	45.839	-0.156	0.142
-99.889	563.155	0.070	0.167
-98.874	515.264	-0.039	-0.090
-97.859	480.154	0.077	0.172
-96.845	-5.223	-0.331	0.224
-95.830	116.066	-0.094	-0.114
-94.816	-165.274	0.168	-0.007
-93.801	800.000	-0.080	-0.248
-92.786	180.634	-0.031	-0.045
-91.772	433.616	0.123	0.263
-90.757	-118.880	-0.222	0.038
-89.743	-200.000	0.004	-0.233
-88.728	-200.000	0.004	-0.400
-87.713	254.534	-0.113	-0.191
-86.699	-77.457	0.205	0.070
-85.684	-160.693	-0.349	-0.018
-84.670	-200.000	-0.004	0.297
-83.655	120.857	-0.306	0.375
-82.640	800.000	-0.131	0.524
-81.626	42.117	0.225	0.201
-80.611	-200.000	-0.011	0.119
-79.597	797.286	-0.088	0.240
-78.582	-100.414	0.214	0.052
-77.567	-200.000	0.032	-0.207
-76.553	498.819	0.097	-0.220
-75.538	-200.000	-0.017	0.095
-74.524	-119.427	0.247	-0.042
-73.509	-7.291	-0.350	-0.233
-72.494	-83.575	-0.136	-0.043
-71.480	800.000	-0.017	0.054
-70.465	-200.000	-0.078	0.394
-69.451	99.213	0.180	0.204
-68.436	800.000	-0.040	-0.136
-67.422	-108.638	0.197	-0.042
-66.407	800.000	-0.079	0.238
-65.392	-173.829	-0.123	0.004
-64.378	-113.382	0.223	0.043
-63.363	-16.734	-0.302	-0.188
-62.349	-26.373	0.251	0.145
-61.334	95.932	-0.875	-0.982
-60.319	429.531	0.382	0.811
-59.305	245.779	-0.616	-1.019
-58.290	528.493	0.500	1.158
-57.276	-200.000	0.308	1.522
-56.261	-200.000	97.589	596.193
-55.246	532.567	1390.468	3233.065
-54.232	160.967	2557.336	3509.720
-53.217	111.433	2153.952	2551.313
-52.203	42.248	1694.717	1512.473
-51.188	34.757	1505.677	1293.251
-50.173	32.404	1479.526	1255.066
-49.159	52.486	1529.166	1433.763
-48.144	53.675	1547.192	1458.667
-47.130	35.052	1506.510	1295.761
-46.115	31.899	1491.898	1261.965
-45.100	31.545	1488.959	1257.050
-44.086	31.611	1486.895	1255.700
-43.071	31.683	1484.363	1253.995
-42.057	31.550	1483.390	1252.231
-41.042	31.560	1481.790	1250.895
-40.027	31.505	1480.842	1249.682
-39.013	31.573	1478.974	1248.511
-37.998	31.570	1477.682	1247.350
-36.984	31.606	1476.078	1246.183
-35.969	31.642	1474.509	1245.048
-34.954	31.605	1473.354	1243.776
-33.940	31.595	1472.272	1242.751
-32.925	31.680	1470.821	1242.040
-31.911	31.725	1469.713	1241.350
-30.896	31.739	1467.921	1239.883
-29.881	31.799	1466.915	1239.381
-28.867	31.722	1465.461	1237.593
-27.852	31.579	1464.238	1235.569
-26.838	31.696	1462.896	1235.156
-25.823	31.791	1461.203	1234.306
-24.809	31.643	1459.852	1232.140
-23.794	31.736	1458.269	1231.367
-22.779	31.671	1457.157	1229.955
-21.765	31.681	1456.319	1229.265
-20.750	31.607	1454.906	1227.535
-19.736	31.637	1453.860	1226.798
-18.721	31.622	1452.733	1225.705
-17.706	31.596	1451.946	1224.818
-16.692	31.674	1450.702	1224.229
-15.677	31.608	1449.709	1222.916
-14.663	31.607	1448.725	1222.031
-13.648	31.612	1447.895	1221.311
-12.633	31.601	1446.856	1220.314
-11.619	31.621	1445.988	1219.664
-10.604	31.572	1445.553	1218.929
-9.590	31.584	1444.188	1217.809
-8.575	31.514	1443.416	1216.658
-7.560	31.574	1442.323	1216.075
-6.546	31.500	1441.652	1214.983
-5.531	31.509	1440.872	1214.336
-4.517	31.490	1439.482	1212.989
-3.502	31.576	1438.670	1212.816
-2.487	31.649	1437.345	1212.123
-1.473	31.493	1436.944	1210.731
-0.458	31.535	1435.564	1209.786
0.556	29.445	1426.240	1198.305
1.571	26.319	1401.221	1157.202
2.586	22.729	1340.882	1085.230
3.600	20.925	1260.644	1009.758
4.615	19.744	1215.731	967.094
5.629	16.996	1159.500	907.604
6.644	8.603	1074.087	798.912
7.659	1.362	1032.714	733.206
8.673	0.149	1027.181	723.389
9.688	0.109	1024.202	721.035
10.702	-0.043	1022.892	719.319
11.717	0.005	1020.817	718.027
12.731	2.696	1023.765	732.913
13.746	11.138	1034.921	781.485
14.761	17.299	1042.229	816.615
15.775	17.522	1041.211	816.815
16.790	16.454	1039.290	810.120
17.804	15.295	1036.869	802.615
18.819	14.469	1034.755	796.959
19.834	14.002	1034.018	794.089
20.848	13.694	1032.925	791.710
21.863	13.528	1032.419	790.460
22.877	13.212	1031.482	788.166
23.892	12.973	1030.659	786.329
24.907	12.966	1029.475	785.324
25.921	12.908	1029.283	784.828
26.936	13.000	1028.288	784.439
27.950	12.897	1027.919	783.599
28.965	13.072	1027.073	783.714
29.980	13.047	1026.109	782.793
30.994	13.202	1025.256	782.808
32.009	13.174	1024.654	782.147
33.023	13.230	1023.533	781.487
34.038	13.390	1022.811	781.621
35.053	13.302	1022.046	780.552
36.067	13.166	1021.417	779.362
37.082	13.176	1020.640	778.744
38.096	13.172	1019.788	778.006
39.111	13.270	1018.933	777.749
40.126	13.283	1018.250	777.221
41.140	13.178	1017.026	775.724
42.155	13.019	1016.306	774.358
43.169	12.936	1015.491	773.280
44.184	13.014	1014.237	772.625
45.199	12.979	1013.279	771.661
46.213	12.943	1012.442	770.787
47.228	13.019	1011.285	770.192
48.242	13.174	1010.125	769.965
49.257	13.070	1009.354	768.825
50.271	13.030	1008.674	768.050
51.286	13.026	1008.006	767.458
52.301	13.230	1006.822	767.432
53.315	13.157	1006.354	766.673
54.330	13.190	1005.662	766.229
55.344	13.107	1004.959	765.240
56.359	12.939	1004.027	763.685
57.374	13.117	1002.910	763.593
58.388	12.996	1002.052	762.313
59.403	12.984	1001.141	761.495
60.417	13.052	1000.142	760.980
61.432	13.004	999.462	760.174
62.447	12.861	999.534	759.504
63.461	12.980	998.072	758.876
64.476	12.931	997.636	758.251
65.490	12.856	996.873	757.257
66.505	12.940	996.072	756.968
67.520	13.004	995.025	756.400
68.534	12.968	994.187	755.532
69.549	12.943	993.462	754.798
70.563	12.994	992.939	754.567
71.578	13.004	992.213	753.993
72.593	12.897	991.912	753.208
73.607	12.933	989.999	751.854
74.622	12.931	989.442	751.357
75.636	12.766	988.461	749.792
76.651	12.851	988.140	749.870
77.666	12.887	986.966	749.076
78.680	12.873	986.532	748.616
79.695	12.856	985.565	747.740
80.709	12.870	985.264	747.508
81.724	12.990	984.236	747.210
82.739	12.951	983.520	746.422
83.753	13.057	982.831	746.311
84.768	13.029	982.363	745.765
85.782	13.083	981.624	745.380
86.797	13.335	980.292	745.439
87.812	13.202	979.854	744.440
88.826	13.102	979.139	743.380
89.841	13.185	978.314	743.063
90.855	13.176	977.619	742.427
91.870	13.220	976.714	741.874
92.884	13.090	976.634	741.165
93.899	13.117	975.533	740.385
94.914	13.211	974.630	740.055
95.928	13.300	973.777	739.738
96.943	13.298	973.589	739.524
97.957	13.280	972.689	738.694
98.972	13.179	971.893	737.573
99.987	13.136	971.473	736.994
101.001	13.295	970.107	736.603
102.016	13.235	969.831	736.061
103.030	13.168	968.590	734.756
104.045	13.300	967.463	734.424
105.060	13.186	966.864	733.395
106.074	13.128	966.063	732.464
107.089	13.191	964.608	731.578
108.103	13.071	964.052	730.561
109.118	13.100	963.207	729.983
110.133	13.115	962.394	729.369
111.147	13.178	961.501	728.904
112.162	13.076	960.923	727.954
113.176	13.085	959.820	727.092
114.191	13.160	959.007	726.741
115.206	13.048	958.023	725.439
116.220	13.172	957.518	725.539
117.235	13.052	956.602	724.253
118.249	13.151	955.918	724.105
119.264	12.988	955.232	722.808
120.279	13.028	954.344	722.248
121.293	13.107	953.429	721.836
122.308	13.068	952.452	720.861
123.322	12.976	951.903	719.982
124.337	12.979	951.455	719.592
125.352	13.002	950.068	718.580
126.366	12.966	949.022	717.569
127.381	13.076	947.822	717.075
128.395	13.226	946.979	717.026
129.410	13.050	946.135	715.560
130.424	13.172	945.106	715.247
131.439	13.013	944.057	713.702
132.454	13.063	943.641	713.538
133.468	13.210	942.829	713.497
134.483	13.079	942.160	712.362
135.497	13.233	941.499	712.463
136.512	13.184	940.559	711.477
137.527	13.179	939.721	710.762
138.541	13.277	939.057	710.618
139.556	13.233	938.430	709.888
140.570	13.203	937.676	709.127
141.585	13.270	936.574	708.518
142.600	13.092	936.519	707.651
143.614	13.289	935.526	707.683
144.629	13.365	934.719	707.335
145.643	13.254	934.205	706.411
146.658	13.354	933.432	706.190
147.673	13.351	932.287	705.249
148.687	13.130	931.722	703.814
149.702	13.141	931.138	703.361
150.716	13.258	929.479	702.541
151.731	13.174	928.891	701.677
152.746	13.164	928.468	701.255
153.760	13.273	927.266	700.744
154.775	13.301	926.816	700.464
155.789	13.403	925.810	700.073
156.804	13.414	925.068	699.497
157.819	13.310	924.613	698.651
158.833	13.354	923.913	698.245
159.848	13.382	923.374	697.895
160.862	13.428	922.531	697.388
161.877	13.461	921.917	697.004
162.892	13.424	920.964	696.063
163.906	13.336	920.420	695.221
164.921	13.346	919.242	694.313
165.935	13.293	918.295	693.311
166.950	13.386	917.146	692.774
167.964	13.458	916.323	692.390
168.979	13.353	915.347	691.153
169.994	13.321	914.224	690.112
171.008	13.407	913.682	689.998
172.023	13.327	912.793	688.934
173.037	13.490	912.020	688.968
174.052	13.571	911.229	688.648
175.067	13.452	910.764	687.739
176.081	13.390	910.225	687.015
177.096	13.384	909.191	686.150
178.110	13.499	907.936	685.617
179.125	13.474	907.447	685.085
180.140	13.393	906.809	684.208
181.154	13.469	906.390	684.142
182.169	13.567	905.547	683.850
183.183	13.483	904.809	682.887
184.198	13.673	903.651	682.734
185.213	13.497	903.414	681.772
186.227	13.634	903.062	682.010
187.242	13.604	902.685	681.542
188.256	13.704	901.953	681.337
189.271	13.748	900.707	680.518
190.286	13.745	900.396	680.208
191.300	13.594	899.674	678.986
192.315	13.433	898.808	677.614
193.329	13.391	898.614	677.235
194.344	13.493	897.603	676.830
195.359	13.455	897.297	676.384
196.373	13.651	896.585	676.586
197.388	13.598	895.838	675.748
198.402	13.708	895.466	675.854
199.417	13.828	894.839	675.812
200.432	13.821	894.918	675.784
201.446	13.828	894.305	675.290
202.461	13.879	893.855	675.094
203.475	13.985	893.427	675.145
204.490	13.948	892.237	674.035
205.504	13.752	891.827	672.870
206.519	13.795	891.064	672.409
207.534	13.823	890.554	672.079
208.548	13.716	889.629	670.887
209.563	13.852	888.635	670.627
210.577	13.900	888.027	670.306
211.592	13.795	887.828	669.673
212.607	13.923	887.042	669.534
213.621	14.023	886.301	669.319
214.636	14.000	885.578	668.621
215.650	14.127	884.841	668.518
216.665	14.006	884.573	667.769
217.680	14.042	884.239	667.604
218.694	13.955	883.628	666.734
219.709	14.213	882.790	667.074
220.723	14.088	882.017	665.934
221.738	14.129	881.737	665.827
222.753	14.036	881.241	665.019
223.767	14.118	880.263	664.551
224.782	14.142	879.301	663.863
225.796	14.250	878.924	663.951
226.811	14.227	877.927	663.046
227.826	14.162	877.594	662.476
228.840	14.195	876.939	662.054
229.855	14.152	876.290	661.337
230.869	14.225	875.627	661.067
231.884	14.295	875.104	660.890
232.899	14.226	874.738	660.283
233.913	14.222	873.630	659.374
234.928	14.209	872.795	658.633
235.942	14.046	872.546	657.742
236.957	14.087	871.866	657.330
237.972	14.130	870.882	656.700
238.986	14.115	870.381	656.208
240.001	14.164	869.884	655.966
241.015	14.245	869.313	655.797
242.030	14.221	868.652	655.147
243.045	14.224	867.771	654.434
244.059	14.232	867.461	654.177
245.074	14.317	866.857	653.995
246.088	14.321	866.055	653.349
247.103	14.347	866.171	653.482
248.117	14.434	865.071	652.935
249.132	14.504	864.569	652.772
250.147	14.531	864.003	652.392
251.161	14.688	862.940	652.143
252.176	14.607	862.701	651.589
253.190	14.511	862.195	650.774
254.205	14.559	861.675	650.513
255.220	14.846	860.667	650.810
256.234	14.752	860.301	650.113
257.249	14.753	859.560	649.497
258.263	14.750	858.758	648.822
259.278	14.641	858.629	648.246
260.293	14.801	857.659	648.077
261.307	14.894	857.181	648.018
262.322	14.936	856.637	647.712
263.336	14.886	856.164	647.101
264.351	14.891	855.628	646.659
265.366	14.826	854.921	645.817
266.380	14.928	854.616	645.922
267.395	14.984	853.614	645.327
268.409	14.925	853.053	644.618
269.424	14.768	852.558	643.579
270.439	14.901	851.756	643.431
271.453	14.801	850.897	642.341
272.468	14.904	849.750	641.813
273.482	14.755	849.924	641.316
274.497	15.007	848.866	641.425
275.512	14.977	848.233	640.775
276.526	14.991	847.519	640.236
277.541	15.035	846.719	639.740
278.555	14.929	846.599	639.188
279.570	15.084	846.073	639.327
280.585	15.015	845.456	638.540
281.599	15.184	844.766	638.607
282.614	15.077	844.021	637.579
283.628	15.134	843.361	637.242
284.643	15.069	843.443	637.002
285.657	15.125	842.483	636.431
286.672	15.156	841.950	636.092
287.687	15.084	841.981	635.786
288.701	15.197	841.224	635.586
289.716	15.262	840.379	635.135
290.730	15.209	840.494	634.967
291.745	15.180	839.339	633.929
292.760	15.154	838.936	633.468
293.774	15.199	838.313	633.115
294.789	15.448	837.569	633.437
295.803	15.351	837.098	632.656
296.818	15.247	836.292	631.598
297.833	15.187	835.853	630.985
298.847	15.376	834.970	630.974
299.862	15.424	834.138	630.470
300.876	15.252	833.949	629.627
301.891	15.245	833.412	629.140
302.906	15.450	832.452	629.126
303.920	15.447	831.810	628.574
304.935	15.568	831.360	628.633
305.949	15.635	830.557	628.218
306.964	15.540	830.351	627.652
307.979	15.517	829.852	627.134
308.993	15.417	829.267	626.263
310.008	15.578	828.739	626.411
311.022	15.612	828.193	626.069
312.037	15.627	827.597	625.619
313.052	15.541	827.165	624.916
314.066	15.517	826.552	624.309
315.081	15.584	825.904	624.014
316.095	15.708	824.970	623.713
317.110	15.501	824.879	622.819
318.125	15.688	823.925	622.737
319.139	15.452	824.109	621.949
320.154	15.524	823.385	621.614
321.168	15.556	822.911	621.319
322.183	15.614	822.249	620.978
323.197	15.741	821.683	620.963
324.212	15.764	821.345	620.738
325.227	15.662	821.010	620.054
326.241	15.750	820.004	619.564
327.256	15.878	819.322	619.465
328.270	15.708	818.958	618.508
329.285	15.531	818.561	617.503
330.300	15.700	818.023	617.663
331.314	15.737	817.313	617.210
332.329	15.669	816.476	616.275
333.343	15.619	815.790	615.517
334.358	15.668	815.570	615.475
335.373	15.826	814.937	615.523
336.387	15.809	814.679	615.212
337.402	15.924	814.359	615.335
338.416	15.787	813.416	614.070
339.431	15.975	812.876	614.291
340.446	16.038	812.323	614.049
341.460	16.101	811.729	613.774
342.475	16.127	811.435	613.592
343.489	16.078	810.897	612.954
344.504	16.122	810.493	612.753
345.519	16.054	809.920	612.020
346.533	16.227	809.349	612.163
347.548	16.226	808.866	611.740
348.562	16.087	808.528	610.924
349.577	16.080	807.908	610.376
350.592	15.956	807.428	609.514
351.606	16.033	807.265	609.613
352.621	16.124	806.436	609.264
353.635	16.161	806.028	609.032
354.650	16.085	805.852	608.571
355.665	16.141	805.294	608.298
356.679	16.282	804.232	607.952
357.694	16.128	804.558	607.589
358.708	16.210	803.500	607.032
359.723	16.218	802.882	606.539
360.738	16.204	802.357	606.040
361.752	16.236	801.778	605.662
362.767	16.180	801.818	605.437
363.781	16.368	801.457	605.787
364.796	16.203	800.780	604.631
365.810	16.270	800.565	604.654
366.825	16.403	799.991	604.642
367.840	16.408	799.859	604.509
368.854	16.481	799.535	604.471
369.869	16.308	798.749	603.204
370.883	16.436	798.007	603.048
371.898	16.485	797.518	602.798
372.913	16.354	797.255	602.082
373.927	16.511	796.468	601.993
374.942	16.508	795.847	601.457
375.956	16.402	795.250	600.577
376.971	16.556	794.635	600.605
377.986	16.565	794.184	600.244
379.000	16.646	793.669	600.089
380.015	16.602	793.649	599.866
381.029	16.688	793.080	599.686
382.044	16.525	792.202	598.395
383.059	16.595	791.916	598.371
384.073	16.697	791.280	598.199
385.088	16.691	790.636	597.638
386.102	16.681	789.773	596.899
387.117	16.765	789.232	596.731
388.132	16.684	789.195	596.364
389.146	16.727	788.574	595.995
390.161	16.700	788.601	595.866
391.175	16.800	787.638	595.440
392.190	16.668	787.684	594.958
393.205	16.778	787.133	594.876
394.219	16.689	786.727	594.203
395.234	16.707	786.312	593.899
396.248	16.787	785.785	593.728
397.263	16.823	785.122	593.302
398.278	16.716	784.653	592.519
399.292	16.716	784.456	592.320
400.307	16.779	783.820	592.007
401.321	16.811	783.124	591.542
402.336	16.623	783.418	591.055
403.350	16.693	783.051	590.970
404.365	16.635	782.751	590.488
405.380	16.849	781.884	590.528
406.394	16.949	781.476	590.517
407.409	17.146	780.546	590.446
408.423	16.948	780.802	589.896
409.438	17.043	780.175	589.703
410.453	17.067	779.914	589.535
411.467	17.155	779.027	589.117
412.482	17.113	778.873	588.804
413.496	17.069	778.324	588.184
414.511	17.284	777.799	588.482
415.526	17.247	777.333	587.949
416.540	17.254	777.296	587.892
417.555	17.285	776.691	587.488
418.569	17.073	776.458	586.530
419.584	17.185	775.820	586.382
420.599	17.315	775.342	586.417
421.613	107.917	1287.607	1461.700
422.628	92.157	1362.247	1461.825
