DTS Sentinel unit serial number:	SN413079Multiplexer serial number:	ORYXHardware model number:	OX4-SRSoftware version number:	ORYX F/W v4.00 Oryx Data Collector v3.7.2.0data status	okinstallation	princeton_trtdifferential loss correction	single-endedforward channel	channel 3reverse channel	N/Adate	2019/09/14time	05:56:35forward acquisition time	60.00reverse acquisition time	0.00gamma	496.2192k internal	0.2338k external	0.2338temperature offset calibration	1.0054default loss term (dB/km)	0.3790temperature slope calibration	1.0000multiplexer offset coefficient	1.0000multiplexer slope coefficient	1.0000fibre end	0.00T internal ref (°C)	26.87T ext. ref 1 (°C)	3.41T ext. ref 2 (°C)	21.16length (m)	temperature (°C)	Stokes	anti-Stokes-747.200	-200.000	-0.008	-0.195
-746.185	-200.000	0.036	-0.264
-745.171	-58.228	-0.165	-0.072
-744.156	44.864	0.047	0.043
-743.142	-52.587	0.158	-0.073
-742.127	213.187	-0.198	0.313
-741.112	-125.277	0.180	0.028
-740.098	693.002	-0.219	0.576
-739.083	-148.925	-0.034	-0.003
-738.069	104.819	-0.067	0.079
-737.054	800.000	0.069	0.267
-736.039	396.542	-0.100	-0.210
-735.025	173.071	0.295	0.427
-734.010	-108.080	-0.113	-0.024
-732.996	-84.774	-0.604	-0.191
-731.981	-200.000	-0.044	-0.246
-730.966	-58.099	0.150	-0.066
-729.952	-200.000	0.004	-0.080
-728.937	-54.007	-0.118	0.054
-727.923	800.000	0.047	-0.179
-726.908	138.091	0.094	-0.123
-725.894	-200.000	0.084	-0.596
-724.879	800.000	-0.021	0.068
-723.864	54.710	-0.068	0.065
-722.850	-3.504	-0.175	-0.122
-721.835	-45.453	-0.342	0.170
-720.821	-200.000	0.009	-0.220
-719.806	-88.403	-0.300	-0.090
-718.791	411.469	0.114	0.243
-717.777	-109.006	-0.227	0.048
-716.762	-66.942	-0.272	-0.108
-715.748	308.921	0.142	-0.266
-714.733	109.531	-0.100	-0.120
-713.718	-116.663	0.220	0.040
-712.704	-68.913	-0.306	-0.118
-711.689	648.421	0.078	0.200
-710.675	-14.880	-0.127	-0.082
-709.660	100.602	0.125	-0.145
-708.645	309.838	0.026	-0.049
-707.631	-70.135	-0.225	-0.086
-706.616	-200.000	-0.014	-0.249
-705.602	15.721	-0.207	-0.163
-704.587	800.000	-0.068	0.227
-703.572	36.833	0.162	0.144
-702.558	-200.000	0.045	0.201
-701.543	800.000	-0.081	-0.348
-700.529	506.107	-0.044	-0.102
-699.514	-52.721	0.190	-0.088
-698.499	230.990	0.134	-0.220
-697.485	-200.000	-0.022	0.179
-696.470	-128.523	0.199	-0.028
-695.456	-105.675	0.366	0.083
-694.441	-200.000	-0.029	0.159
-693.426	-200.000	0.015	0.150
-692.412	800.000	-0.025	-0.084
-691.397	253.529	-0.142	-0.243
-690.383	-47.205	-0.323	0.158
-689.368	424.897	-0.013	0.029
-688.354	4.624	0.183	0.134
-687.339	-42.654	-0.093	0.047
-686.324	-200.000	-0.008	-0.252
-685.310	238.784	0.162	-0.269
-684.295	34.985	0.290	0.254
-683.281	289.441	0.129	-0.234
-682.266	-179.224	-0.255	0.006
-681.251	-89.004	-0.293	0.087
-680.237	800.000	0.081	0.310
-679.222	107.512	-0.176	-0.209
-678.208	38.542	-0.125	-0.112
-677.193	479.239	0.047	-0.107
-676.178	5.133	-0.121	-0.089
-675.164	90.442	-0.037	-0.042
-674.149	-16.425	0.233	0.148
-673.135	-17.689	-0.358	0.225
-672.120	-15.239	0.138	-0.088
-671.105	52.024	-0.133	-0.126
-670.091	449.409	-0.040	0.089
-669.076	800.000	-0.013	0.055
-668.062	665.165	0.078	0.201
-667.047	688.771	0.086	0.226
-666.032	189.525	0.293	0.439
-665.018	800.000	-0.047	0.140
-664.003	118.351	-0.128	-0.158
-662.989	-200.000	0.022	0.230
-661.974	-158.222	-0.195	-0.011
-660.959	69.562	0.078	-0.081
-659.945	108.667	-0.126	-0.150
-658.930	-200.000	-0.058	0.333
-657.916	-76.707	-0.296	-0.104
-656.901	-68.362	0.200	-0.078
-655.886	-126.678	-0.177	0.026
-654.872	135.810	-0.233	0.304
-653.857	95.976	-0.090	0.103
-652.843	-140.439	-0.255	-0.027
-651.828	-23.493	-0.410	0.246
-650.814	-63.856	-0.051	0.021
-649.799	-105.729	-0.408	-0.092
-648.784	289.426	0.077	-0.140
-647.770	291.004	-0.100	0.182
-646.755	-200.000	0.046	0.321
-645.741	90.556	-0.080	0.090
-644.726	-200.000	-0.031	0.330
-643.711	-200.000	0.028	0.139
-642.697	-44.778	-0.163	0.081
-641.682	259.738	0.061	0.105
-640.668	146.563	0.160	-0.214
-639.653	-93.838	-0.241	0.066
-638.638	-92.973	-0.182	-0.051
-637.624	-200.000	0.022	0.309
-636.609	-200.000	0.008	0.097
-635.595	182.295	-0.099	0.146
-634.580	159.152	-0.114	-0.158
-633.565	631.996	0.072	0.183
-632.551	-25.363	0.334	-0.197
-631.536	800.000	0.035	-0.129
-630.522	-200.000	-0.004	0.191
-629.507	333.148	0.129	-0.249
-628.492	113.905	-0.190	-0.230
-627.478	-64.360	0.189	-0.077
-626.463	-54.054	0.277	-0.126
-625.449	-130.403	-0.234	0.032
-624.434	-84.140	-0.324	-0.103
-623.419	107.099	0.172	0.204
-622.405	-200.000	-0.018	-0.121
-621.390	63.418	0.073	0.073
-620.376	153.440	-0.139	-0.190
-619.361	114.869	-0.271	-0.330
-618.346	-134.918	0.214	-0.026
-617.332	186.362	-0.213	-0.317
-616.317	-123.585	-0.041	-0.007
-615.303	-200.000	0.009	-0.205
-614.288	3.194	-0.063	-0.046
-613.273	-62.463	-0.060	-0.025
-612.259	-13.671	-0.219	-0.142
-611.244	-157.459	0.427	-0.026
-610.230	339.613	-0.104	0.203
-609.215	800.000	0.079	0.256
-608.201	-200.000	-0.040	-0.463
-607.186	-22.622	0.166	0.100
-606.171	101.685	-0.189	-0.220
-605.157	-200.000	0.016	-0.359
-604.142	-80.410	-0.216	-0.072
-603.128	242.071	-0.217	0.363
-602.113	-115.037	-0.135	-0.026
-601.098	-103.461	0.204	0.048
-600.084	-7.431	0.044	-0.030
-599.069	800.000	0.123	0.369
-598.055	-49.248	0.264	0.126
-597.040	33.432	-0.284	0.246
-596.025	800.000	0.127	-0.421
-595.011	-134.144	0.298	0.037
-593.996	720.407	-0.072	-0.190
-592.982	-115.612	-0.274	-0.051
-591.967	40.576	-0.369	0.332
-590.952	137.036	-0.075	0.097
-589.938	-200.000	0.033	0.187
-588.923	-161.325	0.347	-0.018
-587.909	146.752	0.123	-0.165
-586.894	434.202	-0.086	0.187
-585.879	-15.997	-0.352	0.223
-584.865	-17.397	-0.212	0.133
-583.850	614.720	-0.025	-0.063
-582.836	118.092	-0.135	0.166
-581.821	34.463	-0.304	-0.264
-580.806	36.809	0.084	0.074
-579.792	114.053	-0.102	0.124
-578.777	-200.000	-0.017	-0.083
-577.763	-26.401	-0.244	-0.142
-576.748	366.427	-0.083	0.167
-575.733	800.000	0.131	0.438
-574.719	117.911	-0.120	-0.147
-573.704	-200.000	0.001	-0.259
-572.690	-90.759	0.140	0.040
-571.675	-163.342	-0.359	-0.017
-570.661	-200.000	-0.019	-0.106
-569.646	-200.000	-0.034	-0.519
-568.631	161.076	-0.205	0.285
-567.617	-57.056	0.229	-0.101
-566.602	4.592	0.096	-0.071
-565.588	-200.000	0.050	0.223
-564.573	-33.821	0.336	0.184
-563.558	-176.205	-0.147	0.004
-562.544	80.934	0.081	0.087
-561.529	212.063	-0.097	0.152
-560.515	198.803	-0.185	-0.283
-559.500	800.000	0.076	0.254
-558.485	-13.524	-0.227	-0.147
-557.471	-200.000	0.005	0.108
-556.456	610.421	-0.100	0.250
-555.442	-107.166	0.235	-0.052
-554.427	-42.955	-0.307	0.155
-553.412	7.667	-0.125	0.093
-552.398	-57.195	0.280	-0.123
-551.383	19.691	0.165	-0.132
-550.369	800.000	0.040	-0.132
-549.354	-158.539	-0.279	-0.016
-548.339	89.276	-0.105	0.116
-547.325	-200.000	0.004	-0.049
-546.310	101.135	-0.210	-0.244
-545.296	-200.000	-0.036	-0.278
-544.281	800.000	0.079	0.335
-543.266	285.271	0.208	0.372
-542.252	1.224	-0.083	0.060
-541.237	49.691	0.101	0.094
-540.223	-40.079	0.374	0.194
-539.208	-143.003	0.160	-0.015
-538.193	-74.118	-0.217	0.078
-537.179	-165.924	-0.163	0.007
-536.164	800.000	-0.085	-0.239
-535.150	-0.255	0.404	0.286
-534.135	-200.000	0.086	0.544
-533.121	-200.000	0.007	0.078
-532.106	-200.000	0.004	0.024
-531.091	-181.021	-0.104	-0.002
-530.077	-9.839	-0.114	-0.075
-529.062	102.160	-0.173	-0.201
-528.048	122.086	0.076	0.095
-527.033	-165.328	-0.295	-0.013
-526.018	527.160	-0.081	0.190
-525.004	800.000	-0.110	0.317
-523.989	356.316	-0.093	-0.185
-522.975	-141.809	0.207	-0.021
-521.960	326.258	0.026	0.049
-520.945	-7.689	0.177	-0.119
-519.931	-182.815	0.457	0.008
-518.916	-17.935	0.293	0.183
-517.902	-45.963	-0.167	0.082
-516.887	39.409	-0.128	0.114
-515.872	127.025	0.081	0.102
-514.858	48.979	-0.150	-0.140
-513.843	79.911	-0.080	-0.086
-512.829	59.121	0.209	-0.204
-511.814	769.885	-0.093	0.251
-510.799	-89.186	0.254	-0.074
-509.785	-153.132	0.176	-0.012
-508.770	-200.000	-0.020	0.129
-507.756	361.930	0.105	-0.209
-506.741	-33.369	-0.237	0.131
-505.726	-200.000	-0.006	0.259
-504.712	307.491	0.024	0.045
-503.697	-152.820	0.055	0.004
-502.683	148.714	0.038	-0.052
-501.668	800.000	-0.077	-0.280
-500.653	-41.799	-0.202	0.103
-499.639	-50.210	0.022	0.010
-498.624	144.556	0.121	-0.161
-497.610	-1.116	-0.260	0.183
-496.595	-165.115	0.263	-0.012
-495.581	-168.005	-0.431	-0.017
-494.566	-200.000	-0.374	0.000
-493.551	-94.294	-0.162	0.044
-492.537	-166.427	0.438	0.018
-491.522	67.700	0.159	-0.161
-490.508	191.284	0.138	-0.207
-489.493	-66.486	-0.113	0.045
-488.478	-158.336	-0.100	-0.006
-487.464	-20.634	0.136	0.083
-486.449	-53.815	-0.144	-0.065
-485.435	21.065	0.472	0.380
-484.420	-200.000	0.063	0.310
-483.405	64.584	-0.166	0.167
-482.391	-35.712	-0.310	-0.167
-481.376	800.000	-0.063	-0.185
-480.362	-121.025	-0.148	-0.025
-479.347	-9.756	0.258	-0.171
-478.332	60.830	0.235	-0.232
-477.318	-200.000	-0.014	-0.174
-476.303	-78.510	-0.119	0.040
-475.289	-200.000	-0.006	-0.162
-474.274	-94.088	-0.168	0.046
-473.259	232.037	-0.182	0.297
-472.245	203.766	0.060	-0.092
-471.230	701.816	-0.043	-0.112
-470.216	800.000	0.069	-0.282
-469.201	-7.484	-0.180	-0.121
-468.186	108.459	0.164	0.195
-467.172	277.889	0.130	-0.230
-466.157	74.794	0.185	0.193
-465.143	-126.391	0.153	0.023
-464.128	588.723	-0.058	0.142
-463.113	370.958	0.081	-0.163
-462.099	224.430	-0.099	-0.159
-461.084	-81.639	0.385	-0.126
-460.070	88.257	0.098	-0.108
-459.055	142.145	-0.209	0.276
-458.040	-200.000	-0.062	0.337
-457.026	-7.736	-0.067	-0.045
-456.011	-200.000	-0.004	-0.217
-454.997	106.299	-0.165	-0.194
-453.982	-161.657	0.333	-0.017
-452.968	78.630	0.100	0.106
-451.953	192.771	-0.090	0.136
-450.938	81.528	-0.138	0.148
-449.924	-91.518	-0.047	0.013
-448.909	-200.000	-0.004	0.109
-447.895	-49.056	0.121	0.057
-446.880	70.184	0.176	0.181
-445.865	-7.809	0.156	0.104
-444.851	242.494	0.069	0.114
-443.836	18.127	-0.123	-0.098
-442.822	-200.000	0.006	0.037
-441.807	-200.000	0.043	-0.310
-440.792	53.356	-0.187	0.178
-439.778	-9.242	0.128	-0.085
-438.763	78.156	-0.159	-0.168
-437.749	-93.457	-0.438	0.120
-436.734	12.742	0.077	-0.059
-435.719	800.000	-0.075	0.207
-434.705	-200.000	0.014	0.216
-433.690	-18.349	-0.271	-0.168
-432.676	-74.652	-0.168	0.060
-431.661	111.133	-0.150	0.179
-430.646	-200.000	-0.007	-0.127
-429.632	800.000	0.020	0.071
-428.617	-143.089	0.175	-0.017
-427.603	800.000	-0.018	-0.075
-426.588	-85.705	-0.455	-0.140
-425.573	60.307	-0.045	-0.044
-424.559	327.380	-0.083	0.159
-423.544	-87.696	-0.300	0.090
-422.530	-8.186	0.184	-0.122
-421.515	-87.529	0.184	0.055
-420.500	426.229	-0.099	-0.211
-419.486	-32.998	-0.171	-0.094
-418.471	130.298	0.022	-0.028
-417.457	-77.707	-0.359	-0.123
-416.442	341.687	0.072	0.139
-415.428	-113.983	0.229	-0.044
-414.413	84.901	-0.076	-0.083
-413.398	54.961	-0.211	-0.202
-412.384	-157.830	-0.068	-0.004
-411.369	321.995	-0.084	0.158
-410.355	413.988	-0.113	-0.239
-409.340	579.921	-0.037	0.089
-408.325	21.708	-0.047	-0.038
-407.311	295.642	0.104	-0.188
-406.296	-7.049	-0.124	-0.083
-405.282	-200.000	0.234	0.001
-404.267	429.219	0.130	-0.278
-403.252	-200.000	0.022	0.316
-402.238	5.502	-0.166	0.122
-401.223	-82.967	0.151	-0.048
-400.209	-143.557	-0.207	-0.020
-399.194	-13.606	0.103	0.066
-398.179	-200.000	-0.311	0.001
-397.165	12.211	-0.058	0.044
-396.150	26.150	0.227	-0.188
-395.136	251.138	0.191	0.321
-394.121	800.000	-0.028	-0.092
-393.106	-178.607	-0.300	-0.007
-392.092	-200.000	0.027	0.228
-391.077	-79.809	0.161	-0.054
-390.063	-40.050	-0.176	0.091
-389.048	-200.000	0.007	-0.072
-388.033	213.862	0.102	0.159
-387.019	-200.000	-0.040	0.396
-386.004	-200.000	0.115	-0.576
-384.990	116.809	0.222	-0.270
-383.975	-200.000	0.060	0.286
-382.960	-200.000	0.040	0.458
-381.946	227.445	-0.165	-0.265
-380.931	-115.728	0.291	-0.054
-379.917	-65.151	-0.163	0.065
-378.902	-111.935	0.182	0.036
-377.888	800.000	-0.033	0.142
-376.873	800.000	-0.037	-0.108
-375.858	10.009	0.081	0.061
-374.844	-31.647	0.186	0.103
-373.829	56.885	-0.087	0.084
-372.815	-24.677	0.204	-0.120
-371.800	-161.318	0.192	0.010
-370.785	195.296	0.091	-0.137
-369.771	-53.926	0.166	0.075
-368.756	-200.000	-0.037	0.194
-367.742	473.659	0.048	0.106
-366.727	-6.570	-0.097	-0.065
-365.712	2.160	0.146	0.104
-364.698	-87.187	0.184	0.055
-363.683	-200.000	-0.066	0.392
-362.669	529.082	-0.066	0.155
-361.654	-200.000	-0.013	-0.342
-360.639	220.726	0.091	-0.145
-359.625	-3.873	0.250	-0.171
-358.610	-162.450	-0.270	-0.013
-357.596	251.223	-0.175	-0.294
-356.581	-86.091	0.197	0.060
-355.566	137.106	-0.136	0.176
-354.552	800.000	0.144	0.480
-353.537	333.713	0.029	-0.055
-352.523	562.734	-0.027	-0.065
-351.508	800.000	0.050	0.139
-350.493	-18.353	0.169	-0.104
-349.479	613.571	-0.010	0.026
-348.464	-143.565	-0.153	-0.014
-347.450	800.000	-0.042	0.166
-346.435	329.218	0.083	-0.157
-345.420	385.345	0.028	-0.056
-344.406	357.891	-0.120	0.237
-343.391	322.978	0.155	0.292
-342.377	-99.391	-0.246	0.061
-341.362	346.443	0.052	-0.101
-340.348	-97.030	-0.257	0.067
-339.333	-200.000	0.017	-0.273
-338.318	-200.000	0.049	0.223
-337.304	250.326	0.177	-0.297
-336.289	-54.920	-0.450	-0.201
-335.275	271.780	0.122	-0.213
-334.260	657.941	0.133	-0.338
-333.245	-200.000	0.007	-0.349
-332.231	35.215	-0.217	0.188
-331.216	-200.000	0.036	0.231
-330.202	55.689	0.035	0.033
-329.187	16.124	-0.087	-0.068
-328.172	-200.000	-0.008	-0.235
-327.158	-190.432	0.114	0.001
-326.143	-152.410	0.117	0.008
-325.129	-77.506	0.305	-0.105
-324.114	-200.000	-0.040	0.243
-323.099	-200.000	-0.070	0.461
-322.085	6.884	0.010	-0.007
-321.070	-73.567	0.272	-0.098
-320.056	-200.000	0.046	-0.237
-319.041	646.148	0.060	-0.151
-318.026	30.529	0.097	0.082
-317.012	-200.000	-0.054	0.255
-315.997	800.000	-0.090	0.285
-314.983	-139.485	0.048	0.005
-313.968	110.720	-0.337	-0.400
-312.953	-200.000	-0.015	0.226
-311.939	-200.000	-0.010	-0.135
-310.924	800.000	-0.012	-0.049
-309.910	109.063	0.167	0.197
-308.895	800.000	0.038	0.117
-307.880	545.285	-0.032	-0.077
-306.866	-200.000	0.064	0.293
-305.851	1.638	-0.239	0.170
-304.837	45.397	-0.082	-0.075
-303.822	-66.084	-0.246	0.097
-302.807	-30.225	0.185	-0.104
-301.793	-200.000	-0.033	-0.163
-300.778	7.650	0.216	0.160
-299.764	-200.000	0.110	0.511
-298.749	104.680	-0.290	-0.337
-297.735	-141.254	-0.334	-0.034
-296.720	-73.493	0.303	-0.109
-295.705	175.363	0.071	-0.102
-294.691	131.414	-0.121	0.153
-293.676	-75.080	0.068	0.024
-292.662	-141.089	0.250	0.025
-291.647	65.015	0.147	0.147
-290.632	-18.318	-0.334	-0.206
-289.618	-200.000	0.008	0.121
-288.603	4.583	0.110	0.079
-287.589	-200.000	0.015	0.074
-286.574	403.824	0.103	-0.213
-285.559	800.000	0.071	0.224
-284.545	800.000	0.026	-0.105
-283.530	20.108	0.041	0.032
-282.516	675.094	0.092	-0.234
-281.501	-95.720	0.207	-0.055
-280.486	-108.718	0.245	-0.052
-279.472	328.881	-0.028	0.053
-278.457	-149.246	-0.297	-0.023
-277.443	-58.032	0.233	-0.100
-276.428	800.000	-0.026	0.082
-275.413	220.562	0.070	0.111
-274.399	-200.000	-0.014	0.069
-273.384	800.000	0.031	-0.104
-272.370	95.657	-0.053	-0.059
-271.355	-200.000	-0.027	-0.184
-270.340	264.661	0.065	-0.112
-269.326	168.904	-0.155	0.217
-268.311	439.662	-0.027	-0.058
-267.297	800.000	-0.020	-0.080
-266.282	800.000	-0.090	0.296
-265.267	800.000	0.040	0.132
-264.253	-166.215	0.234	-0.010
-263.238	43.901	0.138	0.125
-262.224	13.909	0.067	-0.051
-261.209	-200.000	0.039	0.180
-260.195	1.419	-0.224	0.159
-259.180	-80.061	0.179	0.059
-258.165	-148.867	0.279	-0.022
-257.151	-49.917	0.346	-0.162
-256.136	800.000	0.045	-0.126
-255.122	-86.226	0.285	-0.086
-254.107	-76.835	0.267	-0.092
-253.092	-200.000	-0.015	-0.096
-252.078	-13.149	-0.390	0.250
-251.063	-37.840	-0.168	-0.088
-250.049	-72.772	-0.174	-0.063
-249.034	49.579	-0.178	-0.165
-248.019	-200.000	-0.105	-0.464
-247.005	2.847	-0.072	0.051
-245.990	395.843	-0.117	-0.241
-244.976	0.051	0.047	0.033
-243.961	-52.112	0.146	0.066
-242.946	360.879	0.119	-0.235
-241.932	-168.415	-0.341	-0.013
-240.917	154.047	0.098	-0.132
-239.903	137.628	0.264	-0.340
-238.888	800.000	-0.053	0.214
-237.873	-141.673	-0.398	-0.039
-236.859	-13.137	0.161	-0.103
-235.844	226.265	-0.156	0.249
-234.830	-122.771	0.447	0.071
-233.815	458.782	0.073	-0.159
-232.800	800.000	0.043	0.132
-231.786	-200.000	0.006	0.172
-230.771	-200.000	0.015	-0.183
-229.757	-56.491	0.242	0.105
-228.742	-200.000	-0.028	0.340
-227.727	-200.000	-0.004	-0.559
-226.713	-115.740	-0.084	-0.015
-225.698	-60.768	0.157	0.065
-224.684	444.527	-0.087	-0.187
-223.669	-149.074	0.072	0.006
-222.655	-104.802	0.270	0.061
-221.640	325.955	0.097	0.183
-220.625	800.000	-0.130	-0.388
-219.611	-48.364	0.189	-0.089
-218.596	145.670	0.102	-0.134
-217.582	-59.967	0.183	0.077
-216.567	-25.801	-0.121	0.070
-215.552	800.000	0.037	0.144
-214.538	-57.790	-0.175	0.075
-213.523	79.794	-0.153	0.162
-212.509	-91.556	-0.179	0.050
-211.494	105.481	-0.287	-0.333
-210.479	718.717	0.085	0.222
-209.465	800.000	-0.064	-0.265
-208.450	156.514	0.158	-0.215
-207.436	-28.455	-0.079	0.045
-206.421	-12.442	0.109	-0.070
-205.406	-21.085	-0.082	0.049
-204.392	27.412	0.263	-0.217
-203.377	800.000	0.083	-0.327
-202.363	-73.041	0.047	-0.017
-201.348	30.483	-0.120	-0.101
-200.333	70.740	0.317	-0.323
-199.319	195.902	-0.096	-0.144
-198.304	-200.000	0.007	-0.035
-197.290	-84.891	0.099	-0.031
-196.275	0.198	0.207	0.145
-195.260	-200.000	-0.005	-0.086
-194.246	129.047	-0.170	0.213
-193.231	-200.000	-0.006	0.136
-192.217	-200.000	0.015	0.104
-191.202	800.000	0.140	-0.408
-190.187	-147.627	-0.530	-0.044
-189.173	-200.000	0.083	0.423
-188.158	42.874	-0.360	-0.322
-187.144	-200.000	0.030	-0.162
-186.129	-98.991	0.204	0.051
-185.114	-200.000	-0.002	0.301
-184.100	-180.560	0.286	-0.006
-183.085	-38.921	0.239	-0.124
-182.071	800.000	0.038	-0.137
-181.056	75.212	-0.204	-0.211
-180.042	-200.000	-0.057	-0.342
-179.027	69.160	-0.083	-0.083
-178.012	222.989	0.136	0.214
-176.998	82.076	-0.233	-0.248
-175.983	14.594	-0.254	-0.195
-174.969	-200.000	0.041	-0.207
-173.954	23.363	0.112	-0.090
-172.939	-53.468	0.277	-0.125
-171.925	800.000	0.068	-0.202
-170.910	125.940	0.229	0.284
-169.896	-101.899	0.227	-0.054
-168.881	-120.653	-0.357	0.059
-167.866	800.000	-0.071	-0.258
-166.852	188.482	-0.094	-0.137
-165.837	277.544	-0.102	0.178
-164.823	-95.853	-0.160	-0.042
-163.808	222.973	-0.070	-0.111
-162.793	-177.489	0.418	-0.010
-161.779	-15.088	-0.231	0.145
-160.764	-200.000	0.007	-0.125
-159.750	-200.000	0.026	0.471
-158.735	-129.899	0.058	0.008
-157.720	-200.000	0.100	0.448
-156.706	149.924	-0.052	0.070
-155.691	-200.000	-0.035	0.251
-154.677	-167.833	0.318	-0.012
-153.662	-125.080	0.334	-0.050
-152.647	-200.000	-0.014	0.348
-151.633	285.355	-0.135	-0.239
-150.618	220.785	-0.018	-0.028
-149.604	-200.000	0.017	-0.390
-148.589	-200.000	0.050	-0.312
-147.574	-74.641	-0.294	-0.104
-146.560	54.568	0.120	-0.114
-145.545	-53.347	0.290	-0.130
-144.531	800.000	-0.027	-0.096
-143.516	72.001	0.140	0.143
-142.502	-30.309	-0.187	0.104
-141.487	211.834	-0.371	0.572
-140.472	228.919	0.118	0.189
-139.458	203.064	-0.148	-0.224
-138.443	362.460	-0.133	-0.261
-137.429	-200.000	-0.009	0.217
-136.414	-104.349	-0.049	-0.011
-135.399	92.296	0.032	0.036
-134.385	-200.000	0.044	0.330
-133.370	-83.216	-0.481	-0.152
-132.356	171.328	-0.214	-0.301
-131.341	223.988	0.134	-0.211
-130.326	-78.464	0.462	-0.155
-129.312	627.037	-0.060	-0.148
-128.297	165.051	-0.179	0.247
-127.283	-200.000	-0.005	-0.332
-126.268	69.405	0.270	0.272
-125.253	800.000	-0.105	0.285
-124.239	593.620	-0.023	-0.056
-123.224	103.113	0.195	0.223
-122.210	102.751	-0.127	-0.145
-121.195	-123.541	-0.169	0.026
-120.180	800.000	0.082	0.305
-119.166	-159.408	0.388	0.021
-118.151	-200.000	0.037	-0.369
-117.137	-83.421	-0.069	0.021
-116.122	201.164	-0.122	0.185
-115.107	-118.664	-0.068	0.012
-114.093	110.312	-0.179	-0.210
-113.078	-59.383	0.145	0.061
-112.064	-200.000	0.023	0.397
-111.049	-103.836	-0.473	-0.108
-110.034	-20.189	-0.106	0.064
-109.020	800.000	0.062	0.221
-108.005	800.000	-0.024	0.073
-106.991	800.000	0.083	0.261
-105.976	-51.336	-0.173	0.079
-104.962	15.682	0.055	-0.043
-103.947	800.000	-0.029	0.085
-102.932	-200.000	-0.003	-0.070
-101.918	-200.000	0.003	0.165
-100.903	599.114	0.078	-0.189
-99.889	221.302	0.156	0.245
-98.874	16.282	0.463	0.358
-97.859	-200.000	-0.016	0.193
-96.845	-41.227	-0.193	0.098
-95.830	-200.000	0.069	0.301
-94.816	800.000	0.090	-0.357
-93.801	-100.250	-0.195	-0.047
-92.786	254.992	0.185	0.309
-91.772	0.680	0.029	-0.020
-90.757	-45.886	0.264	0.128
-89.743	45.862	0.150	0.135
-88.728	37.423	-0.168	-0.146
-87.713	-200.000	0.002	-0.015
-86.699	-200.000	0.042	0.341
-85.684	-2.813	0.199	0.136
-84.670	69.606	-0.063	-0.063
-83.655	800.000	0.112	0.370
-82.640	-10.361	0.223	0.144
-81.626	361.380	-0.095	-0.185
-80.611	56.225	0.186	-0.177
-79.597	-166.225	0.272	-0.011
-78.582	34.343	-0.345	-0.294
-77.567	-139.485	-0.177	-0.019
-76.553	32.975	0.075	-0.063
-75.538	800.000	0.074	0.275
-74.524	-138.086	-0.091	0.010
-73.509	-70.223	-0.273	-0.101
-72.494	-200.000	0.018	-0.184
-71.480	67.622	0.200	0.200
-70.465	121.452	-0.280	-0.341
-69.451	-28.745	0.088	-0.050
-68.436	-0.323	0.136	-0.094
-67.422	725.127	0.138	0.361
-66.407	-200.000	-0.037	0.181
-65.392	-155.838	-0.280	-0.017
-64.378	-132.860	-0.286	-0.036
-63.363	220.981	-0.108	-0.170
-62.349	800.000	0.012	-0.034
-61.334	31.568	-0.955	-0.802
-60.319	-23.633	0.772	0.453
-59.305	800.000	-0.413	-1.301
-58.290	174.153	0.664	0.937
-57.276	800.000	0.451	1.762
-56.261	-200.000	116.604	658.074
-55.246	525.483	1535.219	3529.959
-54.232	176.189	2708.962	3842.578
-53.217	107.506	2183.515	2537.595
-52.203	37.706	1700.963	1475.098
-51.188	29.898	1517.086	1262.577
-50.173	27.750	1491.706	1226.979
-49.159	51.678	1551.182	1440.647
-48.144	49.945	1566.265	1442.723
-47.130	30.190	1521.983	1268.451
-46.115	27.074	1507.053	1234.808
-45.100	27.051	1502.884	1231.188
-44.086	27.030	1501.075	1229.514
-43.071	26.827	1499.547	1226.841
-42.057	26.863	1498.018	1225.789
-41.042	26.823	1496.395	1224.144
-40.027	26.867	1495.315	1223.507
-39.013	26.834	1493.317	1221.600
-37.998	26.820	1492.233	1220.569
-36.984	26.833	1490.878	1219.498
-35.969	26.888	1490.018	1219.121
-34.954	26.782	1488.514	1217.130
-33.940	26.836	1487.088	1216.274
-32.925	26.850	1485.550	1215.060
-31.911	26.920	1484.319	1214.477
-30.896	26.925	1483.063	1213.433
-29.881	26.942	1481.755	1212.427
-28.867	26.872	1480.831	1211.159
-27.852	26.876	1479.717	1210.227
-26.838	26.837	1478.151	1208.637
-25.823	26.928	1476.548	1207.887
-24.809	26.982	1474.792	1206.759
-23.794	26.855	1473.404	1204.733
-22.779	26.903	1472.326	1204.118
-21.765	26.987	1471.184	1203.694
-20.750	27.015	1469.854	1202.748
-19.736	26.930	1468.827	1201.293
-18.721	26.964	1467.803	1200.634
-17.706	26.880	1466.742	1199.164
-16.692	27.028	1465.466	1199.051
-15.677	26.889	1464.585	1197.365
-14.663	26.825	1463.934	1196.364
-13.648	26.836	1462.735	1195.410
-12.633	26.857	1461.632	1194.597
-11.619	26.873	1461.215	1194.314
-10.604	26.813	1460.317	1193.141
-9.590	26.763	1459.585	1192.165
-8.575	26.893	1458.389	1191.994
-7.560	26.891	1457.600	1191.285
-6.546	26.856	1456.566	1190.168
-5.531	26.806	1456.010	1189.335
-4.517	26.811	1454.789	1188.326
-3.502	26.804	1454.382	1187.902
-2.487	26.858	1453.031	1187.102
-1.473	26.916	1451.803	1186.430
-0.458	26.914	1450.492	1185.298
0.556	26.909	1440.918	1172.827
1.571	23.831	1415.579	1132.527
2.586	20.302	1354.116	1061.709
3.600	18.593	1270.852	986.513
4.615	17.362	1225.933	944.729
5.629	14.873	1169.244	887.758
6.644	8.553	1088.285	794.893
7.659	3.862	1052.552	746.132
8.673	3.454	1046.843	740.064
9.688	3.379	1044.043	737.657
10.702	3.355	1042.492	736.383
11.717	3.452	1040.265	735.205
12.731	5.071	1041.498	743.738
13.746	11.406	1049.828	779.980
14.761	17.527	1058.183	815.526
15.775	19.468	1060.271	826.365
16.790	19.031	1058.239	822.620
17.804	18.097	1056.176	816.482
18.819	17.227	1054.314	810.822
19.834	16.736	1053.223	807.572
20.848	16.607	1051.954	805.912
21.863	16.367	1051.728	804.523
22.877	16.227	1050.783	803.068
23.892	16.038	1050.006	801.500
24.907	15.968	1049.599	800.790
25.921	15.982	1048.533	799.969
26.936	16.009	1047.859	799.515
27.950	16.077	1046.816	798.968
28.965	16.074	1045.718	798.045
29.980	16.160	1044.602	797.529
30.994	16.259	1043.104	796.781
32.009	16.402	1042.650	797.040
33.023	16.382	1042.038	796.408
34.038	16.425	1040.979	795.731
35.053	16.274	1040.083	794.265
36.067	16.216	1038.699	792.865
37.082	16.183	1037.969	792.085
38.096	16.144	1037.277	791.304
39.111	16.225	1037.126	791.496
40.126	16.356	1035.917	791.117
41.140	16.274	1034.781	789.793
42.155	16.115	1033.293	787.849
43.169	15.823	1032.815	786.049
44.184	15.853	1031.824	785.368
45.199	15.935	1030.385	784.583
46.213	15.927	1029.427	783.747
47.228	15.869	1028.523	782.722
48.242	16.042	1027.759	782.871
49.257	16.123	1027.199	782.751
50.271	16.018	1026.075	781.341
51.286	16.054	1024.979	780.604
52.301	16.170	1024.773	780.913
53.315	16.266	1023.196	780.086
54.330	16.127	1022.687	778.988
55.344	15.989	1021.880	777.669
56.359	15.972	1020.878	776.756
57.374	16.031	1019.922	776.235
58.388	16.036	1019.443	775.822
59.403	15.817	1018.499	774.029
60.417	15.879	1017.465	773.459
61.432	15.929	1016.486	772.877
62.447	15.713	1016.597	771.903
63.461	15.710	1015.192	770.753
64.476	15.718	1014.150	769.931
65.490	15.769	1013.366	769.502
66.505	15.809	1012.405	768.882
67.520	15.825	1011.732	768.378
68.534	15.799	1011.312	767.873
69.549	15.808	1010.485	767.217
70.563	15.697	1009.856	766.168
71.578	15.697	1009.148	765.561
72.593	15.683	1007.712	764.341
73.607	15.641	1007.127	763.641
74.622	15.725	1005.820	762.962
75.636	15.662	1004.762	761.808
76.651	15.745	1003.925	761.479
77.666	15.656	1003.636	760.790
78.680	15.667	1002.987	760.282
79.695	15.646	1002.638	759.855
80.709	15.661	1002.222	759.538
81.724	15.813	1000.908	759.162
82.739	15.899	999.943	758.753
83.753	15.911	1000.114	758.866
84.768	16.002	998.704	758.142
85.782	16.141	998.332	758.416
86.797	16.171	998.225	758.402
87.812	16.367	997.063	758.331
88.826	16.096	996.203	756.398
89.841	16.138	994.830	755.473
90.855	16.262	994.124	755.427
91.870	16.301	993.287	754.897
92.884	16.272	993.014	754.493
93.899	16.235	992.294	753.714
94.914	16.387	990.985	753.333
95.928	16.418	990.852	753.301
96.943	16.482	989.971	752.849
97.957	16.305	989.006	751.261
98.972	16.387	987.792	750.639
99.987	16.367	987.282	750.096
101.001	16.313	986.594	749.265
102.016	16.250	986.050	748.508
103.030	16.338	984.655	747.773
104.045	16.224	984.231	746.881
105.060	16.256	983.307	746.254
106.074	16.156	981.886	744.666
107.089	15.997	981.262	743.427
108.103	15.878	980.251	742.073
109.118	15.948	978.691	741.135
110.133	15.769	978.712	740.296
111.147	15.779	977.417	739.296
112.162	15.764	976.706	738.628
113.176	15.913	975.688	738.443
114.191	16.068	974.867	738.435
115.206	16.087	974.126	737.891
116.220	15.942	973.385	736.634
117.235	15.938	972.715	736.042
118.249	15.917	971.749	735.153
119.264	15.897	970.944	734.392
120.279	15.689	970.403	733.011
121.293	15.852	969.080	732.657
122.308	15.783	968.638	731.957
123.322	15.786	967.198	730.821
124.337	15.784	966.482	730.204
125.352	15.678	965.699	729.088
126.366	15.703	964.109	727.931
127.381	15.583	963.493	726.884
128.395	15.645	962.068	726.009
129.410	15.835	961.154	726.079
130.424	15.752	960.528	725.184
131.439	15.777	959.773	724.656
132.454	15.953	958.830	724.636
133.468	15.793	957.983	723.246
134.483	15.985	957.609	723.724
135.497	16.017	957.286	723.552
136.512	16.003	956.327	722.702
137.527	15.933	955.651	721.829
138.541	15.941	954.410	720.864
139.556	15.974	953.680	720.386
140.570	15.963	953.202	719.915
141.585	16.144	952.493	720.091
142.600	16.165	951.954	719.709
143.614	16.195	951.386	719.344
144.629	16.307	950.622	719.179
145.643	16.415	949.741	718.910
146.658	16.214	949.171	717.557
147.673	16.208	948.056	716.628
148.687	16.139	946.872	715.375
149.702	16.080	946.121	714.494
150.716	15.928	945.597	713.394
151.731	16.068	944.135	712.817
152.746	16.019	943.770	712.274
153.760	15.985	943.137	711.586
154.775	16.117	941.875	711.128
155.789	16.255	941.151	711.101
156.804	16.197	940.935	710.632
157.819	16.318	939.700	710.144
158.833	16.376	939.100	709.870
159.848	16.328	939.021	709.547
160.862	16.345	938.424	709.105
161.877	16.427	937.489	708.678
162.892	16.252	936.166	706.884
163.906	16.064	935.628	705.627
164.921	16.125	934.489	704.964
165.935	16.201	933.143	704.201
166.950	16.138	932.837	703.646
167.964	16.396	931.344	703.533
168.979	16.234	930.783	702.370
169.994	16.162	929.933	701.370
171.008	16.163	929.114	700.693
172.023	16.403	928.202	700.939
173.037	16.313	927.568	700.025
174.052	16.344	927.110	699.747
175.067	16.360	926.204	699.068
176.081	16.221	925.530	697.921
177.096	16.072	924.578	696.526
178.110	16.071	923.540	695.676
179.125	16.108	922.835	695.240
180.140	16.224	922.196	695.174
181.154	16.347	921.166	694.843
182.169	16.486	920.260	694.668
183.183	16.491	920.510	694.816
184.198	16.539	919.758	694.383
185.213	16.399	919.113	693.260
186.227	16.533	918.320	693.151
187.242	16.414	918.362	692.635
188.256	16.521	917.322	692.225
189.271	16.622	916.505	691.962
190.286	16.739	915.761	691.817
191.300	16.453	914.959	689.983
192.315	16.085	914.332	687.946
193.329	16.039	913.113	686.782
194.344	15.962	912.876	686.228
195.359	16.325	912.124	687.081
196.373	16.280	911.757	686.560
197.388	16.546	911.069	687.061
198.402	16.575	910.717	686.853
199.417	16.745	910.562	687.365
200.432	16.695	910.016	686.690
201.446	16.942	909.484	687.227
202.461	16.922	908.864	686.617
203.475	16.856	908.526	686.033
204.490	16.885	908.010	685.702
205.504	16.745	907.175	684.445
206.519	16.650	906.064	683.163
207.534	16.721	904.889	682.501
208.548	16.779	904.309	682.239
209.563	16.739	903.585	681.470
210.577	16.716	903.217	681.040
211.592	16.650	902.728	680.346
212.607	16.857	902.312	680.805
213.621	16.907	901.769	680.533
214.636	17.044	900.818	680.303
215.650	16.887	900.539	679.406
216.665	16.920	899.979	679.054
217.680	17.067	899.063	678.893
218.694	17.049	898.960	678.682
219.709	16.969	898.568	678.006
220.723	17.077	897.833	677.821
221.738	17.031	897.219	677.117
222.753	17.012	896.235	676.235
223.767	17.091	895.554	675.978
224.782	16.974	894.739	674.838
225.796	17.155	894.011	674.947
226.811	17.322	893.125	674.882
227.826	17.101	892.978	673.836
228.840	17.156	892.095	673.325
229.855	16.990	891.381	672.069
230.869	16.842	891.279	671.346
231.884	17.024	889.771	670.874
232.899	17.038	889.373	670.567
233.913	16.861	888.640	669.260
234.928	16.912	887.824	668.784
235.942	16.921	887.134	668.240
236.957	16.873	886.625	667.611
237.972	16.865	885.840	666.927
238.986	16.851	885.677	666.693
240.001	16.856	885.027	666.164
241.015	16.965	884.345	666.020
242.030	16.998	883.215	665.238
243.045	17.100	883.094	665.487
244.059	17.153	882.017	664.826
245.074	17.186	881.548	664.541
246.088	17.149	880.686	663.687
247.103	17.318	880.286	663.987
248.117	17.268	880.085	663.583
249.132	17.487	879.391	663.854
250.147	17.435	879.332	663.549
251.161	17.623	878.520	663.611
252.176	17.644	878.092	663.309
253.190	17.826	877.180	663.271
254.205	17.777	876.821	662.750
255.220	17.796	876.238	662.323
256.234	17.716	875.335	661.271
257.249	17.735	874.752	660.847
258.263	17.793	874.324	660.691
259.278	17.819	873.731	660.282
260.293	17.724	873.262	659.501
261.307	17.910	872.444	659.546
262.322	18.007	872.080	659.587
263.336	17.954	871.376	658.790
264.351	17.926	871.307	658.572
265.366	17.920	870.166	657.629
266.380	17.978	869.251	657.104
267.395	17.967	869.025	656.831
268.409	17.962	867.968	655.957
269.424	17.891	867.145	655.003
270.439	17.877	866.622	654.496
271.453	17.953	865.803	654.110
272.468	17.841	864.699	652.790
273.482	17.793	864.596	652.471
274.497	17.837	863.946	652.089
275.512	17.815	863.230	651.411
276.526	17.779	862.792	650.883
277.541	17.884	861.983	650.615
278.555	17.780	861.932	650.125
279.570	17.765	861.675	649.813
280.585	18.045	860.760	650.133
281.599	18.107	859.906	649.665
282.614	18.018	859.254	648.778
283.628	17.921	859.045	648.195
284.643	18.013	858.083	647.762
285.657	17.985	857.505	647.160
286.672	17.932	857.250	646.710
287.687	17.928	856.782	646.284
288.701	17.864	856.516	645.785
289.716	18.072	855.736	645.926
290.730	18.125	854.919	645.452
291.745	18.026	854.375	644.611
292.760	18.154	853.896	644.676
293.774	18.090	853.176	643.832
294.789	18.198	852.734	643.848
295.803	18.112	852.106	642.996
296.818	18.165	851.268	642.506
297.833	18.118	850.759	641.885
298.847	18.272	849.743	641.642
299.862	18.085	849.119	640.411
300.876	18.085	848.384	639.800
301.891	18.226	847.965	639.955
302.906	18.324	847.242	639.720
303.920	18.301	846.987	639.386
304.935	18.453	846.419	639.467
305.949	18.643	845.616	639.513
306.964	18.422	845.057	638.209
307.979	18.324	844.854	637.636
308.993	18.383	843.975	637.135
310.008	18.473	843.470	637.029
311.022	18.454	843.369	636.827
312.037	18.530	842.564	636.444
313.052	18.419	841.952	635.515
314.066	18.223	841.319	634.255
315.081	18.221	840.332	633.446
316.095	18.232	839.909	633.114
317.110	18.215	839.442	632.643
318.125	18.192	839.154	632.286
319.139	18.293	838.525	632.128
320.154	18.261	838.136	631.658
321.168	18.257	837.585	631.173
322.183	18.408	836.704	631.012
323.197	18.394	836.362	630.645
324.212	18.309	835.825	629.873
325.227	18.470	835.099	629.859
326.241	18.586	834.743	629.962
327.256	18.302	834.317	628.544
328.270	18.318	833.597	628.004
329.285	18.382	833.024	627.752
330.300	18.372	832.540	627.295
331.314	18.477	831.638	626.941
332.329	18.353	831.352	626.220
333.343	18.492	830.638	626.134
334.358	18.725	829.773	626.276
335.373	18.661	829.438	625.735
336.387	18.609	829.235	625.336
337.402	18.709	828.577	625.149
338.416	18.727	828.011	624.732
339.431	18.892	827.418	624.831
340.446	18.994	827.162	624.950
341.460	19.037	826.762	624.748
342.475	18.915	825.953	623.642
343.489	19.047	825.538	623.752
344.504	19.056	825.214	623.481
345.519	19.145	824.376	623.118
346.533	19.044	824.273	622.620
347.548	19.115	823.363	622.132
348.562	19.191	822.575	621.756
349.577	18.925	822.363	620.583
350.592	18.707	821.792	619.307
351.606	18.909	820.818	619.249
352.621	18.853	820.822	618.995
353.635	18.677	820.773	618.268
354.650	18.755	819.997	617.909
355.665	19.057	819.490	618.560
356.679	18.905	818.989	617.581
357.694	19.010	818.631	617.633
358.708	18.970	818.084	617.020
359.723	18.822	817.944	616.332
360.738	18.960	817.033	616.083
361.752	18.857	816.572	615.313
362.767	19.073	815.893	615.521
363.781	19.333	815.346	615.980
364.796	19.283	815.336	615.743
365.810	19.217	815.023	615.213
366.825	19.463	814.426	615.587
367.840	19.471	814.062	615.285
368.854	19.453	813.931	615.068
369.869	19.351	813.155	614.064
370.883	19.328	812.602	613.509
371.898	19.387	811.820	613.076
372.913	19.300	811.594	612.542
373.927	19.278	810.707	611.740
374.942	19.377	810.117	611.593
375.956	19.450	809.326	611.198
376.971	19.403	809.064	610.782
377.986	19.578	808.720	611.085
379.000	19.696	807.973	610.884
380.015	19.678	807.719	610.576
381.029	19.368	807.433	609.210
382.044	19.492	806.558	608.934
383.059	19.512	806.171	608.657
384.073	19.643	805.574	608.614
385.088	19.511	805.235	607.841
386.102	19.416	804.774	607.106
387.117	19.470	803.705	606.432
388.132	19.416	803.271	605.861
389.146	19.347	802.830	605.234
390.161	19.466	802.614	605.433
391.175	19.610	802.091	605.493
392.190	19.590	802.058	605.342
393.205	19.589	801.639	604.969
394.219	19.555	800.847	604.201
395.234	19.655	800.057	603.901
396.248	19.493	799.425	602.802
397.263	19.421	798.951	602.142
398.278	19.219	799.017	601.433
399.292	19.283	798.255	601.028
400.307	19.241	797.901	600.564
401.321	19.390	797.521	600.741
402.336	19.409	797.117	600.454
403.350	19.427	796.973	600.354
404.365	19.614	796.277	600.424
405.380	19.437	796.310	599.783
406.394	19.748	795.749	600.388
407.409	19.940	795.043	600.468
408.423	19.850	794.847	599.952
409.438	19.931	794.344	599.803
410.453	19.961	793.783	599.430
411.467	20.097	793.427	599.578
412.482	20.011	793.002	598.907
413.496	19.989	792.466	598.371
414.511	20.065	791.996	598.226
415.526	20.092	791.799	598.119
416.540	19.947	791.617	597.426
417.555	20.115	791.256	597.682
418.569	20.052	790.742	597.021
419.584	20.099	789.574	596.250
420.599	20.094	789.597	596.196
421.613	161.639	1371.790	1796.716
422.628	139.976	1456.583	1796.794
